Software Version:	3.9.2.0
Unit SN:	10000200
Spectrometer SN:	6960
Date:	3/14/2024 2:12:32 PM
Data Line Index:	25
Spectral Points:	2048
Integration time (ms):	125
Averages:	20
Delay (ms):	30000
Sequence Number:	1
Processing:	dark subtract
Laser Power (mW):	305
Laser Current (mA):	825
Laser Diode Temp (C):	25.1
Laser Case Temp (C):	29.1
System Temp (C):	29
Spectrometer Temp (C):	26.9
CCD Temp (C):	0.012
Secondary Temp (C):	20.006
Heatsink Temp (C):	24.933
CCDPCB Temp (C):	38.441
SecondaryPCB Temp (C):	36.007

Wavelength	RamanShift	Raw Counts	Dark Subtracted
787.061	30.1047	446.65	34.85
787.2016	32.3739	444.65	34.7
787.3422	34.6426	448.7	38.25
787.4828	36.9109	451.9	38.9
787.6235	39.1787	460.35	44.2
787.7642	41.4461	471.25	50.2
787.9049	43.7131	478.6	54.7
788.0456	45.9796	481.2	51.5
788.1863	48.2456	495.1	63.8
788.3271	50.5112	499.95	63.15
788.4679	52.7764	506.5	68.4
788.6087	55.0411	513.2	71.6
788.7496	57.3054	524.5	76.05
788.8904	59.5692	534.25	83.55
789.0313	61.8326	545.1	92.55
789.1722	64.0955	551.1	92.7
789.3132	66.3579	571.7	108.95
789.4541	68.6199	581.15	116.45
789.5951	70.8815	606.45	138.65
789.7361	73.1426	663.95	193.55
789.8771	75.4032	801.5	325.25
790.0181	77.6634	1151.6	670.65
790.1592	79.9231	1976.9	1489.2
790.3003	82.1824	3777	3278.7
790.4414	84.4412	7078.75	6564.2
790.5825	86.6995	11751.15	11212.7
790.7237	88.9574	16490.85	15936.1
790.8648	91.2148	19898.2	19327.7
791.006	93.4717	21589.95	21007.95
791.1472	95.7282	22019.45	21435.25
791.2885	97.9842	22054.6	21466.5
791.4297	100.2398	21711.2	21117.55
791.571	102.4949	21276	20683.85
791.7123	104.7495	20733.85	20133.95
791.8536	107.0036	20119.35	19519.5
791.9949	109.2573	19476.3	18880.55
792.1363	111.5105	18849.25	18247.75
792.2777	113.7632	18232.6	17631.35
792.4191	116.0154	17700.95	17087.55
792.5605	118.2672	17278.35	16672.3
792.7019	120.5185	16867.2	16263
792.8434	122.7693	16572.95	15957.8
792.9849	125.0197	16302.6	15691.25
793.1264	127.2696	16077.85	15463.1
793.2679	129.519	15972.75	15358.05
793.4094	131.7679	15813.7	15191.15
793.551	134.0163	15717.15	15092.5
793.6926	136.2642	15590.1	14966.25
793.8342	138.5117	15495.2	14859.65
793.9758	140.7587	15350.15	14718.8
794.1175	143.0052	15232.45	14598.2
794.2591	145.2512	15039.4	14405.25
794.4008	147.4967	14889.15	14255.25
794.5425	149.7417	14812.95	14176.2
794.6842	151.9863	14687.2	14045.5
794.826	154.2304	14685.55	14042.85
794.9677	156.4739	14558.55	13908.15
795.1095	158.717	14495.95	13848.1
795.2513	160.9596	14346.25	13693.1
795.3931	163.2017	14172.45	13518.35
795.535	165.4433	13926.05	13270.05
795.6768	167.6844	13674.45	13014.7
795.8187	169.925	13389.5	12728.95
795.9606	172.1651	13079.35	12412.7
796.1025	174.4047	12888.7	12217.4
796.2445	176.6439	12628.05	11958.5
796.3864	178.8825	12423.55	11750.5
796.5284	181.1206	12267.8	11591.45
796.6704	183.3582	12123.2	11440.75
796.8124	185.5954	12048.5	11368.5
796.9544	187.832	11938.3	11255.55
797.0965	190.0681	11920	11233.85
797.2386	192.3037	11925.65	11235.9
797.3806	194.5388	11895.25	11202.8
797.5228	196.7734	11935.95	11242.55
797.6649	199.0075	11947.4	11248.5
797.807	201.2411	12034.6	11330.65
797.9492	203.4742	12059.3	11360.7
798.0914	205.7068	12172.25	11470.75
798.2336	207.9389	12236.95	11535.55
798.3758	210.1704	12342.55	11640.1
798.518	212.4015	12422.2	11711.9
798.6603	214.632	12568.2	11861.3
798.8025	216.862	12702.2	12001.4
798.9448	219.0915	12826.9	12134
799.0871	221.3205	13013	12321.9
799.2294	223.549	13216.15	12529.9
799.3718	225.777	13501	12814.45
799.5141	228.0044	13892.85	13198.9
799.6565	230.2314	14317.5	13632.85
799.7989	232.4578	14724.1	14034.75
799.9413	234.6837	15053.7	14355.5
800.0837	236.909	15221.95	14522.65
800.2262	239.1339	15189.7	14468.3
800.3687	241.3582	14948.75	14242.65
800.5111	243.582	14607.45	13871.85
800.6536	245.8053	14270.8	13546.4
800.7961	248.0281	13909.35	13187.3
800.9387	250.2503	13616.55	12891.8
801.0812	252.472	13474.2	12742.45
801.2238	254.6932	13363.55	12631.4
801.3664	256.9139	13248.8	12513.5
801.509	259.134	13189.45	12451.9
801.6516	261.3536	13077.85	12346.5
801.7942	263.5727	13039.4	12303.65
801.9369	265.7912	12925.25	12191.1
802.0795	268.0092	12873.1	12137.35
802.2222	270.2267	12783.95	12047.35
802.3649	272.4436	12726.9	11986.65
802.5076	274.6601	12673.85	11930.65
802.6504	276.8759	12628.5	11889.8
802.7931	279.0913	12637.2	11896.35
802.9359	281.3061	12635.5	11890.8
803.0787	283.5204	12734.85	11987
803.2215	285.7341	12833.6	12085.15
803.3643	287.9473	12984.9	12225.7
803.5071	290.16	13196.7	12438.5
803.6499	292.3721	13482.65	12730.45
803.7928	294.5837	13846.3	13094.9
803.9357	296.7947	14137.9	13386.95
804.0786	299.0052	14297.3	13546
804.2215	301.2152	14167	13411.15
804.3644	303.4246	13847.15	13091
804.5074	305.6334	13360.6	12607.9
804.6503	307.8418	12917.55	12163.05
804.7933	310.0495	12583.7	11825.75
804.9363	312.2568	12330.9	11577.15
805.0793	314.4635	12183.75	11430.75
805.2223	316.6696	12116.2	11359
805.3653	318.8752	12141.55	11378.55
805.5084	321.0802	12203	11445.8
805.6514	323.2847	12284.05	11524.35
805.7945	325.4887	12333.85	11574.35
805.9376	327.692	12278.45	11514.4
806.0807	329.8949	12169.35	11407.4
806.2238	332.0972	11919.1	11152.65
806.367	334.2989	11714.25	10942.85
806.5101	336.5001	11454.55	10685.2
806.6533	338.7007	11284.1	10514.45
806.7965	340.9008	11179.95	10405.65
806.9397	343.1003	11087.25	10313.25
807.0829	345.2992	11046.7	10274.65
807.2261	347.4976	11030.2	10254.4
807.3693	349.6955	11017.4	10237.85
807.5126	351.8927	11069	10288.9
807.6559	354.0895	11052.75	10260.1
807.7991	356.2856	11087.5	10306.15
807.9424	358.4812	11088.5	10307.9
808.0857	360.6763	11093.45	10314.4
808.2291	362.8707	11079.2	10299.9
808.3724	365.0646	11089.95	10303.2
808.5158	367.258	11064.6	10274.3
808.6591	369.4508	11065.3	10275.85
808.8025	371.643	11087.45	10297.9
808.9459	373.8346	11063.4	10270.25
809.0893	376.0257	11027.3	10234.6
809.2327	378.2162	10961.5	10165.85
809.3762	380.4062	10854.95	10055.75
809.5196	382.5956	10753.3	9955.7
809.6631	384.7844	10638.4	9840.1
809.8066	386.9726	10564.7	9765.55
809.9501	389.1603	10503.25	9706.95
810.0936	391.3474	10504.05	9664.7
810.2371	393.5339	10464.4	9667.1
810.3806	395.7199	10428.4	9635.65
810.5241	397.9052	10413.95	9627.9
810.6677	400.09	10413.65	9623.55
810.8113	402.2743	10450.1	9659.25
810.9548	404.4579	10472.55	9683.65
811.0984	406.641	10570.85	9781.65
811.2421	408.8235	10743.35	9956.1
811.3857	411.0054	11044.05	10250.15
811.5293	413.1868	11451.25	10659.6
811.673	415.3675	11743.7	10951
811.8166	417.5477	11928.75	11131.05
811.9603	419.7273	11943.2	11142.55
812.104	421.9064	11844.75	11037.6
812.2477	424.0848	11719.65	10916.8
812.3914	426.2627	11514.85	10711.35
812.5351	428.4399	11265.5	10458.4
812.6788	430.6166	10979.6	10169.1
812.8226	432.7928	10646.95	9837.25
812.9663	434.9683	10440.6	9631.3
813.1101	437.1432	10244.45	9430.8
813.2539	439.3176	10097.5	9285.8
813.3977	441.4914	10011.6	9198.15
813.5415	443.6645	9982.25	9166.1
813.6853	445.8371	9929.65	9114.6
813.8291	448.0091	9856.8	9043.75
813.973	450.1806	9830.6	9016.05
814.1168	452.3514	9781.75	8967
814.2607	454.5216	9777.05	8950.35
814.4046	456.6913	9697.15	8879.15
814.5485	458.8603	9701.6	8885.7
814.6924	461.0288	9756.65	8939.7
814.8363	463.1967	9757.35	8941.2
814.9802	465.3639	9870.3	9054.6
815.1241	467.5306	9964.1	9145.15
815.2681	469.6967	10128.35	9311.1
815.412	471.8622	10248.8	9426.8
815.556	474.0271	10377.55	9559.7
815.7	476.1914	10445.2	9624.8
815.844	478.3551	10396.25	9575.4
815.988	480.5182	10370.55	9549
816.132	482.6807	10306.15	9482.6
816.276	484.8426	10344.05	9520.55
816.4201	487.0039	10549.65	9727.4
816.5641	489.1647	10875.8	10049.75
816.7082	491.3248	11195.3	10374.15
816.8522	493.4843	11361	10537.65
816.9963	495.6432	11361.35	10537.85
817.1404	497.8015	11275.15	10446.4
817.2845	499.9592	11318.15	10494.95
817.4286	502.1163	11326.7	10502.95
817.5727	504.2728	11166.5	10339.2
817.7168	506.4287	10927.25	10098.15
817.861	508.5839	10549.3	9720.45
818.0051	510.7386	10254.95	9430.3
818.1493	512.8927	10056.95	9224.75
818.2935	515.0461	9906.1	9077.45
818.4377	517.199	9811.65	8983.45
818.5818	519.3512	9744.3	8917.55
818.726	521.5029	9743.4	8909.65
818.8703	523.6539	9770.2	8939.3
819.0145	525.8043	9770.65	8938.05
819.1587	527.9541	9816.45	8981.9
819.303	530.1033	9840.15	9007.85
819.4472	532.2519	9888.95	9056.65
819.5915	534.3999	10008.95	9174.15
819.7357	536.5472	10271.45	9437.3
819.88	538.694	10691.2	9858.9
820.0243	540.8401	11207.4	10373.45
820.1686	542.9856	11655	10819.45
820.3129	545.1305	11816.65	10978.2
820.4572	547.2748	11668.05	10834.35
820.6016	549.4185	11312.45	10478.2
820.7459	551.5615	10988.55	10153.45
820.8902	553.704	10804.15	9965.55
821.0346	555.8458	10726.15	9891.5
821.1789	557.987	10647.45	9812.15
821.3233	560.1276	10561.95	9724.85
821.4677	562.2675	10448.15	9613.3
821.6121	564.4069	10339.6	9505.1
821.7565	566.5456	10229.35	9395.7
821.9009	568.6837	10121.6	9286.65
822.0453	570.8212	9924.15	9089.05
822.1897	572.958	9748.55	8910.05
822.3342	575.0942	9618.5	8782.75
822.4786	577.2299	9552	8714.25
822.6231	579.3648	9560.6	8721.05
822.7675	581.4992	9624	8785.15
822.912	583.6329	9812.45	8973
823.0565	585.766	10016.2	9179.15
823.201	587.8985	10109.2	9270.75
823.3454	590.0304	10102.25	9250.95
823.4899	592.1616	10033.9	9190.3
823.6345	594.2922	9956.65	9113.75
823.779	596.4222	9864.05	9020.05
823.9235	598.5515	9718.9	8876.05
824.068	600.6802	9558.2	8716.4
824.2126	602.8083	9430.8	8588.3
824.3571	604.9358	9379.15	8533.5
824.5017	607.0626	9294.4	8450
824.6462	609.1888	9187.6	8343.9
824.7908	611.3144	9108.35	8265.15
824.9354	613.4393	8962.55	8118.7
825.08	615.5636	8842.15	7996.3
825.2246	617.6873	8749.95	7907.45
825.3692	619.8103	8686.15	7838.65
825.5138	621.9327	8641.85	7793.45
825.6584	624.0544	8613.9	7769.8
825.803	626.1756	8629.45	7783.75
825.9477	628.2961	8598.35	7753.55
826.0923	630.4159	8561.1	7715.25
826.237	632.5351	8528.55	7683.4
826.3816	634.6537	8464.1	7614.45
826.5263	636.7716	8434.1	7584.5
826.6709	638.8889	8447.25	7598
826.8156	641.0056	8431.95	7585
826.9603	643.1216	8415.45	7566.4
827.105	645.237	8430.85	7578.85
827.2497	647.3518	8420.85	7571.85
827.3944	649.4659	8458.2	7610.6
827.5391	651.5793	8440.25	7592.2
827.6838	653.6922	8453.4	7603.85
827.8285	655.8043	8408.2	7561.3
827.9733	657.9159	8390.5	7538.2
828.118	660.0268	8320.5	7468.15
828.2627	662.137	8255.4	7405.8
828.4075	664.2466	8201.25	7347.3
828.5522	666.3556	8191.05	7338.9
828.697	668.4639	8178.8	7324
828.8418	670.5716	8207.55	7357.35
828.9865	672.6786	8286.35	7430.35
829.1313	674.785	8339.4	7484.55
829.2761	676.8907	8401.15	7549.85
829.4209	678.9958	8466.5	7616.9
829.5657	681.1002	8454.25	7597.75
829.7105	683.204	8416.3	7559.85
829.8553	685.3072	8331.55	7475.25
830.0001	687.4097	8277.5	7423.85
830.1449	689.5115	8220.25	7363.45
830.2898	691.6127	8141.75	7284.15
830.4346	693.7132	8071.5	7214.65
830.5794	695.8131	8046.45	7169.9
830.7243	697.9123	7987.15	7129.7
830.8691	700.0109	7922.1	7065.15
831.014	702.1089	7923.4	7068.05
831.1588	704.2061	7905.55	7051.2
831.3037	706.3028	7933.6	7074.5
831.4486	708.3987	7981.8	7124.8
831.5935	710.4941	8041.2	7183.35
831.7383	712.5887	8189.95	7331
831.8832	714.6827	8435.1	7574.6
832.0281	716.7761	8740.35	7882.25
832.173	718.8688	9044.5	8185.65
832.3179	720.9608	9226.95	8364.7
832.4628	723.0522	9215.7	8351.95
832.6077	725.1429	8987.15	8126.7
832.7527	727.233	8694.5	7834
832.8976	729.3224	8397.85	7537.15
833.0425	731.4112	8119.5	7258.9
833.1874	733.4993	7957.45	7093.65
833.3324	735.5867	7836.5	6974.75
833.4773	737.6735	7792.05	6927.85
833.6222	739.7596	7739.85	6877.85
833.7672	741.845	7726.65	6864.05
833.9122	743.9298	7723.6	6861.95
834.0571	746.014	7708.3	6847.3
834.2021	748.0974	7713.45	6850.45
834.347	750.1802	7719.3	6857.5
834.492	752.2624	7722.3	6861.8
834.637	754.3439	7693.5	6831.4
834.782	756.4247	7756	6884.45
834.9269	758.5048	7812.1	6953.65
835.0719	760.5843	7938.25	7076.45
835.2169	762.6631	8146.2	7283.75
835.3619	764.7413	8453.55	7592.65
835.5069	766.8188	8877.15	8014.4
835.6519	768.8956	9257.2	8392.85
835.7969	770.9718	9471.3	8610.65
835.9419	773.0473	9362.4	8500.15
836.0869	775.1221	9108.5	8245.5
836.232	777.1962	8834.25	7973.65
836.377	779.2697	8655.65	7791.6
836.522	781.3426	8714.6	7839.4
836.667	783.4147	8920.65	8055.3
836.8121	785.4862	9192.35	8331.4
836.9571	787.557	9216.2	8350.7
837.1021	789.6271	8935.15	8071.1
837.2472	791.6966	8466.95	7601.95
837.3922	793.7654	8077.3	7212.85
837.5373	795.8335	7825.25	6958.85
837.6823	797.901	7677.9	6813.95
837.8274	799.9678	7631.35	6767.15
837.9724	802.0339	7633.55	6767.6
838.1175	804.0993	7668.3	6795.7
838.2626	806.1641	7658.3	6792.9
838.4076	808.2282	7642.3	6778.05
838.5527	810.2916	7545.7	6678.05
838.6978	812.3544	7454.3	6592
838.8428	814.4164	7392.25	6528.3
838.9879	816.4778	7377.1	6509.3
839.133	818.5385	7345.3	6479.55
839.2781	820.5986	7370.4	6505.9
839.4232	822.658	7387.75	6521.05
839.5682	824.7166	7407.25	6541.05
839.7133	826.7747	7494.75	6628.75
839.8584	828.832	7557.2	6690.6
840.0035	830.8886	7655.15	6787.95
840.1486	832.9446	7772.65	6903.75
840.2937	834.9999	7832.4	6967.15
840.4388	837.0545	7905	7033.75
840.5839	839.1085	7925.85	7060.15
840.729	841.1618	7938.15	7069.3
840.8741	843.2143	7950.45	7083.1
841.0192	845.2662	7903.05	7035.65
841.1643	847.3175	7846.9	6979.7
841.3095	849.368	7761.4	6893.1
841.4546	851.4179	7656.75	6789.95
841.5997	853.467	7542.35	6675.25
841.7448	855.5155	7431.3	6567.15
841.8899	857.5633	7345.55	6476.8
842.0351	859.6105	7275.1	6406.15
842.1802	861.6569	7182.95	6315.4
842.3253	863.7027	7167.8	6298
842.4704	865.7478	7122.05	6251.5
842.6156	867.7922	7121.4	6254.95
842.7607	869.8359	7160.55	6290.4
842.9058	871.8789	7250.9	6383.25
843.0509	873.9212	7419.95	6516.6
843.1961	875.9629	7531.45	6662.7
843.3412	878.0039	7678.3	6807.75
843.4863	880.0441	7755.2	6889
843.6315	882.0837	7725.8	6855.4
843.7766	884.1226	7605.8	6736.85
843.9218	886.1609	7506.55	6639.05
844.0669	888.1984	7394.45	6527.15
844.212	890.2352	7294.05	6424.5
844.3572	892.2714	7253	6378.3
844.5023	894.3069	7230	6360.3
844.6475	896.3416	7199.05	6327.35
844.7926	898.3757	7143.95	6275.2
844.9377	900.4091	7149.95	6278.3
845.0829	902.4418	7170.6	6294.7
845.228	904.4739	7152	6281.2
845.3732	906.5052	7143.3	6274.55
845.5183	908.5358	7058.45	6187.35
845.6635	910.5658	6940.1	6069.75
845.8086	912.595	6817.2	5945.95
845.9538	914.6236	6725.35	5855.05
846.0989	916.6515	6679.3	5805.1
846.2441	918.6786	6690.4	5816.7
846.3892	920.7051	6735.85	5864.9
846.5344	922.7309	6815	5943
846.6795	924.756	6878.6	6008.45
846.8246	926.7804	6933.1	6059.15
846.9698	928.8041	6892.1	6015.8
847.1149	930.8272	6898.2	6025.2
847.2601	932.8495	6850.95	5978.35
847.4052	934.8711	6793.25	5921.15
847.5504	936.892	6664.8	5791.55
847.6955	938.9123	6535.15	5663
847.8407	940.9318	6421.4	5548.85
847.9858	942.9506	6316.95	5445.05
848.131	944.9688	6246.4	5375.15
848.2761	946.9862	6209.7	5336.55
848.4213	949.003	6172.45	5298.4
848.5664	951.019	6167.15	5294.9
848.7115	953.0344	6190.8	5315.2
848.8567	955.0491	6233.9	5359.75
849.0018	957.063	6285.35	5412.5
849.147	959.0763	6348.25	5476.85
849.2921	961.0888	6382.6	5509.4
849.4373	963.1007	6449.15	5572.4
849.5824	965.1119	6487.1	5613.7
849.7275	967.1223	6491.95	5616.55
849.8727	969.1321	6521.35	5649.1
850.0178	971.1412	6548.1	5672.45
850.1629	973.1495	6568.55	5696.55
850.3081	975.1572	6619.65	5704.3
850.4532	977.1641	6586.45	5714.2
850.5983	979.1704	6563.5	5687.5
850.7435	981.1759	6570.7	5694.65
850.8886	983.1808	6631.8	5755.8
851.0337	985.1849	6732.1	5845.45
851.1788	987.1884	6855.6	5978.9
851.324	989.1911	6997.3	6120.55
851.4691	991.1932	7101.05	6226
851.6142	993.1945	7137.5	6262.45
851.7593	995.1951	7105.15	6229.55
851.9045	997.1951	7084.65	6203.1
852.0496	999.1943	7045.05	6172.4
852.1947	1001.1928	6974.4	6097.45
852.3398	1003.1906	6967.6	6092.7
852.4849	1005.1877	6977.25	6102.8
852.63	1007.1841	6941.15	6068.05
852.7751	1009.1798	6883.3	6008.85
852.9202	1011.1748	6699.4	5825.3
853.0653	1013.1691	6537.4	5661.45
853.2104	1015.1627	6384.75	5508.1
853.3555	1017.1556	6234.1	5361.8
853.5006	1019.1477	6179.4	5303.6
853.6457	1021.1392	6125.85	5253.05
853.7908	1023.1299	6116.8	5241.1
853.9359	1025.12	6150.8	5273.6
854.081	1027.1093	6184.05	5310.95
854.2261	1029.0979	6247	5374.9
854.3712	1031.0859	6298.45	5425.1
854.5163	1033.0731	6272.8	5397.7
854.6613	1035.0596	6218.35	5344.5
854.8064	1037.0454	6109.55	5235.05
854.9515	1039.0304	6009.15	5133.7
855.0965	1041.0148	5926.6	5052
855.2416	1042.9985	5846.15	4968.95
855.3867	1044.9814	5809.45	4932.7
855.5317	1046.9636	5793.5	4916.55
855.6768	1048.9452	5785.9	4911.75
855.8219	1050.926	5778.2	4905.55
855.9669	1052.9061	5760.65	4886.8
856.112	1054.8855	5735.95	4861
856.257	1056.8642	5754.8	4878.25
856.4021	1058.8421	5807.25	4929.15
856.5471	1060.8194	5820.95	4944.3
856.6921	1062.7959	5833.2	4958.2
856.8372	1064.7717	5855.5	4976.95
856.9822	1066.7469	5842.5	4965.95
857.1272	1068.7213	5796.7	4918.1
857.2723	1070.695	5794.45	4918.2
857.4173	1072.6679	5731.95	4854.15
857.5623	1074.6402	5684.05	4808.7
857.7073	1076.6117	5677.2	4794.85
857.8523	1078.5826	5679.95	4803.1
857.9973	1080.5527	5740.35	4861.7
858.1423	1082.5221	5862.35	4986.15
858.2873	1084.4908	6046.35	5168.05
858.4323	1086.4587	6213.8	5335.5
858.5773	1088.426	6343.05	5464.65
858.7223	1090.3925	6332.4	5451.1
858.8673	1092.3584	6285.85	5407.6
859.0123	1094.3235	6135.8	5260.75
859.1573	1096.2879	6030.1	5153.05
859.3022	1098.2515	5998.6	5122.05
859.4472	1100.2145	6021.35	5144.1
859.5922	1102.1767	6082.15	5202.55
859.7371	1104.1382	6205.15	5328.95
859.8821	1106.099	6329.15	5448.65
860.027	1108.0591	6469.9	5593.05
860.172	1110.0185	6594.25	5715.7
860.3169	1111.9771	6591.95	5715.55
860.4619	1113.9351	6415.25	5536.05
860.6068	1115.8923	6156.7	5280.2
860.7517	1117.8488	5886	5007.9
860.8967	1119.8045	5669.4	4790.05
861.0416	1121.7596	5559.5	4681.35
861.1865	1123.7139	5506.6	4629
861.3314	1125.6675	5500.6	4625.75
861.4763	1127.6204	5555.2	4677.85
861.6212	1129.5726	5572.5	4691.25
861.7661	1131.524	5576.85	4700.85
861.911	1133.4748	5641.45	4764.05
862.0559	1135.4248	5676.5	4797
862.2008	1137.3741	5693.8	4817.85
862.3457	1139.3226	5677.25	4797.8
862.4905	1141.2705	5641.1	4764.35
862.6354	1143.2176	5590.85	4706.65
862.7803	1145.164	5604.5	4726.1
862.9251	1147.1097	5623.65	4745.45
863.07	1149.0546	5623.15	4743.4
863.2148	1150.9989	5549.8	4670.65
863.3597	1152.9424	5415.5	4533.6
863.5045	1154.8852	5250.3	4371.4
863.6493	1156.8272	5129.7	4254.05
863.7942	1158.7686	5077.25	4190.25
863.939	1160.7092	5043.7	4165.05
864.0838	1162.6491	5053.75	4174.95
864.2286	1164.5883	5086.55	4209.3
864.3734	1166.5267	5160.15	4279
864.5182	1168.4644	5247.4	4370.6
864.663	1170.4014	5394.7	4517.3
864.8078	1172.3377	5553.5	4676.75
864.9526	1174.2732	5723	4847.55
865.0974	1176.2081	5871.45	4994.1
865.2421	1178.1421	5986.5	5103.15
865.3869	1180.0755	6068.4	5191.9
865.5317	1182.0082	6065.65	5187.65
865.6764	1183.9401	5996.4	5117.4
865.8212	1185.8713	5848.05	4969.85
865.9659	1187.8017	5672.3	4794.5
866.1106	1189.7315	5479.05	4602.15
866.2554	1191.6605	5316.9	4410.15
866.4001	1193.5888	5153.3	4273.6
866.5448	1195.5163	5052.95	4174.95
866.6895	1197.4432	4991.3	4112.4
866.8342	1199.3693	4936.1	4058.3
866.9789	1201.2947	4917.45	4037.8
867.1236	1203.2193	4890.9	4013.7
867.2683	1205.1432	4913.2	4034.25
867.413	1207.0664	4965.3	4087.5
867.5576	1208.9889	5011.55	4130.2
867.7023	1210.9106	5088.3	4210.25
867.847	1212.8316	5151.25	4274.2
867.9916	1214.7519	5212.55	4325.55
868.1363	1216.6715	5238.15	4360.7
868.2809	1218.5903	5212.95	4333.95
868.4255	1220.5084	5171.75	4293.65
868.5701	1222.4257	5145.05	4265.2
868.7148	1224.3424	5098.35	4219.35
868.8594	1226.2583	5135.1	4251.8
869.004	1228.1735	5211.15	4331.9
869.1486	1230.0879	5333.6	4454.4
869.2932	1232.0016	5408.7	4529.1
869.4377	1233.9146	5439.15	4560.2
869.5823	1235.8269	5386.45	4510.15
869.7269	1237.7384	5285	4405.45
869.8715	1239.6492	5147.15	4269.75
870.016	1241.5592	5066.75	4188.6
870.1606	1243.4686	4977.7	4097.65
870.3051	1245.3772	4937.4	4058.45
870.4496	1247.285	4885.35	4006.85
870.5941	1249.1922	4858.8	3979.45
870.7387	1251.0986	4838.3	3958.9
870.8832	1253.0042	4874.25	3994.55
871.0277	1254.9092	4912.05	4032.85
871.1722	1256.8134	4985.4	4108.95
871.3167	1258.7169	5103.55	4223.55
871.4611	1260.6196	5209.6	4330.6
871.6056	1262.5216	5352.3	4471.4
871.7501	1264.4229	5450.1	4571.95
871.8945	1266.3234	5530.7	4652.25
872.039	1268.2232	5555.85	4675.95
872.1834	1270.1223	5538.2	4657.95
872.3278	1272.0207	5512.35	4633.8
872.4723	1273.9183	5477.1	4591.3
872.6167	1275.8151	5426.4	4546.6
872.7611	1277.7113	5354.4	4473.45
872.9055	1279.6067	5240.15	4360.05
873.0499	1281.5014	5135.9	4253.5
873.1943	1283.3953	5006.05	4123.95
873.3386	1285.2885	4931.65	4052.1
873.483	1287.181	4879.85	3999.55
873.6274	1289.0727	4897.2	4017.85
873.7717	1290.9637	4916.2	4036.95
873.9161	1292.854	4996.65	4115.35
874.0604	1294.7435	5120.9	4239.25
874.2047	1296.6323	5275.1	4394
874.349	1298.5204	5478.6	4595.9
874.4933	1300.4077	5680.5	4800.8
874.6376	1302.2943	5814.4	4931.95
874.7819	1304.1802	5890.4	5010.9
874.9262	1306.0653	5843.4	4958.6
875.0705	1307.9497	5762.65	4883.8
875.2147	1309.8333	5717.85	4839.2
875.359	1311.7162	5698.45	4817.3
875.5032	1313.5984	5781.55	4899.65
875.6475	1315.4798	5900.85	5011.85
875.7917	1317.3605	6039.2	5142.95
875.9359	1319.2405	6124.25	5242.5
876.0801	1321.1197	6177.4	5293.9
876.2243	1322.9982	6161.35	5277.4
876.3685	1324.876	6142.9	5262.25
876.5127	1326.753	6118.4	5239.6
876.6569	1328.6293	6115.95	5233.9
876.801	1330.5048	6159.2	5277.4
876.9452	1332.3796	6126.6	5247.65
877.0893	1334.2537	6121.85	5214.15
877.2335	1336.127	6057	5172.95
877.3776	1337.9996	6031.6	5151
877.5217	1339.8714	5991.15	5110.35
877.6658	1341.7426	5975	5052.75
877.8099	1343.6129	5900.85	5020.85
877.954	1345.4826	5839.95	4959.2
878.0981	1347.3515	5801.2	4918.05
878.2422	1349.2196	5746.35	4865.6
878.3862	1351.087	5747.2	4864.75
878.5303	1352.9537	5800.65	4920.3
878.6743	1354.8197	5882.65	5003.2
878.8184	1356.6849	5990.15	5108.05
878.9624	1358.5493	6024	5144.3
879.1064	1360.4131	6053.4	5172.4
879.2504	1362.276	5986.3	5105.7
879.3944	1364.1383	5874	4994
879.5384	1365.9998	5719.5	4834.1
879.6823	1367.8606	5495.85	4611.75
879.8263	1369.7206	5332.5	4451.9
879.9702	1371.5799	5208.85	4327
880.1142	1373.4384	5131.7	4247
880.2581	1375.2962	5038.55	4154.05
880.402	1377.1533	4871.2	3990.05
880.5459	1379.0096	4656.4	3775.05
880.6898	1380.8652	4453.15	3572.65
880.8337	1382.7201	4283.9	3403.6
880.9776	1384.5742	4146.2	3264.25
881.1215	1386.4275	4041	3158.1
881.2653	1388.2802	3965.55	3085.15
881.4092	1390.132	3895.65	3014.55
881.553	1391.9832	3879.65	2997.95
881.6968	1393.8336	3807.15	2924.85
881.8406	1395.6832	3793.9	2912.15
881.9844	1397.5322	3786.6	2907.85
882.1282	1399.3803	3765.5	2879.15
882.272	1401.2278	3747.65	2866.1
882.4158	1403.0745	3752.45	2871.05
882.5595	1404.9204	3741.25	2862.5
882.7033	1406.7656	3758.35	2875.2
882.847	1408.6101	3773.65	2890.15
882.9908	1410.4538	3787.6	2908.4
883.1345	1412.2968	3827.45	2946.25
883.2782	1414.139	3877.55	2998.6
883.4219	1415.9805	3942.35	3060.3
883.5656	1417.8213	4012.2	3125.15
883.7092	1419.6613	4115.75	3237.35
883.8529	1421.5006	4273.3	3390.2
883.9965	1423.3391	4463.9	3583.9
884.1402	1425.1769	4747	3862.9
884.2838	1427.0139	5138.55	4255.55
884.4274	1428.8502	5594.5	4711.1
884.571	1430.6858	6045.3	5163.8
884.7146	1432.5206	6399.65	5517.25
884.8582	1434.3547	6595.7	5713.45
885.0018	1436.188	6610.85	5728.6
885.1453	1438.0206	6560.2	5680.25
885.2889	1439.8524	6467.3	5585.4
885.4324	1441.6835	6373.95	5493.8
885.5759	1443.5139	6341.55	5458.35
885.7194	1445.3435	6285.7	5404.8
885.8629	1447.1724	6246.5	5363.25
886.0064	1449.0005	6183.1	5300.4
886.1499	1450.8279	6126.55	5244.15
886.2933	1452.6545	6089	5211.05
886.4368	1454.4804	6090.9	5210.2
886.5802	1456.3056	6101.65	5212.6
886.7237	1458.13	6019.8	5136.2
886.8671	1459.9536	5858.5	4976.55
887.0105	1461.7766	5563.05	4682.55
887.1539	1463.5987	5255.9	4373
887.2972	1465.4202	4955.4	4074.8
887.4406	1467.2409	4681.85	3799.05
887.584	1469.0608	4456.95	3578.55
887.7273	1470.88	4283.2	3402.85
887.8706	1472.6984	4118.55	3236.45
888.0139	1474.5161	3971.4	3088.9
888.1572	1476.3331	3869.8	2991.5
888.3005	1478.1493	3762.95	2880.9
888.4438	1479.9648	3691.9	2809.9
888.5871	1481.7795	3625.1	2744.5
888.7303	1483.5935	3575.65	2695.1
888.8736	1485.4067	3537.4	2656.8
889.0168	1487.2192	3498.05	2617.25
889.16	1489.031	3459.65	2577.2
889.3032	1490.842	3435.5	2553.7
889.4464	1492.6522	3426.35	2547.2
889.5896	1494.4618	3391.25	2507.4
889.7327	1496.2705	3369.2	2486.4
889.8759	1498.0785	3360.2	2477.5
890.019	1499.8858	3339.25	2459.3
890.1622	1501.6924	3324.85	2445.25
890.3053	1503.4981	3328.15	2449.55
890.4484	1505.3032	3325.45	2442.55
890.5914	1507.1075	3299.25	2418.4
890.7345	1508.911	3287.8	2405.8
890.8776	1510.7138	3258.6	2378.85
891.0206	1512.5159	3216.65	2334.65
891.1637	1514.3172	3200.35	2320.3
891.3067	1516.1178	3186.6	2307.8
891.4497	1517.9176	3168.9	2284.55
891.5927	1519.7166	3152.15	2271.05
891.7357	1521.515	3144.65	2255.1
891.8786	1523.3126	3127.3	2245.1
892.0216	1525.1094	3122.7	2239.4
892.1645	1526.9055	3106	2223.8
892.3074	1528.7008	3086.1	2205.7
892.4503	1530.4954	3072.4	2184.5
892.5932	1532.2893	3064.8	2184.95
892.7361	1534.0824	3062.55	2176.7
892.879	1535.8747	3075.15	2191.1
893.0218	1537.6663	3057	2175.05
893.1647	1539.4572	3043.6	2160.65
893.3075	1541.2473	3041.8	2160
893.4503	1543.0367	3046.1	2164.45
893.5931	1544.8253	3033.45	2149
893.7359	1546.6132	3025.25	2140.95
893.8787	1548.4003	3047.35	2154.8
894.0214	1550.1867	3056.65	2167.2
894.1642	1551.9723	3065.55	2180.3
894.3069	1553.7572	3074.9	2193.95
894.4496	1555.5414	3091.05	2208.7
894.5923	1557.3247	3125.85	2244.85
894.735	1559.1074	3144.55	2266.4
894.8777	1560.8893	3185.95	2306.75
895.0204	1562.6705	3241.95	2358.9
895.163	1564.4509	3288.05	2407.45
895.3056	1566.2305	3331.5	2452.05
895.4482	1568.0094	3419.65	2538.8
895.5908	1569.7876	3483.6	2601.3
895.7334	1571.565	3540.05	2658
895.876	1573.3417	3568.6	2687.95
896.0186	1575.1176	3571.4	2690.95
896.1611	1576.8928	3552	2670.55
896.3036	1578.6672	3508.45	2628.4
896.4461	1580.4409	3434.25	2555.4
896.5886	1582.2138	3335.35	2452
896.7311	1583.986	3233.65	2352.75
896.8736	1585.7575	3165.6	2285.95
897.0161	1587.5282	3117.35	2235.9
897.1585	1589.2981	3064.85	2186.75
897.3009	1591.0673	3041.75	2159.5
897.4433	1592.8358	3037.9	2157.25
897.5857	1594.6035	3028.5	2143.95
897.7281	1596.3704	3023.9	2143.25
897.8705	1598.1366	3028.1	2145.6
898.0128	1599.9021	3041.45	2160.3
898.1551	1601.6668	3066.4	2181.75
898.2975	1603.4308	3091.7	2209.2
898.4398	1605.194	3162.5	2276.6
898.5821	1606.9564	3219.9	2338.25
898.7243	1608.7182	3303.85	2420.55
898.8666	1610.4791	3386.95	2505.9
899.0088	1612.2394	3514.95	2633.3
899.1511	1613.9988	3636.45	2754.7
899.2933	1615.7576	3817.6	2936.65
899.4355	1617.5156	3988.7	3100.85
899.5776	1619.2728	4159	3279.4
899.7198	1621.0293	4304.25	3425.2
899.862	1622.785	4362.05	3480.05
900.0041	1624.54	4320.45	3435.3
900.1462	1626.2942	4240.05	3358.15
900.2883	1628.0477	4064.15	3182.65
900.4304	1629.8005	3874	2989.15
900.5725	1631.5525	3682.85	2803.6
900.7145	1633.3037	3530.1	2649.65
900.8566	1635.0542	3417.3	2537.65
900.9986	1636.804	3330.15	2450.1
901.1406	1638.553	3307.05	2351.4
901.2826	1640.3013	3213.65	2334.65
901.4245	1642.0488	3186.8	2305.6
901.5665	1643.7955	3184.7	2306.65
901.7085	1645.5416	3196.7	2314.25
901.8504	1647.2868	3232.75	2354.05
901.9923	1649.0313	3305.45	2424.3
902.1342	1650.7751	3396	2513.5
902.2761	1652.5181	3537.1	2658.15
902.4179	1654.2604	3719.35	2837.95
902.5598	1656.0019	3966.85	3087.9
902.7016	1657.7427	4233.1	3354.8
902.8434	1659.4828	4501	3622.4
902.9852	1661.222	4668.65	3786.5
903.127	1662.9606	4693.15	3812.3
903.2687	1664.6984	4580.05	3699.8
903.4105	1666.4354	4315.4	3433.9
903.5522	1668.1717	3990.65	3112.05
903.6939	1669.9072	3665.55	2787.05
903.8356	1671.642	3392.55	2509.4
903.9773	1673.3761	3194.7	2316.7
904.119	1675.1094	3025.3	2145.95
904.2606	1676.8419	2896.9	2017.6
904.4022	1678.5737	2803.8	1923.8
904.5439	1680.3048	2745.65	1866.5
904.6855	1682.0351	2691.25	1813.7
904.827	1683.7646	2648.4	1766.4
904.9686	1685.4934	2620.55	1741.85
905.1101	1687.2215	2591.7	1709.8
905.2517	1688.9488	2563.25	1683.65
905.3932	1690.6754	2543.9	1664.45
905.5347	1692.4012	2531.8	1651.6
905.6761	1694.1263	2520.25	1641.55
905.8176	1695.8506	2511.2	1629.9
905.9591	1697.5742	2489.55	1611.45
906.1005	1699.297	2484.35	1605.45
906.2419	1701.0191	2466.05	1586.55
906.3833	1702.7404	2449.2	1569.55
906.5246	1704.461	2428.15	1545.75
906.666	1706.1808	2428	1545.35
906.8073	1707.8999	2412.7	1531.25
906.9487	1709.6182	2407.15	1527.55
907.09	1711.3358	2396.15	1515.05
907.2313	1713.0527	2384.35	1506.45
907.3725	1714.7688	2387.95	1501.3
907.5138	1716.4841	2372.25	1491.35
907.655	1718.1987	2367.55	1483.25
907.7962	1719.9126	2361.3	1482.45
907.9374	1721.6257	2362.65	1479.85
908.0786	1723.338	2341.9	1461.45
908.2198	1725.0496	2337.95	1457.85
908.3609	1726.7605	2328.55	1447.95
908.502	1728.4706	2318.25	1435.8
908.6431	1730.18	2312.5	1433.4
908.7842	1731.8886	2307.75	1428.7
908.9253	1733.5964	2310.6	1425.2
909.0664	1735.3036	2299.15	1417.05
909.2074	1737.0099	2297.55	1417.15
909.3484	1738.7156	2284	1404.45
909.4894	1740.4204	2280.3	1395.7
909.6304	1742.1246	2276.45	1396.85
909.7714	1743.8279	2269.4	1388.55
909.9123	1745.5306	2264.6	1385.75
910.0532	1747.2325	2250.9	1371.3
910.1941	1748.9336	2243.6	1363.25
910.335	1750.634	2248.5	1367.1
910.4759	1752.3336	2238.8	1359.75
910.6168	1754.0325	2238.8	1361.35
910.7576	1755.7307	2235.45	1356.1
910.8984	1757.4281	2235.35	1353.2
911.0392	1759.1247	2235.45	1348.75
911.18	1760.8206	2223.7	1340.35
911.3208	1762.5158	2224.3	1340.85
911.4615	1764.2102	2215.55	1337.35
911.6022	1765.9039	2201	1318.7
911.7429	1767.5968	2207	1327.2
911.8836	1769.289	2198.4	1317.15
912.0243	1770.9804	2193.2	1311.65
912.1649	1772.6711	2188.25	1306.2
912.3056	1774.361	2197.45	1318.8
912.4462	1776.0502	2186.6	1307.9
912.5868	1777.7386	2190.15	1306.95
912.7274	1779.4263	2174.25	1294.15
912.8679	1781.1132	2177.85	1298
913.0084	1782.7994	2165.15	1283.7
913.149	1784.4849	2159.45	1281.4
913.2895	1786.1696	2175.05	1277.45
913.4299	1787.8535	2164.15	1285.35
913.5704	1789.5367	2157.95	1277.85
913.7108	1791.2192	2157.2	1277.65
913.8513	1792.9009	2180.2	1273.15
913.9917	1794.5818	2148.8	1267.45
914.132	1796.2621	2140.85	1263.95
914.2724	1797.9415	2128.7	1248.5
914.4128	1799.6202	2132.05	1252.9
914.5531	1801.2982	2130	1251.6
914.6934	1802.9755	2125.15	1244.7
914.8337	1804.6519	2121.2	1239.55
914.9739	1806.3277	2129.65	1250.4
915.1142	1808.0027	2098.9	1220.8
915.2544	1809.6769	2113.15	1233.8
915.3946	1811.3504	2108.9	1226.4
915.5348	1813.0231	2103.6	1222.15
915.675	1814.6951	2106.25	1227.6
915.8151	1816.3664	2107.4	1227.15
915.9553	1818.0369	2105.05	1223.6
916.0954	1819.7067	2097.85	1220.6
916.2355	1821.3757	2090.6	1211.2
916.3755	1823.044	2092.45	1214.55
916.5156	1824.7115	2083.45	1204.1
916.6556	1826.3783	2078.65	1200.35
916.7956	1828.0443	2079.9	1200.65
916.9356	1829.7096	2076.8	1196.25
917.0756	1831.3741	2086.95	1205.85
917.2155	1833.0379	2078.65	1199.5
917.3555	1834.701	2066.55	1185.2
917.4954	1836.3633	2071.05	1192.85
917.6353	1838.0248	2057.15	1173
917.7751	1839.6856	2055.1	1175.7
917.915	1841.3457	2055.4	1176.8
918.0548	1843.005	2046.45	1168.5
918.1946	1844.6636	2056.75	1177.3
918.3344	1846.3214	2048.9	1168.65
918.4742	1847.9785	2050.05	1171.85
918.6139	1849.6349	2046.75	1165.85
918.7537	1851.2904	2048.95	1160.25
918.8934	1852.9453	2046.1	1167.8
919.0331	1854.5994	2052.4	1172.2
919.1727	1856.2528	2042.05	1158.35
919.3124	1857.9054	2043.25	1164.3
919.452	1859.5572	2040.15	1160.1
919.5916	1861.2083	2027.05	1145.7
919.7312	1862.8587	2022.45	1142.35
919.8708	1864.5084	2022.35	1141.4
920.0103	1866.1572	2011.9	1133.1
920.1498	1867.8054	2017.4	1138.95
920.2893	1869.4528	2005.65	1126.55
920.4288	1871.0994	2000.75	1120.95
920.5683	1872.7453	2008.65	1128.95
920.7077	1874.3905	2006.95	1121.3
920.8471	1876.0349	1995.25	1114.55
920.9865	1877.6786	2000.05	1120.6
921.1259	1879.3215	2001.35	1122.6
921.2653	1880.9637	1982.6	1103.2
921.4046	1882.6051	1983.55	1103.5
921.5439	1884.2458	1988.9	1106.9
921.6832	1885.8858	1975.5	1096.9
921.8225	1887.525	1978.4	1097.85
921.9617	1889.1634	1968.35	1089.7
922.101	1890.8011	1961.9	1081.25
922.2402	1892.4381	1958.9	1079.45
922.3794	1894.0743	1963.75	1084.05
922.5185	1895.7098	1965.45	1087.8
922.6577	1897.3446	1963.2	1082.4
922.7968	1898.9786	1962.2	1077.9
922.9359	1900.6118	1943.45	1065.55
923.075	1902.2443	1948.1	1067.6
923.214	1903.8761	1950.4	1070.95
923.3531	1905.5071	1944.8	1062.45
923.4921	1907.1374	1926.8	1046.55
923.6311	1908.7669	1937.1	1058.7
923.77	1910.3957	1928.8	1049.25
923.909	1912.0237	1914.4	1035.85
924.0479	1913.651	1924.65	1044.8
924.1868	1915.2776	1919.9	1043.05
924.3257	1916.9034	1918.75	1041.55
924.4646	1918.5285	1910.55	1032.65
924.6034	1920.1528	1899	1019.1
924.7422	1921.7764	1908.05	1028.9
924.881	1923.3992	1906.85	1028.2
925.0198	1925.0213	1900.05	1021.5
925.1586	1926.6427	1887.75	1006.9
925.2973	1928.2633	1986.4	1003.05
925.436	1929.8832	1897.95	1016.3
925.5747	1931.5023	1881.5	1002.2
925.7134	1933.1207	1890.15	1011.25
925.852	1934.7383	1879.15	1000.2
925.9906	1936.3552	1886.15	1007.45
926.1292	1937.9714	1869.05	990.45
926.2678	1939.5868	1879.1	997.7
926.4064	1941.2015	1858.65	978.2
926.5449	1942.8154	1852.5	972.65
926.6834	1944.4286	1859.7	979.95
926.8219	1946.041	1874.4	973.3
926.9604	1947.6528	1850.25	967.05
927.0988	1949.2637	1844.45	967.05
927.2372	1950.8739	1841.3	960.05
927.3756	1952.4834	1842.65	962.9
927.514	1954.0921	1837.8	957.95
927.6523	1955.7001	1839.3	956
927.7907	1957.3074	1822.1	943.7
927.929	1958.9139	1824.65	945.5
928.0673	1960.5197	1832.75	949.35
928.2055	1962.1247	1817.5	938.55
928.3438	1963.729	1812.15	931.9
928.482	1965.3325	1830.95	928.25
928.6202	1966.9353	1796.05	916.4
928.7584	1968.5374	1808.55	927.25
928.8965	1970.1387	1795.65	916.7
929.0346	1971.7393	1791.35	910.85
929.1727	1973.3392	1793.35	912.55
929.3108	1974.9383	1789.95	910.2
929.4489	1976.5366	1780.85	900.4
929.5869	1978.1342	1786.5	906.2
929.7249	1979.7311	1779.2	898.35
929.8629	1981.3273	1786.3	906.35
930.0009	1982.9227	1781.15	899.95
930.1388	1984.5173	1769.8	892.25
930.2767	1986.1112	1772.6	895
930.4146	1987.7044	1768.45	889.45
930.5525	1989.2968	1769.3	891.15
930.6904	1990.8885	1774.1	890.55
930.8282	1992.4795	1774.55	893.95
930.966	1994.0697	1769.15	887.4
931.1038	1995.6592	1745.15	865.7
931.2415	1997.2479	1747.7	869.35
931.3793	1998.8359	1740.95	861.3
931.517	2000.4232	1750.55	870.8
931.6547	2002.0097	1744.2	866.75
931.7923	2003.5955	1742.1	861.45
931.93	2005.1805	1737.55	856.75
932.0676	2006.7648	1736.05	856.05
932.2052	2008.3484	1735.25	855.1
932.3427	2009.9312	1731.5	851.05
932.4803	2011.5133	1734.05	855
932.6178	2013.0946	1729.45	847.8
932.7553	2014.6752	1728.85	849.3
932.8928	2016.2551	1736.3	855.45
933.0302	2017.8342	1723.05	842
933.1676	2019.4126	1711.95	834.65
933.305	2020.9902	1723.85	845.15
933.4424	2022.5672	1714.35	833.15
933.5798	2024.1433	1717	829.85
933.7171	2025.7188	1705.7	826.65
933.8544	2027.2935	1701.15	820.75
933.9917	2028.8674	1702.5	823.05
934.129	2030.4406	1696.2	815.2
934.2662	2032.0131	1693.65	813.4
934.4034	2033.5849	1694.1	810.65
934.5406	2035.1559	1702.5	822.75
934.6778	2036.7261	1696.05	817.05
934.8149	2038.2957	1687.05	808.3
934.952	2039.8645	1685.75	806.75
935.0891	2041.4325	1692.55	810.45
935.2262	2042.9998	1677.85	799.25
935.3632	2044.5664	1686.85	804.9
935.5002	2046.1323	1681.05	799.8
935.6372	2047.6974	1681.65	801.85
935.7742	2049.2617	1670.5	793.5
935.9111	2050.8254	1692.65	793.75
936.048	2052.3883	1672.1	791.95
936.1849	2053.9504	1670.35	790.1
936.3218	2055.5118	1659.4	779.6
936.4586	2057.0725	1660.45	777.1
936.5955	2058.6325	1659.45	781.6
936.7323	2060.1917	1663.4	783.2
936.869	2061.7502	1659.25	775.6
937.0058	2063.3079	1659.8	780
937.1425	2064.8649	1659.15	774.1
937.2792	2066.4212	1655.75	773.85
937.4159	2067.9767	1653.55	774.5
937.5525	2069.5315	1637.9	757.8
937.6891	2071.0856	1646.1	766.65
937.8257	2072.6389	1639.7	756.75
937.9623	2074.1915	1632.4	753.35
938.0989	2075.7433	1633.7	751.7
938.2354	2077.2945	1631.35	751.55
938.3719	2078.8448	1624.9	745.3
938.5084	2080.3945	1615	735
938.6448	2081.9434	1630.2	750.95
938.7812	2083.4916	1623	744.1
938.9176	2085.039	1618.65	738.85
939.054	2086.5857	1609.9	729.25
939.1903	2088.1317	1614.55	738.45
939.3267	2089.677	1613.7	732.25
939.463	2091.2215	1602.7	725.1
939.5992	2092.7652	1603.8	722.6
939.7355	2094.3083	1607.65	727.9
939.8717	2095.8506	1611.3	731.7
940.0079	2097.3921	1610.1	730.7
940.1441	2098.933	1607.95	727.9
940.2802	2100.4731	1595.5	718.85
940.4163	2102.0124	1605.35	718.15
940.5524	2103.5511	1599.9	721
940.6885	2105.089	1595.5	713.85
940.8245	2106.6261	1590.95	710.6
940.9606	2108.1626	1591.25	710.3
941.0965	2109.6983	1615.3	707.35
941.2325	2111.2332	1599.95	720.3
941.3684	2112.7675	1586.55	704.5
941.5044	2114.301	1584.85	702.65
941.6403	2115.8337	1586.35	706.1
941.7761	2117.3657	1581.5	700.85
941.912	2118.897	1580.05	700.2
942.0478	2120.4276	1586.95	701.35
942.1835	2121.9575	1574.6	696.55
942.3193	2123.4866	1586.8	692.7
942.455	2125.0149	1570	688.5
942.5907	2126.5426	1570	691
942.7264	2128.0695	1573.4	688.35
942.8621	2129.5956	1572.85	693.3
942.9977	2131.1211	1566.4	681.55
943.1333	2132.6458	1557.75	678.65
943.2689	2134.1698	1563.7	683.45
943.4044	2135.693	1564	683.5
943.54	2137.2155	1554.55	673.05
943.6755	2138.7373	1558.65	678.95
943.8109	2140.2584	1563.8	684.2
943.9464	2141.7787	1554.45	667.7
944.0818	2143.2983	1551.25	673.45
944.2172	2144.8171	1548.5	669.4
944.3526	2146.3353	1558.1	676.4
944.4879	2147.8527	1545.5	665.4
944.6232	2149.3693	1546.1	666.75
944.7585	2150.8853	1537.75	657.15
944.8938	2152.4005	1540.35	660.85
945.029	2153.9149	1540.15	659.35
945.1642	2155.4287	1542.55	663.35
945.2994	2156.9417	1533.15	652.75
945.4346	2158.454	1535.65	653.75
945.5697	2159.9655	1525.95	648
945.7048	2161.4764	1531.1	650.5
945.8399	2162.9865	1524.2	645.05
945.9749	2164.4958	1524.3	643.1
946.1099	2166.0045	1532.6	646.65
946.2449	2167.5124	1525.7	645.65
946.3799	2169.0195	1533.3	653.15
946.5148	2170.526	1516	636.65
946.6498	2172.0317	1516.95	637.2
946.7846	2173.5367	1509.8	629.85
946.9195	2175.0409	1508.9	629.45
947.0543	2176.5445	1510.5	631.7
947.1891	2178.0473	1514.75	633.85
947.3239	2179.5494	1520.65	637.9
947.4587	2181.0507	1503.65	622.55
947.5934	2182.5513	1503.2	622.4
947.7281	2184.0512	1507.1	627.65
947.8628	2185.5504	1507.9	626.65
947.9974	2187.0488	1501.35	620.9
948.132	2188.5465	1499.15	619.6
948.2666	2190.0435	1497.05	616.25
948.4012	2191.5397	1496.95	617.8
948.5357	2193.0353	1496.15	616.25
948.6702	2194.5301	1492.75	609.6
948.8047	2196.0241	1494.25	613.1
948.9392	2197.5175	1486.1	607.05
949.0736	2199.0101	1488.05	605.3
949.208	2200.502	1480.9	601.9
949.3424	2201.9931	1480.7	601.2
949.4767	2203.4835	1483.65	602.05
949.611	2204.9733	1488.15	600.4
949.7453	2206.4622	1474.35	595.1
949.8796	2207.9505	1482.8	599.4
950.0138	2209.438	1475.5	595.85
950.148	2210.9248	1470.55	587.75
950.2822	2212.4109	1468.55	589.7
950.4164	2213.8962	1464.9	582.05
950.5505	2215.3809	1469.15	587.15
950.6846	2216.8648	1466.5	586.7
950.8186	2218.3479	1475.8	591.65
950.9527	2219.8304	1468.7	588.2
951.0867	2221.3121	1461.55	581.15
951.2207	2222.7931	1449.35	570
951.3546	2224.2733	1454.05	573.1
951.4886	2225.7529	1451.8	570.3
951.6225	2227.2317	1447.85	563.9
951.7563	2228.7098	1450	570.05
951.8902	2230.1872	1445.55	563.05
952.024	2231.6638	1442.5	562.85
952.1578	2233.1397	1445.65	556.75
952.2916	2234.6149	1442.05	563.8
952.4253	2236.0894	1443.85	562.15
952.559	2237.5632	1447.1	555.85
952.6927	2239.0362	1436.9	554.05
952.8263	2240.5085	1432.05	551.1
952.9599	2241.9801	1430.5	549
953.0935	2243.4509	1430.55	549.95
953.2271	2244.921	1428.5	547.8
953.3606	2246.3904	1424.9	543.45
953.4941	2247.8591	1424.95	547.15
953.6276	2249.3271	1428.8	549.45
953.7611	2250.7943	1421.55	542.45
953.8945	2252.2608	1419.65	540.55
954.0279	2253.7266	1411.85	532.05
954.1612	2255.1917	1421.7	540.15
954.2946	2256.656	1411.1	530.65
954.4279	2258.1197	1405.7	525.25
954.5612	2259.5826	1413.2	532.2
954.6944	2261.0447	1414.25	533.8
954.8276	2262.5062	1405.55	523.55
954.9608	2263.9669	1410.6	530.3
955.094	2265.4269	1403.75	523.65
955.2271	2266.8862	1408.85	529.45
955.3602	2268.3448	1403.05	523.85
955.4933	2269.8026	1401.3	520.9
955.6264	2271.2598	1398.8	518.1
955.7594	2272.7162	1392	513.4
955.8924	2274.1719	1404.85	522.95
956.0253	2275.6268	1396	516.8
956.1583	2277.0811	1401.6	521.95
956.2912	2278.5346	1393.15	513.25
956.4241	2279.9874	1396.9	517.4
956.5569	2281.4395	1389.1	510.6
956.6897	2282.8908	1400.7	516.35
956.8225	2284.3414	1393.65	512.25
956.9553	2285.7914	1385.5	507.15
957.088	2287.2406	1390.5	507
957.2207	2288.689	1392.75	513.65
957.3534	2290.1368	1380.55	499.75
957.486	2291.5838	1383	502
957.6186	2293.0302	1389.5	509.7
957.7512	2294.4758	1383.35	503.65
957.8838	2295.9206	1387.75	506.8
958.0163	2297.3648	1374.45	494.3
958.1488	2298.8082	1385.95	504.55
958.2813	2300.251	1378.65	498.4
958.4137	2301.693	1375.15	493.4
958.5461	2303.1343	1375.8	494.7
958.6785	2304.5748	1369.1	490.8
958.8108	2306.0147	1364.7	483.5
958.9432	2307.4538	1370.1	489.45
959.0754	2308.8922	1369.85	492
959.2077	2310.3299	1367.5	487.35
959.3399	2311.7669	1363.65	483.5
959.4721	2313.2031	1365.35	487.25
959.6043	2314.6387	1363.3	483.5
959.7365	2316.0735	1352.95	472.25
959.8686	2317.5076	1355.65	474.6
960.0006	2318.941	1353.2	474.35
960.1327	2320.3737	1357.4	478.35
960.2647	2321.8056	1357.25	474.3
960.3967	2323.2369	1356.2	475.1
960.5287	2324.6674	1350.8	468.75
960.6606	2326.0972	1351.9	471.65
960.7925	2327.5263	1353.35	472.8
960.9244	2328.9547	1354.1	474.8
961.0562	2330.3823	1351.9	472.55
961.1881	2331.8092	1350.25	466.9
961.3198	2333.2355	1341.65	460.8
961.4516	2334.661	1351.8	471.15
961.5833	2336.0858	1346.55	463.2
961.715	2337.5098	1341	460.95
961.8467	2338.9332	1340.75	458.5
961.9783	2340.3558	1338.75	456.9
962.1099	2341.7778	1342.6	463.1
962.2415	2343.199	1335.75	453.05
962.373	2344.6195	1340.65	460.8
962.5045	2346.0393	1340	461.35
962.636	2347.4583	1332.65	450.85
962.7675	2348.8767	1336.7	456.75
962.8989	2350.2943	1334	452.9
963.0303	2351.7113	1337.8	456.6
963.1617	2353.1275	1333.45	451.85
963.293	2354.543	1353.9	450.5
963.4243	2355.9578	1329.95	451.65
963.5556	2357.3718	1326.7	446.8
963.6868	2358.7852	1332.05	448.45
963.818	2360.1978	1327.75	445.9
963.9492	2361.6098	1328.75	448.3
964.0803	2363.021	1328.15	446.25
964.2114	2364.4315	1322.6	441.1
964.3425	2365.8413	1325.5	445.15
964.4736	2367.2504	1313.7	434.15
964.6046	2368.6587	1317.05	437
964.7356	2370.0664	1315.2	436.15
964.8666	2371.4733	1313.6	433.45
964.9975	2372.8795	1314.35	435.7
965.1284	2374.285	1311.2	432.4
965.2593	2375.6899	1302.55	423
965.3901	2377.0939	1303.6	426.15
965.5209	2378.4973	1305.7	426.4
965.6517	2379.9	1311.25	429.4
965.7825	2381.3019	1306.6	427.7
965.9132	2382.7032	1301.35	421.25
966.0439	2384.1037	1303.7	425.3
966.1745	2385.5035	1300.85	421.45
966.3051	2386.9027	1293.65	413.25
966.4357	2388.3011	1299.55	417.8
966.5663	2389.6987	1296.2	416.65
966.6968	2391.0957	1292.9	413.25
966.8273	2392.492	1290.25	412.9
966.9578	2393.8876	1296.05	416.5
967.0882	2395.2824	1292.4	413.05
967.2186	2396.6765	1285.8	408
967.349	2398.07	1282.35	403.65
967.4793	2399.4627	1284.9	404.8
967.6097	2400.8547	1286.65	406.65
967.7399	2402.246	1290.8	405.85
967.8702	2403.6366	1277.8	397.8
968.0004	2405.0265	1274.2	394.7
968.1306	2406.4156	1285.35	400.35
968.2607	2407.8041	1282.85	401.45
968.3909	2409.1918	1275.15	394.75
968.521	2410.5789	1276.9	397.2
968.651	2411.9652	1284.3	401.1
968.781	2413.3508	1275.75	397.35
968.911	2414.7358	1275.15	395.4
969.041	2416.12	1267.05	390.5
969.1709	2417.5035	1273.1	394.3
969.3008	2418.8863	1281.2	400.85
969.4307	2420.2684	1275.7	396.95
969.5606	2421.6497	1272.05	393.8
969.6904	2423.0304	1268.45	389.65
969.8201	2424.4104	1269.1	391.6
969.9499	2425.7896	1269.7	389.5
970.0796	2427.1682	1265.8	388.8
970.2093	2428.546	1264.55	383.7
970.3389	2429.9232	1266.1	385.4
970.4685	2431.2996	1265.95	389.1
970.5981	2432.6753	1265	388
970.7277	2434.0503	1262.65	382.35
970.8572	2435.4246	1260.35	381.3
970.9867	2436.7982	1263.3	382.3
971.1161	2438.1711	1257.15	378.2
971.2456	2439.5433	1256.85	378.25
971.375	2440.9148	1259.05	375.35
971.5043	2442.2856	1248.4	371.85
971.6336	2443.6557	1252.2	370.35
971.7629	2445.025	1253.3	373.85
971.8922	2446.3937	1252.8	373.95
972.0214	2447.7617	1245.15	366
972.1506	2449.1289	1257.3	377.7
972.2798	2450.4955	1255.7	371.5
972.4089	2451.8613	1238.1	359.65
972.538	2453.2265	1249.8	369.2
972.6671	2454.5909	1247.35	367.3
972.7961	2455.9546	1250.4	372.25
972.9251	2457.3177	1241.85	363.95
973.0541	2458.68	1252.7	373.6
973.1831	2460.0416	1239.9	359.15
973.312	2461.4025	1251.55	370.45
973.4408	2462.7627	1254.2	362.4
973.5697	2464.1222	1244.25	366.15
973.6985	2465.4811	1243.2	362.8
973.8273	2466.8392	1242.55	362.65
973.956	2468.1966	1241.2	360.6
974.0847	2469.5533	1247.3	367.5
974.2134	2470.9093	1244.7	363.6
974.3421	2472.2645	1244.85	363.7
974.4707	2473.6191	1241.9	360.85
974.5993	2474.973	1235.7	357.6
974.7278	2476.3262	1242.55	359.7
974.8563	2477.6787	1237.9	359.7
974.9848	2479.0305	1237.65	357.8
975.1132	2480.3816	1244.1	361.45
975.2417	2481.7319	1234.7	355.15
975.37	2483.0816	1234.65	354.05
975.4984	2484.4306	1240.5	361.25
975.6267	2485.7789	1230.75	352.25
975.755	2487.1264	1232.2	352
975.8833	2488.4733	1218.55	339.35
976.0115	2489.8195	1247.5	350.15
976.1397	2491.165	1228.8	345.3
976.2678	2492.5097	1229.35	348.45
976.3959	2493.8538	1225	342.2
976.524	2495.1972	1223.8	344.7
976.6521	2496.5398	1222.3	340.7
976.7801	2497.8818	1221.1	340.8
976.9081	2499.2231	1218	337.55
977.036	2500.5637	1215.2	334.5
977.164	2501.9035	1215.8	335.65
977.2918	2503.2427	1220.65	337.55
977.4197	2504.5812	1213.45	334.65
977.5475	2505.919	1216.7	335.1
977.6753	2507.256	1218.35	338.6
977.8031	2508.5924	1218.85	340.35
977.9308	2509.9281	1215.9	330.65
978.0585	2511.2631	1219	340.05
978.1861	2512.5974	1211.15	330
978.3137	2513.9309	1207.85	327.8
978.4413	2515.2638	1245.75	330.75
978.5689	2516.596	1209.45	331.4
978.6964	2517.9275	1213.95	333.15
978.8239	2519.2583	1210.35	329.9
978.9513	2520.5884	1208.1	326.55
979.0788	2521.9178	1210.6	329.75
979.2062	2523.2465	1202.55	323.8
979.3335	2524.5745	1204.1	325.55
979.4608	2525.9018	1205.65	323.95
979.5881	2527.2284	1204.4	325.7
979.7154	2528.5543	1201.75	325.3
979.8426	2529.8796	1201.65	322.2
979.9698	2531.2041	1199.15	319.7
980.0969	2532.5279	1203.3	322.95
980.224	2533.851	1205.85	325.75
980.3511	2535.1735	1199.25	318.65
980.4781	2536.4952	1201.2	322.3
980.6052	2537.8163	1199.95	320.7
980.7321	2539.1366	1201.95	323.05
980.8591	2540.4562	1198.2	319.25
980.986	2541.7752	1193.95	315.65
981.1129	2543.0935	1195.95	316.1
981.2397	2544.411	1200.1	321.2
981.3665	2545.7279	1195.35	315.8
981.4933	2547.0441	1192.35	312
981.62	2548.3596	1197	314.85
981.7467	2549.6744	1190.05	310.5
981.8734	2550.9885	1192.15	310.9
982.0001	2552.3019	1187.6	308.85
982.1267	2553.6146	1191.55	311.65
982.2532	2554.9266	1184.05	303.2
982.3798	2556.2379	1192.65	313.1
982.5063	2557.5485	1183.4	304.2
982.6327	2558.8585	1194.65	306.8
982.7592	2560.1677	1190.15	306.4
982.8856	2561.4762	1184.35	304.8
983.0119	2562.7841	1193.95	311.05
983.1383	2564.0913	1184	305.9
983.2646	2565.3977	1182.5	302.2
983.3908	2566.7035	1173.5	293.55
983.517	2568.0086	1184.8	304
983.6432	2569.313	1184.1	303.65
983.7694	2570.6167	1184.4	300.75
983.8955	2571.9197	1183.05	303.8
984.0216	2573.222	1183.5	301.05
984.1476	2574.5236	1180.25	300.35
984.2737	2575.8246	1186.5	302.85
984.3996	2577.1248	1185.05	303.95
984.5256	2578.4244	1180.2	299.65
984.6515	2579.7232	1183.45	303.5
984.7774	2581.0214	1212.2	299.55
984.9032	2582.3189	1183.35	305.6
985.029	2583.6157	1192.15	307.4
985.1548	2584.9118	1187.3	306.45
985.2806	2586.2072	1185.3	306.4
985.4063	2587.5019	1183.85	304.95
985.5319	2588.7959	1191.3	309.2
985.6576	2590.0893	1186.9	306.75
985.7832	2591.3819	1194.55	316.1
985.9087	2592.6739	1191	311.35
986.0343	2593.9652	1197.15	317.55
986.1597	2595.2557	1192.15	310.7
986.2852	2596.5456	1196.85	314.4
986.4106	2597.8348	1194.75	315.3
986.536	2599.1234	1196	316.05
986.6614	2600.4112	1203.25	323.95
986.7867	2601.6983	1197.85	316.7
986.912	2602.9848	1197.45	316.3
987.0372	2604.2705	1198.9	309.3
987.1624	2605.5556	1200.95	321.75
987.2876	2606.84	1199.05	317.8
987.4128	2608.1237	1193.65	312
987.5379	2609.4067	1194	313.4
987.6629	2610.689	1205.2	318.05
987.788	2611.9707	1201.25	319.05
987.913	2613.2516	1197.95	314.5
988.0379	2614.5319	1192	313.65
988.1629	2615.8115	1185.45	305.5
988.2878	2617.0903	1190.55	309.3
988.4126	2618.3685	1191.05	309.65
988.5375	2619.6461	1191.65	312.25
988.6622	2620.9229	1188.05	308.2
988.787	2622.199	1196.6	316.5
988.9117	2623.4745	1191.15	310.55
989.0364	2624.7493	1192	312.7
989.161	2626.0234	1188.95	310.25
989.2857	2627.2968	1192.65	314.9
989.4102	2628.5695	1196.45	314.25
989.5348	2629.8415	1192.25	313.05
989.6593	2631.1128	1194.05	312.8
989.7837	2632.3835	1190.1	308.35
989.9082	2633.6535	1188.2	307.45
990.0326	2634.9228	1193.35	314.9
990.1569	2636.1914	1187.9	309.75
990.2812	2637.4593	1189.85	308.35
990.4055	2638.7265	1193.75	313.35
990.5298	2639.9931	1192.3	313.25
990.654	2641.259	1189.45	309
990.7782	2642.5242	1191.45	310.35
990.9023	2643.7887	1187.3	306.45
991.0264	2645.0525	1183.7	302.3
991.1505	2646.3156	1186	305.7
991.2745	2647.5781	1183.1	303.1
991.3985	2648.8398	1185.15	306.9
991.5225	2650.1009	1196.6	306.8
991.6464	2651.3613	1184	305.2
991.7703	2652.6211	1182.7	300.6
991.8942	2653.8801	1174.3	295.5
992.018	2655.1385	1184.45	301.25
992.1418	2656.3961	1184.8	304.2
992.2655	2657.6531	1180.25	298.75
992.3892	2658.9094	1188	307.5
992.5129	2660.1651	1185.05	306.55
992.6366	2661.42	1184.2	302.45
992.7602	2662.6743	1187.1	306.15
992.8837	2663.9279	1185.35	307.2
993.0073	2665.1808	1187	307.25
993.1307	2666.433	1193.4	311.1
993.2542	2667.6846	1191.9	312.35
993.3776	2668.9354	1194.65	311.1
993.501	2670.1856	1194.8	312.15
993.6244	2671.4351	1198.8	319
993.7477	2672.6839	1202.05	320.25
993.8709	2673.9321	1193.15	314.1
993.9942	2675.1795	1204.1	324.55
994.1174	2676.4263	1201.15	321.5
994.2405	2677.6724	1200.05	321.55
994.3637	2678.9179	1203.2	323.2
994.4868	2680.1626	1209.15	328.35
994.6098	2681.4067	1213.15	333.2
994.7328	2682.6501	1205.55	325.55
994.8558	2683.8928	1204.55	324.85
994.9788	2685.1348	1198.05	320.15
995.1017	2686.3761	1203.6	321.7
995.2245	2687.6168	1198.15	318
995.3474	2688.8568	1202.1	321.9
995.4702	2690.0961	1194.7	313.9
995.5929	2691.3348	1193.05	313.15
995.7156	2692.5727	1194.05	314.35
995.8383	2693.81	1192.7	312.75
995.961	2695.0466	1192.1	313.4
996.0836	2696.2826	1193.65	309.2
996.2062	2697.5178	1191.6	308.9
996.3287	2698.7524	1189.3	309.75
996.4512	2699.9863	1194.45	311.35
996.5737	2701.2195	1196.15	319.25
996.6961	2702.452	1198.55	317.3
996.8185	2703.6839	1199.15	319.4
996.9408	2704.9151	1206.15	326.3
997.0631	2706.1456	1211.15	331.35
997.1854	2707.3755	1217.45	337.4
997.3077	2708.6046	1222.25	340.45
997.4299	2709.8331	1224.15	344.5
997.552	2711.0609	1227.9	347.05
997.6742	2712.2881	1241.5	360.75
997.7963	2713.5145	1248.2	366.1
997.9183	2714.7403	1249.7	370.2
998.0403	2715.9654	1257.95	377.7
998.1623	2717.1899	1286.4	392.05
998.2842	2718.4136	1282.25	403.3
998.4062	2719.6367	1284.25	404.05
998.528	2720.8591	1299.7	412
998.6498	2722.0809	1304.25	424.35
998.7716	2723.3019	1315.5	430.7
998.8934	2724.5223	1320.8	438.15
999.0151	2725.7421	1314	432.4
999.1368	2726.9611	1317.2	435.2
999.2584	2728.1795	1321.05	437.75
999.38	2729.3972	1312.45	433.8
999.5016	2730.6142	1320.3	424.1
999.6231	2731.8306	1296.35	415.6
999.7446	2733.0462	1282.05	399.5
999.8661	2734.2612	1281.3	397.3
999.9875	2735.4756	1264.35	383.35
1000.1089	2736.6892	1259.4	379.9
1000.2302	2737.9022	1237	359.3
1000.3515	2739.1145	1230.75	349.05
1000.4728	2740.3262	1228.4	337.9
1000.594	2741.5372	1214.5	335.85
1000.7152	2742.7475	1208.7	327.1
1000.8363	2743.9571	1198.85	314.9
1000.9575	2745.1661	1199.25	314.3
1001.0785	2746.3744	1190.8	309.65
1001.1996	2747.582	1174.95	296.1
1001.3206	2748.7889	1176.5	293.7
1001.4415	2749.9952	1170.6	290.4
1001.5625	2751.2008	1166.6	284.2
1001.6833	2752.4057	1168.2	284.75
1001.8042	2753.61	1163.85	282.3
1001.925	2754.8136	1164.25	281.05
1002.0458	2756.0165	1161.05	280.5
1002.1665	2757.2188	1156.65	278.45
1002.2872	2758.4204	1162.3	282.95
1002.4078	2759.6213	1164.8	283.85
1002.5285	2760.8215	1171.1	285.5
1002.649	2762.0211	1168.55	288.4
1002.7696	2763.22	1162.1	279.85
1002.8901	2764.4182	1165.5	284.35
1003.0106	2765.6158	1165.25	283.9
1003.131	2766.8127	1158.4	278.4
1003.2514	2768.009	1153.95	272.6
1003.3717	2769.2045	1146.65	265.7
1003.492	2770.3994	1149.25	266.35
1003.6123	2771.5936	1150.95	270.3
1003.7325	2772.7872	1148.5	268.8
1003.8527	2773.9801	1149.6	267.05
1003.9729	2775.1723	1162.45	261.65
1004.093	2776.3639	1145.4	265.45
1004.2131	2777.5548	1153.4	270.2
1004.3331	2778.745	1154.05	271.8
1004.4531	2779.9346	1153.25	272.95
1004.5731	2781.1235	1158.1	276.65
1004.693	2782.3117	1155.95	274.95
1004.8129	2783.4992	1162.15	284.35
1004.9328	2784.6861	1170.05	289.55
1005.0526	2785.8723	1177.25	295.9
1005.1723	2787.0579	1189.15	312.85
1005.2921	2788.2428	1188.2	309.3
1005.4118	2789.427	1190.15	310.25
1005.5314	2790.6106	1202.5	321.1
1005.651	2791.7935	1208	327.3
1005.7706	2792.9757	1221.1	341.6
1005.8902	2794.1573	1225.6	343.1
1006.0097	2795.3382	1236.7	355.85
1006.1291	2796.5184	1250.25	373.65
1006.2485	2797.698	1269.55	387.7
1006.3679	2798.8769	1276.55	397.1
1006.4873	2800.0551	1296.45	416.75
1006.6066	2801.2327	1307.7	425.1
1006.7258	2802.4096	1322.65	443.1
1006.8451	2803.5859	1341.05	459.2
1006.9642	2804.7615	1356.4	476.4
1007.0834	2805.9364	1374.8	494.85
1007.2025	2807.1106	1401.85	521.65
1007.3216	2808.2842	1416.15	534.6
1007.4406	2809.4572	1438.55	558.4
1007.5596	2810.6294	1476.65	597.05
1007.6785	2811.801	1498.75	619.3
1007.7975	2812.972	1533.95	655.5
1007.9163	2814.1423	1568.75	688.7
1008.0352	2815.3119	1610.35	729.25
1008.154	2816.4808	1637.55	757.9
1008.2727	2817.6491	1674.4	793.95
1008.3914	2818.8167	1715.9	835
1008.5101	2819.9837	1759.45	876.6
1008.6288	2821.15	1787.35	907.85
1008.7474	2822.3157	1815.2	935.5
1008.8659	2823.4807	1857.9	977
1008.9844	2824.645	1890.7	1008.7
1009.1029	2825.8086	1923.95	1045.15
1009.2214	2826.9716	1945.1	1066.4
1009.3398	2828.134	1974.4	1095.55
1009.4581	2829.2957	2007.1	1127.4
1009.5764	2830.4567	2020.1	1142.05
1009.6947	2831.617	2028.4	1149.3
1009.813	2832.7767	2037.4	1156.35
1009.9312	2833.9358	2040.8	1160.35
1010.0493	2835.0941	2046.95	1166.05
1010.1675	2836.2519	2036.55	1156.9
1010.2855	2837.4089	2025.4	1146.8
1010.4036	2838.5653	2014.9	1134.3
1010.5216	2839.7211	2016.05	1137.6
1010.6396	2840.8761	2030.85	1150.05
1010.7575	2842.0306	2038.4	1160.7
1010.8754	2843.1843	2068.35	1189
1010.9932	2844.3374	2113.45	1233.45
1011.111	2845.4899	2164.95	1284.85
1011.2288	2846.6417	2212.15	1332.2
1011.3465	2847.7928	2263.7	1381.9
1011.4642	2848.9433	2322.55	1444
1011.5818	2850.0931	2392.2	1511.9
1011.6995	2851.2422	2456.5	1573.9
1011.817	2852.3907	2503.35	1624.45
1011.9345	2853.5385	2562.3	1679.3
1012.052	2854.6857	2622.4	1716.3
1012.1695	2855.8323	2643.35	1765.55
1012.2869	2856.9781	2668.05	1788.8
1012.4042	2858.1233	2707	1825.95
1012.5216	2859.2679	2759.6	1879.45
1012.6389	2860.4118	2782.9	1902.85
1012.7561	2861.555	2815.15	1931.2
1012.8733	2862.6976	2839.55	1956.1
1012.9905	2863.8395	2852.3	1972.5
1013.1076	2864.9808	2884.05	2003.05
1013.2247	2866.1214	2887.65	2009.1
1013.3417	2867.2614	2908.2	2028.85
1013.4587	2868.4007	2923.7	2041.9
1013.5757	2869.5393	2930.3	2049.8
1013.6926	2870.6773	2932.7	2049.35
1013.8095	2871.8146	2962.65	2080.25
1013.9263	2872.9513	2941.75	2058.25
1014.0431	2874.0874	2936.65	2056.3
1014.1599	2875.2227	2933.4	2052.95
1014.2766	2876.3574	2937.95	2056.7
1014.3933	2877.4915	2907.85	2029.6
1014.51	2878.6249	2884.7	2004.15
1014.6266	2879.7577	2880.25	1998.3
1014.7431	2880.8898	2858.5	1966.4
1014.8596	2882.0212	2840.85	1960.25
1014.9761	2883.152	2829.65	1947.2
1015.0925	2884.2821	2835.85	1958.05
1015.2089	2885.4116	2827.25	1947.45
1015.3253	2886.5405	2819.2	1938.95
1015.4416	2887.6686	2831.1	1947.35
1015.5579	2888.7962	2837.3	1958.5
1015.6741	2889.923	2835.65	1957.65
1015.7903	2891.0493	2860.75	1981.05
1015.9065	2892.1748	2860.05	1980.3
1016.0226	2893.2997	2855.95	1974.75
1016.1387	2894.424	2882.45	2003.1
1016.2547	2895.5476	2901.85	2020.95
1016.3707	2896.6706	2907.55	2026.95
1016.4866	2897.7929	2946.1	2064.15
1016.6025	2898.9145	2961.4	2080.75
1016.7184	2900.0355	2985.25	2103.45
1016.8342	2901.1559	3021.85	2142.2
1016.95	2902.2756	3031	2151.8
1017.0658	2903.3946	3056.9	2177.45
1017.1815	2904.513	3068.5	2186.7
1017.2971	2905.6308	3098.15	2218.55
1017.4127	2906.7479	3121.25	2240.5
1017.5283	2907.8643	3136	2255.3
1017.6439	2908.9801	3149.2	2268.6
1017.7594	2910.0953	3161.75	2281.5
1017.8748	2911.2098	3166.55	2284.75
1017.9902	2912.3236	3164.25	2276.2
1018.1056	2913.4368	3145.55	2264.3
1018.2209	2914.5494	3127.85	2247.35
1018.3362	2915.6613	3116.65	2230.15
1018.4515	2916.7725	3105.5	2220.15
1018.5667	2917.8831	3074.25	2194.2
1018.6819	2918.9931	3061.05	2179.05
1018.797	2920.1024	3026.35	2145.85
1018.9121	2921.211	3005.8	2126.25
1019.0271	2922.319	2999	2118.75
1019.1421	2923.4264	2991.6	2114.4
1019.2571	2924.5331	2963.7	2084.8
1019.372	2925.6391	2949.3	2068.25
1019.4869	2926.7445	2955.2	2076.4
1019.6017	2927.8493	2957.6	2074.1
1019.7165	2928.9534	2949.05	2069.05
1019.8313	2930.0569	2945.5	2062.1
1019.946	2931.1597	2944	2062.25
1020.0606	2932.2619	2915.8	2038.05
1020.1753	2933.3634	2911.2	2029.45
1020.2899	2934.4643	2913.85	2027.2
1020.4044	2935.5645	2900.45	2014.45
1020.5189	2936.6641	2876.7	1993.15
1020.6334	2937.763	2833.5	1955.45
1020.7478	2938.8613	2798.25	1915.65
1020.8622	2939.959	2766.3	1880.95
1020.9765	2941.056	2700.2	1819.55
1021.0908	2942.1523	2639.8	1757.95
1021.2051	2943.248	2577.75	1697.4
1021.3193	2944.3431	2491.05	1610.4
1021.4334	2945.4375	2408.85	1529.3
1021.5476	2946.5313	2341.75	1463.15
1021.6617	2947.6244	2263.9	1383.3
1021.7757	2948.7169	2198.55	1319.6
1021.8897	2949.8087	2122.9	1242.2
1022.0037	2950.8999	2061.65	1182.95
1022.1176	2951.9904	1990.25	1110.35
1022.2315	2953.0803	1942.25	1061.3
1022.3453	2954.1696	1890.95	1012.9
1022.4591	2955.2582	1848.85	970.6
1022.5728	2956.3462	1809.6	929.25
1022.6865	2957.4335	1787.35	907
1022.8002	2958.5202	1758.75	876.65
1022.9138	2959.6062	1744.2	863.35
1023.0274	2960.6916	1724.05	842.35
1023.141	2961.7764	1716.6	835.8
1023.2545	2962.8605	1699.15	819.6
1023.3679	2963.9439	1699.55	819.65
1023.4813	2965.0267	1679.2	796.3
1023.5947	2966.1089	1694.95	791.55
1023.708	2967.1905	1677.4	798.05
1023.8213	2968.2714	1670.45	790.9
1023.9346	2969.3516	1670.9	791.95
1024.0478	2970.4312	1685.1	800.85
1024.1609	2971.5102	1674.35	795.2
1024.274	2972.5885	1673	793.25
1024.3871	2973.6662	1679.2	793.7
1024.5002	2974.7432	1677.8	797.5
1024.6132	2975.8196	1671.4	792.15
1024.7261	2976.8954	1659.9	779.35
1024.839	2977.9705	1651.7	770.1
1024.9519	2979.045	1641.3	763.15
1025.0647	2980.1188	1625.35	746.25
1025.1775	2981.192	1611.9	734
1025.2902	2982.2645	1598.2	716.75
1025.4029	2983.3364	1581.6	703.2
1025.5156	2984.4077	1559.85	681.4
1025.6282	2985.4783	1536.2	649.3
1025.7407	2986.5483	1508.75	632.15
1025.8532	2987.6177	1485.55	605.55
1025.9657	2988.6864	1453.1	571.2
1026.0782	2989.7545	1439	558.9
1026.1906	2990.8219	1404.45	523.4
1026.3029	2991.8887	1392.3	510.7
1026.4152	2992.9548	1363.8	483.65
1026.5275	2994.0204	1343.8	464.25
1026.6397	2995.0852	1320.95	441.25
1026.7519	2996.1495	1307.65	428.6
1026.864	2997.2131	1287.05	405.9
1026.9761	2998.276	1265.85	388.15
1027.0882	2999.3383	1261.5	380.4
1027.2002	3000.4	1246.35	367.15
1027.3122	3001.4611	1236.9	356.15
1027.4241	3002.5215	1225.5	345.9
1027.536	3003.5812	1212.6	334.8
1027.6478	3004.6404	1208.2	327.45
1027.7596	3005.6989	1198.6	316.4
1027.8714	3006.7567	1197.4	317.65
1027.9831	3007.8139	1209.4	310.45
1028.0947	3008.8705	1180.1	302
1028.2064	3009.9264	1184.65	301.45
1028.3179	3010.9818	1182.05	302.05
1028.4295	3012.0364	1178.85	298.75
1028.541	3013.0905	1171.65	290
1028.6524	3014.1439	1178.65	298.35
1028.7638	3015.1966	1176.3	296.7
1028.8752	3016.2487	1175.15	294.05
1028.9865	3017.3002	1175.65	294.35
1029.0978	3018.3511	1175.05	295.6
1029.209	3019.4013	1176.15	298.9
1029.3202	3020.4509	1175.15	294.55
1029.4314	3021.4998	1168.1	288.5
1029.5425	3022.5481	1173.55	294.5
1029.6535	3023.5958	1176.95	300.8
1029.7645	3024.6428	1180.8	300.15
1029.8755	3025.6892	1174.05	295.45
1029.9864	3026.735	1173.45	293.55
1030.0973	3027.7802	1185.6	306.75
1030.2082	3028.8247	1184.15	303.1
1030.319	3029.8685	1188.9	308.45
1030.4297	3030.9118	1189.95	308.85
1030.5404	3031.9544	1195.55	314.7
1030.6511	3032.9963	1198.15	318.4
1030.7617	3034.0376	1195.2	316.9
1030.8723	3035.0783	1206.4	325.8
1030.9829	3036.1184	1206.8	326.05
1031.0934	3037.1578	1206.1	328.6
1031.2038	3038.1966	1212.7	332.3
1031.3142	3039.2348	1211.85	332.2
1031.4246	3040.2723	1222.1	336.25
1031.5349	3041.3092	1215.95	336.25
1031.6452	3042.3455	1207.55	328.8
1031.7554	3043.3811	1201.05	320.65
1031.8656	3044.4161	1205.2	324.2
1031.9758	3045.4505	1198.65	320.65
1032.0859	3046.4842	1198.15	320.6
1032.1959	3047.5173	1188.8	310.55
1032.3059	3048.5498	1186.8	307.6
1032.4159	3049.5816	1187.45	308.75
1032.5258	3050.6128	1182.65	302.55
1032.6357	3051.6434	1176.45	294.35
1032.7455	3052.6734	1167.8	286.15
1032.8553	3053.7027	1166	286.1
1032.9651	3054.7314	1158.75	281.4
1033.0748	3055.7594	1154.35	276.45
1033.1845	3056.7868	1152.25	271.7
1033.2941	3057.8136	1146.05	266.8
1033.4037	3058.8398	1146	268.85
1033.5132	3059.8653	1137.1	256.55
1033.6227	3060.8902	1138.15	260.9
1033.7321	3061.9145	1133.3	251.25
1033.8415	3062.9381	1127.55	247.8
1033.9509	3063.9612	1142	245.3
1034.0602	3064.9835	1118.7	237.75
1034.1694	3066.0053	1117.4	237
1034.2787	3067.0264	1109.05	228.75
1034.3878	3068.0469	1108.9	227.7
1034.497	3069.0668	1097.05	215.5
1034.6061	3070.086	1088.3	209.6
1034.7151	3071.1046	1087.7	206.4
1034.8241	3072.1226	1082.85	202.2
1034.9331	3073.1399	1074.2	196.75
1035.042	3074.1567	1068.9	187.8
1035.1508	3075.1727	1062.95	180.3
1035.2597	3076.1882	1053.3	173.45
1035.3684	3077.203	1045.75	165.8
1035.4772	3078.2173	1040.9	160.6
1035.5859	3079.2308	1036.3	153.35
1035.6945	3080.2438	1035.45	154
1035.8031	3081.2561	1026.85	147.75
1035.9117	3082.2678	1017.7	139.1
1036.0202	3083.2789	1016.75	138.55
1036.1286	3084.2893	1012.6	134.35
1036.2371	3085.2991	1006.25	125.9
1036.3454	3086.3083	1010.1	127.65
1036.4538	3087.3169	1002.35	121.65
1036.562	3088.3248	994.65	112.8
1036.6703	3089.3321	992.4	109.95
1036.7785	3090.3388	986.55	108.2
1036.8866	3091.3449	983.1	102.45
1036.9948	3092.3503	988.55	106.4
1037.1028	3093.3551	979.25	102.45
1037.2108	3094.3593	979.3	101.15
1037.3188	3095.3629	974.95	97.05
1037.4267	3096.3658	977.7	95.5
1037.5346	3097.3681	976	97.05
1037.6425	3098.3698	973.45	90.35
1037.7503	3099.3708	974.45	89.3
1037.858	3100.3713	967.15	87.4
1037.9657	3101.3711	967.2	86.55
1038.0734	3102.3702	1105.55	83.6
1038.181	3103.3688	965.2	84.5
1038.2886	3104.3667	966.85	88.5
1038.3961	3105.364	958.15	78.75
1038.5036	3106.3607	962.3	80.2
1038.611	3107.3568	961.05	81.1
1038.7184	3108.3522	957.7	80.35
1038.8257	3109.347	957.5	78.95
1038.933	3110.3412	962.85	78.85
1039.0403	3111.3348	955.4	76.5
1039.1475	3112.3277	953.6	73.2
1039.2547	3113.32	953.75	74.6
1039.3618	3114.3117	956.15	77.3
1039.4689	3115.3028	955.45	76.25
1039.5759	3116.2932	955.5	74.9
1039.6829	3117.2831	955.85	67.95
1039.7898	3118.2723	950.95	71.7
1039.8967	3119.2608	951.6	71.45
1040.0035	3120.2488	949.3	70.75
1040.1103	3121.2361	952.05	71.25
1040.2171	3122.2229	949.6	71.4
1040.3238	3123.209	949.95	69.2
1040.4305	3124.1944	946.95	68.55
1040.5371	3125.1793	948.65	67.05
1040.6437	3126.1635	943.7	62.05
1040.7502	3127.1471	946.25	68.7
1040.8567	3128.1301	943.35	64.6
1040.9631	3129.1125	946	66.45
1041.0695	3130.0942	944.15	64.6
1041.1759	3131.0753	951.95	63.8
1041.2822	3132.0558	943.75	60.9
1041.3884	3133.0357	943.75	62.15
1041.4946	3134.015	942.75	62.25
1041.6008	3134.9936	942.4	62.6
1041.7069	3135.9716	960	58.95
1041.813	3136.949	935.75	56.15
1041.919	3137.9258	956.4	61.3
1042.025	3138.902	942.3	58.75
1042.1309	3139.8775	934.6	56.95
1042.2368	3140.8524	935.4	55.7
1042.3427	3141.8267	935.55	54.6
1042.4485	3142.8004	937.9	57.65
1042.5542	3143.7735	943.75	57.1
1042.6599	3144.7459	935.55	55.95
1042.7656	3145.7178	931.65	50.85
1042.8712	3146.689	930.2	53.75
1042.9768	3147.6596	932.5	50.85
1043.0823	3148.6295	930.4	50.1
1043.1878	3149.5989	929.05	50.6
1043.2932	3150.5676	930.5	52.1
1043.3986	3151.5357	927.65	50.65
1043.5039	3152.5032	928.65	49.5
1043.6092	3153.4701	929.4	52.05
1043.7145	3154.4364	929.7	50.65
1043.8197	3155.402	927.05	49.55
1043.9248	3156.367	930.75	49.15
1044.03	3157.3315	963.85	48.5
1044.135	3158.2952	926.3	47
1044.24	3159.2584	923.35	44.75
1044.345	3160.221	927.2	46.35
1044.4499	3161.1829	924.45	44.1
1044.5548	3162.1442	926.7	49.1
1044.6596	3163.105	922.25	42.6
1044.7644	3164.065	922.75	43.65
1044.8692	3165.0245	925	41.95
1044.9739	3165.9834	920.25	41.05
1045.0785	3166.9416	919.4	40.95
1045.1831	3167.8993	924	43.95
1045.2877	3168.8563	924.4	45
1045.3922	3169.8127	923.25	43.4
1045.4966	3170.7684	921.3	43.25
1045.6011	3171.7236	920.65	38.7
1045.7054	3172.6782	917.35	37.45
1045.8098	3173.6321	920.1	40.9
1045.914	3174.5854	923.9	40.2
1046.0183	3175.5381	921.95	40.85
1046.1224	3176.4902	918.35	40.5
1046.2266	3177.4417	917.75	38
1046.3307	3178.3926	917.8	39
1046.4347	3179.3428	917.9	38.55
1046.5387	3180.2924	917.15	40.25
1046.6427	3181.2415	917.35	39.55
1046.7466	3182.1899	918.7	38.1
1046.8504	3183.1377	916.35	38.8
1046.9542	3184.0848	919.75	37.35
1047.058	3185.0314	914.95	34.6
1047.1617	3185.9773	917.15	38.8
1047.2654	3186.9227	920.6	40.15
1047.369	3187.8674	918.2	38.25
1047.4726	3188.8115	920.7	36.75
1047.5761	3189.755	918.5	39.5
1047.6796	3190.6979	917.7	39.1
1047.783	3191.6402	914.8	35.45
1047.8864	3192.5818	917.5	38.85
1047.9898	3193.5229	941	32.8
1048.0931	3194.4633	916.3	37.4
1048.1963	3195.4031	917.1	35.55
1048.2995	3196.3423	914.55	38.05
1048.4027	3197.2809	914.6	34.1
1048.5058	3198.2189	914.15	33.05
1048.6089	3199.1563	931.65	35
1048.7119	3200.0931	915.35	37.35
1048.8148	3201.0292	910.9	32.6
1048.9178	3201.9648	911.35	32.25
1049.0206	3202.8997	912.7	29.45
1049.1235	3203.834	912.05	34.65
1049.2262	3204.7677	913.95	35.45
1049.329	3205.7008	914.65	33
1049.4317	3206.6333	912.1	36.1
1049.5343	3207.5652	915.25	33.6
1049.6369	3208.4964	912.1	32.8
1049.7394	3209.4271	907.85	28
1049.8419	3210.3571	909.7	30.5
1049.9444	3211.2865	912.4	31.2
1050.0468	3212.2154	912.7	31.1
1050.1491	3213.1436	916.1	35.05
1050.2514	3214.0712	916.95	30.5
1050.3537	3214.9982	909.95	30.75
1050.4559	3215.9246	911.3	31
1050.5581	3216.8503	909.8	32.95
1050.6602	3217.7755	911.1	29.05
1050.7623	3218.7001	910.75	32.2
1050.8643	3219.624	908.2	25.75
1050.9663	3220.5473	910.2	32.7
1051.0682	3221.4701	912	30.5
1051.1701	3222.3922	913.75	32.3
1051.2719	3223.3137	907.7	30.25
1051.3737	3224.2346	909.35	31.25
1051.4754	3225.1549	908.6	31.15
1051.5771	3226.0746	909.6	32.4
1051.6788	3226.9937	910.6	28.7
1051.7804	3227.9121	906.95	32.35
1051.8819	3228.83	907.55	29.55
1051.9834	3229.7473	907.15	28.6
1052.0849	3230.6639	907.4	27.25
1052.1863	3231.5799	906.65	29.35
1052.2876	3232.4954	909.1	27.5
1052.3889	3233.4102	905.4	24.75
1052.4902	3234.3244	907.95	28.8
1052.5914	3235.238	909.4	30.65
1052.6926	3236.151	931.95	27.7
1052.7937	3237.0634	903.9	26.8
1052.8948	3237.9752	905.05	24.8
1052.9958	3238.8864	906.25	26.7
1053.0968	3239.797	907.3	28.7
1053.1977	3240.7069	906.35	27.3
1053.2986	3241.6163	907.75	26.9
1053.3994	3242.5251	904	25.6
1053.5002	3243.4332	903.9	23.35
1053.6009	3244.3408	905.65	24.35
1053.7016	3245.2477	905.2	27.25
1053.8022	3246.154	907.95	28.7
1053.9028	3247.0598	907.05	28.05
1054.0034	3247.9649	900.35	23.1
1054.1039	3248.8694	904.1	27.05
1054.2043	3249.7733	904.65	26.8
1054.3047	3250.6766	904.1	23.25
1054.4051	3251.5793	904.8	24.9
1054.5054	3252.4814	904.5	25.05
1054.6056	3253.3829	902.1	22.3
1054.7058	3254.2838	903.2	24.85
1054.806	3255.1841	902.75	23.55
1054.9061	3256.0838	903.45	24.2
1055.0061	3256.9829	900.75	23.15
1055.1062	3257.8814	903.5	23.75
1055.2061	3258.7792	902	20.95
1055.306	3259.6765	901	22.05
1055.4059	3260.5731	903.65	25.8
1055.5057	3261.4692	902.35	21.25
1055.6055	3262.3647	900.75	21.85
1055.7052	3263.2595	900.7	20.65
1055.8049	3264.1538	899.2	21.45
1055.9045	3265.0474	900.25	20.8
1056.0041	3265.9404	898.65	20.55
1056.1036	3266.8329	898.45	19.85
1056.2031	3267.7247	907.15	19.05
1056.3025	3268.616	895.65	19.05
1056.4019	3269.5066	896.65	18.95
1056.5013	3270.3966	897.8	15.8
1056.6005	3271.286	896.9	18.7
