Software Version:	3.9.2.0
Unit SN:	10000200
Spectrometer SN:	6960
Date:	3/14/2024 1:11:42 PM
Data Line Index:	25
Spectral Points:	2048
Integration time (ms):	125
Averages:	20
Delay (ms):	30000
Sequence Number:	1
Processing:	dark subtract
Laser Power (mW):	300
Laser Current (mA):	824
Laser Diode Temp (C):	25
Laser Case Temp (C):	28.1
System Temp (C):	28.2
Spectrometer Temp (C):	26
CCD Temp (C):	-0.005
Secondary Temp (C):	20.003
Heatsink Temp (C):	24.069
CCDPCB Temp (C):	37.63
SecondaryPCB Temp (C):	35.062

Wavelength	RamanShift	Raw Counts	Dark Subtracted
787.061	30.1047	432.5	23.6
787.2016	32.3739	431.1	21.85
787.3422	34.6426	435.2	25.6
787.4828	36.9109	437.45	27.4
787.6235	39.1787	442.6	27.65
787.7642	41.4461	450.65	30.85
787.9049	43.7131	455.6	31.75
788.0456	45.9796	461.05	35.35
788.1863	48.2456	466.6	36.3
788.3271	50.5112	473.75	38
788.4679	52.7764	479.05	42.55
788.6087	55.0411	484.85	44.4
788.7496	57.3054	490.6	45
788.8904	59.5692	496.65	48.8
789.0313	61.8326	504.85	49.8
789.1722	64.0955	514.35	55.35
789.3132	66.3579	521.1	57.45
789.4541	68.6199	531.35	66
789.5951	70.8815	547.55	79.25
789.7361	73.1426	586.1	114.6
789.8771	75.4032	676.1	198.6
790.0181	77.6634	891.9	408.55
790.1592	79.9231	1397.25	910.35
790.3003	82.1824	2488.35	1996.1
790.4414	84.4412	4378.45	3872.15
790.5825	86.6995	6988.15	6468.25
790.7237	88.9574	9545	9012.25
790.8648	91.2148	11393.25	10855.75
791.006	93.4717	12263.2	11717.2
791.1472	95.7282	12455.5	11903.4
791.2885	97.9842	12394.3	11840.7
791.4297	100.2398	12160.1	11604.05
791.571	102.4949	11887.45	11326.85
791.7123	104.7495	11553.6	10989.4
791.8536	107.0036	11250.95	10684.7
791.9949	109.2573	10927.6	10363.3
792.1363	111.5105	10646.3	10080.65
792.2777	113.7632	10388.7	9819.3
792.4191	116.0154	10189.1	9608.65
792.5605	118.2672	10029.25	9458.4
792.7019	120.5185	9895.8	9324.4
792.8434	122.7693	9754.4	9177.9
792.9849	125.0197	9671.35	9093.3
793.1264	127.2696	9559.45	8979.65
793.2679	129.519	9474.6	8888.95
793.4094	131.7679	9384.05	8798.1
793.551	134.0163	9320.05	8728.75
793.6926	136.2642	9184.15	8590.75
793.8342	138.5117	9075.8	8477.75
793.9758	140.7587	8944	8348.1
794.1175	143.0052	8811.4	8211.15
794.2591	145.2512	8663.55	8063.9
794.4008	147.4967	8536.1	7932.35
794.5425	149.7417	8432.65	7829.15
794.6842	151.9863	8382.65	7774.6
794.826	154.2304	8345.7	7733.55
794.9677	156.4739	8263.7	7647.55
795.1095	158.717	8252.65	7637.2
795.2513	160.9596	8199.4	7580.1
795.3931	163.2017	8125.4	7503.8
795.535	165.4433	8023.8	7397.2
795.6768	167.6844	7919.4	7294.1
795.8187	169.925	7810.45	7181.25
795.9606	172.1651	7639.4	7007.35
796.1025	174.4047	7557.7	6921.85
796.2445	176.6439	7468.3	6831.3
796.3864	178.8825	7398.65	6757.45
796.5284	181.1206	7339.35	6695.25
796.6704	183.3582	7296.8	6650.25
796.8124	185.5954	7264.3	6615.65
796.9544	187.832	7230.3	6576.15
797.0965	190.0681	7223.5	6568.35
797.2386	192.3037	7199.05	6539.55
797.3806	194.5388	7215.7	6553.9
797.5228	196.7734	7254.45	6589.45
797.6649	199.0075	7251.7	6584.5
797.807	201.2411	7309.85	6639.65
797.9492	203.4742	7332.15	6657.75
798.0914	205.7068	7400.65	6725.85
798.2336	207.9389	7463.1	6790.7
798.3758	210.1704	7499.35	6825.75
798.518	212.4015	7526.2	6848.2
798.6603	214.632	7554.5	6875.4
798.8025	216.862	7583.65	6908.75
798.9448	219.0915	7610.2	6942.35
799.0871	221.3205	7636.45	6974.1
799.2294	223.549	7671.9	7015.5
799.3718	225.777	7694.55	7037.45
799.5141	228.0044	7719.7	7059
799.6565	230.2314	7753.65	7096.65
799.7989	232.4578	7758.9	7098.25
799.9413	234.6837	7793.55	7126.9
800.0837	236.909	7838.4	7169.9
800.2262	239.1339	7839.65	7147.2
800.3687	241.3582	7799.7	7123.6
800.5111	243.582	7795.8	7093.35
800.6536	245.8053	7743.65	7047.7
800.7961	248.0281	7745.45	7053.65
800.9387	250.2503	7707.9	7014.1
801.0812	252.472	7733.25	7035.25
801.2238	254.6932	7787.85	7085.55
801.3664	256.9139	7819.1	7114.65
801.509	259.134	7889.7	7180.45
801.6516	261.3536	7959.2	7253.2
801.7942	263.5727	8076.9	7369.65
801.9369	265.7912	8166.85	7456.75
802.0795	268.0092	8270.1	7562.2
802.2222	270.2267	8361.95	7652.1
802.3649	272.4436	8406.7	7693.1
802.5076	274.6601	8459.35	7738.3
802.6504	276.8759	8426.65	7713.75
802.7931	279.0913	8417.9	7701.9
802.9359	281.3061	8353.45	7636.7
803.0787	283.5204	8347.5	7629.5
803.2215	285.7341	8370.8	7648.8
803.3643	287.9473	8371.5	7647.6
803.5071	290.16	8342.35	7611.5
803.6499	292.3721	8360.95	7635.45
803.7928	294.5837	8397.35	7670.8
803.9357	296.7947	8471.75	7746.75
804.0786	299.0052	8518.35	7793.2
804.2215	301.2152	8503.1	7775.5
804.3644	303.4246	8474.1	7749.95
804.5074	305.6334	8350.4	7624.55
804.6503	307.8418	8203.8	7475.5
804.7933	310.0495	8093.75	7363.25
804.9363	312.2568	7929.7	7200.3
805.0793	314.4635	7762.65	7029.05
805.2223	316.6696	7633.45	6902.05
805.3653	318.8752	7563.75	6820.8
805.5084	321.0802	7476.15	6742.55
805.6514	323.2847	7482.7	6747.45
805.7945	325.4887	7497.2	6759.25
805.9376	327.692	7496.4	6755.15
806.0807	329.8949	7504.1	6764.85
806.2238	332.0972	7447.75	6708.2
806.367	334.2989	7387.85	6643.25
806.5101	336.5001	7288.95	6545.15
806.6533	338.7007	7228.3	6484.55
806.7965	340.9008	7167.45	6423.15
806.9397	343.1003	7083.95	6334.35
807.0829	345.2992	7016.2	6268.65
807.2261	347.4976	6988.95	6239.65
807.3693	349.6955	6940.4	6187.65
807.5126	351.8927	6920.8	6164.55
807.6559	354.0895	6877.55	6111.7
807.7991	356.2856	6856.15	6099.2
807.9424	358.4812	6825.5	6070.4
808.0857	360.6763	6836.8	6081.15
808.2291	362.8707	6809.7	6051.4
808.3724	365.0646	6811.5	6051.7
808.5158	367.258	6845.35	6084.9
808.6591	369.4508	6857.7	6090.25
808.8025	371.643	6901.95	6135.85
808.9459	373.8346	6931.2	6161.6
809.0893	376.0257	6969.4	6197
809.2327	378.2162	6981.3	6209.15
809.3762	380.4062	6979.25	6205.4
809.5196	382.5956	6951.45	6175.65
809.6631	384.7844	6884.35	6110.35
809.8066	386.9726	6822.1	6047.2
809.9501	389.1603	6793.4	6017.7
810.0936	391.3474	6794.2	5987.7
810.2371	393.5339	6733.55	5959.6
810.3806	395.7199	6692.15	5923.7
810.5241	397.9052	6738.55	5967.9
810.6677	400.09	6747.9	5976.75
810.8113	402.2743	6817.1	6048.15
810.9548	404.4579	6872.9	6105.85
811.0984	406.641	6949.1	6181
811.2421	408.8235	7019.1	6251.3
811.3857	411.0054	7077.2	6308.4
811.5293	413.1868	7180.2	6408.3
811.673	415.3675	7213.6	6438.05
811.8166	417.5477	7183.6	6407.3
811.9603	419.7273	7134.65	6356
812.104	421.9064	7071.05	6285.2
812.2477	424.0848	7015.75	6236.7
812.3914	426.2627	6956.6	6173.65
812.5351	428.4399	6857.75	6073.4
812.6788	430.6166	6741.05	5953.9
812.8226	432.7928	6612.65	5823.25
812.9663	434.9683	6487.35	5697.4
813.1101	437.1432	6397.85	5604.35
813.2539	439.3176	6336.55	5542.75
813.3977	441.4914	6284.55	5490
813.5415	443.6645	6279.5	5483.9
813.6853	445.8371	6236.6	5442.2
813.8291	448.0091	6217.6	5420.8
813.973	450.1806	6211.95	5417.7
814.1168	452.3514	6185.1	5384.55
814.2607	454.5216	6194.85	5388.85
814.4046	456.6913	6162.85	5361.15
814.5485	458.8603	6189.75	5391.55
814.6924	461.0288	6212.55	5414.55
814.8363	463.1967	6204.75	5405.45
814.9802	465.3639	6213.9	5412
815.1241	467.5306	6193.1	5392.15
815.2681	469.6967	6175.7	5376.45
815.412	471.8622	6182.95	5382.05
815.556	474.0271	6161.1	5360.9
815.7	476.1914	6168.55	5363
815.844	478.3551	6180.05	5380.5
815.988	480.5182	6185.5	5380.45
816.132	482.6807	6198.8	5392.2
816.276	484.8426	6279	5475.55
816.4201	487.0039	6395.55	5589.6
816.5641	489.1647	6531.05	5725.95
816.7082	491.3248	6650.9	5845.55
816.8522	493.4843	6701.45	5892.7
816.9963	495.6432	6638.3	5831.35
817.1404	497.8015	6584.6	5775.95
817.2845	499.9592	6512.65	5706.6
817.4286	502.1163	6431.3	5624.55
817.5727	504.2728	6312.15	5502.7
817.7168	506.4287	6210.3	5401.35
817.861	508.5839	6121.6	5310.8
818.0051	510.7386	6037.7	5229.35
818.1493	512.8927	6030.15	5212.15
818.2935	515.0461	6006.35	5196.05
818.4377	517.199	6060.2	5249.75
818.5818	519.3512	6106.1	5295.1
818.726	521.5029	6215.35	5396.05
818.8703	523.6539	6315.05	5497.9
819.0145	525.8043	6343.55	5528.85
819.1587	527.9541	6311.05	5496.9
819.303	530.1033	6228.6	5412
819.4472	532.2519	6131.65	5316.7
819.5915	534.3999	6114.8	5297.6
819.7357	536.5472	6109.25	5289.05
819.88	538.694	6159.1	5339.9
820.0243	540.8401	6250.5	5432.4
820.1686	542.9856	6317.4	5496.6
820.3129	545.1305	6332.35	5512.35
820.4572	547.2748	6289.9	5467.4
820.6016	549.4185	6249.1	5426.65
820.7459	551.5615	6189.9	5368.25
820.8902	553.704	6181.55	5357.75
821.0346	555.8458	6223.7	5403.05
821.1789	557.987	6277.3	5455.55
821.3233	560.1276	6374.1	5550.75
821.4677	562.2675	6516.2	5695.7
821.6121	564.4069	6676.9	5854.3
821.7565	566.5456	6857.25	6033.65
821.9009	568.6837	6907.6	6082.9
822.0453	570.8212	6737.05	5912.45
822.1897	572.958	6487.9	5662.8
822.3342	575.0942	6277.4	5454.95
822.4786	577.2299	6111.05	5286.5
822.6231	579.3648	5991.65	5168.1
822.7675	581.4992	5970.3	5145.25
822.912	583.6329	6009.75	5184.2
823.0565	585.766	6073.2	5246.9
823.201	587.8985	6120	5296.85
823.3454	590.0304	6153.8	5301.9
823.4899	592.1616	6140.8	5315.45
823.6345	594.2922	6085.1	5257.1
823.779	596.4222	5998.4	5168.4
823.9235	598.5515	5920.15	5093.4
824.068	600.6802	5839.3	5011.6
824.2126	602.8083	5761.2	4933.5
824.3571	604.9358	5771.8	4942.25
824.5017	607.0626	5772.1	4941.45
824.6462	609.1888	5808	4974.7
824.7908	611.3144	5859.6	5025.85
824.9354	613.4393	5908.15	5079.35
825.08	615.5636	5970.4	5139.3
825.2246	617.6873	5982.25	5150.95
825.3692	619.8103	5980.4	5147.65
825.5138	621.9327	5896.4	5062
825.6584	624.0544	5830.2	4998.7
825.803	626.1756	5727.85	4895.95
825.9477	628.2961	5672.55	4839.05
826.0923	630.4159	5641.5	4804.1
826.237	632.5351	5613	4777.2
826.3816	634.6537	5595.05	4759.6
826.5263	636.7716	5597.7	4762.2
826.6709	638.8889	5615.7	4779.05
826.8156	641.0056	5620.35	4786.1
826.9603	643.1216	5596.25	4758.15
827.105	645.237	5602.05	4760.85
827.2497	647.3518	5559.05	4720.15
827.3944	649.4659	5508.9	4671.05
827.5391	651.5793	5507.6	4670.35
827.6838	653.6922	5460.2	4623.05
827.8285	655.8043	5462.35	4623.45
827.9733	657.9159	5446.9	4607.75
828.118	660.0268	5443.75	4599.3
828.2627	662.137	5444.15	4605.95
828.4075	664.2466	5441.5	4599.95
828.5522	666.3556	5434.4	4594.75
828.697	668.4639	5402.55	4556.4
828.8418	670.5716	5387.05	4548.3
828.9865	672.6786	5395.55	4554.35
829.1313	674.785	5318.4	4473.55
829.2761	676.8907	5331.4	4487.3
829.4209	678.9958	5332.8	4491.7
829.5657	681.1002	5305.5	4461.45
829.7105	683.204	5295.3	4449.6
829.8553	685.3072	5277.65	4432.05
830.0001	687.4097	5285.2	4442.15
830.1449	689.5115	5284.25	4438.75
830.2898	691.6127	5256.75	4413.25
830.4346	693.7132	5269.7	4425.2
830.5794	695.8131	5269.45	4416.4
830.7243	697.9123	5285.5	4438.1
830.8691	700.0109	5289.3	4441.45
831.014	702.1089	5279.8	4433.4
831.1588	704.2061	5311.05	4463.35
831.3037	706.3028	5326.35	4476.95
831.4486	708.3987	5337.9	4489.85
831.5935	710.4941	5342.05	4495.45
831.7383	712.5887	5378.1	4528.65
831.8832	714.6827	5387.05	4536.85
832.0281	716.7761	5407.9	4559.5
832.173	718.8688	5454.9	4608.05
832.3179	720.9608	5502.6	4650.55
832.4628	723.0522	5557.8	4705.85
832.6077	725.1429	5589.95	4741.05
832.7527	727.233	5622.4	4772.25
832.8976	729.3224	5653.75	4803.8
833.0425	731.4112	5661.75	4811
833.1874	733.4993	5594.95	4741.3
833.3324	735.5867	5507.2	4654.1
833.4773	737.6735	5411.95	4560.95
833.6222	739.7596	5339.8	4484.65
833.7672	741.845	5275.25	4424.6
833.9122	743.9298	5251.45	4397.75
834.0571	746.014	5227.6	4378.5
834.2021	748.0974	5220.4	4366.25
834.347	750.1802	5211.25	4357.45
834.492	752.2624	5211.25	4359.2
834.637	754.3439	5211.5	4357.1
834.782	756.4247	5260.4	4397.55
834.9269	758.5048	5292	4440.1
835.0719	760.5843	5349.95	4497.2
835.2169	762.6631	5496.65	4643.05
835.3619	764.7413	5675.8	4822.95
835.5069	766.8188	5925.75	5068.6
835.6519	768.8956	6157.3	5300.45
835.7969	770.9718	6276.1	5421.3
835.9419	773.0473	6278.5	5423.9
836.0869	775.1221	6198.05	5345.3
836.232	777.1962	6121.8	5267.1
836.377	779.2697	6094.45	5238.3
836.522	781.3426	6142.5	5278.55
836.667	783.4147	6191.9	5335.4
836.8121	785.4862	6222.55	5366.9
836.9571	787.557	6133.55	5275.35
837.1021	789.6271	5922	5066.7
837.2472	791.6966	5684.15	4828.5
837.3922	793.7654	5427.1	4569.2
837.5373	795.8335	5277.9	4422.25
837.6823	797.901	5163.5	4306.6
837.8274	799.9678	5119.9	4259
837.9724	802.0339	5073.2	4216.75
838.1175	804.0993	5068.1	4200.8
838.2626	806.1641	5042.2	4185.15
838.4076	808.2282	5006.1	4148.5
838.5527	810.2916	4971.45	4111
838.6978	812.3544	4943.2	4087.15
838.8428	814.4164	4896	4039.5
838.9879	816.4778	4913.05	4053.45
839.133	818.5385	4928.75	4069.05
839.2781	820.5986	4980.5	4122.55
839.4232	822.658	5077.05	4218.55
839.5682	824.7166	5176.25	4318.55
839.7133	826.7747	5386.4	4527.35
839.8584	828.832	5588.25	4729.1
840.0035	830.8886	5734.15	4871.2
840.1486	832.9446	5816.5	4955.5
840.2937	834.9999	5743.7	4883.9
840.4388	837.0545	5632.2	4770.6
840.5839	839.1085	5480.85	4620.7
840.729	841.1618	5330.5	4466.2
840.8741	843.2143	5240.55	4381.15
841.0192	845.2662	5158.45	4298
841.1643	847.3175	5119.9	4262.55
841.3095	849.368	5056.35	4195.55
841.4546	851.4179	5035.65	4177
841.5997	853.467	4995.3	4136.1
841.7448	855.5155	4972.35	4112.05
841.8899	857.5633	4939.95	4080.25
842.0351	859.6105	4904.05	4042.1
842.1802	861.6569	4877.5	4015.55
842.3253	863.7027	4850.5	3986.35
842.4704	865.7478	4807.8	3943.65
842.6156	867.7922	4800.2	3937.45
842.7607	869.8359	4785	3920.7
842.9058	871.8789	4773.2	3910.3
843.0509	873.9212	4837.95	3941.15
843.1961	875.9629	4836.3	3973
843.3412	878.0039	4851.35	3988
843.4863	880.0441	4888.85	4024.4
843.6315	882.0837	4905.7	4039.7
843.7766	884.1226	4934.95	4070.05
843.9218	886.1609	4966.3	4103.8
844.0669	888.1984	5017.1	4153.55
844.212	890.2352	5080.4	4217.25
844.3572	892.2714	5064.35	4198.25
844.5023	894.3069	5057.45	4193.6
844.6475	896.3416	4978.8	4113.8
844.7926	898.3757	4906.8	4040.4
844.9377	900.4091	4872.05	4005.75
845.0829	902.4418	4852.75	3983.15
845.228	904.4739	4861.35	3993.6
845.3732	906.5052	4901.4	4034.85
845.5183	908.5358	4878.45	4015.55
845.6635	910.5658	4831.45	3966.1
845.8086	912.595	4763.2	3900.45
845.9538	914.6236	4652.65	3788.55
846.0989	916.6515	4603.6	3738.55
846.2441	918.6786	4565.95	3698.75
846.3892	920.7051	4562.2	3694.95
846.5344	922.7309	4568.7	3702.4
846.6795	924.756	4569.75	3703.8
846.8246	926.7804	4599.15	3729.9
846.9698	928.8041	4573.5	3703.1
847.1149	930.8272	4596.75	3730.1
847.2601	932.8495	4586.25	3717.7
847.4052	934.8711	4604.35	3734.8
847.5504	936.892	4582.9	3714.5
847.6955	938.9123	4579.15	3710.55
847.8407	940.9318	4606	3736.4
847.9858	942.9506	4614	3745.6
848.131	944.9688	4592.05	3724.1
848.2761	946.9862	4535.45	3667.25
848.4213	949.003	4457.1	3588.95
848.5664	951.019	4451.4	3583.8
848.7115	953.0344	4386.1	3516.6
848.8567	955.0491	4392	3521.4
849.0018	957.063	4399.45	3529.8
849.147	959.0763	4409.3	3540.9
849.2921	961.0888	4432.85	3562.4
849.4373	963.1007	4442.8	3573
849.5824	965.1119	4445.85	3577.8
849.7275	967.1223	4428.4	3560.7
849.8727	969.1321	4411.55	3541.9
850.0178	971.1412	4408.75	3540.8
850.1629	973.1495	4396	3528.2
850.3081	975.1572	4430	3527.65
850.4532	977.1641	4382.15	3514.7
850.5983	979.1704	4378.6	3508.25
850.7435	981.1759	4373.9	3501.95
850.8886	983.1808	4372.15	3500.55
851.0337	985.1849	4375.15	3496.25
851.1788	987.1884	4381.6	3509.75
851.324	989.1911	4403.55	3529.65
851.4691	991.1932	4433	3560.35
851.6142	993.1945	4422.2	3551.05
851.7593	995.1951	4416.5	3547.05
851.9045	997.1951	4413.15	3537.2
852.0496	999.1943	4375.75	3506.1
852.1947	1001.1928	4373.55	3503.35
852.3398	1003.1906	4400.9	3529.65
852.4849	1005.1877	4451.2	3580.15
852.63	1007.1841	4489.25	3617.45
852.7751	1009.1798	4489.45	3617.3
852.9202	1011.1748	4478.85	3606.8
853.0653	1013.1691	4410.45	3537.3
853.2104	1015.1627	4337.85	3466.15
853.3555	1017.1556	4250.6	3380.45
853.5006	1019.1477	4209	3337.75
853.6457	1021.1392	4163	3294.15
853.7908	1023.1299	4140.35	3269.55
853.9359	1025.12	4151.3	3277.1
854.081	1027.1093	4166.4	3293.65
854.2261	1029.0979	4188.45	3317.05
854.3712	1031.0859	4220.5	3349.1
854.5163	1033.0731	4257.15	3384
854.6613	1035.0596	4245.5	3373.8
854.8064	1037.0454	4188.65	3316.85
854.9515	1039.0304	4142.65	3269.15
855.0965	1041.0148	4088.3	3216.65
855.2416	1042.9985	4064.8	3190.9
855.3867	1044.9814	4042.5	3172.35
855.5317	1046.9636	4015.2	3140.85
855.6768	1048.9452	4011.7	3142.35
855.8219	1050.926	4025.25	3154.35
855.9669	1052.9061	4038.55	3165.95
856.112	1054.8855	4040.05	3166.6
856.257	1056.8642	4055.1	3184.65
856.4021	1058.8421	4084.65	3207.85
856.5471	1060.8194	4070.95	3198.4
856.6921	1062.7959	4081.6	3210.6
856.8372	1064.7717	4096.5	3223.25
856.9822	1066.7469	4129.3	3255.6
857.1272	1068.7213	4143.55	3268.85
857.2723	1070.695	4176.35	3305.2
857.4173	1072.6679	4199.45	3325.75
857.5623	1074.6402	4207.55	3334
857.7073	1076.6117	4205.65	3326.9
857.8523	1078.5826	4153.85	3279.75
857.9973	1080.5527	4101.45	3225.7
858.1423	1082.5221	4045.95	3169.5
858.2873	1084.4908	4012.65	3137.8
858.4323	1086.4587	4008.9	3136.05
858.5773	1088.426	4027.8	3152.65
858.7223	1090.3925	4018.2	3139
858.8673	1092.3584	4036.45	3162.8
859.0123	1094.3235	4034.65	3161.5
859.1573	1096.2879	4062.5	3188.1
859.3022	1098.2515	4105.75	3232.15
859.4472	1100.2145	4175.05	3303.25
859.5922	1102.1767	4251.05	3376.15
859.7371	1104.1382	4324	3448.65
859.8821	1106.099	4428.1	3553.35
860.027	1108.0591	4505.85	3631.4
860.172	1110.0185	4560	3684.1
860.3169	1111.9771	4593.95	3719
860.4619	1113.9351	4589.7	3714.85
860.6068	1115.8923	4559.8	3684.65
860.7517	1117.8488	4513.5	3636.7
860.8967	1119.8045	4448.3	3573.2
861.0416	1121.7596	4373.5	3498.15
861.1865	1123.7139	4313.2	3439.3
861.3314	1125.6675	4259.8	3386
861.4763	1127.6204	4256.45	3380.3
861.6212	1129.5726	4260.75	3383.1
861.7661	1131.524	4236.1	3362.55
861.911	1133.4748	4190.7	3318.4
862.0559	1135.4248	4089.95	3213.95
862.2008	1137.3741	4028.55	3154.5
862.3457	1139.3226	3977.75	3100.45
862.4905	1141.2705	3953.45	3077.9
862.6354	1143.2176	3934.4	3053.1
862.7803	1145.164	3922.2	3045.05
862.9251	1147.1097	3877.9	3002.65
863.07	1149.0546	3847.7	2970.8
863.2148	1150.9989	3813.05	2935.15
863.3597	1152.9424	3762.6	2887.15
863.5045	1154.8852	3730.3	2856.1
863.6493	1156.8272	3716.45	2843.2
863.7942	1158.7686	3715.95	2834.15
863.939	1160.7092	3722.35	2848.45
864.0838	1162.6491	3730.35	2850.75
864.2286	1164.5883	3764.3	2888.75
864.3734	1166.5267	3812.65	2935.35
864.5182	1168.4644	3862	2986.8
864.663	1170.4014	3949.8	3067.75
864.8078	1172.3377	4025.75	3151.3
864.9526	1174.2732	4157	3282.65
865.0974	1176.2081	4300.2	3422.65
865.2421	1178.1421	4506.4	3624.55
865.3869	1180.0755	4704.4	3830.65
865.5317	1182.0082	4859.9	3982.85
865.6764	1183.9401	4919.9	4041.15
865.8212	1185.8713	4825.65	3951.25
865.9659	1187.8017	4669.6	3793.2
866.1106	1189.7315	4514	3637.2
866.2554	1191.6605	4366.65	3461.3
866.4001	1193.5888	4231.65	3356
866.5448	1195.5163	4167.95	3289.7
866.6895	1197.4432	4103.55	3227.55
866.8342	1199.3693	4074.6	3199.1
866.9789	1201.2947	4065.15	3180.65
867.1236	1203.2193	4041.9	3167.15
867.2683	1205.1432	4024.15	3145.7
867.413	1207.0664	4017.7	3139.85
867.5576	1208.9889	4027.25	3145.95
867.7023	1210.9106	4007.35	3128.7
867.847	1212.8316	4005.75	3129
867.9916	1214.7519	4037.6	3149.85
868.1363	1216.6715	4039.75	3163.7
868.2809	1218.5903	4072.6	3197.9
868.4255	1220.5084	4099.95	3221.35
868.5701	1222.4257	4140.9	3264.55
868.7148	1224.3424	4183.1	3306.1
868.8594	1226.2583	4224.45	3342
869.004	1228.1735	4304.05	3426.6
869.1486	1230.0879	4360.35	3482.95
869.2932	1232.0016	4431.4	3554.15
869.4377	1233.9146	4485.15	3607.1
869.5823	1235.8269	4516.2	3637.45
869.7269	1237.7384	4503.65	3626.3
869.8715	1239.6492	4456.8	3579.7
870.016	1241.5592	4461.65	3584.25
870.1606	1243.4686	4489.45	3612.95
870.3051	1245.3772	4577.65	3701.1
870.4496	1247.285	4676.7	3797.9
870.5941	1249.1922	4758.35	3880.05
870.7387	1251.0986	4858.25	3980.45
870.8832	1253.0042	4925.25	4048.1
871.0277	1254.9092	4991.3	4113.35
871.1722	1256.8134	5034.35	4159.7
871.3167	1258.7169	5095.7	4217.85
871.4611	1260.6196	5141.6	4264.8
871.6056	1262.5216	5206.2	4326.9
871.7501	1264.4229	5266.35	4389.35
871.8945	1266.3234	5324.5	4445.1
872.039	1268.2232	5351.15	4471.4
872.1834	1270.1223	5378.15	4497.45
872.3278	1272.0207	5364.75	4488.4
872.4723	1273.9183	5367.25	4484.25
872.6167	1275.8151	5332.9	4454.9
872.7611	1277.7113	5347.7	4468.3
872.9055	1279.6067	5392.7	4515.65
873.0499	1281.5014	5521.3	4641.45
873.1943	1283.3953	5729.35	4849.3
873.3386	1285.2885	5988.5	5110.75
873.483	1287.181	6215.5	5335.85
873.6274	1289.0727	6447	5569.2
873.7717	1290.9637	6606.45	5728.55
873.9161	1292.854	6677.05	5798.9
874.0604	1294.7435	6667	5785.4
874.2047	1296.6323	6588.35	5710.1
874.349	1298.5204	6478.2	5595.05
874.4933	1300.4077	6363.2	5484.2
874.6376	1302.2943	6185	5307.3
874.7819	1304.1802	6041	5164.15
874.9262	1306.0653	5856.15	4976.85
875.0705	1307.9497	5644.15	4763.15
875.2147	1309.8333	5483.05	4604.15
875.359	1311.7162	5351.05	4472.05
875.5032	1313.5984	5274.4	4393.75
875.6475	1315.4798	5220.05	4330.75
875.7917	1317.3605	5180.05	4283.95
875.9359	1319.2405	5128.55	4248.55
876.0801	1321.1197	5029.45	4148.65
876.2243	1322.9982	4890.4	4007.7
876.3685	1324.876	4778.1	3897.1
876.5127	1326.753	4626.6	3745.75
876.6569	1328.6293	4516.7	3634.7
876.801	1330.5048	4432.05	3550.7
876.9452	1332.3796	4350.25	3472.9
877.0893	1334.2537	4309.6	3404.35
877.2335	1336.127	4243.05	3363.25
877.3776	1337.9996	4214.8	3335.8
877.5217	1339.8714	4199.3	3320.9
877.6658	1341.7426	4217.45	3293.3
877.8099	1343.6129	4198.95	3318.9
877.954	1345.4826	4176.4	3297.55
878.0981	1347.3515	4165.35	3283.6
878.2422	1349.2196	4159.9	3280.35
878.3862	1351.087	4167.2	3285.9
878.5303	1352.9537	4170.45	3290.9
878.6743	1354.8197	4212	3333.35
878.8184	1356.6849	4271.15	3391.7
878.9624	1358.5493	4325.15	3445.6
879.1064	1360.4131	4417.65	3536.15
879.2504	1362.276	4493.75	3613.55
879.3944	1364.1383	4523.8	3644.95
879.5384	1365.9998	4484.3	3596.55
879.6823	1367.8606	4363.95	3483.2
879.8263	1369.7206	4233	3352.35
879.9702	1371.5799	4135	3251.85
880.1142	1373.4384	4043.1	3163.4
880.2581	1375.2962	3963.75	3083.45
880.402	1377.1533	3840.4	2961.4
880.5459	1379.0096	3718.45	2835.75
880.6898	1380.8652	3591.5	2712.4
880.8337	1382.7201	3497.45	2614.85
880.9776	1384.5742	3413.45	2533.55
881.1215	1386.4275	3342.1	2460.8
881.2653	1388.2802	3285.35	2405.2
881.4092	1390.132	3248.7	2368.05
881.553	1391.9832	3227.5	2345.7
881.6968	1393.8336	3209.2	2327.55
881.8406	1395.6832	3177.4	2295.5
881.9844	1397.5322	3173.55	2294.75
882.1282	1399.3803	3157.65	2272.3
882.272	1401.2278	3134.5	2254.75
882.4158	1403.0745	3131.95	2251.05
882.5595	1404.9204	3116.15	2236.7
882.7033	1406.7656	3126.75	2245.5
882.847	1408.6101	3111.4	2231.85
882.9908	1410.4538	3117.05	2235.35
883.1345	1412.2968	3133.5	2252
883.2782	1414.139	3153.55	2273.45
883.4219	1415.9805	3171.5	2290.8
883.5656	1417.8213	3188.8	2302.35
883.7092	1419.6613	3237.85	2359.15
883.8529	1421.5006	3291.55	2409.45
883.9965	1423.3391	3382.7	2503.15
884.1402	1425.1769	3472.95	2593.2
884.2838	1427.0139	3631.1	2750.1
884.4274	1428.8502	3823.55	2942.95
884.571	1430.6858	4020.2	3138.8
884.7146	1432.5206	4148.85	3268
884.8582	1434.3547	4212.2	3331.35
885.0018	1436.188	4199.4	3319
885.1453	1438.0206	4185.3	3305.9
885.2889	1439.8524	4129.9	3248.95
885.4324	1441.6835	4085.4	3205.1
885.5759	1443.5139	4059.6	3175.95
885.7194	1445.3435	4035.75	3154.3
885.8629	1447.1724	4028.25	3147.45
886.0064	1449.0005	4007.15	3125.75
886.1499	1450.8279	3997.8	3114.7
886.2933	1452.6545	3967.3	3087
886.4368	1454.4804	3993.25	3112.55
886.5802	1456.3056	3997.25	3108.35
886.7237	1458.13	3972.75	3091.3
886.8671	1459.9536	3908.7	3026.75
887.0105	1461.7766	3818.15	2937.55
887.1539	1463.5987	3707.35	2823.5
887.2972	1465.4202	3595.15	2712.4
887.4406	1467.2409	3477.9	2595.8
887.584	1469.0608	3380.85	2500.35
887.7273	1470.88	3271.9	2391.35
887.8706	1472.6984	3192.95	2314.3
888.0139	1474.5161	3128.7	2243.45
888.1572	1476.3331	3068.6	2187.1
888.3005	1478.1493	3038.6	2157
888.4438	1479.9648	3014.65	2133.7
888.5871	1481.7795	2998.05	2117.15
888.7303	1483.5935	2979.15	2097.55
888.8736	1485.4067	2961.2	2079.85
889.0168	1487.2192	2957.7	2076.2
889.16	1489.031	2926.75	2043.1
889.3032	1490.842	2925.15	2046
889.4464	1492.6522	2910.35	2030.4
889.5896	1494.4618	2893.25	2011.85
889.7327	1496.2705	2891.2	2009.65
889.8759	1498.0785	2874.95	1992.55
890.019	1499.8858	2848.9	1965.25
890.1622	1501.6924	2845.05	1962.75
890.3053	1503.4981	2833.45	1952.4
890.4484	1505.3032	2815.8	1933.9
890.5914	1507.1075	2803.1	1921.7
890.7345	1508.911	2780.05	1899.6
890.8776	1510.7138	2773.65	1893.8
891.0206	1512.5159	2760.95	1880.85
891.1637	1514.3172	2740.85	1859.25
891.3067	1516.1178	2720.4	1840.4
891.4497	1517.9176	2710.85	1826.2
891.5927	1519.7166	2695.05	1815.2
891.7357	1521.515	2683.15	1796.55
891.8786	1523.3126	2682.55	1802.5
892.0216	1525.1094	2676.3	1791.4
892.1645	1526.9055	2673.35	1794.05
892.3074	1528.7008	2670.55	1786.95
892.4503	1530.4954	2646.35	1759.95
892.5932	1532.2893	2649.95	1770.45
892.7361	1534.0824	2644.1	1758.5
892.879	1535.8747	2634.75	1754.3
893.0218	1537.6663	2635.25	1754.05
893.1647	1539.4572	2631.7	1749.05
893.3075	1541.2473	2624.75	1741.8
893.4503	1543.0367	2635.9	1754.45
893.5931	1544.8253	2631.6	1746.9
893.7359	1546.6132	2638.95	1753.75
893.8787	1548.4003	2654.15	1764.05
894.0214	1550.1867	2664.55	1775.85
894.1642	1551.9723	2695	1809.35
894.3069	1553.7572	2730.7	1849.25
894.4496	1555.5414	2772.5	1891.85
894.5923	1557.3247	2823	1942.05
894.735	1559.1074	2887.75	2006.85
894.8777	1560.8893	2951.2	2071.1
895.0204	1562.6705	3027.15	2146.35
895.163	1564.4509	3075.15	2194.35
895.3056	1566.2305	3110.05	2229.45
895.4482	1568.0094	3125.8	2245.05
895.5908	1569.7876	3130.55	2249.15
895.7334	1571.565	3134.6	2253.05
895.876	1573.3417	3117.25	2235.3
896.0186	1575.1176	3113.75	2234.75
896.1611	1576.8928	3117.85	2235.85
896.3036	1578.6672	3150.55	2269.15
896.4461	1580.4409	3163.5	2283.1
896.5886	1582.2138	3193.7	2311.1
896.7311	1583.986	3235.2	2351.9
896.8736	1585.7575	3275.95	2395
897.0161	1587.5282	3314.75	2433.8
897.1585	1589.2981	3365.8	2483.5
897.3009	1591.0673	3396.5	2516
897.4433	1592.8358	3444.45	2564.55
897.5857	1594.6035	3484.9	2602.35
897.7281	1596.3704	3484.1	2603.4
897.8705	1598.1366	3517.85	2638.45
898.0128	1599.9021	3536.95	2653.7
898.1551	1601.6668	3555.6	2671.9
898.2975	1603.4308	3585.75	2705.35
898.4398	1605.194	3634.75	2748.15
898.5821	1606.9564	3705.55	2824.1
898.7243	1608.7182	3812.75	2928.4
898.8666	1610.4791	3934.05	3052.05
899.0088	1612.2394	4056.9	3175.95
899.1511	1613.9988	4209.5	3328.5
899.2933	1615.7576	4325.85	3445.1
899.4355	1617.5156	4422.4	3536.2
899.5776	1619.2728	4439.6	3559.3
899.7198	1621.0293	4371.15	3490.9
899.862	1622.785	4280.75	3394
900.0041	1624.54	4111.65	3225.05
900.1462	1626.2942	3952.95	3070.05
900.2883	1628.0477	3782.75	2897.8
900.4304	1629.8005	3622.65	2738.3
900.5725	1631.5525	3472.75	2591.85
900.7145	1633.3037	3355.2	2472.3
900.8566	1635.0542	3253	2373.4
900.9986	1636.804	3174.1	2291.65
901.1406	1638.553	3153.1	2227.2
901.2826	1640.3013	3088.6	2208.45
901.4245	1642.0488	3043.1	2161.9
901.5665	1643.7955	3027.75	2147.25
901.7085	1645.5416	3047.9	2164.7
901.8504	1647.2868	3059	2179.1
901.9923	1649.0313	3094.85	2214.95
902.1342	1650.7751	3133.15	2248.3
902.2761	1652.5181	3157.35	2276
902.4179	1654.2604	3201.65	2320.5
902.5598	1656.0019	3274.25	2393.85
902.7016	1657.7427	3346.45	2464.8
902.8434	1659.4828	3439.3	2558.65
902.9852	1661.222	3511.35	2629.2
903.127	1662.9606	3540.15	2659.85
903.2687	1664.6984	3456.75	2574.15
903.4105	1666.4354	3334.5	2452.15
903.5522	1668.1717	3152.15	2272.25
903.6939	1669.9072	2968.9	2088.75
903.8356	1671.642	2821.85	1937.9
903.9773	1673.3761	2696.15	1816.2
904.119	1675.1094	2587.35	1706.55
904.2606	1676.8419	2520.4	1638.55
904.4022	1678.5737	2445.5	1563.7
904.5439	1680.3048	2401.95	1521.85
904.6855	1682.0351	2353.8	1472.1
904.827	1683.7646	2324.25	1438.3
904.9686	1685.4934	2290.7	1413.25
905.1101	1687.2215	2277.9	1394.75
905.2517	1688.9488	2258.9	1380.5
905.3932	1690.6754	2232.45	1351.7
905.5347	1692.4012	2224.8	1343.15
905.6761	1694.1263	2206.1	1325.1
905.8176	1695.8506	2186.8	1305.6
905.9591	1697.5742	2181.05	1300.75
906.1005	1699.297	2160.75	1280.1
906.2419	1701.0191	2147.25	1266.25
906.3833	1702.7404	2149.75	1269.2
906.5246	1704.461	2127.25	1245.2
906.666	1706.1808	2125.2	1243.7
906.8073	1707.8999	2107.45	1224.55
906.9487	1709.6182	2098.15	1216.2
907.09	1711.3358	2098.5	1215.6
907.2313	1713.0527	2086.35	1206.8
907.3725	1714.7688	2080.3	1195.05
907.5138	1716.4841	2078.35	1195.35
907.655	1718.1987	2075.15	1189.65
907.7962	1719.9126	2062.05	1180.45
907.9374	1721.6257	2055.15	1170.65
908.0786	1723.338	2051.75	1168.3
908.2198	1725.0496	2044.45	1162.05
908.3609	1726.7605	2045.9	1162.8
908.502	1728.4706	2042.85	1161.9
908.6431	1730.18	2029.65	1144.5
908.7842	1731.8886	2020.9	1140.8
908.9253	1733.5964	2023.55	1135.7
909.0664	1735.3036	2023.4	1140.55
909.2074	1737.0099	2013.5	1133.05
909.3484	1738.7156	2004.1	1123.3
909.4894	1740.4204	1987.5	1102.2
909.6304	1742.1246	1993.9	1109.65
909.7714	1743.8279	1984.95	1104.25
909.9123	1745.5306	1976.85	1094.25
910.0532	1747.2325	1974.05	1091.95
910.1941	1748.9336	1971.55	1092
910.335	1750.634	1963.15	1080.2
910.4759	1752.3336	1959.65	1077.7
910.6168	1754.0325	1945.5	1066.2
910.7576	1755.7307	1958.05	1077.55
910.8984	1757.4281	1954.4	1073
911.0392	1759.1247	1953.1	1064.05
911.18	1760.8206	1950.2	1063.3
911.3208	1762.5158	1950.6	1067.5
911.4615	1764.2102	1940.2	1060.5
911.6022	1765.9039	1933.2	1050.8
911.7429	1767.5968	1933.65	1052.5
911.8836	1769.289	1932.1	1049.3
912.0243	1770.9804	1920.25	1038.25
912.1649	1772.6711	1931.4	1049.25
912.3056	1774.361	1920.75	1038.1
912.4462	1776.0502	1913.2	1033.55
912.5868	1777.7386	1918.7	1033.1
912.7274	1779.4263	1916.6	1035.8
912.8679	1781.1132	1909.45	1028.3
913.0084	1782.7994	1913.85	1028.35
913.149	1784.4849	1905.15	1025.45
913.2895	1786.1696	1910.95	1009.2
913.4299	1787.8535	1910.95	1031.1
913.5704	1789.5367	1895.95	1014.05
913.7108	1791.2192	1887.3	1005
913.8513	1792.9009	1903.95	1009.25
913.9917	1794.5818	1887.55	1004.55
914.132	1796.2621	1881.3	1003.5
914.2724	1797.9415	1872.65	989.8
914.4128	1799.6202	1880	999.05
914.5531	1801.2982	1877.1	996.55
914.6934	1802.9755	1878.55	996.25
914.8337	1804.6519	1872.4	992.6
914.9739	1806.3277	1871.9	990.9
915.1142	1808.0027	1862.25	982.05
915.2544	1809.6769	1868.55	988.6
915.3946	1811.3504	1859.3	975.5
915.5348	1813.0231	1855.55	973.95
915.675	1814.6951	1848.5	967.8
915.8151	1816.3664	1858.95	974.2
915.9553	1818.0369	1852.75	970.9
916.0954	1819.7067	1847.35	964
916.2355	1821.3757	1845.5	961.3
916.3755	1823.044	1843	962.6
916.5156	1824.7115	1842.8	961.25
916.6556	1826.3783	1841.4	961.65
916.7956	1828.0443	1834.8	954.55
916.9356	1829.7096	1835.55	952.8
917.0756	1831.3741	1835.25	951.7
917.2155	1833.0379	1827.65	946.65
917.3555	1834.701	1829.05	945.75
917.4954	1836.3633	1818.25	936.5
917.6353	1838.0248	1828.9	944.4
917.7751	1839.6856	1825.85	943.2
917.915	1841.3457	1820	938.3
918.0548	1843.005	1816.15	935.3
918.1946	1844.6636	1812.3	932.6
918.3344	1846.3214	1828.45	948.1
918.4742	1847.9785	1813.45	934
918.6139	1849.6349	1809.3	927.7
918.7537	1851.2904	1824.55	935.05
918.8934	1852.9453	1804.6	924.75
919.0331	1854.5994	1808.25	925.15
919.1727	1856.2528	1804.55	916.95
919.3124	1857.9054	1798.8	917.85
919.452	1859.5572	1800.45	920.1
919.5916	1861.2083	1796.95	914.15
919.7312	1862.8587	1792.65	909.65
919.8708	1864.5084	1791.3	910.95
920.0103	1866.1572	1790.9	911.1
920.1498	1867.8054	1784.4	903.25
920.2893	1869.4528	1795	914.6
920.4288	1871.0994	1785.35	904.4
920.5683	1872.7453	1780.05	897.65
920.7077	1874.3905	1794	894.15
920.8471	1876.0349	1777.2	894.45
920.9865	1877.6786	1780.55	895.1
921.1259	1879.3215	1778.55	898.75
921.2653	1880.9637	1782.05	899.15
921.4046	1882.6051	1772	890.05
921.5439	1884.2458	1774.3	890.9
921.6832	1885.8858	1768.05	887.75
921.8225	1887.525	1774.25	892.15
921.9617	1889.1634	1766.55	885.6
922.101	1890.8011	1753.35	871.8
922.2402	1892.4381	1759.2	877.5
922.3794	1894.0743	1749.05	868.2
922.5185	1895.7098	1749.8	869.35
922.6577	1897.3446	1754.75	872.7
922.7968	1898.9786	1749.35	866.15
922.9359	1900.6118	1742.85	862.05
923.075	1902.2443	1726.8	846.3
923.214	1903.8761	1734.85	853.65
923.3531	1905.5071	1741.2	858.05
923.4921	1907.1374	1733.35	850.15
923.6311	1908.7669	1736.45	854.7
923.77	1910.3957	1719.7	837.65
923.909	1912.0237	1721.9	840.35
924.0479	1913.651	1725.85	843.2
924.1868	1915.2776	1708.25	828.8
924.3257	1916.9034	1711.45	828.8
924.4646	1918.5285	1708.5	830.05
924.6034	1920.1528	1710.9	828.6
924.7422	1921.7764	1708.9	828.45
924.881	1923.3992	1709.1	829.6
925.0198	1925.0213	1698.5	816.4
925.1586	1926.6427	1693.35	814.15
925.2973	1928.2633	1794	804.95
925.436	1929.8832	1699.2	816.25
925.5747	1931.5023	1688.15	807
925.7134	1933.1207	1686.75	805.5
925.852	1934.7383	1691.05	808.9
925.9906	1936.3552	1673.7	793.25
926.1292	1937.9714	1690.8	810.4
926.2678	1939.5868	1682.85	798.95
926.4064	1941.2015	1681.25	798.95
926.5449	1942.8154	1670.1	790.05
926.6834	1944.4286	1670.2	788.2
926.8219	1946.041	1691.35	787.7
926.9604	1947.6528	1664.6	778.5
927.0988	1949.2637	1665.4	785.3
927.2372	1950.8739	1656.6	771.8
927.3756	1952.4834	1663.5	781.75
927.514	1954.0921	1647.8	765.95
927.6523	1955.7001	1652.3	767.25
927.7907	1957.3074	1643.05	762.8
927.929	1958.9139	1655.85	774.7
928.0673	1960.5197	1641.2	758.95
928.2055	1962.1247	1640.55	758.65
928.3438	1963.729	1638.8	759.9
928.482	1965.3325	1657.7	750.5
928.6202	1966.9353	1633.6	751.45
928.7584	1968.5374	1634.55	751.8
928.8965	1970.1387	1622.7	742
929.0346	1971.7393	1623.2	740.15
929.1727	1973.3392	1619.4	735.4
929.3108	1974.9383	1617.7	736.45
929.4489	1976.5366	1617.75	736
929.5869	1978.1342	1613.1	731.25
929.7249	1979.7311	1607.1	724.45
929.8629	1981.3273	1613.25	729.8
930.0009	1982.9227	1605.1	720.15
930.1388	1984.5173	1605.4	723.45
930.2767	1986.1112	1600.3	719.2
930.4146	1987.7044	1603.75	721.25
930.5525	1989.2968	1603.95	720.95
930.6904	1990.8885	1607.25	720.95
930.8282	1992.4795	1602.15	716.95
930.966	1994.0697	1601.6	719.05
931.1038	1995.6592	1598.6	716.15
931.2415	1997.2479	1596.9	715.8
931.3793	1998.8359	1595.3	714.1
931.517	2000.4232	1592.25	709.65
931.6547	2002.0097	1584.9	702.9
931.7923	2003.5955	1584.95	700.5
931.93	2005.1805	1579.95	696.95
932.0676	2006.7648	1583.05	701.5
932.2052	2008.3484	1579.4	696.05
932.3427	2009.9312	1587.85	703.5
932.4803	2011.5133	1576.15	694.25
932.6178	2013.0946	1574.3	692.3
932.7553	2014.6752	1570.35	691.35
932.8928	2016.2551	1565.1	684.45
933.0302	2017.8342	1565.6	685.3
933.1676	2019.4126	1559.7	678.2
933.305	2020.9902	1564.55	684
933.4424	2022.5672	1568.7	685.25
933.5798	2024.1433	1564.7	675.1
933.7171	2025.7188	1561.55	680.6
933.8544	2027.2935	1553.85	670.2
933.9917	2028.8674	1558.8	677.9
934.129	2030.4406	1557.55	675.55
934.2662	2032.0131	1542.45	663.05
934.4034	2033.5849	1551.65	664.4
934.5406	2035.1559	1550.6	670.2
934.6778	2036.7261	1540.75	658.9
934.8149	2038.2957	1546.7	667.3
934.952	2039.8645	1548.3	666.55
935.0891	2041.4325	1538.6	655.05
935.2262	2042.9998	1540.7	659.05
935.3632	2044.5664	1543.1	660.95
935.5002	2046.1323	1544.2	661.35
935.6372	2047.6974	1537.65	654.65
935.7742	2049.2617	1529.3	646.65
935.9111	2050.8254	1568.7	651.35
936.048	2052.3883	1535.9	654.8
936.1849	2053.9504	1530.95	647.3
936.3218	2055.5118	1527.4	644.6
936.4586	2057.0725	1525.4	641
936.5955	2058.6325	1528.1	646.05
936.7323	2060.1917	1523.5	641.6
936.869	2061.7502	1525.65	640.85
937.0058	2063.3079	1521.55	639.4
937.1425	2064.8649	1514.1	628.1
937.2792	2066.4212	1517.45	635.15
937.4159	2067.9767	1508.5	628.65
937.5525	2069.5315	1507.9	626.65
937.6891	2071.0856	1504.6	621.9
937.8257	2072.6389	1508.55	624.25
937.9623	2074.1915	1497.15	616.2
938.0989	2075.7433	1499.8	617.15
938.2354	2077.2945	1497.15	615.8
938.3719	2078.8448	1498.45	615.3
938.5084	2080.3945	1490.25	609.75
938.6448	2081.9434	1498.45	616.75
938.7812	2083.4916	1498.9	618.15
938.9176	2085.039	1494.45	610.5
939.054	2086.5857	1494.75	611.55
939.1903	2088.1317	1490.3	609
939.3267	2089.677	1485.45	605.15
939.463	2091.2215	1486.7	606.65
939.5992	2092.7652	1483.9	600.4
939.7355	2094.3083	1485.2	604.4
939.8717	2095.8506	1487.15	605.4
940.0079	2097.3921	1475.85	595.1
940.1441	2098.933	1478.05	596.6
940.2802	2100.4731	1475.2	592.35
940.4163	2102.0124	1491.05	590.15
940.5524	2103.5511	1478.15	595.55
940.6885	2105.089	1470.65	587.1
940.8245	2106.6261	1475.8	594.55
940.9606	2108.1626	1473.65	589.65
941.0965	2109.6983	1501.25	591.2
941.2325	2111.2332	1474.05	591.65
941.3684	2112.7675	1466.35	582.5
941.5044	2114.301	1463.5	579.95
941.6403	2115.8337	1464.5	581.6
941.7761	2117.3657	1467.2	584.95
941.912	2118.897	1466.55	581
942.0478	2120.4276	1469.7	581.8
942.1835	2121.9575	1459.35	577.5
942.3193	2123.4866	1472.8	576
942.455	2125.0149	1455.7	572.05
942.5907	2126.5426	1450.85	568.65
942.7264	2128.0695	1453.2	568.75
942.8621	2129.5956	1451.15	571.05
942.9977	2131.1211	1453.1	566.75
943.1333	2132.6458	1449.7	566.8
943.2689	2134.1698	1455.55	572.95
943.4044	2135.693	1449.45	564.65
943.54	2137.2155	1448.65	564.85
943.6755	2138.7373	1440.35	556.8
943.8109	2140.2584	1440.8	559.2
943.9464	2141.7787	1446.25	558.4
944.0818	2143.2983	1432.3	551.2
944.2172	2144.8171	1430.95	551.7
944.3526	2146.3353	1440.45	554.95
944.4879	2147.8527	1431.45	550.1
944.6232	2149.3693	1437.45	554.05
944.7585	2150.8853	1433.7	549.6
944.8938	2152.4005	1426.75	544.3
945.029	2153.9149	1431.25	548
945.1642	2155.4287	1418.3	534.8
945.2994	2156.9417	1428.15	545.7
945.4346	2158.454	1425.15	539
945.5697	2159.9655	1423	540.8
945.7048	2161.4764	1425.1	542.7
945.8399	2162.9865	1417.6	533.3
945.9749	2164.4958	1414.55	532.35
946.1099	2166.0045	1411.55	524.15
946.2449	2167.5124	1413	531.95
946.3799	2169.0195	1417.5	534.35
946.5148	2170.526	1417	534.85
946.6498	2172.0317	1401.1	520.05
946.7846	2173.5367	1407.05	525.5
946.9195	2175.0409	1402.25	521.9
947.0543	2176.5445	1402.65	521.9
947.1891	2178.0473	1402.45	518.95
947.3239	2179.5494	1409.05	522.1
947.4587	2181.0507	1399.35	514.45
947.5934	2182.5513	1401	519.9
947.7281	2184.0512	1398.1	516.35
947.8628	2185.5504	1397.4	516.3
947.9974	2187.0488	1399.8	517.65
948.132	2188.5465	1393.6	512.3
948.2666	2190.0435	1401.45	519.8
948.4012	2191.5397	1390.6	510.35
948.5357	2193.0353	1389.25	508.1
948.6702	2194.5301	1389.65	507.3
948.8047	2196.0241	1389	507.7
948.9392	2197.5175	1384.75	504.9
949.0736	2199.0101	1385	499.15
949.208	2200.502	1379.05	497.5
949.3424	2201.9931	1383.95	500.6
949.4767	2203.4835	1379.4	495.2
949.611	2204.9733	1383.2	493.45
949.7453	2206.4622	1371.2	489
949.8796	2207.9505	1378.85	492.5
950.0138	2209.438	1368.9	487
950.148	2210.9248	1374	489.8
950.2822	2212.4109	1370.45	489.35
950.4164	2213.8962	1366.25	480.6
950.5505	2215.3809	1368.65	488.2
950.6846	2216.8648	1370.95	487.85
950.8186	2218.3479	1364.95	478.55
950.9527	2219.8304	1360	476.35
951.0867	2221.3121	1364.7	481.15
951.2207	2222.7931	1360.75	478.1
951.3546	2224.2733	1360.45	479.5
951.4886	2225.7529	1353.9	470.4
951.6225	2227.2317	1355.85	472.15
951.7563	2228.7098	1357.2	475.45
951.8902	2230.1872	1351	467.7
952.024	2231.6638	1351.55	467.3
952.1578	2233.1397	1357.3	469.15
952.2916	2234.6149	1343.65	462.25
952.4253	2236.0894	1355.7	472.85
952.559	2237.5632	1361.45	468.45
952.6927	2239.0362	1344.75	462.25
952.8263	2240.5085	1341.5	458.9
952.9599	2241.9801	1339.35	455.25
953.0935	2243.4509	1345.05	465.6
953.2271	2244.921	1336.4	452.55
953.3606	2246.3904	1331.9	448.35
953.4941	2247.8591	1330.1	449.45
953.6276	2249.3271	1327.55	445.2
953.7611	2250.7943	1329	445.15
953.8945	2252.2608	1325.5	442.1
954.0279	2253.7266	1322.6	442.95
954.1612	2255.1917	1326.45	444
954.2946	2256.656	1326.3	441.55
954.4279	2258.1197	1321.45	440.85
954.5612	2259.5826	1325.25	441.25
954.6944	2261.0447	1324.05	440.35
954.8276	2262.5062	1322.75	436.45
954.9608	2263.9669	1321	436.25
955.094	2265.4269	1319.65	437.75
955.2271	2266.8862	1319.7	436.25
955.3602	2268.3448	1313.65	431.75
955.4933	2269.8026	1316.9	433.85
955.6264	2271.2598	1318.4	435.95
955.7594	2272.7162	1310.5	429.75
955.8924	2274.1719	1309.5	427.25
956.0253	2275.6268	1310.3	429
956.1583	2277.0811	1312.5	428.25
956.2912	2278.5346	1303.1	422.65
956.4241	2279.9874	1308.05	425.35
956.5569	2281.4395	1306.35	424.05
956.6897	2282.8908	1312.2	424.7
956.8225	2284.3414	1310.35	427.05
956.9553	2285.7914	1301.95	420.25
957.088	2287.2406	1306	419.75
957.2207	2288.689	1297.5	415.35
957.3534	2290.1368	1298.75	416.35
957.486	2291.5838	1301.6	417.85
957.6186	2293.0302	1298.95	415.25
957.7512	2294.4758	1299.7	418.95
957.8838	2295.9206	1300.8	416.9
958.0163	2297.3648	1294.95	413.95
958.1488	2298.8082	1294.45	412.5
958.2813	2300.251	1292.05	409.3
958.4137	2301.693	1299.2	414.3
958.5461	2303.1343	1296.6	415.2
958.6785	2304.5748	1287.6	407.05
958.8108	2306.0147	1294.45	412.05
958.9432	2307.4538	1296.3	411.4
959.0754	2308.8922	1288.55	407.6
959.2077	2310.3299	1287.1	404.4
959.3399	2311.7669	1283.5	401.4
959.4721	2313.2031	1291.55	407.85
959.6043	2314.6387	1280.15	399.45
959.7365	2316.0735	1280.9	398.95
959.8686	2317.5076	1282.2	399.95
960.0006	2318.941	1278.35	396.7
960.1327	2320.3737	1283.65	401.75
960.2647	2321.8056	1274.35	389.9
960.3967	2323.2369	1277.15	393.6
960.5287	2324.6674	1278.5	393.4
960.6606	2326.0972	1276.35	391.1
960.7925	2327.5263	1271.3	388.6
960.9244	2328.9547	1272.45	388.9
961.0562	2330.3823	1274.65	391.9
961.1881	2331.8092	1275.95	392.4
961.3198	2333.2355	1269.9	388.35
961.4516	2334.661	1267.1	383.5
961.5833	2336.0858	1271.15	386.75
961.715	2337.5098	1268.85	387.5
961.8467	2338.9332	1262.5	379.35
961.9783	2340.3558	1266	379.45
962.1099	2341.7778	1265.05	383.45
962.2415	2343.199	1261.45	376.8
962.373	2344.6195	1264.3	382.3
962.5045	2346.0393	1262.25	382
962.636	2347.4583	1254	372.15
962.7675	2348.8767	1258.55	374.7
962.8989	2350.2943	1259.65	377.95
963.0303	2351.7113	1258.4	374.7
963.1617	2353.1275	1251.3	368.95
963.293	2354.543	1265.5	375.25
963.4243	2355.9578	1248.5	364.75
963.5556	2357.3718	1252.2	370.85
963.6868	2358.7852	1253.85	367.25
963.818	2360.1978	1247.4	363.6
963.9492	2361.6098	1253.45	371.9
964.0803	2363.021	1251.95	367.8
964.2114	2364.4315	1246.7	367.2
964.3425	2365.8413	1249.25	365.25
964.4736	2367.2504	1240.4	359.1
964.6046	2368.6587	1245.25	362.9
964.7356	2370.0664	1243.3	361.85
964.8666	2371.4733	1237.1	354.5
964.9975	2372.8795	1245.3	363.75
965.1284	2374.285	1236.9	354.4
965.2593	2375.6899	1228.95	345.45
965.3901	2377.0939	1237.85	357.3
965.5209	2378.4973	1235.15	353.6
965.6517	2379.9	1234.7	351.25
965.7825	2381.3019	1229.6	346.8
965.9132	2382.7032	1233.6	351.5
966.0439	2384.1037	1225.9	345.35
966.1745	2385.5035	1230.4	347.3
966.3051	2386.9027	1227	345.75
966.4357	2388.3011	1232	346.25
966.5663	2389.6987	1227.1	343.25
966.6968	2391.0957	1228.1	345.45
966.8273	2392.492	1222.1	339.7
966.9578	2393.8876	1221.25	338.7
967.0882	2395.2824	1221.75	339.75
967.2186	2396.6765	1223.7	341.8
967.349	2398.07	1217.25	334.35
967.4793	2399.4627	1222.8	338.05
967.6097	2400.8547	1215.2	332.95
967.7399	2402.246	1221.65	333.65
967.8702	2403.6366	1216.65	336.05
968.0004	2405.0265	1208.25	329.05
968.1306	2406.4156	1208.7	321.55
968.2607	2407.8041	1208.2	323.1
968.3909	2409.1918	1207.2	322.35
968.521	2410.5789	1205.65	323.8
968.651	2411.9652	1210.45	323.75
968.781	2413.3508	1206.45	324.5
968.911	2414.7358	1203.1	320.85
969.041	2416.12	1201.95	319.55
969.1709	2417.5035	1203.9	322
969.3008	2418.8863	1199.9	315.75
969.4307	2420.2684	1199.9	319.1
969.5606	2421.6497	1201.45	316.95
969.6904	2423.0304	1191.85	311.1
969.8201	2424.4104	1194.05	311.1
969.9499	2425.7896	1203.95	316.1
970.0796	2427.1682	1201.6	318.2
970.2093	2428.546	1198.55	315.75
970.3389	2429.9232	1194.65	311.5
970.4685	2431.2996	1194.65	313.4
970.5981	2432.6753	1193.8	311.25
970.7277	2434.0503	1193.9	312.55
970.8572	2435.4246	1194.1	312.35
970.9867	2436.7982	1197.25	313.6
971.1161	2438.1711	1189	309.6
971.2456	2439.5433	1194.3	310.65
971.375	2440.9148	1197.95	310.95
971.5043	2442.2856	1184.15	304.1
971.6336	2443.6557	1183.4	300.5
971.7629	2445.025	1185.35	304.15
971.8922	2446.3937	1183.2	299.85
972.0214	2447.7617	1177.6	294.55
972.1506	2449.1289	1180.7	298.8
972.2798	2450.4955	1186.5	301.2
972.4089	2451.8613	1173	291.05
972.538	2453.2265	1181.65	299.65
972.6671	2454.5909	1180.9	296.65
972.7961	2455.9546	1179	298.5
972.9251	2457.3177	1179.5	297.75
973.0541	2458.68	1174.6	291.1
973.1831	2460.0416	1172.4	289.8
973.312	2461.4025	1175.9	292.2
973.4408	2462.7627	1187.8	294.75
973.5697	2464.1222	1179.85	299.45
973.6985	2465.4811	1181.25	294.7
973.8273	2466.8392	1165.15	283
973.956	2468.1966	1177.65	292.55
974.0847	2469.5533	1174.85	290.4
974.2134	2470.9093	1173.2	290.25
974.3421	2472.2645	1165.45	282.5
974.4707	2473.6191	1170.25	288.95
974.5993	2474.973	1170.8	287.7
974.7278	2476.3262	1172.8	291.1
974.8563	2477.6787	1164.95	284.1
974.9848	2479.0305	1162.75	280.85
975.1132	2480.3816	1168.15	284.1
975.2417	2481.7319	1169.7	285.9
975.37	2483.0816	1170.8	286.1
975.4984	2484.4306	1163.9	282.5
975.6267	2485.7789	1167.25	287.25
975.755	2487.1264	1164.95	278.15
975.8833	2488.4733	1155.55	274.4
976.0115	2489.8195	1174.3	275.75
976.1397	2491.165	1160.95	276.7
976.2678	2492.5097	1161.45	276.65
976.3959	2493.8538	1157.1	274.9
976.524	2495.1972	1161.35	277.65
976.6521	2496.5398	1157.6	274.95
976.7801	2497.8818	1158.1	274.35
976.9081	2499.2231	1156	272.3
977.036	2500.5637	1153.6	269.35
977.164	2501.9035	1152.45	269.75
977.2918	2503.2427	1154.85	268
977.4197	2504.5812	1151.5	270.1
977.5475	2505.919	1157.8	274.8
977.6753	2507.256	1151.65	269.95
977.8031	2508.5924	1151.1	269.15
977.9308	2509.9281	1156.7	268.25
978.0585	2511.2631	1142.45	260.6
978.1861	2512.5974	1151.05	269.05
978.3137	2513.9309	1145.55	263.45
978.4413	2515.2638	1175.75	263.35
978.5689	2516.596	1146.6	265.8
978.6964	2517.9275	1145.05	262.4
978.8239	2519.2583	1145.3	259.75
978.9513	2520.5884	1145.2	261.5
979.0788	2521.9178	1146.55	263.95
979.2062	2523.2465	1142.9	261.25
979.3335	2524.5745	1140.05	255.55
979.4608	2525.9018	1136.05	253.05
979.5881	2527.2284	1140.35	257.5
979.7154	2528.5543	1140.25	260.7
979.8426	2529.8796	1135.95	253.5
979.9698	2531.2041	1137.25	256.75
980.0969	2532.5279	1136.9	257.15
980.224	2533.851	1134.4	251.2
980.3511	2535.1735	1144.9	263.4
980.4781	2536.4952	1135.2	251.3
980.6052	2537.8163	1136.7	252.8
980.7321	2539.1366	1138.2	256.65
980.8591	2540.4562	1138.7	255.5
980.986	2541.7752	1138.35	256.85
981.1129	2543.0935	1137.7	255
981.2397	2544.411	1131.8	248.7
981.3665	2545.7279	1134.1	253.85
981.4933	2547.0441	1134.45	253.85
981.62	2548.3596	1138.25	254.55
981.7467	2549.6744	1127.95	244.85
981.8734	2550.9885	1127.9	244.25
982.0001	2552.3019	1125.75	242.55
982.1267	2553.6146	1124.45	241.65
982.2532	2554.9266	1133.5	250.9
982.3798	2556.2379	1130.7	247.7
982.5063	2557.5485	1128.45	248.65
982.6327	2558.8585	1136.05	246.15
982.7592	2560.1677	1133.1	248.25
982.8856	2561.4762	1124.2	242.85
983.0119	2562.7841	1130.75	244.5
983.1383	2564.0913	1132	251.3
983.2646	2565.3977	1127	244.4
983.3908	2566.7035	1127	243.65
983.517	2568.0086	1125.65	241
983.6432	2569.313	1121.6	239.05
983.7694	2570.6167	1129.4	244.45
983.8955	2571.9197	1126.7	243.9
984.0216	2573.222	1129.95	246.95
984.1476	2574.5236	1120.5	237.2
984.2737	2575.8246	1126.1	241.1
984.3996	2577.1248	1127	242.5
984.5256	2578.4244	1119.05	236.8
984.6515	2579.7232	1120.15	237.95
984.7774	2581.0214	1152.15	239.45
984.9032	2582.3189	1122.55	240.15
985.029	2583.6157	1124.35	238.15
985.1548	2584.9118	1119.25	236.2
985.2806	2586.2072	1121.3	239.8
985.4063	2587.5019	1115.45	234
985.5319	2588.7959	1120.7	237.85
985.6576	2590.0893	1123.25	239.5
985.7832	2591.3819	1120.45	242.75
985.9087	2592.6739	1115.65	233.65
986.0343	2593.9652	1121.85	239
986.1597	2595.2557	1117.25	235.25
986.2852	2596.5456	1117.75	234.8
986.4106	2597.8348	1119.8	239.65
986.536	2599.1234	1121.6	238.55
986.6614	2600.4112	1119.4	236.75
986.7867	2601.6983	1120.9	236.3
986.912	2602.9848	1116.1	234.75
987.0372	2604.2705	1124.45	236.25
987.1624	2605.5556	1121.1	240
987.2876	2606.84	1114.8	234.4
987.4128	2608.1237	1118.2	234.8
987.5379	2609.4067	1115.05	233.95
987.6629	2610.689	1127	238.4
987.788	2611.9707	1116.75	232.15
987.913	2613.2516	1117.15	229
988.0379	2614.5319	1110.85	230.2
988.1629	2615.8115	1111.4	227.05
988.2878	2617.0903	1110.35	228.3
988.4126	2618.3685	1110.55	227.95
988.5375	2619.6461	1112.45	232.85
988.6622	2620.9229	1108.55	227.4
988.787	2622.199	1108.55	225.15
988.9117	2623.4745	1108.2	224.9
989.0364	2624.7493	1105.95	222.85
989.161	2626.0234	1104.95	224.2
989.2857	2627.2968	1102.8	219.6
989.4102	2628.5695	1107.55	225.4
989.5348	2629.8415	1104.4	222.65
989.6593	2631.1128	1109.3	224.15
989.7837	2632.3835	1103.1	220.8
989.9082	2633.6535	1103.75	221.85
990.0326	2634.9228	1102.45	219.15
990.1569	2636.1914	1100.1	219.75
990.2812	2637.4593	1107.45	219.15
990.4055	2638.7265	1101	219.4
990.5298	2639.9931	1098.25	216.9
990.654	2641.259	1105.1	222.5
990.7782	2642.5242	1097.8	213.95
990.9023	2643.7887	1099.2	215.65
991.0264	2645.0525	1094.9	209.1
991.1505	2646.3156	1096.05	214.85
991.2745	2647.5781	1097.8	215.4
991.3985	2648.8398	1094.25	213.75
991.5225	2650.1009	1130.1	212.2
991.6464	2651.3613	1091.15	209.75
991.7703	2652.6211	1091.25	209.45
991.8942	2653.8801	1093.8	212.05
992.018	2655.1385	1089.7	204
992.1418	2656.3961	1092.15	211.6
992.2655	2657.6531	1095.05	211.5
992.3892	2658.9094	1091.6	209
992.5129	2660.1651	1092.5	209.4
992.6366	2661.42	1097.15	213.5
992.7602	2662.6743	1097.25	214.05
992.8837	2663.9279	1096.65	214.15
993.0073	2665.1808	1091.7	208.35
993.1307	2666.433	1092.95	207.95
993.2542	2667.6846	1096.15	215.7
993.3776	2668.9354	1100.9	216.2
993.501	2670.1856	1097.9	214.45
993.6244	2671.4351	1093.6	211.85
993.7477	2672.6839	1094.8	209.7
993.8709	2673.9321	1099.25	217.4
993.9942	2675.1795	1096	212.3
994.1174	2676.4263	1092.8	211
994.2405	2677.6724	1097.2	214.9
994.3637	2678.9179	1096.3	212.7
994.4868	2680.1626	1095.3	213.3
994.6098	2681.4067	1098.8	215.1
994.7328	2682.6501	1093.35	211.85
994.8558	2683.8928	1094.9	211.6
994.9788	2685.1348	1095.35	213.6
995.1017	2686.3761	1092.2	210.6
995.2245	2687.6168	1087.1	205.6
995.3474	2688.8568	1091.65	210.65
995.4702	2690.0961	1086.2	204.6
995.5929	2691.3348	1084.05	200.1
995.7156	2692.5727	1087.55	205.2
995.8383	2693.81	1087.2	206.05
995.961	2695.0466	1087.35	205.45
996.0836	2696.2826	1086.4	202.1
996.2062	2697.5178	1091.45	205.55
996.3287	2698.7524	1085.3	204.25
996.4512	2699.9863	1090.65	207.65
996.5737	2701.2195	1085.9	203.75
996.6961	2702.452	1090.2	205.45
996.8185	2703.6839	1095.75	213.45
996.9408	2704.9151	1091.5	210.15
997.0631	2706.1456	1092.25	210.05
997.1854	2707.3755	1097.6	213.75
997.3077	2708.6046	1098.35	213.25
997.4299	2709.8331	1094.65	212.85
997.552	2711.0609	1099.1	215.15
997.6742	2712.2881	1096.7	213.85
997.7963	2713.5145	1109.4	224.8
997.9183	2714.7403	1108.95	227.15
998.0403	2715.9654	1107.15	225.65
998.1623	2717.1899	1126.9	229.1
998.2842	2718.4136	1111.85	230.95
998.4062	2719.6367	1112.75	229.25
998.528	2720.8591	1127.45	239.15
998.6498	2722.0809	1124.95	243.15
998.7716	2723.3019	1133.85	248
998.8934	2724.5223	1130.9	248.65
999.0151	2725.7421	1133.95	248.6
999.1368	2726.9611	1131.75	246.65
999.2584	2728.1795	1135.15	250.5
999.38	2729.3972	1123	241.55
999.5016	2730.6142	1137.75	242.6
999.6231	2731.8306	1119.7	236.8
999.7446	2733.0462	1115.3	231.55
999.8661	2734.2612	1116.35	228.8
999.9875	2735.4756	1102	220.3
1000.1089	2736.6892	1101.2	218.85
1000.2302	2737.9022	1091.15	211.75
1000.3515	2739.1145	1093.8	211.3
1000.4728	2740.3262	1093.75	202.85
1000.594	2741.5372	1083.4	201.95
1000.7152	2742.7475	1081.4	196.45
1000.8363	2743.9571	1085.6	201.8
1000.9575	2745.1661	1079.9	192.1
1001.0785	2746.3744	1071.35	187
1001.1996	2747.582	1064.95	184.1
1001.3206	2748.7889	1069.85	185.7
1001.4415	2749.9952	1063.7	180
1001.5625	2751.2008	1068.35	185.6
1001.6833	2752.4057	1064.45	181
1001.8042	2753.61	1061.35	179.85
1001.925	2754.8136	1062.55	179.6
1002.0458	2756.0165	1055.05	174.2
1002.1665	2757.2188	1061.45	180.1
1002.2872	2758.4204	1062.75	180.3
1002.4078	2759.6213	1061.05	178.4
1002.5285	2760.8215	1070.65	180.25
1002.649	2762.0211	1058.6	173.45
1002.7696	2763.22	1060.2	175.2
1002.8901	2764.4182	1059.3	175.4
1003.0106	2765.6158	1061.25	176.05
1003.131	2766.8127	1057.4	176.15
1003.2514	2768.009	1057.2	175.25
1003.3717	2769.2045	1053.25	170
1003.492	2770.3994	1060.25	176.45
1003.6123	2771.5936	1051.3	169.2
1003.7325	2772.7872	1051.8	170.65
1003.8527	2773.9801	1051	166.95
1003.9729	2775.1723	1065.4	165.65
1004.093	2776.3639	1047.95	168.2
1004.2131	2777.5548	1053.25	169.1
1004.3331	2778.745	1048.85	166.2
1004.4531	2779.9346	1048.75	168.65
1004.5731	2781.1235	1050.7	166.25
1004.693	2782.3117	1050.8	169.25
1004.8129	2783.4992	1047.95	164.55
1004.9328	2784.6861	1051.55	168.05
1005.0526	2785.8723	1052.6	169.6
1005.1723	2787.0579	1054.6	171.2
1005.2921	2788.2428	1054.15	171.55
1005.4118	2789.427	1053.8	171.25
1005.5314	2790.6106	1056.95	176.1
1005.651	2791.7935	1059.5	175.25
1005.7706	2792.9757	1058.35	177.35
1005.8902	2794.1573	1064.9	178.3
1006.0097	2795.3382	1065.85	183
1006.1291	2796.5184	1065.6	185.85
1006.2485	2797.698	1070.05	187.65
1006.3679	2798.8769	1070.3	187.1
1006.4873	2800.0551	1077	195.55
1006.6066	2801.2327	1083.45	198.3
1006.7258	2802.4096	1082.7	201.1
1006.8451	2803.5859	1088.7	205.4
1006.9642	2804.7615	1089.5	204.65
1007.0834	2805.9364	1101.6	220.45
1007.2025	2807.1106	1108.65	227.35
1007.3216	2808.2842	1114.4	231.55
1007.4406	2809.4572	1120.95	239.95
1007.5596	2810.6294	1131.1	247.4
1007.6785	2811.801	1137.15	254.95
1007.7975	2812.972	1150.05	267.7
1007.9163	2814.1423	1158.4	274.65
1008.0352	2815.3119	1168.6	287.6
1008.154	2816.4808	1184.2	302.1
1008.2727	2817.6491	1205.65	322.1
1008.3914	2818.8167	1220.05	340.15
1008.5101	2819.9837	1237.8	351.05
1008.6288	2821.15	1259.05	376.75
1008.7474	2822.3157	1270.6	390.25
1008.8659	2823.4807	1287.85	404.65
1008.9844	2824.645	1313.9	429.95
1009.1029	2825.8086	1326.75	446.25
1009.2214	2826.9716	1349.65	467.55
1009.3398	2828.134	1366.5	484
1009.4581	2829.2957	1378.35	496.45
1009.5764	2830.4567	1389.35	508.4
1009.6947	2831.617	1392.15	509.35
1009.813	2832.7767	1401.35	521.3
1009.9312	2833.9358	1397.65	516.95
1010.0493	2835.0941	1407.3	523.85
1010.1675	2836.2519	1389.6	507.05
1010.2855	2837.4089	1389.35	505.75
1010.4036	2838.5653	1377	495.9
1010.5216	2839.7211	1367.4	487.4
1010.6396	2840.8761	1367.5	482.55
1010.7575	2842.0306	1374.1	493.8
1010.8754	2843.1843	1372.3	490.2
1010.9932	2844.3374	1389.25	506.15
1011.111	2845.4899	1407.55	525.55
1011.2288	2846.6417	1417.3	536
1011.3465	2847.7928	1433.6	552.2
1011.4642	2848.9433	1449.75	566.75
1011.5818	2850.0931	1472.7	592.45
1011.6995	2851.2422	1477.05	593.4
1011.817	2852.3907	1500.4	617
1011.9345	2853.5385	1518.25	636.85
1012.052	2854.6857	1559.25	648.7
1012.1695	2855.8323	1550.7	669.85
1012.2869	2856.9781	1558.95	676.85
1012.4042	2858.1233	1580.2	698.05
1012.5216	2859.2679	1590	708.85
1012.6389	2860.4118	1613.55	731.95
1012.7561	2861.555	1624.6	737.15
1012.8733	2862.6976	1642.3	758.85
1012.9905	2863.8395	1645	762
1013.1076	2864.9808	1659.65	777.8
1013.2247	2866.1214	1667.2	786.85
1013.3417	2867.2614	1664.05	782.5
1013.4587	2868.4007	1674.45	791.25
1013.5757	2869.5393	1674.75	790.35
1013.6926	2870.6773	1692	805.85
1013.8095	2871.8146	1698.4	811.95
1013.9263	2872.9513	1691.95	807.95
1014.0431	2874.0874	1681.15	799.45
1014.1599	2875.2227	1687.9	804.6
1014.2766	2876.3574	1667.9	785.45
1014.3933	2877.4915	1662.9	781
1014.51	2878.6249	1663.05	780.95
1014.6266	2879.7577	1659.5	777.7
1014.7431	2880.8898	1656.1	761.65
1014.8596	2882.0212	1650.1	768.95
1014.9761	2883.152	1646.8	760.9
1015.0925	2884.2821	1634.8	754
1015.2089	2885.4116	1643.55	763.45
1015.3253	2886.5405	1638.25	756.5
1015.4416	2887.6686	1652.3	768.4
1015.5579	2888.7962	1648	764.2
1015.6741	2889.923	1650.45	770
1015.7903	2891.0493	1656.4	774.4
1015.9065	2892.1748	1659	775.55
1016.0226	2893.2997	1665	783.3
1016.1387	2894.424	1666.35	785.9
1016.2547	2895.5476	1677.95	795.5
1016.3707	2896.6706	1680.9	799.7
1016.4866	2897.7929	1684.3	802.15
1016.6025	2898.9145	1687.95	804.6
1016.7184	2900.0355	1694.8	814.65
1016.8342	2901.1559	1701.75	817.25
1016.95	2902.2756	1720.55	840.1
1017.0658	2903.3946	1716.65	834.55
1017.1815	2904.513	1729.9	845.95
1017.2971	2905.6308	1736.55	856.15
1017.4127	2906.7479	1736.65	850.85
1017.5283	2907.8643	1745.85	862.2
1017.6439	2908.9801	1746.95	864.25
1017.7594	2910.0953	1746.3	863.85
1017.8748	2911.2098	1760.15	875.1
1017.9902	2912.3236	1754.95	865.05
1018.1056	2913.4368	1742.4	857.5
1018.2209	2914.5494	1727.8	847.1
1018.3362	2915.6613	1732.35	843.05
1018.4515	2916.7725	1714.7	831.3
1018.5667	2917.8831	1707.7	823.55
1018.6819	2918.9931	1690.8	804.55
1018.797	2920.1024	1689.35	807.8
1018.9121	2921.211	1671.2	787.95
1019.0271	2922.319	1678	796.75
1019.1421	2923.4264	1663.45	781.45
1019.2571	2924.5331	1670.3	788.15
1019.372	2925.6391	1667.7	786.25
1019.4869	2926.7445	1662.65	780.3
1019.6017	2927.8493	1661.75	778.3
1019.7165	2928.9534	1664.55	782.85
1019.8313	2930.0569	1671.55	786.2
1019.946	2931.1597	1669.6	785.65
1020.0606	2932.2619	1673.3	790.9
1020.1753	2933.3634	1679.15	798.1
1020.2899	2934.4643	1682.15	793.05
1020.4044	2935.5645	1681.5	792.45
1020.5189	2936.6641	1676.5	789.3
1020.6334	2937.763	1660.3	779.55
1020.7478	2938.8613	1655.5	773.8
1020.8622	2939.959	1649.55	761.4
1020.9765	2941.056	1620.85	741.3
1021.0908	2942.1523	1602.5	719.4
1021.2051	2943.248	1575.35	692.9
1021.3193	2944.3431	1547.55	667.35
1021.4334	2945.4375	1514.7	630.95
1021.5476	2946.5313	1494.4	613.45
1021.6617	2947.6244	1459.85	577.3
1021.7757	2948.7169	1436.25	552.15
1021.8897	2949.8087	1403.2	520.75
1022.0037	2950.8999	1380.4	496.1
1022.1176	2951.9904	1355.45	473.1
1022.2315	2953.0803	1325.95	444
1022.3453	2954.1696	1310.85	428.8
1022.4591	2955.2582	1299.75	417.25
1022.5728	2956.3462	1286.35	404.65
1022.6865	2957.4335	1272.55	387.3
1022.8002	2958.5202	1266.4	382.75
1022.9138	2959.6062	1258.3	375.1
1023.0274	2960.6916	1252.75	370.4
1023.141	2961.7764	1248.95	366.75
1023.2545	2962.8605	1249.25	365.45
1023.3679	2963.9439	1236.3	354.35
1023.4813	2965.0267	1230.85	347.15
1023.5947	2966.1089	1248.2	344.5
1023.708	2967.1905	1233.85	351.75
1023.8213	2968.2714	1232.35	349.6
1023.9346	2969.3516	1231.85	350
1024.0478	2970.4312	1241.85	351.55
1024.1609	2971.5102	1229.3	347.2
1024.274	2972.5885	1231.4	350.65
1024.3871	2973.6662	1241.05	352.2
1024.5002	2974.7432	1236.35	355.5
1024.6132	2975.8196	1238.55	356.85
1024.7261	2976.8954	1233.15	352.75
1024.839	2977.9705	1225.15	343.9
1024.9519	2979.045	1227.55	346.15
1025.0647	2980.1188	1227.15	346.25
1025.1775	2981.192	1220.75	339.25
1025.2902	2982.2645	1213.95	329.8
1025.4029	2983.3364	1206.85	323.45
1025.5156	2984.4077	1204.2	322.25
1025.6282	2985.4783	1194.85	308.05
1025.7407	2986.5483	1181	300.45
1025.8532	2987.6177	1170	287.6
1025.9657	2988.6864	1163	282.8
1026.0782	2989.7545	1153.95	270.8
1026.1906	2990.8219	1144.45	263.9
1026.3029	2991.8887	1132.65	249.05
1026.4152	2992.9548	1120.05	234.7
1026.5275	2994.0204	1102.05	220.5
1026.6397	2995.0852	1096.45	215.5
1026.7519	2996.1495	1089.4	206.85
1026.864	2997.2131	1085.1	204.45
1026.9761	2998.276	1077.1	194
1027.0882	2999.3383	1069.85	188.55
1027.2002	3000.4	1059	174.45
1027.3122	3001.4611	1055.65	174.95
1027.4241	3002.5215	1051.35	169.15
1027.536	3003.5812	1042.7	160.15
1027.6478	3004.6404	1041.4	159.55
1027.7596	3005.6989	1037.95	152.75
1027.8714	3006.7567	1032.6	150.25
1027.9831	3007.8139	1054.9	144.4
1028.0947	3008.8705	1025.8	142.5
1028.2064	3009.9264	1042.15	144.35
1028.3179	3010.9818	1021.65	139.45
1028.4295	3012.0364	1018.05	135.8
1028.541	3013.0905	1014.8	132.9
1028.6524	3014.1439	1017.3	135.05
1028.7638	3015.1966	1013.45	131.75
1028.8752	3016.2487	1010.5	128.1
1028.9865	3017.3002	1016.1	127.55
1029.0978	3018.3511	1008.85	127.75
1029.209	3019.4013	1009.2	124.55
1029.3202	3020.4509	1007.5	124
1029.4314	3021.4998	1004.9	121.6
1029.5425	3022.5481	1003.55	121.3
1029.6535	3023.5958	1003.15	121.25
1029.7645	3024.6428	1004.1	121.3
1029.8755	3025.6892	1005.35	125.8
1029.9864	3026.735	1001.5	120.5
1030.0973	3027.7802	1004.15	122.35
1030.2082	3028.8247	1004.95	122.9
1030.319	3029.8685	1004.05	121
1030.4297	3030.9118	1009.55	126.45
1030.5404	3031.9544	1001.25	119.2
1030.6511	3032.9963	1006.3	122.15
1030.7617	3034.0376	1007.9	125.55
1030.8723	3035.0783	1007.6	122.05
1030.9829	3036.1184	1005.75	121.3
1031.0934	3037.1578	1004.45	124.25
1031.2038	3038.1966	1008.05	123.8
1031.3142	3039.2348	1005.85	126.55
1031.4246	3040.2723	1015.2	124.05
1031.5349	3041.3092	1008.05	130.4
1031.6452	3042.3455	1006.2	124.2
1031.7554	3043.3811	1009.1	125.6
1031.8656	3044.4161	1007.4	126.55
1031.9758	3045.4505	1004.35	121.95
1032.0859	3046.4842	1006.6	123.85
1032.1959	3047.5173	1008.35	126.6
1032.3059	3048.5498	1004.7	120.3
1032.4159	3049.5816	1002.15	119.95
1032.5258	3050.6128	1010.8	126.85
1032.6357	3051.6434	1002	116.9
1032.7455	3052.6734	1002.9	118.4
1032.8553	3053.7027	1000.8	119.75
1032.9651	3054.7314	999.1	117.75
1033.0748	3055.7594	996.8	115.45
1033.1845	3056.7868	998.35	115.75
1033.2941	3057.8136	999.35	118.7
1033.4037	3058.8398	998.75	117
1033.5132	3059.8653	996.8	113.85
1033.6227	3060.8902	995.6	113.85
1033.7321	3061.9145	997.35	114.85
1033.8415	3062.9381	994.4	113.4
1033.9509	3063.9612	1009.15	111.2
1034.0602	3064.9835	994.05	112.05
1034.1694	3066.0053	995.85	112.85
1034.2787	3067.0264	992.05	111
1034.3878	3068.0469	989.7	106
1034.497	3069.0668	992.9	106.4
1034.6061	3070.086	988.05	106.25
1034.7151	3071.1046	991.05	104.85
1034.8241	3072.1226	986.9	102.75
1034.9331	3073.1399	984.6	102.75
1035.042	3074.1567	982.9	100.2
1035.1508	3075.1727	979.75	96.75
1035.2597	3076.1882	978.9	97.4
1035.3684	3077.203	981.4	99.05
1035.4772	3078.2173	976.45	93.45
1035.5859	3079.2308	977.25	91.85
1035.6945	3080.2438	972.95	89.85
1035.8031	3081.2561	969.65	87.45
1035.9117	3082.2678	964.65	81.05
1036.0202	3083.2789	965.55	84.15
1036.1286	3084.2893	964.5	81.1
1036.2371	3085.2991	965.35	83.25
1036.3454	3086.3083	967.4	82.1
1036.4538	3087.3169	960.9	74.05
1036.562	3088.3248	958.05	75.25
1036.6703	3089.3321	960.7	77.45
1036.7785	3090.3388	951.75	71.1
1036.8866	3091.3449	952.95	69.6
1036.9948	3092.3503	956.15	72.85
1037.1028	3093.3551	947.35	66.75
1037.2108	3094.3593	948.5	68.05
1037.3188	3095.3629	948.85	66.85
1037.4267	3096.3658	947.8	65.2
1037.5346	3097.3681	946.4	63.9
1037.6425	3098.3698	947.2	65.9
1037.7503	3099.3708	951.2	63.2
1037.858	3100.3713	945.35	63.9
1037.9657	3101.3711	943.35	60.65
1038.0734	3102.3702	1082.45	59.65
1038.181	3103.3688	944.9	59.3
1038.2886	3104.3667	942.8	61.75
1038.3961	3105.364	942.8	61.35
1038.5036	3106.3607	943.3	58.9
1038.611	3107.3568	940.1	59.05
1038.7184	3108.3522	936.4	56.3
1038.8257	3109.347	939.6	55.95
1038.933	3110.3412	941.35	55.25
1039.0403	3111.3348	937.55	58.35
1039.1475	3112.3277	936.5	54.1
1039.2547	3113.32	935.3	53.8
1039.3618	3114.3117	933.05	49.2
1039.4689	3115.3028	934	51.8
1039.5759	3116.2932	933.15	49.55
1039.6829	3117.2831	938.8	51.85
1039.7898	3118.2723	934.45	52.7
1039.8967	3119.2608	933.45	51.35
1040.0035	3120.2488	933.55	52.6
1040.1103	3121.2361	929.2	46.45
1040.2171	3122.2229	930.45	48.3
1040.3238	3123.209	930.35	46.45
1040.4305	3124.1944	929.9	47.8
1040.5371	3125.1793	932.75	49.25
1040.6437	3126.1635	928.8	46.7
1040.7502	3127.1471	929.55	47.05
1040.8567	3128.1301	929.3	47.7
1040.9631	3129.1125	927.7	48
1041.0695	3130.0942	926.15	43.6
1041.1759	3131.0753	935.65	44.95
1041.2822	3132.0558	927.75	44.95
1041.3884	3133.0357	926.35	44.9
1041.4946	3134.015	925.65	44.6
1041.6008	3134.9936	927.35	43.4
1041.7069	3135.9716	946.6	44.9
1041.813	3136.949	924.9	45.15
1041.919	3137.9258	940.8	41
1042.025	3138.902	931.4	44.15
1042.1309	3139.8775	924.35	43.6
1042.2368	3140.8524	921.75	40.9
1042.3427	3141.8267	924.8	39.2
1042.4485	3142.8004	922.9	40.2
1042.5542	3143.7735	929.95	41.65
1042.6599	3144.7459	926.05	41.7
1042.7656	3145.7178	925.65	42.85
1042.8712	3146.689	923.35	43.05
1042.9768	3147.6596	920.95	37.2
1043.0823	3148.6295	921.9	40.55
1043.1878	3149.5989	922.35	39.4
1043.2932	3150.5676	922.9	42.7
1043.3986	3151.5357	919.65	38.35
1043.5039	3152.5032	918.95	38.8
1043.6092	3153.4701	919.4	38
1043.7145	3154.4364	919.4	37.55
1043.8197	3155.402	916.2	35.05
1043.9248	3156.367	919.25	34.5
1044.03	3157.3315	938.65	36.65
1044.135	3158.2952	919.3	36.85
1044.24	3159.2584	916.45	34.55
1044.345	3160.221	919.55	38.05
1044.4499	3161.1829	916.15	35.7
1044.5548	3162.1442	917.4	37.3
1044.6596	3163.105	918	37.2
1044.7644	3164.065	917.2	34.3
1044.8692	3165.0245	921.05	38.85
1044.9739	3165.9834	915	33.65
1045.0785	3166.9416	919.35	38.05
1045.1831	3167.8993	916.5	34.35
1045.2877	3168.8563	913.75	32.55
1045.3922	3169.8127	914.95	32.95
1045.4966	3170.7684	916.15	35.15
1045.6011	3171.7236	915.7	30.6
1045.7054	3172.6782	914.25	33.15
1045.8098	3173.6321	917.4	33.35
1045.914	3174.5854	919.7	33.1
1046.0183	3175.5381	914.1	31.8
1046.1224	3176.4902	916.35	35.15
1046.2266	3177.4417	911.9	29.3
1046.3307	3178.3926	913.05	32.1
1046.4347	3179.3428	913.15	30.85
1046.5387	3180.2924	913.95	33.85
1046.6427	3181.2415	915.75	30.3
1046.7466	3182.1899	918.4	36.25
1046.8504	3183.1377	911.9	30.85
1046.9542	3184.0848	916.65	32.25
1047.058	3185.0314	913.8	31.7
1047.1617	3185.9773	914.4	31.35
1047.2654	3186.9227	913.9	30.55
1047.369	3187.8674	911.3	27.6
1047.4726	3188.8115	915.55	29.3
1047.5761	3189.755	911.2	30.25
1047.6796	3190.6979	911.35	27.3
1047.783	3191.6402	911.4	29.5
1047.8864	3192.5818	909.05	27.65
1047.9898	3193.5229	930.55	27.3
1048.0931	3194.4633	910.7	28.4
1048.1963	3195.4031	910.25	27.05
1048.2995	3196.3423	909.8	27.85
1048.4027	3197.2809	907.85	26
1048.5058	3198.2189	909.25	27.85
1048.6089	3199.1563	918.95	32
1048.7119	3200.0931	910	31.05
1048.8148	3201.0292	907.1	24.75
1048.9178	3201.9648	910.75	28.9
1049.0206	3202.8997	911.2	23.05
1049.1235	3203.834	909.45	28.7
1049.2262	3204.7677	908.75	27.05
1049.329	3205.7008	910.3	25.45
1049.4317	3206.6333	908.25	28.45
1049.5343	3207.5652	910.95	26.7
1049.6369	3208.4964	909.7	28.65
1049.7394	3209.4271	905.35	24.05
1049.8419	3210.3571	908.6	25.2
1049.9444	3211.2865	907.5	24.55
1050.0468	3212.2154	908.4	24.55
1050.1491	3213.1436	912	27.8
1050.2514	3214.0712	914.15	26
1050.3537	3214.9982	906.85	25.85
1050.4559	3215.9246	906.9	24.65
1050.5581	3216.8503	906.8	24.9
1050.6602	3217.7755	907.45	26.65
1050.7623	3218.7001	905.5	23.1
1050.8643	3219.624	906	23.3
1050.9663	3220.5473	907.35	26
1051.0682	3221.4701	908.4	25.25
1051.1701	3222.3922	908.45	25.95
1051.2719	3223.3137	904.9	23.8
1051.3737	3224.2346	905.6	23.55
1051.4754	3225.1549	906.25	26.7
1051.5771	3226.0746	906	24.1
1051.6788	3226.9937	905.6	21.9
1051.7804	3227.9121	904.95	24.55
1051.8819	3228.83	904.85	20.45
1051.9834	3229.7473	906.5	25.9
1052.0849	3230.6639	904.3	20.1
1052.1863	3231.5799	903.65	24.05
1052.2876	3232.4954	905.15	23.2
1052.3889	3233.4102	904.4	22.3
1052.4902	3234.3244	906.65	24.15
1052.5914	3235.238	906.3	24.4
1052.6926	3236.151	930	24.75
1052.7937	3237.0634	902.95	24.45
1052.8948	3237.9752	903.3	21.3
1052.9958	3238.8864	903	21.55
1053.0968	3239.797	904.05	21.55
1053.1977	3240.7069	905.5	23.65
1053.2986	3241.6163	905.45	21.85
1053.3994	3242.5251	901.35	20.35
1053.5002	3243.4332	903.2	22
1053.6009	3244.3408	901.75	20.05
1053.7016	3245.2477	903.7	21.55
1053.8022	3246.154	901.9	18.8
1053.9028	3247.0598	902.35	20.7
1054.0034	3247.9649	902.3	21.2
1054.1039	3248.8694	902.05	18.7
1054.2043	3249.7733	901.25	20.3
1054.3047	3250.6766	901.5	21.2
1054.4051	3251.5793	900.4	16.25
1054.5054	3252.4814	901.6	21.05
1054.6056	3253.3829	901.5	19
1054.7058	3254.2838	901.25	19.4
1054.806	3255.1841	899.4	18.9
1054.9061	3256.0838	901.05	18.55
1055.0061	3256.9829	899.6	20.1
1055.1062	3257.8814	900.7	16.6
1055.2061	3258.7792	903.5	20.1
1055.306	3259.6765	900.85	16.65
1055.4059	3260.5731	900.15	19.05
1055.5057	3261.4692	902.05	17.8
1055.6055	3262.3647	899.6	17.15
1055.7052	3263.2595	900.85	17.1
1055.8049	3264.1538	897.15	17.4
1055.9045	3265.0474	897.95	14
1056.0041	3265.9404	897.55	16.65
1056.1036	3266.8329	899.65	19
1056.2031	3267.7247	909.2	15.65
1056.3025	3268.616	896.5	16.2
1056.4019	3269.5066	896.65	12.9
1056.5013	3270.3966	900	17.1
1056.6005	3271.286	894.95	13
