Software Version:	3.9.2.0
Unit SN:	10000200
Spectrometer SN:	6960
Date:	3/14/2024 1:54:25 PM
Data Line Index:	25
Spectral Points:	2048
Integration time (ms):	125
Averages:	20
Delay (ms):	30000
Sequence Number:	1
Processing:	dark subtract
Laser Power (mW):	300
Laser Current (mA):	825
Laser Diode Temp (C):	25
Laser Case Temp (C):	28.9
System Temp (C):	28.9
Spectrometer Temp (C):	26.7
CCD Temp (C):	0.01
Secondary Temp (C):	20.006
Heatsink Temp (C):	24.709
CCDPCB Temp (C):	38.341
SecondaryPCB Temp (C):	35.985

Wavelength	RamanShift	Raw Counts	Dark Subtracted
787.061	30.1047	464.65	52.2
787.2016	32.3739	464.1	55.3
787.3422	34.6426	471.8	63.15
787.4828	36.9109	478.25	68.35
787.6235	39.1787	485.85	70.8
787.7642	41.4461	497.5	78.85
787.9049	43.7131	506.75	83.05
788.0456	45.9796	516.85	88.05
788.1863	48.2456	525.95	92.8
788.3271	50.5112	536.5	99.45
788.4679	52.7764	541.85	102.35
788.6087	55.0411	553.45	113.1
788.7496	57.3054	568.9	122.05
788.8904	59.5692	581	133.05
789.0313	61.8326	594.05	140.75
789.1722	64.0955	605.65	148.35
789.3132	66.3579	624.95	162.4
789.4541	68.6199	644.3	178.5
789.5951	70.8815	679.25	211.95
789.7361	73.1426	758.65	285.55
789.8771	75.4032	965	487.55
790.0181	77.6634	1454.7	971.2
790.1592	79.9231	2647.1	2158.5
790.3003	82.1824	5273.15	4774.55
790.4414	84.4412	10124.8	9603.45
790.5825	86.6995	17025.3	16476.15
790.7237	88.9574	23915.8	23344.65
790.8648	91.2148	28842.35	28254.45
791.006	93.4717	31286.8	30687.8
791.1472	95.7282	31897.5	31295.05
791.2885	97.9842	31914.7	31308.75
791.4297	100.2398	31461.7	30853.25
791.571	102.4949	30939.75	30327.8
791.7123	104.7495	30207.85	29591.6
791.8536	107.0036	29416.2	28799.3
791.9949	109.2573	28624.25	28004.15
792.1363	111.5105	27827.95	27207.65
792.2777	113.7632	27081.5	26463.6
792.4191	116.0154	26472.05	25837.15
792.5605	118.2672	25984.95	25357.95
792.7019	120.5185	25452.3	24825.55
792.8434	122.7693	25088.4	24461.05
792.9849	125.0197	24780.4	24145.9
793.1264	127.2696	24509.3	23876.3
793.2679	129.519	24380.1	23744.35
793.4094	131.7679	24154.1	23514.7
793.551	134.0163	24024.2	23378.35
793.6926	136.2642	23858.2	23209.65
793.8342	138.5117	23676.55	23020.5
793.9758	140.7587	23412.7	22761.2
794.1175	143.0052	23245.2	22588.75
794.2591	145.2512	23045.15	22392.6
794.4008	147.4967	22820.1	22165
794.5425	149.7417	22665.05	22009.75
794.6842	151.9863	22532.05	21870.4
794.826	154.2304	22454.35	21792.4
794.9677	156.4739	22303.7	21635.5
795.1095	158.717	22255.15	21586.7
795.2513	160.9596	22059.95	21385.55
795.3931	163.2017	21835.85	21165.3
795.535	165.4433	21494.6	20812.95
795.6768	167.6844	21149.2	20470.5
795.8187	169.925	20804.95	20123.2
795.9606	172.1651	20396.65	19713.1
796.1025	174.4047	20123.55	19433.35
796.2445	176.6439	19817.15	19126.5
796.3864	178.8825	19538.3	18844.35
796.5284	181.1206	19362.8	18668.05
796.6704	183.3582	19167.1	18467.65
796.8124	185.5954	19044.2	18342.2
796.9544	187.832	18967.7	18263.15
797.0965	190.0681	18902.75	18196.4
797.2386	192.3037	18882.9	18173.4
797.3806	194.5388	18855.85	18144.15
797.5228	196.7734	18919.7	18203.95
797.6649	199.0075	18972.35	18252.35
797.807	201.2411	19096.05	18372.45
797.9492	203.4742	19127.55	18408.35
798.0914	205.7068	19264.45	18543.9
798.2336	207.9389	19380.8	18656.95
798.3758	210.1704	19540.6	18815.25
798.518	212.4015	19643.9	18914.85
798.6603	214.632	19804.1	19076.45
798.8025	216.862	19965.6	19243.95
798.9448	219.0915	20150.65	19436.05
799.0871	221.3205	20326.05	19612.15
799.2294	223.549	20607.8	19899.25
799.3718	225.777	20961.05	20258.9
799.5141	228.0044	21378.4	20668.75
799.6565	230.2314	21879.95	21172
799.7989	232.4578	22351.35	21643.45
799.9413	234.6837	22755.3	22036
800.0837	236.909	22935.3	22218.05
800.2262	239.1339	22899.5	22161.8
800.3687	241.3582	22639.05	21911.1
800.5111	243.582	22207.55	21451.05
800.6536	245.8053	21857.5	21107.65
800.7961	248.0281	21465.45	20723.4
800.9387	250.2503	21164	20415.6
801.0812	252.472	21003.5	20252.1
801.2238	254.6932	20905.3	20151.35
801.3664	256.9139	20747.7	19994
801.509	259.134	20698.55	19942.15
801.6516	261.3536	20643.65	19889.9
801.7942	263.5727	20650.45	19893.15
801.9369	265.7912	20541.65	19783.8
802.0795	268.0092	20507.7	19751.7
802.2222	270.2267	20464.1	19706.75
802.3649	272.4436	20370.5	19610.3
802.5076	274.6601	20293.3	19525.8
802.6504	276.8759	20218.7	19459.45
802.7931	279.0913	20183.05	19417.4
802.9359	281.3061	20153.95	19390.5
803.0787	283.5204	20236.6	19466.7
803.2215	285.7341	20357.1	19589.8
803.3643	287.9473	20519.2	19736.35
803.5071	290.16	20769.95	19993.7
803.6499	292.3721	21101.75	20328.8
803.7928	294.5837	21552.6	20778.65
803.9357	296.7947	21929.6	21157.9
804.0786	299.0052	22134.85	21362.35
804.2215	301.2152	21928.45	21150.95
804.3644	303.4246	21520.95	20748
804.5074	305.6334	20904.2	20132
804.6503	307.8418	20349	19572.45
804.7933	310.0495	19892	19118.3
804.9363	312.2568	19566.3	18791.5
805.0793	314.4635	19348.35	18571.4
805.2223	316.6696	19257.6	18478.45
805.3653	318.8752	19200.65	18414.35
805.5084	321.0802	19271.9	18490.5
805.6514	323.2847	19386.65	18604.4
805.7945	325.4887	19396.8	18614.35
805.9376	327.692	19359	18576.9
806.0807	329.8949	19249.3	18463
806.2238	332.0972	18920.6	18138
806.367	334.2989	18631.9	17840.8
806.5101	336.5001	18333	17540.3
806.6533	338.7007	18110.9	17322.6
806.7965	340.9008	18026.2	17234.1
806.9397	343.1003	17859.45	17063
807.0829	345.2992	17795.2	16999.5
807.2261	347.4976	17746.45	16950.95
807.3693	349.6955	17730.05	16930.25
807.5126	351.8927	17822.3	17022.55
807.6559	354.0895	17793.95	16983.05
807.7991	356.2856	17837	17038.3
807.9424	358.4812	17773.5	16969.35
808.0857	360.6763	17801.5	16998.85
808.2291	362.8707	17763.85	16961.65
808.3724	365.0646	17812.55	17007.3
808.5158	367.258	17798.5	16990.65
808.6591	369.4508	17795.5	16986.85
808.8025	371.643	17860.4	17050.2
808.9459	373.8346	17791.7	16979.65
809.0893	376.0257	17755.45	16938.45
809.2327	378.2162	17662.45	16845.85
809.3762	380.4062	17541.3	16722.65
809.5196	382.5956	17376.25	16554.75
809.6631	384.7844	17247.4	16427.45
809.8066	386.9726	17097.05	16276.25
809.9501	389.1603	17052.1	16230.3
810.0936	391.3474	16992.55	16142.15
810.2371	393.5339	16982.85	16160.25
810.3806	395.7199	16898.1	16081.35
810.5241	397.9052	16878.55	16066.75
810.6677	400.09	16910.6	16100.25
810.8113	402.2743	16946.65	16135.7
810.9548	404.4579	16962.3	16154
811.0984	406.641	17154.35	16344.95
811.2421	408.8235	17364.35	16553
811.3857	411.0054	17704.7	16893.55
811.5293	413.1868	18149.2	17335.35
811.673	415.3675	18529.55	17716.15
811.8166	417.5477	18736.25	17920.65
811.9603	419.7273	18762.35	17941.3
812.104	421.9064	18657.15	17831.15
812.2477	424.0848	18481.75	17656.75
812.3914	426.2627	18213.1	17385.8
812.5351	428.4399	17889.15	17062.8
812.6788	430.6166	17535.5	16704.9
812.8226	432.7928	17102.3	16272.8
812.9663	434.9683	16755.85	15928
813.1101	437.1432	16531.55	15698.65
813.2539	439.3176	16354	15524.7
813.3977	441.4914	16234.2	15401.45
813.5415	443.6645	16190.85	15353.3
813.6853	445.8371	16118.1	15281.95
813.8291	448.0091	15987.1	15151.7
813.973	450.1806	15971.85	15137.65
814.1168	452.3514	15892.75	15056.5
814.2607	454.5216	15892.3	15043.95
814.4046	456.6913	15784.55	14947.8
814.5485	458.8603	15789.35	14952.35
814.6924	461.0288	15853.3	15017
814.8363	463.1967	15853.75	15015.8
814.9802	465.3639	16004.45	15166.75
815.1241	467.5306	16095.55	15255.55
815.2681	469.6967	16226.05	15384.45
815.412	471.8622	16397.5	15556.9
815.556	474.0271	16529.55	15691.5
815.7	476.1914	16620.1	15777.15
815.844	478.3551	16571.05	15730.4
815.988	480.5182	16523.9	15684.25
816.132	482.6807	16493.35	15653.4
816.276	484.8426	16575.25	15738.5
816.4201	487.0039	16867.35	16028.25
816.5641	489.1647	17279.85	16435.8
816.7082	491.3248	17711.25	16866.4
816.8522	493.4843	17881.9	17039.5
816.9963	495.6432	17850.55	17008.75
817.1404	497.8015	17738.15	16892.2
817.2845	499.9592	17720.2	16875.1
817.4286	502.1163	17708.2	16861.75
817.5727	504.2728	17448.5	16604.7
817.7168	506.4287	17135.6	16292.1
817.861	508.5839	16675.95	15831.1
818.0051	510.7386	16329.1	15482.55
818.1493	512.8927	16115.7	15257.65
818.2935	515.0461	15966.7	15121
818.4377	517.199	15875.05	15029.35
818.5818	519.3512	15821.85	14973.95
818.726	521.5029	15859.25	15003.55
818.8703	523.6539	15868.5	15018.1
819.0145	525.8043	15902.4	15052.25
819.1587	527.9541	15905.9	15050.05
819.303	530.1033	15884.5	15033
819.4472	532.2519	15937.1	15084.3
819.5915	534.3999	16093.4	15238.75
819.7357	536.5472	16402.1	15547.85
819.88	538.694	16918.3	16062.95
820.0243	540.8401	17557.15	16702.65
820.1686	542.9856	18084.4	17226.65
820.3129	545.1305	18227	17367.8
820.4572	547.2748	18041.3	17183.55
820.6016	549.4185	17617.55	16756.2
820.7459	551.5615	17201.25	16344.8
820.8902	553.704	17010.7	16149.95
821.0346	555.8458	16891.55	16036.55
821.1789	557.987	16875.25	16020
821.3233	560.1276	16795.15	15937.3
821.4677	562.2675	16721.8	15863.8
821.6121	564.4069	16671.55	15812.55
821.7565	566.5456	16604.35	15748.45
821.9009	568.6837	16478	15620.5
822.0453	570.8212	16160.55	15306.5
822.1897	572.958	15870.7	15010.9
822.3342	575.0942	15622.95	14768
822.4786	577.2299	15466.05	14606.85
822.6231	579.3648	15474.75	14617.3
822.7675	581.4992	15545.55	14691.65
822.912	583.6329	15756.95	14901.15
823.0565	585.766	15992.9	15136.95
823.201	587.8985	16098.75	15240.85
823.3454	590.0304	16098.4	15214.3
823.4899	592.1616	16009.35	15149.1
823.6345	594.2922	15866.95	15006.95
823.779	596.4222	15731.4	14867.2
823.9235	598.5515	15558.15	14691.4
824.068	600.6802	15361.4	14498.3
824.2126	602.8083	15168.35	14302.5
824.3571	604.9358	15096.45	14231.55
824.5017	607.0626	14974.75	14108.25
824.6462	609.1888	14896.55	14031.1
824.7908	611.3144	14805.25	13939.1
824.9354	613.4393	14653.25	13787.4
825.08	615.5636	14521.1	13657.15
825.2246	617.6873	14386	13522.9
825.3692	619.8103	14298.85	13432.7
825.5138	621.9327	14213.55	13343.25
825.6584	624.0544	14197.75	13335.1
825.803	626.1756	14133	13269.95
825.9477	628.2961	14101.35	13234.8
826.0923	630.4159	14051	13182.45
826.237	632.5351	14008.1	13140.7
826.3816	634.6537	13925.9	13056.3
826.5263	636.7716	13879.55	13010.7
826.6709	638.8889	13873.25	13005.1
826.8156	641.0056	13883.35	13011.5
826.9603	643.1216	13864.1	12992.35
827.105	645.237	13866.1	12993.9
827.2497	647.3518	13848.15	12976.8
827.3944	649.4659	13886.8	13020.65
827.5391	651.5793	13869.45	13001.65
827.6838	653.6922	13849.05	12983.3
827.8285	655.8043	13808.7	12939.9
827.9733	657.9159	13760.7	12891.55
828.118	660.0268	13683.5	12810.05
828.2627	662.137	13587.3	12713.45
828.4075	664.2466	13565.75	12691.95
828.5522	666.3556	13527.15	12654.3
828.697	668.4639	13521.1	12646.85
828.8418	670.5716	13585.9	12716.45
828.9865	672.6786	13618.3	12745.8
829.1313	674.785	13633.9	12759.3
829.2761	676.8907	13733.75	12859.1
829.4209	678.9958	13788.1	12917.45
829.5657	681.1002	13756.9	12882.35
829.7105	683.204	13739.65	12860.4
829.8553	685.3072	13661.5	12785.9
830.0001	687.4097	13573.9	12698.9
830.1449	689.5115	13508.5	12630.55
830.2898	691.6127	13420.7	12549.65
830.4346	693.7132	13322.5	12445.7
830.5794	695.8131	13271.45	12373.75
830.7243	697.9123	13221.45	12342.7
830.8691	700.0109	13169.4	12289.9
831.014	702.1089	13096.7	12220.55
831.1588	704.2061	13086.85	12207
831.3037	706.3028	13149.85	12272
831.4486	708.3987	13187.35	12309.85
831.5935	710.4941	13251.8	12371.05
831.7383	712.5887	13468.5	12588.65
831.8832	714.6827	13733.3	12850.15
832.0281	716.7761	14103.15	13226.4
832.173	718.8688	14498.1	13618.85
832.3179	720.9608	14679.1	13798.05
832.4628	723.0522	14715.65	13834.45
832.6077	725.1429	14463.95	13586.35
832.7527	727.233	14100.25	13219.45
832.8976	729.3224	13785.25	12905.1
833.0425	731.4112	13462.5	12581.65
833.1874	733.4993	13231.6	12347.7
833.3324	735.5867	13057.45	12176.55
833.4773	737.6735	12948.3	12066.45
833.6222	739.7596	12867.7	11985.5
833.7672	741.845	12811.4	11928.5
833.9122	743.9298	12772.1	11889.5
834.0571	746.014	12792.25	11910.45
834.2021	748.0974	12785.9	11901.35
834.347	750.1802	12783.75	11899.75
834.492	752.2624	12780.45	11897.75
834.637	754.3439	12794.2	11910.9
834.782	756.4247	12822.2	11926.1
834.9269	758.5048	12940.55	12055.05
835.0719	760.5843	13114.65	12230.65
835.2169	762.6631	13398.55	12512.55
835.3619	764.7413	13853	12968.1
835.5069	766.8188	14424.1	13536.55
835.6519	768.8956	14890.6	14005.15
835.7969	770.9718	15200.85	14314.9
835.9419	773.0473	15054.5	14172.15
836.0869	775.1221	14678.85	13793.7
836.232	777.1962	14290.15	13405.1
836.377	779.2697	14070.1	13184.1
836.522	781.3426	14100.3	13198.65
836.667	783.4147	14368.55	13483.6
836.8121	785.4862	14702.7	13820
836.9571	787.557	14707.85	13823.15
837.1021	789.6271	14327.2	13443.05
837.2472	791.6966	13726.95	12841.65
837.3922	793.7654	13185.95	12301.05
837.5373	795.8335	12833.55	11949.3
837.6823	797.901	12640.25	11752.7
837.8274	799.9678	12559.7	11670.7
837.9724	802.0339	12564.25	11679.75
838.1175	804.0993	12605.25	11711.1
838.2626	806.1641	12555.05	11668.35
838.4076	808.2282	12509.75	11625.15
838.5527	810.2916	12411.4	11521.8
838.6978	812.3544	12297.55	11414.6
838.8428	814.4164	12191.45	11307.4
838.9879	816.4778	12189.7	11301.8
839.133	818.5385	12149.45	11262.8
839.2781	820.5986	12191.5	11304.7
839.4232	822.658	12282.3	11393.75
839.5682	824.7166	12330.9	11443.65
839.7133	826.7747	12479.95	11592.8
839.8584	828.832	12646.9	11758.55
840.0035	830.8886	12760.1	11870.9
840.1486	832.9446	12912.5	12025.35
840.2937	834.9999	12938.35	12051.65
840.4388	837.0545	12987.35	12096.3
840.5839	839.1085	13000.75	12111.85
840.729	841.1618	12963.6	12071.6
840.8741	843.2143	12915.75	12026.9
841.0192	845.2662	12809	11922.1
841.1643	847.3175	12718.75	11832.15
841.3095	849.368	12609.15	11723.85
841.4546	851.4179	12456	11567.95
841.5997	853.467	12333.55	11443.8
841.7448	855.5155	12201.85	11312.85
841.8899	857.5633	12053.6	11163.1
842.0351	859.6105	11955.55	11068.8
842.1802	861.6569	11857.6	10967.85
842.3253	863.7027	11798.95	10909.7
842.4704	865.7478	11776.85	10888.15
842.6156	867.7922	11789.45	10902.45
842.7607	869.8359	11811.85	10920.25
842.9058	871.8789	11934.75	11043.25
843.0509	873.9212	12103.1	11179.65
843.1961	875.9629	12233.95	11343.2
843.3412	878.0039	12417	11526
843.4863	880.0441	12484.95	11594.5
843.6315	882.0837	12481.5	11589
843.7766	884.1226	12353.2	11461.05
843.9218	886.1609	12215.5	11326.5
844.0669	888.1984	12090	11197.4
844.212	890.2352	12043.75	11154.95
844.3572	892.2714	11999.8	11106.4
844.5023	894.3069	11944.3	11052.8
844.6475	896.3416	11871	10978
844.7926	898.3757	11824.15	10932.9
844.9377	900.4091	11769.4	10875.7
845.0829	902.4418	11784.2	10885.5
845.228	904.4739	11782.15	10884.5
845.3732	906.5052	11759.8	10864.4
845.5183	908.5358	11654.65	10762.05
845.6635	910.5658	11494.7	10599.85
845.8086	912.595	11313.5	10419.1
845.9538	914.6236	11154.15	10262.15
846.0989	916.6515	11105.8	10213.5
846.2441	918.6786	11095.2	10199.15
846.3892	920.7051	11157.15	10260.95
846.5344	922.7309	11239.3	10346.05
846.6795	924.756	11293.4	10399.7
846.8246	926.7804	11370.25	10476.05
846.9698	928.8041	11333.35	10437.85
847.1149	930.8272	11375.8	10480.95
847.2601	932.8495	11291.15	10395.4
847.4052	934.8711	11210.65	10314.85
847.5504	936.892	11043.85	10150.5
847.6955	938.9123	10858.35	9962.1
847.8407	940.9318	10720.45	9827.35
847.9858	942.9506	10602.7	9706.4
848.131	944.9688	10482.8	9587.55
848.2761	946.9862	10447.55	9554.65
848.4213	949.003	10375.75	9480.05
848.5664	951.019	10381.4	9488.45
848.7115	953.0344	10369.05	9476.95
848.8567	955.0491	10403.1	9507.7
849.0018	957.063	10458	9565.9
849.147	959.0763	10561.05	9664.5
849.2921	961.0888	10601.8	9705.4
849.4373	963.1007	10664.7	9773.6
849.5824	965.1119	10702.3	9810.3
849.7275	967.1223	10712.8	9823.4
849.8727	969.1321	10717.95	9828.1
850.0178	971.1412	10757.95	9867.5
850.1629	973.1495	10774	9884.1
850.3081	975.1572	10837.05	9909.55
850.4532	977.1641	10818	9923.55
850.5983	979.1704	10795.95	9901.3
850.7435	981.1759	10766.45	9867.65
850.8886	983.1808	10831.8	9936.2
851.0337	985.1849	10930.95	10024.3
851.1788	987.1884	11082.9	10184.75
851.324	989.1911	11254.3	10354.35
851.4691	991.1932	11413	10517.7
851.6142	993.1945	11461.6	10567.5
851.7593	995.1951	11410.65	10515.75
851.9045	997.1951	11352.55	10450.1
852.0496	999.1943	11261.8	10365.4
852.1947	1001.1928	11193.65	10295.7
852.3398	1003.1906	11174.1	10279.5
852.4849	1005.1877	11194.65	10299.5
852.63	1007.1841	11150.65	10255.05
852.7751	1009.1798	11083.8	10187.45
852.9202	1011.1748	10900.5	10003.85
853.0653	1013.1691	10679.6	9783.2
853.2104	1015.1627	10446.25	9552.35
853.3555	1017.1556	10230.85	9337.45
853.5006	1019.1477	10117	9220.85
853.6457	1021.1392	10043.3	9149.6
853.7908	1023.1299	10038	9144.75
853.9359	1025.12	10052.2	9159.35
854.081	1027.1093	10086.35	9196.05
854.2261	1029.0979	10170.3	9284.55
854.3712	1031.0859	10233.7	9343.7
854.5163	1033.0731	10248.3	9356.2
854.6613	1035.0596	10160.5	9268.55
854.8064	1037.0454	9972.1	9077.05
854.9515	1039.0304	9850.65	8954.45
855.0965	1041.0148	9719.25	8824.8
855.2416	1042.9985	9637.9	8742.95
855.3867	1044.9814	9560.1	8666.95
855.5317	1046.9636	9542.8	8648.45
855.6768	1048.9452	9494.15	8600
855.8219	1050.926	9479.65	8585.85
855.9669	1052.9061	9487.55	8592.6
856.112	1054.8855	9463.9	8566.15
856.257	1056.8642	9494.35	8599.6
856.4021	1058.8421	9524.5	8625.45
856.5471	1060.8194	9552.4	8656.25
856.6921	1062.7959	9575.6	8678.85
856.8372	1064.7717	9592.3	8695.8
856.9822	1066.7469	9580.6	8682.85
857.1272	1068.7213	9566.95	8669.3
857.2723	1070.695	9537.4	8640.6
857.4173	1072.6679	9457.1	8561
857.5623	1074.6402	9399.75	8506.8
857.7073	1076.6117	9386.65	8484.55
857.8523	1078.5826	9392.7	8495
857.9973	1080.5527	9417.5	8518.25
858.1423	1082.5221	9548.65	8650.4
858.2873	1084.4908	9745.25	8849.15
858.4323	1086.4587	9957.65	9060.75
858.5773	1088.426	10101.95	9204.45
858.7223	1090.3925	10080.85	9180.15
858.8673	1092.3584	10000.05	9105.2
859.0123	1094.3235	9847.45	8953.15
859.1573	1096.2879	9756.4	8861.1
859.3022	1098.2515	9718.2	8820.6
859.4472	1100.2145	9757	8860.6
859.5922	1102.1767	9829.5	8931.4
859.7371	1104.1382	9973.5	9077.35
859.8821	1106.099	10200	9300.85
860.027	1108.0591	10406.2	9510
860.172	1110.0185	10521.55	9624.25
860.3169	1111.9771	10531.9	9635.2
860.4619	1113.9351	10319.45	9423.7
860.6068	1115.8923	9993.8	9099.75
860.7517	1117.8488	9662.25	8762.65
860.8967	1119.8045	9382	8487.2
861.0416	1121.7596	9214.4	8314.6
861.1865	1123.7139	9170.3	8275.15
861.3314	1125.6675	9162.85	8267.55
861.4763	1127.6204	9242.25	8350.9
861.6212	1129.5726	9231.15	8333.7
861.7661	1131.524	9224.75	8329.4
861.911	1133.4748	9220.3	8322.25
862.0559	1135.4248	9219.5	8322.05
862.2008	1137.3741	9238.25	8342.9
862.3457	1139.3226	9210.55	8311.8
862.4905	1141.2705	9158.3	8262.25
862.6354	1143.2176	9081.2	8177.5
862.7803	1145.164	9072.8	8176.95
862.9251	1147.1097	9078.1	8180.55
863.07	1149.0546	9046.8	8148.25
863.2148	1150.9989	8969.75	8072.5
863.3597	1152.9424	8782.75	7886.95
863.5045	1154.8852	8577.1	7679.8
863.6493	1156.8272	8475.1	7579.2
863.7942	1158.7686	8400	7496.65
863.939	1160.7092	8374.25	7476.55
864.0838	1162.6491	8347.95	7448.8
864.2286	1164.5883	8418.3	7521.7
864.3734	1166.5267	8508.2	7612.9
864.5182	1168.4644	8619.4	7720.45
864.663	1170.4014	8818.2	7917.6
864.8078	1172.3377	9066.4	8172.45
864.9526	1174.2732	9272.05	8378.95
865.0974	1176.2081	9511.7	8614.95
865.2421	1178.1421	9696.3	8795.2
865.3869	1180.0755	9890.6	8994.25
865.5317	1182.0082	9940.35	9043.35
865.6764	1183.9401	9898.05	9001.8
865.8212	1185.8713	9746.65	8853.85
865.9659	1187.8017	9491.2	8599.65
866.1106	1189.7315	9235.6	8344.6
866.2554	1191.6605	8980.95	8059.95
866.4001	1193.5888	8749.75	7855.35
866.5448	1195.5163	8627.7	7733.9
866.6895	1197.4432	8520.4	7623.45
866.8342	1199.3693	8484.75	7589.5
866.9789	1201.2947	8459.45	7561.6
867.1236	1203.2193	8432	7535.25
867.2683	1205.1432	8435.65	7539.2
867.413	1207.0664	8456.9	7560.35
867.5576	1208.9889	8504.25	7603.6
867.7023	1210.9106	8588.4	7692.75
867.847	1212.8316	8614.1	7718.35
867.9916	1214.7519	8707.45	7802.8
868.1363	1216.6715	8694.1	7798
868.2809	1218.5903	8694.1	7796.35
868.4255	1220.5084	8674.45	7778.85
868.5701	1222.4257	8634.8	7740.9
868.7148	1224.3424	8595.25	7697.6
868.8594	1226.2583	8646.15	7744.2
869.004	1228.1735	8732.9	7834
869.1486	1230.0879	8847.75	7952.15
869.2932	1232.0016	8955.05	8056.7
869.4377	1233.9146	9002.35	8104.8
869.5823	1235.8269	8890.5	7995.7
869.7269	1237.7384	8751.25	7855.15
869.8715	1239.6492	8557	7660.8
870.016	1241.5592	8443.3	7546.4
870.1606	1243.4686	8352.65	7454.75
870.3051	1245.3772	8290.5	7394.6
870.4496	1247.285	8256.5	7359.3
870.5941	1249.1922	8236.6	7340.8
870.7387	1251.0986	8210	7313.75
870.8832	1253.0042	8204.3	7307.6
871.0277	1254.9092	8239.4	7343.25
871.1722	1256.8134	8341.95	7445.7
871.3167	1258.7169	8495	7601.1
871.4611	1260.6196	8652.65	7759.85
871.6056	1262.5216	8815.85	7919.7
871.7501	1264.4229	8984.05	8090.15
871.8945	1266.3234	9115.85	8218.65
872.039	1268.2232	9169.35	8273.1
872.1834	1270.1223	9165.55	8267.4
872.3278	1272.0207	9138.15	8245.75
872.4723	1273.9183	9084	8179.9
872.6167	1275.8151	9025.05	8129.5
872.7611	1277.7113	8943.55	8046.85
872.9055	1279.6067	8783.3	7890
873.0499	1281.5014	8661.7	7764.3
873.1943	1283.3953	8538.4	7638.05
873.3386	1285.2885	8511.55	7615.6
873.483	1287.181	8493.05	7594.85
873.6274	1289.0727	8539.65	7646.85
873.7717	1290.9637	8603.6	7707.35
873.9161	1292.854	8709.9	7812.05
874.0604	1294.7435	8827.55	7930.85
874.2047	1296.6323	9015.95	8119.05
874.349	1298.5204	9239.5	8340.75
874.4933	1300.4077	9472.85	8573.85
874.6376	1302.2943	9611.5	8714.6
874.7819	1304.1802	9667.75	8771.9
874.9262	1306.0653	9563.3	8664.9
875.0705	1307.9497	9446.45	8551.9
875.2147	1309.8333	9324.4	8427.85
875.359	1311.7162	9284.5	8388.65
875.5032	1313.5984	9324.75	8423.8
875.6475	1315.4798	9462.5	8555.15
875.7917	1317.3605	9585.85	8672.8
875.9359	1319.2405	9693.45	8793.7
876.0801	1321.1197	9704.4	8807
876.2243	1322.9982	9637.35	8734.3
876.3685	1324.876	9601.1	8701.95
876.5127	1326.753	9538.3	8641.3
876.6569	1328.6293	9545.95	8646.55
876.801	1330.5048	9531.25	8632.15
876.9452	1332.3796	9486.3	8592.85
877.0893	1334.2537	9482.7	8560
877.2335	1336.127	9447.6	8552.5
877.3776	1337.9996	9408.85	8513.3
877.5217	1339.8714	9360.4	8462.75
877.6658	1341.7426	9335.7	8394.6
877.8099	1343.6129	9261.05	8364
877.954	1345.4826	9208.5	8311.95
878.0981	1347.3515	9167.35	8265.3
878.2422	1349.2196	9139.75	8241.2
878.3862	1351.087	9128.8	8231.25
878.5303	1352.9537	9173.35	8274.8
878.6743	1354.8197	9310.4	8415.15
878.8184	1356.6849	9498.8	8602
878.9624	1358.5493	9558.45	8661.75
879.1064	1360.4131	9585	8688.9
879.2504	1362.276	9524.95	8626.55
879.3944	1364.1383	9399.65	8503.25
879.5384	1365.9998	9128.05	8223
879.6823	1367.8606	8848.15	7950.5
879.8263	1369.7206	8556	7657.15
879.9702	1371.5799	8361.65	7461.55
880.1142	1373.4384	8203.55	7306.15
880.2581	1375.2962	8066.25	7166.4
880.402	1377.1533	7829.85	6933.55
880.5459	1379.0096	7542.25	6645.2
880.6898	1380.8652	7276.75	6380.6
880.8337	1382.7201	7000.35	6105.2
880.9776	1384.5742	6809.45	5909.85
881.1215	1386.4275	6641.85	5742.6
881.2653	1388.2802	6521.7	5626.5
881.4092	1390.132	6422.5	5524.85
881.553	1391.9832	6375.9	5478.05
881.6968	1393.8336	6291.25	5395.85
881.8406	1395.6832	6265.45	5364.85
881.9844	1397.5322	6243.2	5345.5
882.1282	1399.3803	6240.15	5337.8
882.272	1401.2278	6214.35	5317.15
882.4158	1403.0745	6190.3	5293.4
882.5595	1404.9204	6191.65	5292.95
882.7033	1406.7656	6220.35	5324.15
882.847	1408.6101	6235.15	5337
882.9908	1410.4538	6260.7	5362.7
883.1345	1412.2968	6286.4	5389.45
883.2782	1414.139	6356.25	5459.65
883.4219	1415.9805	6445.3	5550.25
883.5656	1417.8213	6525.15	5624
883.7092	1419.6613	6662.1	5762.5
883.8529	1421.5006	6838.85	5939.85
883.9965	1423.3391	7123.9	6226.45
884.1402	1425.1769	7482.55	6584.7
884.2838	1427.0139	7998.25	7100.8
884.4274	1428.8502	8569.5	7671.05
884.571	1430.6858	9159.2	8261.9
884.7146	1432.5206	9582.95	8688.7
884.8582	1434.3547	9825.3	8929.4
885.0018	1436.188	9865.85	8970
885.1453	1438.0206	9783.4	8885.95
885.2889	1439.8524	9654.55	8756.65
885.4324	1441.6835	9523.75	8624.8
885.5759	1443.5139	9439.2	8538.05
885.7194	1445.3435	9369.55	8472.25
885.8629	1447.1724	9318.15	8420.35
886.0064	1449.0005	9251.2	8353.6
886.1499	1450.8279	9145.8	8248.7
886.2933	1452.6545	9112.4	8217.25
886.4368	1454.4804	9116.05	8220.8
886.5802	1456.3056	9135.65	8235.05
886.7237	1458.13	9026.15	8129.85
886.8671	1459.9536	8806.3	7910.35
887.0105	1461.7766	8438.75	7545.15
887.1539	1463.5987	8019.6	7122.3
887.2972	1465.4202	7638.55	6741.6
887.4406	1467.2409	7290.65	6396.15
887.584	1469.0608	7009.85	6113.75
887.7273	1470.88	6741.6	5846.95
887.8706	1472.6984	6552.55	5658.6
888.0139	1474.5161	6323.3	5424.2
888.1572	1476.3331	6166.15	5270.85
888.3005	1478.1493	6038.2	5140.8
888.4438	1479.9648	5950.7	5055.1
888.5871	1481.7795	5868.35	4973.4
888.7303	1483.5935	5796.85	4900.9
888.8736	1485.4067	5699.3	4805.1
889.0168	1487.2192	5677.1	4780.05
889.16	1489.031	5649.75	4752.85
889.3032	1490.842	5585.8	4689.35
889.4464	1492.6522	5560.55	4664.5
889.5896	1494.4618	5511.45	4615.4
889.7327	1496.2705	5513.75	4619.7
889.8759	1498.0785	5466.35	4570.05
890.019	1499.8858	5431.35	4532.15
890.1622	1501.6924	5405.15	4509.3
890.3053	1503.4981	5405.55	4510.05
890.4484	1505.3032	5387.55	4491.5
890.5914	1507.1075	5349.2	4452.55
890.7345	1508.911	5331	4435.95
890.8776	1510.7138	5294.4	4397.7
891.0206	1512.5159	5262.55	4365.95
891.1637	1514.3172	5218.3	4321.75
891.3067	1516.1178	5181.85	4287.9
891.4497	1517.9176	5173.55	4276.8
891.5927	1519.7166	5145.2	4249.75
891.7357	1521.515	5127.05	4225.05
891.8786	1523.3126	5119.05	4223.25
892.0216	1525.1094	5076.05	4180.6
892.1645	1526.9055	5051.7	4157.3
892.3074	1528.7008	5032.8	4135.1
892.4503	1530.4954	5011.85	4113.8
892.5932	1532.2893	5011.15	4116.7
892.7361	1534.0824	4997.15	4101.05
892.879	1535.8747	4989.8	4094.95
893.0218	1537.6663	4977.95	4081.35
893.1647	1539.4572	4968	4072.55
893.3075	1541.2473	4956.1	4058.25
893.4503	1543.0367	4947.15	4052.3
893.5931	1544.8253	4927.15	4025.85
893.7359	1546.6132	4967.8	4067.4
893.8787	1548.4003	4974.8	4070.5
894.0214	1550.1867	4978.85	4073.25
894.1642	1551.9723	4989.05	4089.65
894.3069	1553.7572	5014.4	4118.4
894.4496	1555.5414	5048.3	4154.7
894.5923	1557.3247	5095.1	4202.05
894.735	1559.1074	5156.7	4262.7
894.8777	1560.8893	5218.2	4326.05
895.0204	1562.6705	5268.05	4374.7
895.163	1564.4509	5365.35	4472
895.3056	1566.2305	5424.75	4532.2
895.4482	1568.0094	5534	4642.3
895.5908	1569.7876	5586.65	4692.7
895.7334	1571.565	5644.9	4751.2
895.876	1573.3417	5654.6	4760.2
896.0186	1575.1176	5660.25	4767.3
896.1611	1576.8928	5622.9	4728.55
896.3036	1578.6672	5525.45	4632.3
896.4461	1580.4409	5437.15	4545.45
896.5886	1582.2138	5309.85	4416.95
896.7311	1583.986	5203.55	4310.6
896.8736	1585.7575	5126.9	4233.25
897.0161	1587.5282	5055.85	4163.75
897.1585	1589.2981	5018.15	4125.9
897.3009	1591.0673	4998.65	4106.75
897.4433	1592.8358	4977.15	4087.45
897.5857	1594.6035	4986.3	4092.35
897.7281	1596.3704	4991.3	4098.4
897.8705	1598.1366	5005.8	4113.65
898.0128	1599.9021	5039.35	4148.15
898.1551	1601.6668	5079.7	4184.9
898.2975	1603.4308	5152.65	4260.65
898.4398	1605.194	5230.6	4332.45
898.5821	1606.9564	5337.45	4445.6
898.7243	1608.7182	5462.95	4565.75
898.8666	1610.4791	5614.95	4724.7
899.0088	1612.2394	5759.3	4867.35
899.1511	1613.9988	5970.2	5079
899.2933	1615.7576	6179.6	5289.45
899.4355	1617.5156	6417.05	5518.35
899.5776	1619.2728	6624.15	5731.65
899.7198	1621.0293	6762.4	5873.05
899.862	1622.785	6834.4	5937.7
900.0041	1624.54	6750.35	5857.3
900.1462	1626.2942	6613.9	5721.4
900.2883	1628.0477	6371.6	5479.8
900.4304	1629.8005	6171.55	5277.9
900.5725	1631.5525	5968.2	5075.5
900.7145	1633.3037	5763.3	4871.85
900.8566	1635.0542	5630.35	4739.15
900.9986	1636.804	5527.55	4637
901.1406	1638.553	5494.2	4532.7
901.2826	1640.3013	5393.75	4503.65
901.4245	1642.0488	5380.6	4486.35
901.5665	1643.7955	5404.8	4517.2
901.7085	1645.5416	5453.4	4562.75
901.8504	1647.2868	5538.55	4649.75
901.9923	1649.0313	5626.25	4736.65
902.1342	1650.7751	5785.7	4892.1
902.2761	1652.5181	5963.15	5073.45
902.4179	1654.2604	6196.15	5307.1
902.5598	1656.0019	6470.05	5583.25
902.7016	1657.7427	6810.35	5920.85
902.8434	1659.4828	7124.6	6234.75
902.9852	1661.222	7321.4	6430
903.127	1662.9606	7339	6448.2
903.2687	1664.6984	7157.05	6267.15
903.4105	1666.4354	6789.05	5898.05
903.5522	1668.1717	6295.35	5405.05
903.6939	1669.9072	5823.05	4931.9
903.8356	1671.642	5432.2	4538.5
903.9773	1673.3761	5095.45	4205.65
904.119	1675.1094	4858.85	3969.15
904.2606	1676.8419	4650.5	3761.4
904.4022	1678.5737	4522.3	3633.65
904.5439	1680.3048	4425.2	3534.5
904.6855	1682.0351	4335.7	3445.35
904.827	1683.7646	4265.65	3372.7
904.9686	1685.4934	4209	3318.2
905.1101	1687.2215	4165.65	3275.2
905.2517	1688.9488	4116.8	3227.4
905.3932	1690.6754	4087.5	3199
905.5347	1692.4012	4074.5	3187
905.6761	1694.1263	4050.65	3161.1
905.8176	1695.8506	4015.3	3125.5
905.9591	1697.5742	4004.5	3115.5
906.1005	1699.297	3964.45	3076.15
906.2419	1701.0191	3935.55	3048.8
906.3833	1702.7404	3921.15	3031.3
906.5246	1704.461	3896.8	3004.8
906.666	1706.1808	3863.8	2973.5
906.8073	1707.8999	3863.5	2972.55
906.9487	1709.6182	3843	2955.8
907.09	1711.3358	3834.5	2945.8
907.2313	1713.0527	3808.45	2921.6
907.3725	1714.7688	3781.1	2886.85
907.5138	1716.4841	3784.7	2895
907.655	1718.1987	3778.15	2885.45
907.7962	1719.9126	3752.45	2865.4
907.9374	1721.6257	3744.05	2856.1
908.0786	1723.338	3719	2830.1
908.2198	1725.0496	3707.6	2819.8
908.3609	1726.7605	3700.25	2811.85
908.502	1728.4706	3686.15	2796.9
908.6431	1730.18	3673.7	2786.9
908.7842	1731.8886	3646.5	2758.55
908.9253	1733.5964	3656.9	2765.25
909.0664	1735.3036	3650.35	2759.7
909.2074	1737.0099	3630.95	2742.45
909.3484	1738.7156	3615.45	2728.65
909.4894	1740.4204	3598.1	2708.9
909.6304	1742.1246	3596.75	2706.9
909.7714	1743.8279	3582	2695.35
909.9123	1745.5306	3570.5	2681.4
910.0532	1747.2325	3552.05	2664.35
910.1941	1748.9336	3540.05	2651.45
910.335	1750.634	3525.2	2635.6
910.4759	1752.3336	3529.2	2642.65
910.6168	1754.0325	3524.1	2638.95
910.7576	1755.7307	3510.8	2623.4
910.8984	1757.4281	3508	2618.75
911.0392	1759.1247	3512.65	2615
911.18	1760.8206	3503.05	2609.45
911.3208	1762.5158	3485.35	2591.9
911.4615	1764.2102	3464.25	2580.05
911.6022	1765.9039	3468.9	2582.8
911.7429	1767.5968	3454.2	2568
911.8836	1769.289	3449.05	2561.35
912.0243	1770.9804	3449.3	2561.65
912.1649	1772.6711	3438.7	2549.95
912.3056	1774.361	3428.8	2541.35
912.4462	1776.0502	3421.3	2531.75
912.5868	1777.7386	3410	2521.7
912.7274	1779.4263	3392.35	2502.95
912.8679	1781.1132	3410.5	2522.65
913.0084	1782.7994	3395	2506.65
913.149	1784.4849	3382.2	2496.2
913.2895	1786.1696	3403.05	2497.15
913.4299	1787.8535	3369.45	2482
913.5704	1789.5367	3370.85	2482.35
913.7108	1791.2192	3370.7	2484.2
913.8513	1792.9009	3360.35	2447.3
913.9917	1794.5818	3364.3	2476.7
914.132	1796.2621	3351.9	2467.15
914.2724	1797.9415	3326.5	2440.8
914.4128	1799.6202	3331.05	2444.15
914.5531	1801.2982	3319.65	2432.7
914.6934	1802.9755	3314.4	2426.65
914.8337	1804.6519	3307.3	2418.6
914.9739	1806.3277	3297.1	2411.45
915.1142	1808.0027	3290.5	2405.35
915.2544	1809.6769	3288.2	2402.65
915.3946	1811.3504	3289.7	2403.75
915.5348	1813.0231	3282.35	2393.5
915.675	1814.6951	3273.9	2388.05
915.8151	1816.3664	3268.45	2380.6
915.9553	1818.0369	3261.75	2372.95
916.0954	1819.7067	3254.55	2369.45
916.2355	1821.3757	3253.9	2363.45
916.3755	1823.044	3246	2360.35
916.5156	1824.7115	3242.15	2353.7
916.6556	1826.3783	3224.05	2337.1
916.7956	1828.0443	3217.25	2330.95
916.9356	1829.7096	3228.35	2340.3
917.0756	1831.3741	3217.85	2328.35
917.2155	1833.0379	3212.2	2324
917.3555	1834.701	3197.5	2308.4
917.4954	1836.3633	3190.1	2302.85
917.6353	1838.0248	3180.55	2291.05
917.7751	1839.6856	3185.05	2298.5
917.915	1841.3457	3187	2300.5
918.0548	1843.005	3176	2289.75
918.1946	1844.6636	3184.8	2298.05
918.3344	1846.3214	3178.55	2292.45
918.4742	1847.9785	3182.95	2295.9
918.6139	1849.6349	3167.5	2278.6
918.7537	1851.2904	3165.8	2268.8
918.8934	1852.9453	3150.05	2262.55
919.0331	1854.5994	3148.95	2261.4
919.1727	1856.2528	3141.65	2248.85
919.3124	1857.9054	3140	2254.55
919.452	1859.5572	3125	2238.5
919.5916	1861.2083	3112	2223.25
919.7312	1862.8587	3126.1	2240.2
919.8708	1864.5084	3126.1	2237.3
920.0103	1866.1572	3112.35	2226.2
920.1498	1867.8054	3092.2	2203.8
920.2893	1869.4528	3093.55	2206.9
920.4288	1871.0994	3090.6	2204
920.5683	1872.7453	3074.3	2186.6
920.7077	1874.3905	3084.3	2181.25
920.8471	1876.0349	3068.3	2181.5
920.9865	1877.6786	3062.25	2173.15
921.1259	1879.3215	3062.4	2176.55
921.2653	1880.9637	3047.4	2158.15
921.4046	1882.6051	3050.4	2164.45
921.5439	1884.2458	3047	2156.75
921.6832	1885.8858	3036.6	2152.05
921.8225	1887.525	3037.15	2149.15
921.9617	1889.1634	3023.05	2135
922.101	1890.8011	3021.85	2136.15
922.2402	1892.4381	3004.45	2118.3
922.3794	1894.0743	3003.2	2117.85
922.5185	1895.7098	2984.1	2097.5
922.6577	1897.3446	2994	2108.75
922.7968	1898.9786	2990.95	2100.5
922.9359	1900.6118	2983.1	2096.15
923.075	1902.2443	2969.3	2079.55
923.214	1903.8761	2969.05	2082.75
923.3531	1905.5071	2957.6	2069.8
923.4921	1907.1374	2946.65	2061.25
923.6311	1908.7669	2957.35	2070.95
923.77	1910.3957	2945.95	2058.55
923.909	1912.0237	2929.9	2042.7
924.0479	1913.651	2932.7	2044.3
924.1868	1915.2776	2922.1	2037.85
924.3257	1916.9034	2913.8	2027.95
924.4646	1918.5285	2917.2	2032.65
924.6034	1920.1528	2909.5	2021.75
924.7422	1921.7764	2903.75	2016.35
924.881	1923.3992	2906	2019.55
925.0198	1925.0213	2881.55	1995.05
925.1586	1926.6427	2882.15	1995.95
925.2973	1928.2633	3071.9	1959.85
925.436	1929.8832	2896.9	2007.05
925.5747	1931.5023	2856.4	1969.85
925.7134	1933.1207	2846.15	1960.85
925.852	1934.7383	2838.5	1953.05
925.9906	1936.3552	2848.95	1963.4
926.1292	1937.9714	2829.7	1945
926.2678	1939.5868	2829.25	1939.95
926.4064	1941.2015	2818.65	1930.8
926.5449	1942.8154	2805.25	1919.05
926.6834	1944.4286	2801.65	1913.35
926.8219	1946.041	2812.4	1902.3
926.9604	1947.6528	2792.35	1901.2
927.0988	1949.2637	2776.5	1892.1
927.2372	1950.8739	2766.2	1878.65
927.3756	1952.4834	2761.2	1875.9
927.514	1954.0921	2755.4	1870.3
927.6523	1955.7001	2756.85	1867.6
927.7907	1957.3074	2740.45	1856.95
927.929	1958.9139	2742.2	1854.95
928.0673	1960.5197	2742.6	1853.35
928.2055	1962.1247	2713.3	1825.6
928.3438	1963.729	2713.9	1827.45
928.482	1965.3325	2719.7	1812.85
928.6202	1966.9353	2699.2	1813.3
928.7584	1968.5374	2694.75	1807.55
928.8965	1970.1387	2687.5	1802.45
929.0346	1971.7393	2686.95	1801.4
929.1727	1973.3392	2684.3	1799.55
929.3108	1974.9383	2679.5	1793.9
929.4489	1976.5366	2664.95	1779.55
929.5869	1978.1342	2663.55	1778.15
929.7249	1979.7311	2659.95	1773.7
929.8629	1981.3273	2653.2	1765.95
930.0009	1982.9227	2648.45	1762.15
930.1388	1984.5173	2627.3	1742.8
930.2767	1986.1112	2634.9	1750.15
930.4146	1987.7044	2626.95	1741.1
930.5525	1989.2968	2624.2	1738.45
930.6904	1990.8885	2610.8	1721.3
930.8282	1992.4795	2622.7	1736.05
930.966	1994.0697	2601	1716.25
931.1038	1995.6592	2600.65	1715.1
931.2415	1997.2479	2605.55	1720.85
931.3793	1998.8359	2596.15	1709.25
931.517	2000.4232	2589.65	1705.5
931.6547	2002.0097	2586.05	1704.4
931.7923	2003.5955	2579.2	1694
931.93	2005.1805	2576.75	1689.75
932.0676	2006.7648	2581.1	1695.3
932.2052	2008.3484	2563.2	1677.95
932.3427	2009.9312	2577.5	1691.5
932.4803	2011.5133	2558.9	1676.4
932.6178	2013.0946	2557.6	1673.7
932.7553	2014.6752	2543.45	1660.3
932.8928	2016.2551	2547.1	1661.35
933.0302	2017.8342	2526.8	1642.6
933.1676	2019.4126	2540.35	1656.4
933.305	2020.9902	2526.35	1642.4
933.4424	2022.5672	2520.45	1634.05
933.5798	2024.1433	2538.15	1647.9
933.7171	2025.7188	2516.6	1632.4
933.8544	2027.2935	2517.55	1631
933.9917	2028.8674	2510.65	1627
934.129	2030.4406	2500.2	1617.7
934.2662	2032.0131	2496.4	1613.4
934.4034	2033.5849	2489.55	1603.35
934.5406	2035.1559	2484.05	1598.7
934.6778	2036.7261	2479.35	1594.2
934.8149	2038.2957	2478.65	1593.55
934.952	2039.8645	2463.05	1578.8
935.0891	2041.4325	2469.4	1581.5
935.2262	2042.9998	2464.95	1580.9
935.3632	2044.5664	2450.35	1566.1
935.5002	2046.1323	2467.35	1583.65
935.6372	2047.6974	2452.35	1568.25
935.7742	2049.2617	2437.7	1553.45
935.9111	2050.8254	2470.95	1550.6
936.048	2052.3883	2447	1560.95
936.1849	2053.9504	2444.75	1559
936.3218	2055.5118	2431.9	1543.75
936.4586	2057.0725	2427.2	1539.45
936.5955	2058.6325	2418.45	1532.75
936.7323	2060.1917	2410.3	1526.3
936.869	2061.7502	2411.85	1523.7
937.0058	2063.3079	2400.25	1516
937.1425	2064.8649	2404.15	1514.3
937.2792	2066.4212	2399.55	1513.4
937.4159	2067.9767	2402.2	1518.9
937.5525	2069.5315	2380.5	1496.85
937.6891	2071.0856	2379.4	1495.3
937.8257	2072.6389	2377.9	1490.2
937.9623	2074.1915	2362.8	1480.4
938.0989	2075.7433	2363.3	1475.9
938.2354	2077.2945	2358.7	1475.45
938.3719	2078.8448	2347	1460.1
938.5084	2080.3945	2344.9	1458.95
938.6448	2081.9434	2339.85	1455.65
938.7812	2083.4916	2338.85	1453.45
938.9176	2085.039	2327.8	1443.45
939.054	2086.5857	2325.8	1437.45
939.1903	2088.1317	2326	1437.55
939.3267	2089.677	2321.3	1434.8
939.463	2091.2215	2318.3	1431.6
939.5992	2092.7652	2311.6	1424.75
939.7355	2094.3083	2318.65	1430.65
939.8717	2095.8506	2313.45	1427.85
940.0079	2097.3921	2312.1	1427.6
940.1441	2098.933	2303.3	1418.05
940.2802	2100.4731	2297.5	1412.5
940.4163	2102.0124	2300.4	1405.9
940.5524	2103.5511	2298.4	1412.15
940.6885	2105.089	2290.9	1404.6
940.8245	2106.6261	2292.85	1405.8
940.9606	2108.1626	2295.7	1407.55
941.0965	2109.6983	2304.75	1391.55
941.2325	2111.2332	2280.4	1393.9
941.3684	2112.7675	2277.75	1392.1
941.5044	2114.301	2266.5	1378.65
941.6403	2115.8337	2269.75	1383
941.7761	2117.3657	2264.6	1377.7
941.912	2118.897	2266.6	1380.6
942.0478	2120.4276	2260	1366.45
942.1835	2121.9575	2252.65	1365.4
942.3193	2123.4866	2272.8	1373
942.455	2125.0149	2249.3	1359
942.5907	2126.5426	2242.15	1355.7
942.7264	2128.0695	2246.8	1358.05
942.8621	2129.5956	2240.95	1356.1
942.9977	2131.1211	2235.55	1346.3
943.1333	2132.6458	2227.5	1341.35
943.2689	2134.1698	2227.1	1341.2
943.4044	2135.693	2220.15	1332.05
943.54	2137.2155	2214.65	1324.95
943.6755	2138.7373	2214.65	1328.8
943.8109	2140.2584	2206.5	1321.7
943.9464	2141.7787	2206.9	1314.9
944.0818	2143.2983	2203.05	1320.15
944.2172	2144.8171	2195	1309.65
944.3526	2146.3353	2193.7	1306.5
944.4879	2147.8527	2191.1	1305.35
944.6232	2149.3693	2194.65	1309.15
944.7585	2150.8853	2189.9	1303.6
944.8938	2152.4005	2178	1290.75
945.029	2153.9149	2170.25	1282.4
945.1642	2155.4287	2169.6	1281.5
945.2994	2156.9417	2164.65	1275.6
945.4346	2158.454	2158.6	1269.75
945.5697	2159.9655	2160.85	1275.6
945.7048	2161.4764	2169	1281.75
945.8399	2162.9865	2153	1267.5
945.9749	2164.4958	2152	1265.8
946.1099	2166.0045	2151.35	1262.8
946.2449	2167.5124	2153.1	1266.85
946.3799	2169.0195	2146.5	1260.15
946.5148	2170.526	2143.25	1257.05
946.6498	2172.0317	2148.45	1260.8
946.7846	2173.5367	2142.6	1255.3
946.9195	2175.0409	2138.95	1251.3
947.0543	2176.5445	2144.85	1258.75
947.1891	2178.0473	2127.95	1241.75
947.3239	2179.5494	2129.75	1239.3
947.4587	2181.0507	2116	1230.75
947.5934	2182.5513	2117.9	1230.35
947.7281	2184.0512	2119.4	1233.75
947.8628	2185.5504	2106.25	1220.25
947.9974	2187.0488	2100.3	1212.95
948.132	2188.5465	2112.8	1226.55
948.2666	2190.0435	2092	1204.35
948.4012	2191.5397	2089.8	1203.9
948.5357	2193.0353	2089.95	1202.85
948.6702	2194.5301	2079.7	1192.7
948.8047	2196.0241	2086	1198.75
948.9392	2197.5175	2077.05	1187.55
949.0736	2199.0101	2080.6	1191.1
949.208	2200.502	2081.25	1195.45
949.3424	2201.9931	2066.9	1181.9
949.4767	2203.4835	2057.05	1170.5
949.611	2204.9733	2057.35	1163.65
949.7453	2206.4622	2056.25	1171.95
949.8796	2207.9505	2049.75	1161.85
950.0138	2209.438	2042.9	1159.35
950.148	2210.9248	2041.8	1155.4
950.2822	2212.4109	2040.7	1156.6
950.4164	2213.8962	2027.2	1138.05
950.5505	2215.3809	2031.15	1143.6
950.6846	2216.8648	2019.25	1131.45
950.8186	2218.3479	2018.85	1127.55
950.9527	2219.8304	2021.7	1132.1
951.0867	2221.3121	2015.4	1125.5
951.2207	2222.7931	2008.05	1121.35
951.3546	2224.2733	2012.15	1125.6
951.4886	2225.7529	2004.3	1118.5
951.6225	2227.2317	1999.8	1111.4
951.7563	2228.7098	1999.55	1113.2
951.8902	2230.1872	1995.6	1110.8
952.024	2231.6638	1991.15	1102.95
952.1578	2233.1397	1994.25	1100
952.2916	2234.6149	1981.15	1094.75
952.4253	2236.0894	1984.25	1096.7
952.559	2237.5632	1992.3	1097.3
952.6927	2239.0362	1976.75	1088.9
952.8263	2240.5085	1972.35	1084.75
952.9599	2241.9801	1961.4	1075.85
953.0935	2243.4509	1962.05	1076.2
953.2271	2244.921	1945.15	1057.5
953.3606	2246.3904	1949.85	1059.15
953.4941	2247.8591	1942	1055.05
953.6276	2249.3271	1946.1	1059.75
953.7611	2250.7943	1941.75	1053.9
953.8945	2252.2608	1927.7	1042.45
954.0279	2253.7266	1927.95	1040.7
954.1612	2255.1917	1934.65	1047.65
954.2946	2256.656	1931.45	1045.2
954.4279	2258.1197	1919.2	1033.1
954.5612	2259.5826	1929.35	1042.1
954.6944	2261.0447	1919.9	1032.25
954.8276	2262.5062	1911.8	1022.65
954.9608	2263.9669	1918.3	1028.7
955.094	2265.4269	1913.3	1025.7
955.2271	2266.8862	1907.2	1019.2
955.3602	2268.3448	1912.85	1026.4
955.4933	2269.8026	1900.65	1013.45
955.6264	2271.2598	1902.55	1016.1
955.7594	2272.7162	1892.15	1006.85
955.8924	2274.1719	1888.65	1003.4
956.0253	2275.6268	1892.2	1006.1
956.1583	2277.0811	1892.65	1004.15
956.2912	2278.5346	1891.5	1006.15
956.4241	2279.9874	1888.95	1002.4
956.5569	2281.4395	1888.1	1001.95
956.6897	2282.8908	1881	989.9
956.8225	2284.3414	1875.8	987.5
956.9553	2285.7914	1869.9	983.85
957.088	2287.2406	1875.4	987.6
957.2207	2288.689	1869.05	983.55
957.3534	2290.1368	1873.9	986.6
957.486	2291.5838	1862.55	974.95
957.6186	2293.0302	1863.65	974.75
957.7512	2294.4758	1855.45	967.85
957.8838	2295.9206	1866.7	978.35
958.0163	2297.3648	1846.6	960.05
958.1488	2298.8082	1862.1	975.4
958.2813	2300.251	1851.4	964.4
958.4137	2301.693	1839.6	950.05
958.5461	2303.1343	1853.15	964.95
958.6785	2304.5748	1842.95	955.85
958.8108	2306.0147	1839.05	953.7
958.9432	2307.4538	1842.1	953.4
959.0754	2308.8922	1830.45	943
959.2077	2310.3299	1827.4	941.75
959.3399	2311.7669	1829.5	943.75
959.4721	2313.2031	1824.95	938.75
959.6043	2314.6387	1819.95	932.85
959.7365	2316.0735	1816.35	930.1
959.8686	2317.5076	1811.1	923.35
960.0006	2318.941	1811.15	923.25
960.1327	2320.3737	1805.35	916.15
960.2647	2321.8056	1800.7	913.8
960.3967	2323.2369	1801.75	915.9
960.5287	2324.6674	1794.4	905.85
960.6606	2326.0972	1803.8	915.35
960.7925	2327.5263	1799.2	911.95
960.9244	2328.9547	1794.7	908.5
961.0562	2330.3823	1795.2	907.45
961.1881	2331.8092	1794.6	905.3
961.3198	2333.2355	1782.15	895.7
961.4516	2334.661	1772.75	884.5
961.5833	2336.0858	1785.85	895.9
961.715	2337.5098	1778.3	891.35
961.8467	2338.9332	1767.7	878.45
961.9783	2340.3558	1780.35	891.75
962.1099	2341.7778	1773.35	885.95
962.2415	2343.199	1769.25	879.7
962.373	2344.6195	1773.75	888.3
962.5045	2346.0393	1765.4	879.5
962.636	2347.4583	1773	887.1
962.7675	2348.8767	1763.1	874.05
962.8989	2350.2943	1763.9	876.3
963.0303	2351.7113	1765.75	876.6
963.1617	2353.1275	1766.2	882.4
963.293	2354.543	1789.5	878.7
963.4243	2355.9578	1762.6	875.65
963.5556	2357.3718	1756.9	870.65
963.6868	2358.7852	1743.8	855.5
963.818	2360.1978	1750.35	862
963.9492	2361.6098	1748.25	866.5
964.0803	2363.021	1746.25	858.05
964.2114	2364.4315	1737.3	852.65
964.3425	2365.8413	1737.45	849.05
964.4736	2367.2504	1725.85	841.4
964.6046	2368.6587	1730	843.25
964.7356	2370.0664	1726.2	840.9
964.8666	2371.4733	1727.65	841.5
964.9975	2372.8795	1716.15	832.5
965.1284	2374.285	1725.6	839.6
965.2593	2375.6899	1710.1	825.8
965.3901	2377.0939	1709	824.65
965.5209	2378.4973	1703.25	819.05
965.6517	2379.9	1709.85	823.9
965.7825	2381.3019	1701.4	816.55
965.9132	2382.7032	1700.4	815.3
966.0439	2384.1037	1690.25	807.9
966.1745	2385.5035	1695.55	812.1
966.3051	2386.9027	1690.3	808.6
966.4357	2388.3011	1688.45	800.9
966.5663	2389.6987	1684.65	800.05
966.6968	2391.0957	1685.1	800.2
966.8273	2392.492	1682.7	797.55
966.9578	2393.8876	1676.1	791.1
967.0882	2395.2824	1676.65	793
967.2186	2396.6765	1669.75	787.9
967.349	2398.07	1661.8	777.75
967.4793	2399.4627	1675.45	789.65
967.6097	2400.8547	1668.25	785.05
967.7399	2402.246	1664.25	775.7
967.8702	2403.6366	1655.95	772.85
968.0004	2405.0265	1655.9	770.55
968.1306	2406.4156	1656.3	768.3
968.2607	2407.8041	1651.7	765.45
968.3909	2409.1918	1659.35	771
968.521	2410.5789	1645.4	759.9
968.651	2411.9652	1650.95	766.4
968.781	2413.3508	1645.25	761.5
968.911	2414.7358	1640.3	756.65
969.041	2416.12	1638.25	756.25
969.1709	2417.5035	1632.75	748.4
969.3008	2418.8863	1639.05	756.75
969.4307	2420.2684	1633.05	749.65
969.5606	2421.6497	1641.55	757.35
969.6904	2423.0304	1624.9	739.95
969.8201	2424.4104	1623.15	738.55
969.9499	2425.7896	1628.85	743.05
970.0796	2427.1682	1628	744.5
970.2093	2428.546	1614.85	731.85
970.3389	2429.9232	1623.9	738.4
970.4685	2431.2996	1613.95	728.5
970.5981	2432.6753	1610.1	727.55
970.7277	2434.0503	1612.6	726.9
970.8572	2435.4246	1607.15	723.7
970.9867	2436.7982	1617.45	731.95
971.1161	2438.1711	1606.2	724.05
971.2456	2439.5433	1604.4	717.55
971.375	2440.9148	1602.55	713.4
971.5043	2442.2856	1597.2	712.8
971.6336	2443.6557	1595.1	709.8
971.7629	2445.025	1589.45	704.25
971.8922	2446.3937	1588.9	704.45
972.0214	2447.7617	1587.6	701.75
972.1506	2449.1289	1586.35	704.25
972.2798	2450.4955	1594.95	706.9
972.4089	2451.8613	1588.95	704.65
972.538	2453.2265	1583.05	699.55
972.6671	2454.5909	1575.75	692
972.7961	2455.9546	1578.05	694.6
972.9251	2457.3177	1574.2	692.4
973.0541	2458.68	1575.4	688.95
973.1831	2460.0416	1582.55	697.45
973.312	2461.4025	1577.1	688.85
973.4408	2462.7627	1581.3	686.2
973.5697	2464.1222	1576.05	689.8
973.6985	2465.4811	1575.35	690.2
973.8273	2466.8392	1572.75	687
973.956	2468.1966	1579.55	694.75
974.0847	2469.5533	1570.65	685.05
974.2134	2470.9093	1564.15	677.5
974.3421	2472.2645	1574.05	687.7
974.4707	2473.6191	1567.15	682.25
974.5993	2474.973	1562.3	676.5
974.7278	2476.3262	1558.2	673.25
974.8563	2477.6787	1554.3	668.65
974.9848	2479.0305	1549.85	666.9
975.1132	2480.3816	1559.5	673.45
975.2417	2481.7319	1556.7	672.75
975.37	2483.0816	1546.55	660
975.4984	2484.4306	1552	665.6
975.6267	2485.7789	1540.7	656.65
975.755	2487.1264	1547.7	663.2
975.8833	2488.4733	1534.15	649.35
976.0115	2489.8195	1557.2	658.1
976.1397	2491.165	1539.75	651.95
976.2678	2492.5097	1533.5	648.55
976.3959	2493.8538	1523	638.45
976.524	2495.1972	1519.55	633.6
976.6521	2496.5398	1530.65	645.15
976.7801	2497.8818	1529.6	644.45
976.9081	2499.2231	1527.9	644.8
977.036	2500.5637	1521.9	635.45
977.164	2501.9035	1520.15	634.45
977.2918	2503.2427	1516.55	630
977.4197	2504.5812	1520.6	636.5
977.5475	2505.919	1514.85	627.15
977.6753	2507.256	1517.75	632.1
977.8031	2508.5924	1509.15	622.8
977.9308	2509.9281	1508.2	619.4
978.0585	2511.2631	1508.95	623.95
978.1861	2512.5974	1504.9	619.35
978.3137	2513.9309	1502.1	618.2
978.4413	2515.2638	1522.9	611.15
978.5689	2516.596	1506.6	621.65
978.6964	2517.9275	1492.35	607.05
978.8239	2519.2583	1494.15	607.05
978.9513	2520.5884	1496.05	609.95
979.0788	2521.9178	1499.5	613.65
979.2062	2523.2465	1493.05	611.65
979.3335	2524.5745	1491.9	607.85
979.4608	2525.9018	1482.4	597.9
979.5881	2527.2284	1492.4	607.85
979.7154	2528.5543	1484.8	602.85
979.8426	2529.8796	1491.85	606.65
979.9698	2531.2041	1486	600
980.0969	2532.5279	1478.1	594.55
980.224	2533.851	1481.45	596.2
980.3511	2535.1735	1481.05	596.25
980.4781	2536.4952	1480.95	595.95
980.6052	2537.8163	1477.9	593.55
980.7321	2539.1366	1479.4	598.15
980.8591	2540.4562	1475.1	586.9
980.986	2541.7752	1479.8	597.55
981.1129	2543.0935	1478.05	591.85
981.2397	2544.411	1471.15	586.4
981.3665	2545.7279	1468.45	584.75
981.4933	2547.0441	1471.5	586.9
981.62	2548.3596	1465.65	578.85
981.7467	2549.6744	1465.45	579.15
981.8734	2550.9885	1479.85	587.35
982.0001	2552.3019	1459.45	576
982.1267	2553.6146	1461.4	576.65
982.2532	2554.9266	1459.15	574.25
982.3798	2556.2379	1456.45	569.35
982.5063	2557.5485	1454.3	571.25
982.6327	2558.8585	1464.4	572.35
982.7592	2560.1677	1462.6	573.8
982.8856	2561.4762	1448.95	560.95
983.0119	2562.7841	1451.7	563.5
983.1383	2564.0913	1449.25	566.65
983.2646	2565.3977	1452.15	568.05
983.3908	2566.7035	1446.4	561.75
983.517	2568.0086	1449.55	565.2
983.6432	2569.313	1450	565.6
983.7694	2570.6167	1447.75	561
983.8955	2571.9197	1448.6	563.75
984.0216	2573.222	1443.5	554.25
984.1476	2574.5236	1442.5	558.6
984.2737	2575.8246	1441.4	554.3
984.3996	2577.1248	1441.5	553.75
984.5256	2578.4244	1437.4	552.8
984.6515	2579.7232	1440.35	553.4
984.7774	2581.0214	1476.3	557.25
984.9032	2582.3189	1448.25	562.6
985.029	2583.6157	1442.4	552.85
985.1548	2584.9118	1443.6	557.95
985.2806	2586.2072	1439.25	555.3
985.4063	2587.5019	1445.05	562.75
985.5319	2588.7959	1440.05	555.1
985.6576	2590.0893	1452.7	567.6
985.7832	2591.3819	1446.5	561.35
985.9087	2592.6739	1449.05	567.15
986.0343	2593.9652	1455	569.6
986.1597	2595.2557	1454.85	569.75
986.2852	2596.5456	1452.5	565.7
986.4106	2597.8348	1446.6	563.5
986.536	2599.1234	1444.35	561.95
986.6614	2600.4112	1455.75	571.1
986.7867	2601.6983	1453.65	566.8
986.912	2602.9848	1454.65	566.5
987.0372	2604.2705	1454.3	563.8
987.1624	2605.5556	1455.5	570.4
987.2876	2606.84	1446.7	562.9
987.4128	2608.1237	1446.25	560.4
987.5379	2609.4067	1443.4	557.95
987.6629	2610.689	1449.95	556.6
987.788	2611.9707	1446.45	557.05
987.913	2613.2516	1445.55	558.75
988.0379	2614.5319	1440.05	557.45
988.1629	2615.8115	1427.55	540.4
988.2878	2617.0903	1442.4	556.75
988.4126	2618.3685	1429.9	542.6
988.5375	2619.6461	1434.25	549.5
988.6622	2620.9229	1434.25	550
988.787	2622.199	1429.3	544.3
988.9117	2623.4745	1428.35	541.3
989.0364	2624.7493	1426.2	539.6
989.161	2626.0234	1432.9	548.05
989.2857	2627.2968	1429	544.45
989.4102	2628.5695	1429.9	542.5
989.5348	2629.8415	1428	544.1
989.6593	2631.1128	1424.85	540.3
989.7837	2632.3835	1431.1	544.65
989.9082	2633.6535	1421.85	538.05
990.0326	2634.9228	1425	542.55
990.1569	2636.1914	1426.4	542.5
990.2812	2637.4593	1430.05	543.15
990.4055	2638.7265	1420.5	534.8
990.5298	2639.9931	1427.7	542.75
990.654	2641.259	1424.15	538.5
990.7782	2642.5242	1422.7	537.4
990.9023	2643.7887	1419.7	535
991.0264	2645.0525	1418.75	535.45
991.1505	2646.3156	1419.35	535.45
991.2745	2647.5781	1409.5	527.25
991.3985	2648.8398	1415.2	531
991.5225	2650.1009	1441.75	520.3
991.6464	2651.3613	1412.65	527.2
991.7703	2652.6211	1407.35	524.3
991.8942	2653.8801	1403.65	518.3
992.018	2655.1385	1412.1	524.35
992.1418	2656.3961	1411.85	526.45
992.2655	2657.6531	1404.45	520.3
992.3892	2658.9094	1409.35	524.3
992.5129	2660.1651	1406.75	521.1
992.6366	2661.42	1415.5	530.8
992.7602	2662.6743	1409.9	523.65
992.8837	2663.9279	1415.65	532.85
993.0073	2665.1808	1410.95	526.05
993.1307	2666.433	1419	533.25
993.2542	2667.6846	1409.4	525.85
993.3776	2668.9354	1418.5	531.75
993.501	2670.1856	1426.85	540.05
993.6244	2671.4351	1421.55	538.3
993.7477	2672.6839	1425	537.45
993.8709	2673.9321	1426.65	544.15
993.9942	2675.1795	1424	538.8
994.1174	2676.4263	1429.4	544.15
994.2405	2677.6724	1432.95	550.5
994.3637	2678.9179	1431.1	545.05
994.4868	2680.1626	1425.65	540.65
994.6098	2681.4067	1430.25	543.8
994.7328	2682.6501	1433.45	548.15
994.8558	2683.8928	1429.75	547.3
994.9788	2685.1348	1424.95	539.6
995.1017	2686.3761	1419.55	537.1
995.2245	2687.6168	1416.95	532.8
995.3474	2688.8568	1414.45	531.95
995.4702	2690.0961	1413.45	530.35
995.5929	2691.3348	1419.1	534.3
995.7156	2692.5727	1408.95	525.2
995.8383	2693.81	1406.4	523.5
995.961	2695.0466	1401.05	516.1
996.0836	2696.2826	1406.35	519.65
996.2062	2697.5178	1403.95	514
996.3287	2698.7524	1407.9	523.7
996.4512	2699.9863	1413.6	526.05
996.5737	2701.2195	1403.3	520.1
996.6961	2702.452	1408.55	522.6
996.8185	2703.6839	1417.8	532.75
996.9408	2704.9151	1422.85	540.85
997.0631	2706.1456	1428.1	544.4
997.1854	2707.3755	1422.55	536.9
997.3077	2708.6046	1435.05	549.25
997.4299	2709.8331	1449.85	565.85
997.552	2711.0609	1452	568.15
997.6742	2712.2881	1462.15	578.7
997.7963	2713.5145	1465.85	577.2
997.9183	2714.7403	1481	598.2
998.0403	2715.9654	1490.3	603.95
998.1623	2717.1899	1513.95	612.9
998.2842	2718.4136	1508.95	625.5
998.4062	2719.6367	1523.65	638.45
998.528	2720.8591	1545.25	655.25
998.6498	2722.0809	1548.55	664.45
998.7716	2723.3019	1562	673.9
998.8934	2724.5223	1567.85	682.3
999.0151	2725.7421	1568.2	682.7
999.1368	2726.9611	1578.15	693.7
999.2584	2728.1795	1564.55	673.95
999.38	2729.3972	1564.55	681.25
999.5016	2730.6142	1560.95	662.25
999.6231	2731.8306	1533.9	648.5
999.7446	2733.0462	1522.95	636.45
999.8661	2734.2612	1504.15	615
999.9875	2735.4756	1489.3	605.3
1000.1089	2736.6892	1471.2	584.45
1000.2302	2737.9022	1458.95	574.7
1000.3515	2739.1145	1445	561.9
1000.4728	2740.3262	1443.65	550.5
1000.594	2741.5372	1419.85	535.9
1000.7152	2742.7475	1413.7	528.1
1000.8363	2743.9571	1407.15	521.45
1000.9575	2745.1661	1389.95	501.75
1001.0785	2746.3744	1379.3	491.75
1001.1996	2747.582	1375.1	492.6
1001.3206	2748.7889	1367.7	480.05
1001.4415	2749.9952	1364.2	481.95
1001.5625	2751.2008	1366.4	481.05
1001.6833	2752.4057	1354.45	468.85
1001.8042	2753.61	1348.2	463.4
1001.925	2754.8136	1350.6	463.35
1002.0458	2756.0165	1346.05	459.95
1002.1665	2757.2188	1343.95	461.45
1002.2872	2758.4204	1347.8	465.45
1002.4078	2759.6213	1347.5	458.35
1002.5285	2760.8215	1356.25	465.65
1002.649	2762.0211	1342.1	457.2
1002.7696	2763.22	1343.95	457.65
1002.8901	2764.4182	1346.05	460.55
1003.0106	2765.6158	1336.25	452.3
1003.131	2766.8127	1337.6	453.1
1003.2514	2768.009	1335.95	450.75
1003.3717	2769.2045	1326.05	439.85
1003.492	2770.3994	1332.4	446.05
1003.6123	2771.5936	1326.65	439.35
1003.7325	2772.7872	1325.45	443.1
1003.8527	2773.9801	1319.45	432.25
1003.9729	2775.1723	1335.3	433.35
1004.093	2776.3639	1324.45	441.1
1004.2131	2777.5548	1324.5	439.95
1004.3331	2778.745	1325.7	439
1004.4531	2779.9346	1336.15	453.65
1004.5731	2781.1235	1337.85	451.45
1004.693	2782.3117	1337.3	454
1004.8129	2783.4992	1333.1	449.8
1004.9328	2784.6861	1349.5	464.9
1005.0526	2785.8723	1348.85	462.55
1005.1723	2787.0579	1357.15	472.05
1005.2921	2788.2428	1367.8	483.15
1005.4118	2789.427	1374.95	490.6
1005.5314	2790.6106	1380.3	496.45
1005.651	2791.7935	1386.2	500.45
1005.7706	2792.9757	1405.35	522.25
1005.8902	2794.1573	1418.25	533.65
1006.0097	2795.3382	1431.1	548.1
1006.1291	2796.5184	1438.2	556.35
1006.2485	2797.698	1467.75	580.2
1006.3679	2798.8769	1476.95	594.2
1006.4873	2800.0551	1493.85	610.6
1006.6066	2801.2327	1516.9	629.6
1006.7258	2802.4096	1533.55	648.8
1006.8451	2803.5859	1551	666.95
1006.9642	2804.7615	1575.7	692.2
1007.0834	2805.9364	1606.4	723.65
1007.2025	2807.1106	1628.85	745.85
1007.3216	2808.2842	1658.4	773.9
1007.4406	2809.4572	1686.35	801.6
1007.5596	2810.6294	1722	836.9
1007.6785	2811.801	1767.3	884.35
1007.7975	2812.972	1806.55	924.85
1007.9163	2814.1423	1845.7	961.55
1008.0352	2815.3119	1892.1	1006.85
1008.154	2816.4808	1943.8	1061.8
1008.2727	2817.6491	1998.7	1114.85
1008.3914	2818.8167	2034.9	1150.95
1008.5101	2819.9837	2098.65	1209.55
1008.6288	2821.15	2125.2	1241.55
1008.7474	2822.3157	2194.7	1311.85
1008.8659	2823.4807	2230.2	1346.65
1008.9844	2824.645	2294.5	1406.95
1009.1029	2825.8086	2321.7	1438.6
1009.2214	2826.9716	2361.15	1475.95
1009.3398	2828.134	2403.75	1520.2
1009.4581	2829.2957	2439.45	1556.55
1009.5764	2830.4567	2471.7	1588.75
1009.6947	2831.617	2493.35	1609.75
1009.813	2832.7767	2494.7	1613.35
1009.9312	2833.9358	2503.55	1620.45
1010.0493	2835.0941	2492.9	1607.4
1010.1675	2836.2519	2484.55	1600.7
1010.2855	2837.4089	2462.65	1579.9
1010.4036	2838.5653	2468.45	1583.15
1010.5216	2839.7211	2454.1	1570.7
1010.6396	2840.8761	2469.15	1584.55
1010.7575	2842.0306	2473.3	1590.3
1010.8754	2843.1843	2515	1632.25
1010.9932	2844.3374	2568.35	1685.6
1011.111	2845.4899	2634.4	1748.35
1011.2288	2846.6417	2701.1	1818.05
1011.3465	2847.7928	2779.3	1896.6
1011.4642	2848.9433	2846.35	1964.95
1011.5818	2850.0931	2930.25	2046.25
1011.6995	2851.2422	3002.3	2116.8
1011.817	2852.3907	3079.1	2193.35
1011.9345	2853.5385	3142.55	2256.7
1012.052	2854.6857	3229	2317.2
1012.1695	2855.8323	3254.3	2371.2
1012.2869	2856.9781	3304.05	2419.5
1012.4042	2858.1233	3350.85	2468
1012.5216	2859.2679	3399.65	2515.9
1012.6389	2860.4118	3444.4	2560.8
1012.7561	2861.555	3507.65	2619.55
1012.8733	2862.6976	3533.7	2650.55
1012.9905	2863.8395	3562.2	2679.4
1013.1076	2864.9808	3578.4	2694.85
1013.2247	2866.1214	3585.95	2701.95
1013.3417	2867.2614	3609.6	2724.55
1013.4587	2868.4007	3617	2730.95
1013.5757	2869.5393	3634.55	2746.95
1013.6926	2870.6773	3654.7	2768.3
1013.8095	2871.8146	3668.9	2782.4
1013.9263	2872.9513	3668.5	2784.85
1014.0431	2874.0874	3664.65	2780.75
1014.1599	2875.2227	3650.6	2767.35
1014.2766	2876.3574	3660.3	2778.15
1014.3933	2877.4915	3621.45	2738.4
1014.51	2878.6249	3595.5	2712.35
1014.6266	2879.7577	3574.7	2690.65
1014.7431	2880.8898	3556.25	2661.15
1014.8596	2882.0212	3530.1	2647.6
1014.9761	2883.152	3524.2	2639.85
1015.0925	2884.2821	3515.4	2632.85
1015.2089	2885.4116	3524.05	2641.35
1015.3253	2886.5405	3497.25	2612.75
1015.4416	2887.6686	3521.75	2636.6
1015.5579	2888.7962	3517.5	2635.65
1015.6741	2889.923	3519.85	2639
1015.7903	2891.0493	3544.6	2661.5
1015.9065	2892.1748	3538.6	2657.1
1016.0226	2893.2997	3566.55	2680.45
1016.1387	2894.424	3573.8	2690.6
1016.2547	2895.5476	3599.8	2718.05
1016.3707	2896.6706	3622.45	2739.35
1016.4866	2897.7929	3639.65	2755.75
1016.6025	2898.9145	3673.65	2790.15
1016.7184	2900.0355	3701.85	2816.6
1016.8342	2901.1559	3734.9	2851.5
1016.95	2902.2756	3775.25	2893.35
1017.0658	2903.3946	3810.45	2927.6
1017.1815	2904.513	3837.1	2949.15
1017.2971	2905.6308	3856.15	2973.1
1017.4127	2906.7479	3883.6	2999.2
1017.5283	2907.8643	3893.35	3010.7
1017.6439	2908.9801	3927.2	3044.8
1017.7594	2910.0953	3943.15	3061.1
1017.8748	2911.2098	3939.45	3053.55
1017.9902	2912.3236	3924.8	3034
1018.1056	2913.4368	3929.55	3043.75
1018.2209	2914.5494	3902.85	3018.7
1018.3362	2915.6613	3881.45	2993.65
1018.4515	2916.7725	3850.55	2965.4
1018.5667	2917.8831	3819.65	2934.4
1018.6819	2918.9931	3785.5	2900.7
1018.797	2920.1024	3749.85	2865.75
1018.9121	2921.211	3735	2853.5
1019.0271	2922.319	3715.6	2832.8
1019.1421	2923.4264	3695.95	2815.1
1019.2571	2924.5331	3677.75	2795.95
1019.372	2925.6391	3665.6	2781.25
1019.4869	2926.7445	3668.2	2787.3
1019.6017	2927.8493	3659.15	2774.45
1019.7165	2928.9534	3650.4	2765.95
1019.8313	2930.0569	3641.2	2756.3
1019.946	2931.1597	3652.75	2767.85
1020.0606	2932.2619	3648.25	2764.75
1020.1753	2933.3634	3646.45	2763.4
1020.2899	2934.4643	3634.85	2743.65
1020.4044	2935.5645	3618.1	2728.5
1020.5189	2936.6641	3572.3	2684
1020.6334	2937.763	3523	2638.35
1020.7478	2938.8613	3469.3	2585.65
1020.8622	2939.959	3421.15	2532.75
1020.9765	2941.056	3343.95	2462.25
1021.0908	2942.1523	3274.3	2389.7
1021.2051	2943.248	3180.9	2300.3
1021.3193	2944.3431	3083.6	2199.55
1021.4334	2945.4375	2969.05	2085.85
1021.5476	2946.5313	2877.5	1995.3
1021.6617	2947.6244	2764.95	1881.05
1021.7757	2948.7169	2675.6	1789.5
1021.8897	2949.8087	2585.6	1705.05
1022.0037	2950.8999	2480.55	1596.35
1022.1176	2951.9904	2409.75	1528
1022.2315	2953.0803	2331.9	1446.3
1022.3453	2954.1696	2269.25	1387.6
1022.4591	2955.2582	2216.05	1333.5
1022.5728	2956.3462	2173.95	1290.45
1022.6865	2957.4335	2133.4	1249
1022.8002	2958.5202	2093.85	1208.75
1022.9138	2959.6062	2077.8	1195.2
1023.0274	2960.6916	2044.15	1160.45
1023.141	2961.7764	2028.05	1143.25
1023.2545	2962.8605	2016.15	1134.2
1023.3679	2963.9439	1994.75	1110.35
1023.4813	2965.0267	1993.95	1109.35
1023.5947	2966.1089	1997.1	1090.5
1023.708	2967.1905	1977.3	1094.6
1023.8213	2968.2714	1974.25	1092.1
1023.9346	2969.3516	1974.15	1093.3
1024.0478	2970.4312	1985.1	1095.95
1024.1609	2971.5102	1975.9	1094.65
1024.274	2972.5885	1973.3	1090.3
1024.3871	2973.6662	1975.65	1088.4
1024.5002	2974.7432	1980.6	1099.25
1024.6132	2975.8196	1977.05	1094.3
1024.7261	2976.8954	1952	1070.75
1024.839	2977.9705	1942.35	1057.75
1024.9519	2979.045	1936.4	1054.35
1025.0647	2980.1188	1921.1	1039.3
1025.1775	2981.192	1901.5	1018.5
1025.2902	2982.2645	1883.9	1001.25
1025.4029	2983.3364	1857.7	974.9
1025.5156	2984.4077	1825.65	943.5
1025.6282	2985.4783	1812.9	925.5
1025.7407	2986.5483	1767.4	885.9
1025.8532	2987.6177	1734.3	852.4
1025.9657	2988.6864	1689.2	805.25
1026.0782	2989.7545	1665.05	778.15
1026.1906	2990.8219	1631.45	750.2
1026.3029	2991.8887	1601.05	716.65
1026.4152	2992.9548	1564.05	682.1
1026.5275	2994.0204	1537.85	655.7
1026.6397	2995.0852	1512.85	631.75
1026.7519	2996.1495	1487.45	603.65
1026.864	2997.2131	1462.3	578.05
1026.9761	2998.276	1440.1	557.65
1027.0882	2999.3383	1426.55	542.45
1027.2002	3000.4	1402.45	518.25
1027.3122	3001.4611	1381.55	498.1
1027.4241	3002.5215	1366.05	482.8
1027.536	3003.5812	1359.75	474.45
1027.6478	3004.6404	1349.95	468.4
1027.7596	3005.6989	1339.85	455.75
1027.8714	3006.7567	1335.1	450.25
1027.9831	3007.8139	1347.95	439.95
1028.0947	3008.8705	1319.45	435.5
1028.2064	3009.9264	1318.05	434.25
1028.3179	3010.9818	1306.1	421.6
1028.4295	3012.0364	1311.55	427.3
1028.541	3013.0905	1306.75	423.75
1028.6524	3014.1439	1299.15	415.8
1028.7638	3015.1966	1298.2	416.8
1028.8752	3016.2487	1291.1	408.3
1028.9865	3017.3002	1304.5	417.9
1029.0978	3018.3511	1293.9	414.2
1029.209	3019.4013	1299.2	415.55
1029.3202	3020.4509	1296.7	413.4
1029.4314	3021.4998	1291.6	407.95
1029.5425	3022.5481	1292.1	409.2
1029.6535	3023.5958	1300.2	416.9
1029.7645	3024.6428	1305.6	421.05
1029.8755	3025.6892	1300.8	418.15
1029.9864	3026.735	1301.25	418
1030.0973	3027.7802	1304.9	422.7
1030.2082	3028.8247	1305.45	421.95
1030.319	3029.8685	1303.8	422.1
1030.4297	3030.9118	1314.45	428.4
1030.5404	3031.9544	1318.75	436.8
1030.6511	3032.9963	1322.7	440.95
1030.7617	3034.0376	1325.95	443.35
1030.8723	3035.0783	1325.95	440.75
1030.9829	3036.1184	1333.35	449.55
1031.0934	3037.1578	1332.4	451.05
1031.2038	3038.1966	1339	455.4
1031.3142	3039.2348	1344.5	463.8
1031.4246	3040.2723	1349.6	459.05
1031.5349	3041.3092	1339.85	458.6
1031.6452	3042.3455	1338.65	454.35
1031.7554	3043.3811	1332.45	448.6
1031.8656	3044.4161	1330.15	448.55
1031.9758	3045.4505	1321.9	440
1032.0859	3046.4842	1327.5	443.8
1032.1959	3047.5173	1312.55	431.1
1032.3059	3048.5498	1316.1	432.7
1032.4159	3049.5816	1303.5	420.75
1032.5258	3050.6128	1288.75	403.5
1032.6357	3051.6434	1295	409.7
1032.7455	3052.6734	1284.2	399.75
1032.8553	3053.7027	1277.95	396.3
1032.9651	3054.7314	1275.85	393.7
1033.0748	3055.7594	1273.55	390.25
1033.1845	3056.7868	1266.05	380.75
1033.2941	3057.8136	1257.4	375.4
1033.4037	3058.8398	1254.3	370.75
1033.5132	3059.8653	1245.6	364.25
1033.6227	3060.8902	1242.5	360.2
1033.7321	3061.9145	1243	361.5
1033.8415	3062.9381	1236.15	353.45
1033.9509	3063.9612	1246.65	348.7
1034.0602	3064.9835	1219.65	337.95
1034.1694	3066.0053	1220.65	333.75
1034.2787	3067.0264	1209.15	327.8
1034.3878	3068.0469	1210.2	326.95
1034.497	3069.0668	1204.65	320.5
1034.6061	3070.086	1190.5	307.35
1034.7151	3071.1046	1180.55	296.35
1034.8241	3072.1226	1171	288
1034.9331	3073.1399	1165.05	282.35
1035.042	3074.1567	1157.8	276.65
1035.1508	3075.1727	1149.55	265.45
1035.2597	3076.1882	1138.65	256.35
1035.3684	3077.203	1130.5	248.45
1035.4772	3078.2173	1122.2	238.4
1035.5859	3079.2308	1119.6	232.65
1035.6945	3080.2438	1113.6	230.8
1035.8031	3081.2561	1099.4	216.85
1035.9117	3082.2678	1095	214
1036.0202	3083.2789	1086.45	203.5
1036.1286	3084.2893	1082	200
1036.2371	3085.2991	1075.3	192.25
1036.3454	3086.3083	1077.7	190.1
1036.4538	3087.3169	1067.1	182.25
1036.562	3088.3248	1061.4	177.1
1036.6703	3089.3321	1056.85	171.6
1036.7785	3090.3388	1053.8	174.4
1036.8866	3091.3449	1043.55	161.15
1036.9948	3092.3503	1050.75	165
1037.1028	3093.3551	1040.75	161.15
1037.2108	3094.3593	1037.7	158.65
1037.3188	3095.3629	1036.7	154.85
1037.4267	3096.3658	1034.65	149.95
1037.5346	3097.3681	1031.45	150.2
1037.6425	3098.3698	1029.65	145.9
1037.7503	3099.3708	1034.25	143.75
1037.858	3100.3713	1023.6	141.95
1037.9657	3101.3711	1025	141.45
1038.0734	3102.3702	1159.7	134.4
1038.181	3103.3688	1024.05	141.6
1038.2886	3104.3667	1016.55	134.85
1038.3961	3105.364	1019.75	139.7
1038.5036	3106.3607	1015.7	132
1038.611	3107.3568	1011.85	127.1
1038.7184	3108.3522	1013.6	132.25
1038.8257	3109.347	1013.55	127.05
1038.933	3110.3412	1012.7	125.3
1039.0403	3111.3348	1004.9	121.95
1039.1475	3112.3277	1005.8	124.5
1039.2547	3113.32	1002.4	120.9
1039.3618	3114.3117	999.15	116.05
1039.4689	3115.3028	1000.7	116.9
1039.5759	3116.2932	1003.15	118.95
1039.6829	3117.2831	1008.2	117.55
1039.7898	3118.2723	1001.35	119
1039.8967	3119.2608	996.35	114.4
1040.0035	3120.2488	999.5	116.65
1040.1103	3121.2361	993.55	110.7
1040.2171	3122.2229	992.4	110.85
1040.3238	3123.209	996.9	114.2
1040.4305	3124.1944	994.75	113
1040.5371	3125.1793	990.95	106.95
1040.6437	3126.1635	989.2	106.9
1040.7502	3127.1471	986.6	104.8
1040.8567	3128.1301	985.75	104.9
1040.9631	3129.1125	985.1	102.95
1041.0695	3130.0942	988.3	105.8
1041.1759	3131.0753	993.05	103.9
1041.2822	3132.0558	986.85	101.6
1041.3884	3133.0357	985.2	103.4
1041.4946	3134.015	983.75	98.9
1041.6008	3134.9936	983.2	100.55
1041.7069	3135.9716	1000.35	96.65
1041.813	3136.949	981.8	99.65
1041.919	3137.9258	999.3	98.3
1042.025	3138.902	984.8	96.55
1042.1309	3139.8775	977.2	96.45
1042.2368	3140.8524	971	88.1
1042.3427	3141.8267	978.4	94.35
1042.4485	3142.8004	973.6	90.3
1042.5542	3143.7735	979.75	91.65
1042.6599	3144.7459	978.35	94.15
1042.7656	3145.7178	971.65	88.8
1042.8712	3146.689	968.8	88.3
1042.9768	3147.6596	973.6	90.75
1043.0823	3148.6295	970.2	88.25
1043.1878	3149.5989	969.85	87.55
1043.2932	3150.5676	965	83.4
1043.3986	3151.5357	965.35	82.4
1043.5039	3152.5032	966.65	85.3
1043.6092	3153.4701	966.4	85.65
1043.7145	3154.4364	968.65	85.05
1043.8197	3155.402	963.35	83.2
1043.9248	3156.367	965	80.4
1044.03	3157.3315	999	79.65
1044.135	3158.2952	963.8	81.65
1044.24	3159.2584	961.45	78.95
1044.345	3160.221	960.1	78.15
1044.4499	3161.1829	960	76.85
1044.5548	3162.1442	957.5	76.5
1044.6596	3163.105	958.1	76.1
1044.7644	3164.065	954.5	73.1
1044.8692	3165.0245	960.05	77
1044.9739	3165.9834	955.7	76
1045.0785	3166.9416	956.95	74.9
1045.1831	3167.8993	955.7	73.15
1045.2877	3168.8563	955.8	75.2
1045.3922	3169.8127	953.1	71.75
1045.4966	3170.7684	955.2	72.3
1045.6011	3171.7236	952.35	70.4
1045.7054	3172.6782	951.05	69.45
1045.8098	3173.6321	953.05	70
1045.914	3174.5854	953.4	66.45
1046.0183	3175.5381	948.9	64.85
1046.1224	3176.4902	948.7	68.85
1046.2266	3177.4417	950.05	68.45
1046.3307	3178.3926	947	66.65
1046.4347	3179.3428	946.35	66.05
1046.5387	3180.2924	948.2	66.65
1046.6427	3181.2415	951.15	69.1
1046.7466	3182.1899	951.55	68.85
1046.8504	3183.1377	947.35	67.2
1046.9542	3184.0848	949.85	64.45
1047.058	3185.0314	946.55	65.4
1047.1617	3185.9773	947.1	63.5
1047.2654	3186.9227	946.75	63.8
1047.369	3187.8674	946.5	65.2
1047.4726	3188.8115	948.75	64.45
1047.5761	3189.755	947.1	66.4
1047.6796	3190.6979	946.6	64.6
1047.783	3191.6402	942.6	62.2
1047.8864	3192.5818	944.6	61.3
1047.9898	3193.5229	961.75	58.8
1048.0931	3194.4633	945.9	64.35
1048.1963	3195.4031	941.2	60.25
1048.2995	3196.3423	944.95	62.25
1048.4027	3197.2809	942.8	61.7
1048.5058	3198.2189	941.75	58.75
1048.6089	3199.1563	960.45	62.8
1048.7119	3200.0931	939.05	56.6
1048.8148	3201.0292	941.3	60.7
1048.9178	3201.9648	940.45	58.8
1049.0206	3202.8997	944.2	59.55
1049.1235	3203.834	938.35	56.5
1049.2262	3204.7677	938.95	58.85
1049.329	3205.7008	940.4	57.9
1049.4317	3206.6333	936.6	56.4
1049.5343	3207.5652	941.5	58.45
1049.6369	3208.4964	938.55	58.15
1049.7394	3209.4271	937.9	57.35
1049.8419	3210.3571	937.15	55.65
1049.9444	3211.2865	939.1	56.55
1050.0468	3212.2154	937.8	56.2
1050.1491	3213.1436	940	55.2
1050.2514	3214.0712	939.5	50.75
1050.3537	3214.9982	934.55	51.6
1050.4559	3215.9246	932.65	48.7
1050.5581	3216.8503	933.75	54.7
1050.6602	3217.7755	936.2	53.2
1050.7623	3218.7001	936.15	54.8
1050.8643	3219.624	932.75	49.85
1050.9663	3220.5473	936.15	54.5
1051.0682	3221.4701	934.7	51.45
1051.1701	3222.3922	934.65	52.6
1051.2719	3223.3137	932.95	51.7
1051.3737	3224.2346	933.6	51.6
1051.4754	3225.1549	931.7	49.9
1051.5771	3226.0746	930.5	49.95
1051.6788	3226.9937	933.35	51.4
1051.7804	3227.9121	930.9	51.3
1051.8819	3228.83	931.15	51.75
1051.9834	3229.7473	932.4	50.8
1052.0849	3230.6639	933.8	51.25
1052.1863	3231.5799	928.3	49.4
1052.2876	3232.4954	931.35	46.75
1052.3889	3233.4102	928.55	49.8
1052.4902	3234.3244	930.55	48.4
1052.5914	3235.238	929.2	47.55
1052.6926	3236.151	953.5	48.3
1052.7937	3237.0634	929.65	48.45
1052.8948	3237.9752	927.15	45.4
1052.9958	3238.8864	929.5	48.95
1053.0968	3239.797	927.2	46.35
1053.1977	3240.7069	929.45	47.85
1053.2986	3241.6163	930.6	48.05
1053.3994	3242.5251	925.5	46.5
1053.5002	3243.4332	927.4	44.85
1053.6009	3244.3408	925	42.2
1053.7016	3245.2477	927	43.8
1053.8022	3246.154	926.9	45.05
1053.9028	3247.0598	928.75	45.85
1054.0034	3247.9649	926.85	46.45
1054.1039	3248.8694	925.05	43.7
1054.2043	3249.7733	925.05	43
1054.3047	3250.6766	923.2	41.8
1054.4051	3251.5793	925.5	44.05
1054.5054	3252.4814	923.6	41.45
1054.6056	3253.3829	921.6	42.2
1054.7058	3254.2838	920	36.25
1054.806	3255.1841	921.75	42.5
1054.9061	3256.0838	920.8	39.1
1055.0061	3256.9829	918.2	37.4
1055.1062	3257.8814	923.3	40.15
1055.2061	3258.7792	923.55	39.8
1055.306	3259.6765	920.05	37.95
1055.4059	3260.5731	917.4	37.1
1055.5057	3261.4692	920.65	39
1055.6055	3262.3647	918	34.15
1055.7052	3263.2595	914.1	34.45
1055.8049	3264.1538	917.85	37.15
1055.9045	3265.0474	917.65	33.9
1056.0041	3265.9404	914.8	32.9
1056.1036	3266.8329	913.95	35.45
1056.2031	3267.7247	924.6	34.6
1056.3025	3268.616	911.55	31.65
1056.4019	3269.5066	912.7	31.5
1056.5013	3270.3966	913.65	30.3
1056.6005	3271.286	908.7	29.9
