Software Version:	3.9.2.0
Unit SN:	10000200
Spectrometer SN:	6960
Date:	3/14/2024 1:16:27 PM
Data Line Index:	25
Spectral Points:	2048
Integration time (ms):	125
Averages:	20
Delay (ms):	30000
Sequence Number:	1
Processing:	dark subtract
Laser Power (mW):	300
Laser Current (mA):	825
Laser Diode Temp (C):	25
Laser Case Temp (C):	28.3
System Temp (C):	28.3
Spectrometer Temp (C):	26.1
CCD Temp (C):	0.002
Secondary Temp (C):	20.01
Heatsink Temp (C):	24.146
CCDPCB Temp (C):	37.696
SecondaryPCB Temp (C):	35.195

Wavelength	RamanShift	Raw Counts	Dark Subtracted
787.061	30.1047	452.4	41.05
787.2016	32.3739	453.6	41.95
787.3422	34.6426	460.35	49.05
787.4828	36.9109	461.6	50.75
787.6235	39.1787	475.3	57.75
787.7642	41.4461	482	60.8
787.9049	43.7131	492.65	68.5
788.0456	45.9796	496.5	68.9
788.1863	48.2456	506.95	75.7
788.3271	50.5112	514.75	78.95
788.4679	52.7764	520.7	80.3
788.6087	55.0411	532.65	91.05
788.7496	57.3054	542.55	94.35
788.8904	59.5692	552.15	103.55
789.0313	61.8326	563.5	110.7
789.1722	64.0955	575.95	119.1
789.3132	66.3579	588.8	126.75
789.4541	68.6199	606.35	141.2
789.5951	70.8815	632.6	163.4
789.7361	73.1426	712.6	239.25
789.8771	75.4032	897.45	420.3
790.0181	77.6634	1352.95	872
790.1592	79.9231	2436.2	1950.2
790.3003	82.1824	4770.25	4274.95
790.4414	84.4412	9002.35	8491.4
790.5825	86.6995	14846.65	14316.6
790.7237	88.9574	20634.65	20088.6
790.8648	91.2148	24580.8	24021.6
791.006	93.4717	26445.75	25881.5
791.1472	95.7282	26693.35	26124.05
791.2885	97.9842	26480.65	25906.45
791.4297	100.2398	25771.75	25197.5
791.571	102.4949	25032.85	24455.15
791.7123	104.7495	24139.7	23555.4
791.8536	107.0036	23305.05	22724.2
791.9949	109.2573	22570.15	21988.2
792.1363	111.5105	21835.3	21252.55
792.2777	113.7632	21194.15	20606
792.4191	116.0154	20665.4	20069.35
792.5605	118.2672	20326.45	19734.45
792.7019	120.5185	19908.15	19318.65
792.8434	122.7693	19637.25	19043.55
792.9849	125.0197	19424.45	18829.25
793.1264	127.2696	19159.8	18562.2
793.2679	129.519	18948.25	18347.65
793.4094	131.7679	18705.65	18098.75
793.551	134.0163	18451.1	17844.4
793.6926	136.2642	18141.7	17527.3
793.8342	138.5117	17800.55	17180.1
793.9758	140.7587	17472.8	16854.65
794.1175	143.0052	17126.75	16508.7
794.2591	145.2512	16805.4	16186.9
794.4008	147.4967	16520.65	15900.5
794.5425	149.7417	16295.55	15674.1
794.6842	151.9863	16129.1	15505.35
794.826	154.2304	16051.15	15423.6
794.9677	156.4739	15881.75	15248.9
795.1095	158.717	15789.6	15154.65
795.2513	160.9596	15620.15	14981
795.3931	163.2017	15382.8	14743.25
795.535	165.4433	15113.85	14471.2
795.6768	167.6844	14784.5	14140.4
795.8187	169.925	14497.65	13849.8
795.9606	172.1651	14169.75	13519.25
796.1025	174.4047	13918.25	13265.4
796.2445	176.6439	13673.7	13020
796.3864	178.8825	13471.85	12810.7
796.5284	181.1206	13352.55	12692.1
796.6704	183.3582	13188.05	12522.55
796.8124	185.5954	13095.9	12427.2
796.9544	187.832	13058.8	12389
797.0965	190.0681	12996.65	12325.3
797.2386	192.3037	12990.1	12314.25
797.3806	194.5388	12963.7	12286.45
797.5228	196.7734	13019	12338.55
797.6649	199.0075	13068.35	12385.15
797.807	201.2411	13173.9	12486.9
797.9492	203.4742	13241.5	12555.85
798.0914	205.7068	13378.1	12689.9
798.2336	207.9389	13467.3	12779
798.3758	210.1704	13625.15	12931.75
798.518	212.4015	13701.3	13007.45
798.6603	214.632	13835.35	13138.8
798.8025	216.862	13936.75	13244.95
798.9448	219.0915	14031.5	13349.65
799.0871	221.3205	14102.6	13424.5
799.2294	223.549	14177.1	13505.05
799.3718	225.777	14270.4	13601.75
799.5141	228.0044	14361.65	13685.1
799.6565	230.2314	14488.85	13814.05
799.7989	232.4578	14607.9	13933.6
799.9413	234.6837	14720.7	14037.25
800.0837	236.909	14780.85	14098.9
800.2262	239.1339	14790.9	14086.9
800.3687	241.3582	14701.4	14011.1
800.5111	243.582	14630.2	13912.95
800.6536	245.8053	14535.8	13825.85
800.7961	248.0281	14471.3	13763.65
800.9387	250.2503	14441.75	13731.6
801.0812	252.472	14472	13756.9
801.2238	254.6932	14565.85	13845.2
801.3664	256.9139	14657.3	13935.85
801.509	259.134	14871.25	14147.5
801.6516	261.3536	15028.55	14307.1
801.7942	263.5727	15322.95	14600.8
801.9369	265.7912	15572.45	14848.5
802.0795	268.0092	15820.15	15096.7
802.2222	270.2267	16000.9	15274.1
802.3649	272.4436	16125.35	15397.45
802.5076	274.6601	16124.65	15391.25
802.6504	276.8759	16041.15	15312.6
802.7931	279.0913	15979.85	15249.75
802.9359	281.3061	15832.5	15100.45
803.0787	283.5204	15786.05	15050.1
803.2215	285.7341	15750.65	15013.5
803.3643	287.9473	15755	15013.65
803.5071	290.16	15838.35	15090.8
803.6499	292.3721	15906.05	15167.8
803.7928	294.5837	16080.1	15340.35
803.9357	296.7947	16248.4	15508.3
804.0786	299.0052	16414.4	15671.85
804.2215	301.2152	16392.05	15647.1
804.3644	303.4246	16250.65	15512
804.5074	305.6334	15962.9	15220.4
804.6503	307.8418	15552.05	14807.65
804.7933	310.0495	15152.95	14405.9
804.9363	312.2568	14756.65	14012.5
805.0793	314.4635	14368.65	13623.05
805.2223	316.6696	14081.4	13334.8
805.3653	318.8752	13856.65	13097.5
805.5084	321.0802	13775.75	13026.95
805.6514	323.2847	13777.75	13029
805.7945	325.4887	13834.2	13081.95
805.9376	327.692	13810.7	13059.65
806.0807	329.8949	13802.45	13048.85
806.2238	332.0972	13601.4	12846.5
806.367	334.2989	13404.25	12646.75
806.5101	336.5001	13195.65	12436.65
806.6533	338.7007	12981.45	12221.55
806.7965	340.9008	12825.9	12065.1
806.9397	343.1003	12686.95	11926.45
807.0829	345.2992	12559.9	11797.25
807.2261	347.4976	12461.95	11695.65
807.3693	349.6955	12364.55	11596.3
807.5126	351.8927	12335.75	11567.9
807.6559	354.0895	12259.2	11477.7
807.7991	356.2856	12248.2	11480.9
807.9424	358.4812	12169.75	11400.95
808.0857	360.6763	12164.7	11395.15
808.2291	362.8707	12137.35	11367.65
808.3724	365.0646	12168.8	11392.05
808.5158	367.258	12242.9	11465.95
808.6591	369.4508	12290.3	11510.45
808.8025	371.643	12406.1	11625.55
808.9459	373.8346	12467.5	11685.2
809.0893	376.0257	12540.85	11755
809.2327	378.2162	12569.85	11782.65
809.3762	380.4062	12557	11769.15
809.5196	382.5956	12410.65	11621.6
809.6631	384.7844	12335.8	11549.1
809.8066	386.9726	12199.8	11408.75
809.9501	389.1603	12126.4	11339.15
810.0936	391.3474	12079.05	11260.4
810.2371	393.5339	12032.9	11244.5
810.3806	395.7199	11987.2	11202.15
810.5241	397.9052	12034.45	11253.65
810.6677	400.09	12094.4	11311.8
810.8113	402.2743	12211.4	11431.65
810.9548	404.4579	12360.3	11581.5
811.0984	406.641	12559.85	11777.9
811.2421	408.8235	12700.95	11917.6
811.3857	411.0054	12834.25	12051.2
811.5293	413.1868	13021.2	12234.4
811.673	415.3675	13083.5	12294.95
811.8166	417.5477	13058.65	12269.55
811.9603	419.7273	13027.2	12236.9
812.104	421.9064	12933.5	12138.15
812.2477	424.0848	12859.35	12063.25
812.3914	426.2627	12748.65	11954.5
812.5351	428.4399	12529.5	11732
812.6788	430.6166	12197.3	11395.8
812.8226	432.7928	11909.7	11106.45
812.9663	434.9683	11597.95	10797.95
813.1101	437.1432	11365.15	10559.15
813.2539	439.3176	11205.6	10401.95
813.3977	441.4914	11093.4	10288.95
813.5415	443.6645	11067	10260.5
813.6853	445.8371	11007.85	10201.75
813.8291	448.0091	10944	10142
813.973	450.1806	10956.9	10151.95
814.1168	452.3514	10934.7	10126.85
814.2607	454.5216	10987.75	10167.5
814.4046	456.6913	10913.7	10100.95
814.5485	458.8603	10956.05	10147.3
814.6924	461.0288	11002.6	10194.3
814.8363	463.1967	10966.35	10158.2
814.9802	465.3639	11021.6	10211.6
815.1241	467.5306	10985.8	10173.9
815.2681	469.6967	11015.9	10204.2
815.412	471.8622	11028.45	10214.35
815.556	474.0271	11065.55	10252.3
815.7	476.1914	11100.7	10284.35
815.844	478.3551	11080.95	10267.85
815.988	480.5182	11117.25	10303.8
816.132	482.6807	11182.4	10366.25
816.276	484.8426	11385.1	10569.1
816.4201	487.0039	11673.9	10859.6
816.5641	489.1647	12040.5	11225.6
816.7082	491.3248	12349.6	11532.5
816.8522	493.4843	12442.5	11625.9
816.9963	495.6432	12383.8	11567.6
817.1404	497.8015	12260.15	11440.6
817.2845	499.9592	12142.1	11325.7
817.4286	502.1163	11920.05	11104.4
817.5727	504.2728	11643	10820.2
817.7168	506.4287	11379.75	10563.3
817.861	508.5839	11064.95	10244.25
818.0051	510.7386	10854.15	10032.85
818.1493	512.8927	10768.85	9936.1
818.2935	515.0461	10774.45	9951.7
818.4377	517.199	10834	10012.85
818.5818	519.3512	10961.55	10138.45
818.726	521.5029	11202.75	10373.9
818.8703	523.6539	11456.95	10633.1
819.0145	525.8043	11549.9	10726.15
819.1587	527.9541	11494.85	10667.45
819.303	530.1033	11323.75	10497.55
819.4472	532.2519	11165.65	10337.9
819.5915	534.3999	11085.2	10257.25
819.7357	536.5472	11142.6	10312.4
819.88	538.694	11323.65	10495.2
820.0243	540.8401	11579.4	10751.95
820.1686	542.9856	11759.35	10929.65
820.3129	545.1305	11797.7	10968.65
820.4572	547.2748	11715.4	10884.15
820.6016	549.4185	11564.1	10733
820.7459	551.5615	11416.65	10587.35
820.8902	553.704	11422.9	10590.7
821.0346	555.8458	11472.45	10642.95
821.1789	557.987	11611.4	10780.55
821.3233	560.1276	11853.25	11020.6
821.4677	562.2675	12187.4	11355.75
821.6121	564.4069	12679.85	11848.7
821.7565	566.5456	13076.9	12244.8
821.9009	568.6837	13204.65	12370.75
822.0453	570.8212	12814.85	11981.85
822.1897	572.958	12180.45	11344.3
822.3342	575.0942	11568.7	10734.65
822.4786	577.2299	11157.75	10324.45
822.6231	579.3648	10956.45	10121.35
822.7675	581.4992	10862.1	10025.2
822.912	583.6329	10987.7	10153.9
823.0565	585.766	11170.75	10338.4
823.201	587.8985	11281.2	10450.6
823.3454	590.0304	11357.9	10500.6
823.4899	592.1616	11308.45	10468.1
823.6345	594.2922	11152.85	10316.6
823.779	596.4222	10981.8	10144.55
823.9235	598.5515	10806.95	9971.9
824.068	600.6802	10638.15	9802.6
824.2126	602.8083	10489.7	9652.95
824.3571	604.9358	10459.95	9620.15
824.5017	607.0626	10461.25	9622.9
824.6462	609.1888	10559.45	9723.55
824.7908	611.3144	10696.3	9857.6
824.9354	613.4393	10799.95	9958.8
825.08	615.5636	10880	10039.8
825.2246	617.6873	10948.45	10108.25
825.3692	619.8103	10884.15	10041.5
825.5138	621.9327	10695.4	9850.55
825.6584	624.0544	10519.4	9679.2
825.803	626.1756	10303.45	9460.6
825.9477	628.2961	10150.45	9307.5
826.0923	630.4159	10085.5	9242.85
826.237	632.5351	10055.35	9211.55
826.3816	634.6537	10043.65	9198.8
826.5263	636.7716	10061.85	9217.15
826.6709	638.8889	10067.95	9221.6
826.8156	641.0056	10082.9	9240.2
826.9603	643.1216	10045.5	9201.45
827.105	645.237	10031.4	9184.8
827.2497	647.3518	9944.1	9098.75
827.3944	649.4659	9873.2	9026
827.5391	651.5793	9821.05	8973.9
827.6838	653.6922	9768.75	8921.05
827.8285	655.8043	9761.3	8916.75
827.9733	657.9159	9758.8	8913.75
828.118	660.0268	9713.3	8863.1
828.2627	662.137	9737.5	8890.65
828.4075	664.2466	9717.5	8867.45
828.5522	666.3556	9723.4	8875.7
828.697	668.4639	9673.15	8822.2
828.8418	670.5716	9643.3	8793.35
828.9865	672.6786	9600.7	8751.1
829.1313	674.785	9545.65	8695.2
829.2761	676.8907	9525.35	8675.35
829.4209	678.9958	9523.8	8675.5
829.5657	681.1002	9486	8637.25
829.7105	683.204	9481.45	8630.05
829.8553	685.3072	9443.65	8591.9
830.0001	687.4097	9430	8578.65
830.1449	689.5115	9427.75	8574.25
830.2898	691.6127	9395.25	8543.15
830.4346	693.7132	9385.2	8531.75
830.5794	695.8131	9417.1	8552.2
830.7243	697.9123	9418.35	8564.25
830.8691	700.0109	9430.7	8574.9
831.014	702.1089	9470.7	8619.4
831.1588	704.2061	9518.75	8667.25
831.3037	706.3028	9544.3	8689.1
831.4486	708.3987	9629.15	8773.3
831.5935	710.4941	9622.75	8771.05
831.7383	712.5887	9643.55	8788.8
831.8832	714.6827	9732.7	8873.5
832.0281	716.7761	9837.15	8983.7
832.173	718.8688	9998.6	9142.7
832.3179	720.9608	10131.6	9271.2
832.4628	723.0522	10245.9	9389.8
832.6077	725.1429	10310.7	9453.9
832.7527	727.233	10356.45	9501.75
832.8976	729.3224	10417.5	9561.15
833.0425	731.4112	10327.55	9469.1
833.1874	733.4993	10208.45	9347.05
833.3324	735.5867	10004.35	9146.1
833.4773	737.6735	9788.2	8928.25
833.6222	739.7596	9594.95	8734.7
833.7672	741.845	9456.1	8596.55
833.9122	743.9298	9376.75	8515.8
834.0571	746.014	9334	8477.65
834.2021	748.0974	9298.9	8439.9
834.347	750.1802	9308	8449.85
834.492	752.2624	9310.95	8453.75
834.637	754.3439	9392.45	8533
834.782	756.4247	9446.8	8578.95
834.9269	758.5048	9632.3	8773.95
835.0719	760.5843	9837.05	8977.65
835.2169	762.6631	10234.95	9377.05
835.3619	764.7413	10768.55	9909.1
835.5069	766.8188	11421.65	10560.75
835.6519	768.8956	11955.85	11091.65
835.7969	770.9718	12388.8	11528.15
835.9419	773.0473	12308.3	11445.75
836.0869	775.1221	12076.4	11215.85
836.232	777.1962	11818.25	10955.7
836.377	779.2697	11727.75	10864.9
836.522	781.3426	11828.85	10959.05
836.667	783.4147	11936.75	11073.35
836.8121	785.4862	11976.1	11114.4
836.9571	787.557	11808.4	10946.25
837.1021	789.6271	11371.15	10505.6
837.2472	791.6966	10750.45	9887.9
837.3922	793.7654	10171.9	9308.25
837.5373	795.8335	9770.2	8907.3
837.6823	797.901	9473.25	8611.95
837.8274	799.9678	9315.35	8451.7
837.9724	802.0339	9198.55	8338.25
838.1175	804.0993	9178.15	8304.6
838.2626	806.1641	9119.45	8255.5
838.4076	808.2282	9084.15	8221.1
838.5527	810.2916	8997.25	8131.1
838.6978	812.3544	8908.75	8045.65
838.8428	814.4164	8857.15	7995.5
838.9879	816.4778	8901.5	8036.25
839.133	818.5385	8918.7	8056.45
839.2781	820.5986	9051	8186.5
839.4232	822.658	9265.65	8399
839.5682	824.7166	9563.05	8699.75
839.7133	826.7747	10047.9	9185.65
839.8584	828.832	10573	9709.35
840.0035	830.8886	10925.75	10058.15
840.1486	832.9446	11093.3	10228.6
840.2937	834.9999	10981.8	10118.7
840.4388	837.0545	10695.95	9826.9
840.5839	839.1085	10360.05	9494.15
840.729	841.1618	10039	9170.5
840.8741	843.2143	9800.45	8933.3
841.0192	845.2662	9628.25	8762.5
841.1643	847.3175	9493.2	8628.05
841.3095	849.368	9378.55	8510.95
841.4546	851.4179	9269.85	8403.05
841.5997	853.467	9164.85	8297.6
841.7448	855.5155	9115	8248.55
841.8899	857.5633	9056.95	8191.7
842.0351	859.6105	8956.15	8090.3
842.1802	861.6569	8890.9	8023.75
842.3253	863.7027	8798.75	7930.5
842.4704	865.7478	8747.3	7880.4
842.6156	867.7922	8692.9	7825.45
842.7607	869.8359	8681.2	7811.55
842.9058	871.8789	8703.6	7834.7
843.0509	873.9212	8798.85	7897.5
843.1961	875.9629	8837.65	7969.9
843.3412	878.0039	8950.1	8079.85
843.4863	880.0441	9017.6	8151.4
843.6315	882.0837	9066	8196.6
843.7766	884.1226	9104.7	8236.15
843.9218	886.1609	9130.35	8263.35
844.0669	888.1984	9243.2	8373.65
844.212	890.2352	9380.7	8513.9
844.3572	892.2714	9422.2	8550.6
844.5023	894.3069	9328.85	8459.25
844.6475	896.3416	9190.05	8320.65
844.7926	898.3757	9044.2	8173.4
844.9377	900.4091	8944.95	8074.4
845.0829	902.4418	8906.4	8032.85
845.228	904.4739	8956.55	8085.25
845.3732	906.5052	9011.6	8141.45
845.5183	908.5358	8975.25	8106.35
845.6635	910.5658	8863.05	7990.55
845.8086	912.595	8661.75	7792.95
845.9538	914.6236	8453.45	7586.1
846.0989	916.6515	8333.7	7463.05
846.2441	918.6786	8247.3	7375.5
846.3892	920.7051	8252.65	7381.8
846.5344	922.7309	8250.6	7380.35
846.6795	924.756	8258.2	7386.85
846.8246	926.7804	8335.5	7461.05
846.9698	928.8041	8330.6	7459.55
847.1149	930.8272	8393.65	7522.9
847.2601	932.8495	8368.4	7495.4
847.4052	934.8711	8349.35	7478.05
847.5504	936.892	8317.55	7446
847.6955	938.9123	8314.6	7441
847.8407	940.9318	8319.1	7444.9
847.9858	942.9506	8335.1	7463.55
848.131	944.9688	8278.65	7406.7
848.2761	946.9862	8181.7	7310.45
848.4213	949.003	8055.25	7184.15
848.5664	951.019	7953.85	7080.85
848.7115	953.0344	7889.05	7015.75
848.8567	955.0491	7858.85	6986.55
849.0018	957.063	7892.65	7020.55
849.147	959.0763	7960.9	7088.3
849.2921	961.0888	7977.6	7104
849.4373	963.1007	8034.35	7162.45
849.5824	965.1119	8068.2	7195.3
849.7275	967.1223	8048	7174
849.8727	969.1321	8019.25	7146.45
850.0178	971.1412	8019.8	7147.6
850.1629	973.1495	7996.8	7121.7
850.3081	975.1572	8024.05	7118.7
850.4532	977.1641	8015.7	7143.7
850.5983	979.1704	7990.7	7117.55
850.7435	981.1759	7969.5	7093.5
850.8886	983.1808	7963	7087.65
851.0337	985.1849	8000.25	7115.85
851.1788	987.1884	8043.1	7168.75
851.324	989.1911	8126.95	7248.75
851.4691	991.1932	8190	7312.95
851.6142	993.1945	8178.4	7304.65
851.7593	995.1951	8174.05	7299.45
851.9045	997.1951	8166.95	7286.8
852.0496	999.1943	8109.35	7236.55
852.1947	1001.1928	8141.2	7266.9
852.3398	1003.1906	8170.2	7295.85
852.4849	1005.1877	8289.9	7413.65
852.63	1007.1841	8371.45	7496.85
852.7751	1009.1798	8409.4	7537.25
852.9202	1011.1748	8311.7	7435.95
853.0653	1013.1691	8152.85	7275.6
853.2104	1015.1627	7975.1	7100.5
853.3555	1017.1556	7779.85	6904.8
853.5006	1019.1477	7679.6	6804.3
853.6457	1021.1392	7588	6711.95
853.7908	1023.1299	7535.7	6661.25
853.9359	1025.12	7559.55	6681.75
854.081	1027.1093	7617.8	6744.3
854.2261	1029.0979	7714.8	6840.95
854.3712	1031.0859	7796.4	6919
854.5163	1033.0731	7842.1	6967.15
854.6613	1035.0596	7801.95	6928.35
854.8064	1037.0454	7701.2	6826.3
854.9515	1039.0304	7600.4	6725.4
855.0965	1041.0148	7494.9	6620.9
855.2416	1042.9985	7391.55	6513.4
855.3867	1044.9814	7347.45	6472.75
855.5317	1046.9636	7310.3	6434.6
855.6768	1048.9452	7277.2	6399.45
855.8219	1050.926	7327.75	6451.6
855.9669	1052.9061	7340.1	6466.85
856.112	1054.8855	7373.35	6497.35
856.257	1056.8642	7426.85	6551.75
856.4021	1058.8421	7440.9	6560.2
856.5471	1060.8194	7467.15	6591.8
856.6921	1062.7959	7526.05	6650.4
856.8372	1064.7717	7580.2	6701.7
856.9822	1066.7469	7639.55	6762.1
857.1272	1068.7213	7703.75	6826.05
857.2723	1070.695	7779.45	6902.1
857.4173	1072.6679	7828.2	6953.9
857.5623	1074.6402	7825.85	6947.5
857.7073	1076.6117	7821.45	6941.95
857.8523	1078.5826	7715.05	6837.35
857.9973	1080.5527	7577.7	6698.05
858.1423	1082.5221	7492.1	6614.25
858.2873	1084.4908	7463	6584.6
858.4323	1086.4587	7467.65	6590.35
858.5773	1088.426	7495.95	6617.55
858.7223	1090.3925	7513.55	6630.5
858.8673	1092.3584	7533.35	6657.95
859.0123	1094.3235	7531.45	6655.1
859.1573	1096.2879	7625.4	6749.5
859.3022	1098.2515	7748.45	6870.4
859.4472	1100.2145	7881.4	7003.45
859.5922	1102.1767	8062.35	7185.25
859.7371	1104.1382	8267.3	7390.2
859.8821	1106.099	8498.55	7622.5
860.027	1108.0591	8741.6	7862.15
860.172	1110.0185	8860.15	7979.6
860.3169	1111.9771	8956.75	8080
860.4619	1113.9351	8886.4	8009.4
860.6068	1115.8923	8781.6	7905.55
860.7517	1117.8488	8627.55	7748.95
860.8967	1119.8045	8478.75	7601.95
861.0416	1121.7596	8351	7472.8
861.1865	1123.7139	8193	7315.9
861.3314	1125.6675	8134.35	7256.55
861.4763	1127.6204	8143.8	7267.6
861.6212	1129.5726	8125.15	7245.4
861.7661	1131.524	8050.75	7172.7
861.911	1133.4748	7927.8	7049
862.0559	1135.4248	7763.3	6884.75
862.2008	1137.3741	7601.25	6722.9
862.3457	1139.3226	7466.95	6586.4
862.4905	1141.2705	7433.2	6555.55
862.6354	1143.2176	7373.35	6488.25
862.7803	1145.164	7321.25	6442.95
862.9251	1147.1097	7250.85	6372.35
863.07	1149.0546	7165.45	6284.2
863.2148	1150.9989	7051.4	6172.2
863.3597	1152.9424	6951.8	6072.75
863.5045	1154.8852	6875.65	5994.65
863.6493	1156.8272	6830.95	5954.35
863.7942	1158.7686	6839.4	5954.8
863.939	1160.7092	6851.95	5972.75
864.0838	1162.6491	6879.95	5997.35
864.2286	1164.5883	6992.85	6114.45
864.3734	1166.5267	7099.95	6221.15
864.5182	1168.4644	7244.45	6363.8
864.663	1170.4014	7412.7	6529.95
864.8078	1172.3377	7654.9	6778
864.9526	1174.2732	7939.3	7061.6
865.0974	1176.2081	8354.5	7478.05
865.2421	1178.1421	8817.75	7932.95
865.3869	1180.0755	9341.55	8464.5
865.5317	1182.0082	9684.6	8805.15
865.6764	1183.9401	9844.6	8966.05
865.8212	1185.8713	9709.8	8829.8
865.9659	1187.8017	9388.55	8507.6
866.1106	1189.7315	9007.6	8128.4
866.2554	1191.6605	8635.8	7726.85
866.4001	1193.5888	8316.25	7434.8
866.5448	1195.5163	8168.1	7287.75
866.6895	1197.4432	8056.1	7174.3
866.8342	1199.3693	8021.65	7142
866.9789	1201.2947	7978.2	7091
867.1236	1203.2193	7951.6	7071.8
867.2683	1205.1432	7949.7	7070.3
867.413	1207.0664	7899.4	7021.75
867.5576	1208.9889	7895	7013.5
867.7023	1210.9106	7886.05	7009.05
867.847	1212.8316	7880.1	7001.45
867.9916	1214.7519	7943.5	7053.85
868.1363	1216.6715	7989.3	7110.15
868.2809	1218.5903	8054.95	7177.15
868.4255	1220.5084	8107.3	7228.45
868.5701	1222.4257	8199.15	7318.75
868.7148	1224.3424	8276	7396.9
868.8594	1226.2583	8402.8	7516.9
869.004	1228.1735	8551.9	7669.95
869.1486	1230.0879	8676.15	7795.55
869.2932	1232.0016	8889.6	8013.7
869.4377	1233.9146	9010.15	8128.4
869.5823	1235.8269	9035.9	8158.15
869.7269	1237.7384	9001.35	8120.6
869.8715	1239.6492	8890.3	8011.15
870.016	1241.5592	8873.9	7991.55
870.1606	1243.4686	8917.5	8037.95
870.3051	1245.3772	9083.85	8205.15
870.4496	1247.285	9296.1	8415.75
870.5941	1249.1922	9509.55	8628.85
870.7387	1251.0986	9683.15	8804.05
870.8832	1253.0042	9765.9	8885.2
871.0277	1254.9092	9872.6	8992.6
871.1722	1256.8134	9968.7	9086.8
871.3167	1258.7169	10114.55	9235.25
871.4611	1260.6196	10266.95	9385.8
871.6056	1262.5216	10473.3	9593.4
871.7501	1264.4229	10660.55	9782.4
871.8945	1266.3234	10847.5	9966.8
872.039	1268.2232	10969.75	10087.8
872.1834	1270.1223	11013.4	10130.2
872.3278	1272.0207	11050.8	10172.5
872.4723	1273.9183	11032.55	10145
872.6167	1275.8151	10951.7	10072.5
872.7611	1277.7113	10982.55	10101.75
872.9055	1279.6067	11044.3	10163.5
873.0499	1281.5014	11304.35	10422.05
873.1943	1283.3953	11716.95	10835.3
873.3386	1285.2885	12227.85	11348.9
873.483	1287.181	12802.85	11922.2
873.6274	1289.0727	13341.2	12460.05
873.7717	1290.9637	13681.1	12800.6
873.9161	1292.854	13898.65	13019.05
874.0604	1294.7435	13914.3	13031.9
874.2047	1296.6323	13764.4	12883.15
874.349	1298.5204	13567.9	12682.95
874.4933	1300.4077	13320.75	12440.9
874.6376	1302.2943	13035.75	12156.05
874.7819	1304.1802	12691.1	11813.3
874.9262	1306.0653	12230.85	11347.85
875.0705	1307.9497	11740.45	10858.65
875.2147	1309.8333	11356.65	10477.65
875.359	1311.7162	11015.7	10134.15
875.5032	1313.5984	10824.3	9939.25
875.6475	1315.4798	10684.6	9788.55
875.7917	1317.3605	10604.8	9708.6
875.9359	1319.2405	10483.4	9601.4
876.0801	1321.1197	10258.6	9373.95
876.2243	1322.9982	9973.2	9087.75
876.3685	1324.876	9694	8814.55
876.5127	1326.753	9372.05	8490.75
876.6569	1328.6293	9190.05	8306.2
876.801	1330.5048	9011.2	8130.75
876.9452	1332.3796	8827.3	7945.85
877.0893	1334.2537	8740.7	7830.65
877.2335	1336.127	8630.15	7750.9
877.3776	1337.9996	8585.4	7702.35
877.5217	1339.8714	8571.15	7689.9
877.6658	1341.7426	8608.45	7684.5
877.8099	1343.6129	8588.15	7707
877.954	1345.4826	8558.9	7676.5
878.0981	1347.3515	8583.4	7699
878.2422	1349.2196	8557	7674.6
878.3862	1351.087	8596.65	7715.25
878.5303	1352.9537	8638.55	7757.4
878.6743	1354.8197	8729.3	7848.7
878.8184	1356.6849	8877.05	7995.15
878.9624	1358.5493	9039.45	8156.85
879.1064	1360.4131	9231.75	8350.55
879.2504	1362.276	9378.5	8499.3
879.3944	1364.1383	9388.05	8506.2
879.5384	1365.9998	9272.65	8386.25
879.6823	1367.8606	8952.4	8070.15
879.8263	1369.7206	8655.75	7772.65
879.9702	1371.5799	8325.8	7443.35
880.1142	1373.4384	8087.85	7205.6
880.2581	1375.2962	7859.25	6976.7
880.402	1377.1533	7568.3	6688.15
880.5459	1379.0096	7204.95	6324.15
880.6898	1380.8652	6908.75	6025.35
880.8337	1382.7201	6656.5	5773.95
880.9776	1384.5742	6428.8	5546.15
881.1215	1386.4275	6256.2	5372.4
881.2653	1388.2802	6125.6	5244.75
881.4092	1390.132	6029.7	5147.05
881.553	1391.9832	5974.6	5092
881.6968	1393.8336	5899.7	5017.7
881.8406	1395.6832	5864.95	4981.2
881.9844	1397.5322	5818.65	4939.3
882.1282	1399.3803	5780	4893.3
882.272	1401.2278	5760	4880.15
882.4158	1403.0745	5755.3	4876.05
882.5595	1404.9204	5742.25	4860.1
882.7033	1406.7656	5758.05	4876
882.847	1408.6101	5760.05	4876.5
882.9908	1410.4538	5789.4	4908.85
883.1345	1412.2968	5828.15	4945.7
883.2782	1414.139	5872.6	4990.4
883.4219	1415.9805	5959.25	5078.4
883.5656	1417.8213	6032.05	5144.45
883.7092	1419.6613	6126.4	5244.15
883.8529	1421.5006	6255.5	5370.65
883.9965	1423.3391	6464.1	5581.25
884.1402	1425.1769	6742.45	5859.85
884.2838	1427.0139	7119.15	6236.55
884.4274	1428.8502	7627.85	6744.95
884.571	1430.6858	8143	7259.9
884.7146	1432.5206	8492.4	7610.6
884.8582	1434.3547	8687.4	7803.25
885.0018	1436.188	8698.25	7814.5
885.1453	1438.0206	8645	7762.05
885.2889	1439.8524	8468.85	7587.4
885.4324	1441.6835	8375.85	7493.5
885.5759	1443.5139	8276.45	7390.9
885.7194	1445.3435	8205.9	7323
885.8629	1447.1724	8178.65	7297.85
886.0064	1449.0005	8138.1	7256.6
886.1499	1450.8279	8130.25	7247.35
886.2933	1452.6545	8113.5	7231.2
886.4368	1454.4804	8103.7	7222.55
886.5802	1456.3056	8111.65	7221.6
886.7237	1458.13	8071.7	7188.95
886.8671	1459.9536	7919.85	7038.3
887.0105	1461.7766	7689.95	6808.6
887.1539	1463.5987	7374.9	6491.3
887.2972	1465.4202	7069.4	6187.5
887.4406	1467.2409	6775.4	5893.85
887.584	1469.0608	6519	5637.95
887.7273	1470.88	6273.95	5389.95
887.8706	1472.6984	6052.1	5171.25
888.0139	1474.5161	5887.05	5002.05
888.1572	1476.3331	5747.15	4867.2
888.3005	1478.1493	5649.75	4764.9
888.4438	1479.9648	5573.85	4692.55
888.5871	1481.7795	5514.8	4631.95
888.7303	1483.5935	5442.05	4560.65
888.8736	1485.4067	5390.9	4506.85
889.0168	1487.2192	5388.15	4505.55
889.16	1489.031	5349.05	4465.35
889.3032	1490.842	5317.45	4435
889.4464	1492.6522	5273.95	4391.45
889.5896	1494.4618	5243.5	4360.2
889.7327	1496.2705	5215.7	4333.1
889.8759	1498.0785	5167.35	4283.8
890.019	1499.8858	5151.75	4267.7
890.1622	1501.6924	5122.5	4241.15
890.3053	1503.4981	5088.65	4207.1
890.4484	1505.3032	5042.35	4159.3
890.5914	1507.1075	5003.15	4120.65
890.7345	1508.911	4977.2	4096.05
890.8776	1510.7138	4944.85	4061
891.0206	1512.5159	4908.4	4025.8
891.1637	1514.3172	4864.75	3982
891.3067	1516.1178	4815.3	3934.3
891.4497	1517.9176	4809.85	3924.15
891.5927	1519.7166	4775.3	3894.1
891.7357	1521.515	4748.35	3858.8
891.8786	1523.3126	4734.95	3850.1
892.0216	1525.1094	4723.2	3838.3
892.1645	1526.9055	4707.5	3827.85
892.3074	1528.7008	4667.35	3786.15
892.4503	1530.4954	4649.5	3759.55
892.5932	1532.2893	4654.25	3774
892.7361	1534.0824	4640.9	3751.25
892.879	1535.8747	4632.15	3749.8
893.0218	1537.6663	4629.8	3747.5
893.1647	1539.4572	4619.95	3734.85
893.3075	1541.2473	4634.65	3750.6
893.4503	1543.0367	4638	3755.15
893.5931	1544.8253	4644.7	3757.7
893.7359	1546.6132	4677.55	3792.5
893.8787	1548.4003	4725.05	3834.65
894.0214	1550.1867	4753.3	3862.45
894.1642	1551.9723	4807.55	3920.7
894.3069	1553.7572	4892.35	4008.25
894.4496	1555.5414	5008.7	4126.15
894.5923	1557.3247	5136.35	4253.5
894.735	1559.1074	5299.15	4416.3
894.8777	1560.8893	5462.5	4582.15
895.0204	1562.6705	5632.7	4752.35
895.163	1564.4509	5747.05	4865.15
895.3056	1566.2305	5829.85	4946.55
895.4482	1568.0094	5885.9	5002.75
895.5908	1569.7876	5878.15	4994.5
895.7334	1571.565	5881.4	4999.45
895.876	1573.3417	5877.35	4995.1
896.0186	1575.1176	5868	4984.35
896.1611	1576.8928	5881.1	4995.8
896.3036	1578.6672	5886.55	5004.4
896.4461	1580.4409	5907.95	5027.4
896.5886	1582.2138	5957	5069.6
896.7311	1583.986	6009.95	5126.65
896.8736	1585.7575	6105	5223.4
897.0161	1587.5282	6208.15	5327
897.1585	1589.2981	6290.75	5409.05
897.3009	1591.0673	6373.75	5491.55
897.4433	1592.8358	6503.9	5622.7
897.5857	1594.6035	6601.7	5716.9
897.7281	1596.3704	6678.35	5795.85
897.8705	1598.1366	6740.9	5859.15
898.0128	1599.9021	6815.25	5933.65
898.1551	1601.6668	6901.6	6016.3
898.2975	1603.4308	7021.8	6139.45
898.4398	1605.194	7186.8	6298.9
898.5821	1606.9564	7358.2	6474.2
898.7243	1608.7182	7604.6	6720.15
898.8666	1610.4791	7888.95	7005.9
899.0088	1612.2394	8200.95	7317.85
899.1511	1613.9988	8546.65	7664.9
899.2933	1615.7576	8821.7	7941.1
899.4355	1617.5156	9055.25	8167.85
899.5776	1619.2728	9109.65	8230.6
899.7198	1621.0293	9033.25	8153
899.862	1622.785	8848.95	7961.45
900.0041	1624.54	8529.65	7647
900.1462	1626.2942	8163.15	7278.65
900.2883	1628.0477	7751.05	6866
900.4304	1629.8005	7371.5	6484.3
900.5725	1631.5525	7048.5	6167.2
900.7145	1633.3037	6743.95	5861.9
900.8566	1635.0542	6541.9	5658.1
900.9986	1636.804	6373.15	5491.4
901.1406	1638.553	6300.75	5342.65
901.2826	1640.3013	6169.05	5288
901.4245	1642.0488	6108.8	5225
901.5665	1643.7955	6112.4	5231.65
901.7085	1645.5416	6172.75	5289.7
901.8504	1647.2868	6240.45	5358.6
901.9923	1649.0313	6296.45	5414.95
902.1342	1650.7751	6461.75	5576.4
902.2761	1652.5181	6575.45	5694.15
902.4179	1654.2604	6728.8	5846
902.5598	1656.0019	6915.45	6033.65
902.7016	1657.7427	7154.3	6272.7
902.8434	1659.4828	7387	6505.45
902.9852	1661.222	7519.6	6638.1
903.127	1662.9606	7519.2	6638.1
903.2687	1664.6984	7327.9	6447
903.4105	1666.4354	6939.85	6057.65
903.5522	1668.1717	6467.3	5584.55
903.6939	1669.9072	5967.15	5083.8
903.8356	1671.642	5528.65	4645.1
903.9773	1673.3761	5173.35	4293.9
904.119	1675.1094	4894.15	4012.45
904.2606	1676.8419	4676.75	3796.75
904.4022	1678.5737	4500.7	3619.9
904.5439	1680.3048	4364.3	3482.5
904.6855	1682.0351	4257.6	3376.3
904.827	1683.7646	4172.65	3289.05
904.9686	1685.4934	4082.4	3200.45
905.1101	1687.2215	4042.55	3158.7
905.2517	1688.9488	3964.45	3084.3
905.3932	1690.6754	3905.25	3024.9
905.5347	1692.4012	3876.95	2995.75
905.6761	1694.1263	3832.95	2952.15
905.8176	1695.8506	3799.2	2918.35
905.9591	1697.5742	3773.6	2892.35
906.1005	1699.297	3729.7	2848.55
906.2419	1701.0191	3720	2839.2
906.3833	1702.7404	3675.4	2793.1
906.5246	1704.461	3638.6	2757
906.666	1706.1808	3599.2	2714.65
906.8073	1707.8999	3602.75	2720
906.9487	1709.6182	3570.7	2688.35
907.09	1711.3358	3554.95	2673.3
907.2313	1713.0527	3526.6	2646.55
907.3725	1714.7688	3505.75	2616.8
907.5138	1716.4841	3486.6	2605.15
907.655	1718.1987	3488.4	2600.45
907.7962	1719.9126	3458.75	2578.55
907.9374	1721.6257	3444.15	2558.15
908.0786	1723.338	3441.35	2557.75
908.2198	1725.0496	3427.25	2545.35
908.3609	1726.7605	3427.3	2545.95
908.502	1728.4706	3419.75	2538.4
908.6431	1730.18	3388.65	2504.2
908.7842	1731.8886	3399.55	2519.05
908.9253	1733.5964	3380.7	2493.5
909.0664	1735.3036	3372.25	2488.55
909.2074	1737.0099	3356.85	2474.75
909.3484	1738.7156	3334.85	2453.45
909.4894	1740.4204	3300.5	2415
909.6304	1742.1246	3279.7	2398.2
909.7714	1743.8279	3284.4	2402.85
909.9123	1745.5306	3266.8	2383.05
910.0532	1747.2325	3246.95	2363.35
910.1941	1748.9336	3227.05	2347.65
910.335	1750.634	3227.85	2342.75
910.4759	1752.3336	3215.5	2335.35
910.6168	1754.0325	3199.7	2321.5
910.7576	1755.7307	3206.15	2326.05
910.8984	1757.4281	3192.8	2312.5
911.0392	1759.1247	3197.65	2307.65
911.18	1760.8206	3183.15	2298.65
911.3208	1762.5158	3184.7	2299.85
911.4615	1764.2102	3167.6	2287.65
911.6022	1765.9039	3159.2	2276.85
911.7429	1767.5968	3147.3	2266.25
911.8836	1769.289	3137.5	2255.2
912.0243	1770.9804	3122.4	2239.35
912.1649	1772.6711	3131.7	2251.75
912.3056	1774.361	3120.95	2237.95
912.4462	1776.0502	3118.05	2237.15
912.5868	1777.7386	3112.55	2227.95
912.7274	1779.4263	3094.75	2213.2
912.8679	1781.1132	3113.15	2232.55
913.0084	1782.7994	3088.55	2203
913.149	1784.4849	3087.45	2206.15
913.2895	1786.1696	3093.05	2194
913.4299	1787.8535	3075.2	2195.35
913.5704	1789.5367	3064.4	2183.85
913.7108	1791.2192	3075.65	2192.95
913.8513	1792.9009	3054.35	2160
913.9917	1794.5818	3054.6	2173.75
914.132	1796.2621	3054	2172.55
914.2724	1797.9415	3039.35	2158.65
914.4128	1799.6202	3039.3	2158
914.5531	1801.2982	3015.1	2133.75
914.6934	1802.9755	3016.35	2135.7
914.8337	1804.6519	3007.8	2125.75
914.9739	1806.3277	2996.8	2115.7
915.1142	1808.0027	2984.3	2105
915.2544	1809.6769	2983.55	2102.5
915.3946	1811.3504	2985.4	2100.55
915.5348	1813.0231	2986.15	2103.1
915.675	1814.6951	2984.15	2102.35
915.8151	1816.3664	2982.95	2100.85
915.9553	1818.0369	2977.9	2096.15
916.0954	1819.7067	2965.1	2084.55
916.2355	1821.3757	2973.7	2089.7
916.3755	1823.044	2960.1	2080.35
916.5156	1824.7115	2953.9	2070.2
916.6556	1826.3783	2938.45	2056.65
916.7956	1828.0443	2929.45	2048.2
916.9356	1829.7096	2927.25	2042.85
917.0756	1831.3741	2933.95	2049.2
917.2155	1833.0379	2922.2	2041.35
917.3555	1834.701	2926.25	2041.55
917.4954	1836.3633	2911.4	2029.35
917.6353	1838.0248	2926.05	2042.05
917.7751	1839.6856	2915.7	2032.95
917.915	1841.3457	2915.8	2035.7
918.0548	1843.005	2903.1	2021.25
918.1946	1844.6636	2917.05	2036.6
918.3344	1846.3214	2889.55	2008.5
918.4742	1847.9785	2898.65	2019.1
918.6139	1849.6349	2901.3	2018.25
918.7537	1851.2904	2895.95	2004.9
918.8934	1852.9453	2877.1	1995.6
919.0331	1854.5994	2873.65	1990.35
919.1727	1856.2528	2871.7	1984.55
919.3124	1857.9054	2877.65	1996.25
919.452	1859.5572	2869.3	1989
919.5916	1861.2083	2874.85	1992.15
919.7312	1862.8587	2875.65	1995.65
919.8708	1864.5084	2860.5	1976.6
920.0103	1866.1572	2853.75	1972.65
920.1498	1867.8054	2827.5	1945.5
920.2893	1869.4528	2837.9	1955.95
920.4288	1871.0994	2830.05	1950.9
920.5683	1872.7453	2828.1	1945.5
920.7077	1874.3905	2838.25	1938.25
920.8471	1876.0349	2815.4	1933.8
920.9865	1877.6786	2829.4	1946.4
921.1259	1879.3215	2818.3	1938.15
921.2653	1880.9637	2800.15	1918.55
921.4046	1882.6051	2795.95	1915.2
921.5439	1884.2458	2802.4	1917.35
921.6832	1885.8858	2789	1908.55
921.8225	1887.525	2783.65	1899.95
921.9617	1889.1634	2778.5	1897.65
922.101	1890.8011	2769.1	1886.25
922.2402	1892.4381	2771.8	1890.2
922.3794	1894.0743	2768	1888.35
922.5185	1895.7098	2766.9	1886.1
922.6577	1897.3446	2755.95	1873.8
922.7968	1898.9786	2750.3	1864.45
922.9359	1900.6118	2750.15	1867.65
923.075	1902.2443	2724.55	1841.05
923.214	1903.8761	2730.3	1848.4
923.3531	1905.5071	2729.75	1846.4
923.4921	1907.1374	2712.4	1831.85
923.6311	1908.7669	2714.6	1832.15
923.77	1910.3957	2712.9	1833.1
923.909	1912.0237	2708.8	1826.05
924.0479	1913.651	2712.35	1830.2
924.1868	1915.2776	2692.65	1812
924.3257	1916.9034	2688.4	1807.35
924.4646	1918.5285	2679.55	1798.95
924.6034	1920.1528	2670.35	1788.35
924.7422	1921.7764	2669.7	1788
924.881	1923.3992	2657.85	1776.75
925.0198	1925.0213	2656.25	1773.95
925.1586	1926.6427	2645.2	1764.75
925.2973	1928.2633	2735.2	1749.05
925.436	1929.8832	2658	1774.9
925.5747	1931.5023	2644.2	1763.05
925.7134	1933.1207	2626.75	1745.15
925.852	1934.7383	2628.75	1747.25
925.9906	1936.3552	2625.2	1744.55
926.1292	1937.9714	2623.1	1740.45
926.2678	1939.5868	2612.65	1729.6
926.4064	1941.2015	2608.85	1727.75
926.5449	1942.8154	2587.9	1705.75
926.6834	1944.4286	2582.45	1700.25
926.8219	1946.041	2590.5	1686.75
926.9604	1947.6528	2573.2	1687.7
927.0988	1949.2637	2570.95	1690.45
927.2372	1950.8739	2554.85	1673.3
927.3756	1952.4834	2569.25	1686.1
927.514	1954.0921	2557.6	1675.85
927.6523	1955.7001	2560.1	1673.8
927.7907	1957.3074	2554.7	1673.05
927.929	1958.9139	2536.45	1654
928.0673	1960.5197	2541.7	1657.05
928.2055	1962.1247	2522.25	1641.2
928.3438	1963.729	2517.25	1638.3
928.482	1965.3325	2530.5	1624.95
928.6202	1966.9353	2504.1	1622.7
928.7584	1968.5374	2510.7	1628.85
928.8965	1970.1387	2488.8	1607.6
929.0346	1971.7393	2494.55	1611.55
929.1727	1973.3392	2500.55	1618.55
929.3108	1974.9383	2482.65	1601.6
929.4489	1976.5366	2479.55	1598.15
929.5869	1978.1342	2471	1589.15
929.7249	1979.7311	2480.95	1596.85
929.8629	1981.3273	2471.8	1588.8
930.0009	1982.9227	2466.25	1582.1
930.1388	1984.5173	2454.3	1571.35
930.2767	1986.1112	2451.25	1569.5
930.4146	1987.7044	2446.1	1565.75
930.5525	1989.2968	2437.65	1555.75
930.6904	1990.8885	2443.8	1557.3
930.8282	1992.4795	2433.95	1551.2
930.966	1994.0697	2422.9	1542.95
931.1038	1995.6592	2425.7	1542.7
931.2415	1997.2479	2420.75	1539.05
931.3793	1998.8359	2414	1531.85
931.517	2000.4232	2403.4	1523.3
931.6547	2002.0097	2404.1	1522.75
931.7923	2003.5955	2395.95	1514.2
931.93	2005.1805	2405.85	1522
932.0676	2006.7648	2402.35	1522.05
932.2052	2008.3484	2391.45	1509.75
932.3427	2009.9312	2400.05	1516.95
932.4803	2011.5133	2383	1500.95
932.6178	2013.0946	2390.5	1508.7
932.7553	2014.6752	2381.55	1500.3
932.8928	2016.2551	2388.25	1505.95
933.0302	2017.8342	2386.3	1504.5
933.1676	2019.4126	2359.75	1475.65
933.305	2020.9902	2351.25	1468.25
933.4424	2022.5672	2360.6	1474.85
933.5798	2024.1433	2368.85	1481.3
933.7171	2025.7188	2354.95	1474.45
933.8544	2027.2935	2347.85	1463.2
933.9917	2028.8674	2345.4	1463.65
934.129	2030.4406	2335.75	1455.9
934.2662	2032.0131	2338.55	1459.5
934.4034	2033.5849	2332.95	1443.85
934.5406	2035.1559	2326.3	1444.55
934.6778	2036.7261	2326.6	1444
934.8149	2038.2957	2316.55	1437.65
934.952	2039.8645	2322.85	1442.6
935.0891	2041.4325	2323.45	1438.4
935.2262	2042.9998	2317.45	1437.05
935.3632	2044.5664	2312.5	1427.3
935.5002	2046.1323	2294.2	1414
935.6372	2047.6974	2294.4	1412.3
935.7742	2049.2617	2295.9	1415
935.9111	2050.8254	2325.75	1410.75
936.048	2052.3883	2297.95	1417.25
936.1849	2053.9504	2291.4	1410.6
936.3218	2055.5118	2277.7	1394.75
936.4586	2057.0725	2271	1384.7
936.5955	2058.6325	2278.25	1397.75
936.7323	2060.1917	2266.45	1382.75
936.869	2061.7502	2279.3	1395.05
937.0058	2063.3079	2261.8	1381.25
937.1425	2064.8649	2260.6	1376.35
937.2792	2066.4212	2253.6	1371.85
937.4159	2067.9767	2260.55	1378.3
937.5525	2069.5315	2245.2	1362.15
937.6891	2071.0856	2241.55	1359.45
937.8257	2072.6389	2242.5	1358.45
937.9623	2074.1915	2235.1	1356.35
938.0989	2075.7433	2218.5	1335.75
938.2354	2077.2945	2216	1337.15
938.3719	2078.8448	2210.8	1329.2
938.5084	2080.3945	2213.35	1330.65
938.6448	2081.9434	2204.55	1323.4
938.7812	2083.4916	2212.5	1330
938.9176	2085.039	2198	1314.85
939.054	2086.5857	2208.3	1326.7
939.1903	2088.1317	2199.15	1317.85
939.3267	2089.677	2193.7	1311.55
939.463	2091.2215	2180.3	1299.15
939.5992	2092.7652	2185.1	1299.1
939.7355	2094.3083	2178.1	1297.25
939.8717	2095.8506	2182.05	1299.65
940.0079	2097.3921	2185.35	1303.65
940.1441	2098.933	2183.75	1303.05
940.2802	2100.4731	2174.9	1293.65
940.4163	2102.0124	2191.6	1291.15
940.5524	2103.5511	2171	1289.7
940.6885	2105.089	2174.9	1292.4
940.8245	2106.6261	2167.55	1287.3
940.9606	2108.1626	2167.5	1284.35
941.0965	2109.6983	2188.4	1278.05
941.2325	2111.2332	2163.45	1278.35
941.3684	2112.7675	2163.75	1280.55
941.5044	2114.301	2157.2	1275.05
941.6403	2115.8337	2146.85	1264.6
941.7761	2117.3657	2141.95	1259.65
941.912	2118.897	2141.8	1259.3
942.0478	2120.4276	2144.1	1255.7
942.1835	2121.9575	2125.7	1246.05
942.3193	2123.4866	2155.5	1258.95
942.455	2125.0149	2135.9	1252.3
942.5907	2126.5426	2126.4	1245.25
942.7264	2128.0695	2121.6	1234
942.8621	2129.5956	2119.05	1237.35
942.9977	2131.1211	2111.8	1225.3
943.1333	2132.6458	2103.4	1221.35
943.2689	2134.1698	2102.3	1219.1
943.4044	2135.693	2113.4	1229.65
943.54	2137.2155	2095.2	1211.7
943.6755	2138.7373	2097.6	1215.55
943.8109	2140.2584	2093.4	1211.2
943.9464	2141.7787	2097.4	1209.35
944.0818	2143.2983	2083.4	1201.15
944.2172	2144.8171	2067.4	1187.05
944.3526	2146.3353	2087.95	1204.9
944.4879	2147.8527	2080.25	1199.65
944.6232	2149.3693	2065.2	1182.75
944.7585	2150.8853	2077.35	1195.65
944.8938	2152.4005	2065.9	1184.65
945.029	2153.9149	2068.1	1185.8
945.1642	2155.4287	2048.5	1165.8
945.2994	2156.9417	2050.55	1167.95
945.4346	2158.454	2067.85	1184
945.5697	2159.9655	2059.9	1180.5
945.7048	2161.4764	2044.8	1163.35
945.8399	2162.9865	2042.1	1161.45
945.9749	2164.4958	2049.5	1165.55
946.1099	2166.0045	2042.4	1157.35
946.2449	2167.5124	2037.75	1155.25
946.3799	2169.0195	2033.2	1152.1
946.5148	2170.526	2037.15	1154.9
946.6498	2172.0317	2036.8	1155.25
946.7846	2173.5367	2028.9	1145.6
946.9195	2175.0409	2027.65	1147.1
947.0543	2176.5445	2027.4	1145.85
947.1891	2178.0473	2024.3	1141.55
947.3239	2179.5494	2019.4	1134.65
947.4587	2181.0507	2018.9	1137.35
947.5934	2182.5513	2013.05	1132.45
947.7281	2184.0512	2009.05	1126.55
947.8628	2185.5504	2005.3	1124.5
947.9974	2187.0488	2004.35	1124.3
948.132	2188.5465	2009.1	1125.2
948.2666	2190.0435	2003.8	1122.55
948.4012	2191.5397	1984.7	1102.15
948.5357	2193.0353	1990.55	1108.4
948.6702	2194.5301	1983.55	1100.3
948.8047	2196.0241	1978	1096.2
948.9392	2197.5175	1973.65	1090.35
949.0736	2199.0101	1969.7	1085.6
949.208	2200.502	1975.3	1095.5
949.3424	2201.9931	1964.3	1084.1
949.4767	2203.4835	1964.65	1080.3
949.611	2204.9733	1976.7	1076.9
949.7453	2206.4622	1962.35	1078.5
949.8796	2207.9505	1961.95	1076.3
950.0138	2209.438	1960.25	1080.4
950.148	2210.9248	1953.3	1067.75
950.2822	2212.4109	1947.45	1068.2
950.4164	2213.8962	1942.85	1058.3
950.5505	2215.3809	1941.65	1059.4
950.6846	2216.8648	1937.6	1053.35
950.8186	2218.3479	1938.25	1051.25
950.9527	2219.8304	1922.05	1035.9
951.0867	2221.3121	1925.35	1042.35
951.2207	2222.7931	1919.65	1039.15
951.3546	2224.2733	1919.4	1036.25
951.4886	2225.7529	1924.85	1041.95
951.6225	2227.2317	1908.75	1023.25
951.7563	2228.7098	1909.1	1027.4
951.8902	2230.1872	1901.05	1017
952.024	2231.6638	1909.65	1026.55
952.1578	2233.1397	1904.4	1015.7
952.2916	2234.6149	1900.1	1018.55
952.4253	2236.0894	1884.4	1003.65
952.559	2237.5632	1897.45	1004.4
952.6927	2239.0362	1889.3	1005.25
952.8263	2240.5085	1890.7	1006.9
952.9599	2241.9801	1883.8	1001.8
953.0935	2243.4509	1871.5	992.1
953.2271	2244.921	1879.85	998.6
953.3606	2246.3904	1877.6	993.8
953.4941	2247.8591	1865.55	983.05
953.6276	2249.3271	1866.5	984.65
953.7611	2250.7943	1854.8	973.35
953.8945	2252.2608	1859.95	978.55
954.0279	2253.7266	1857.4	977.25
954.1612	2255.1917	1850.7	969.9
954.2946	2256.656	1852.55	969.75
954.4279	2258.1197	1837.25	956.8
954.5612	2259.5826	1849.1	963.6
954.6944	2261.0447	1842.85	959.3
954.8276	2262.5062	1842.95	960.4
954.9608	2263.9669	1833.05	950.6
955.094	2265.4269	1830.2	950.1
955.2271	2266.8862	1824.55	942.9
955.3602	2268.3448	1836	953.5
955.4933	2269.8026	1823.1	941.2
955.6264	2271.2598	1824.8	942.15
955.7594	2272.7162	1821.4	942.45
955.8924	2274.1719	1822.4	937.85
956.0253	2275.6268	1817.15	936.35
956.1583	2277.0811	1832.35	950.9
956.2912	2278.5346	1823.4	941.2
956.4241	2279.9874	1821.2	938.2
956.5569	2281.4395	1822.3	941.4
956.6897	2282.8908	1809.65	922.05
956.8225	2284.3414	1803.65	919.75
956.9553	2285.7914	1803.65	922.9
957.088	2287.2406	1811.8	926.85
957.2207	2288.689	1795.55	914.8
957.3534	2290.1368	1795.8	913.8
957.486	2291.5838	1798.15	915.05
957.6186	2293.0302	1790.45	907.9
957.7512	2294.4758	1788.9	907.95
957.8838	2295.9206	1793.8	910.15
958.0163	2297.3648	1785.4	902.4
958.1488	2298.8082	1789.85	907.3
958.2813	2300.251	1781.9	900.65
958.4137	2301.693	1788.35	903.9
958.5461	2303.1343	1778.75	896.35
958.6785	2304.5748	1778.1	896.05
958.8108	2306.0147	1775.95	894.95
958.9432	2307.4538	1783.75	900.15
959.0754	2308.8922	1766.25	886.7
959.2077	2310.3299	1771.3	892.15
959.3399	2311.7669	1760.95	880
959.4721	2313.2031	1754.35	873.25
959.6043	2314.6387	1760.75	876.7
959.7365	2316.0735	1754.65	871.85
959.8686	2317.5076	1751.85	870.5
960.0006	2318.941	1757.2	875.55
960.1327	2320.3737	1745.8	863.95
960.2647	2321.8056	1748.35	863.95
960.3967	2323.2369	1743.45	859.55
960.5287	2324.6674	1745.5	861.6
960.6606	2326.0972	1736.45	851.8
960.7925	2327.5263	1742.75	861.5
960.9244	2328.9547	1729.85	847.45
961.0562	2330.3823	1729.85	848.65
961.1881	2331.8092	1737.9	854.3
961.3198	2333.2355	1727.85	847.25
961.4516	2334.661	1729.35	847.2
961.5833	2336.0858	1720.75	834.5
961.715	2337.5098	1725.65	844.65
961.8467	2338.9332	1717.7	833.6
961.9783	2340.3558	1718.85	833.45
962.1099	2341.7778	1720.6	838.25
962.2415	2343.199	1716.45	832.45
962.373	2344.6195	1717.6	837.75
962.5045	2346.0393	1713.8	832.65
962.636	2347.4583	1720.35	837.15
962.7675	2348.8767	1702.55	820.6
962.8989	2350.2943	1701.25	821.35
963.0303	2351.7113	1699.2	815.6
963.1617	2353.1275	1707	824.5
963.293	2354.543	1718.55	826.3
963.4243	2355.9578	1701.15	819.55
963.5556	2357.3718	1700.3	817.85
963.6868	2358.7852	1704.45	818.25
963.818	2360.1978	1690.8	808.65
963.9492	2361.6098	1690.85	809.85
964.0803	2363.021	1694.05	808.75
964.2114	2364.4315	1687.25	804.4
964.3425	2365.8413	1681.25	797.9
964.4736	2367.2504	1681.35	800.45
964.6046	2368.6587	1681.1	798.8
964.7356	2370.0664	1675.4	794.95
964.8666	2371.4733	1679.2	797.6
964.9975	2372.8795	1684.5	802.45
965.1284	2374.285	1668.2	784.6
965.2593	2375.6899	1658.1	777.25
965.3901	2377.0939	1661.15	779.3
965.5209	2378.4973	1657.6	779.15
965.6517	2379.9	1664.95	783.3
965.7825	2381.3019	1662.95	780.45
965.9132	2382.7032	1654.2	772.05
966.0439	2384.1037	1652.95	774
966.1745	2385.5035	1649.55	766.9
966.3051	2386.9027	1653.75	772
966.4357	2388.3011	1649.65	764.45
966.5663	2389.6987	1646.8	764.1
966.6968	2391.0957	1642.9	761.3
966.8273	2392.492	1628.9	748
966.9578	2393.8876	1634.55	751.85
967.0882	2395.2824	1639.65	758.55
967.2186	2396.6765	1624.3	744.5
967.349	2398.07	1626.5	745.35
967.4793	2399.4627	1623.1	741.65
967.6097	2400.8547	1622.6	739.65
967.7399	2402.246	1628	740.1
967.8702	2403.6366	1618.85	735.3
968.0004	2405.0265	1620.3	738.75
968.1306	2406.4156	1613.1	726.3
968.2607	2407.8041	1615.6	731.4
968.3909	2409.1918	1619.7	735.75
968.521	2410.5789	1609	726.85
968.651	2411.9652	1609.25	724.6
968.781	2413.3508	1604.8	723.65
968.911	2414.7358	1599.55	716.25
969.041	2416.12	1604.45	724.75
969.1709	2417.5035	1601.95	721.9
969.3008	2418.8863	1595.85	713.4
969.4307	2420.2684	1595.05	715.35
969.5606	2421.6497	1595.3	714.1
969.6904	2423.0304	1587.05	705.2
969.8201	2424.4104	1596.95	715.95
969.9499	2425.7896	1594.2	706.3
970.0796	2427.1682	1581.3	700.9
970.2093	2428.546	1590.2	707.75
970.3389	2429.9232	1585.05	702.5
970.4685	2431.2996	1585.15	704.6
970.5981	2432.6753	1581.95	700.6
970.7277	2434.0503	1571.4	688.7
970.8572	2435.4246	1572.55	691.65
970.9867	2436.7982	1576.7	690
971.1161	2438.1711	1566.45	684.25
971.2456	2439.5433	1560.75	676.45
971.375	2440.9148	1572.85	686.3
971.5043	2442.2856	1566.9	685.1
971.6336	2443.6557	1565.55	681.1
971.7629	2445.025	1559.9	678.7
971.8922	2446.3937	1559.5	676.9
972.0214	2447.7617	1556.1	675.3
972.1506	2449.1289	1559.95	679.05
972.2798	2450.4955	1555.95	672.1
972.4089	2451.8613	1548.9	669
972.538	2453.2265	1550.1	669.1
972.6671	2454.5909	1552.3	668.65
972.7961	2455.9546	1543.95	663.15
972.9251	2457.3177	1539.65	658.95
973.0541	2458.68	1544.7	664.05
973.1831	2460.0416	1544.5	662.65
973.312	2461.4025	1539.5	656.95
973.4408	2462.7627	1552.25	658.7
973.5697	2464.1222	1531.05	649.85
973.6985	2465.4811	1537.8	655.7
973.8273	2466.8392	1532.95	649.85
973.956	2468.1966	1540.7	657.7
974.0847	2469.5533	1539.15	655.55
974.2134	2470.9093	1530.15	647.45
974.3421	2472.2645	1535	650.8
974.4707	2473.6191	1524.3	642.7
974.5993	2474.973	1526.75	644.2
974.7278	2476.3262	1528.05	644.8
974.8563	2477.6787	1527.95	648
974.9848	2479.0305	1516.7	636.1
975.1132	2480.3816	1515.8	631.45
975.2417	2481.7319	1528.85	648.5
975.37	2483.0816	1526.6	642.3
975.4984	2484.4306	1520.35	637.35
975.6267	2485.7789	1516.3	634.6
975.755	2487.1264	1522.05	637.55
975.8833	2488.4733	1513.9	634.6
976.0115	2489.8195	1525.55	627.05
976.1397	2491.165	1512.45	629.85
976.2678	2492.5097	1510.65	628.3
976.3959	2493.8538	1502.7	621.85
976.524	2495.1972	1496.05	614.15
976.6521	2496.5398	1503.95	622
976.7801	2497.8818	1498.75	613.45
976.9081	2499.2231	1498.8	619.4
977.036	2500.5637	1497.25	612.55
977.164	2501.9035	1490.25	609.1
977.2918	2503.2427	1494.85	609.95
977.4197	2504.5812	1489.7	609.3
977.5475	2505.919	1488.75	601.2
977.6753	2507.256	1486.35	605.1
977.8031	2508.5924	1487.4	606.7
977.9308	2509.9281	1489.65	601.05
978.0585	2511.2631	1491.45	610.15
978.1861	2512.5974	1474.25	592.55
978.3137	2513.9309	1476.5	594.05
978.4413	2515.2638	1508.95	596.3
978.5689	2516.596	1479.7	597.65
978.6964	2517.9275	1470.2	585.85
978.8239	2519.2583	1470.05	589.4
978.9513	2520.5884	1463.85	577.65
979.0788	2521.9178	1467.9	584.85
979.2062	2523.2465	1467.6	588.1
979.3335	2524.5745	1466	584.95
979.4608	2525.9018	1466.65	586.15
979.5881	2527.2284	1461.4	581.9
979.7154	2528.5543	1463.45	582.4
979.8426	2529.8796	1461.6	580.65
979.9698	2531.2041	1459.05	577.2
980.0969	2532.5279	1462.1	582
980.224	2533.851	1464.15	580.75
980.3511	2535.1735	1461.75	579.2
980.4781	2536.4952	1457	574.25
980.6052	2537.8163	1462.95	580.85
980.7321	2539.1366	1457.25	575.95
980.8591	2540.4562	1452.4	570.5
980.986	2541.7752	1448.6	567.45
981.1129	2543.0935	1452	572.75
981.2397	2544.411	1448.65	563.45
981.3665	2545.7279	1451.7	568.25
981.4933	2547.0441	1454.45	572.4
981.62	2548.3596	1450.75	563.1
981.7467	2549.6744	1450.9	570.1
981.8734	2550.9885	1448.85	558.5
982.0001	2552.3019	1444.95	565.15
982.1267	2553.6146	1448.45	567.65
982.2532	2554.9266	1436.85	554.6
982.3798	2556.2379	1444.75	562.15
982.5063	2557.5485	1443.15	564.6
982.6327	2558.8585	1444.55	554.7
982.7592	2560.1677	1446.1	559.6
982.8856	2561.4762	1444.6	562.35
983.0119	2562.7841	1443	557.6
983.1383	2564.0913	1441.5	561.2
983.2646	2565.3977	1431.55	549.25
983.3908	2566.7035	1430.2	547.5
983.517	2568.0086	1431.7	549.7
983.6432	2569.313	1435.75	553.05
983.7694	2570.6167	1434	548.9
983.8955	2571.9197	1431.4	550.5
984.0216	2573.222	1434.55	550.8
984.1476	2574.5236	1430.65	548.6
984.2737	2575.8246	1428.1	544.85
984.3996	2577.1248	1429.45	544.55
984.5256	2578.4244	1430.05	548.55
984.6515	2579.7232	1428	547.15
984.7774	2581.0214	1464.05	549.8
984.9032	2582.3189	1428.3	548.35
985.029	2583.6157	1434.35	547.55
985.1548	2584.9118	1426.35	544.45
985.2806	2586.2072	1433.9	553.5
985.4063	2587.5019	1427.35	547.75
985.5319	2588.7959	1429.05	547.7
985.6576	2590.0893	1431.05	547.25
985.7832	2591.3819	1430	547.85
985.9087	2592.6739	1429.9	551.3
986.0343	2593.9652	1427.35	540.35
986.1597	2595.2557	1434.55	553.55
986.2852	2596.5456	1429.55	546.35
986.4106	2597.8348	1433	552.45
986.536	2599.1234	1431.4	551.1
986.6614	2600.4112	1427.4	544.95
986.7867	2601.6983	1436	549.7
986.912	2602.9848	1435.45	554.9
987.0372	2604.2705	1435.65	546.45
987.1624	2605.5556	1429.75	547.5
987.2876	2606.84	1425.65	543.9
987.4128	2608.1237	1424.8	542.3
987.5379	2609.4067	1419.45	538.55
987.6629	2610.689	1418.05	528.5
987.788	2611.9707	1425.65	542.6
987.913	2613.2516	1415.75	530.75
988.0379	2614.5319	1412.9	531.1
988.1629	2615.8115	1412.1	531.6
988.2878	2617.0903	1405.5	520.6
988.4126	2618.3685	1407.4	526.75
988.5375	2619.6461	1400.75	518
988.6622	2620.9229	1399.6	518
988.787	2622.199	1406.2	522.9
988.9117	2623.4745	1404.8	523.4
989.0364	2624.7493	1399.4	517.1
989.161	2626.0234	1397	517
989.2857	2627.2968	1397.35	515.75
989.4102	2628.5695	1393.05	510.7
989.5348	2629.8415	1392.5	513.55
989.6593	2631.1128	1395.2	512.25
989.7837	2632.3835	1395.6	514.4
989.9082	2633.6535	1394.7	513.35
990.0326	2634.9228	1393.8	512.9
990.1569	2636.1914	1391.9	511
990.2812	2637.4593	1389.65	507.9
990.4055	2638.7265	1387.15	504.6
990.5298	2639.9931	1387.3	505.55
990.654	2641.259	1389.8	507.7
990.7782	2642.5242	1382.85	499.75
990.9023	2643.7887	1387.05	506.55
991.0264	2645.0525	1391.4	507.7
991.1505	2646.3156	1379.3	497.2
991.2745	2647.5781	1378	496.8
991.3985	2648.8398	1374.4	493.1
991.5225	2650.1009	1416.75	497.65
991.6464	2651.3613	1380.6	501.55
991.7703	2652.6211	1374.55	493
991.8942	2653.8801	1379.75	502.6
992.018	2655.1385	1375.55	490.5
992.1418	2656.3961	1374.2	492.1
992.2655	2657.6531	1372.5	490.1
992.3892	2658.9094	1372.45	490.05
992.5129	2660.1651	1375.1	494.95
992.6366	2661.42	1383.65	500.35
992.7602	2662.6743	1381.55	500.3
992.8837	2663.9279	1381.35	499.5
993.0073	2665.1808	1385.55	503
993.1307	2666.433	1378.55	495.35
993.2542	2667.6846	1377.25	496.5
993.3776	2668.9354	1391.05	507.2
993.501	2670.1856	1388.25	506.6
993.6244	2671.4351	1387.45	506.2
993.7477	2672.6839	1392.15	508.9
993.8709	2673.9321	1390.05	510.3
993.9942	2675.1795	1397	514.2
994.1174	2676.4263	1400.5	518.65
994.2405	2677.6724	1391.25	509.35
994.3637	2678.9179	1393.7	510.9
994.4868	2680.1626	1390.5	509.9
994.6098	2681.4067	1398.7	517.6
994.7328	2682.6501	1387.45	507.5
994.8558	2683.8928	1385.3	505.2
994.9788	2685.1348	1389	509.9
995.1017	2686.3761	1379.55	499.45
995.2245	2687.6168	1377.95	496.75
995.3474	2688.8568	1383.45	500.8
995.4702	2690.0961	1370.3	488.5
995.5929	2691.3348	1375.55	493.25
995.7156	2692.5727	1372.8	491.3
995.8383	2693.81	1369.4	486.4
995.961	2695.0466	1360.45	479.65
996.0836	2696.2826	1370.25	486.35
996.2062	2697.5178	1367.3	481.85
996.3287	2698.7524	1370.2	487.4
996.4512	2699.9863	1373.4	489.2
996.5737	2701.2195	1371.8	492.25
996.6961	2702.452	1377.35	494.65
996.8185	2703.6839	1378.95	495.15
996.9408	2704.9151	1377	496.6
997.0631	2706.1456	1382.65	501.2
997.1854	2707.3755	1390.55	509.1
997.3077	2708.6046	1397.2	514.45
997.4299	2709.8331	1402.45	520.15
997.552	2711.0609	1406.95	527.25
997.6742	2712.2881	1410.85	529.15
997.7963	2713.5145	1422	536.7
997.9183	2714.7403	1429.8	549.2
998.0403	2715.9654	1428.7	546.4
998.1623	2717.1899	1458.65	562.7
998.2842	2718.4136	1458.75	577.55
998.4062	2719.6367	1461.55	581.3
998.528	2720.8591	1475.6	588.25
998.6498	2722.0809	1482.55	600.6
998.7716	2723.3019	1497.55	611.3
998.8934	2724.5223	1511	628.9
999.0151	2725.7421	1506.95	623.5
999.1368	2726.9611	1510.4	628
999.2584	2728.1795	1508.85	621.05
999.38	2729.3972	1496.55	615.8
999.5016	2730.6142	1501.3	604.9
999.6231	2731.8306	1478.1	595.3
999.7446	2733.0462	1459.4	578.55
999.8661	2734.2612	1454.75	568.8
999.9875	2735.4756	1435.8	553.7
1000.1089	2736.6892	1420.3	537.4
1000.2302	2737.9022	1409.25	529.1
1000.3515	2739.1145	1402.75	521.5
1000.4728	2740.3262	1405.65	514.85
1000.594	2741.5372	1378.05	497.6
1000.7152	2742.7475	1368.75	487.15
1000.8363	2743.9571	1364.3	480.8
1000.9575	2745.1661	1366.6	480.05
1001.0785	2746.3744	1344.85	461.15
1001.1996	2747.582	1340.85	459
1001.3206	2748.7889	1334	449.3
1001.4415	2749.9952	1332.35	450.65
1001.5625	2751.2008	1328.6	447.15
1001.6833	2752.4057	1325	442.35
1001.8042	2753.61	1322.95	442.6
1001.925	2754.8136	1318.5	434.3
1002.0458	2756.0165	1312.2	430.8
1002.1665	2757.2188	1313.7	432.75
1002.2872	2758.4204	1309.35	426.85
1002.4078	2759.6213	1312.3	428.5
1002.5285	2760.8215	1318.45	431.25
1002.649	2762.0211	1310.95	428.55
1002.7696	2763.22	1313.95	429.1
1002.8901	2764.4182	1309.1	425.95
1003.0106	2765.6158	1307.7	425.2
1003.131	2766.8127	1304.75	423.15
1003.2514	2768.009	1300.7	419.15
1003.3717	2769.2045	1297.65	415.2
1003.492	2770.3994	1300.8	416.15
1003.6123	2771.5936	1296	414.25
1003.7325	2772.7872	1292.7	412.85
1003.8527	2773.9801	1290.85	408.35
1003.9729	2775.1723	1307.35	409.6
1004.093	2776.3639	1294.15	413.45
1004.2131	2777.5548	1288.95	403.75
1004.3331	2778.745	1283.35	402.35
1004.4531	2779.9346	1289.4	409.15
1004.5731	2781.1235	1285.5	402.9
1004.693	2782.3117	1287.45	406.25
1004.8129	2783.4992	1293.9	412.1
1004.9328	2784.6861	1296.45	413.4
1005.0526	2785.8723	1302.3	419.3
1005.1723	2787.0579	1305.2	422.2
1005.2921	2788.2428	1302.65	419.45
1005.4118	2789.427	1305.75	426
1005.5314	2790.6106	1311.35	430.9
1005.651	2791.7935	1317.75	433.6
1005.7706	2792.9757	1321.75	440.55
1005.8902	2794.1573	1336.8	452.2
1006.0097	2795.3382	1344.6	464
1006.1291	2796.5184	1346.05	464.2
1006.2485	2797.698	1359.55	477.25
1006.3679	2798.8769	1360.7	478.8
1006.4873	2800.0551	1367.55	488.45
1006.6066	2801.2327	1387.8	501.35
1006.7258	2802.4096	1390.8	512.05
1006.8451	2803.5859	1412.15	528.15
1006.9642	2804.7615	1425.8	544.1
1007.0834	2805.9364	1434.9	552.85
1007.2025	2807.1106	1453.25	571.65
1007.3216	2808.2842	1486.55	603.4
1007.4406	2809.4572	1498.25	617.05
1007.5596	2810.6294	1524.75	642.25
1007.6785	2811.801	1551.45	671
1007.7975	2812.972	1584.25	701.7
1007.9163	2814.1423	1625.4	743.65
1008.0352	2815.3119	1667.15	783.7
1008.154	2816.4808	1699.35	819.85
1008.2727	2817.6491	1754.45	871.95
1008.3914	2818.8167	1789.35	908.2
1008.5101	2819.9837	1844.5	955.55
1008.6288	2821.15	1881.25	998.7
1008.7474	2822.3157	1930.85	1051.3
1008.8659	2823.4807	1992.4	1109.1
1008.9844	2824.645	2042.65	1159.85
1009.1029	2825.8086	2074.4	1192.55
1009.2214	2826.9716	2130.75	1250.1
1009.3398	2828.134	2189.15	1308.15
1009.4581	2829.2957	2225.4	1343.9
1009.5764	2830.4567	2249.9	1369
1009.6947	2831.617	2274.6	1393.05
1009.813	2832.7767	2277.3	1397.15
1009.9312	2833.9358	2279.8	1399.85
1010.0493	2835.0941	2280.65	1398.4
1010.1675	2836.2519	2269.45	1387.8
1010.2855	2837.4089	2243.75	1361.3
1010.4036	2838.5653	2233.35	1353.1
1010.5216	2839.7211	2214.55	1333.3
1010.6396	2840.8761	2218.4	1336.6
1010.7575	2842.0306	2215.35	1335.2
1010.8754	2843.1843	2251.1	1369.8
1010.9932	2844.3374	2267.5	1386.95
1011.111	2845.4899	2294.25	1410.6
1011.2288	2846.6417	2340.95	1459.65
1011.3465	2847.7928	2388.1	1507.85
1011.4642	2848.9433	2454.3	1574.8
1011.5818	2850.0931	2513.55	1632.4
1011.6995	2851.2422	2554.35	1672.9
1011.817	2852.3907	2607.7	1726.25
1011.9345	2853.5385	2664.35	1779
1012.052	2854.6857	2716.55	1809.35
1012.1695	2855.8323	2729.35	1848.65
1012.2869	2856.9781	2777.5	1896.2
1012.4042	2858.1233	2819.95	1939.7
1012.5216	2859.2679	2861.8	1980.85
1012.6389	2860.4118	2912.25	2030.55
1012.7561	2861.555	2967.65	2082.2
1012.8733	2862.6976	3000.3	2119.05
1012.9905	2863.8395	3031.75	2151.3
1013.1076	2864.9808	3048.3	2166.15
1013.2247	2866.1214	3064.95	2184.1
1013.3417	2867.2614	3089	2206.5
1013.4587	2868.4007	3099.5	2215.45
1013.5757	2869.5393	3109.75	2227.75
1013.6926	2870.6773	3132.2	2247.2
1013.8095	2871.8146	3142.85	2258.65
1013.9263	2872.9513	3131.65	2246.9
1014.0431	2874.0874	3121.4	2240.75
1014.1599	2875.2227	3120.55	2239.65
1014.2766	2876.3574	3103.55	2222.85
1014.3933	2877.4915	3092.75	2213.15
1014.51	2878.6249	3054.3	2174.7
1014.6266	2879.7577	3034.4	2150.95
1014.7431	2880.8898	3019.8	2127.8
1014.8596	2882.0212	3008.05	2128.75
1014.9761	2883.152	2996.8	2114.6
1015.0925	2884.2821	2983	2103.05
1015.2089	2885.4116	2987.7	2106.05
1015.3253	2886.5405	2987.65	2105.65
1015.4416	2887.6686	2984	2100.25
1015.5579	2888.7962	3002.65	2125
1015.6741	2889.923	2998.3	2115.5
1015.7903	2891.0493	3008	2127.3
1015.9065	2892.1748	3020.8	2139
1016.0226	2893.2997	3024.1	2143.35
1016.1387	2894.424	3036.85	2156.1
1016.2547	2895.5476	3054.4	2173.95
1016.3707	2896.6706	3069.4	2187.65
1016.4866	2897.7929	3089.65	2206.4
1016.6025	2898.9145	3107.25	2224.75
1016.7184	2900.0355	3131.4	2249.2
1016.8342	2901.1559	3149.7	2269.75
1016.95	2902.2756	3194.55	2314.8
1017.0658	2903.3946	3208.75	2327.35
1017.1815	2904.513	3230	2344.2
1017.2971	2905.6308	3242.95	2363.8
1017.4127	2906.7479	3269.25	2387.7
1017.5283	2907.8643	3288.75	2405.35
1017.6439	2908.9801	3294.9	2412.05
1017.7594	2910.0953	3301.2	2421.15
1017.8748	2911.2098	3306.05	2420.35
1017.9902	2912.3236	3311.25	2422.5
1018.1056	2913.4368	3298.45	2412.6
1018.2209	2914.5494	3269.05	2385.9
1018.3362	2915.6613	3251.8	2366.55
1018.4515	2916.7725	3222.1	2339.1
1018.5667	2917.8831	3199.65	2317
1018.6819	2918.9931	3163.55	2278.8
1018.797	2920.1024	3136.45	2254.1
1018.9121	2921.211	3122.3	2241.3
1019.0271	2922.319	3099.65	2216.3
1019.1421	2923.4264	3094.85	2215.3
1019.2571	2924.5331	3086.3	2205.4
1019.372	2925.6391	3094	2212.15
1019.4869	2926.7445	3074.6	2194.15
1019.6017	2927.8493	3090.75	2207.55
1019.7165	2928.9534	3101	2220.8
1019.8313	2930.0569	3098	2213.3
1019.946	2931.1597	3096.25	2214.05
1020.0606	2932.2619	3095.55	2214.15
1020.1753	2933.3634	3110.45	2228.6
1020.2899	2934.4643	3119.85	2229.95
1020.4044	2935.5645	3103.1	2215.5
1020.5189	2936.6641	3087.05	2201.65
1020.6334	2937.763	3054.35	2174.1
1020.7478	2938.8613	3036.05	2151.55
1020.8622	2939.959	3004.55	2118.55
1020.9765	2941.056	2944.85	2063.4
1021.0908	2942.1523	2886.75	2004.4
1021.2051	2943.248	2826.4	1943.8
1021.3193	2944.3431	2751.45	1869.95
1021.4334	2945.4375	2655.75	1773.75
1021.5476	2946.5313	2581.45	1703.35
1021.6617	2947.6244	2494.25	1611.65
1021.7757	2948.7169	2412.05	1529.8
1021.8897	2949.8087	2327.9	1446.7
1022.0037	2950.8999	2257.4	1374.95
1022.1176	2951.9904	2188.2	1307.3
1022.2315	2953.0803	2132.65	1251.45
1022.3453	2954.1696	2073.5	1191.75
1022.4591	2955.2582	2032.75	1151.8
1022.5728	2956.3462	2002.1	1119.55
1022.6865	2957.4335	1956.4	1076.4
1022.8002	2958.5202	1930.65	1046.4
1022.9138	2959.6062	1898.8	1014.75
1023.0274	2960.6916	1883.65	1002.85
1023.141	2961.7764	1872.25	989.2
1023.2545	2962.8605	1852.2	970.4
1023.3679	2963.9439	1849.6	969.1
1023.4813	2965.0267	1840.05	957.75
1023.5947	2966.1089	1853	949.3
1023.708	2967.1905	1831.05	948.7
1023.8213	2968.2714	1827.8	948.2
1023.9346	2969.3516	1811.9	932.45
1024.0478	2970.4312	1838.55	951.8
1024.1609	2971.5102	1821.95	941.25
1024.274	2972.5885	1833.8	953.2
1024.3871	2973.6662	1843.95	957.6
1024.5002	2974.7432	1840.5	959.65
1024.6132	2975.8196	1835.35	955.1
1024.7261	2976.8954	1828.9	949.5
1024.839	2977.9705	1815.95	935.2
1024.9519	2979.045	1813.5	932.6
1025.0647	2980.1188	1796.55	914.15
1025.1775	2981.192	1783.3	901.75
1025.2902	2982.2645	1773.5	891
1025.4029	2983.3364	1755.7	874.2
1025.5156	2984.4077	1727.65	846.2
1025.6282	2985.4783	1711.95	824.85
1025.7407	2986.5483	1686.8	806.9
1025.8532	2987.6177	1655.7	775.55
1025.9657	2988.6864	1631.55	749.65
1026.0782	2989.7545	1605.2	722.85
1026.1906	2990.8219	1561.75	680.4
1026.3029	2991.8887	1539.3	653.7
1026.4152	2992.9548	1513.5	631.8
1026.5275	2994.0204	1482.7	602
1026.6397	2995.0852	1458.8	578.9
1026.7519	2996.1495	1428.85	545.5
1026.864	2997.2131	1410.35	531.55
1026.9761	2998.276	1394.65	512.9
1027.0882	2999.3383	1374.8	492.75
1027.2002	3000.4	1359.5	477.6
1027.3122	3001.4611	1344.3	460.8
1027.4241	3002.5215	1323.65	442.65
1027.536	3003.5812	1307.4	425.7
1027.6478	3004.6404	1302.85	423.25
1027.7596	3005.6989	1286.8	404.2
1027.8714	3006.7567	1280.25	399.4
1027.9831	3007.8139	1291.6	386.25
1028.0947	3008.8705	1263.65	381.7
1028.2064	3009.9264	1272.1	372.75
1028.3179	3010.9818	1245	362.8
1028.4295	3012.0364	1240.8	359.5
1028.541	3013.0905	1232.1	350.3
1028.6524	3014.1439	1230.15	347.95
1028.7638	3015.1966	1226.65	345.2
1028.8752	3016.2487	1221.9	339.6
1028.9865	3017.3002	1228.1	340.8
1029.0978	3018.3511	1214.55	334.55
1029.209	3019.4013	1216.4	334.45
1029.3202	3020.4509	1209.2	328.35
1029.4314	3021.4998	1206.3	323.15
1029.5425	3022.5481	1214.9	333.65
1029.6535	3023.5958	1206.15	324.15
1029.7645	3024.6428	1205.45	322.5
1029.8755	3025.6892	1204.45	325.05
1029.9864	3026.735	1205.3	321.4
1030.0973	3027.7802	1205.1	322.15
1030.2082	3028.8247	1198.8	316.15
1030.319	3029.8685	1202.4	321.75
1030.4297	3030.9118	1202.5	317.8
1030.5404	3031.9544	1204.7	323.95
1030.6511	3032.9963	1209	326.75
1030.7617	3034.0376	1213.9	331.85
1030.8723	3035.0783	1219.6	335.3
1030.9829	3036.1184	1212.6	328.2
1031.0934	3037.1578	1220.75	341.45
1031.2038	3038.1966	1214.9	330.75
1031.3142	3039.2348	1217.15	338.75
1031.4246	3040.2723	1224.25	334.35
1031.5349	3041.3092	1222.55	341.9
1031.6452	3042.3455	1223.2	341.45
1031.7554	3043.3811	1219.35	337.25
1031.8656	3044.4161	1218.85	334.7
1031.9758	3045.4505	1215.9	335.45
1032.0859	3046.4842	1209.85	325.85
1032.1959	3047.5173	1216.15	336.5
1032.3059	3048.5498	1207.95	326.05
1032.4159	3049.5816	1208.15	326.5
1032.5258	3050.6128	1208.9	326.75
1032.6357	3051.6434	1201.95	318.65
1032.7455	3052.6734	1201.5	319.25
1032.8553	3053.7027	1200.9	318.65
1032.9651	3054.7314	1191.8	308.7
1033.0748	3055.7594	1193.65	312.6
1033.1845	3056.7868	1195.4	313.4
1033.2941	3057.8136	1188.85	307.95
1033.4037	3058.8398	1187.15	307.55
1033.5132	3059.8653	1191.15	309.35
1033.6227	3060.8902	1180.9	300.7
1033.7321	3061.9145	1181.95	300.5
1033.8415	3062.9381	1180.3	299.4
1033.9509	3063.9612	1197.75	302.7
1034.0602	3064.9835	1176.15	296.3
1034.1694	3066.0053	1172.75	287.95
1034.2787	3067.0264	1168.8	287.8
1034.3878	3068.0469	1167.95	284.1
1034.497	3069.0668	1161.75	277.05
1034.6061	3070.086	1156.45	275.3
1034.7151	3071.1046	1156.15	271
1034.8241	3072.1226	1152.65	270.85
1034.9331	3073.1399	1146.8	266.55
1035.042	3074.1567	1139.2	257.4
1035.1508	3075.1727	1138.85	256.65
1035.2597	3076.1882	1129.35	246.4
1035.3684	3077.203	1118.7	239.1
1035.4772	3078.2173	1114.1	230.1
1035.5859	3079.2308	1113.7	230.2
1035.6945	3080.2438	1108.05	224.8
1035.8031	3081.2561	1103.25	219.3
1035.9117	3082.2678	1091.95	210.65
1036.0202	3083.2789	1091	208.9
1036.1286	3084.2893	1085.9	205.95
1036.2371	3085.2991	1076.85	194.4
1036.3454	3086.3083	1085.65	200.95
1036.4538	3087.3169	1074.1	191.5
1036.562	3088.3248	1073.05	190.7
1036.6703	3089.3321	1067.2	184.95
1036.7785	3090.3388	1061.8	180.9
1036.8866	3091.3449	1058.6	175.25
1036.9948	3092.3503	1054.85	169.85
1037.1028	3093.3551	1049.5	170.1
1037.2108	3094.3593	1047.15	166.95
1037.3188	3095.3629	1049.5	171.05
1037.4267	3096.3658	1042.3	159.45
1037.5346	3097.3681	1041.7	161.35
1037.6425	3098.3698	1045.25	164.25
1037.7503	3099.3708	1043.45	153.85
1037.858	3100.3713	1037.1	157.85
1037.9657	3101.3711	1034.4	150.3
1038.0734	3102.3702	1168.75	144.95
1038.181	3103.3688	1032.4	149.55
1038.2886	3104.3667	1030.7	148.05
1038.3961	3105.364	1027.75	147.1
1038.5036	3106.3607	1028.4	144.5
1038.611	3107.3568	1020.85	138
1038.7184	3108.3522	1021.85	142
1038.8257	3109.347	1020.15	137.55
1038.933	3110.3412	1023.45	138.7
1039.0403	3111.3348	1016.85	135.95
1039.1475	3112.3277	1015.45	134.15
1039.2547	3113.32	1013.05	133
1039.3618	3114.3117	1013.3	130.2
1039.4689	3115.3028	1008.6	127.75
1039.5759	3116.2932	1009.55	126.35
1039.6829	3117.2831	1013.1	128.05
1039.7898	3118.2723	1002.2	120.3
1039.8967	3119.2608	1005.75	125.8
1040.0035	3120.2488	1004.85	123.45
1040.1103	3121.2361	998.7	117.9
1040.2171	3122.2229	999.55	116.9
1040.3238	3123.209	1002.3	119
1040.4305	3124.1944	996.95	115.7
1040.5371	3125.1793	996.3	112.9
1040.6437	3126.1635	997.55	115.25
1040.7502	3127.1471	988.5	106.9
1040.8567	3128.1301	992.4	111.75
1040.9631	3129.1125	993.45	114.05
1041.0695	3130.0942	985.65	102.85
1041.1759	3131.0753	996.3	105.25
1041.2822	3132.0558	991	107.35
1041.3884	3133.0357	986.65	103.75
1041.4946	3134.015	989.5	106.65
1041.6008	3134.9936	989.75	107
1041.7069	3135.9716	1010.8	107.8
1041.813	3136.949	984.5	103.55
1041.919	3137.9258	1003.25	104.45
1042.025	3138.902	988.55	101.6
1042.1309	3139.8775	979.3	99.6
1042.2368	3140.8524	978.6	97.3
1042.3427	3141.8267	981.9	97.45
1042.4485	3142.8004	980.5	98.8
1042.5542	3143.7735	983.35	96.75
1042.6599	3144.7459	978.2	95.65
1042.7656	3145.7178	976.65	93.4
1042.8712	3146.689	976.1	94.6
1042.9768	3147.6596	979.75	95.9
1043.0823	3148.6295	974.9	93.3
1043.1878	3149.5989	972.9	90.85
1043.2932	3150.5676	974.9	94.65
1043.3986	3151.5357	975.15	95.8
1043.5039	3152.5032	970.1	91.75
1043.6092	3153.4701	974.25	92.2
1043.7145	3154.4364	974.9	90.05
1043.8197	3155.402	970.5	91.55
1043.9248	3156.367	973.6	90.7
1044.03	3157.3315	988	85
1044.135	3158.2952	968.4	85.65
1044.24	3159.2584	964.9	84.35
1044.345	3160.221	967.6	84.85
1044.4499	3161.1829	968.5	88.4
1044.5548	3162.1442	964.5	83.55
1044.6596	3163.105	965	84.85
1044.7644	3164.065	962.55	79.6
1044.8692	3165.0245	966.3	82.45
1044.9739	3165.9834	965.05	85.75
1045.0785	3166.9416	959.55	79.7
1045.1831	3167.8993	964.65	82.75
1045.2877	3168.8563	959.3	77.7
1045.3922	3169.8127	961.65	80.4
1045.4966	3170.7684	965.55	83.05
1045.6011	3171.7236	961.35	79.35
1045.7054	3172.6782	960.95	78.65
1045.8098	3173.6321	962.8	80.25
1045.914	3174.5854	962	76.6
1046.0183	3175.5381	960.95	80.55
1046.1224	3176.4902	956.15	74.3
1046.2266	3177.4417	957.9	76.65
1046.3307	3178.3926	959.25	76.85
1046.4347	3179.3428	955.8	75.65
1046.5387	3180.2924	955.2	73.25
1046.6427	3181.2415	954.5	73.25
1046.7466	3182.1899	956.45	72.7
1046.8504	3183.1377	951.7	69.95
1046.9542	3184.0848	957.05	72.35
1047.058	3185.0314	954.2	71.3
1047.1617	3185.9773	951.15	68.6
1047.2654	3186.9227	954.25	72.45
1047.369	3187.8674	956.05	71.35
1047.4726	3188.8115	955.75	69.95
1047.5761	3189.755	953.6	71.75
1047.6796	3190.6979	950.75	69.15
1047.783	3191.6402	950.6	71.9
1047.8864	3192.5818	951.2	70.1
1047.9898	3193.5229	970.7	69.35
1048.0931	3194.4633	949.65	68.45
1048.1963	3195.4031	949.6	66.6
1048.2995	3196.3423	945.6	64.15
1048.4027	3197.2809	951.2	68.5
1048.5058	3198.2189	951.9	67.9
1048.6089	3199.1563	956.1	67.9
1048.7119	3200.0931	949.25	68.6
1048.8148	3201.0292	945.7	63.25
1048.9178	3201.9648	945.65	63.8
1049.0206	3202.8997	944.9	61.15
1049.1235	3203.834	945.1	62.4
1049.2262	3204.7677	942.1	61.9
1049.329	3205.7008	945.9	60.35
1049.4317	3206.6333	944.8	64.8
1049.5343	3207.5652	947.15	62.45
1049.6369	3208.4964	945.15	64.3
1049.7394	3209.4271	944.75	65.75
1049.8419	3210.3571	942.6	61.3
1049.9444	3211.2865	942.05	59.9
1050.0468	3212.2154	945	62.1
1050.1491	3213.1436	946.75	64.65
1050.2514	3214.0712	947.7	59.6
1050.3537	3214.9982	943.1	62
1050.4559	3215.9246	942.7	59.65
1050.5581	3216.8503	940.15	59.2
1050.6602	3217.7755	938.6	56.85
1050.7623	3218.7001	940.6	58.5
1050.8643	3219.624	938.35	58.1
1050.9663	3220.5473	937.25	56.25
1051.0682	3221.4701	942.7	58.7
1051.1701	3222.3922	938.3	54.2
1051.2719	3223.3137	938.3	55.75
1051.3737	3224.2346	936.4	52.95
1051.4754	3225.1549	935.5	55.15
1051.5771	3226.0746	934	53.8
1051.6788	3226.9937	936.75	54.2
1051.7804	3227.9121	931.7	51.2
1051.8819	3228.83	933	52.05
1051.9834	3229.7473	935.7	54.3
1052.0849	3230.6639	937.6	55.05
1052.1863	3231.5799	935.1	54
1052.2876	3232.4954	937.95	56.85
1052.3889	3233.4102	933.25	53.6
1052.4902	3234.3244	935.1	52
1052.5914	3235.238	933.3	51.7
1052.6926	3236.151	958	50.9
1052.7937	3237.0634	932.7	51.5
1052.8948	3237.9752	932.3	49.95
1052.9958	3238.8864	931.9	49.05
1053.0968	3239.797	930.2	47.25
1053.1977	3240.7069	933.05	47.9
1053.2986	3241.6163	932.5	49.2
1053.3994	3242.5251	931.8	53.25
1053.5002	3243.4332	929.6	48.3
1053.6009	3244.3408	930	48.25
1053.7016	3245.2477	928.2	47.95
1053.8022	3246.154	931.2	50.1
1053.9028	3247.0598	927.35	45.25
1054.0034	3247.9649	926.85	46.95
1054.1039	3248.8694	925.95	43.2
1054.2043	3249.7733	925.2	42.95
1054.3047	3250.6766	928.15	46
1054.4051	3251.5793	927.8	46.65
1054.5054	3252.4814	925.4	45.6
1054.6056	3253.3829	927.3	47.85
1054.7058	3254.2838	926.4	45.1
1054.806	3255.1841	924.7	44.55
1054.9061	3256.0838	926.7	45.75
1055.0061	3256.9829	921.3	40.65
1055.1062	3257.8814	926.7	42.4
1055.2061	3258.7792	925	41.3
1055.306	3259.6765	923.1	42.15
1055.4059	3260.5731	923.4	43.4
1055.5057	3261.4692	923.3	37.7
1055.6055	3262.3647	922.35	40.35
1055.7052	3263.2595	921.3	37.3
1055.8049	3264.1538	920.9	39.8
1055.9045	3265.0474	919	35.55
1056.0041	3265.9404	919.75	38.25
1056.1036	3266.8329	918	37.15
1056.2031	3267.7247	926.6	35.3
1056.3025	3268.616	914.1	33.35
1056.4019	3269.5066	915.85	33.6
1056.5013	3270.3966	915.75	30.45
1056.6005	3271.286	915.9	36.4
