Software Version:	3.9.2.0
Unit SN:	10000200
Spectrometer SN:	6960
Date:	3/14/2024 12:57:23 PM
Data Line Index:	25
Spectral Points:	2048
Integration time (ms):	125
Averages:	20
Delay (ms):	30000
Sequence Number:	1
Processing:	dark subtract
Laser Power (mW):	300
Laser Current (mA):	823
Laser Diode Temp (C):	25
Laser Case Temp (C):	27.9
System Temp (C):	27.9
Spectrometer Temp (C):	25.7
CCD Temp (C):	0.007
Secondary Temp (C):	20.01
Heatsink Temp (C):	23.655
CCDPCB Temp (C):	37.363
SecondaryPCB Temp (C):	34.628

Wavelength	RamanShift	Raw Counts	Dark Subtracted
787.061	30.1047	417.1	8.3
787.2016	32.3739	415.4	5.55
787.3422	34.6426	417.5	7.75
787.4828	36.9109	421.15	10
787.6235	39.1787	425.75	12.65
787.7642	41.4461	429.85	8.9
787.9049	43.7131	432.4	9
788.0456	45.9796	437.95	10.6
788.1863	48.2456	441.8	11.2
788.3271	50.5112	448.05	11.9
788.4679	52.7764	451	11.5
788.6087	55.0411	453.4	9.65
788.7496	57.3054	460.45	12.3
788.8904	59.5692	464.2	15.95
789.0313	61.8326	466.7	12.4
789.1722	64.0955	472.95	13.75
789.3132	66.3579	483.55	18.8
789.4541	68.6199	486.8	22.05
789.5951	70.8815	494.5	26.5
789.7361	73.1426	511.25	41
789.8771	75.4032	543.2	65.6
790.0181	77.6634	612.15	129.45
790.1592	79.9231	764.55	276.3
790.3003	82.1824	1088.8	595.3
790.4414	84.4412	1643.35	1142.05
790.5825	86.6995	2367	1847.45
790.7237	88.9574	3084.7	2554.45
790.8648	91.2148	3598.9	3060.95
791.006	93.4717	3842.85	3299.35
791.1472	95.7282	3919.65	3371.5
791.2885	97.9842	3941.7	3391.35
791.4297	100.2398	3923.95	3370.6
791.571	102.4949	3890.65	3332.85
791.7123	104.7495	3869.3	3306.6
791.8536	107.0036	3842.6	3279.4
791.9949	109.2573	3794.1	3236.05
792.1363	111.5105	3720.8	3158.1
792.2777	113.7632	3673.25	3110.55
792.4191	116.0154	3607.6	3033.9
792.5605	118.2672	3550.6	2983.8
792.7019	120.5185	3486.75	2919.35
792.8434	122.7693	3434.55	2861.7
792.9849	125.0197	3378.8	2801.8
793.1264	127.2696	3323.65	2747.05
793.2679	129.519	3289.4	2709.65
793.4094	131.7679	3290.25	2710.45
793.551	134.0163	3267.55	2683.15
793.6926	136.2642	3264.25	2673.1
793.8342	138.5117	3276.3	2683.4
793.9758	140.7587	3235	2642.4
794.1175	143.0052	3225.75	2625.9
794.2591	145.2512	3174.95	2576.9
794.4008	147.4967	3142.95	2544.8
794.5425	149.7417	3124.6	2522.85
794.6842	151.9863	3093.6	2489.6
794.826	154.2304	3102.45	2497.35
794.9677	156.4739	3080.9	2468.3
795.1095	158.717	3091.2	2482.5
795.2513	160.9596	3096.8	2480.5
795.3931	163.2017	3108.85	2491.85
795.535	165.4433	3122.85	2502.45
795.6768	167.6844	3101.7	2478.7
795.8187	169.925	3087.15	2458.75
795.9606	172.1651	3045.35	2417.35
796.1025	174.4047	3013.85	2383
796.2445	176.6439	2991.85	2354.75
796.3864	178.8825	2961.8	2326.05
796.5284	181.1206	2957.85	2317.5
796.6704	183.3582	2962.25	2319.6
796.8124	185.5954	2951.1	2308.15
796.9544	187.832	2937	2287.65
797.0965	190.0681	2952.4	2300.55
797.2386	192.3037	2942.4	2289.45
797.3806	194.5388	2942.25	2283.05
797.5228	196.7734	2950.5	2290.4
797.6649	199.0075	2965.35	2300.95
797.807	201.2411	2985.75	2318.15
797.9492	203.4742	2980.75	2312.7
798.0914	205.7068	2998.45	2331.7
798.2336	207.9389	3007.15	2337.25
798.3758	210.1704	3019.4	2347.1
798.518	212.4015	3023.55	2347.05
798.6603	214.632	3024.65	2349.15
798.8025	216.862	3028.2	2357.7
798.9448	219.0915	3006.65	2341.45
799.0871	221.3205	3003.5	2341.35
799.2294	223.549	3013.9	2357.2
799.3718	225.777	3014.45	2358.1
799.5141	228.0044	2996.6	2339.05
799.6565	230.2314	2988.6	2335.1
799.7989	232.4578	2979.95	2323.35
799.9413	234.6837	2962.9	2296.3
800.0837	236.909	2972.55	2308.75
800.2262	239.1339	2977.9	2288.25
800.3687	241.3582	2964.6	2289
800.5111	243.582	2970.95	2271.15
800.6536	245.8053	2975.35	2282.45
800.7961	248.0281	2959.7	2272.45
800.9387	250.2503	2953.1	2261.25
801.0812	252.472	2967.25	2268.4
801.2238	254.6932	2967.1	2266.55
801.3664	256.9139	2985.4	2282.85
801.509	259.134	2981.05	2275.4
801.6516	261.3536	2994.75	2288.65
801.7942	263.5727	3015.6	2308.9
801.9369	265.7912	3027.6	2322.85
802.0795	268.0092	3068.15	2361.85
802.2222	270.2267	3096	2389.8
802.3649	272.4436	3140.2	2434.45
802.5076	274.6601	3143.85	2424.6
802.6504	276.8759	3139.5	2427.4
802.7931	279.0913	3164.3	2451.6
802.9359	281.3061	3173.1	2460.55
803.0787	283.5204	3182.05	2463.75
803.2215	285.7341	3201.15	2479.55
803.3643	287.9473	3212.35	2490.05
803.5071	290.16	3201.15	2470.25
803.6499	292.3721	3176.2	2456.6
803.7928	294.5837	3154.85	2430.85
803.9357	296.7947	3134.05	2410
804.0786	299.0052	3118.7	2394.5
804.2215	301.2152	3096.3	2368.45
804.3644	303.4246	3086.55	2362.75
804.5074	305.6334	3068.4	2343.6
804.6503	307.8418	3057	2327.65
804.7933	310.0495	3034.7	2305.8
804.9363	312.2568	2997.2	2269.55
805.0793	314.4635	2976.3	2248.1
805.2223	316.6696	2945.1	2213.05
805.3653	318.8752	2904.3	2165.75
805.5084	321.0802	2887.95	2154.15
805.6514	323.2847	2878.2	2146.65
805.7945	325.4887	2871.9	2138.15
805.9376	327.692	2876.85	2142.7
806.0807	329.8949	2904.5	2167.35
806.2238	332.0972	2924.45	2186.65
806.367	334.2989	2939.1	2198.05
806.5101	336.5001	2928.45	2186.65
806.6533	338.7007	2909.95	2166.6
806.7965	340.9008	2868.8	2124.05
806.9397	343.1003	2839.55	2094.35
807.0829	345.2992	2807	2060.1
807.2261	347.4976	2788.45	2037.95
807.3693	349.6955	2766.1	2012.8
807.5126	351.8927	2751.35	1998.15
807.6559	354.0895	2732.35	1969
807.7991	356.2856	2718.8	1962.75
807.9424	358.4812	2711.8	1958.85
808.0857	360.6763	2702.4	1944
808.2291	362.8707	2698.45	1941.3
808.3724	365.0646	2702.7	1941.7
808.5158	367.258	2684.8	1924.15
808.6591	369.4508	2700.8	1935.6
808.8025	371.643	2726.65	1960.6
808.9459	373.8346	2742.35	1977.5
809.0893	376.0257	2762.8	1993.7
809.2327	378.2162	2769.8	2000.35
809.3762	380.4062	2768.25	1995.55
809.5196	382.5956	2751.6	1975.45
809.6631	384.7844	2724.1	1951.45
809.8066	386.9726	2695.75	1920.4
809.9501	389.1603	2678.1	1902.55
810.0936	391.3474	2677.7	1870.6
810.2371	393.5339	2661	1883.1
810.3806	395.7199	2645.2	1870.3
810.5241	397.9052	2653.9	1885.2
810.6677	400.09	2684.4	1916.25
810.8113	402.2743	2699.15	1931.25
810.9548	404.4579	2720.15	1952.4
811.0984	406.641	2743.8	1974.55
811.2421	408.8235	2772.95	2004.2
811.3857	411.0054	2806.4	2038.3
811.5293	413.1868	2883.45	2113.15
811.673	415.3675	2946.6	2173.6
811.8166	417.5477	2946	2172.5
811.9603	419.7273	2883.95	2107.7
812.104	421.9064	2801	2016.4
812.2477	424.0848	2740.9	1959.25
812.3914	426.2627	2698	1913.55
812.5351	428.4399	2649.2	1863.7
812.6788	430.6166	2613.35	1823.65
812.8226	432.7928	2567.65	1775.75
812.9663	434.9683	2543.7	1753.5
813.1101	437.1432	2516.25	1721.5
813.2539	439.3176	2504.45	1713.4
813.3977	441.4914	2484.3	1690.7
813.5415	443.6645	2498.1	1702.75
813.6853	445.8371	2498	1705.35
813.8291	448.0091	2480.4	1686.3
813.973	450.1806	2485.3	1690
814.1168	452.3514	2470.9	1673.8
814.2607	454.5216	2463.7	1657.6
814.4046	456.6913	2457	1658.45
814.5485	458.8603	2457.7	1659.35
814.6924	461.0288	2458.3	1661.15
814.8363	463.1967	2459.1	1660.35
814.9802	465.3639	2454.2	1652.15
815.1241	467.5306	2437.5	1635.35
815.2681	469.6967	2429.85	1631.25
815.412	471.8622	2426.55	1624.25
815.556	474.0271	2422.8	1622.65
815.7	476.1914	2413.25	1607.8
815.844	478.3551	2418.1	1613.9
815.988	480.5182	2417.75	1612.5
816.132	482.6807	2418.05	1614
816.276	484.8426	2426.85	1624.15
816.4201	487.0039	2450.25	1644.55
816.5641	489.1647	2473.3	1667.5
816.7082	491.3248	2502.6	1696.45
816.8522	493.4843	2509.3	1705.25
816.9963	495.6432	2508.55	1702.05
817.1404	497.8015	2486.9	1677.25
817.2845	499.9592	2462.65	1653.95
817.4286	502.1163	2425.55	1617.7
817.5727	504.2728	2398.35	1585.95
817.7168	506.4287	2373.95	1563.1
817.861	508.5839	2369.5	1558.1
818.0051	510.7386	2349.75	1540.5
818.1493	512.8927	2354.4	1535.55
818.2935	515.0461	2357.8	1545.65
818.4377	517.199	2357.5	1546.75
818.5818	519.3512	2392.05	1577.7
818.726	521.5029	2439.65	1617.85
818.8703	523.6539	2465.3	1649.9
819.0145	525.8043	2466.8	1651.55
819.1587	527.9541	2431.95	1614.05
819.303	530.1033	2384.5	1568.4
819.4472	532.2519	2358.35	1543.2
819.5915	534.3999	2347.85	1527.2
819.7357	536.5472	2325.6	1506
819.88	538.694	2333.35	1516.3
820.0243	540.8401	2341.8	1522.7
820.1686	542.9856	2349.8	1529.55
820.3129	545.1305	2353.1	1531.9
820.4572	547.2748	2360.8	1541.6
820.6016	549.4185	2371.75	1549.1
820.7459	551.5615	2366.3	1544.75
820.8902	553.704	2386.4	1564.05
821.0346	555.8458	2385.5	1565.25
821.1789	557.987	2394.15	1572.3
821.3233	560.1276	2410.9	1586.8
821.4677	562.2675	2445.85	1622.8
821.6121	564.4069	2477.8	1656.1
821.7565	566.5456	2489.9	1667.75
821.9009	568.6837	2486.6	1664.2
822.0453	570.8212	2449.95	1625.45
822.1897	572.958	2406.6	1582.3
822.3342	575.0942	2368.4	1545.75
822.4786	577.2299	2346.7	1523.45
822.6231	579.3648	2327.85	1501.85
822.7675	581.4992	2301.15	1475
822.912	583.6329	2305.9	1481.05
823.0565	585.766	2320.3	1495.05
823.201	587.8985	2340.9	1515.5
823.3454	590.0304	2372.8	1533.35
823.4899	592.1616	2378.8	1549.5
823.6345	594.2922	2373.2	1543.5
823.779	596.4222	2350.15	1519
823.9235	598.5515	2307.6	1478.35
824.068	600.6802	2280.15	1451.25
824.2126	602.8083	2252.95	1422.3
824.3571	604.9358	2243.5	1411.95
824.5017	607.0626	2240.35	1409.05
824.6462	609.1888	2248.25	1414.7
824.7908	611.3144	2248.5	1415.15
824.9354	613.4393	2271.8	1440.65
825.08	615.5636	2297.25	1463.45
825.2246	617.6873	2328.8	1496.75
825.3692	619.8103	2353.1	1519.1
825.5138	621.9327	2356.75	1519.85
825.6584	624.0544	2319.05	1485.45
825.803	626.1756	2286.35	1453.25
825.9477	628.2961	2266.85	1432.85
826.0923	630.4159	2237.35	1400.75
826.237	632.5351	2243.25	1407.95
826.3816	634.6537	2223.65	1388.25
826.5263	636.7716	2226.55	1388.25
826.6709	638.8889	2217.2	1378.65
826.8156	641.0056	2220.9	1382.75
826.9603	643.1216	2228.25	1389.55
827.105	645.237	2225.3	1381.45
827.2497	647.3518	2206.4	1368.55
827.3944	649.4659	2189.9	1352.9
827.5391	651.5793	2180.95	1342.05
827.6838	653.6922	2169.7	1330.2
827.8285	655.8043	2162.3	1321.85
827.9733	657.9159	2153	1313.05
828.118	660.0268	2158.6	1314.35
828.2627	662.137	2140.5	1298.05
828.4075	664.2466	2144.25	1301.1
828.5522	666.3556	2133.55	1292.3
828.697	668.4639	2137.4	1291.45
828.8418	670.5716	2142.2	1299.4
828.9865	672.6786	2130.05	1286.15
829.1313	674.785	2114.75	1269.1
829.2761	676.8907	2121.9	1277.85
829.4209	678.9958	2124.3	1281.9
829.5657	681.1002	2108.75	1262.3
829.7105	683.204	2112.55	1265.6
829.8553	685.3072	2103.2	1254.85
830.0001	687.4097	2102.55	1255.8
830.1449	689.5115	2110.9	1265.1
830.2898	691.6127	2101.85	1257.2
830.4346	693.7132	2103.85	1258.45
830.5794	695.8131	2108.1	1246.4
830.7243	697.9123	2102.5	1255.85
830.8691	700.0109	2107.65	1260.25
831.014	702.1089	2108.75	1261.1
831.1588	704.2061	2113.1	1265.95
831.3037	706.3028	2117.85	1267.1
831.4486	708.3987	2140.8	1290.7
831.5935	710.4941	2151.1	1303
831.7383	712.5887	2155.25	1305.1
831.8832	714.6827	2150.1	1297.5
832.0281	716.7761	2148.6	1298.1
832.173	718.8688	2142.55	1292
832.3179	720.9608	2136.1	1282.05
832.4628	723.0522	2151.7	1298.15
832.6077	725.1429	2158.05	1306.75
832.7527	727.233	2183.95	1331.6
832.8976	729.3224	2234.1	1380.7
833.0425	731.4112	2250.95	1397.15
833.1874	733.4993	2264.9	1410.65
833.3324	735.5867	2230.5	1377
833.4773	737.6735	2193.5	1339.55
833.6222	739.7596	2152.1	1301.65
833.7672	741.845	2150.4	1295.35
833.9122	743.9298	2145.3	1288.95
834.0571	746.014	2150.55	1296.1
834.2021	748.0974	2167.1	1313.75
834.347	750.1802	2159.45	1304.65
834.492	752.2624	2145.95	1291.05
834.637	754.3439	2138.3	1282
834.782	756.4247	2123.25	1257.65
834.9269	758.5048	2113.85	1258.45
835.0719	760.5843	2126.4	1269.95
835.2169	762.6631	2127.4	1271
835.3619	764.7413	2160	1305.4
835.5069	766.8188	2212.9	1355.05
835.6519	768.8956	2265.4	1406.25
835.7969	770.9718	2296.95	1442.3
835.9419	773.0473	2285.25	1429.45
836.0869	775.1221	2270.45	1413.1
836.232	777.1962	2259.85	1404.3
836.377	779.2697	2297.9	1437.5
836.522	781.3426	2350.25	1481.1
836.667	783.4147	2383.4	1525.4
836.8121	785.4862	2380	1522.55
836.9571	787.557	2323.15	1465.05
837.1021	789.6271	2248.4	1390.1
837.2472	791.6966	2157	1298.05
837.3922	793.7654	2101.3	1241.75
837.5373	795.8335	2074.55	1215.35
837.6823	797.901	2039	1180.35
837.8274	799.9678	2053	1191.7
837.9724	802.0339	2032.9	1173.55
838.1175	804.0993	2034.8	1164.4
838.2626	806.1641	2040.3	1178.15
838.4076	808.2282	2016.85	1155.2
838.5527	810.2916	2003.2	1139.35
838.6978	812.3544	1998.5	1139
838.8428	814.4164	1993.1	1134.5
838.9879	816.4778	1995.6	1134.8
839.133	818.5385	2003.7	1144.2
839.2781	820.5986	2021.1	1161.9
839.4232	822.658	2055.55	1192.8
839.5682	824.7166	2081.65	1221.8
839.7133	826.7747	2145.15	1283.25
839.8584	828.832	2193.65	1332.3
840.0035	830.8886	2218.25	1353.65
840.1486	832.9446	2243.65	1381.35
840.2937	834.9999	2216.55	1354.7
840.4388	837.0545	2176.45	1310.65
840.5839	839.1085	2124.2	1260.15
840.729	841.1618	2080.55	1215.35
840.8741	843.2143	2040.65	1178.8
841.0192	845.2662	2011	1148.05
841.1643	847.3175	2009.2	1145.85
841.3095	849.368	1997.95	1131.6
841.4546	851.4179	1989.25	1125.35
841.5997	853.467	1986	1120.45
841.7448	855.5155	1990.05	1126.6
841.8899	857.5633	1986.6	1123.15
842.0351	859.6105	1982.8	1119.2
842.1802	861.6569	1973.1	1110.65
842.3253	863.7027	1966	1099.2
842.4704	865.7478	1949.65	1083.2
842.6156	867.7922	1947.7	1082.95
842.7607	869.8359	1943.45	1077.85
842.9058	871.8789	1939	1071.75
843.0509	873.9212	1966.85	1068.75
843.1961	875.9629	1941.5	1075.75
843.3412	878.0039	1946.95	1080.9
843.4863	880.0441	1959.85	1095.3
843.6315	882.0837	1967.8	1101.45
843.7766	884.1226	1985.45	1118.6
843.9218	886.1609	2001.6	1135.2
844.0669	888.1984	2035	1170.55
844.212	890.2352	2053.75	1188.5
844.3572	892.2714	2058.55	1187.85
844.5023	894.3069	2041.45	1173.45
844.6475	896.3416	2013.45	1146.6
844.7926	898.3757	1987.15	1120.15
844.9377	900.4091	1966.05	1098.75
845.0829	902.4418	1975.45	1102.5
845.228	904.4739	1975.65	1106.4
845.3732	906.5052	1978.7	1110.4
845.5183	908.5358	1976.1	1107.75
845.6635	910.5658	1968.6	1097.2
845.8086	912.595	1944.2	1076.45
845.9538	914.6236	1919.35	1051.8
846.0989	916.6515	1903.05	1035.25
846.2441	918.6786	1885	1013.55
846.3892	920.7051	1882.45	1011.75
846.5344	922.7309	1863.25	994.45
846.6795	924.756	1879.2	1009.15
846.8246	926.7804	1890.4	1021.9
846.9698	928.8041	1878.3	1008.5
847.1149	930.8272	1905.95	1036.4
847.2601	932.8495	1894.6	1022.4
847.4052	934.8711	1899.5	1027.2
847.5504	936.892	1902.9	1032.95
847.6955	938.9123	1907.35	1038.9
847.8407	940.9318	1926.35	1056.65
847.9858	942.9506	1932.05	1060.7
848.131	944.9688	1920.45	1047.25
848.2761	946.9862	1907.15	1036.3
848.4213	949.003	1870.25	999.7
848.5664	951.019	1864.1	993.05
848.7115	953.0344	1860.25	987.95
848.8567	955.0491	1855.75	983.3
849.0018	957.063	1837.3	966.8
849.147	959.0763	1844.75	973.1
849.2921	961.0888	1837.9	962.75
849.4373	963.1007	1837.2	965.35
849.5824	965.1119	1831.95	960.95
849.7275	967.1223	1819.6	946.4
849.8727	969.1321	1821.95	951.25
850.0178	971.1412	1812.2	942
850.1629	973.1495	1816.1	944.7
850.3081	975.1572	1852.2	939.1
850.4532	977.1641	1816.75	943.95
850.5983	979.1704	1808.4	935.45
850.7435	981.1759	1801.8	926.45
850.8886	983.1808	1805.9	931.15
851.0337	985.1849	1808.35	924.2
851.1788	987.1884	1784.75	910.5
851.324	989.1911	1795.8	917.45
851.4691	991.1932	1796.85	922.6
851.6142	993.1945	1794.9	922.15
851.7593	995.1951	1792.05	919.45
851.9045	997.1951	1793.9	914.55
852.0496	999.1943	1789.45	917.65
852.1947	1001.1928	1778.9	903.9
852.3398	1003.1906	1787.5	914.3
852.4849	1005.1877	1806.45	929.55
852.63	1007.1841	1813	938.35
852.7751	1009.1798	1816.4	943.25
852.9202	1011.1748	1805.1	931.45
853.0653	1013.1691	1789.9	915.25
853.2104	1015.1627	1775.25	901.9
853.3555	1017.1556	1749.55	876.6
853.5006	1019.1477	1741.75	866.3
853.6457	1021.1392	1722.95	849.95
853.7908	1023.1299	1718.75	843.15
853.9359	1025.12	1726.7	851.65
854.081	1027.1093	1713.4	839.3
854.2261	1029.0979	1734	861.95
854.3712	1031.0859	1740.35	866.85
854.5163	1033.0731	1750.6	876.6
854.6613	1035.0596	1739.5	866.95
854.8064	1037.0454	1726.45	852.3
854.9515	1039.0304	1723.95	850.05
855.0965	1041.0148	1709.2	835.55
855.2416	1042.9985	1706	828.8
855.3867	1044.9814	1689.65	814.8
855.5317	1046.9636	1676.95	800.35
855.6768	1048.9452	1681.6	807.25
855.8219	1050.926	1688.55	812.25
855.9669	1052.9061	1700.7	825.75
856.112	1054.8855	1710.1	832.7
856.257	1056.8642	1697.1	820.9
856.4021	1058.8421	1708.9	830
856.5471	1060.8194	1692.25	815.35
856.6921	1062.7959	1688.75	811.3
856.8372	1064.7717	1687.55	810.2
856.9822	1066.7469	1680.15	805.25
857.1272	1068.7213	1682.45	804.2
857.2723	1070.695	1702.5	827.65
857.4173	1072.6679	1703.9	825.6
857.5623	1074.6402	1724.45	848.65
857.7073	1076.6117	1728	845.35
857.8523	1078.5826	1699.55	821.6
857.9973	1080.5527	1682.95	803.35
858.1423	1082.5221	1670.1	792.55
858.2873	1084.4908	1649.25	772.7
858.4323	1086.4587	1633.75	757
858.5773	1088.426	1630.2	752.25
858.7223	1090.3925	1629.35	748.25
858.8673	1092.3584	1624.75	745.95
859.0123	1094.3235	1624.05	746.25
859.1573	1096.2879	1643.9	763.9
859.3022	1098.2515	1651.05	774.6
859.4472	1100.2145	1667.95	791.15
859.5922	1102.1767	1683.5	802
859.7371	1104.1382	1709.95	831.4
859.8821	1106.099	1736.1	855.95
860.027	1108.0591	1766.6	887.35
860.172	1110.0185	1785.1	906.1
860.3169	1111.9771	1802.15	923.85
860.4619	1113.9351	1830.05	952.3
860.6068	1115.8923	1869.4	989.35
860.7517	1117.8488	1871.95	993.3
860.8967	1119.8045	1847.65	969.9
861.0416	1121.7596	1789.6	908.75
861.1865	1123.7139	1729.75	852.8
861.3314	1125.6675	1702.85	825.85
861.4763	1127.6204	1690.05	812.05
861.6212	1129.5726	1713.15	833.7
861.7661	1131.524	1704.2	823.4
861.911	1133.4748	1675.25	796.95
862.0559	1135.4248	1638.25	758.05
862.2008	1137.3741	1623.9	745.2
862.3457	1139.3226	1598.9	719.7
862.4905	1141.2705	1602.35	721.6
862.6354	1143.2176	1599.65	714.35
862.7803	1145.164	1609.4	727.05
862.9251	1147.1097	1600.85	720.95
863.07	1149.0546	1590.8	710.2
863.2148	1150.9989	1579.1	699.5
863.3597	1152.9424	1560.8	679.85
863.5045	1154.8852	1552	674.1
863.6493	1156.8272	1544	664.9
863.7942	1158.7686	1560.6	674.9
863.939	1160.7092	1542	662
864.0838	1162.6491	1540.35	659.25
864.2286	1164.5883	1552.15	672.3
864.3734	1166.5267	1561.7	678.95
864.5182	1168.4644	1569	688.1
864.663	1170.4014	1583.35	698.4
864.8078	1172.3377	1608.95	728.5
864.9526	1174.2732	1645.65	766.85
865.0974	1176.2081	1691.9	813.65
865.2421	1178.1421	1750.8	864.7
865.3869	1180.0755	1821.4	941.55
865.5317	1182.0082	1858.75	979.1
865.6764	1183.9401	1844.75	966.45
865.8212	1185.8713	1770.8	892
865.9659	1187.8017	1710.9	831.4
866.1106	1189.7315	1651.05	773.8
866.2554	1191.6605	1631.1	724.85
866.4001	1193.5888	1581.05	701.65
866.5448	1195.5163	1559.9	680.6
866.6895	1197.4432	1538	658.05
866.8342	1199.3693	1531.65	651.65
866.9789	1201.2947	1518.05	629.8
867.1236	1203.2193	1507	627.5
867.2683	1205.1432	1513.5	632.6
867.413	1207.0664	1505.7	623.25
867.5576	1208.9889	1511.95	628.45
867.7023	1210.9106	1510.5	630.7
867.847	1212.8316	1507.8	627.7
867.9916	1214.7519	1517.9	627.7
868.1363	1216.6715	1514.85	633.1
868.2809	1218.5903	1529.55	651.3
868.4255	1220.5084	1535	652.75
868.5701	1222.4257	1529	648.4
868.7148	1224.3424	1545.95	666.2
868.8594	1226.2583	1556.85	672.15
869.004	1228.1735	1570.5	688.9
869.1486	1230.0879	1580.65	698.45
869.2932	1232.0016	1605.15	724.05
869.4377	1233.9146	1622.8	742.65
869.5823	1235.8269	1638.05	755.85
869.7269	1237.7384	1648.5	768
869.8715	1239.6492	1636.05	754.1
870.016	1241.5592	1649.15	768
870.1606	1243.4686	1677.35	796.05
870.3051	1245.3772	1720.2	840.55
870.4496	1247.285	1765.65	883.05
870.5941	1249.1922	1803.4	920.35
870.7387	1251.0986	1852.05	970.45
870.8832	1253.0042	1884.4	1001.25
871.0277	1254.9092	1938.4	1055.75
871.1722	1256.8134	1981.5	1099.75
871.3167	1258.7169	2027.4	1144.45
871.4611	1260.6196	2033.7	1151.65
871.6056	1262.5216	2049.35	1165.55
871.7501	1264.4229	2025.45	1145
871.8945	1266.3234	2020.75	1139.55
872.039	1268.2232	1982.95	1102.3
872.1834	1270.1223	1949.55	1067.7
872.3278	1272.0207	1930.7	1049.15
872.4723	1273.9183	1922.1	1034.5
872.6167	1275.8151	1930.3	1049.4
872.7611	1277.7113	1947.05	1063
872.9055	1279.6067	1996.15	1116.15
873.0499	1281.5014	2071.7	1186.1
873.1943	1283.3953	2180.3	1294.5
873.3386	1285.2885	2279.9	1399.75
873.483	1287.181	2345.35	1462
873.6274	1289.0727	2376.25	1496.95
873.7717	1290.9637	2338.1	1454.3
873.9161	1292.854	2287.15	1405.5
874.0604	1294.7435	2229.35	1346.65
874.2047	1296.6323	2170.5	1286.45
874.349	1298.5204	2122.1	1235.4
874.4933	1300.4077	2073.3	1189.3
874.6376	1302.2943	2053.7	1169.15
874.7819	1304.1802	2029.15	1146.8
874.9262	1306.0653	2003.85	1121.35
875.0705	1307.9497	1980.5	1099.65
875.2147	1309.8333	1967.1	1084.2
875.359	1311.7162	1947.35	1063.85
875.5032	1313.5984	1935.85	1050.5
875.6475	1315.4798	1923.3	1030.8
875.7917	1317.3605	1913.7	1026.35
875.9359	1319.2405	1911.1	1026.25
876.0801	1321.1197	1884.65	1002
876.2243	1322.9982	1857.85	970.15
876.3685	1324.876	1819.4	937.55
876.5127	1326.753	1764.95	880.15
876.6569	1328.6293	1719.5	835.25
876.801	1330.5048	1673.35	788
876.9452	1332.3796	1632	752
877.0893	1334.2537	1622.4	713.35
877.2335	1336.127	1577.2	692.35
877.3776	1337.9996	1568.05	683.1
877.5217	1339.8714	1552.55	668.65
877.6658	1341.7426	1584.45	658.55
877.8099	1343.6129	1529.9	649.85
877.954	1345.4826	1525.1	642.15
878.0981	1347.3515	1522.3	637.25
878.2422	1349.2196	1506.45	622.2
878.3862	1351.087	1505.05	623.35
878.5303	1352.9537	1506	621.55
878.6743	1354.8197	1508.85	624
878.8184	1356.6849	1506.65	622.6
878.9624	1358.5493	1513.7	629.3
879.1064	1360.4131	1530.75	647.85
879.2504	1362.276	1544.7	664.55
879.3944	1364.1383	1568.4	684.15
879.5384	1365.9998	1581.15	691.9
879.6823	1367.8606	1571.6	685.2
879.8263	1369.7206	1566.85	683.45
879.9702	1371.5799	1563.3	677.6
880.1142	1373.4384	1556.05	672.75
880.2581	1375.2962	1533	647.45
880.402	1377.1533	1499.15	615.4
880.5459	1379.0096	1477.8	594.1
880.6898	1380.8652	1458.15	574.2
880.8337	1382.7201	1436.4	551.6
880.9776	1384.5742	1421.9	536.9
881.1215	1386.4275	1416	533.45
881.2653	1388.2802	1404.4	522.2
881.4092	1390.132	1393.65	510.35
881.553	1391.9832	1393.65	507.35
881.6968	1393.8336	1383.85	496.95
881.8406	1395.6832	1377.55	491.6
881.9844	1397.5322	1374.9	490
882.1282	1399.3803	1371.9	482.15
882.272	1401.2278	1364.6	480.15
882.4158	1403.0745	1357.2	471.35
882.5595	1404.9204	1351.75	467.2
882.7033	1406.7656	1350.65	467.1
882.847	1408.6101	1347.85	462.7
882.9908	1410.4538	1344.15	459.6
883.1345	1412.2968	1344.6	462.75
883.2782	1414.139	1343.75	460.9
883.4219	1415.9805	1341.4	458.2
883.5656	1417.8213	1361.5	470.6
883.7092	1419.6613	1361.85	478.75
883.8529	1421.5006	1369.1	483.7
883.9965	1423.3391	1391.4	507.5
884.1402	1425.1769	1416.6	533
884.2838	1427.0139	1461.7	577.55
884.4274	1428.8502	1505.2	618.85
884.571	1430.6858	1544.05	660.25
884.7146	1432.5206	1557.65	672.3
884.8582	1434.3547	1554	669.3
885.0018	1436.188	1539.4	653.25
885.1453	1438.0206	1525	640.15
885.2889	1439.8524	1522	635.5
885.4324	1441.6835	1524.4	638.15
885.5759	1443.5139	1525.35	640.8
885.7194	1445.3435	1524.05	637.95
885.8629	1447.1724	1521.5	637.75
886.0064	1449.0005	1515.6	631.35
886.1499	1450.8279	1513.85	630.05
886.2933	1452.6545	1510.45	625.75
886.4368	1454.4804	1513.35	629.65
886.5802	1456.3056	1516.15	624.3
886.7237	1458.13	1494.75	610.6
886.8671	1459.9536	1478.1	591.5
887.0105	1461.7766	1465	581
887.1539	1463.5987	1439.1	553.3
887.2972	1465.4202	1420.65	534.5
887.4406	1467.2409	1395.55	509.7
887.584	1469.0608	1376.45	491.75
887.7273	1470.88	1360.05	472.85
887.8706	1472.6984	1349.8	465.45
888.0139	1474.5161	1333.05	444.7
888.1572	1476.3331	1325.65	442.15
888.3005	1478.1493	1315.4	430.9
888.4438	1479.9648	1313.2	428.1
888.5871	1481.7795	1315	431.35
888.7303	1483.5935	1316.4	430.4
888.8736	1485.4067	1315.95	432.9
889.0168	1487.2192	1319.25	435.5
889.16	1489.031	1318.3	431.8
889.3032	1490.842	1315.8	430.75
889.4464	1492.6522	1306.35	423.3
889.5896	1494.4618	1310.85	424.65
889.7327	1496.2705	1307.25	422.15
889.8759	1498.0785	1310.6	425.55
890.019	1499.8858	1296.5	410.15
890.1622	1501.6924	1291.1	407.5
890.3053	1503.4981	1289.05	403.8
890.4484	1505.3032	1291.1	406.25
890.5914	1507.1075	1280.15	393.55
890.7345	1508.911	1278.25	392.5
890.8776	1510.7138	1281.45	395.15
891.0206	1512.5159	1275.9	390.8
891.1637	1514.3172	1257.15	373.5
891.3067	1516.1178	1256.6	373.6
891.4497	1517.9176	1259.2	373
891.5927	1519.7166	1253.15	366.95
891.7357	1521.515	1263.3	371.7
891.8786	1523.3126	1244.65	358.9
892.0216	1525.1094	1245.05	357.85
892.1645	1526.9055	1239.75	354.95
892.3074	1528.7008	1238.45	354.05
892.4503	1530.4954	1237.65	346.6
892.5932	1532.2893	1232.05	348.55
892.7361	1534.0824	1238.6	348.5
892.879	1535.8747	1231.3	346.25
893.0218	1537.6663	1233.65	348.2
893.1647	1539.4572	1227.6	339.55
893.3075	1541.2473	1231.6	345.9
893.4503	1543.0367	1227.85	342.25
893.5931	1544.8253	1228.3	339.05
893.7359	1546.6132	1230.4	344.4
893.8787	1548.4003	1239.25	343.85
894.0214	1550.1867	1246.2	350.75
894.1642	1551.9723	1243.75	353.25
894.3069	1553.7572	1247.3	362.55
894.4496	1555.5414	1249.1	365.05
894.5923	1557.3247	1269.95	382.7
894.735	1559.1074	1281.6	398.65
894.8777	1560.8893	1297.45	416.45
895.0204	1562.6705	1319.6	432.25
895.163	1564.4509	1330.45	445.25
895.3056	1566.2305	1339.65	455
895.4482	1568.0094	1338.85	454.4
895.5908	1569.7876	1331.8	446.2
895.7334	1571.565	1328.65	441.4
895.876	1573.3417	1328.2	445.9
896.0186	1575.1176	1330.7	444.25
896.1611	1576.8928	1335.45	450.3
896.3036	1578.6672	1347.8	463.55
896.4461	1580.4409	1355	469.8
896.5886	1582.2138	1375.8	488.8
896.7311	1583.986	1391.95	506
896.8736	1585.7575	1408.3	525.05
897.0161	1587.5282	1426.5	542.9
897.1585	1589.2981	1439.65	556
897.3009	1591.0673	1441.15	556.85
897.4433	1592.8358	1450.8	565.5
897.5857	1594.6035	1447	559.3
897.7281	1596.3704	1438.9	555.9
897.8705	1598.1366	1430.55	544.75
898.0128	1599.9021	1416.6	533.3
898.1551	1601.6668	1400.75	514.4
898.2975	1603.4308	1396.9	511.7
898.4398	1605.194	1402.4	512.1
898.5821	1606.9564	1411.45	527.8
898.7243	1608.7182	1444.55	555.85
898.8666	1610.4791	1472.25	588.65
899.0088	1612.2394	1524.3	638.4
899.1511	1613.9988	1576.95	690.55
899.2933	1615.7576	1596.25	711.35
899.4355	1617.5156	1621.1	731.3
899.5776	1619.2728	1600.85	715.85
899.7198	1621.0293	1543.95	660.45
899.862	1622.785	1501.5	612.5
900.0041	1624.54	1434.05	544.45
900.1462	1626.2942	1386.5	500.75
900.2883	1628.0477	1333.45	443.1
900.4304	1629.8005	1296.6	405.85
900.5725	1631.5525	1261.35	375.05
900.7145	1633.3037	1234.45	348.25
900.8566	1635.0542	1219.55	334.55
900.9986	1636.804	1204.1	319.1
901.1406	1638.553	1251.05	303.25
901.2826	1640.3013	1173.9	291.85
901.4245	1642.0488	1166.7	279.9
901.5665	1643.7955	1162.85	278.6
901.7085	1645.5416	1160.9	275.2
901.8504	1647.2868	1149.85	265.55
901.9923	1649.0313	1146.3	263.55
902.1342	1650.7751	1146.55	257.25
902.2761	1652.5181	1142.35	257.45
902.4179	1654.2604	1139.7	252.85
902.5598	1656.0019	1137.8	251.15
902.7016	1657.7427	1147.05	260.7
902.8434	1659.4828	1155.2	271.65
902.9852	1661.222	1166.35	281
903.127	1662.9606	1184	298.55
903.2687	1664.6984	1195.1	309.85
903.4105	1666.4354	1201.25	316.6
903.5522	1668.1717	1184.9	300.4
903.6939	1669.9072	1167.5	281.2
903.8356	1671.642	1150.55	264.9
903.9773	1673.3761	1132.45	247.65
904.119	1675.1094	1122.2	238.3
904.2606	1676.8419	1106	221.35
904.4022	1678.5737	1105.4	221.1
904.5439	1680.3048	1097.9	213.3
904.6855	1682.0351	1087.9	202.75
904.827	1683.7646	1093.5	205.55
904.9686	1685.4934	1080.65	194.65
905.1101	1687.2215	1081.1	195.7
905.2517	1688.9488	1080.05	195.5
905.3932	1690.6754	1077.7	192.1
905.5347	1692.4012	1078.2	195.4
905.6761	1694.1263	1076.7	192.35
905.8176	1695.8506	1075.95	190.85
905.9591	1697.5742	1074.7	190.75
906.1005	1699.297	1070.75	185
906.2419	1701.0191	1069.45	185.15
906.3833	1702.7404	1068.3	182.7
906.5246	1704.461	1068.5	183.25
906.666	1706.1808	1069.1	180.8
906.8073	1707.8999	1068.95	181.35
906.9487	1709.6182	1065.45	180.7
907.09	1711.3358	1061.45	175
907.2313	1713.0527	1062.45	179.35
907.3725	1714.7688	1067.45	178.25
907.5138	1716.4841	1062.5	174.95
907.655	1718.1987	1064.85	175.6
907.7962	1719.9126	1057.25	170.8
907.9374	1721.6257	1060.6	173.6
908.0786	1723.338	1057.8	173.1
908.2198	1725.0496	1056.9	170.55
908.3609	1726.7605	1053.05	166.55
908.502	1728.4706	1051.75	165.3
908.6431	1730.18	1055.6	167.35
908.7842	1731.8886	1054.4	167.3
908.9253	1733.5964	1058.8	168
909.0664	1735.3036	1054.25	168.3
909.2074	1737.0099	1053.7	168.1
909.3484	1738.7156	1052.25	169.25
909.4894	1740.4204	1053.45	167.15
909.6304	1742.1246	1048.4	162.4
909.7714	1743.8279	1047.95	163.15
909.9123	1745.5306	1056.25	169.4
910.0532	1747.2325	1047.15	160.15
910.1941	1748.9336	1050.15	165.5
910.335	1750.634	1048.35	159.55
910.4759	1752.3336	1049.25	163.75
910.6168	1754.0325	1045.45	161.25
910.7576	1755.7307	1045.35	157.6
910.8984	1757.4281	1047.3	161.9
911.0392	1759.1247	1054.65	161.55
911.18	1760.8206	1051.55	162.05
911.3208	1762.5158	1048.3	159.75
911.4615	1764.2102	1044.35	158.6
911.6022	1765.9039	1048.05	162.5
911.7429	1767.5968	1046.45	162.3
911.8836	1769.289	1045.95	159.35
912.0243	1770.9804	1043.25	158.25
912.1649	1772.6711	1044.25	158.25
912.3056	1774.361	1045.4	160.2
912.4462	1776.0502	1041.25	155.4
912.5868	1777.7386	1051.1	161.9
912.7274	1779.4263	1041.55	156.45
912.8679	1781.1132	1040.35	153.4
913.0084	1782.7994	1045.85	159.55
913.149	1784.4849	1038.15	153.7
913.2895	1786.1696	1056.65	154.7
913.4299	1787.8535	1039.15	156.05
913.5704	1789.5367	1040	154.6
913.7108	1791.2192	1038.45	152.95
913.8513	1792.9009	1050.65	150.6
913.9917	1794.5818	1040.7	153.2
914.132	1796.2621	1033.3	151.45
914.2724	1797.9415	1034.5	147.75
914.4128	1799.6202	1038	154.05
914.5531	1801.2982	1035.95	152.75
914.6934	1802.9755	1035.25	149.65
914.8337	1804.6519	1034.1	149.45
914.9739	1806.3277	1036.45	151.2
915.1142	1808.0027	1032.25	150
915.2544	1809.6769	1033.7	148.1
915.3946	1811.3504	1032.95	147.15
915.5348	1813.0231	1034.8	149.75
915.675	1814.6951	1035.15	146.5
915.8151	1816.3664	1033.25	144.35
915.9553	1818.0369	1032.15	146.6
916.0954	1819.7067	1034.6	149.15
916.2355	1821.3757	1033.35	145.95
916.3755	1823.044	1030.6	147.6
916.5156	1824.7115	1022.55	137.2
916.6556	1826.3783	1025.25	141.15
916.7956	1828.0443	1025	140.95
916.9356	1829.7096	1028.8	143.35
917.0756	1831.3741	1029.85	140.5
917.2155	1833.0379	1026.4	141.4
917.3555	1834.701	1029.45	142.7
917.4954	1836.3633	1025.7	138.55
917.6353	1838.0248	1028.15	142.45
917.7751	1839.6856	1022.55	136.85
917.915	1841.3457	1023.8	141.3
918.0548	1843.005	1021.6	135.65
918.1946	1844.6636	1021.95	137.7
918.3344	1846.3214	1019.95	133.25
918.4742	1847.9785	1021.05	134.7
918.6139	1849.6349	1024.05	138.05
918.7537	1851.2904	1030.65	136.35
918.8934	1852.9453	1022.25	135.75
919.0331	1854.5994	1027.65	140.05
919.1727	1856.2528	1031.8	140.45
919.3124	1857.9054	1022.95	138.4
919.452	1859.5572	1022.15	138.2
919.5916	1861.2083	1021.45	134.85
919.7312	1862.8587	1020.5	136.1
919.8708	1864.5084	1022.3	134.75
920.0103	1866.1572	1017.25	132.8
920.1498	1867.8054	1016.65	132.95
920.2893	1869.4528	1017.2	132.7
920.4288	1871.0994	1021.8	136.85
920.5683	1872.7453	1018.75	131.4
920.7077	1874.3905	1036.8	133.3
920.8471	1876.0349	1018.2	133.7
920.9865	1877.6786	1022.25	134.5
921.1259	1879.3215	1015.2	130.2
921.2653	1880.9637	1018.75	133
921.4046	1882.6051	1017.2	131.55
921.5439	1884.2458	1016.75	129.05
921.6832	1885.8858	1013.15	127.15
921.8225	1887.525	1014.2	129.95
921.9617	1889.1634	1013.7	130.95
922.101	1890.8011	1011.7	125.55
922.2402	1892.4381	1016.4	131.85
922.3794	1894.0743	1011.25	127.1
922.5185	1895.7098	1014.5	130.55
922.6577	1897.3446	1012.8	127.3
922.7968	1898.9786	1020	128.15
922.9359	1900.6118	1011.05	126.3
923.075	1902.2443	1013.25	126.65
923.214	1903.8761	1006.55	123.15
923.3531	1905.5071	1014.85	128.7
923.4921	1907.1374	1012.7	125.95
923.6311	1908.7669	1013.7	128.25
923.77	1910.3957	1007.55	124.15
923.909	1912.0237	1007.15	121.65
924.0479	1913.651	1009.65	125
924.1868	1915.2776	1006.9	122.15
924.3257	1916.9034	1006.45	123.45
924.4646	1918.5285	1010.6	127.25
924.6034	1920.1528	1005.65	120.05
924.7422	1921.7764	1003.15	119.95
924.881	1923.3992	1005.05	120.1
925.0198	1925.0213	1004.65	116.9
925.1586	1926.6427	1004.65	119.5
925.2973	1928.2633	1110.95	121.05
925.436	1929.8832	1007.35	120.95
925.5747	1931.5023	1006.65	121.05
925.7134	1933.1207	1003.3	117.55
925.852	1934.7383	1007.7	122.85
925.9906	1936.3552	1005.7	122.6
926.1292	1937.9714	1004.15	120
926.2678	1939.5868	1004	115.65
926.4064	1941.2015	1003.35	118.6
926.5449	1942.8154	999.5	114
926.6834	1944.4286	1002.5	113.9
926.8219	1946.041	1025.05	116.8
926.9604	1947.6528	1005.45	114.05
927.0988	1949.2637	998.35	113.5
927.2372	1950.8739	1004.2	120
927.3756	1952.4834	1003.15	116.1
927.514	1954.0921	1000.95	116.95
927.6523	1955.7001	1006.9	118.2
927.7907	1957.3074	1001.55	117.6
927.929	1958.9139	999.9	114.95
928.0673	1960.5197	1000.6	112.2
928.2055	1962.1247	998.35	113.3
928.3438	1963.729	1000.85	114.8
928.482	1965.3325	1022.95	110.5
928.6202	1966.9353	999.85	115.3
928.7584	1968.5374	1003.85	116.4
928.8965	1970.1387	998.75	113.55
929.0346	1971.7393	999.9	114.9
929.1727	1973.3392	996.7	113.4
929.3108	1974.9383	998.25	113.1
929.4489	1976.5366	994.85	108.65
929.5869	1978.1342	997.7	110.75
929.7249	1979.7311	996.55	108.35
929.8629	1981.3273	992.1	105.75
930.0009	1982.9227	997	110.1
930.1388	1984.5173	993.55	109.1
930.2767	1986.1112	992.95	106.85
930.4146	1987.7044	995.2	112.85
930.5525	1989.2968	994.8	106.5
930.6904	1990.8885	998.75	110.6
930.8282	1992.4795	1000.1	114.3
930.966	1994.0697	991.7	105.3
931.1038	1995.6592	994.1	110.8
931.2415	1997.2479	992.25	105.95
931.3793	1998.8359	995.4	110.05
931.517	2000.4232	993.15	109.55
931.6547	2002.0097	991.4	106.25
931.7923	2003.5955	992.35	105.45
931.93	2005.1805	998.3	109.7
932.0676	2006.7648	996.1	109.6
932.2052	2008.3484	992.15	105.8
932.3427	2009.9312	996.9	109.3
932.4803	2011.5133	988.85	104.4
932.6178	2013.0946	989.6	103.95
932.7553	2014.6752	990	106.4
932.8928	2016.2551	992.25	104.9
933.0302	2017.8342	992.05	107.05
933.1676	2019.4126	989.1	104.45
933.305	2020.9902	991.4	108
933.4424	2022.5672	990.15	103.5
933.5798	2024.1433	995.5	105.5
933.7171	2025.7188	991.55	106.75
933.8544	2027.2935	989.2	103.2
933.9917	2028.8674	988.05	100
934.129	2030.4406	986.65	103.8
934.2662	2032.0131	988.25	103.85
934.4034	2033.5849	996.6	105.6
934.5406	2035.1559	989.8	105.25
934.6778	2036.7261	990.35	106.05
934.8149	2038.2957	991	107.25
934.952	2039.8645	983.55	98.15
935.0891	2041.4325	993.05	104.25
935.2262	2042.9998	989.25	102.65
935.3632	2044.5664	991.95	102.2
935.5002	2046.1323	989.9	105.95
935.6372	2047.6974	989.25	105.1
935.7742	2049.2617	987.9	103.5
935.9111	2050.8254	1024.65	104.85
936.048	2052.3883	991	102.95
936.1849	2053.9504	993.1	108.95
936.3218	2055.5118	991.5	105.35
936.4586	2057.0725	993.1	102.4
936.5955	2058.6325	984.65	100.6
936.7323	2060.1917	987.4	103.75
936.869	2061.7502	988.9	101.5
937.0058	2063.3079	988.45	104.35
937.1425	2064.8649	993.65	105
937.2792	2066.4212	989.2	103.65
937.4159	2067.9767	990.9	106.5
937.5525	2069.5315	989.55	106.7
937.6891	2071.0856	984.95	100
937.8257	2072.6389	990.95	102.85
937.9623	2074.1915	983.75	101.3
938.0989	2075.7433	985.45	98.1
938.2354	2077.2945	989.15	105.25
938.3719	2078.8448	985.7	100.55
938.5084	2080.3945	986.3	101.35
938.6448	2081.9434	987.7	103.4
938.7812	2083.4916	988.8	103.8
938.9176	2085.039	988.3	100.5
939.054	2086.5857	987.6	102.35
939.1903	2088.1317	986.7	99.9
939.3267	2089.677	986.55	101
939.463	2091.2215	987.25	102.35
939.5992	2092.7652	988.2	101.05
939.7355	2094.3083	985.25	99.25
939.8717	2095.8506	983.25	98.45
940.0079	2097.3921	982.95	98.75
940.1441	2098.933	985.2	99.6
940.2802	2100.4731	984.85	100.8
940.4163	2102.0124	1002.25	100.7
940.5524	2103.5511	984.75	99.65
940.6885	2105.089	984.45	100.4
940.8245	2106.6261	983.7	99.6
940.9606	2108.1626	988.8	101.8
941.0965	2109.6983	1016.8	103.9
941.2325	2111.2332	988.3	101.85
941.3684	2112.7675	985.2	100.3
941.5044	2114.301	986.75	99.8
941.6403	2115.8337	987.3	101.75
941.7761	2117.3657	985.5	101.65
941.912	2118.897	983.75	97.3
942.0478	2120.4276	988.35	97.9
942.1835	2121.9575	987.8	102.65
942.3193	2123.4866	1000.45	100.7
942.455	2125.0149	987.1	99.6
942.5907	2126.5426	987.35	102.9
942.7264	2128.0695	988.5	100.45
942.8621	2129.5956	982.85	98
942.9977	2131.1211	987.6	95.8
943.1333	2132.6458	980.6	95.35
943.2689	2134.1698	983.75	98.15
943.4044	2135.693	988.35	100.15
943.54	2137.2155	987.9	102.6
943.6755	2138.7373	984.8	97.35
943.8109	2140.2584	985.4	101.2
943.9464	2141.7787	988.8	96
944.0818	2143.2983	985.2	100.5
944.2172	2144.8171	984.15	100.6
944.3526	2146.3353	984.8	96.45
944.4879	2147.8527	981.4	96.7
944.6232	2149.3693	980.3	94.15
944.7585	2150.8853	984.2	100.95
944.8938	2152.4005	981.1	96.8
945.029	2153.9149	979.55	95
945.1642	2155.4287	984.4	98.3
945.2994	2156.9417	983	96.5
945.4346	2158.454	984.75	96.1
945.5697	2159.9655	982.4	100.25
945.7048	2161.4764	987.55	103.15
945.8399	2162.9865	982.55	96.55
945.9749	2164.4958	982.45	95.7
946.1099	2166.0045	985.15	96.05
946.2449	2167.5124	981.5	97.05
946.3799	2169.0195	983.45	98.7
946.5148	2170.526	983.3	97.85
946.6498	2172.0317	982.1	96.4
946.7846	2173.5367	984.4	98.15
946.9195	2175.0409	981	97.75
947.0543	2176.5445	978.45	95.5
947.1891	2178.0473	981.3	96.35
947.3239	2179.5494	981.35	94.2
947.4587	2181.0507	984.6	97.95
947.5934	2182.5513	981.15	96.35
947.7281	2184.0512	981.7	94.6
947.8628	2185.5504	983.05	98.45
947.9974	2187.0488	981.25	97.05
948.132	2188.5465	976.6	90.9
948.2666	2190.0435	980.15	96.45
948.4012	2191.5397	978.55	93.35
948.5357	2193.0353	980.35	96.05
948.6702	2194.5301	981.05	95
948.8047	2196.0241	977.15	92.15
948.9392	2197.5175	976.8	94
949.0736	2199.0101	982.8	94.7
949.208	2200.502	980.8	97.1
949.3424	2201.9931	977.4	91.25
949.4767	2203.4835	977.9	91.6
949.611	2204.9733	984.1	92.95
949.7453	2206.4622	975.9	91.4
949.8796	2207.9505	979	90.4
950.0138	2209.438	976.55	94.2
950.148	2210.9248	977.15	91.4
950.2822	2212.4109	977.35	93.5
950.4164	2213.8962	978.2	90.8
950.5505	2215.3809	975.25	87.75
950.6846	2216.8648	977.9	95.05
950.8186	2218.3479	980.25	91.35
950.9527	2219.8304	975.8	87.1
951.0867	2221.3121	979.25	93.25
951.2207	2222.7931	972.15	88.4
951.3546	2224.2733	975.4	89.8
951.4886	2225.7529	974.55	89.1
951.6225	2227.2317	979.05	91.55
951.7563	2228.7098	972.5	85.95
951.8902	2230.1872	973.25	87.75
952.024	2231.6638	973.4	90.3
952.1578	2233.1397	975.7	86.65
952.2916	2234.6149	974.7	91.8
952.4253	2236.0894	975.9	90.25
952.559	2237.5632	982.15	87.05
952.6927	2239.0362	968.85	84.5
952.8263	2240.5085	971.75	88.1
952.9599	2241.9801	973.7	89.75
953.0935	2243.4509	970.85	85.85
953.2271	2244.921	966	81.4
953.3606	2246.3904	974.1	86.65
953.4941	2247.8591	966.85	81
953.6276	2249.3271	969.25	86.25
953.7611	2250.7943	970.45	84
953.8945	2252.2608	968.2	83.55
954.0279	2253.7266	969.3	85.65
954.1612	2255.1917	969.1	83.1
954.2946	2256.656	968	82.85
954.4279	2258.1197	969.4	85.4
954.5612	2259.5826	970.8	83.9
954.6944	2261.0447	970.7	85.85
954.8276	2262.5062	971.1	83.6
954.9608	2263.9669	971.1	83.7
955.094	2265.4269	970.5	86.35
955.2271	2266.8862	968.2	83.8
955.3602	2268.3448	965.55	81.2
955.4933	2269.8026	967.35	81.5
955.6264	2271.2598	970.3	87.35
955.7594	2272.7162	964.3	81
955.8924	2274.1719	966.4	79
956.0253	2275.6268	964.65	79.85
956.1583	2277.0811	962.05	77.05
956.2912	2278.5346	966.65	81.35
956.4241	2279.9874	965.7	80.35
956.5569	2281.4395	967.8	83.1
956.6897	2282.8908	972.2	80.3
956.8225	2284.3414	965.7	78.1
956.9553	2285.7914	964.95	81.75
957.088	2287.2406	964.75	77.4
957.2207	2288.689	961.35	75.4
957.3534	2290.1368	967.75	82.25
957.486	2291.5838	966.3	80.35
957.6186	2293.0302	965.35	79.7
957.7512	2294.4758	963.75	80.45
957.8838	2295.9206	967.55	80.45
958.0163	2297.3648	965	81.4
958.1488	2298.8082	965.2	80.3
958.2813	2300.251	965.8	81.8
958.4137	2301.693	970.15	80.8
958.5461	2303.1343	963.05	78.45
958.6785	2304.5748	963.7	77.1
958.8108	2306.0147	962.85	77.2
958.9432	2307.4538	966.7	78.25
959.0754	2308.8922	962	77.55
959.2077	2310.3299	960.65	76.3
959.3399	2311.7669	960.2	74.7
959.4721	2313.2031	963.15	79.45
959.6043	2314.6387	963.1	77.3
959.7365	2316.0735	962.1	76.15
959.8686	2317.5076	965	78.9
960.0006	2318.941	962.6	78.3
960.1327	2320.3737	967	81.25
960.2647	2321.8056	963.45	76.05
960.3967	2323.2369	965.2	80.1
960.5287	2324.6674	967.45	81.5
960.6606	2326.0972	968.55	82.1
960.7925	2327.5263	968.3	83.1
960.9244	2328.9547	971.75	86.2
961.0562	2330.3823	969.4	85.35
961.1881	2331.8092	964.05	76.65
961.3198	2333.2355	960.5	74.75
961.4516	2334.661	963.6	76.65
961.5833	2336.0858	959.6	72.5
961.715	2337.5098	957.9	73.35
961.8467	2338.9332	962.6	76.45
961.9783	2340.3558	963.15	73
962.1099	2341.7778	955.85	69.75
962.2415	2343.199	960.65	72.85
962.373	2344.6195	957.4	73.6
962.5045	2346.0393	954.25	70.8
962.636	2347.4583	959.2	71.65
962.7675	2348.8767	961.35	76.85
962.8989	2350.2943	957.1	71.75
963.0303	2351.7113	956.95	71.8
963.1617	2353.1275	957.1	72.9
963.293	2354.543	965	70.55
963.4243	2355.9578	959.2	73.4
963.5556	2357.3718	958.95	74.4
963.6868	2358.7852	958.95	68.95
963.818	2360.1978	956.65	71.15
963.9492	2361.6098	955.05	69.6
964.0803	2363.021	958.75	70.15
964.2114	2364.4315	956.8	71.05
964.3425	2365.8413	958	71.35
964.4736	2367.2504	956.65	72.25
964.6046	2368.6587	957.95	73.25
964.7356	2370.0664	955.7	70.5
964.8666	2371.4733	957.1	72.65
964.9975	2372.8795	955.9	71.2
965.1284	2374.285	955.35	71.85
965.2593	2375.6899	952.3	66.4
965.3901	2377.0939	955.75	70.75
965.5209	2378.4973	950.1	65.3
965.6517	2379.9	955.05	67.85
965.7825	2381.3019	952.55	69.3
965.9132	2382.7032	955.75	68.35
966.0439	2384.1037	951.15	67.75
966.1745	2385.5035	951.5	65.45
966.3051	2386.9027	953.35	68.65
966.4357	2388.3011	959.15	70.35
966.5663	2389.6987	953.55	67.9
966.6968	2391.0957	950.5	63.6
966.8273	2392.492	950.45	65.6
966.9578	2393.8876	948.65	63.95
967.0882	2395.2824	950	64.65
967.2186	2396.6765	947.2	62.55
967.349	2398.07	947.35	63.9
967.4793	2399.4627	950.4	64.25
967.6097	2400.8547	947.6	63
967.7399	2402.246	952.5	60.95
967.8702	2403.6366	948.95	63.15
968.0004	2405.0265	948.5	63.75
968.1306	2406.4156	951.6	62.25
968.2607	2407.8041	951.95	64.6
968.3909	2409.1918	948.95	63.05
968.521	2410.5789	949.1	63.25
968.651	2411.9652	952.55	65.75
968.781	2413.3508	945.25	59.2
968.911	2414.7358	947.3	60.25
969.041	2416.12	944.55	59.35
969.1709	2417.5035	943.4	58.6
969.3008	2418.8863	949.95	64.25
969.4307	2420.2684	948.2	63.1
969.5606	2421.6497	949	61.85
969.6904	2423.0304	945.45	61.85
969.8201	2424.4104	947.7	61.45
969.9499	2425.7896	949.45	58
970.0796	2427.1682	948.5	62.75
970.2093	2428.546	944.2	59.15
970.3389	2429.9232	946.6	61.2
970.4685	2431.2996	944.6	59.4
970.5981	2432.6753	943.05	58.75
970.7277	2434.0503	943.25	57.55
970.8572	2435.4246	943.95	57.65
970.9867	2436.7982	947.5	59.7
971.1161	2438.1711	943.6	60.7
971.2456	2439.5433	944.45	57.6
971.375	2440.9148	952.05	61.95
971.5043	2442.2856	944.3	59.85
971.6336	2443.6557	945.8	59.7
971.7629	2445.025	946.55	61.95
971.8922	2446.3937	943.15	57.15
972.0214	2447.7617	944.3	57.65
972.1506	2449.1289	942.65	56.75
972.2798	2450.4955	946.9	57.35
972.4089	2451.8613	943.45	58.2
972.538	2453.2265	945.7	60.15
972.6671	2454.5909	941.6	55.8
972.7961	2455.9546	940.55	55.8
972.9251	2457.3177	944.2	58.65
973.0541	2458.68	941.1	54.75
973.1831	2460.0416	941.75	54.4
973.312	2461.4025	944.4	56.95
973.4408	2462.7627	952.55	55.25
973.5697	2464.1222	942.75	58.7
973.6985	2465.4811	938.85	53.95
973.8273	2466.8392	940.4	54.65
973.956	2468.1966	945	58.85
974.0847	2469.5533	943.65	56.85
974.2134	2470.9093	940.4	53.55
974.3421	2472.2645	943.85	57.25
974.4707	2473.6191	941.5	55
974.5993	2474.973	943.5	59.15
974.7278	2476.3262	940.75	53.4
974.8563	2477.6787	937.7	53.05
974.9848	2479.0305	935.85	50.95
975.1132	2480.3816	943.2	56.35
975.2417	2481.7319	940.85	55.95
975.37	2483.0816	941.1	53.85
975.4984	2484.4306	939.65	51.9
975.6267	2485.7789	937.35	53.8
975.755	2487.1264	942.45	54
975.8833	2488.4733	939.3	55.9
976.0115	2489.8195	954.45	49.65
976.1397	2491.165	942.45	54.1
976.2678	2492.5097	940.45	54.95
976.3959	2493.8538	936.6	51.65
976.524	2495.1972	938.8	54.2
976.6521	2496.5398	940.5	53.5
976.7801	2497.8818	941.9	53.5
976.9081	2499.2231	937.1	51.55
977.036	2500.5637	939	52.1
977.164	2501.9035	939.6	53.1
977.2918	2503.2427	939.75	50.55
977.4197	2504.5812	934.85	49.75
977.5475	2505.919	939.3	51.5
977.6753	2507.256	939.3	53.8
977.8031	2508.5924	935.7	50.3
977.9308	2509.9281	940.3	50.55
978.0585	2511.2631	937.25	51.1
978.1861	2512.5974	936.4	52.45
978.3137	2513.9309	935.45	50.95
978.4413	2515.2638	966.05	52
978.5689	2516.596	934.8	50.8
978.6964	2517.9275	937.15	49.1
978.8239	2519.2583	934.7	50.55
978.9513	2520.5884	934.4	45.6
979.0788	2521.9178	932	46.7
979.2062	2523.2465	931.05	47.55
979.3335	2524.5745	935.45	52
979.4608	2525.9018	932.1	47.65
979.5881	2527.2284	933.45	50.05
979.7154	2528.5543	934.3	48.3
979.8426	2529.8796	932	48.6
979.9698	2531.2041	932.7	46.55
980.0969	2532.5279	932.4	47.1
980.224	2533.851	936.2	50.15
980.3511	2535.1735	932.25	47.05
980.4781	2536.4952	928.8	42.5
980.6052	2537.8163	931.15	44.05
980.7321	2539.1366	932.9	47.45
980.8591	2540.4562	935.45	48.3
980.986	2541.7752	933.95	48.7
981.1129	2543.0935	935.15	51.6
981.2397	2544.411	935.45	48.25
981.3665	2545.7279	931.65	47.55
981.4933	2547.0441	931.65	46
981.62	2548.3596	933.8	44.1
981.7467	2549.6744	930.9	46.35
981.8734	2550.9885	932.5	45.5
982.0001	2552.3019	929.9	44.65
982.1267	2553.6146	932.65	47.95
982.2532	2554.9266	930.85	45.75
982.3798	2556.2379	930.65	45.45
982.5063	2557.5485	931.5	46.85
982.6327	2558.8585	939.5	48.85
982.7592	2560.1677	936.35	46.2
982.8856	2561.4762	931.1	43.15
983.0119	2562.7841	933.15	44.1
983.1383	2564.0913	928.8	44.75
983.2646	2565.3977	928.2	44.65
983.3908	2566.7035	928.05	42.45
983.517	2568.0086	931.75	44.65
983.6432	2569.313	929.1	44
983.7694	2570.6167	931.7	41.85
983.8955	2571.9197	929	45.15
984.0216	2573.222	933.1	44.75
984.1476	2574.5236	929.95	43.4
984.2737	2575.8246	929.25	42.25
984.3996	2577.1248	931.2	44.7
984.5256	2578.4244	928	44.85
984.6515	2579.7232	929.9	43.85
984.7774	2581.0214	953.7	41.65
984.9032	2582.3189	930.25	47.45
985.029	2583.6157	934.8	45.65
985.1548	2584.9118	929.15	44.75
985.2806	2586.2072	927.1	42.75
985.4063	2587.5019	926	40.4
985.5319	2588.7959	928.3	44.7
985.6576	2590.0893	930.45	43
985.7832	2591.3819	927.95	44.3
985.9087	2592.6739	927.85	44.05
986.0343	2593.9652	927.45	42.35
986.1597	2595.2557	928.7	45.25
986.2852	2596.5456	929.7	40.5
986.4106	2597.8348	927.25	42.95
986.536	2599.1234	925.6	43.85
986.6614	2600.4112	926.95	43.3
986.7867	2601.6983	932.65	43.75
986.912	2602.9848	925.75	40.95
987.0372	2604.2705	936.3	44.55
987.1624	2605.5556	930.1	45.45
987.2876	2606.84	927.8	43.3
987.4128	2608.1237	928.65	43.9
987.5379	2609.4067	928.55	43.4
987.6629	2610.689	934.25	40.15
987.788	2611.9707	928.2	39.15
987.913	2613.2516	930.65	41.15
988.0379	2614.5319	925.1	40.65
988.1629	2615.8115	924.75	40.3
988.2878	2617.0903	926.8	39.65
988.4126	2618.3685	928.15	44.2
988.5375	2619.6461	928.4	45.15
988.6622	2620.9229	926.3	39.25
988.787	2622.199	925.8	40.85
988.9117	2623.4745	926.2	40
989.0364	2624.7493	923.5	39.4
989.161	2626.0234	923.1	39
989.2857	2627.2968	923.05	36.7
989.4102	2628.5695	922.65	35.05
989.5348	2629.8415	922.8	38.5
989.6593	2631.1128	926.05	39.65
989.7837	2632.3835	923.1	38.85
989.9082	2633.6535	923.5	37.25
990.0326	2634.9228	921.35	37.9
990.1569	2636.1914	922.7	37.3
990.2812	2637.4593	930.5	41.95
990.4055	2638.7265	920.85	35.75
990.5298	2639.9931	923.6	37.75
990.654	2641.259	925	40.2
990.7782	2642.5242	924.8	38.85
990.9023	2643.7887	919.9	34.3
991.0264	2645.0525	918.75	33.45
991.1505	2646.3156	923.2	36.1
991.2745	2647.5781	921.15	38.25
991.3985	2648.8398	918.25	34.8
991.5225	2650.1009	959.15	36.85
991.6464	2651.3613	921.25	35
991.7703	2652.6211	921.25	34.8
991.8942	2653.8801	920	36.25
992.018	2655.1385	923.7	35.05
992.1418	2656.3961	923.6	37.3
992.2655	2657.6531	920.35	34.6
992.3892	2658.9094	923	36.55
992.5129	2660.1651	919.45	35.45
992.6366	2661.42	919.3	33.1
992.7602	2662.6743	922.4	34.95
992.8837	2663.9279	919.8	36.5
993.0073	2665.1808	922.55	37.55
993.1307	2666.433	922.2	36.3
993.2542	2667.6846	920.3	35.2
993.3776	2668.9354	925.2	37.4
993.501	2670.1856	922.85	39.15
993.6244	2671.4351	921.95	36.75
993.7477	2672.6839	919.2	33.95
993.8709	2673.9321	920.55	36.95
993.9942	2675.1795	922.45	35.95
994.1174	2676.4263	920.5	36
994.2405	2677.6724	923.4	39.6
994.3637	2678.9179	923.25	39.15
994.4868	2680.1626	920	34.95
994.6098	2681.4067	918.9	31.35
994.7328	2682.6501	919	33.3
994.8558	2683.8928	923.55	37.3
994.9788	2685.1348	920.05	35
995.1017	2686.3761	918.45	33.75
995.2245	2687.6168	919.05	32.7
995.3474	2688.8568	919.65	35.3
995.4702	2690.0961	916.7	33.05
995.5929	2691.3348	917.75	32
995.7156	2692.5727	918	33.6
995.8383	2693.81	916.25	30.75
995.961	2695.0466	917.75	35.35
996.0836	2696.2826	919.9	33.1
996.2062	2697.5178	939.85	35.35
996.3287	2698.7524	919.85	32.5
996.4512	2699.9863	917.65	28
996.5737	2701.2195	918.4	34.95
996.6961	2702.452	921.8	35.65
996.8185	2703.6839	920.85	35.25
996.9408	2704.9151	916.65	32.4
997.0631	2706.1456	919.15	33.4
997.1854	2707.3755	918.15	35.4
997.3077	2708.6046	921.5	36.8
997.4299	2709.8331	918.85	35.4
997.552	2711.0609	920.8	34.35
997.6742	2712.2881	918.5	34.1
997.7963	2713.5145	919.35	33.75
997.9183	2714.7403	917.85	34.85
998.0403	2715.9654	920.3	34.35
998.1623	2717.1899	933.75	35.45
998.2842	2718.4136	921.1	38.2
998.4062	2719.6367	921.1	36.05
998.528	2720.8591	928.5	36.6
998.6498	2722.0809	922.25	35.65
998.7716	2723.3019	925.75	37.05
998.8934	2724.5223	924	39.05
999.0151	2725.7421	923.5	37.95
999.1368	2726.9611	925.55	37.5
999.2584	2728.1795	925.05	37.05
999.38	2729.3972	919.75	35.9
999.5016	2730.6142	933.1	34.95
999.6231	2731.8306	920.5	33.05
999.7446	2733.0462	920.45	32.9
999.8661	2734.2612	923.15	32.6
999.9875	2735.4756	918.35	32.8
1000.1089	2736.6892	918.75	31.9
1000.2302	2737.9022	916.8	32.15
1000.3515	2739.1145	917.35	29.8
1000.4728	2740.3262	923.25	32.5
1000.594	2741.5372	914.85	30.3
1000.7152	2742.7475	914.65	28.55
1000.8363	2743.9571	917.45	31.6
1000.9575	2745.1661	919.55	31.1
1001.0785	2746.3744	915.05	30.45
1001.1996	2747.582	915.15	27.7
1001.3206	2748.7889	913.95	26.45
1001.4415	2749.9952	915.9	32.2
1001.5625	2751.2008	914.6	29
1001.6833	2752.4057	915.4	27.2
1001.8042	2753.61	913.6	27.25
1001.925	2754.8136	912.95	25.55
1002.0458	2756.0165	912.3	27.45
1002.1665	2757.2188	913.05	30.75
1002.2872	2758.4204	911.05	24.85
1002.4078	2759.6213	913.75	27
1002.5285	2760.8215	920.65	30.1
1002.649	2762.0211	912.25	24.5
1002.7696	2763.22	915.4	25.75
1002.8901	2764.4182	912.2	24.6
1003.0106	2765.6158	912.7	28.05
1003.131	2766.8127	912.75	27.45
1003.2514	2768.009	912.95	27.5
1003.3717	2769.2045	912.05	27.05
1003.492	2770.3994	913	26.15
1003.6123	2771.5936	912.05	25.35
1003.7325	2772.7872	908.5	24.45
1003.8527	2773.9801	912.85	24.95
1003.9729	2775.1723	928	26.9
1004.093	2776.3639	907.6	22.05
1004.2131	2777.5548	912.8	26.1
1004.3331	2778.745	913.05	26.75
1004.4531	2779.9346	911.1	25.55
1004.5731	2781.1235	910.15	23.9
1004.693	2782.3117	909.5	24.35
1004.8129	2783.4992	909.55	24.2
1004.9328	2784.6861	910.2	25.4
1005.0526	2785.8723	910.25	23.9
1005.1723	2787.0579	913.05	27.7
1005.2921	2788.2428	909.35	24.1
1005.4118	2789.427	909.6	24.55
1005.5314	2790.6106	909.95	24.4
1005.651	2791.7935	911.2	25.45
1005.7706	2792.9757	908.45	22.95
1005.8902	2794.1573	913.65	26.8
1006.0097	2795.3382	910.2	23.2
1006.1291	2796.5184	908.55	24.45
1006.2485	2797.698	910.85	25.6
1006.3679	2798.8769	911.35	27.35
1006.4873	2800.0551	908.55	23.4
1006.6066	2801.2327	916.05	28.4
1006.7258	2802.4096	909.85	26.9
1006.8451	2803.5859	912.4	28.55
1006.9642	2804.7615	912.1	25.3
1007.0834	2805.9364	910.9	26.4
1007.2025	2807.1106	911.6	25.95
1007.3216	2808.2842	914.1	28.4
1007.4406	2809.4572	912.4	25.5
1007.5596	2810.6294	913.75	26.5
1007.6785	2811.801	911.75	28.2
1007.7975	2812.972	912.55	29.1
1007.9163	2814.1423	915.1	30.2
1008.0352	2815.3119	916.5	32.65
1008.154	2816.4808	916.75	31.7
1008.2727	2817.6491	920.3	33.6
1008.3914	2818.8167	919	35.65
1008.5101	2819.9837	924.8	35.3
1008.6288	2821.15	925.1	40.1
1008.7474	2822.3157	925.8	41.15
1008.8659	2823.4807	927.2	40.95
1008.9844	2824.645	936.25	51.05
1009.1029	2825.8086	935.9	51.15
1009.2214	2826.9716	935.4	52.9
1009.3398	2828.134	944.95	62.7
1009.4581	2829.2957	945.85	63.3
1009.5764	2830.4567	947.65	64
1009.6947	2831.617	950.2	64.3
1009.813	2832.7767	954.45	68.55
1009.9312	2833.9358	952.05	68.95
1010.0493	2835.0941	957.5	70.95
1010.1675	2836.2519	953.65	69.4
1010.2855	2837.4089	952.8	67.15
1010.4036	2838.5653	945.7	61.95
1010.5216	2839.7211	945.1	61.8
1010.6396	2840.8761	945.35	58.95
1010.7575	2842.0306	942.75	60.6
1010.8754	2843.1843	942.75	59.05
1010.9932	2844.3374	941.75	58.3
1011.111	2845.4899	943.55	56.35
1011.2288	2846.6417	948	63.65
1011.3465	2847.7928	947.9	63.3
1011.4642	2848.9433	944.5	59.95
1011.5818	2850.0931	947.25	62.85
1011.6995	2851.2422	948.35	62.35
1011.817	2852.3907	950	65.4
1011.9345	2853.5385	949.7	63
1012.052	2854.6857	976.7	66.1
1012.1695	2855.8323	950.55	66
1012.2869	2856.9781	951.65	68.25
1012.4042	2858.1233	950.85	66.65
1012.5216	2859.2679	953.95	69.35
1012.6389	2860.4118	956.3	71.8
1012.7561	2861.555	959.55	71.8
1012.8733	2862.6976	961.5	74.65
1012.9905	2863.8395	961.7	78.05
1013.1076	2864.9808	958.1	71.65
1013.2247	2866.1214	958.1	74.75
1013.3417	2867.2614	960.45	73.9
1013.4587	2868.4007	962.4	76.2
1013.5757	2869.5393	964.25	77.95
1013.6926	2870.6773	965.3	76.25
1013.8095	2871.8146	969.3	83.1
1013.9263	2872.9513	965	77.35
1014.0431	2874.0874	962.3	78
1014.1599	2875.2227	965.4	80.55
1014.2766	2876.3574	973.4	87.15
1014.3933	2877.4915	968.45	85
1014.51	2878.6249	969.1	83.85
1014.6266	2879.7577	969.7	82.2
1014.7431	2880.8898	981.1	83.75
1014.8596	2882.0212	971.5	87.95
1014.9761	2883.152	977.05	91.3
1015.0925	2884.2821	974.6	92.75
1015.2089	2885.4116	976.1	95.05
1015.3253	2886.5405	978.25	94.6
1015.4416	2887.6686	980.95	92.95
1015.5579	2888.7962	974.05	89.5
1015.6741	2889.923	975.2	91.85
1015.7903	2891.0493	975.65	91.2
1015.9065	2892.1748	977.05	93.1
1016.0226	2893.2997	976	89.75
1016.1387	2894.424	975.05	91.95
1016.2547	2895.5476	976.85	93.5
1016.3707	2896.6706	974.15	90
1016.4866	2897.7929	974.15	90.05
1016.6025	2898.9145	972.45	87.65
1016.7184	2900.0355	977.55	92
1016.8342	2901.1559	980.3	93.7
1016.95	2902.2756	978.55	87.75
1017.0658	2903.3946	972.65	87.3
1017.1815	2904.513	979.95	92.15
1017.2971	2905.6308	972.5	89
1017.4127	2906.7479	971.7	88.2
1017.5283	2907.8643	977.7	92.9
1017.6439	2908.9801	973.25	89.8
1017.7594	2910.0953	973.3	87.45
1017.8748	2911.2098	977.25	89.7
1017.9902	2912.3236	980.35	85.25
1018.1056	2913.4368	979.85	93.45
1018.2209	2914.5494	973.3	87.5
1018.3362	2915.6613	976.6	85.65
1018.4515	2916.7725	976.1	86.35
1018.5667	2917.8831	968.55	83.65
1018.6819	2918.9931	969.55	83.8
1018.797	2920.1024	968.35	81.95
1018.9121	2921.211	966.25	82.65
1019.0271	2922.319	966.9	81.45
1019.1421	2923.4264	963.3	79.1
1019.2571	2924.5331	961.45	76.95
1019.372	2925.6391	964.85	78.1
1019.4869	2926.7445	961.9	79.8
1019.6017	2927.8493	964.65	77.1
1019.7165	2928.9534	964.35	79.75
1019.8313	2930.0569	970.8	82.45
1019.946	2931.1597	969.7	84.9
1020.0606	2932.2619	965.05	81.2
1020.1753	2933.3634	964.95	80.75
1020.2899	2934.4643	975.6	84.45
1020.4044	2935.5645	975	82.75
1020.5189	2936.6641	974.35	85.9
1020.6334	2937.763	966.1	82.8
1020.7478	2938.8613	968.7	81.35
1020.8622	2939.959	976	86.9
1020.9765	2941.056	963.3	80.1
1021.0908	2942.1523	960.75	75.25
1021.2051	2943.248	963.1	77.1
1021.3193	2944.3431	958.05	73.6
1021.4334	2945.4375	955.5	69.35
1021.5476	2946.5313	946.95	61.95
1021.6617	2947.6244	944.45	60.85
1021.7757	2948.7169	945.1	58.55
1021.8897	2949.8087	939.85	54.9
1022.0037	2950.8999	938.15	53.85
1022.1176	2951.9904	934.1	49.75
1022.2315	2953.0803	935.45	50.65
1022.3453	2954.1696	930	45.95
1022.4591	2955.2582	927.95	47.1
1022.5728	2956.3462	927.85	44.05
1022.6865	2957.4335	928.7	43.7
1022.8002	2958.5202	930.3	44.6
1022.9138	2959.6062	929.45	45.35
1023.0274	2960.6916	926	42
1023.141	2961.7764	928.45	41.85
1023.2545	2962.8605	926.55	42.15
1023.3679	2963.9439	927.8	44.65
1023.4813	2965.0267	926.6	42.05
1023.5947	2966.1089	948.35	40.9
1023.708	2967.1905	927.45	43.35
1023.8213	2968.2714	923.6	41.65
1023.9346	2969.3516	925.05	41.65
1024.0478	2970.4312	935.45	43.9
1024.1609	2971.5102	925.3	38.75
1024.274	2972.5885	924	40.55
1024.3871	2973.6662	926.2	36.1
1024.5002	2974.7432	925.15	39.15
1024.6132	2975.8196	924.65	41.25
1024.7261	2976.8954	924.8	41.35
1024.839	2977.9705	925.75	40.4
1024.9519	2979.045	927.05	44.85
1025.0647	2980.1188	925.1	39.95
1025.1775	2981.192	922.75	38.95
1025.2902	2982.2645	927.55	42.05
1025.4029	2983.3364	923.4	38.85
1025.5156	2984.4077	922.3	39.25
1025.6282	2985.4783	928.5	37.15
1025.7407	2986.5483	918.75	35.1
1025.8532	2987.6177	919.55	35.7
1025.9657	2988.6864	916.6	33.55
1026.0782	2989.7545	917.9	32.2
1026.1906	2990.8219	917.2	32.25
1026.3029	2991.8887	916.8	28.8
1026.4152	2992.9548	913.5	26.8
1026.5275	2994.0204	914.25	30.5
1026.6397	2995.0852	909.2	26.3
1026.7519	2996.1495	910.6	24.75
1026.864	2997.2131	908.9	24.45
1026.9761	2998.276	908.9	24
1027.0882	2999.3383	907.25	21
1027.2002	3000.4	905.05	20.65
1027.3122	3001.4611	905.75	19.95
1027.4241	3002.5215	905.45	21.1
1027.536	3003.5812	904.5	19.9
1027.6478	3004.6404	902.7	17.35
1027.7596	3005.6989	905.55	20.45
1027.8714	3006.7567	903.15	19.85
1027.9831	3007.8139	927.9	14.35
1028.0947	3008.8705	904.95	20.8
1028.2064	3009.9264	918.05	16.15
1028.3179	3010.9818	902.5	18.15
1028.4295	3012.0364	901.8	16.25
1028.541	3013.0905	900.3	15.05
1028.6524	3014.1439	902.25	19.05
1028.7638	3015.1966	899.5	14.25
1028.8752	3016.2487	901.15	17.35
1028.9865	3017.3002	906.35	13.8
1029.0978	3018.3511	898.9	17
1029.209	3019.4013	899.2	13.65
1029.3202	3020.4509	899	13.65
1029.4314	3021.4998	898.25	12.95
1029.5425	3022.5481	899.4	15.3
1029.6535	3023.5958	899.55	14.4
1029.7645	3024.6428	900.85	14.45
1029.8755	3025.6892	897.35	14.45
1029.9864	3026.735	899.65	15.75
1030.0973	3027.7802	897.1	12.25
1030.2082	3028.8247	900.25	15.55
1030.319	3029.8685	897.9	13
1030.4297	3030.9118	900.8	15.35
1030.5404	3031.9544	898	12.95
1030.6511	3032.9963	899.75	14.7
1030.7617	3034.0376	898.85	13.95
1030.8723	3035.0783	902.1	15.05
1030.9829	3036.1184	899.95	13.1
1031.0934	3037.1578	898.05	15
1031.2038	3038.1966	899.9	15.55
1031.3142	3039.2348	899.55	14.9
1031.4246	3040.2723	905.6	11.75
1031.5349	3041.3092	896.25	13
1031.6452	3042.3455	899.7	14.4
1031.7554	3043.3811	901.8	16.5
1031.8656	3044.4161	900.8	16.3
1031.9758	3045.4505	898.55	15.2
1032.0859	3046.4842	899.05	13.95
1032.1959	3047.5173	896.25	12.4
1032.3059	3048.5498	899.9	14.1
1032.4159	3049.5816	898.2	12.8
1032.5258	3050.6128	900	15.85
1032.6357	3051.6434	900	15.05
1032.7455	3052.6734	899.95	14
1032.8553	3053.7027	902.1	17.05
1032.9651	3054.7314	898	15.25
1033.0748	3055.7594	899.35	16.95
1033.1845	3056.7868	898.65	13.1
1033.2941	3057.8136	896.7	13
1033.4037	3058.8398	900.9	17
1033.5132	3059.8653	899.7	15.8
1033.6227	3060.8902	900.35	15.75
1033.7321	3061.9145	901.05	15.1
1033.8415	3062.9381	899.1	12.65
1033.9509	3063.9612	914.75	12.9
1034.0602	3064.9835	901.45	16.95
1034.1694	3066.0053	902.2	15.15
1034.2787	3067.0264	899.55	15.15
1034.3878	3068.0469	900.9	14.65
1034.497	3069.0668	903.2	14.95
1034.6061	3070.086	899.2	16.1
1034.7151	3071.1046	903.3	17.5
1034.8241	3072.1226	901.45	15.5
1034.9331	3073.1399	899.65	15.25
1035.042	3074.1567	900.85	17.05
1035.1508	3075.1727	899.5	14.15
1035.2597	3076.1882	897.45	12.2
1035.3684	3077.203	899.25	14.5
1035.4772	3078.2173	898.35	12.05
1035.5859	3079.2308	900.05	11.75
1035.6945	3080.2438	898.65	12.25
1035.8031	3081.2561	896.95	11.75
1035.9117	3082.2678	897.45	14.5
1036.0202	3083.2789	897.15	10.95
1036.1286	3084.2893	895.75	12.1
1036.2371	3085.2991	897.05	10.7
1036.3454	3086.3083	900.8	10.15
1036.4538	3087.3169	899.75	14.45
1036.562	3088.3248	896.15	10.25
1036.6703	3089.3321	898.65	13.2
1036.7785	3090.3388	894.45	9.95
1036.8866	3091.3449	895.2	10.65
1036.9948	3092.3503	898.85	12.6
1037.1028	3093.3551	894.65	9.85
1037.2108	3094.3593	893.8	10.75
1037.3188	3095.3629	894.9	10.75
1037.4267	3096.3658	894.55	8.55
1037.5346	3097.3681	893.05	9.85
1037.6425	3098.3698	895.2	8.3
1037.7503	3099.3708	895.25	11.35
1037.858	3100.3713	894.2	10.3
1037.9657	3101.3711	895.2	9.85
1038.0734	3102.3702	1036.6	8.9
1038.181	3103.3688	896.85	9.25
1038.2886	3104.3667	893	8.85
1038.3961	3105.364	894.15	10.85
1038.5036	3106.3607	894.9	8.6
1038.611	3107.3568	894.8	11.6
1038.7184	3108.3522	894.1	9.8
1038.8257	3109.347	894.2	7.55
1038.933	3110.3412	900.4	13.75
1039.0403	3111.3348	893	7.45
1039.1475	3112.3277	893.35	9.45
1039.2547	3113.32	890.9	9.25
1039.3618	3114.3117	892.35	8.9
1039.4689	3115.3028	893.9	9.85
1039.5759	3116.2932	894.75	9.35
1039.6829	3117.2831	900.45	9.75
1039.7898	3118.2723	893.25	7.9
1039.8967	3119.2608	892	5.6
1040.0035	3120.2488	893.1	7.9
1040.1103	3121.2361	891.6	7.85
1040.2171	3122.2229	893.6	8.95
1040.3238	3123.209	891.75	7.9
1040.4305	3124.1944	890.35	6.4
1040.5371	3125.1793	895.3	9.4
1040.6437	3126.1635	892.6	9
1040.7502	3127.1471	893.25	9.65
1040.8567	3128.1301	892.9	8.75
1040.9631	3129.1125	889.15	5.3
1041.0695	3130.0942	892.85	10.2
1041.1759	3131.0753	901.1	8.25
1041.2822	3132.0558	896.65	9.05
1041.3884	3133.0357	893.8	9.4
1041.4946	3134.015	892	8.05
1041.6008	3134.9936	894.1	9.95
1041.7069	3135.9716	912.55	6.05
1041.813	3136.949	892.65	8.05
1041.919	3137.9258	908.75	5.6
1042.025	3138.902	896.6	6
1042.1309	3139.8775	892.6	7.45
1042.2368	3140.8524	889.75	5.2
1042.3427	3141.8267	892.7	5.4
1042.4485	3142.8004	892.3	8.2
1042.5542	3143.7735	896.85	5.65
1042.6599	3144.7459	893.3	7.75
1042.7656	3145.7178	893.4	9.15
1042.8712	3146.689	890.5	5.5
1042.9768	3147.6596	891.05	4.1
1043.0823	3148.6295	891.25	6.7
1043.1878	3149.5989	893.1	8.8
1043.2932	3150.5676	890.35	9
1043.3986	3151.5357	888.55	3.95
1043.5039	3152.5032	891	6.7
1043.6092	3153.4701	890.1	7.15
1043.7145	3154.4364	894.35	7.9
1043.8197	3155.402	890.55	6.55
1043.9248	3156.367	890.85	3.75
1044.03	3157.3315	908.45	2.7
1044.135	3158.2952	891.35	5.9
1044.24	3159.2584	891	8.65
1044.345	3160.221	891.05	5.35
1044.4499	3161.1829	889	3.6
1044.5548	3162.1442	890.2	5.05
1044.6596	3163.105	890.15	3.95
1044.7644	3164.065	890.55	5
1044.8692	3165.0245	893.05	5.3
1044.9739	3165.9834	888.5	6.25
1045.0785	3166.9416	890.2	6.9
1045.1831	3167.8993	889.75	6.4
1045.2877	3168.8563	891.3	6.15
1045.3922	3169.8127	889.9	5.25
1045.4966	3170.7684	890.85	4.7
1045.6011	3171.7236	892.75	10.3
1045.7054	3172.6782	889.6	5.8
1045.8098	3173.6321	891.55	8.45
1045.914	3174.5854	895.75	8.15
1046.0183	3175.5381	891.05	4.55
1046.1224	3176.4902	889.85	6.3
1046.2266	3177.4417	887.5	5
1046.3307	3178.3926	889.95	8.25
1046.4347	3179.3428	888.35	5.5
1046.5387	3180.2924	890.2	7.25
1046.6427	3181.2415	889.95	3.3
1046.7466	3182.1899	890.95	7.35
1046.8504	3183.1377	888.9	6.35
1046.9542	3184.0848	895.75	8.7
1047.058	3185.0314	890.4	5.75
1047.1617	3185.9773	890.6	5.6
1047.2654	3186.9227	889.65	2.25
1047.369	3187.8674	889.45	4.85
1047.4726	3188.8115	894.05	4.1
1047.5761	3189.755	890.15	7.15
1047.6796	3190.6979	889.8	6
1047.783	3191.6402	887.25	3.45
1047.8864	3192.5818	889.05	4.8
1047.9898	3193.5229	904.3	5.2
1048.0931	3194.4633	891.4	9.15
1048.1963	3195.4031	891.3	4.8
1048.2995	3196.3423	889.85	6.7
1048.4027	3197.2809	888.15	2.5
1048.5058	3198.2189	889.55	5.15
1048.6089	3199.1563	906.5	5.45
1048.7119	3200.0931	890.5	6.25
1048.8148	3201.0292	888.8	3.85
1048.9178	3201.9648	890.55	6.45
1049.0206	3202.8997	892.85	5.95
1049.1235	3203.834	888.7	4.75
1049.2262	3204.7677	891.15	7
1049.329	3205.7008	889.85	4.75
1049.4317	3206.6333	887.45	3.2
1049.5343	3207.5652	891.2	3.6
1049.6369	3208.4964	889.9	6.4
1049.7394	3209.4271	888.5	4.1
1049.8419	3210.3571	887	2.25
1049.9444	3211.2865	887.95	2.5
1050.0468	3212.2154	889.25	4.85
1050.1491	3213.1436	890.4	1.3
1050.2514	3214.0712	896.2	6.55
1050.3537	3214.9982	891.35	6.25
1050.4559	3215.9246	889.5	4.75
1050.5581	3216.8503	887.75	5.95
1050.6602	3217.7755	887.15	2.25
1050.7623	3218.7001	887.9	1.65
1050.8643	3219.624	889.15	3.95
1050.9663	3220.5473	891.1	7.3
1051.0682	3221.4701	889.15	4.15
1051.1701	3222.3922	893.15	7
1051.2719	3223.3137	888	4.2
1051.3737	3224.2346	889.15	4.6
1051.4754	3225.1549	887.25	2.5
1051.5771	3226.0746	888.25	5.95
1051.6788	3226.9937	890	6.45
1051.7804	3227.9121	887.15	3.3
1051.8819	3228.83	890.25	5.6
1051.9834	3229.7473	889.05	4.05
1052.0849	3230.6639	888.6	2.95
1052.1863	3231.5799	889.25	3.4
1052.2876	3232.4954	890.55	5.1
1052.3889	3233.4102	888.1	1.8
1052.4902	3234.3244	889.05	2.7
1052.5914	3235.238	887.6	4.45
1052.6926	3236.151	913.2	5.1
1052.7937	3237.0634	889.25	5.3
1052.8948	3237.9752	887.15	3.1
1052.9958	3238.8864	886.7	2.4
1053.0968	3239.797	888.05	4
1053.1977	3240.7069	889.5	5.45
1053.2986	3241.6163	889.35	3.95
1053.3994	3242.5251	886.6	3.85
1053.5002	3243.4332	887.45	4.15
1053.6009	3244.3408	888.8	4.05
1053.7016	3245.2477	888.45	4.85
1053.8022	3246.154	887.3	1.95
1053.9028	3247.0598	888.25	2.15
1054.0034	3247.9649	887.55	2.65
1054.1039	3248.8694	888.85	2.95
1054.2043	3249.7733	887.35	2.75
1054.3047	3250.6766	887.8	2
1054.4051	3251.5793	888.3	4
1054.5054	3252.4814	887.35	3.2
1054.6056	3253.3829	888.1	8
1054.7058	3254.2838	888.05	2.4
1054.806	3255.1841	887.1	3.3
1054.9061	3256.0838	888.15	3.85
1055.0061	3256.9829	885.15	1.75
1055.1062	3257.8814	890.15	4.4
1055.2061	3258.7792	891.1	6
1055.306	3259.6765	888.05	4.4
1055.4059	3260.5731	887.6	3.75
1055.5057	3261.4692	888.2	1.9
1055.6055	3262.3647	887.6	3.2
1055.7052	3263.2595	889.2	6.05
1055.8049	3264.1538	887.2	3.05
1055.9045	3265.0474	887.85	1.9
1056.0041	3265.9404	889.35	4.95
1056.1036	3266.8329	885.9	0.1
1056.2031	3267.7247	898.55	3.6
1056.3025	3268.616	885.95	3.95
1056.4019	3269.5066	886.15	0.5
1056.5013	3270.3966	888.4	3.3
1056.6005	3271.286	885.8	4.7
