Software Version:	3.9.2.0
Unit SN:	10000200
Spectrometer SN:	6960
Date:	3/14/2024 2:25:07 PM
Data Line Index:	25
Spectral Points:	2048
Integration time (ms):	125
Averages:	20
Delay (ms):	30000
Sequence Number:	1
Processing:	dark subtract
Laser Power (mW):	305
Laser Current (mA):	825
Laser Diode Temp (C):	25
Laser Case Temp (C):	29.2
System Temp (C):	29.2
Spectrometer Temp (C):	27
CCD Temp (C):	0.013
Secondary Temp (C):	20.01
Heatsink Temp (C):	25.167
CCDPCB Temp (C):	38.474
SecondaryPCB Temp (C):	36.24

Wavelength	RamanShift	Raw Counts	Dark Subtracted
787.061	30.1047	455.75	46.9
787.2016	32.3739	456.9	50.05
787.3422	34.6426	460.3	52.35
787.4828	36.9109	467.55	56.85
787.6235	39.1787	474.65	60.55
787.7642	41.4461	489	69.3
787.9049	43.7131	494.6	70.1
788.0456	45.9796	502.7	76.45
788.1863	48.2456	513.6	82.85
788.3271	50.5112	522.45	86.8
788.4679	52.7764	531.45	94.15
788.6087	55.0411	538.45	97
788.7496	57.3054	553.45	105.9
788.8904	59.5692	561.15	112.95
789.0313	61.8326	575.95	122.1
789.1722	64.0955	587.55	131.45
789.3132	66.3579	601.6	137.45
789.4541	68.6199	619.55	154.3
789.5951	70.8815	649.9	182.5
789.7361	73.1426	727.65	255
789.8771	75.4032	906.55	430.75
790.0181	77.6634	1371.7	889.1
790.1592	79.9231	2456.35	1966.5
790.3003	82.1824	4844	4344.7
790.4414	84.4412	9251.55	8736.4
790.5825	86.6995	15488.9	14955.15
790.7237	88.9574	21750.3	21195.2
790.8648	91.2148	26271.6	25703.1
791.006	93.4717	28459.75	27882.15
791.1472	95.7282	29026	28443.5
791.2885	97.9842	29001.65	28417.95
791.4297	100.2398	28562	27973.65
791.571	102.4949	28005.25	27413.75
791.7123	104.7495	27275.4	26681.1
791.8536	107.0036	26435.05	25840.05
791.9949	109.2573	25585.5	24992.55
792.1363	111.5105	24781.3	24184.85
792.2777	113.7632	23940.35	23342.65
792.4191	116.0154	23200	22591.55
792.5605	118.2672	22671.55	22070.15
792.7019	120.5185	22077.75	21475.2
792.8434	122.7693	21640.95	21036.2
792.9849	125.0197	21317.65	20710.15
793.1264	127.2696	21017.25	20407.4
793.2679	129.519	20842.9	20231.1
793.4094	131.7679	20661.8	20047.85
793.551	134.0163	20547.5	19929.15
793.6926	136.2642	20376	19750.3
793.8342	138.5117	20230.8	19595.2
793.9758	140.7587	20048.75	19418.9
794.1175	143.0052	19833.7	19203.15
794.2591	145.2512	19635.35	19004
794.4008	147.4967	19433.45	18801.65
794.5425	149.7417	19284.35	18651.45
794.6842	151.9863	19147.55	18510.85
794.826	154.2304	19089.65	18450.95
794.9677	156.4739	18977.85	18334.1
795.1095	158.717	18906.55	18262.35
795.2513	160.9596	18725.3	18072.55
795.3931	163.2017	18472	17820.35
795.535	165.4433	18183.75	17529.5
795.6768	167.6844	17798.05	17141.5
795.8187	169.925	17445.6	16786.95
795.9606	172.1651	17045.9	16384.9
796.1025	174.4047	16735	16067.2
796.2445	176.6439	16401.95	15736.9
796.3864	178.8825	16129.9	15460.1
796.5284	181.1206	15917.15	15245.8
796.6704	183.3582	15740.15	15062.65
796.8124	185.5954	15571.6	14894.25
796.9544	187.832	15471.2	14788
797.0965	190.0681	15416.3	14733.5
797.2386	192.3037	15384.1	14697.9
797.3806	194.5388	15387.55	14699.45
797.5228	196.7734	15418.45	14724.75
797.6649	199.0075	15464.85	14770.85
797.807	201.2411	15561.75	14865.45
797.9492	203.4742	15615.4	14916.45
798.0914	205.7068	15752.05	15050.75
798.2336	207.9389	15873.25	15172.7
798.3758	210.1704	15993.3	15291.9
798.518	212.4015	16102.75	15399.05
798.6603	214.632	16286.75	15580.9
798.8025	216.862	16486.35	15787.1
798.9448	219.0915	16664.55	15974.7
799.0871	221.3205	16922.35	16238.25
799.2294	223.549	17220.65	16535.15
799.3718	225.777	17589.5	16904.8
799.5141	228.0044	18067	17378.95
799.6565	230.2314	18593.55	17912.3
799.7989	232.4578	19168.8	18483.9
799.9413	234.6837	19620.95	18924.4
800.0837	236.909	19906.2	19212.45
800.2262	239.1339	19907.3	19189.1
800.3687	241.3582	19566.2	18862.05
800.5111	243.582	19124.75	18398.5
800.6536	245.8053	18649.45	17927.35
800.7961	248.0281	18206.95	17488.8
800.9387	250.2503	17863.05	17141.9
801.0812	252.472	17642.45	16919.6
801.2238	254.6932	17469.95	16742.85
801.3664	256.9139	17273.4	16541.6
801.509	259.134	17168.2	16434.45
801.6516	261.3536	17053.45	16326.8
801.7942	263.5727	17015.45	16282.55
801.9369	265.7912	16855	16123.75
802.0795	268.0092	16764.65	16031.5
802.2222	270.2267	16659.7	15923.7
802.3649	272.4436	16590.2	15856.4
802.5076	274.6601	16495.3	15749.2
802.6504	276.8759	16445.25	15707.7
802.7931	279.0913	16454.35	15716.05
802.9359	281.3061	16479.15	15739.4
803.0787	283.5204	16580.4	15839
803.2215	285.7341	16704.8	15956.15
803.3643	287.9473	16912.4	16162.35
803.5071	290.16	17185.25	16432.35
803.6499	292.3721	17544.2	16795
803.7928	294.5837	18069.05	17320
803.9357	296.7947	18472.5	17721.3
804.0786	299.0052	18731.4	17980.5
804.2215	301.2152	18550.6	17797.65
804.3644	303.4246	18130.2	17381.55
804.5074	305.6334	17500.3	16751.15
804.6503	307.8418	16930.85	16178.3
804.7933	310.0495	16435.9	15685.1
804.9363	312.2568	16099.75	15345.95
805.0793	314.4635	15880.35	15125.85
805.2223	316.6696	15767.9	15010
805.3653	318.8752	15755.3	14991.5
805.5084	321.0802	15837.55	15081.35
805.6514	323.2847	15939.75	15181.5
805.7945	325.4887	16030.2	15269.5
805.9376	327.692	15972.9	15212.95
806.0807	329.8949	15831.4	15070.65
806.2238	332.0972	15515.65	14753.05
806.367	334.2989	15227.75	14460.2
806.5101	336.5001	14931.4	14165.1
806.6533	338.7007	14679	13915.5
806.7965	340.9008	14517.35	13751.4
806.9397	343.1003	14413	13643.75
807.0829	345.2992	14323.55	13550.35
807.2261	347.4976	14265.5	13491.2
807.3693	349.6955	14300.8	13524.35
807.5126	351.8927	14366.35	13588.7
807.6559	354.0895	14331.7	13541
807.7991	356.2856	14400.15	13622.35
807.9424	358.4812	14391.85	13614.65
808.0857	360.6763	14372.55	13593.8
808.2291	362.8707	14322.45	13544.4
808.3724	365.0646	14377.55	13594.55
808.5158	367.258	14330.1	13544.25
808.6591	369.4508	14352.35	13563.3
808.8025	371.643	14395.8	13609.55
808.9459	373.8346	14336.55	13547.35
809.0893	376.0257	14324.55	13531.65
809.2327	378.2162	14183.75	13391.55
809.3762	380.4062	14099.2	13306.05
809.5196	382.5956	13914.3	13116.85
809.6631	384.7844	13799.6	13000.7
809.8066	386.9726	13671.9	12873.15
809.9501	389.1603	13604.7	12808.35
810.0936	391.3474	13579.7	12745.9
810.2371	393.5339	13542.5	12747.8
810.3806	395.7199	13452.95	12661.05
810.5241	397.9052	13457.45	12666.65
810.6677	400.09	13450.35	12664.95
810.8113	402.2743	13491.45	12702.3
810.9548	404.4579	13505.2	12718.4
811.0984	406.641	13668.8	12884.05
811.2421	408.8235	13894.25	13107.85
811.3857	411.0054	14245.6	13456.5
811.5293	413.1868	14755.45	13962.5
811.673	415.3675	15176.85	14385.05
811.8166	417.5477	15436.25	14642.6
811.9603	419.7273	15504.2	14709.7
812.104	421.9064	15393.95	14589.4
812.2477	424.0848	15237.15	14431.7
812.3914	426.2627	14993.45	14190.6
812.5351	428.4399	14672.55	13867.9
812.6788	430.6166	14278.65	13467.35
812.8226	432.7928	13863.05	13054.05
812.9663	434.9683	13523.5	12715.55
813.1101	437.1432	13267.1	12455.4
813.2539	439.3176	13082.5	12272.7
813.3977	441.4914	12928.4	12115.4
813.5415	443.6645	12903.35	12090.15
813.6853	445.8371	12806.1	11995.55
813.8291	448.0091	12746.95	11936.4
813.973	450.1806	12678.4	11864.85
814.1168	452.3514	12603.8	11786.4
814.2607	454.5216	12577.6	11751.05
814.4046	456.6913	12537.8	11722.85
814.5485	458.8603	12524.25	11707.05
814.6924	461.0288	12554.1	11738.85
814.8363	463.1967	12578.3	11765.5
814.9802	465.3639	12752.75	11935.15
815.1241	467.5306	12884.65	12067.7
815.2681	469.6967	13058.7	12242.6
815.412	471.8622	13250.1	12433
815.556	474.0271	13436.9	12617.85
815.7	476.1914	13523.65	12703.95
815.844	478.3551	13445.25	12625.3
815.988	480.5182	13414.45	12596.65
816.132	482.6807	13364.4	12543.1
816.276	484.8426	13398.55	12579.25
816.4201	487.0039	13636.85	12816.95
816.5641	489.1647	14052.45	13227.3
816.7082	491.3248	14521.65	13698.7
816.8522	493.4843	14747.75	13926.05
816.9963	495.6432	14768.9	13947.25
817.1404	497.8015	14736.55	13911.15
817.2845	499.9592	14750.15	13927.6
817.4286	502.1163	14724.5	13902.05
817.5727	504.2728	14527.1	13699.85
817.7168	506.4287	14187.8	13362.4
817.861	508.5839	13742.35	12915.05
818.0051	510.7386	13315.85	12491.2
818.1493	512.8927	13073.95	12244.8
818.2935	515.0461	12867.4	12039.1
818.4377	517.199	12708.3	11885.5
818.5818	519.3512	12609.45	11781.05
818.726	521.5029	12633.95	11799.35
818.8703	523.6539	12580.6	11751.5
819.0145	525.8043	12610.25	11779.7
819.1587	527.9541	12638.9	11810
819.303	530.1033	12670.9	11841.3
819.4472	532.2519	12743.3	11909.45
819.5915	534.3999	12933.15	12100.1
819.7357	536.5472	13264.2	12430.95
819.88	538.694	13789.95	12957.3
820.0243	540.8401	14538	13703.55
820.1686	542.9856	15149.8	14315.35
820.3129	545.1305	15383.55	14547.2
820.4572	547.2748	15188.6	14354.6
820.6016	549.4185	14750.3	13912.35
820.7459	551.5615	14319.5	13484.75
820.8902	553.704	14080.45	13246.1
821.0346	555.8458	13901.05	13066.75
821.1789	557.987	13845.2	13009.6
821.3233	560.1276	13690.45	12853.15
821.4677	562.2675	13582.7	12749.9
821.6121	564.4069	13414.3	12577.65
821.7565	566.5456	13288.8	12453.65
821.9009	568.6837	13103.15	12268
822.0453	570.8212	12846.65	12011
822.1897	572.958	12599.25	11761.65
822.3342	575.0942	12438.8	11606
822.4786	577.2299	12326.55	11489.4
822.6231	579.3648	12322.55	11487.7
822.7675	581.4992	12407.8	11570.15
822.912	583.6329	12705.65	11868.05
823.0565	585.766	12942.3	12106.3
823.201	587.8985	13121.15	12281.85
823.3454	590.0304	13124	12264.4
823.4899	592.1616	13029.2	12187.2
823.6345	594.2922	12942.05	12101.95
823.779	596.4222	12775.1	11933.55
823.9235	598.5515	12564.9	11724.2
824.068	600.6802	12389.9	11548.05
824.2126	602.8083	12188.8	11346.1
824.3571	604.9358	12096.65	11254
824.5017	607.0626	11983.1	11141.2
824.6462	609.1888	11842.1	10999.2
824.7908	611.3144	11749.85	10905.1
824.9354	613.4393	11540.2	10697.85
825.08	615.5636	11403.75	10559.6
825.2246	617.6873	11239.25	10397.2
825.3692	619.8103	11170.15	10325.2
825.5138	621.9327	11114.35	10265.55
825.6584	624.0544	11090.7	10250.65
825.803	626.1756	11086.05	10242.45
825.9477	628.2961	11057	10211.6
826.0923	630.4159	10980.1	10134
826.237	632.5351	10955.85	10109.75
826.3816	634.6537	10885.8	10041.65
826.5263	636.7716	10816.35	9971
826.6709	638.8889	10811	9962.25
826.8156	641.0056	10792.1	9944.6
826.9603	643.1216	10802.9	9955.8
827.105	645.237	10825.2	9976.15
827.2497	647.3518	10823	9971.85
827.3944	649.4659	10842.6	9993.55
827.5391	651.5793	10845.5	9995.7
827.6838	653.6922	10830.3	9981.9
827.8285	655.8043	10806.9	9958.25
827.9733	657.9159	10763.3	9914
828.118	660.0268	10641.15	9788.25
828.2627	662.137	10620.5	9767.75
828.4075	664.2466	10543.4	9692.45
828.5522	666.3556	10491.95	9641.2
828.697	668.4639	10481.45	9627.85
828.8418	670.5716	10529.15	9677.15
828.9865	672.6786	10625.8	9773.35
829.1313	674.785	10686.45	9833.6
829.2761	676.8907	10806.2	9952.45
829.4209	678.9958	10839.95	9987.95
829.5657	681.1002	10836.05	9981.5
829.7105	683.204	10798.5	9941.7
829.8553	685.3072	10725.55	9872.55
830.0001	687.4097	10636.15	9782.4
830.1449	689.5115	10584.25	9727.85
830.2898	691.6127	10448.5	9593.7
830.4346	693.7132	10392.65	9535.45
830.5794	695.8131	10318.2	9439.55
830.7243	697.9123	10280.8	9423.5
830.8691	700.0109	10192.35	9337.45
831.014	702.1089	10171.2	9315.05
831.1588	704.2061	10125.2	9267.5
831.3037	706.3028	10156.65	9296.45
831.4486	708.3987	10200.9	9345.45
831.5935	710.4941	10318.65	9461.7
831.7383	712.5887	10508.2	9652.2
831.8832	714.6827	10843.8	9981.7
832.0281	716.7761	11218.65	10359.2
832.173	718.8688	11666.6	10807.4
832.3179	720.9608	11898.75	11035.5
832.4628	723.0522	11890.8	11028.2
832.6077	725.1429	11629.15	10771.45
832.7527	727.233	11243.65	10385.7
832.8976	729.3224	10844.3	9984.45
833.0425	731.4112	10482.05	9620.6
833.1874	733.4993	10226.15	9361.6
833.3324	735.5867	10073.45	9214.1
833.4773	737.6735	9968.7	9105.7
833.6222	739.7596	9909.2	9049.95
833.7672	741.845	9892.75	9031.7
833.9122	743.9298	9854.9	8993.2
834.0571	746.014	9858.75	8998.4
834.2021	748.0974	9872.5	9012.6
834.347	750.1802	9850.55	8989.5
834.492	752.2624	9862.15	8999.25
834.637	754.3439	9880.95	9017.3
834.782	756.4247	9931.65	9061.4
834.9269	758.5048	10027.2	9166.8
835.0719	760.5843	10170.5	9305.5
835.2169	762.6631	10437.45	9576.75
835.3619	764.7413	10876.85	10013.35
835.5069	766.8188	11439	10575.35
835.6519	768.8956	11947.4	11083.1
835.7969	770.9718	12270.45	11407.55
835.9419	773.0473	12183	11321.15
836.0869	775.1221	11868.15	11006.7
836.232	777.1962	11458.85	10592.85
836.377	779.2697	11244.05	10378.85
836.522	781.3426	11300.7	10420.5
836.667	783.4147	11591.75	10727
836.8121	785.4862	11941	11079.75
836.9571	787.557	11953.9	11091.15
837.1021	789.6271	11611.35	10745.95
837.2472	791.6966	11053	10187.65
837.3922	793.7654	10468.2	9601.05
837.5373	795.8335	10151.95	9289.35
837.6823	797.901	9946.35	9084.5
837.8274	799.9678	9859.4	8993.45
837.9724	802.0339	9860.35	8995.75
838.1175	804.0993	9911.5	9039.7
838.2626	806.1641	9907.55	9043.95
838.4076	808.2282	9875.4	9010.8
838.5527	810.2916	9749.25	8879.95
838.6978	812.3544	9615.6	8750.65
838.8428	814.4164	9502.35	8638.2
838.9879	816.4778	9504.75	8638.4
839.133	818.5385	9455.95	8593.05
839.2781	820.5986	9476	8610.5
839.4232	822.658	9503.35	8636.5
839.5682	824.7166	9559.6	8695.2
839.7133	826.7747	9669.6	8804.15
839.8584	828.832	9788.5	8921.5
840.0035	830.8886	9887.85	9021.6
840.1486	832.9446	10031.1	9163.05
840.2937	834.9999	10123.6	9257.9
840.4388	837.0545	10211.8	9340.3
840.5839	839.1085	10288.1	9419.8
840.729	841.1618	10325	9454.65
840.8741	843.2143	10317.2	9449.1
841.0192	845.2662	10237.65	9371
841.1643	847.3175	10191.25	9326.45
841.3095	849.368	10062.8	9197.4
841.4546	851.4179	9936.35	9069.2
841.5997	853.467	9768.3	8901.35
841.7448	855.5155	9638.45	8768.1
841.8899	857.5633	9502.55	8632.6
842.0351	859.6105	9385.15	8515.75
842.1802	861.6569	9299.1	8432.65
842.3253	863.7027	9237.5	8368.8
842.4704	865.7478	9199.15	8331.05
842.6156	867.7922	9194.1	8326.15
842.7607	869.8359	9253.65	8385.05
842.9058	871.8789	9385.65	8516.9
843.0509	873.9212	9598.8	8696.9
843.1961	875.9629	9745.4	8875.5
843.3412	878.0039	9949.05	9077.5
843.4863	880.0441	10060.45	9189.75
843.6315	882.0837	10022.3	9150.35
843.7766	884.1226	9890.35	9019.55
843.9218	886.1609	9715.55	8845.45
844.0669	888.1984	9577.5	8709.8
844.212	890.2352	9495.15	8627.2
844.3572	892.2714	9408.35	8535.3
844.5023	894.3069	9362.9	8491.7
844.6475	896.3416	9297.5	8426.15
844.7926	898.3757	9268.8	8397.7
844.9377	900.4091	9272	8402.7
845.0829	902.4418	9283.75	8408.3
845.228	904.4739	9295.1	8422.8
845.3732	906.5052	9272.3	8400.65
845.5183	908.5358	9134.25	8263.35
845.6635	910.5658	8988.55	8115.65
845.8086	912.595	8801.95	7931.4
845.9538	914.6236	8685.3	7813.85
846.0989	916.6515	8632.55	7760.8
846.2441	918.6786	8634.85	7762.7
846.3892	920.7051	8688.15	7813.45
846.5344	922.7309	8807.55	7935.05
846.6795	924.756	8897.9	8026.55
846.8246	926.7804	8973.25	8101.25
846.9698	928.8041	8955.8	8082.45
847.1149	930.8272	8982.15	8109.1
847.2601	932.8495	8920.1	8045.3
847.4052	934.8711	8835.9	7962.55
847.5504	936.892	8632.9	7759.75
847.6955	938.9123	8475.9	7601.1
847.8407	940.9318	8304.35	7431.45
847.9858	942.9506	8163.95	7290
848.131	944.9688	8080.9	7206.8
848.2761	946.9862	8022.6	7149.85
848.4213	949.003	7981.7	7106.35
848.5664	951.019	7981.85	7107.9
848.7115	953.0344	7997.2	7123.7
848.8567	955.0491	8034.75	7160.25
849.0018	957.063	8112.95	7238.4
849.147	959.0763	8206.6	7333.65
849.2921	961.0888	8266.5	7392.4
849.4373	963.1007	8358.65	7485.55
849.5824	965.1119	8387.95	7512.3
849.7275	967.1223	8416.4	7539.75
849.8727	969.1321	8437.15	7561.9
850.0178	971.1412	8476.95	7600.8
850.1629	973.1495	8505.7	7631.05
850.3081	975.1572	8558.65	7652.3
850.4532	977.1641	8576.4	7702.2
850.5983	979.1704	8551.2	7676.75
850.7435	981.1759	8551.7	7674.4
850.8886	983.1808	8601.6	7725.9
851.0337	985.1849	8724.65	7839.9
851.1788	987.1884	8896.7	8019.6
851.324	989.1911	9112.35	8236.95
851.4691	991.1932	9250.2	8371.55
851.6142	993.1945	9340.55	8466.1
851.7593	995.1951	9302	8425.15
851.9045	997.1951	9249.1	8368.55
852.0496	999.1943	9164.15	8289.05
852.1947	1001.1928	9107.55	8233.95
852.3398	1003.1906	9100.55	8226.15
852.4849	1005.1877	9137.4	8258.65
852.63	1007.1841	9067.5	8192
852.7751	1009.1798	8983.65	8107.1
852.9202	1011.1748	8777.05	7902.95
853.0653	1013.1691	8570.3	7693.85
853.2104	1015.1627	8350.75	7476.85
853.3555	1017.1556	8153.95	7279.55
853.5006	1019.1477	8041.1	7164.7
853.6457	1021.1392	7973.55	7098
853.7908	1023.1299	7979.05	7104.05
853.9359	1025.12	7988.2	7109.95
854.081	1027.1093	8049.1	7173.15
854.2261	1029.0979	8112.8	7237.4
854.3712	1031.0859	8171.65	7296.3
854.5163	1033.0731	8190.45	7314.55
854.6613	1035.0596	8117.05	7243.45
854.8064	1037.0454	7959.8	7083.7
854.9515	1039.0304	7830.3	6951
855.0965	1041.0148	7738.85	6865
855.2416	1042.9985	7637.25	6760.35
855.3867	1044.9814	7577.85	6701.55
855.5317	1046.9636	7526.15	6649.95
855.6768	1048.9452	7503.35	6629.55
855.8219	1050.926	7530.9	6656.05
855.9669	1052.9061	7493.85	6618.5
856.112	1054.8855	7464	6587.95
856.257	1056.8642	7515.9	6640.1
856.4021	1058.8421	7553.3	6673.5
856.5471	1060.8194	7564.8	6688.2
856.6921	1062.7959	7580.6	6705.3
856.8372	1064.7717	7588.8	6712.15
856.9822	1066.7469	7607.6	6730.4
857.1272	1068.7213	7585.1	6706.15
857.2723	1070.695	7547.2	6670.55
857.4173	1072.6679	7487.8	6610.25
857.5623	1074.6402	7412.7	6538.3
857.7073	1076.6117	7377.65	6496.65
857.8523	1078.5826	7395.4	6518.55
857.9973	1080.5527	7468.95	6588.05
858.1423	1082.5221	7646.5	6768.3
858.2873	1084.4908	7845.35	6968
858.4323	1086.4587	8107.8	7228.9
858.5773	1088.426	8271.05	7395.55
858.7223	1090.3925	8308.9	7425
858.8673	1092.3584	8205.65	7329.95
859.0123	1094.3235	8053.25	7180.15
859.1573	1096.2879	7920.4	7042.9
859.3022	1098.2515	7882.75	7006.6
859.4472	1100.2145	7895.05	7018.55
859.5922	1102.1767	7945.45	7065
859.7371	1104.1382	8083.75	7205.7
859.8821	1106.099	8276.55	7394.6
860.027	1108.0591	8505.4	7629.2
860.172	1110.0185	8636.15	7757.05
860.3169	1111.9771	8650.75	7773.25
860.4619	1113.9351	8434.85	7555.25
860.6068	1115.8923	8100.8	7221.7
860.7517	1117.8488	7740.15	6859.75
860.8967	1119.8045	7438.5	6561.45
861.0416	1121.7596	7269.3	6391.35
861.1865	1123.7139	7194	6316.55
861.3314	1125.6675	7197.4	6320.05
861.4763	1127.6204	7232.35	6356.3
861.6212	1129.5726	7281.85	6401
861.7661	1131.524	7316.5	6436
861.911	1133.4748	7362.6	6483.3
862.0559	1135.4248	7410.8	6529.3
862.2008	1137.3741	7437.8	6559.7
862.3457	1139.3226	7425.4	6546.8
862.4905	1141.2705	7394.65	6517.05
862.6354	1143.2176	7333.45	6449.5
862.7803	1145.164	7328.15	6448.95
862.9251	1147.1097	7364.65	6486.1
863.07	1149.0546	7356.65	6477.75
863.2148	1150.9989	7252.25	6373.8
863.3597	1152.9424	7074.6	6195.6
863.5045	1154.8852	6887.25	6007.8
863.6493	1156.8272	6751.85	5871
863.7942	1158.7686	6643.2	5759.25
863.939	1160.7092	6584.9	5705.95
864.0838	1162.6491	6578.1	5698
864.2286	1164.5883	6629.55	5750.4
864.3734	1166.5267	6742.3	5863.05
864.5182	1168.4644	6878.15	5998.5
864.663	1170.4014	7066.85	6185.5
864.8078	1172.3377	7282.1	6402.9
864.9526	1174.2732	7483.5	6606.6
865.0974	1176.2081	7703.9	6823.15
865.2421	1178.1421	7868.3	6984.35
865.3869	1180.0755	8000.1	7120.5
865.5317	1182.0082	8014.1	7134.55
865.6764	1183.9401	7948.35	7067.35
865.8212	1185.8713	7740.5	6860.9
865.9659	1187.8017	7499.65	6621.6
866.1106	1189.7315	7231.2	6352.2
866.2554	1191.6605	6971.45	6063.25
866.4001	1193.5888	6770.05	5889.85
866.5448	1195.5163	6614.3	5736.85
866.6895	1197.4432	6519.9	5639.65
866.8342	1199.3693	6444.65	5566.3
866.9789	1201.2947	6400.4	5517.75
867.1236	1203.2193	6395.9	5515.35
867.2683	1205.1432	6420.4	5541
867.413	1207.0664	6455.3	5576.7
867.5576	1208.9889	6558.2	5676.25
867.7023	1210.9106	6630.1	5748.95
867.847	1212.8316	6729.25	5849.55
867.9916	1214.7519	6812.35	5923.4
868.1363	1216.6715	6865.25	5985.85
868.2809	1218.5903	6828.05	5948.65
868.4255	1220.5084	6801.05	5921.25
868.5701	1222.4257	6751.05	5871.35
868.7148	1224.3424	6685.25	5808.25
868.8594	1226.2583	6730	5845.05
869.004	1228.1735	6826.15	5945.75
869.1486	1230.0879	6950.1	6068.4
869.2932	1232.0016	7130.7	6251.8
869.4377	1233.9146	7167.45	6287.35
869.5823	1235.8269	7084.5	6206.8
869.7269	1237.7384	6938.7	6059.35
869.8715	1239.6492	6770.1	5889.6
870.016	1241.5592	6657.15	5777
870.1606	1243.4686	6535.15	5655.35
870.3051	1245.3772	6471.65	5590.6
870.4496	1247.285	6408.65	5529.15
870.5941	1249.1922	6368.75	5487.5
870.7387	1251.0986	6351.35	5472.45
870.8832	1253.0042	6377.6	5495.25
871.0277	1254.9092	6454.6	5574.8
871.1722	1256.8134	6549.7	5671.45
871.3167	1258.7169	6680.15	5799
871.4611	1260.6196	6858.65	5979.25
871.6056	1262.5216	7032.95	6152.3
871.7501	1264.4229	7165.65	6284.75
871.8945	1266.3234	7259.55	6380.15
872.039	1268.2232	7310.5	6428.95
872.1834	1270.1223	7297.75	6417.25
872.3278	1272.0207	7298.65	6419.6
872.4723	1273.9183	7235.3	6348.35
872.6167	1275.8151	7195.55	6314.5
872.7611	1277.7113	7050.9	6169.85
872.9055	1279.6067	6898.75	6019.7
873.0499	1281.5014	6748.65	5867
873.1943	1283.3953	6600.5	5717.05
873.3386	1285.2885	6495.75	5616.05
873.483	1287.181	6411.5	5530.65
873.6274	1289.0727	6423.7	5544.1
873.7717	1290.9637	6466.25	5586.15
873.9161	1292.854	6578.95	5697.15
874.0604	1294.7435	6716.85	5836.25
874.2047	1296.6323	6939.1	6058.25
874.349	1298.5204	7214.95	6331.95
874.4933	1300.4077	7470.8	6590.7
874.6376	1302.2943	7663	6783.3
874.7819	1304.1802	7785.75	6907.3
874.9262	1306.0653	7723.25	6840.7
875.0705	1307.9497	7613.85	6732.75
875.2147	1309.8333	7529.75	6648.75
875.359	1311.7162	7540.4	6656.75
875.5032	1313.5984	7617.6	6730.45
875.6475	1315.4798	7774	6877.35
875.7917	1317.3605	7953.3	7058.2
875.9359	1319.2405	8118.6	7236.45
876.0801	1321.1197	8162.55	7280.1
876.2243	1322.9982	8146	7261.15
876.3685	1324.876	8153.35	7272.65
876.5127	1326.753	8124.9	7243.3
876.6569	1328.6293	8146.05	7263.55
876.801	1330.5048	8169.75	7287.2
876.9452	1332.3796	8134.8	7255.2
877.0893	1334.2537	8106.15	7198.2
877.2335	1336.127	8049.4	7167.35
877.3776	1337.9996	8007.8	7126.4
877.5217	1339.8714	7949.35	7067.65
877.6658	1341.7426	7914.4	6991.35
877.8099	1343.6129	7848.6	6968.05
877.954	1345.4826	7756.7	6875.75
878.0981	1347.3515	7706.9	6821.45
878.2422	1349.2196	7649.7	6766.35
878.3862	1351.087	7626.95	6743.75
878.5303	1352.9537	7670.65	6787.9
878.6743	1354.8197	7804.05	6924.25
878.8184	1356.6849	7965.45	7081.6
878.9624	1358.5493	8027.75	7145.5
879.1064	1360.4131	8035.05	7155.15
879.2504	1362.276	7949.7	7070.3
879.3944	1364.1383	7807.85	6927.05
879.5384	1365.9998	7608.9	6722.4
879.6823	1367.8606	7323.8	6442.75
879.8263	1369.7206	7064.4	6181.95
879.9702	1371.5799	6891.6	6008.4
880.1142	1373.4384	6778.7	5896.8
880.2581	1375.2962	6659.35	5777.5
880.402	1377.1533	6431.85	5551.7
880.5459	1379.0096	6155.7	5270.85
880.6898	1380.8652	5877.4	4995.4
880.8337	1382.7201	5648.9	4768.45
880.9776	1384.5742	5453	4571.3
881.1215	1386.4275	5311.85	4429.9
881.2653	1388.2802	5201.95	4320.3
881.4092	1390.132	5093.2	4212.35
881.553	1391.9832	5042.35	4158.2
881.6968	1393.8336	4975.3	4090.4
881.8406	1395.6832	4947.75	4063.6
881.9844	1397.5322	4945.85	4064.45
882.1282	1399.3803	4917.3	4028.75
882.272	1401.2278	4883.8	4001.1
882.4158	1403.0745	4903.5	4022.6
882.5595	1404.9204	4880.85	3999.4
882.7033	1406.7656	4897.9	4015.15
882.847	1408.6101	4916.75	4033.25
882.9908	1410.4538	4927.1	4045.8
883.1345	1412.2968	4996.6	4114.8
883.2782	1414.139	5043.85	4161.6
883.4219	1415.9805	5112.55	4233
883.5656	1417.8213	5226	4335.75
883.7092	1419.6613	5372.45	4493.35
883.8529	1421.5006	5556	4672.35
883.9965	1423.3391	5837.6	4954.85
884.1402	1425.1769	6200.05	5318
884.2838	1427.0139	6709.3	5826.25
884.4274	1428.8502	7347.1	6466.1
884.571	1430.6858	7954.35	7071.85
884.7146	1432.5206	8432	7551.15
884.8582	1434.3547	8718.15	7836.85
885.0018	1436.188	8755.75	7872.65
885.1453	1438.0206	8742.75	7859.15
885.2889	1439.8524	8604.8	7722.6
885.4324	1441.6835	8541.7	7660.45
885.5759	1443.5139	8440.8	7553.65
885.7194	1445.3435	8379.55	7499.4
885.8629	1447.1724	8307.35	7424.15
886.0064	1449.0005	8223.05	7341.15
886.1499	1450.8279	8125.95	7242.65
886.2933	1452.6545	8080.3	7197.55
886.4368	1454.4804	8138.15	7256.2
886.5802	1456.3056	8116.5	7226.4
886.7237	1458.13	7989.65	7108.05
886.8671	1459.9536	7772.55	6889.45
887.0105	1461.7766	7416.55	6534.7
887.1539	1463.5987	6990	6107.25
887.2972	1465.4202	6583.75	5702.9
887.4406	1467.2409	6220.7	5337.7
887.584	1469.0608	5929.6	5048.85
887.7273	1470.88	5674	4792.15
887.8706	1472.6984	5431.4	4552.7
888.0139	1474.5161	5238	4351.8
888.1572	1476.3331	5097.6	4215.05
888.3005	1478.1493	4947.5	4063.8
888.4438	1479.9648	4845.9	3964.1
888.5871	1481.7795	4738.05	3856.15
888.7303	1483.5935	4686.05	3801.9
888.8736	1485.4067	4619.85	3737.25
889.0168	1487.2192	4560.95	3679.6
889.16	1489.031	4517.65	3635.35
889.3032	1490.842	4487	3604.25
889.4464	1492.6522	4439.75	3556.25
889.5896	1494.4618	4409.6	3527.25
889.7327	1496.2705	4398.4	3516.5
889.8759	1498.0785	4384.25	3500.95
890.019	1499.8858	4342.5	3458.1
890.1622	1501.6924	4342.05	3462.45
890.3053	1503.4981	4322.75	3439.5
890.4484	1505.3032	4304.35	3422.7
890.5914	1507.1075	4262.1	3380.4
890.7345	1508.911	4256.75	3372.3
890.8776	1510.7138	4232.35	3349.45
891.0206	1512.5159	4199.35	3317.35
891.1637	1514.3172	4157.15	3274.7
891.3067	1516.1178	4114.55	3233.3
891.4497	1517.9176	4105.7	3220.55
891.5927	1519.7166	4077.7	3196.7
891.7357	1521.515	4073.3	3183.65
891.8786	1523.3126	4048.75	3167.25
892.0216	1525.1094	4029.8	3147.15
892.1645	1526.9055	4011.2	3129.1
892.3074	1528.7008	4004.2	3121.7
892.4503	1530.4954	3973.25	3083.8
892.5932	1532.2893	3960.7	3080.6
892.7361	1534.0824	3960.15	3075.35
892.879	1535.8747	3949.25	3067.6
893.0218	1537.6663	3939.95	3057.2
893.1647	1539.4572	3937.75	3052.75
893.3075	1541.2473	3947.7	3066.3
893.4503	1543.0367	3925	3044.05
893.5931	1544.8253	3915.3	3028.8
893.7359	1546.6132	3930.8	3045.1
893.8787	1548.4003	3943.6	3052.4
894.0214	1550.1867	3956.4	3064.25
894.1642	1551.9723	3955.6	3069
894.3069	1553.7572	3976.15	3094.8
894.4496	1555.5414	4011.6	3128.65
894.5923	1557.3247	4020.75	3138.2
894.735	1559.1074	4076.25	3197.4
894.8777	1560.8893	4151.5	3271
895.0204	1562.6705	4185.3	3301.95
895.163	1564.4509	4263.75	3382.35
895.3056	1566.2305	4354.75	3473.8
895.4482	1568.0094	4457.85	3576.75
895.5908	1569.7876	4536.15	3655.9
895.7334	1571.565	4605.8	3723.4
895.876	1573.3417	4664.9	3782.95
896.0186	1575.1176	4675.4	3792.7
896.1611	1576.8928	4673.25	3791.5
896.3036	1578.6672	4596.7	3713.85
896.4461	1580.4409	4455.2	3575.4
896.5886	1582.2138	4350.85	3467.25
896.7311	1583.986	4240.35	3355.8
896.8736	1585.7575	4138.95	3259.3
897.0161	1587.5282	4057.3	3176.55
897.1585	1589.2981	3995.1	3112.55
897.3009	1591.0673	3951.55	3070.1
897.4433	1592.8358	3925.75	3044.75
897.5857	1594.6035	3912.05	3025.8
897.7281	1596.3704	3898.85	3017.9
897.8705	1598.1366	3912.9	3032.25
898.0128	1599.9021	3927.6	3047.4
898.1551	1601.6668	3966.05	3081.8
898.2975	1603.4308	4009.9	3125.6
898.4398	1605.194	4090.15	3205.3
898.5821	1606.9564	4162.65	3280.9
898.7243	1608.7182	4264.65	3378.45
898.8666	1610.4791	4389.45	3508.4
899.0088	1612.2394	4553.3	3671.3
899.1511	1613.9988	4727.8	3846.75
899.2933	1615.7576	4946.65	4066.25
899.4355	1617.5156	5202.35	4313.35
899.5776	1619.2728	5437.6	4557.75
899.7198	1621.0293	5621	4739.8
899.862	1622.785	5713.1	4828.7
900.0041	1624.54	5683.15	4799.35
900.1462	1626.2942	5560.2	4677.05
900.2883	1628.0477	5341.6	4459.9
900.4304	1629.8005	5096	4209.85
900.5725	1631.5525	4862.6	3982.05
900.7145	1633.3037	4637.15	3755.45
900.8566	1635.0542	4460.55	3579.4
900.9986	1636.804	4323.75	3442.4
901.1406	1638.553	4308.1	3348.1
901.2826	1640.3013	4180.7	3298.1
901.4245	1642.0488	4142.8	3260.15
901.5665	1643.7955	4129.75	3247.75
901.7085	1645.5416	4141.95	3259.4
901.8504	1647.2868	4187.3	3307.7
901.9923	1649.0313	4258.5	3379.1
902.1342	1650.7751	4398.55	3513.3
902.2761	1652.5181	4589.45	3706.45
902.4179	1654.2604	4824.7	3943.4
902.5598	1656.0019	5168.05	4287.85
902.7016	1657.7427	5505.65	4622.75
902.8434	1659.4828	5877.55	4995.05
902.9852	1661.222	6129.65	5247.1
903.127	1662.9606	6203.45	5322.4
903.2687	1664.6984	6042.5	5160.5
903.4105	1666.4354	5734.2	4853.45
903.5522	1668.1717	5310	4429.15
903.6939	1669.9072	4850.05	3972.05
903.8356	1671.642	4457.65	3572.8
903.9773	1673.3761	4169.45	3288.95
904.119	1675.1094	3931	3050.15
904.2606	1676.8419	3768.25	2887.4
904.4022	1678.5737	3634.8	2754.35
904.5439	1680.3048	3536	2653.8
904.6855	1682.0351	3451.5	2568.65
904.827	1683.7646	3410	2527.15
904.9686	1685.4934	3352.8	2472.25
905.1101	1687.2215	3327.85	2445.05
905.2517	1688.9488	3287.2	2406.55
905.3932	1690.6754	3263.75	2385
905.5347	1692.4012	3229	2348.05
905.6761	1694.1263	3214.8	2335.5
905.8176	1695.8506	3203.95	2323.4
905.9591	1697.5742	3188.3	2307.45
906.1005	1699.297	3161.45	2280.95
906.2419	1701.0191	3145.05	2264.65
906.3833	1702.7404	3134.8	2257.05
906.5246	1704.461	3117.1	2234.75
906.666	1706.1808	3086.7	2205.5
906.8073	1707.8999	3078.75	2195.15
906.9487	1709.6182	3063.4	2183.2
907.09	1711.3358	3072.35	2191
907.2313	1713.0527	3032.75	2153.5
907.3725	1714.7688	3031.3	2144.2
907.5138	1716.4841	3020.85	2138.75
907.655	1718.1987	3013.75	2127.6
907.7962	1719.9126	2985.15	2106.35
907.9374	1721.6257	2981.55	2099.05
908.0786	1723.338	2974.35	2092.3
908.2198	1725.0496	2957.25	2074.3
908.3609	1726.7605	2962.05	2081.05
908.502	1728.4706	2944.4	2062.9
908.6431	1730.18	2933.3	2050.75
908.7842	1731.8886	2923.45	2043.4
908.9253	1733.5964	2912.85	2030.6
909.0664	1735.3036	2910.5	2027.35
909.2074	1737.0099	2894.85	2014.35
909.3484	1738.7156	2887	2007.95
909.4894	1740.4204	2873.5	1989.5
909.6304	1742.1246	2864.8	1982.05
909.7714	1743.8279	2869.85	1986.8
909.9123	1745.5306	2861.95	1981.1
910.0532	1747.2325	2853.4	1974
910.1941	1748.9336	2841.7	1962.3
910.335	1750.634	2847.15	1965.65
910.4759	1752.3336	2840	1960.4
910.6168	1754.0325	2828.7	1951.2
910.7576	1755.7307	2813.25	1930.75
910.8984	1757.4281	2830.5	1949.05
911.0392	1759.1247	2811.35	1920.35
911.18	1760.8206	2802.75	1917.45
911.3208	1762.5158	2808.95	1926.2
911.4615	1764.2102	2777.2	1898.2
911.6022	1765.9039	2774.65	1893.05
911.7429	1767.5968	2774.35	1895.1
911.8836	1769.289	2770.3	1893.4
912.0243	1770.9804	2768.95	1887.95
912.1649	1772.6711	2779.1	1897.15
912.3056	1774.361	2744.55	1863.1
912.4462	1776.0502	2750.6	1870.95
912.5868	1777.7386	2745.1	1860.1
912.7274	1779.4263	2741.9	1861.3
912.8679	1781.1132	2748.05	1867.55
913.0084	1782.7994	2733.05	1849.05
913.149	1784.4849	2712.35	1831.9
913.2895	1786.1696	2735.7	1834.65
913.4299	1787.8535	2727.15	1847.65
913.5704	1789.5367	2714.1	1832.75
913.7108	1791.2192	2708.45	1827.7
913.8513	1792.9009	2720.25	1812.5
913.9917	1794.5818	2707.55	1825.9
914.132	1796.2621	2681.55	1802.95
914.2724	1797.9415	2683	1803.6
914.4128	1799.6202	2677.95	1799.15
914.5531	1801.2982	2671.75	1791.65
914.6934	1802.9755	2670.05	1788.35
914.8337	1804.6519	2662.7	1782.2
914.9739	1806.3277	2654.2	1773
915.1142	1808.0027	2651.35	1770.45
915.2544	1809.6769	2653.3	1771.05
915.3946	1811.3504	2643	1760.95
915.5348	1813.0231	2637.85	1756.2
915.675	1814.6951	2639.85	1759.9
915.8151	1816.3664	2644.6	1760.25
915.9553	1818.0369	2640.6	1760.65
916.0954	1819.7067	2624.75	1744.45
916.2355	1821.3757	2628.7	1743.75
916.3755	1823.044	2626.9	1748
916.5156	1824.7115	2615.6	1733.85
916.6556	1826.3783	2609.05	1728.05
916.7956	1828.0443	2596.45	1717.55
916.9356	1829.7096	2606	1721.35
917.0756	1831.3741	2601.65	1717.55
917.2155	1833.0379	2594.25	1715.4
917.3555	1834.701	2588.9	1706.8
917.4954	1836.3633	2587.25	1706.65
917.6353	1838.0248	2566.8	1682.3
917.7751	1839.6856	2563.4	1684.35
917.915	1841.3457	2570.2	1690.05
918.0548	1843.005	2590	1709.6
918.1946	1844.6636	2571.55	1690.55
918.3344	1846.3214	2559.65	1678.4
918.4742	1847.9785	2562.55	1683.85
918.6139	1849.6349	2562.9	1680.2
918.7537	1851.2904	2562.3	1675.3
918.8934	1852.9453	2557.35	1678.2
919.0331	1854.5994	2550.4	1668.35
919.1727	1856.2528	2561.9	1675.15
919.3124	1857.9054	2541.1	1658.7
919.452	1859.5572	2542.55	1662.25
919.5916	1861.2083	2537.35	1656.8
919.7312	1862.8587	2531.75	1649.6
919.8708	1864.5084	2522.75	1641.05
920.0103	1866.1572	2512.15	1631.65
920.1498	1867.8054	2502.85	1625.75
920.2893	1869.4528	2511.15	1632.25
920.4288	1871.0994	2514.55	1633.65
920.5683	1872.7453	2490.3	1607.75
920.7077	1874.3905	2507.25	1609.95
920.8471	1876.0349	2487	1605
920.9865	1877.6786	2494.65	1611.85
921.1259	1879.3215	2486.1	1603.65
921.2653	1880.9637	2474.6	1590.65
921.4046	1882.6051	2478.05	1598.95
921.5439	1884.2458	2461.35	1578.95
921.6832	1885.8858	2476.15	1596.75
921.8225	1887.525	2477.75	1596.7
921.9617	1889.1634	2455.05	1576.55
922.101	1890.8011	2452.75	1571.5
922.2402	1892.4381	2441.7	1560.85
922.3794	1894.0743	2432.8	1551.75
922.5185	1895.7098	2435.1	1556.1
922.6577	1897.3446	2430.25	1548.6
922.7968	1898.9786	2428.6	1544.5
922.9359	1900.6118	2423.8	1542.7
923.075	1902.2443	2415.75	1535.05
923.214	1903.8761	2412.2	1530.65
923.3531	1905.5071	2402.5	1522.2
923.4921	1907.1374	2394.4	1513.7
923.6311	1908.7669	2397.75	1516.45
923.77	1910.3957	2399.2	1520.1
923.909	1912.0237	2385.9	1504.05
924.0479	1913.651	2379.3	1498
924.1868	1915.2776	2382.9	1504.1
924.3257	1916.9034	2375.7	1494.2
924.4646	1918.5285	2350.45	1471.45
924.6034	1920.1528	2362.35	1480.2
924.7422	1921.7764	2361.2	1478.85
924.881	1923.3992	2356.8	1478.8
925.0198	1925.0213	2345	1462.85
925.1586	1926.6427	2337.3	1460.8
925.2973	1928.2633	2433.5	1445.3
925.436	1929.8832	2349.85	1468.4
925.5747	1931.5023	2340.55	1461.55
925.7134	1933.1207	2325.3	1442.6
925.852	1934.7383	2325.75	1445.75
925.9906	1936.3552	2311	1432.35
926.1292	1937.9714	2315.85	1433.3
926.2678	1939.5868	2305.95	1422.55
926.4064	1941.2015	2306.35	1423.8
926.5449	1942.8154	2295.3	1415.5
926.6834	1944.4286	2291.55	1413
926.8219	1946.041	2306.65	1401.6
926.9604	1947.6528	2273.1	1388.05
927.0988	1949.2637	2269.2	1389.7
927.2372	1950.8739	2263.05	1379.85
927.3756	1952.4834	2263.55	1383.95
927.514	1954.0921	2254	1371.9
927.6523	1955.7001	2256.3	1371.8
927.7907	1957.3074	2255.15	1373.6
927.929	1958.9139	2237.15	1357
928.0673	1960.5197	2241.7	1359.85
928.2055	1962.1247	2231.45	1350.8
928.3438	1963.729	2227.45	1350.05
928.482	1965.3325	2242.15	1336.15
928.6202	1966.9353	2223.95	1344.6
928.7584	1968.5374	2226.3	1342.2
928.8965	1970.1387	2201.15	1320.4
929.0346	1971.7393	2205.05	1324.6
929.1727	1973.3392	2200.75	1318.9
929.3108	1974.9383	2192.8	1310.85
929.4489	1976.5366	2193.15	1312.35
929.5869	1978.1342	2192.65	1310.7
929.7249	1979.7311	2187.25	1305.7
929.8629	1981.3273	2173.15	1290.85
930.0009	1982.9227	2179.8	1299.3
930.1388	1984.5173	2161.4	1282.75
930.2767	1986.1112	2164.55	1283.85
930.4146	1987.7044	2172.85	1293.25
930.5525	1989.2968	2162.7	1282.15
930.6904	1990.8885	2162.25	1277
930.8282	1992.4795	2161.5	1280.35
930.966	1994.0697	2149.7	1265.75
931.1038	1995.6592	2146.45	1266.05
931.2415	1997.2479	2148.8	1269.5
931.3793	1998.8359	2134.9	1253.9
931.517	2000.4232	2119.3	1239.25
931.6547	2002.0097	2135.45	1256.1
931.7923	2003.5955	2120.9	1238.7
931.93	2005.1805	2122.05	1240.05
932.0676	2006.7648	2121.4	1240.2
932.2052	2008.3484	2119.2	1238.2
932.3427	2009.9312	2123.25	1238.8
932.4803	2011.5133	2100.15	1219.5
932.6178	2013.0946	2107.85	1225.65
932.7553	2014.6752	2107.5	1226
932.8928	2016.2551	2095.5	1215.2
933.0302	2017.8342	2094.3	1212.4
933.1676	2019.4126	2094.1	1216.75
933.305	2020.9902	2086.2	1204.6
933.4424	2022.5672	2083.5	1201.2
933.5798	2024.1433	2102.9	1215.65
933.7171	2025.7188	2085.4	1205.75
933.8544	2027.2935	2069.05	1185.6
933.9917	2028.8674	2078.45	1197.2
934.129	2030.4406	2073.3	1193.9
934.2662	2032.0131	2064.95	1184.8
934.4034	2033.5849	2056.75	1174.65
934.5406	2035.1559	2063.75	1182.85
934.6778	2036.7261	2057.3	1179
934.8149	2038.2957	2041.85	1160.75
934.952	2039.8645	2044.4	1165.15
935.0891	2041.4325	2047.9	1162.85
935.2262	2042.9998	2045.95	1167.55
935.3632	2044.5664	2031.2	1147.9
935.5002	2046.1323	2045.5	1162.4
935.6372	2047.6974	2037.55	1157.3
935.7742	2049.2617	2019.5	1136.15
935.9111	2050.8254	2031.3	1146.05
936.048	2052.3883	2022.8	1143.55
936.1849	2053.9504	2014.15	1133.45
936.3218	2055.5118	2023.4	1142.5
936.4586	2057.0725	2013.1	1128.15
936.5955	2058.6325	1999.4	1119
936.7323	2060.1917	2006.15	1128.15
936.869	2061.7502	2000.35	1115.4
937.0058	2063.3079	2007.45	1126.55
937.1425	2064.8649	2010.7	1125.6
937.2792	2066.4212	1996.55	1115.25
937.4159	2067.9767	1997.35	1116.85
937.5525	2069.5315	1988.05	1106.25
937.6891	2071.0856	1987.3	1104.9
937.8257	2072.6389	1982.25	1101.1
937.9623	2074.1915	1972.25	1092
938.0989	2075.7433	1961.55	1079.25
938.2354	2077.2945	1962.55	1082.75
938.3719	2078.8448	1961.75	1079.5
938.5084	2080.3945	1964.4	1085.85
938.6448	2081.9434	1957.55	1076.05
938.7812	2083.4916	1956.05	1072.5
938.9176	2085.039	1954.7	1072.7
939.054	2086.5857	1941.75	1061.35
939.1903	2088.1317	1940.9	1059.2
939.3267	2089.677	1933.3	1052.05
939.463	2091.2215	1942.5	1063.2
939.5992	2092.7652	1935.55	1052.3
939.7355	2094.3083	1933.1	1053.65
939.8717	2095.8506	1923	1044.15
940.0079	2097.3921	1928.4	1047.35
940.1441	2098.933	1921.15	1041.2
940.2802	2100.4731	1917.2	1039
940.4163	2102.0124	1931.35	1043.6
940.5524	2103.5511	1922.1	1042.85
940.6885	2105.089	1924.05	1042.1
940.8245	2106.6261	1921.1	1038.7
940.9606	2108.1626	1914.05	1032.6
941.0965	2109.6983	1941.15	1031.35
941.2325	2111.2332	1910.2	1029.15
941.3684	2112.7675	1904.15	1022.05
941.5044	2114.301	1905.55	1022.25
941.6403	2115.8337	1903.7	1025.3
941.7761	2117.3657	1891.95	1008.6
941.912	2118.897	1900.1	1018.1
942.0478	2120.4276	1902.35	1013
942.1835	2121.9575	1881.6	1002.15
942.3193	2123.4866	1897.65	1002.1
942.455	2125.0149	1887.1	1004.5
942.5907	2126.5426	1874.1	991.9
942.7264	2128.0695	1884.7	996.85
942.8621	2129.5956	1886.65	1005.6
942.9977	2131.1211	1880.5	995.3
943.1333	2132.6458	1859.3	977.1
943.2689	2134.1698	1865.4	984.4
943.4044	2135.693	1870.85	988.4
943.54	2137.2155	1872.55	990.35
943.6755	2138.7373	1864.3	980.5
943.8109	2140.2584	1859.8	979.65
943.9464	2141.7787	1861.15	973.9
944.0818	2143.2983	1848.4	966.55
944.2172	2144.8171	1851.05	970.1
944.3526	2146.3353	1856.9	972.15
944.4879	2147.8527	1840.1	960
944.6232	2149.3693	1848.9	965.85
944.7585	2150.8853	1846.5	964.45
944.8938	2152.4005	1836.9	954.55
945.029	2153.9149	1837.1	957.2
945.1642	2155.4287	1830.65	949.75
945.2994	2156.9417	1824.25	943.55
945.4346	2158.454	1827.9	943.4
945.5697	2159.9655	1822.45	941.35
945.7048	2161.4764	1824.05	942.3
945.8399	2162.9865	1823.65	940.45
945.9749	2164.4958	1813.6	930.1
946.1099	2166.0045	1818.75	934
946.2449	2167.5124	1811.55	930.95
946.3799	2169.0195	1807.2	928.3
946.5148	2170.526	1806.2	924.25
946.6498	2172.0317	1808.6	927.95
946.7846	2173.5367	1808.5	925.55
946.9195	2175.0409	1799.45	917.1
947.0543	2176.5445	1803.15	922.4
947.1891	2178.0473	1799.25	917.05
947.3239	2179.5494	1804.85	920.95
947.4587	2181.0507	1799.15	915.95
947.5934	2182.5513	1784.65	901.6
947.7281	2184.0512	1791.35	910.45
947.8628	2185.5504	1785.1	902.85
947.9974	2187.0488	1778	898.25
948.132	2188.5465	1770.95	889.7
948.2666	2190.0435	1768.6	886.4
948.4012	2191.5397	1786	905.75
948.5357	2193.0353	1769.3	888.25
948.6702	2194.5301	1770.6	889.45
948.8047	2196.0241	1763.5	880.65
948.9392	2197.5175	1761.2	880.65
949.0736	2199.0101	1763.7	878.4
949.208	2200.502	1752	874.2
949.3424	2201.9931	1753.45	872.9
949.4767	2203.4835	1741.6	859.15
949.611	2204.9733	1754.95	868.2
949.7453	2206.4622	1749.6	870.2
949.8796	2207.9505	1736.1	851.65
950.0138	2209.438	1730	847.6
950.148	2210.9248	1733.8	853.1
950.2822	2212.4109	1739.75	859.8
950.4164	2213.8962	1725.15	841.9
950.5505	2215.3809	1733.6	850.65
950.6846	2216.8648	1728.75	846.1
950.8186	2218.3479	1729.75	845
950.9527	2219.8304	1733.65	849.25
951.0867	2221.3121	1724.7	839.9
951.2207	2222.7931	1713.9	833.2
951.3546	2224.2733	1715.8	833.6
951.4886	2225.7529	1707.15	825.2
951.6225	2227.2317	1702.5	817.7
951.7563	2228.7098	1707	826.1
951.8902	2230.1872	1705.3	822.55
952.024	2231.6638	1690.8	809.45
952.1578	2233.1397	1700.6	816
952.2916	2234.6149	1697.4	815.75
952.4253	2236.0894	1693.85	812.6
952.559	2237.5632	1687.25	804.9
952.6927	2239.0362	1690.55	809.5
952.8263	2240.5085	1681.1	799.15
952.9599	2241.9801	1683.35	800.85
953.0935	2243.4509	1676.3	795.4
953.2271	2244.921	1668.6	788.9
953.3606	2246.3904	1683.6	800.1
953.4941	2247.8591	1667.35	787.25
953.6276	2249.3271	1665.15	783.85
953.7611	2250.7943	1653.2	772.15
953.8945	2252.2608	1657.55	775.2
954.0279	2253.7266	1663.5	781.4
954.1612	2255.1917	1649.55	769.55
954.2946	2256.656	1660.7	777.7
954.4279	2258.1197	1640.5	759.4
954.5612	2259.5826	1649.9	764.5
954.6944	2261.0447	1661.65	778.7
954.8276	2262.5062	1652.45	767.15
954.9608	2263.9669	1642	757
955.094	2265.4269	1641.4	762.65
955.2271	2266.8862	1641.4	759.25
955.3602	2268.3448	1631.3	747.35
955.4933	2269.8026	1637.3	755.8
955.6264	2271.2598	1629.8	748.85
955.7594	2272.7162	1634.65	754.65
955.8924	2274.1719	1633.45	751.45
956.0253	2275.6268	1628.7	747.7
956.1583	2277.0811	1632	749.75
956.2912	2278.5346	1631.75	750.3
956.4241	2279.9874	1622.5	740.1
956.5569	2281.4395	1627.8	748.2
956.6897	2282.8908	1629.2	743.1
956.8225	2284.3414	1621.85	739.75
956.9553	2285.7914	1625.45	744.7
957.088	2287.2406	1629.3	746.25
957.2207	2288.689	1612.5	730.55
957.3534	2290.1368	1608.55	726.05
957.486	2291.5838	1619.05	736.6
957.6186	2293.0302	1613.35	732.15
957.7512	2294.4758	1608.35	725.6
957.8838	2295.9206	1607.35	725.55
958.0163	2297.3648	1602.85	722.4
958.1488	2298.8082	1611.6	728.7
958.2813	2300.251	1604.4	723.45
958.4137	2301.693	1599	714.35
958.5461	2303.1343	1600.5	719.8
958.6785	2304.5748	1597.65	715.45
958.8108	2306.0147	1604	722.4
958.9432	2307.4538	1594.55	711.75
959.0754	2308.8922	1581.1	700.9
959.2077	2310.3299	1588	707.7
959.3399	2311.7669	1577.05	695.4
959.4721	2313.2031	1579.25	697.15
959.6043	2314.6387	1580.9	698.9
959.7365	2316.0735	1575.6	694.35
959.8686	2317.5076	1583.6	704.45
960.0006	2318.941	1576.15	695.4
960.1327	2320.3737	1567.9	685.75
960.2647	2321.8056	1571.55	689.75
960.3967	2323.2369	1568.8	685.35
960.5287	2324.6674	1563.85	681
960.6606	2326.0972	1565.2	680.75
960.7925	2327.5263	1561.6	681.05
960.9244	2328.9547	1562.7	683.75
961.0562	2330.3823	1557.9	674.4
961.1881	2331.8092	1557.9	675.8
961.3198	2333.2355	1543.8	663.6
961.4516	2334.661	1552.7	671.3
961.5833	2336.0858	1550.35	665.6
961.715	2337.5098	1551.4	668.95
961.8467	2338.9332	1550.6	669.75
961.9783	2340.3558	1540.25	654.6
962.1099	2341.7778	1545.5	664
962.2415	2343.199	1541.65	659.15
962.373	2344.6195	1549.3	668.3
962.5045	2346.0393	1543.35	662.5
962.636	2347.4583	1546	663.4
962.7675	2348.8767	1533	651.2
962.8989	2350.2943	1535.3	653
963.0303	2351.7113	1543.5	662.05
963.1617	2353.1275	1537.6	656.7
963.293	2354.543	1564.35	658.55
963.4243	2355.9578	1540.65	657.85
963.5556	2357.3718	1529.9	649.7
963.6868	2358.7852	1531.85	647.1
963.818	2360.1978	1527.9	646.1
963.9492	2361.6098	1523.2	643.25
964.0803	2363.021	1528.95	644.75
964.2114	2364.4315	1524.65	643.75
964.3425	2365.8413	1520.25	633.55
964.4736	2367.2504	1518.3	638.45
964.6046	2368.6587	1515.3	634.85
964.7356	2370.0664	1512.7	630.55
964.8666	2371.4733	1510.7	630.25
964.9975	2372.8795	1511.8	630.3
965.1284	2374.285	1512.45	632.35
965.2593	2375.6899	1500.5	619.9
965.3901	2377.0939	1491.8	611.1
965.5209	2378.4973	1500.75	621.35
965.6517	2379.9	1502	622.15
965.7825	2381.3019	1496.4	616.25
965.9132	2382.7032	1491.65	611.5
966.0439	2384.1037	1488.05	609.75
966.1745	2385.5035	1500.35	618.75
966.3051	2386.9027	1494.6	615.05
966.4357	2388.3011	1496.4	610.85
966.5663	2389.6987	1489.8	608.75
966.6968	2391.0957	1475.05	594.8
966.8273	2392.492	1482.75	603.4
966.9578	2393.8876	1470.85	589.65
967.0882	2395.2824	1467.45	587.35
967.2186	2396.6765	1458.65	580.3
967.349	2398.07	1468.95	589.2
967.4793	2399.4627	1465.8	584
967.6097	2400.8547	1474.95	596.25
967.7399	2402.246	1472.25	585.8
967.8702	2403.6366	1464.15	585.05
968.0004	2405.0265	1461.4	580.9
968.1306	2406.4156	1472.35	586.25
968.2607	2407.8041	1469.35	585.2
968.3909	2409.1918	1462.85	581.2
968.521	2410.5789	1460.2	581.15
968.651	2411.9652	1460.3	577.85
968.781	2413.3508	1453.55	573.35
968.911	2414.7358	1452.85	573.25
969.041	2416.12	1447.95	568.8
969.1709	2417.5035	1454.15	574.1
969.3008	2418.8863	1451.1	570.25
969.4307	2420.2684	1447.6	564.1
969.5606	2421.6497	1447.05	567.5
969.6904	2423.0304	1441.55	562.35
969.8201	2424.4104	1449.35	567.35
969.9499	2425.7896	1451.55	565.5
970.0796	2427.1682	1441.85	560.55
970.2093	2428.546	1442	562.25
970.3389	2429.9232	1443.2	561.1
970.4685	2431.2996	1441.5	561.55
970.5981	2432.6753	1435.4	554
970.7277	2434.0503	1430.85	550.8
970.8572	2435.4246	1428.65	549.85
970.9867	2436.7982	1434.95	553.5
971.1161	2438.1711	1419.05	538.95
971.2456	2439.5433	1424	543.15
971.375	2440.9148	1426.55	538.8
971.5043	2442.2856	1422.1	542.45
971.6336	2443.6557	1424.15	541.3
971.7629	2445.025	1417.25	537.8
971.8922	2446.3937	1419.9	540.55
972.0214	2447.7617	1414.7	532.15
972.1506	2449.1289	1418.35	538.55
972.2798	2450.4955	1416.5	532.9
972.4089	2451.8613	1412.6	533.1
972.538	2453.2265	1416.5	536.2
972.6671	2454.5909	1415.6	533.65
972.7961	2455.9546	1410.2	530.1
972.9251	2457.3177	1403.05	523.55
973.0541	2458.68	1404.1	522.6
973.1831	2460.0416	1407.3	528.05
973.312	2461.4025	1410.35	527.75
973.4408	2462.7627	1415.15	521.9
973.5697	2464.1222	1411.35	531.75
973.6985	2465.4811	1411.2	529.2
973.8273	2466.8392	1410.8	529.1
973.956	2468.1966	1410.1	527.2
974.0847	2469.5533	1414.1	532.15
974.2134	2470.9093	1399.7	516.6
974.3421	2472.2645	1408.55	523.15
974.4707	2473.6191	1401.4	520.5
974.5993	2474.973	1403.15	522.8
974.7278	2476.3262	1400.3	517.55
974.8563	2477.6787	1396.65	516.5
974.9848	2479.0305	1392.35	512.25
975.1132	2480.3816	1402.35	519.65
975.2417	2481.7319	1398.2	517.5
975.37	2483.0816	1387.75	504.7
975.4984	2484.4306	1388.8	505.35
975.6267	2485.7789	1388.55	509.6
975.755	2487.1264	1381.3	499.35
975.8833	2488.4733	1380.6	500.8
976.0115	2489.8195	1401.05	504
976.1397	2491.165	1387.25	502
976.2678	2492.5097	1389.95	507.05
976.3959	2493.8538	1372.65	492.15
976.524	2495.1972	1373.2	493.9
976.6521	2496.5398	1375.65	495.15
976.7801	2497.8818	1376.4	494
976.9081	2499.2231	1375.55	494.85
977.036	2500.5637	1374.35	490.4
977.164	2501.9035	1372.25	490.05
977.2918	2503.2427	1375.5	491.15
977.4197	2504.5812	1368.1	486.95
977.5475	2505.919	1372.75	489.7
977.6753	2507.256	1361.15	478.25
977.8031	2508.5924	1357.6	477.15
977.9308	2509.9281	1370.15	482.6
978.0585	2511.2631	1364.25	483.85
978.1861	2512.5974	1360.1	478.95
978.3137	2513.9309	1358.8	478.9
978.4413	2515.2638	1382.95	472.3
978.5689	2516.596	1361.2	481.4
978.6964	2517.9275	1353.5	472.65
978.8239	2519.2583	1354.7	474.45
978.9513	2520.5884	1349.95	467.95
979.0788	2521.9178	1359.6	480.2
979.2062	2523.2465	1352.85	472.95
979.3335	2524.5745	1349.15	469.75
979.4608	2525.9018	1342.55	463.15
979.5881	2527.2284	1346.1	467.95
979.7154	2528.5543	1346.3	466.5
979.8426	2529.8796	1348.75	466.9
979.9698	2531.2041	1353.45	472.7
980.0969	2532.5279	1342.4	462.6
980.224	2533.851	1346.55	467.15
980.3511	2535.1735	1339.05	459.1
980.4781	2536.4952	1342.35	461.65
980.6052	2537.8163	1346.95	467.45
980.7321	2539.1366	1340.95	462.05
980.8591	2540.4562	1339.25	458.45
980.986	2541.7752	1336.05	454.8
981.1129	2543.0935	1338.35	456.75
981.2397	2544.411	1330.7	449.3
981.3665	2545.7279	1337.6	456
981.4933	2547.0441	1333.55	452.8
981.62	2548.3596	1335.3	450.85
981.7467	2549.6744	1336.15	455.3
981.8734	2550.9885	1336.25	452.1
982.0001	2552.3019	1328.25	448.7
982.1267	2553.6146	1325.25	443.3
982.2532	2554.9266	1330	448.8
982.3798	2556.2379	1326.9	442.65
982.5063	2557.5485	1317.55	435.85
982.6327	2558.8585	1332.25	444.75
982.7592	2560.1677	1330.9	446.65
982.8856	2561.4762	1325.45	444.65
983.0119	2562.7841	1323.65	441.15
983.1383	2564.0913	1320.2	441.4
983.2646	2565.3977	1317.15	435.4
983.3908	2566.7035	1316.1	436.35
983.517	2568.0086	1324.95	441.3
983.6432	2569.313	1315.85	434.7
983.7694	2570.6167	1322.35	438.3
983.8955	2571.9197	1310.2	431.2
984.0216	2573.222	1318.3	434.25
984.1476	2574.5236	1311.95	429.35
984.2737	2575.8246	1318.55	434.85
984.3996	2577.1248	1321.2	436.65
984.5256	2578.4244	1315.05	433.65
984.6515	2579.7232	1315.7	435.35
984.7774	2581.0214	1350.2	436.8
984.9032	2582.3189	1319.95	441.55
985.029	2583.6157	1324.75	438.35
985.1548	2584.9118	1324.5	443.65
985.2806	2586.2072	1324.15	442.4
985.4063	2587.5019	1320.15	438.5
985.5319	2588.7959	1327.4	446.1
985.6576	2590.0893	1331.1	448
985.7832	2591.3819	1323.25	443.25
985.9087	2592.6739	1326.65	446.6
986.0343	2593.9652	1332.95	450.2
986.1597	2595.2557	1330.8	448.75
986.2852	2596.5456	1327.8	443.75
986.4106	2597.8348	1335.55	453.9
986.536	2599.1234	1338.15	456.75
986.6614	2600.4112	1334.1	453.45
986.7867	2601.6983	1341.1	454.5
986.912	2602.9848	1336.6	453.85
987.0372	2604.2705	1347.15	458.55
987.1624	2605.5556	1343.25	461.75
987.2876	2606.84	1333.45	452.5
987.4128	2608.1237	1332.95	448.9
987.5379	2609.4067	1333.45	452
987.6629	2610.689	1342.15	451.85
987.788	2611.9707	1333.9	447.95
987.913	2613.2516	1332.6	446.9
988.0379	2614.5319	1328.3	448.2
988.1629	2615.8115	1329.85	448
988.2878	2617.0903	1326.7	443.9
988.4126	2618.3685	1323.25	442.7
988.5375	2619.6461	1325.95	444.3
988.6622	2620.9229	1328.1	444.75
988.787	2622.199	1325.8	444.25
988.9117	2623.4745	1323.8	442.9
989.0364	2624.7493	1328.5	448.1
989.161	2626.0234	1326.1	445.35
989.2857	2627.2968	1325.8	444.9
989.4102	2628.5695	1323.8	440.75
989.5348	2629.8415	1320.3	439.6
989.6593	2631.1128	1330.8	444.85
989.7837	2632.3835	1322.7	442.3
989.9082	2633.6535	1326.05	445.15
990.0326	2634.9228	1327.45	446.5
990.1569	2636.1914	1328.7	447.45
990.2812	2637.4593	1329.35	446.45
990.4055	2638.7265	1326.75	446.1
990.5298	2639.9931	1322.75	441.7
990.654	2641.259	1325.35	442.25
990.7782	2642.5242	1321.15	437.25
990.9023	2643.7887	1316.15	435.15
991.0264	2645.0525	1319.1	437.05
991.1505	2646.3156	1326	443.45
991.2745	2647.5781	1315.25	434.65
991.3985	2648.8398	1318	435.2
991.5225	2650.1009	1323.05	433.7
991.6464	2651.3613	1316.55	436.5
991.7703	2652.6211	1308.55	429
991.8942	2653.8801	1310.2	428.95
992.018	2655.1385	1318.5	434.75
992.1418	2656.3961	1320	440.6
992.2655	2657.6531	1315.4	434.8
992.3892	2658.9094	1314.2	433.4
992.5129	2660.1651	1306.15	424.8
992.6366	2661.42	1319.8	439.6
992.7602	2662.6743	1315.9	434.55
992.8837	2663.9279	1316.6	436.4
993.0073	2665.1808	1319.75	437.35
993.1307	2666.433	1327.6	443.95
993.2542	2667.6846	1324.95	444.75
993.3776	2668.9354	1325.95	442.05
993.501	2670.1856	1331.8	450.4
993.6244	2671.4351	1323.5	443.55
993.7477	2672.6839	1331.45	447.5
993.8709	2673.9321	1328.35	449.15
993.9942	2675.1795	1343.9	461.15
994.1174	2676.4263	1340.4	457.5
994.2405	2677.6724	1339.3	459
994.3637	2678.9179	1343.25	459.5
994.4868	2680.1626	1345.65	464.9
994.6098	2681.4067	1354.6	471.85
994.7328	2682.6501	1350.75	466.85
994.8558	2683.8928	1346.65	465.9
994.9788	2685.1348	1339.7	460.8
995.1017	2686.3761	1344.4	463.6
995.2245	2687.6168	1336.95	454.55
995.3474	2688.8568	1334.35	453.4
995.4702	2690.0961	1324.5	442.05
995.5929	2691.3348	1329.55	447.2
995.7156	2692.5727	1324.5	443.5
995.8383	2693.81	1318.25	437.2
995.961	2695.0466	1323.85	441.9
996.0836	2696.2826	1325.15	443.55
996.2062	2697.5178	1325.45	439.65
996.3287	2698.7524	1323.5	441.8
996.4512	2699.9863	1326	441.4
996.5737	2701.2195	1328.35	449.65
996.6961	2702.452	1327.75	444.9
996.8185	2703.6839	1333.5	451.8
996.9408	2704.9151	1339.05	458.15
997.0631	2706.1456	1347.7	465.6
997.1854	2707.3755	1350.5	468.55
997.3077	2708.6046	1363.25	479.4
997.4299	2709.8331	1366.5	485.15
997.552	2711.0609	1374.35	491.85
997.6742	2712.2881	1384.85	503.1
997.7963	2713.5145	1399.65	515.45
997.9183	2714.7403	1398.55	516.85
998.0403	2715.9654	1411.2	527
998.1623	2717.1899	1436.5	539.95
998.2842	2718.4136	1445.15	563.05
998.4062	2719.6367	1444.2	562.25
998.528	2720.8591	1462.65	573.4
998.6498	2722.0809	1469.7	590.3
998.7716	2723.3019	1485.5	600.6
998.8934	2724.5223	1496.8	613.25
999.0151	2725.7421	1502.6	620.3
999.1368	2726.9611	1501.85	619.1
999.2584	2728.1795	1501.4	615.3
999.38	2729.3972	1487.9	607.5
999.5016	2730.6142	1498.6	604.4
999.6231	2731.8306	1464.45	583.1
999.7446	2733.0462	1458.35	573.9
999.8661	2734.2612	1444	559.05
999.9875	2735.4756	1426.85	544.5
1000.1089	2736.6892	1407.85	528.2
1000.2302	2737.9022	1392.55	512.1
1000.3515	2739.1145	1381.5	500.4
1000.4728	2740.3262	1375.05	485.9
1000.594	2741.5372	1360.5	478.25
1000.7152	2742.7475	1342.7	461.65
1000.8363	2743.9571	1344.45	461.35
1000.9575	2745.1661	1327.05	441.75
1001.0785	2746.3744	1311.85	430.6
1001.1996	2747.582	1301.75	420.1
1001.3206	2748.7889	1304.85	421.25
1001.4415	2749.9952	1296.55	415.3
1001.5625	2751.2008	1291.15	408.1
1001.6833	2752.4057	1290.1	405.85
1001.8042	2753.61	1284.15	402.55
1001.925	2754.8136	1291.1	406.45
1002.0458	2756.0165	1281.65	400.65
1002.1665	2757.2188	1278.35	398.7
1002.2872	2758.4204	1282.4	400.35
1002.4078	2759.6213	1290.4	405.2
1002.5285	2760.8215	1285.6	397.35
1002.649	2762.0211	1283.25	400.65
1002.7696	2763.22	1280.45	395.05
1002.8901	2764.4182	1280.8	399
1003.0106	2765.6158	1278.5	396.6
1003.131	2766.8127	1268.75	388.35
1003.2514	2768.009	1271.3	391.25
1003.3717	2769.2045	1267.7	386.3
1003.492	2770.3994	1265.1	381.75
1003.6123	2771.5936	1271.75	390.85
1003.7325	2772.7872	1260.3	379.1
1003.8527	2773.9801	1271.35	388.1
1003.9729	2775.1723	1279.8	380.4
1004.093	2776.3639	1263.6	383.15
1004.2131	2777.5548	1262	377.9
1004.3331	2778.745	1268.6	384.6
1004.4531	2779.9346	1264.6	385.95
1004.5731	2781.1235	1273.75	391
1004.693	2782.3117	1273.2	391.15
1004.8129	2783.4992	1276.15	394.9
1004.9328	2784.6861	1286.85	406.65
1005.0526	2785.8723	1295.25	414.75
1005.1723	2787.0579	1298	414.9
1005.2921	2788.2428	1308.35	425.15
1005.4118	2789.427	1319.75	439.75
1005.5314	2790.6106	1331.7	452
1005.651	2791.7935	1344.9	462.05
1005.7706	2792.9757	1356.05	475.45
1005.8902	2794.1573	1366.8	483.5
1006.0097	2795.3382	1381.8	502.55
1006.1291	2796.5184	1398	518.05
1006.2485	2797.698	1417.95	533.85
1006.3679	2798.8769	1436.55	554.05
1006.4873	2800.0551	1453.65	571.2
1006.6066	2801.2327	1472.1	588.65
1006.7258	2802.4096	1498	616.35
1006.8451	2803.5859	1517.85	636
1006.9642	2804.7615	1541.75	659.35
1007.0834	2805.9364	1569.15	688.2
1007.2025	2807.1106	1588.55	707.9
1007.3216	2808.2842	1623.9	742.75
1007.4406	2809.4572	1656.95	774.5
1007.5596	2810.6294	1692.8	810.55
1007.6785	2811.801	1740.6	861.6
1007.7975	2812.972	1774.5	894.4
1007.9163	2814.1423	1837.5	957.5
1008.0352	2815.3119	1882.5	1000.35
1008.154	2816.4808	1921.9	1041.35
1008.2727	2817.6491	1977.75	1096
1008.3914	2818.8167	2032.3	1153.6
1008.5101	2819.9837	2074.8	1188.45
1008.6288	2821.15	2129	1247.6
1008.7474	2822.3157	2169.95	1290.35
1008.8659	2823.4807	2219.05	1336.15
1008.9844	2824.645	2260.15	1378.35
1009.1029	2825.8086	2305.45	1425.6
1009.2214	2826.9716	2344.9	1463.8
1009.3398	2828.134	2394.6	1514.5
1009.4581	2829.2957	2418.3	1535.2
1009.5764	2830.4567	2450.3	1571.35
1009.6947	2831.617	2475.75	1594.65
1009.813	2832.7767	2480.9	1599.7
1009.9312	2833.9358	2483.9	1599.8
1010.0493	2835.0941	2489.25	1606.4
1010.1675	2836.2519	2474.85	1594.7
1010.2855	2837.4089	2458.65	1577.95
1010.4036	2838.5653	2458.2	1577.65
1010.5216	2839.7211	2459.6	1580.1
1010.6396	2840.8761	2461.3	1579.45
1010.7575	2842.0306	2496.15	1616
1010.8754	2843.1843	2510.55	1628.45
1010.9932	2844.3374	2563.05	1682.7
1011.111	2845.4899	2630	1746.35
1011.2288	2846.6417	2700.65	1819.35
1011.3465	2847.7928	2782.3	1902.15
1011.4642	2848.9433	2858	1976.7
1011.5818	2850.0931	2947.2	2065.4
1011.6995	2851.2422	3025.5	2142.6
1011.817	2852.3907	3110.2	2227.6
1011.9345	2853.5385	3178.1	2292.7
1012.052	2854.6857	3261.05	2352.75
1012.1695	2855.8323	3287.15	2407.8
1012.2869	2856.9781	3349.7	2467.95
1012.4042	2858.1233	3391.65	2510
1012.5216	2859.2679	3448.65	2567.95
1012.6389	2860.4118	3478.15	2596.45
1012.7561	2861.555	3533.4	2647.5
1012.8733	2862.6976	3578.35	2695.8
1012.9905	2863.8395	3598.85	2717.85
1013.1076	2864.9808	3639.45	2758.1
1013.2247	2866.1214	3641.5	2761
1013.3417	2867.2614	3671.05	2789.05
1013.4587	2868.4007	3680.8	2799.4
1013.5757	2869.5393	3696.4	2812.5
1013.6926	2870.6773	3703.9	2820.05
1013.8095	2871.8146	3713.3	2828.45
1013.9263	2872.9513	3730.55	2847.65
1014.0431	2874.0874	3724.2	2842.85
1014.1599	2875.2227	3726.45	2843.7
1014.2766	2876.3574	3706.95	2824.3
1014.3933	2877.4915	3690.95	2811.35
1014.51	2878.6249	3655.55	2773.75
1014.6266	2879.7577	3644.6	2762
1014.7431	2880.8898	3615.15	2723.85
1014.8596	2882.0212	3585.45	2705.3
1014.9761	2883.152	3569.65	2688.05
1015.0925	2884.2821	3569.1	2687.9
1015.2089	2885.4116	3560.85	2680.7
1015.3253	2886.5405	3557.8	2677.25
1015.4416	2887.6686	3562.3	2678.45
1015.5579	2888.7962	3585.4	2707.2
1015.6741	2889.923	3580.85	2699.15
1015.7903	2891.0493	3591.9	2713.5
1015.9065	2892.1748	3598.15	2717.85
1016.0226	2893.2997	3620.75	2738.9
1016.1387	2894.424	3626.4	2745.9
1016.2547	2895.5476	3647.25	2765.75
1016.3707	2896.6706	3683.2	2803.6
1016.4866	2897.7929	3709.4	2826.65
1016.6025	2898.9145	3732.85	2852
1016.7184	2900.0355	3755.25	2874
1016.8342	2901.1559	3777.55	2894.6
1016.95	2902.2756	3828.15	2946.25
1017.0658	2903.3946	3868.95	2987.05
1017.1815	2904.513	3900.1	3017.75
1017.2971	2905.6308	3933.15	3053.65
1017.4127	2906.7479	3949.35	3068
1017.5283	2907.8643	3982.35	3100.9
1017.6439	2908.9801	3982.4	3101.25
1017.7594	2910.0953	4001.05	3118.8
1017.8748	2911.2098	4009.45	3123.25
1017.9902	2912.3236	4019.85	3132.9
1018.1056	2913.4368	4000.65	3115.3
1018.2209	2914.5494	3979.55	3097.5
1018.3362	2915.6613	3954.35	3066.5
1018.4515	2916.7725	3930.2	3046.2
1018.5667	2917.8831	3896.9	3016.8
1018.6819	2918.9931	3870.6	2985.8
1018.797	2920.1024	3846.85	2962.85
1018.9121	2921.211	3839.7	2957.95
1019.0271	2922.319	3795.7	2913.6
1019.1421	2923.4264	3780.15	2900.1
1019.2571	2924.5331	3779.45	2898.35
1019.372	2925.6391	3760.3	2878.6
1019.4869	2926.7445	3745	2866.15
1019.6017	2927.8493	3735.9	2855.1
1019.7165	2928.9534	3749.35	2868.9
1019.8313	2930.0569	3726.15	2842.15
1019.946	2931.1597	3723.95	2840.9
1020.0606	2932.2619	3701.05	2820.85
1020.1753	2933.3634	3686	2805.5
1020.2899	2934.4643	3692.4	2802.75
1020.4044	2935.5645	3682.1	2792.7
1020.5189	2936.6641	3632.75	2748.55
1020.6334	2937.763	3584.45	2707
1020.7478	2938.8613	3545.05	2663.3
1020.8622	2939.959	3484.85	2597.85
1020.9765	2941.056	3400.95	2520.75
1021.0908	2942.1523	3318.85	2436.15
1021.2051	2943.248	3245.85	2364.9
1021.3193	2944.3431	3132.15	2253
1021.4334	2945.4375	3024.85	2142.2
1021.5476	2946.5313	2922.65	2041.9
1021.6617	2947.6244	2812.8	1929.9
1021.7757	2948.7169	2715.1	1831.4
1021.8897	2949.8087	2614.6	1733.1
1022.0037	2950.8999	2521.9	1640.45
1022.1176	2951.9904	2432.8	1553.25
1022.2315	2953.0803	2365.05	1484.4
1022.3453	2954.1696	2293.9	1412.55
1022.4591	2955.2582	2240.8	1361.6
1022.5728	2956.3462	2183.9	1304
1022.6865	2957.4335	2140.75	1259.75
1022.8002	2958.5202	2104.4	1220.7
1022.9138	2959.6062	2071.85	1191.65
1023.0274	2960.6916	2049.5	1169.15
1023.141	2961.7764	2034.05	1152.4
1023.2545	2962.8605	2009.5	1129.2
1023.3679	2963.9439	2009.7	1128.85
1023.4813	2965.0267	1992.4	1109.3
1023.5947	2966.1089	2007.4	1105.1
1023.708	2967.1905	1972.65	1093.6
1023.8213	2968.2714	1982.75	1104.05
1023.9346	2969.3516	1973.8	1093.5
1024.0478	2970.4312	1986.25	1097.35
1024.1609	2971.5102	1983.85	1102.2
1024.274	2972.5885	1982.75	1100.1
1024.3871	2973.6662	1983.8	1096.3
1024.5002	2974.7432	1974.5	1094.45
1024.6132	2975.8196	1955.55	1073.8
1024.7261	2976.8954	1963.35	1084
1024.839	2977.9705	1938.9	1056.95
1024.9519	2979.045	1933.2	1052.2
1025.0647	2980.1188	1908.2	1027.3
1025.1775	2981.192	1897.9	1019.4
1025.2902	2982.2645	1875.75	994.2
1025.4029	2983.3364	1852.25	972
1025.5156	2984.4077	1817.95	936.7
1025.6282	2985.4783	1800.4	914.5
1025.7407	2986.5483	1760.45	880.9
1025.8532	2987.6177	1725.15	844.1
1025.9657	2988.6864	1693.65	813.2
1026.0782	2989.7545	1655.85	774.05
1026.1906	2990.8219	1620.7	740.4
1026.3029	2991.8887	1588.6	703.7
1026.4152	2992.9548	1561.3	678.4
1026.5275	2994.0204	1530.8	651
1026.6397	2995.0852	1500.3	619
1026.7519	2996.1495	1473.45	590.05
1026.864	2997.2131	1446.2	564.65
1026.9761	2998.276	1425.55	544.5
1027.0882	2999.3383	1413.35	531.5
1027.2002	3000.4	1388.45	505.65
1027.3122	3001.4611	1377.7	496.4
1027.4241	3002.5215	1363.1	482.95
1027.536	3003.5812	1352.15	471.4
1027.6478	3004.6404	1335.7	454.55
1027.7596	3005.6989	1327	445.4
1027.8714	3006.7567	1319.75	439.75
1027.9831	3007.8139	1335.05	426.9
1028.0947	3008.8705	1311.85	429.15
1028.2064	3009.9264	1298.1	415.35
1028.3179	3010.9818	1291.9	410.05
1028.4295	3012.0364	1290.7	409.65
1028.541	3013.0905	1287.25	406.05
1028.6524	3014.1439	1292.45	410.8
1028.7638	3015.1966	1290.25	411.1
1028.8752	3016.2487	1283.25	401.6
1028.9865	3017.3002	1288	401.15
1029.0978	3018.3511	1292.1	411.5
1029.209	3019.4013	1284.5	405
1029.3202	3020.4509	1287.6	408
1029.4314	3021.4998	1288.15	407.05
1029.5425	3022.5481	1287.6	407.8
1029.6535	3023.5958	1292.05	408.6
1029.7645	3024.6428	1293.65	413
1029.8755	3025.6892	1293.05	412.8
1029.9864	3026.735	1299.35	417.45
1030.0973	3027.7802	1302.55	420.85
1030.2082	3028.8247	1302.4	422.1
1030.319	3029.8685	1305.9	424.95
1030.4297	3030.9118	1311.05	430.4
1030.5404	3031.9544	1312.75	431.45
1030.6511	3032.9963	1322.3	439.9
1030.7617	3034.0376	1325.65	445.8
1030.8723	3035.0783	1340.2	456
1030.9829	3036.1184	1334.95	454.1
1031.0934	3037.1578	1341.8	461.35
1031.2038	3038.1966	1340.85	458.1
1031.3142	3039.2348	1337.5	457.65
1031.4246	3040.2723	1351.05	459.8
1031.5349	3041.3092	1339.6	461.1
1031.6452	3042.3455	1335.45	455.15
1031.7554	3043.3811	1335.7	454.05
1031.8656	3044.4161	1338.1	456.75
1031.9758	3045.4505	1324.7	444.65
1032.0859	3046.4842	1325.1	443.75
1032.1959	3047.5173	1314.9	435.25
1032.3059	3048.5498	1306.1	424
1032.4159	3049.5816	1294.25	410.8
1032.5258	3050.6128	1299.6	416.45
1032.6357	3051.6434	1286.25	406.2
1032.7455	3052.6734	1287.1	405.35
1032.8553	3053.7027	1273.35	392.05
1032.9651	3054.7314	1274.05	394
1033.0748	3055.7594	1260.2	380.25
1033.1845	3056.7868	1256.25	372.95
1033.2941	3057.8136	1254.9	375.9
1033.4037	3058.8398	1250.05	369.7
1033.5132	3059.8653	1243.9	363.85
1033.6227	3060.8902	1241.95	361.05
1033.7321	3061.9145	1230	349.35
1033.8415	3062.9381	1225.65	345.6
1033.9509	3063.9612	1234.6	338.2
1034.0602	3064.9835	1215.95	334.85
1034.1694	3066.0053	1212	330.05
1034.2787	3067.0264	1202.4	322
1034.3878	3068.0469	1196.6	314.95
1034.497	3069.0668	1190.25	307.65
1034.6061	3070.086	1179.6	299.7
1034.7151	3071.1046	1171.95	291.3
1034.8241	3072.1226	1159.6	279.15
1034.9331	3073.1399	1155	274.45
1035.042	3074.1567	1141.55	257.75
1035.1508	3075.1727	1135.8	252.85
1035.2597	3076.1882	1124.1	243.8
1035.3684	3077.203	1112.1	229.35
1035.4772	3078.2173	1110.1	227.1
1035.5859	3079.2308	1102.45	219.1
1035.6945	3080.2438	1092.25	210.95
1035.8031	3081.2561	1083.4	202.7
1035.9117	3082.2678	1076.85	196.75
1036.0202	3083.2789	1070.8	190.65
1036.1286	3084.2893	1064.85	183.25
1036.2371	3085.2991	1060.3	178.6
1036.3454	3086.3083	1059.75	172
1036.4538	3087.3169	1049.45	166.25
1036.562	3088.3248	1049.9	170
1036.6703	3089.3321	1041.65	158.2
1036.7785	3090.3388	1034.45	153.6
1036.8866	3091.3449	1030.2	149.7
1036.9948	3092.3503	1030.55	146.8
1037.1028	3093.3551	1021.85	142.85
1037.2108	3094.3593	1019.85	139.8
1037.3188	3095.3629	1016.85	139.95
1037.4267	3096.3658	1020.9	137.2
1037.5346	3097.3681	1014.9	134
1037.6425	3098.3698	1014.2	130.7
1037.7503	3099.3708	1009.25	128.1
1037.858	3100.3713	1005.55	124.9
1037.9657	3101.3711	1002.6	121.4
1038.0734	3102.3702	1145.55	121.85
1038.181	3103.3688	1003.05	119.75
1038.2886	3104.3667	995.75	114.75
1038.3961	3105.364	994.75	113.75
1038.5036	3106.3607	998.75	117.35
1038.611	3107.3568	995	112.65
1038.7184	3108.3522	991.05	112.9
1038.8257	3109.347	991.2	110.8
1038.933	3110.3412	992.05	108.1
1039.0403	3111.3348	987.95	108.5
1039.1475	3112.3277	987.35	106.7
1039.2547	3113.32	986.55	106.25
1039.3618	3114.3117	989.4	107.85
1039.4689	3115.3028	984.8	103.2
1039.5759	3116.2932	988.1	106.8
1039.6829	3117.2831	988.55	104.3
1039.7898	3118.2723	983.5	103.5
1039.8967	3119.2608	982.55	102.95
1040.0035	3120.2488	983.2	100.65
1040.1103	3121.2361	976.4	95.4
1040.2171	3122.2229	978.1	96.1
1040.3238	3123.209	976.95	95.7
1040.4305	3124.1944	975.1	95.15
1040.5371	3125.1793	979.75	98.3
1040.6437	3126.1635	973.15	92.45
1040.7502	3127.1471	973.95	94.55
1040.8567	3128.1301	969	88.05
1040.9631	3129.1125	970.35	88.7
1041.0695	3130.0942	969.45	87.9
1041.1759	3131.0753	978	88.35
1041.2822	3132.0558	973.4	91.35
1041.3884	3133.0357	973.6	92.35
1041.4946	3134.015	968.45	86.9
1041.6008	3134.9936	968.95	86.3
1041.7069	3135.9716	987.1	86.65
1041.813	3136.949	963.9	83.9
1041.919	3137.9258	982.65	83.1
1042.025	3138.902	967.55	81.7
1042.1309	3139.8775	960.55	79.85
1042.2368	3140.8524	963.9	83.65
1042.3427	3141.8267	961.85	81.2
1042.4485	3142.8004	961.9	79.5
1042.5542	3143.7735	966.25	80.55
1042.6599	3144.7459	958.25	74.45
1042.7656	3145.7178	956	75.05
1042.8712	3146.689	954.45	74.35
1042.9768	3147.6596	957.2	74.3
1043.0823	3148.6295	953.25	71.75
1043.1878	3149.5989	951.9	72.1
1043.2932	3150.5676	952.4	72.7
1043.3986	3151.5357	949.85	69.95
1043.5039	3152.5032	951.65	71.2
1043.6092	3153.4701	951.1	71.6
1043.7145	3154.4364	949.65	65.55
1043.8197	3155.402	947.9	67.5
1043.9248	3156.367	948.85	67.5
1044.03	3157.3315	992.9	68.65
1044.135	3158.2952	947.85	68.3
1044.24	3159.2584	946.6	65.5
1044.345	3160.221	947.3	65
1044.4499	3161.1829	945.5	65.2
1044.5548	3162.1442	945.1	64.2
1044.6596	3163.105	942.45	61.25
1044.7644	3164.065	944.4	62.75
1044.8692	3165.0245	944.95	62.1
1044.9739	3165.9834	940.1	62.05
1045.0785	3166.9416	939.6	59.55
1045.1831	3167.8993	942.1	61.5
1045.2877	3168.8563	939.45	58.45
1045.3922	3169.8127	939.6	60.3
1045.4966	3170.7684	938.9	60.5
1045.6011	3171.7236	940.5	59.4
1045.7054	3172.6782	938.55	59.2
1045.8098	3173.6321	940.25	60.8
1045.914	3174.5854	944.25	56.3
1046.0183	3175.5381	938.5	59.65
1046.1224	3176.4902	937.25	57.1
1046.2266	3177.4417	935.45	53.4
1046.3307	3178.3926	935.35	55.5
1046.4347	3179.3428	935.3	54.55
1046.5387	3180.2924	935.25	57
1046.6427	3181.2415	933.4	52.8
1046.7466	3182.1899	936.4	54.05
1046.8504	3183.1377	935.95	55.9
1046.9542	3184.0848	936.1	53.25
1047.058	3185.0314	933.65	53.2
1047.1617	3185.9773	933.85	52.7
1047.2654	3186.9227	933.45	50.5
1047.369	3187.8674	932.5	52
1047.4726	3188.8115	939.05	54.35
1047.5761	3189.755	932.85	52.75
1047.6796	3190.6979	931.1	51.35
1047.783	3191.6402	933.65	54
1047.8864	3192.5818	933.5	53.8
1047.9898	3193.5229	953.55	51.65
1048.0931	3194.4633	931.7	52.25
1048.1963	3195.4031	929.2	49.2
1048.2995	3196.3423	929.9	50.2
1048.4027	3197.2809	932.35	52.65
1048.5058	3198.2189	932.3	52.35
1048.6089	3199.1563	949	51.8
1048.7119	3200.0931	928.3	49.85
1048.8148	3201.0292	926.4	47.15
1048.9178	3201.9648	926.6	46.25
1049.0206	3202.8997	929.3	46.45
1049.1235	3203.834	928.65	49.6
1049.2262	3204.7677	928.6	50.05
1049.329	3205.7008	929.65	46
1049.4317	3206.6333	926.75	49.3
1049.5343	3207.5652	930.65	48.5
1049.6369	3208.4964	929.1	46.35
1049.7394	3209.4271	927.5	47.85
1049.8419	3210.3571	925.2	43.35
1049.9444	3211.2865	924.6	42.9
1050.0468	3212.2154	927.25	48.25
1050.1491	3213.1436	931.15	46.85
1050.2514	3214.0712	934.6	50.6
1050.3537	3214.9982	924.7	43.35
1050.4559	3215.9246	925.7	43.2
1050.5581	3216.8503	924.5	44.05
1050.6602	3217.7755	923.7	41.95
1050.7623	3218.7001	922.75	43.7
1050.8643	3219.624	922.4	42.75
1050.9663	3220.5473	924.1	43.4
1051.0682	3221.4701	929.25	46.45
1051.1701	3222.3922	927	47.1
1051.2719	3223.3137	922.45	42.45
1051.3737	3224.2346	923.6	44.6
1051.4754	3225.1549	921.85	42.5
1051.5771	3226.0746	922.9	44.65
1051.6788	3226.9937	923.45	40.55
1051.7804	3227.9121	920.25	42.25
1051.8819	3228.83	923.25	43.35
1051.9834	3229.7473	922.6	42.55
1052.0849	3230.6639	921.8	42.7
1052.1863	3231.5799	922.4	43.95
1052.2876	3232.4954	921.35	39.3
1052.3889	3233.4102	920.55	42.45
1052.4902	3234.3244	917.95	35.65
1052.5914	3235.238	921.25	41.65
1052.6926	3236.151	944.85	39.9
1052.7937	3237.0634	923.65	46.7
1052.8948	3237.9752	917.85	36.7
1052.9958	3238.8864	917.95	39.1
1053.0968	3239.797	917.55	37.85
1053.1977	3240.7069	921.35	40.55
1053.2986	3241.6163	918.95	37.15
1053.3994	3242.5251	917.85	37.25
1053.5002	3243.4332	915.85	36.05
1053.6009	3244.3408	915.85	34.85
1053.7016	3245.2477	916.85	36.95
1053.8022	3246.154	915.75	33.6
1053.9028	3247.0598	918.8	38.8
1054.0034	3247.9649	915.8	36.8
1054.1039	3248.8694	916.85	37
1054.2043	3249.7733	913.05	34.1
1054.3047	3250.6766	914.4	34.45
1054.4051	3251.5793	917.4	37.3
1054.5054	3252.4814	916.7	37.3
1054.6056	3253.3829	913.9	33.2
1054.7058	3254.2838	911.9	32.1
1054.806	3255.1841	911.85	30
1054.9061	3256.0838	914.25	33.8
1055.0061	3256.9829	911.8	32.7
1055.1062	3257.8814	914.7	32.25
1055.2061	3258.7792	912.25	29
1055.306	3259.6765	912.3	32.45
1055.4059	3260.5731	911.8	31.4
1055.5057	3261.4692	911.95	31.45
1055.6055	3262.3647	913.2	30.6
1055.7052	3263.2595	912	30.85
1055.8049	3264.1538	908	29.95
1055.9045	3265.0474	907.95	28.05
1056.0041	3265.9404	908.4	28.65
1056.1036	3266.8329	907.65	29
1056.2031	3267.7247	915.65	27.95
1056.3025	3268.616	902.85	24.85
1056.4019	3269.5066	906.05	24.65
1056.5013	3270.3966	907.4	25.15
1056.6005	3271.286	901.25	21.55
