Software Version:	3.9.2.0
Unit SN:	10000200
Spectrometer SN:	6960
Date:	3/14/2024 1:32:23 PM
Data Line Index:	25
Spectral Points:	2048
Integration time (ms):	125
Averages:	20
Delay (ms):	30000
Sequence Number:	1
Processing:	dark subtract
Laser Power (mW):	305
Laser Current (mA):	824
Laser Diode Temp (C):	25
Laser Case Temp (C):	28.6
System Temp (C):	28.6
Spectrometer Temp (C):	26.3
CCD Temp (C):	0.004
Secondary Temp (C):	20.013
Heatsink Temp (C):	24.477
CCDPCB Temp (C):	37.808
SecondaryPCB Temp (C):	35.618

Wavelength	RamanShift	Raw Counts	Dark Subtracted
787.061	30.1047	467.05	55.15
787.2016	32.3739	472.1	59.65
787.3422	34.6426	476.45	64.2
787.4828	36.9109	481.9	69.15
787.6235	39.1787	493	76.65
787.7642	41.4461	502.2	81.75
787.9049	43.7131	511.3	88.35
788.0456	45.9796	522.05	93.2
788.1863	48.2456	529.7	98.3
788.3271	50.5112	539.35	102.85
788.4679	52.7764	548.75	111
788.6087	55.0411	562.45	121.3
788.7496	57.3054	577.05	129.25
788.8904	59.5692	586.2	137.15
789.0313	61.8326	599.75	146.3
789.1722	64.0955	613.15	153.3
789.3132	66.3579	634.9	171.8
789.4541	68.6199	654.2	187.05
789.5951	70.8815	690.2	220.25
789.7361	73.1426	779.95	307.8
789.8771	75.4032	1004.25	528.35
790.0181	77.6634	1554.15	1071.1
790.1592	79.9231	2882.25	2392.3
790.3003	82.1824	5773.45	5272.55
790.4414	84.4412	11076.4	10556.8
790.5825	86.6995	18484.55	17939.7
790.7237	88.9574	25828.9	25260.6
790.8648	91.2148	30921.9	30336.25
791.006	93.4717	33322.95	32728.75
791.1472	95.7282	33825.2	33223.75
791.2885	97.9842	33672.2	33068.7
791.4297	100.2398	32986.3	32376.8
791.571	102.4949	32254.25	31642.75
791.7123	104.7495	31365.35	30746.55
791.8536	107.0036	30447.9	29831.15
791.9949	109.2573	29621	29007.35
792.1363	111.5105	28856.15	28241.1
792.2777	113.7632	28166.8	27549.05
792.4191	116.0154	27583	26957.85
792.5605	118.2672	27253.6	26635.3
792.7019	120.5185	26835.3	26210.05
792.8434	122.7693	26577.95	25954.05
792.9849	125.0197	26317.05	25686.85
793.1264	127.2696	26020.85	25388.5
793.2679	129.519	25851.75	25216.8
793.4094	131.7679	25603.75	24966.3
793.551	134.0163	25339.05	24700
793.6926	136.2642	25037.45	24389.5
793.8342	138.5117	24729.35	24079.45
793.9758	140.7587	24346.4	23698.9
794.1175	143.0052	24033.3	23383.4
794.2591	145.2512	23687.5	23038.5
794.4008	147.4967	23351.1	22698.6
794.5425	149.7417	23157.75	22505.35
794.6842	151.9863	22979.7	22321.6
794.826	154.2304	22850	22190.3
794.9677	156.4739	22688.85	22024.65
795.1095	158.717	22588.65	21923.7
795.2513	160.9596	22398.9	21730.45
795.3931	163.2017	22140.55	21469.6
795.535	165.4433	21844.4	21171.25
795.6768	167.6844	21502.55	20826.3
795.8187	169.925	21216.6	20538.4
795.9606	172.1651	20813.35	20133.15
796.1025	174.4047	20540.25	19854.55
796.2445	176.6439	20273.75	19590.2
796.3864	178.8825	20058.7	19371.5
796.5284	181.1206	19899.15	19212.75
796.6704	183.3582	19746.25	19050.25
796.8124	185.5954	19619.3	18924.6
796.9544	187.832	19549.75	18848.15
797.0965	190.0681	19503.7	18802.35
797.2386	192.3037	19496.1	18787.55
797.3806	194.5388	19482.8	18774.4
797.5228	196.7734	19509.15	18800.8
797.6649	199.0075	19585.4	18873.35
797.807	201.2411	19713.25	18994.85
797.9492	203.4742	19805.6	19089.75
798.0914	205.7068	19929.2	19209.6
798.2336	207.9389	20074.45	19357.95
798.3758	210.1704	20191.15	19471.15
798.518	212.4015	20277.25	19554.15
798.6603	214.632	20453.15	19732.85
798.8025	216.862	20612.75	19895.45
798.9448	219.0915	20673	19963.7
799.0871	221.3205	20796.8	20087.3
799.2294	223.549	20903.7	20202.3
799.3718	225.777	21017	20318.4
799.5141	228.0044	21165.3	20457.55
799.6565	230.2314	21403.9	20700.65
799.7989	232.4578	21512.45	20810
799.9413	234.6837	21724	21012.15
800.0837	236.909	21832.1	21120.6
800.2262	239.1339	21813.35	21078.65
800.3687	241.3582	21697.05	20978.85
800.5111	243.582	21601.75	20857.2
800.6536	245.8053	21472	20732.8
800.7961	248.0281	21326.15	20591.85
800.9387	250.2503	21252.7	20513.65
801.0812	252.472	21305.1	20562.45
801.2238	254.6932	21378.05	20632.95
801.3664	256.9139	21420.5	20675.4
801.509	259.134	21601.7	20849.35
801.6516	261.3536	21763.8	21012.6
801.7942	263.5727	22049.35	21299.8
801.9369	265.7912	22215.95	21466.1
802.0795	268.0092	22497.6	21744.6
802.2222	270.2267	22629.45	21880.25
802.3649	272.4436	22731.4	21977.7
802.5076	274.6601	22705.45	21941.5
802.6504	276.8759	22588.75	21833.35
802.7931	279.0913	22522.85	21766.75
802.9359	281.3061	22353.65	21594.85
803.0787	283.5204	22350	21590.4
803.2215	285.7341	22312.1	21548.35
803.3643	287.9473	22381.4	21602.65
803.5071	290.16	22448.55	21676.4
803.6499	292.3721	22537.95	21772.75
803.7928	294.5837	22808.95	22042.3
803.9357	296.7947	23017.3	22253.7
804.0786	299.0052	23175.25	22410.65
804.2215	301.2152	23132.3	22361.65
804.3644	303.4246	22947.1	22178.45
804.5074	305.6334	22560.4	21795.45
804.6503	307.8418	22107.25	21339.2
804.7933	310.0495	21631.1	20860.2
804.9363	312.2568	21248.9	20482.65
805.0793	314.4635	20843.8	20073.1
805.2223	316.6696	20532.75	19763.65
805.3653	318.8752	20315.2	19537.6
805.5084	321.0802	20257.7	19484.85
805.6514	323.2847	20284.55	19510.05
805.7945	325.4887	20317.25	19543.7
805.9376	327.692	20272.15	19494.1
806.0807	329.8949	20212.4	19434.95
806.2238	332.0972	19997.8	19220.85
806.367	334.2989	19791.6	19013.4
806.5101	336.5001	19529.35	18748.1
806.6533	338.7007	19298.25	18519.25
806.7965	340.9008	19134.1	18350.3
806.9397	343.1003	18970.15	18187.15
807.0829	345.2992	18879.7	18094.85
807.2261	347.4976	18760.35	17975
807.3693	349.6955	18674.25	17882.3
807.5126	351.8927	18681.4	17891
807.6559	354.0895	18564.95	17762.95
807.7991	356.2856	18570.45	17776.4
807.9424	358.4812	18464.6	17672.7
808.0857	360.6763	18496.3	17701
808.2291	362.8707	18466.1	17672.65
808.3724	365.0646	18491.4	17695.45
808.5158	367.258	18489.5	17692
808.6591	369.4508	18503.45	17700.5
808.8025	371.643	18624.1	17822.65
808.9459	373.8346	18660.6	17854.3
809.0893	376.0257	18756	17947.45
809.2327	378.2162	18721.1	17917
809.3762	380.4062	18677.2	17867.6
809.5196	382.5956	18567.7	17758.2
809.6631	384.7844	18441.65	17633.25
809.8066	386.9726	18267.15	17456.65
809.9501	389.1603	18164.9	17355.75
810.0936	391.3474	18120.45	17277.45
810.2371	393.5339	18073.55	17260.4
810.3806	395.7199	17991.6	17186.45
810.5241	397.9052	18023.95	17219
810.6677	400.09	18074.2	17273.6
810.8113	402.2743	18201.05	17402.2
810.9548	404.4579	18279.6	17481.8
811.0984	406.641	18487.85	17682.5
811.2421	408.8235	18681	17879.5
811.3857	411.0054	18822.3	18018.65
811.5293	413.1868	19076.2	18269.05
811.673	415.3675	19137.45	18329.55
811.8166	417.5477	19208.55	18401.25
811.9603	419.7273	19171.05	18361
812.104	421.9064	19074.05	18254.3
812.2477	424.0848	18978.1	18164.65
812.3914	426.2627	18807.3	17991.65
812.5351	428.4399	18554.95	17737.55
812.6788	430.6166	18215.3	17391.8
812.8226	432.7928	17852.1	17029.5
812.9663	434.9683	17533.25	16707.5
813.1101	437.1432	17267.3	16443.9
813.2539	439.3176	17044.5	16221.4
813.3977	441.4914	16912.05	16087.15
813.5415	443.6645	16914.75	16084.95
813.6853	445.8371	16803.25	15977.5
813.8291	448.0091	16719.2	15893.95
813.973	450.1806	16662.15	15837.2
814.1168	452.3514	16662.2	15836.5
814.2607	454.5216	16668.3	15830.8
814.4046	456.6913	16582.3	15754.95
814.5485	458.8603	16622.55	15792.35
814.6924	461.0288	16679.4	15849.75
814.8363	463.1967	16645.5	15817.55
814.9802	465.3639	16689.55	15858.35
815.1241	467.5306	16645.9	15814.05
815.2681	469.6967	16683.9	15853.95
815.412	471.8622	16693.4	15862.4
815.556	474.0271	16770.05	15941.6
815.7	476.1914	16769.65	15936.8
815.844	478.3551	16789.7	15955.25
815.988	480.5182	16817.1	15980.8
816.132	482.6807	16892.05	16058.7
816.276	484.8426	17051.45	16220.5
816.4201	487.0039	17365.8	16530.6
816.5641	489.1647	17714.35	16879.9
816.7082	491.3248	18044.3	17208.85
816.8522	493.4843	18219.8	17386
816.9963	495.6432	18157.25	17322.95
817.1404	497.8015	17993.2	17153.95
817.2845	499.9592	17901.05	17067.6
817.4286	502.1163	17730.4	16895
817.5727	504.2728	17399.15	16561.15
817.7168	506.4287	17127.9	16291.9
817.861	508.5839	16782.75	15942.6
818.0051	510.7386	16513.5	15675.65
818.1493	512.8927	16369.4	15523.4
818.2935	515.0461	16317.35	15476.85
818.4377	517.199	16354.05	15514.25
818.5818	519.3512	16468.8	15628.75
818.726	521.5029	16695.4	15847.05
818.8703	523.6539	16913.3	16070.4
819.0145	525.8043	16990.8	16149.55
819.1587	527.9541	16934.4	16088.5
819.303	530.1033	16790.75	15950.55
819.4472	532.2519	16632.85	15791.3
819.5915	534.3999	16595.05	15747.95
819.7357	536.5472	16686.4	15842.9
819.88	538.694	16899.9	16052.7
820.0243	540.8401	17189.6	16347.85
820.1686	542.9856	17464.85	16615.65
820.3129	545.1305	17521.4	16676.5
820.4572	547.2748	17462.9	16612.05
820.6016	549.4185	17209.75	16360.5
820.7459	551.5615	17005.25	16158.1
820.8902	553.704	16942.2	16089.1
821.0346	555.8458	16972	16124.2
821.1789	557.987	17083	16234.2
821.3233	560.1276	17257.85	16408.5
821.4677	562.2675	17563.9	16718.8
821.6121	564.4069	17977.35	17131.3
821.7565	566.5456	18397.4	17551.3
821.9009	568.6837	18525.4	17675.8
822.0453	570.8212	18175.65	17328.8
822.1897	572.958	17501.25	16653.5
822.3342	575.0942	16916.65	16071.3
822.4786	577.2299	16451.9	15605.05
822.6231	579.3648	16224.95	15375.25
822.7675	581.4992	16177.1	15328.15
822.912	583.6329	16247.6	15397.3
823.0565	585.766	16428.9	15582.25
823.201	587.8985	16528.35	15679.3
823.3454	590.0304	16561.95	15687.95
823.4899	592.1616	16515.95	15667.2
823.6345	594.2922	16384.5	15532.7
823.779	596.4222	16195.35	15343.25
823.9235	598.5515	15998.6	15142.1
824.068	600.6802	15783.45	14932.2
824.2126	602.8083	15583	14729.05
824.3571	604.9358	15526.5	14672.15
824.5017	607.0626	15522.45	14669.95
824.6462	609.1888	15624.25	14770.05
824.7908	611.3144	15724.7	14869.6
824.9354	613.4393	15735.1	14880.65
825.08	615.5636	15830.4	14976.2
825.2246	617.6873	15844.1	14991.75
825.3692	619.8103	15748.45	14895.15
825.5138	621.9327	15571	14715.7
825.6584	624.0544	15375.25	14519.95
825.803	626.1756	15201.6	14345.55
825.9477	628.2961	15098.5	14242.4
826.0923	630.4159	14982.6	14124.85
826.237	632.5351	14925.05	14069.5
826.3816	634.6537	14903	14046.7
826.5263	636.7716	14831.25	13972.6
826.6709	638.8889	14874.6	14018.4
826.8156	641.0056	14884.7	14024.55
826.9603	643.1216	14862.05	14004.9
827.105	645.237	14870.2	14010.65
827.2497	647.3518	14766.85	13908.9
827.3944	649.4659	14674.5	13817.35
827.5391	651.5793	14623.65	13764.4
827.6838	653.6922	14606.25	13748.6
827.8285	655.8043	14542.85	13683.1
827.9733	657.9159	14532.45	13673.05
828.118	660.0268	14462.2	13601.85
828.2627	662.137	14457.05	13594.8
828.4075	664.2466	14445.4	13585.5
828.5522	666.3556	14418.9	13560.5
828.697	668.4639	14368.75	13504.1
828.8418	670.5716	14350.75	13491.6
828.9865	672.6786	14326.1	13463.55
829.1313	674.785	14251.1	13389.25
829.2761	676.8907	14225.3	13361.3
829.4209	678.9958	14257.95	13397.35
829.5657	681.1002	14207.95	13344.05
829.7105	683.204	14187.45	13322
829.8553	685.3072	14172.95	13310.95
830.0001	687.4097	14127.85	13264.9
830.1449	689.5115	14113	13248.25
830.2898	691.6127	14064.95	13200.4
830.4346	693.7132	14031.85	13165.8
830.5794	695.8131	14034.85	13155.55
830.7243	697.9123	14004.75	13139.3
830.8691	700.0109	14000.5	13133.8
831.014	702.1089	14005.9	13140.25
831.1588	704.2061	14050.6	13183.95
831.3037	706.3028	14117.55	13252
831.4486	708.3987	14116	13249.65
831.5935	710.4941	14148.05	13283.2
831.7383	712.5887	14196.7	13332.75
831.8832	714.6827	14319.35	13448.45
832.0281	716.7761	14473	13606.1
832.173	718.8688	14653.1	13784.35
832.3179	720.9608	14817.8	13945.55
832.4628	723.0522	14945.9	14074.75
832.6077	725.1429	14964.45	14098.1
832.7527	727.233	14937.4	14069.2
832.8976	729.3224	14945.8	14077.65
833.0425	731.4112	14825.15	13954
833.1874	733.4993	14649.8	13778.65
833.3324	735.5867	14434.5	13565.45
833.4773	737.6735	14203.5	13334.2
833.6222	739.7596	14026.35	13156.55
833.7672	741.845	13894.15	13025.1
833.9122	743.9298	13779.75	12907.1
834.0571	746.014	13705.55	12835.45
834.2021	748.0974	13696.6	12826.9
834.347	750.1802	13671.45	12799.45
834.492	752.2624	13668.75	12799
834.637	754.3439	13714.65	12845.75
834.782	756.4247	13803.05	12920.3
834.9269	758.5048	13917.65	13047.9
835.0719	760.5843	14207.85	13337
835.2169	762.6631	14578.1	13703.85
835.3619	764.7413	15108.95	14240.35
835.5069	766.8188	15783.1	14911.2
835.6519	768.8956	16345.65	15471.85
835.7969	770.9718	16770.3	15901.8
835.9419	773.0473	16701.9	15832.2
836.0869	775.1221	16444.55	15572.8
836.232	777.1962	16118.25	15245.75
836.377	779.2697	15978	15104.65
836.522	781.3426	16005.3	15125.1
836.667	783.4147	16145.15	15271.2
836.8121	785.4862	16240.55	15370.65
836.9571	787.557	16126.5	15253.35
837.1021	789.6271	15686.1	14810.2
837.2472	791.6966	15065.5	14194.4
837.3922	793.7654	14411.95	13536.1
837.5373	795.8335	13979.5	13108.05
837.6823	797.901	13662.35	12790.75
837.8274	799.9678	13464.85	12589.75
837.9724	802.0339	13335.1	12464.1
838.1175	804.0993	13309.1	12424.8
838.2626	806.1641	13233.8	12361.15
838.4076	808.2282	13179.45	12304.3
838.5527	810.2916	13075.7	12199.6
838.6978	812.3544	12996.05	12121.95
838.8428	814.4164	12918.25	12046.3
838.9879	816.4778	12936.8	12063.6
839.133	818.5385	12915.95	12042.7
839.2781	820.5986	13044	12171.05
839.4232	822.658	13271.8	12395.8
839.5682	824.7166	13541.65	12668.25
839.7133	826.7747	14011.2	13138.25
839.8584	828.832	14499.2	13625.75
840.0035	830.8886	14815.6	13939.05
840.1486	832.9446	15031.25	14156.8
840.2937	834.9999	14939.6	14064
840.4388	837.0545	14660.9	13783.5
840.5839	839.1085	14383.45	13508.85
840.729	841.1618	14067.8	13189.3
840.8741	843.2143	13836.4	12962.65
841.0192	845.2662	13600.1	12725.9
841.1643	847.3175	13466.15	12589.15
841.3095	849.368	13298.5	12422.95
841.4546	851.4179	13214.9	12338.85
841.5997	853.467	13099.9	12222.45
841.7448	855.5155	13035.3	12157.2
841.8899	857.5633	12950.4	12075.1
842.0351	859.6105	12825.1	11951.4
842.1802	861.6569	12733.25	11856.8
842.3253	863.7027	12634.15	11756.35
842.4704	865.7478	12572.4	11697.15
842.6156	867.7922	12530.5	11654.7
842.7607	869.8359	12522.8	11645.5
842.9058	871.8789	12537.3	11661.55
843.0509	873.9212	12642.4	11733.05
843.1961	875.9629	12698.05	11819.9
843.3412	878.0039	12816.1	11937.4
843.4863	880.0441	12893.45	12018.15
843.6315	882.0837	12960.6	12081.5
843.7766	884.1226	12942.3	12063.15
843.9218	886.1609	12952.75	12078.3
844.0669	888.1984	13023.7	12149.1
844.212	890.2352	13109.2	12233.8
844.3572	892.2714	13138.75	12257.2
844.5023	894.3069	13082.65	12204.95
844.6475	896.3416	12931	12050.65
844.7926	898.3757	12793.2	11914.65
844.9377	900.4091	12680	11801.8
845.0829	902.4418	12652	11769.3
845.228	904.4739	12669.7	11789.2
845.3732	906.5052	12716.35	11837
845.5183	908.5358	12663	11786
845.6635	910.5658	12528.65	11648.5
845.8086	912.595	12324.5	11446.7
845.9538	914.6236	12103.05	11227.95
846.0989	916.6515	11977.5	11100.35
846.2441	918.6786	11841.8	10961.65
846.3892	920.7051	11854.15	10974
846.5344	922.7309	11897	11018.75
846.6795	924.756	11898.85	11021.95
846.8246	926.7804	11965.6	11082.9
846.9698	928.8041	11966	11083.2
847.1149	930.8272	12013.75	11135
847.2601	932.8495	11957.9	11079.4
847.4052	934.8711	11931.2	11051.85
847.5504	936.892	11862.15	10983.85
847.6955	938.9123	11812.4	10931.65
847.8407	940.9318	11811.65	10932.2
847.9858	942.9506	11745.7	10862.45
848.131	944.9688	11686.9	10807.5
848.2761	946.9862	11582.35	10704.05
848.4213	949.003	11440.2	10560.15
848.5664	951.019	11340.9	10462
848.7115	953.0344	11296.7	10414.35
848.8567	955.0491	11278.75	10396.1
849.0018	957.063	11292	10413.2
849.147	959.0763	11389.8	10509.8
849.2921	961.0888	11400.35	10519.25
849.4373	963.1007	11467.7	10588.6
849.5824	965.1119	11468.25	10588.5
849.7275	967.1223	11450.05	10571.95
849.8727	969.1321	11475.45	10594.7
850.0178	971.1412	11427.6	10547.8
850.1629	973.1495	11398.95	10520.7
850.3081	975.1572	11441.55	10527.6
850.4532	977.1641	11403.7	10520.85
850.5983	979.1704	11413.05	10530.6
850.7435	981.1759	11351.45	10466.05
850.8886	983.1808	11346.6	10467.25
851.0337	985.1849	11385.2	10493.3
851.1788	987.1884	11430.6	10547.1
851.324	989.1911	11563.2	10677.6
851.4691	991.1932	11615.5	10731.05
851.6142	993.1945	11621.05	10741.7
851.7593	995.1951	11604.95	10721.9
851.9045	997.1951	11590.1	10702.15
852.0496	999.1943	11514.8	10634.6
852.1947	1001.1928	11500.5	10619.1
852.3398	1003.1906	11533.85	10654.25
852.4849	1005.1877	11604.55	10722.45
852.63	1007.1841	11668.2	10787.45
852.7751	1009.1798	11677.85	10797.35
852.9202	1011.1748	11602.8	10723
853.0653	1013.1691	11408.9	10525.7
853.2104	1015.1627	11215.65	10333.5
853.3555	1017.1556	10980.8	10098.3
853.5006	1019.1477	10821.2	9937.75
853.6457	1021.1392	10724.4	9844.15
853.7908	1023.1299	10659.25	9778.4
853.9359	1025.12	10657.25	9773.25
854.081	1027.1093	10732.3	9851.5
854.2261	1029.0979	10810.35	9929.05
854.3712	1031.0859	10893.2	10012.4
854.5163	1033.0731	10924.8	10041.9
854.6613	1035.0596	10868.95	9983.8
854.8064	1037.0454	10733.6	9851.7
854.9515	1039.0304	10653.35	9772.15
855.0965	1041.0148	10513.15	9630.8
855.2416	1042.9985	10395.35	9514.1
855.3867	1044.9814	10326.45	9443.9
855.5317	1046.9636	10265.75	9381.45
855.6768	1048.9452	10213.6	9330.25
855.8219	1050.926	10276.6	9397.75
855.9669	1052.9061	10281.75	9399.5
856.112	1054.8855	10313.1	9431.3
856.257	1056.8642	10330.3	9449.25
856.4021	1058.8421	10390.85	9502.4
856.5471	1060.8194	10403.95	9520
856.6921	1062.7959	10449.7	9569.35
856.8372	1064.7717	10460.65	9577.3
856.9822	1066.7469	10552.25	9670.25
857.1272	1068.7213	10603.15	9718.65
857.2723	1070.695	10658.55	9776.05
857.4173	1072.6679	10660.55	9776.8
857.5623	1074.6402	10657.25	9775.75
857.7073	1076.6117	10633.35	9744.3
857.8523	1078.5826	10549.9	9665.4
857.9973	1080.5527	10409.45	9521.75
858.1423	1082.5221	10363.85	9478.5
858.2873	1084.4908	10329.3	9447.5
858.4323	1086.4587	10364.45	9481.6
858.5773	1088.426	10437.05	9553.2
858.7223	1090.3925	10425.6	9534.3
858.8673	1092.3584	10458.45	9575.1
859.0123	1094.3235	10405.8	9523.35
859.1573	1096.2879	10454.6	9572.45
859.3022	1098.2515	10569.2	9686.35
859.4472	1100.2145	10689.8	9808.25
859.5922	1102.1767	10869.05	9984.2
859.7371	1104.1382	11097.75	10213.75
859.8821	1106.099	11315.6	10429.15
860.027	1108.0591	11547.95	10664.5
860.172	1110.0185	11711.6	10827.2
860.3169	1111.9771	11777.65	10895.3
860.4619	1113.9351	11654.4	10770.3
860.6068	1115.8923	11558.7	10677.8
860.7517	1117.8488	11368.8	10485.95
860.8967	1119.8045	11136.45	10251.5
861.0416	1121.7596	10956.8	10073.35
861.1865	1123.7139	10845.75	9962.8
861.3314	1125.6675	10807.7	9925.7
861.4763	1127.6204	10803.95	9923.15
861.6212	1129.5726	10787.05	9902.35
861.7661	1131.524	10693.85	9813.2
861.911	1133.4748	10567.5	9684.8
862.0559	1135.4248	10387.45	9503.15
862.2008	1137.3741	10256.9	9375.3
862.3457	1139.3226	10147.5	9262.6
862.4905	1141.2705	10092.95	9209.75
862.6354	1143.2176	9987.35	9097.7
862.7803	1145.164	9931.35	9045.9
862.9251	1147.1097	9857.75	8974.95
863.07	1149.0546	9797.55	8913.85
863.2148	1150.9989	9649.85	8767.55
863.3597	1152.9424	9582.1	8695.15
863.5045	1154.8852	9460.3	8578.35
863.6493	1156.8272	9407.4	8525.55
863.7942	1158.7686	9405.5	8515.05
863.939	1160.7092	9438.75	8555.4
864.0838	1162.6491	9426.2	8541.25
864.2286	1164.5883	9533.05	8649.9
864.3734	1166.5267	9615	8728.95
864.5182	1168.4644	9752.05	8869.1
864.663	1170.4014	9953.75	9065.1
864.8078	1172.3377	10211.4	9329.25
864.9526	1174.2732	10503.45	9620.35
865.0974	1176.2081	10894.15	10011.9
865.2421	1178.1421	11335.55	10447.45
865.3869	1180.0755	11860.75	10978.5
865.5317	1182.0082	12194.75	11314.5
865.6764	1183.9401	12374.4	11487.65
865.8212	1185.8713	12278.4	11396
865.9659	1187.8017	11967.9	11082.5
866.1106	1189.7315	11581.25	10699.2
866.2554	1191.6605	11178.05	10268.6
866.4001	1193.5888	10862.8	9978.5
866.5448	1195.5163	10698.35	9813.5
866.6895	1197.4432	10569.1	9686.2
866.8342	1199.3693	10523.55	9638.7
866.9789	1201.2947	10501.45	9611.8
867.1236	1203.2193	10430.95	9545.95
867.2683	1205.1432	10418.35	9536.2
867.413	1207.0664	10397.1	9512.3
867.5576	1208.9889	10369.85	9484.45
867.7023	1210.9106	10364.65	9483.05
867.847	1212.8316	10377.05	9493.25
867.9916	1214.7519	10407.6	9514.75
868.1363	1216.6715	10425.95	9543.5
868.2809	1218.5903	10507.75	9625.3
868.4255	1220.5084	10543.05	9662.1
868.5701	1222.4257	10656.15	9772.8
868.7148	1224.3424	10671.05	9786.45
868.8594	1226.2583	10773.1	9888.4
869.004	1228.1735	10921.7	10034.1
869.1486	1230.0879	11047.45	10162.95
869.2932	1232.0016	11234.85	10350.6
869.4377	1233.9146	11338.1	10453.4
869.5823	1235.8269	11361.2	10478.15
869.7269	1237.7384	11289.45	10403.1
869.8715	1239.6492	11146.35	10262.3
870.016	1241.5592	11083.35	10195.2
870.1606	1243.4686	11098.75	10215.4
870.3051	1245.3772	11231.45	10348.65
870.4496	1247.285	11399.1	10514.05
870.5941	1249.1922	11566.1	10682.05
870.7387	1251.0986	11711.65	10830.1
870.8832	1253.0042	11789.4	10905
871.0277	1254.9092	11842.55	10959.45
871.1722	1256.8134	11929	11046.9
871.3167	1258.7169	12110.5	11224.3
871.4611	1260.6196	12255.95	11371.65
871.6056	1262.5216	12479.6	11594.95
871.7501	1264.4229	12665.6	11783.3
871.8945	1266.3234	12896.2	12013.75
872.039	1268.2232	13028.25	12142.25
872.1834	1270.1223	13076.25	12191.65
872.3278	1272.0207	13092.05	12205.95
872.4723	1273.9183	13061.6	12172.3
872.6167	1275.8151	13000.7	12116.55
872.7611	1277.7113	12971.7	12085.7
872.9055	1279.6067	13008.5	12124.85
873.0499	1281.5014	13176.55	12288.7
873.1943	1283.3953	13515.6	12628
873.3386	1285.2885	13948.05	13064.8
873.483	1287.181	14412.1	13527.9
873.6274	1289.0727	14891.35	14008.3
873.7717	1290.9637	15200.2	14313.95
873.9161	1292.854	15402.2	14517.45
874.0604	1294.7435	15440.85	14555.85
874.2047	1296.6323	15347.4	14462.95
874.349	1298.5204	15232	14344.3
874.4933	1300.4077	15064.3	14178.45
874.6376	1302.2943	14859.65	13973.65
874.7819	1304.1802	14583.5	13702.5
874.9262	1306.0653	14193.35	13306.55
875.0705	1307.9497	13728.85	12844.15
875.2147	1309.8333	13315.1	12429.1
875.359	1311.7162	13020.5	12135.95
875.5032	1313.5984	12855.7	11966.7
875.6475	1315.4798	12736.4	11840.45
875.7917	1317.3605	12644.35	11741.7
875.9359	1319.2405	12553.15	11668.1
876.0801	1321.1197	12335.25	11448.05
876.2243	1322.9982	12060.6	11171.1
876.3685	1324.876	11816.4	10931.45
876.5127	1326.753	11531.9	10647.25
876.6569	1328.6293	11337.3	10449.95
876.801	1330.5048	11174.55	10289.3
876.9452	1332.3796	11006.5	10124.85
877.0893	1334.2537	10959.25	10047.95
877.2335	1336.127	10852.55	9965.85
877.3776	1337.9996	10803.95	9917.55
877.5217	1339.8714	10783.65	9897.45
877.6658	1341.7426	10823.3	9894.6
877.8099	1343.6129	10825.95	9939.9
877.954	1345.4826	10785.4	9901.6
878.0981	1347.3515	10797.75	9910.05
878.2422	1349.2196	10795.35	9910
878.3862	1351.087	10799.05	9914.2
878.5303	1352.9537	10843.1	9956.75
878.6743	1354.8197	10969.35	10085.7
878.8184	1356.6849	11109	10223.2
878.9624	1358.5493	11267.85	10381.55
879.1064	1360.4131	11423.1	10537.95
879.2504	1362.276	11564.1	10678.5
879.3944	1364.1383	11571.8	10686.7
879.5384	1365.9998	11428.35	10537.3
879.6823	1367.8606	11110.6	10223.75
879.8263	1369.7206	10714.15	9828.95
879.9702	1371.5799	10389	9501.9
880.1142	1373.4384	10107.55	9222.5
880.2581	1375.2962	9886.25	8998
880.402	1377.1533	9558.6	8675.05
880.5459	1379.0096	9199.95	8313.75
880.6898	1380.8652	8851.35	7964.95
880.8337	1382.7201	8586.35	7702.55
880.9776	1384.5742	8290	7403.7
881.1215	1386.4275	8117.7	7231.3
881.2653	1388.2802	7960.35	7076.7
881.4092	1390.132	7832.75	6947.15
881.553	1391.9832	7770.15	6883.9
881.6968	1393.8336	7687.7	6801.35
881.8406	1395.6832	7634.05	6747.25
881.9844	1397.5322	7582.55	6696.95
882.1282	1399.3803	7549.75	6658.5
882.272	1401.2278	7514.6	6626.75
882.4158	1403.0745	7495.5	6610.65
882.5595	1404.9204	7479.85	6596.75
882.7033	1406.7656	7501.8	6615.7
882.847	1408.6101	7510.3	6625.95
882.9908	1410.4538	7526.3	6641.75
883.1345	1412.2968	7585.4	6697.65
883.2782	1414.139	7627.9	6742.5
883.4219	1415.9805	7740.8	6855.85
883.5656	1417.8213	7810.9	6918.05
883.7092	1419.6613	7898.95	7015.2
883.8529	1421.5006	8031.4	7143.45
883.9965	1423.3391	8243.2	7356.55
884.1402	1425.1769	8529.15	7645.15
884.2838	1427.0139	8951.45	8064.7
884.4274	1428.8502	9475.85	8589.15
884.571	1430.6858	10038.9	9153.45
884.7146	1432.5206	10442.2	9557.25
884.8582	1434.3547	10674.1	9786.95
885.0018	1436.188	10703.55	9816.35
885.1453	1438.0206	10655.45	9767.95
885.2889	1439.8524	10467.25	9584.15
885.4324	1441.6835	10347.35	9462.3
885.5759	1443.5139	10239.45	9350
885.7194	1445.3435	10176.1	9288.5
885.8629	1447.1724	10131	9247.85
886.0064	1449.0005	10088.7	9202.25
886.1499	1450.8279	10005	9117.25
886.2933	1452.6545	9983.45	9096.25
886.4368	1454.4804	10022.85	9137.05
886.5802	1456.3056	10028.95	9137.5
886.7237	1458.13	9941	9056.8
886.8671	1459.9536	9803.85	8917.2
887.0105	1461.7766	9541.7	8656.75
887.1539	1463.5987	9212.15	8325.25
887.2972	1465.4202	8860.4	7976.15
887.4406	1467.2409	8534.5	7648.65
887.584	1469.0608	8277	7392.3
887.7273	1470.88	7973.25	7087.55
887.8706	1472.6984	7727.7	6842.3
888.0139	1474.5161	7528.3	6638.8
888.1572	1476.3331	7365.85	6480.65
888.3005	1478.1493	7244.2	6356.1
888.4438	1479.9648	7145.4	6259.6
888.5871	1481.7795	7074.75	6190
888.7303	1483.5935	7017.25	6134.9
888.8736	1485.4067	6969.35	6085
889.0168	1487.2192	6891.75	6004.95
889.16	1489.031	6870.85	5984.4
889.3032	1490.842	6810.2	5925.55
889.4464	1492.6522	6795.15	5909.15
889.5896	1494.4618	6754.85	5869.15
889.7327	1496.2705	6692.95	5806.95
889.8759	1498.0785	6666.9	5781.4
890.019	1499.8858	6647.6	5761.9
890.1622	1501.6924	6582.85	5698
890.3053	1503.4981	6558.6	5675.65
890.4484	1505.3032	6538.1	5651.75
890.5914	1507.1075	6501.15	5615.9
890.7345	1508.911	6445.1	5559.8
890.8776	1510.7138	6423.05	5535.8
891.0206	1512.5159	6349.25	5463.7
891.1637	1514.3172	6306.45	5421.15
891.3067	1516.1178	6264.45	5379.55
891.4497	1517.9176	6264.25	5376.7
891.5927	1519.7166	6215.5	5330.8
891.7357	1521.515	6175.95	5284.95
891.8786	1523.3126	6172.7	5287.5
892.0216	1525.1094	6137.5	5249
892.1645	1526.9055	6103.05	5218.9
892.3074	1528.7008	6107.7	5224
892.4503	1530.4954	6055.1	5169.65
892.5932	1532.2893	6049.5	5165.2
892.7361	1534.0824	6017.2	5128.05
892.879	1535.8747	6027.05	5143.45
893.0218	1537.6663	6022.4	5137.7
893.1647	1539.4572	6008.85	5122.6
893.3075	1541.2473	6017.3	5131.2
893.4503	1543.0367	6026.1	5142.25
893.5931	1544.8253	6010.3	5121.45
893.7359	1546.6132	6045.4	5158.1
893.8787	1548.4003	6068.95	5176.6
894.0214	1550.1867	6120.6	5227.1
894.1642	1551.9723	6154.85	5264.65
894.3069	1553.7572	6234.9	5348.05
894.4496	1555.5414	6320.2	5433.2
894.5923	1557.3247	6449.3	5562.65
894.735	1559.1074	6603.45	5718.9
894.8777	1560.8893	6754.9	5869.7
895.0204	1562.6705	6928.45	6040.75
895.163	1564.4509	7067.6	6184.2
895.3056	1566.2305	7155.25	6268.15
895.4482	1568.0094	7228.25	6346.2
895.5908	1569.7876	7208.85	6323.25
895.7334	1571.565	7179.55	6295.05
895.876	1573.3417	7188.15	6303.7
896.0186	1575.1176	7175.25	6290.75
896.1611	1576.8928	7173.35	6287.8
896.3036	1578.6672	7161.45	6277.95
896.4461	1580.4409	7154.25	6269.95
896.5886	1582.2138	7159.8	6273.8
896.7311	1583.986	7194.1	6308.7
896.8736	1585.7575	7255.65	6372.85
897.0161	1587.5282	7308.35	6424.65
897.1585	1589.2981	7392.15	6508.4
897.3009	1591.0673	7470.55	6588.15
897.4433	1592.8358	7559.9	6675.9
897.5857	1594.6035	7676.5	6791.6
897.7281	1596.3704	7730.5	6845.8
897.8705	1598.1366	7850.7	6966.75
898.0128	1599.9021	7928.05	7043.15
898.1551	1601.6668	8011.95	7123.55
898.2975	1603.4308	8100.75	7215.45
898.4398	1605.194	8278.8	7388.75
898.5821	1606.9564	8473.75	7588.5
898.7243	1608.7182	8717.25	7828.55
898.8666	1610.4791	8986.65	8102.25
899.0088	1612.2394	9303.85	8420.8
899.1511	1613.9988	9612.25	8727.65
899.2933	1615.7576	9918.3	9033.4
899.4355	1617.5156	10144.55	9255.35
899.5776	1619.2728	10237.55	9353.4
899.7198	1621.0293	10206.05	9323.45
899.862	1622.785	10056.45	9166.75
900.0041	1624.54	9760	8873.65
900.1462	1626.2942	9421.05	8535.2
900.2883	1628.0477	9039.95	8152.05
900.4304	1629.8005	8673.05	7787.4
900.5725	1631.5525	8362.9	7478.4
900.7145	1633.3037	8069	7183.8
900.8566	1635.0542	7854.35	6971.2
900.9986	1636.804	7665.6	6780.45
901.1406	1638.553	7598.25	6660.05
901.2826	1640.3013	7476.05	6592
901.4245	1642.0488	7404.85	6519.25
901.5665	1643.7955	7440.85	6558
901.7085	1645.5416	7500.9	6614.25
901.8504	1647.2868	7590.6	6707.9
901.9923	1649.0313	7692.95	6810.15
902.1342	1650.7751	7847.35	6960.75
902.2761	1652.5181	7985.95	7103.6
902.4179	1654.2604	8140.7	7255.45
902.5598	1656.0019	8365	7482.8
902.7016	1657.7427	8658.2	7773.95
902.8434	1659.4828	8898.6	8015.45
902.9852	1661.222	9060.3	8177.4
903.127	1662.9606	9066.95	8183.1
903.2687	1664.6984	8882.4	7998.5
903.4105	1666.4354	8470.5	7585.05
903.5522	1668.1717	7941.6	7058.7
903.6939	1669.9072	7373.6	6490.5
903.8356	1671.642	6888.65	6001.85
903.9773	1673.3761	6495.05	5613.1
904.119	1675.1094	6169.45	5285.8
904.2606	1676.8419	5896.2	5011.45
904.4022	1678.5737	5694.35	4811.25
904.5439	1680.3048	5539.55	4656.5
904.6855	1682.0351	5423.7	4542.45
904.827	1683.7646	5324	4437.75
904.9686	1685.4934	5228.1	4346.8
905.1101	1687.2215	5136.6	4251.35
905.2517	1688.9488	5070.75	4187.65
905.3932	1690.6754	5013.9	4130.35
905.5347	1692.4012	4965.95	4085
905.6761	1694.1263	4924.35	4040.35
905.8176	1695.8506	4886.45	4005.6
905.9591	1697.5742	4856.65	3975.95
906.1005	1699.297	4817.95	3934.9
906.2419	1701.0191	4778	3896.65
906.3833	1702.7404	4744.4	3859.9
906.5246	1704.461	4697.35	3814
906.666	1706.1808	4671.65	3786.6
906.8073	1707.8999	4629.8	3743.95
906.9487	1709.6182	4618.5	3735.1
907.09	1711.3358	4579.25	3696.55
907.2313	1713.0527	4570.6	3689.75
907.3725	1714.7688	4537.05	3650.75
907.5138	1716.4841	4501.5	3615.5
907.655	1718.1987	4502.15	3615.5
907.7962	1719.9126	4481.15	3598.4
907.9374	1721.6257	4446.3	3561.15
908.0786	1723.338	4440.85	3554.8
908.2198	1725.0496	4440.35	3554.2
908.3609	1726.7605	4413.05	3528.55
908.502	1728.4706	4399.8	3513.6
908.6431	1730.18	4375.45	3492.15
908.7842	1731.8886	4362.95	3479.5
908.9253	1733.5964	4351.65	3464.7
909.0664	1735.3036	4338.2	3453.7
909.2074	1737.0099	4323.6	3440.15
909.3484	1738.7156	4315.05	3431.85
909.4894	1740.4204	4274.1	3389.35
909.6304	1742.1246	4266.6	3381.45
909.7714	1743.8279	4242.15	3360.05
909.9123	1745.5306	4227.75	3342.85
910.0532	1747.2325	4198.25	3314.6
910.1941	1748.9336	4180.55	3298.2
910.335	1750.634	4157.35	3273.45
910.4759	1752.3336	4146.7	3265.4
910.6168	1754.0325	4132.7	3249.95
910.7576	1755.7307	4132.9	3250.2
910.8984	1757.4281	4129.6	3246.7
911.0392	1759.1247	4129.3	3237.8
911.18	1760.8206	4102.8	3216.2
911.3208	1762.5158	4107.95	3222.3
911.4615	1764.2102	4075.55	3194.75
911.6022	1765.9039	4070.25	3187.35
911.7429	1767.5968	4059.7	3175.8
911.8836	1769.289	4065.15	3182.45
912.0243	1770.9804	4048.6	3165.85
912.1649	1772.6711	4034.9	3151.6
912.3056	1774.361	4036.6	3154.25
912.4462	1776.0502	4018.7	3134.45
912.5868	1777.7386	3997.55	3110.85
912.7274	1779.4263	4000.05	3118
912.8679	1781.1132	4007.55	3123.4
913.0084	1782.7994	3984.55	3097.45
913.149	1784.4849	3987.6	3105.25
913.2895	1786.1696	3984.2	3082.35
913.4299	1787.8535	3972.95	3091.1
913.5704	1789.5367	3943.9	3061.15
913.7108	1791.2192	3956.1	3074.9
913.8513	1792.9009	3937.55	3040.55
913.9917	1794.5818	3925.25	3043.45
914.132	1796.2621	3916.15	3034.85
914.2724	1797.9415	3902.55	3020.2
914.4128	1799.6202	3891.1	3007.2
914.5531	1801.2982	3887.2	3004.25
914.6934	1802.9755	3883	2998.65
914.8337	1804.6519	3872.75	2989.35
914.9739	1806.3277	3850.7	2968.95
915.1142	1808.0027	3857.7	2976.85
915.2544	1809.6769	3850.35	2967.45
915.3946	1811.3504	3843.35	2961.9
915.5348	1813.0231	3833.95	2950.6
915.675	1814.6951	3816.95	2934.1
915.8151	1816.3664	3821.15	2936.5
915.9553	1818.0369	3809.05	2923.8
916.0954	1819.7067	3796.5	2916.05
916.2355	1821.3757	3804.4	2919.85
916.3755	1823.044	3791.65	2909.95
916.5156	1824.7115	3793.45	2909.5
916.6556	1826.3783	3762.45	2881.95
916.7956	1828.0443	3768.85	2887.2
916.9356	1829.7096	3760.3	2877.3
917.0756	1831.3741	3764	2876.75
917.2155	1833.0379	3750.9	2867.75
917.3555	1834.701	3745.75	2860.85
917.4954	1836.3633	3741.35	2856.5
917.6353	1838.0248	3744.6	2861
917.7751	1839.6856	3721.5	2839.6
917.915	1841.3457	3722.4	2839.7
918.0548	1843.005	3718.65	2837.05
918.1946	1844.6636	3706.8	2825.5
918.3344	1846.3214	3690.25	2806.75
918.4742	1847.9785	3711.15	2829.1
918.6139	1849.6349	3695.95	2814.8
918.7537	1851.2904	3708.75	2817.25
918.8934	1852.9453	3672	2790.2
919.0331	1854.5994	3670.55	2784.15
919.1727	1856.2528	3671.9	2785.25
919.3124	1857.9054	3658.85	2775.45
919.452	1859.5572	3666.4	2785.5
919.5916	1861.2083	3659.7	2775.5
919.7312	1862.8587	3655.7	2772.55
919.8708	1864.5084	3638.3	2756.15
920.0103	1866.1572	3626.45	2746.35
920.1498	1867.8054	3611.95	2729.45
920.2893	1869.4528	3620.55	2739.85
920.4288	1871.0994	3605.05	2722
920.5683	1872.7453	3604.1	2720.7
920.7077	1874.3905	3605.75	2705.85
920.8471	1876.0349	3580.6	2696.65
920.9865	1877.6786	3596	2712.4
921.1259	1879.3215	3595.9	2712.9
921.2653	1880.9637	3575.5	2691
921.4046	1882.6051	3585.65	2705
921.5439	1884.2458	3561.75	2676.5
921.6832	1885.8858	3551.45	2671.9
921.8225	1887.525	3548.1	2666
921.9617	1889.1634	3528.9	2648.35
922.101	1890.8011	3520.9	2635.45
922.2402	1892.4381	3527.95	2644.8
922.3794	1894.0743	3510.55	2629.65
922.5185	1895.7098	3504.8	2622.3
922.6577	1897.3446	3488.55	2608.05
922.7968	1898.9786	3489.95	2601
922.9359	1900.6118	3483.45	2600.4
923.075	1902.2443	3476.55	2591.95
923.214	1903.8761	3469.1	2588.2
923.3531	1905.5071	3451.4	2566.75
923.4921	1907.1374	3451.4	2568.55
923.6311	1908.7669	3459.3	2576.2
923.77	1910.3957	3452.3	2569.8
923.909	1912.0237	3432.15	2547.6
924.0479	1913.651	3429.6	2546.25
924.1868	1915.2776	3417.95	2538.3
924.3257	1916.9034	3401.15	2518.1
924.4646	1918.5285	3402.6	2520.25
924.6034	1920.1528	3382.15	2498.55
924.7422	1921.7764	3408.45	2526.95
924.881	1923.3992	3372.85	2489.35
925.0198	1925.0213	3354.9	2473.2
925.1586	1926.6427	3334.5	2453.25
925.2973	1928.2633	3445.9	2460.75
925.436	1929.8832	3355.25	2471.3
925.5747	1931.5023	3326.45	2445.7
925.7134	1933.1207	3321.4	2437.8
925.852	1934.7383	3324.5	2442.9
925.9906	1936.3552	3307.15	2426.1
926.1292	1937.9714	3289.6	2406.4
926.2678	1939.5868	3279.2	2395.7
926.4064	1941.2015	3270.2	2388.7
926.5449	1942.8154	3269.8	2385.7
926.6834	1944.4286	3254.8	2372.65
926.8219	1946.041	3270.7	2365.5
926.9604	1947.6528	3242.65	2355.15
927.0988	1949.2637	3236	2353.15
927.2372	1950.8739	3229.6	2345.45
927.3756	1952.4834	3222.4	2336.95
927.514	1954.0921	3219.15	2338.6
927.6523	1955.7001	3199.2	2312.6
927.7907	1957.3074	3207.2	2325.65
927.929	1958.9139	3177	2295.45
928.0673	1960.5197	3185.85	2305.1
928.2055	1962.1247	3173.75	2292.15
928.3438	1963.729	3149.9	2267.5
928.482	1965.3325	3171.55	2265.6
928.6202	1966.9353	3147.3	2264.3
928.7584	1968.5374	3130.6	2247.2
928.8965	1970.1387	3131.85	2251.4
929.0346	1971.7393	3112.1	2228.5
929.1727	1973.3392	3113.85	2230.9
929.3108	1974.9383	3105.6	2224.1
929.4489	1976.5366	3092.8	2210.45
929.5869	1978.1342	3099.45	2216.9
929.7249	1979.7311	3091.4	2206.6
929.8629	1981.3273	3077.05	2193.8
930.0009	1982.9227	3079.5	2193.35
930.1388	1984.5173	3074.1	2190.9
930.2767	1986.1112	3058.7	2175.95
930.4146	1987.7044	3042.5	2159.7
930.5525	1989.2968	3048.65	2165.85
930.6904	1990.8885	3041.95	2156.2
930.8282	1992.4795	3040.45	2153.6
930.966	1994.0697	3033.35	2150
931.1038	1995.6592	3032.95	2149.65
931.2415	1997.2479	3014.3	2131.5
931.3793	1998.8359	3010.65	2127.05
931.517	2000.4232	3002.4	2119
931.6547	2002.0097	2988.4	2108.25
931.7923	2003.5955	2977.2	2093.45
931.93	2005.1805	3000.3	2115.8
932.0676	2006.7648	2989.3	2108.5
932.2052	2008.3484	2971.7	2088.85
932.3427	2009.9312	2985.5	2102.65
932.4803	2011.5133	2963.4	2081.1
932.6178	2013.0946	2968.4	2085.9
932.7553	2014.6752	2955.95	2072.45
932.8928	2016.2551	2965	2079.75
933.0302	2017.8342	2948.6	2067.9
933.1676	2019.4126	2946.2	2064.85
933.305	2020.9902	2938.3	2058.35
933.4424	2022.5672	2928.2	2043.25
933.5798	2024.1433	2934.1	2044.4
933.7171	2025.7188	2919.6	2040.15
933.8544	2027.2935	2905.15	2020.35
933.9917	2028.8674	2907.2	2024.2
934.129	2030.4406	2893.75	2011.65
934.2662	2032.0131	2875.25	1992.5
934.4034	2033.5849	2890.6	2001.7
934.5406	2035.1559	2865.2	1982.8
934.6778	2036.7261	2884.05	2002.6
934.8149	2038.2957	2867.2	1985.5
934.952	2039.8645	2864.3	1982.95
935.0891	2041.4325	2860.75	1976.4
935.2262	2042.9998	2847.6	1963.8
935.3632	2044.5664	2844.2	1962.15
935.5002	2046.1323	2849.65	1967.35
935.6372	2047.6974	2844.25	1958.85
935.7742	2049.2617	2833.05	1950.2
935.9111	2050.8254	2854.4	1936.25
936.048	2052.3883	2831.8	1948.25
936.1849	2053.9504	2822.95	1938.5
936.3218	2055.5118	2803.75	1918.8
936.4586	2057.0725	2794.4	1908.1
936.5955	2058.6325	2799.35	1917.55
936.7323	2060.1917	2788.2	1905.55
936.869	2061.7502	2799.1	1913.75
937.0058	2063.3079	2782.85	1900.55
937.1425	2064.8649	2781.8	1894.75
937.2792	2066.4212	2770.25	1886.8
937.4159	2067.9767	2757.8	1875.05
937.5525	2069.5315	2763.4	1879.05
937.6891	2071.0856	2740.4	1857.75
937.8257	2072.6389	2736.85	1852.65
937.9623	2074.1915	2727.15	1847.65
938.0989	2075.7433	2726.25	1841.7
938.2354	2077.2945	2728.05	1847.2
938.3719	2078.8448	2726.2	1843.8
938.5084	2080.3945	2719.95	1837.1
938.6448	2081.9434	2704.9	1823.6
938.7812	2083.4916	2701.8	1818.85
938.9176	2085.039	2703.8	1819.35
939.054	2086.5857	2688.7	1807.15
939.1903	2088.1317	2687.35	1806.15
939.3267	2089.677	2677.45	1795.5
939.463	2091.2215	2677.65	1795.95
939.5992	2092.7652	2669.8	1787.45
939.7355	2094.3083	2662.75	1781
939.8717	2095.8506	2665.65	1785.4
940.0079	2097.3921	2668.25	1787.45
940.1441	2098.933	2663.7	1779.9
940.2802	2100.4731	2651.75	1770.75
940.4163	2102.0124	2664.15	1763.25
940.5524	2103.5511	2650.3	1769.3
940.6885	2105.089	2645.7	1762.95
940.8245	2106.6261	2644.65	1762.4
940.9606	2108.1626	2630.75	1746.9
941.0965	2109.6983	2661.15	1749.6
941.2325	2111.2332	2633.25	1750.15
941.3684	2112.7675	2615.55	1732.25
941.5044	2114.301	2618.25	1735.1
941.6403	2115.8337	2613.85	1732.5
941.7761	2117.3657	2611.8	1728.9
941.912	2118.897	2609.2	1725.75
942.0478	2120.4276	2614.55	1728.2
942.1835	2121.9575	2594.85	1710.85
942.3193	2123.4866	2606.35	1710.5
942.455	2125.0149	2611.1	1725.1
942.5907	2126.5426	2582.1	1698.45
942.7264	2128.0695	2581.25	1694.85
942.8621	2129.5956	2573.5	1693.4
942.9977	2131.1211	2576.75	1690.55
943.1333	2132.6458	2572.05	1690.8
943.2689	2134.1698	2561.7	1680
943.4044	2135.693	2556.2	1670.6
943.54	2137.2155	2549.55	1662.95
943.6755	2138.7373	2554	1669.65
943.8109	2140.2584	2548.8	1665.6
943.9464	2141.7787	2541.05	1651.35
944.0818	2143.2983	2528.3	1647.35
944.2172	2144.8171	2524	1642.5
944.3526	2146.3353	2522.85	1638.45
944.4879	2147.8527	2501.9	1619.85
944.6232	2149.3693	2520.1	1636.6
944.7585	2150.8853	2514.35	1633.05
944.8938	2152.4005	2493.9	1611.55
945.029	2153.9149	2488	1603.35
945.1642	2155.4287	2497.35	1616.65
945.2994	2156.9417	2498.15	1614.55
945.4346	2158.454	2482.75	1596.8
945.5697	2159.9655	2485.8	1604
945.7048	2161.4764	2472.55	1589.65
945.8399	2162.9865	2470.95	1587.2
945.9749	2164.4958	2463.05	1578.15
946.1099	2166.0045	2458.55	1571.25
946.2449	2167.5124	2465.15	1584
946.3799	2169.0195	2456.65	1571.65
946.5148	2170.526	2455	1572.55
946.6498	2172.0317	2443.6	1560.15
946.7846	2173.5367	2452.8	1567.8
946.9195	2175.0409	2443.8	1562.25
947.0543	2176.5445	2452	1569.2
947.1891	2178.0473	2430.6	1549.8
947.3239	2179.5494	2433	1547.85
947.4587	2181.0507	2434.3	1552.3
947.5934	2182.5513	2415.85	1534.75
947.7281	2184.0512	2422.2	1538.25
947.8628	2185.5504	2429.1	1546.05
947.9974	2187.0488	2401	1517.5
948.132	2188.5465	2403.8	1519.9
948.2666	2190.0435	2397.8	1513.35
948.4012	2191.5397	2383.9	1502.05
948.5357	2193.0353	2379.75	1498.3
948.6702	2194.5301	2377.45	1495.05
948.8047	2196.0241	2389.3	1506.45
948.9392	2197.5175	2376.25	1494.5
949.0736	2199.0101	2375.4	1490.35
949.208	2200.502	2361	1478.65
949.3424	2201.9931	2358.25	1475.15
949.4767	2203.4835	2348.5	1464.2
949.611	2204.9733	2356.05	1467.95
949.7453	2206.4622	2346.55	1464.1
949.8796	2207.9505	2341.45	1455.8
950.0138	2209.438	2329.65	1446.8
950.148	2210.9248	2320.1	1436.6
950.2822	2212.4109	2329.5	1448.25
950.4164	2213.8962	2323.75	1440.35
950.5505	2215.3809	2317.15	1432.55
950.6846	2216.8648	2314.05	1430.8
950.8186	2218.3479	2318.9	1431.65
950.9527	2219.8304	2304.6	1420.85
951.0867	2221.3121	2289.3	1405.6
951.2207	2222.7931	2293.3	1410.2
951.3546	2224.2733	2284.15	1402
951.4886	2225.7529	2281.4	1398
951.6225	2227.2317	2273.2	1387.5
951.7563	2228.7098	2276.5	1393.1
951.8902	2230.1872	2264.8	1384.2
952.024	2231.6638	2268.55	1387.5
952.1578	2233.1397	2278.65	1389.85
952.2916	2234.6149	2259.45	1377.7
952.4253	2236.0894	2254	1370.55
952.559	2237.5632	2265.15	1372.15
952.6927	2239.0362	2234.25	1351.05
952.8263	2240.5085	2236.6	1352.15
952.9599	2241.9801	2234.6	1352.2
953.0935	2243.4509	2227.85	1346.5
953.2271	2244.921	2226.95	1343.25
953.3606	2246.3904	2224.85	1340.85
953.4941	2247.8591	2216.1	1333.15
953.6276	2249.3271	2206.1	1323.15
953.7611	2250.7943	2208.75	1325.3
953.8945	2252.2608	2194.9	1313.9
954.0279	2253.7266	2206.7	1324.15
954.1612	2255.1917	2199.55	1316.65
954.2946	2256.656	2190	1305.55
954.4279	2258.1197	2180	1299.25
954.5612	2259.5826	2188.05	1303.55
954.6944	2261.0447	2178.05	1293.4
954.8276	2262.5062	2178.45	1294.75
954.9608	2263.9669	2175.45	1290.7
955.094	2265.4269	2174.15	1292.65
955.2271	2266.8862	2163.55	1280.25
955.3602	2268.3448	2158.7	1275.25
955.4933	2269.8026	2161.2	1275.35
955.6264	2271.2598	2159.75	1274.85
955.7594	2272.7162	2160.1	1277.2
955.8924	2274.1719	2149.85	1266.6
956.0253	2275.6268	2150.15	1268.1
956.1583	2277.0811	2142.7	1260.8
956.2912	2278.5346	2148.15	1266.05
956.4241	2279.9874	2143.15	1261
956.5569	2281.4395	2142.8	1259.3
956.6897	2282.8908	2144.35	1258.95
956.8225	2284.3414	2133.45	1250.05
956.9553	2285.7914	2129.05	1245.9
957.088	2287.2406	2124.8	1240.6
957.2207	2288.689	2122.65	1242.8
957.3534	2290.1368	2119.45	1236.9
957.486	2291.5838	2119.35	1236.55
957.6186	2293.0302	2102.2	1220.1
957.7512	2294.4758	2114.5	1233.65
957.8838	2295.9206	2100.6	1219.35
958.0163	2297.3648	2107.05	1224.55
958.1488	2298.8082	2100	1216.1
958.2813	2300.251	2102.15	1219.8
958.4137	2301.693	2101.7	1218.4
958.5461	2303.1343	2079.35	1196.55
958.6785	2304.5748	2085.6	1203.05
958.8108	2306.0147	2076.5	1191.6
958.9432	2307.4538	2077.7	1191.75
959.0754	2308.8922	2068.15	1186.75
959.2077	2310.3299	2073.9	1191.3
959.3399	2311.7669	2068.25	1186.65
959.4721	2313.2031	2059.55	1178.1
959.6043	2314.6387	2058.35	1176.1
959.7365	2316.0735	2050.55	1170.15
959.8686	2317.5076	2059.05	1174.65
960.0006	2318.941	2048.1	1167.15
960.1327	2320.3737	2035.7	1152.1
960.2647	2321.8056	2048.3	1166.15
960.3967	2323.2369	2038.3	1154.8
960.5287	2324.6674	2044.15	1158.4
960.6606	2326.0972	2029.2	1145.4
960.7925	2327.5263	2035.6	1150.95
960.9244	2328.9547	2027.75	1143.7
961.0562	2330.3823	2023.55	1138.35
961.1881	2331.8092	2017.7	1134.25
961.3198	2333.2355	2013.7	1130.8
961.4516	2334.661	2009.4	1127.05
961.5833	2336.0858	2006	1123.05
961.715	2337.5098	2011.8	1129.6
961.8467	2338.9332	2003.3	1119.85
961.9783	2340.3558	1999.15	1113.35
962.1099	2341.7778	2008.2	1124.5
962.2415	2343.199	1996.9	1111.15
962.373	2344.6195	1981.05	1098
962.5045	2346.0393	1994.65	1111.45
962.636	2347.4583	1994.7	1111.45
962.7675	2348.8767	1989.85	1106.7
962.8989	2350.2943	1985.25	1102.5
963.0303	2351.7113	1980.25	1097.95
963.1617	2353.1275	1978.75	1096.95
963.293	2354.543	2002.05	1093.75
963.4243	2355.9578	1981.45	1097.2
963.5556	2357.3718	1967.65	1084.05
963.6868	2358.7852	1966.85	1082.7
963.818	2360.1978	1965.1	1080.95
963.9492	2361.6098	1970.45	1085.8
964.0803	2363.021	1967.25	1080.85
964.2114	2364.4315	1961.15	1079.7
964.3425	2365.8413	1942.4	1057.9
964.4736	2367.2504	1944.2	1063
964.6046	2368.6587	1945.45	1062.65
964.7356	2370.0664	1938.5	1055.15
964.8666	2371.4733	1948.2	1064.6
964.9975	2372.8795	1929.6	1046.8
965.1284	2374.285	1940.8	1056.95
965.2593	2375.6899	1932.15	1050.4
965.3901	2377.0939	1932.2	1051.25
965.5209	2378.4973	1930.1	1047.15
965.6517	2379.9	1922.2	1038.45
965.7825	2381.3019	1918.25	1034.55
965.9132	2382.7032	1915.6	1031.8
966.0439	2384.1037	1910.25	1028.4
966.1745	2385.5035	1899.6	1017.35
966.3051	2386.9027	1899.55	1018.05
966.4357	2388.3011	1901.75	1016.5
966.5663	2389.6987	1894.25	1011.45
966.6968	2391.0957	1889.15	1007.5
966.8273	2392.492	1881.15	998.5
966.9578	2393.8876	1881.8	1000.4
967.0882	2395.2824	1875.1	993.75
967.2186	2396.6765	1879.45	998.6
967.349	2398.07	1878.05	994.95
967.4793	2399.4627	1879	998.65
967.6097	2400.8547	1858.8	976.4
967.7399	2402.246	1870.75	981.15
967.8702	2403.6366	1864.3	982.6
968.0004	2405.0265	1849.45	967.1
968.1306	2406.4156	1853	965.95
968.2607	2407.8041	1862.15	975.45
968.3909	2409.1918	1837.8	952.1
968.521	2410.5789	1850.25	968.15
968.651	2411.9652	1840.15	954.15
968.781	2413.3508	1845.65	962.8
968.911	2414.7358	1836.7	954.4
969.041	2416.12	1829.85	949.1
969.1709	2417.5035	1840.4	958.95
969.3008	2418.8863	1826.9	944.2
969.4307	2420.2684	1824.85	943.05
969.5606	2421.6497	1818	933.55
969.6904	2423.0304	1819.05	939.5
969.8201	2424.4104	1818.1	935.2
969.9499	2425.7896	1819	929.75
970.0796	2427.1682	1812.2	931.8
970.2093	2428.546	1807.5	924.3
970.3389	2429.9232	1803.95	922.75
970.4685	2431.2996	1819	937.45
970.5981	2432.6753	1800.85	917.3
970.7277	2434.0503	1805.35	922.2
970.8572	2435.4246	1788.85	907.45
970.9867	2436.7982	1789.1	905.6
971.1161	2438.1711	1781	899.35
971.2456	2439.5433	1790.35	907.15
971.375	2440.9148	1793.65	904.45
971.5043	2442.2856	1779.8	898.25
971.6336	2443.6557	1783.1	899.1
971.7629	2445.025	1773.6	890.85
971.8922	2446.3937	1770.65	885.6
972.0214	2447.7617	1763.4	880.9
972.1506	2449.1289	1767.1	884.45
972.2798	2450.4955	1762.35	878.05
972.4089	2451.8613	1762.7	880.85
972.538	2453.2265	1763.95	880.3
972.6671	2454.5909	1759.4	876.45
972.7961	2455.9546	1757.05	874.4
972.9251	2457.3177	1748.6	864.8
973.0541	2458.68	1752.85	870.55
973.1831	2460.0416	1753.9	872.2
973.312	2461.4025	1749.05	866.5
973.4408	2462.7627	1760.4	866.95
973.5697	2464.1222	1738.9	859.8
973.6985	2465.4811	1744.5	862.3
973.8273	2466.8392	1737.85	855.3
973.956	2468.1966	1743.1	859.2
974.0847	2469.5533	1753.85	868.2
974.2134	2470.9093	1745.3	861.7
974.3421	2472.2645	1737.7	854.3
974.4707	2473.6191	1739.5	857.5
974.5993	2474.973	1724.1	841.95
974.7278	2476.3262	1728.3	844.7
974.8563	2477.6787	1729.45	846.85
974.9848	2479.0305	1725.95	842.7
975.1132	2480.3816	1724.65	839.5
975.2417	2481.7319	1720.9	839
975.37	2483.0816	1710.55	826.25
975.4984	2484.4306	1716.4	832.3
975.6267	2485.7789	1709.75	828.75
975.755	2487.1264	1711.1	828.55
975.8833	2488.4733	1704.95	822.5
976.0115	2489.8195	1730.1	830.35
976.1397	2491.165	1700.85	815.55
976.2678	2492.5097	1698.5	813.05
976.3959	2493.8538	1690.5	809.45
976.524	2495.1972	1686.6	803.55
976.6521	2496.5398	1681.5	798.3
976.7801	2497.8818	1689.5	805.4
976.9081	2499.2231	1688.75	807.05
977.036	2500.5637	1680.65	796.6
977.164	2501.9035	1677.35	794.45
977.2918	2503.2427	1686.15	799.85
977.4197	2504.5812	1678	796.15
977.5475	2505.919	1678	791.65
977.6753	2507.256	1668.8	786.35
977.8031	2508.5924	1672.3	789.9
977.9308	2509.9281	1665.95	776.45
978.0585	2511.2631	1659.95	778.65
978.1861	2512.5974	1666.6	785.7
978.3137	2513.9309	1664.4	780.65
978.4413	2515.2638	1685.7	774.35
978.5689	2516.596	1659.25	778.95
978.6964	2517.9275	1651.1	767.75
978.8239	2519.2583	1657.7	775.05
978.9513	2520.5884	1647.35	764
979.0788	2521.9178	1655.55	772.85
979.2062	2523.2465	1642.75	761.7
979.3335	2524.5745	1636.2	753.9
979.4608	2525.9018	1644.8	763.05
979.5881	2527.2284	1644.5	762.2
979.7154	2528.5543	1641.7	761.7
979.8426	2529.8796	1635.9	755.55
979.9698	2531.2041	1638	755.3
980.0969	2532.5279	1630.65	749.85
980.224	2533.851	1635.1	751.55
980.3511	2535.1735	1627.65	746.1
980.4781	2536.4952	1629.6	746.75
980.6052	2537.8163	1629.45	746.5
980.7321	2539.1366	1631.4	749.05
980.8591	2540.4562	1629.15	747.85
980.986	2541.7752	1627.6	744.8
981.1129	2543.0935	1620.05	737.95
981.2397	2544.411	1621.5	737.15
981.3665	2545.7279	1617.05	736
981.4933	2547.0441	1624.6	742.65
981.62	2548.3596	1620.25	735.4
981.7467	2549.6744	1618	735.95
981.8734	2550.9885	1619.3	733.1
982.0001	2552.3019	1606.55	722.85
982.1267	2553.6146	1614.4	731.9
982.2532	2554.9266	1610.2	727.6
982.3798	2556.2379	1608.2	724.2
982.5063	2557.5485	1598	716.6
982.6327	2558.8585	1612.6	723.4
982.7592	2560.1677	1606.05	717.5
982.8856	2561.4762	1606.05	723.55
983.0119	2562.7841	1604.8	719.8
983.1383	2564.0913	1599.9	719.05
983.2646	2565.3977	1595.75	713.6
983.3908	2566.7035	1599.7	717.5
983.517	2568.0086	1596.05	710.05
983.6432	2569.313	1591.9	709.85
983.7694	2570.6167	1591.65	705.25
983.8955	2571.9197	1592.95	710.6
984.0216	2573.222	1592.1	706.4
984.1476	2574.5236	1591.05	707.4
984.2737	2575.8246	1590.45	704
984.3996	2577.1248	1587.45	702.5
984.5256	2578.4244	1587.7	705.85
984.6515	2579.7232	1584.8	700.7
984.7774	2581.0214	1607.95	692.45
984.9032	2582.3189	1592.45	712.5
985.029	2583.6157	1595.9	709.25
985.1548	2584.9118	1579.7	697.65
985.2806	2586.2072	1587	703.95
985.4063	2587.5019	1586.3	703.75
985.5319	2588.7959	1583.45	699.3
985.6576	2590.0893	1588.05	705.1
985.7832	2591.3819	1579.5	699.3
985.9087	2592.6739	1589.9	709.25
986.0343	2593.9652	1589.1	705.3
986.1597	2595.2557	1577.95	697.25
986.2852	2596.5456	1587.7	704.75
986.4106	2597.8348	1581.3	701
986.536	2599.1234	1581.7	699
986.6614	2600.4112	1591.8	708.95
986.7867	2601.6983	1588.7	703.85
986.912	2602.9848	1583.15	701.3
987.0372	2604.2705	1588.35	697.75
987.1624	2605.5556	1590.4	709.1
987.2876	2606.84	1580.1	697.45
987.4128	2608.1237	1574.9	693.1
987.5379	2609.4067	1568.85	684.7
987.6629	2610.689	1579.5	687.2
987.788	2611.9707	1576.9	692.45
987.913	2613.2516	1570.1	684.15
988.0379	2614.5319	1565.2	683.85
988.1629	2615.8115	1549.85	667.8
988.2878	2617.0903	1555.75	672.35
988.4126	2618.3685	1545.3	662.1
988.5375	2619.6461	1551.25	669.85
988.6622	2620.9229	1545.65	662.6
988.787	2622.199	1551.8	670.65
988.9117	2623.4745	1555.5	672.3
989.0364	2624.7493	1544.8	663.8
989.161	2626.0234	1545.85	666.75
989.2857	2627.2968	1542.25	661.45
989.4102	2628.5695	1538.45	655.35
989.5348	2629.8415	1543.4	660.65
989.6593	2631.1128	1540.8	658.15
989.7837	2632.3835	1536.8	656.05
989.9082	2633.6535	1532.3	650.85
990.0326	2634.9228	1529.55	647.85
990.1569	2636.1914	1540.1	656.9
990.2812	2637.4593	1530.45	646.1
990.4055	2638.7265	1529	645.1
990.5298	2639.9931	1531.15	649.1
990.654	2641.259	1529.5	645.85
990.7782	2642.5242	1517.95	636.85
990.9023	2643.7887	1530.55	647.95
991.0264	2645.0525	1531.7	650.15
991.1505	2646.3156	1522.9	640.25
991.2745	2647.5781	1517.45	636.25
991.3985	2648.8398	1510.2	629.15
991.5225	2650.1009	1548	628.45
991.6464	2651.3613	1511.3	628.35
991.7703	2652.6211	1514.75	632.8
991.8942	2653.8801	1506.5	624.95
992.018	2655.1385	1504.1	617.95
992.1418	2656.3961	1505.85	625.2
992.2655	2657.6531	1509.8	627.25
992.3892	2658.9094	1500.8	620.4
992.5129	2660.1651	1507	625.95
992.6366	2661.42	1508.75	628.7
992.7602	2662.6743	1503.05	619.45
992.8837	2663.9279	1510.7	628.9
993.0073	2665.1808	1507.35	623.4
993.1307	2666.433	1509.55	624.6
993.2542	2667.6846	1509	626.25
993.3776	2668.9354	1526.05	641.45
993.501	2670.1856	1523.45	640.1
993.6244	2671.4351	1511.95	630.15
993.7477	2672.6839	1519.55	637.05
993.8709	2673.9321	1525.4	644.85
993.9942	2675.1795	1528.45	646.5
994.1174	2676.4263	1525.45	643.75
994.2405	2677.6724	1527.55	647.1
994.3637	2678.9179	1522.5	640.6
994.4868	2680.1626	1524.5	642.75
994.6098	2681.4067	1522.75	639.25
994.7328	2682.6501	1524.85	642.5
994.8558	2683.8928	1523.3	641.75
994.9788	2685.1348	1514.85	633.2
995.1017	2686.3761	1515.45	634.9
995.2245	2687.6168	1508.25	627.4
995.3474	2688.8568	1502.75	621.45
995.4702	2690.0961	1498.5	616.9
995.5929	2691.3348	1495.55	610.3
995.7156	2692.5727	1499	615.9
995.8383	2693.81	1493.75	612.2
995.961	2695.0466	1482.35	602.1
996.0836	2696.2826	1500.2	616.25
996.2062	2697.5178	1499.6	614.45
996.3287	2698.7524	1488.95	607.3
996.4512	2699.9863	1492.45	608.8
996.5737	2701.2195	1491.9	610.9
996.6961	2702.452	1495.55	611.1
996.8185	2703.6839	1501.3	617.75
996.9408	2704.9151	1509.05	627
997.0631	2706.1456	1503.25	618.7
997.1854	2707.3755	1512.85	630.9
997.3077	2708.6046	1529.8	644.9
997.4299	2709.8331	1534	650.95
997.552	2711.0609	1530.55	648.6
997.6742	2712.2881	1534.25	652.8
997.7963	2713.5145	1545.8	662.65
997.9183	2714.7403	1559.8	677.25
998.0403	2715.9654	1557.2	674.05
998.1623	2717.1899	1587.1	687.9
998.2842	2718.4136	1577.4	694.05
998.4062	2719.6367	1600	719.2
998.528	2720.8591	1608.05	718.65
998.6498	2722.0809	1613.25	730.85
998.7716	2723.3019	1619.4	731.65
998.8934	2724.5223	1638.75	756.4
999.0151	2725.7421	1643.8	761.15
999.1368	2726.9611	1641.55	757.35
999.2584	2728.1795	1643.3	754.8
999.38	2729.3972	1632.75	750.8
999.5016	2730.6142	1632.85	740.6
999.6231	2731.8306	1614.45	732.95
999.7446	2733.0462	1594	708.9
999.8661	2734.2612	1580.9	694.95
999.9875	2735.4756	1566.35	682.75
1000.1089	2736.6892	1553.8	670.8
1000.2302	2737.9022	1533.4	652.9
1000.3515	2739.1145	1515.5	633.5
1000.4728	2740.3262	1519	631.05
1000.594	2741.5372	1500.45	618.5
1000.7152	2742.7475	1484.6	602
1000.8363	2743.9571	1485.05	600.55
1000.9575	2745.1661	1474.1	587.85
1001.0785	2746.3744	1457.65	576.05
1001.1996	2747.582	1453.65	570.6
1001.3206	2748.7889	1446.85	563.5
1001.4415	2749.9952	1437.35	555.3
1001.5625	2751.2008	1428.3	546.35
1001.6833	2752.4057	1433.45	548.15
1001.8042	2753.61	1423.45	538.9
1001.925	2754.8136	1426.4	542.5
1002.0458	2756.0165	1415.15	533.8
1002.1665	2757.2188	1415.2	533.45
1002.2872	2758.4204	1420.15	538.05
1002.4078	2759.6213	1419.4	534.9
1002.5285	2760.8215	1425.55	535.35
1002.649	2762.0211	1418.95	535.8
1002.7696	2763.22	1421.55	537.45
1002.8901	2764.4182	1418.9	533.85
1003.0106	2765.6158	1411.3	530.1
1003.131	2766.8127	1405.4	523.55
1003.2514	2768.009	1411.1	529.45
1003.3717	2769.2045	1402.05	519.45
1003.492	2770.3994	1405.8	522.5
1003.6123	2771.5936	1393.55	510.75
1003.7325	2772.7872	1390.4	509.55
1003.8527	2773.9801	1393.75	509.35
1003.9729	2775.1723	1406.55	506.35
1004.093	2776.3639	1387.25	506.5
1004.2131	2777.5548	1381.8	497.2
1004.3331	2778.745	1388.5	505.9
1004.4531	2779.9346	1385.9	504
1004.5731	2781.1235	1388.9	505.8
1004.693	2782.3117	1388.6	506.65
1004.8129	2783.4992	1388.9	507.75
1004.9328	2784.6861	1391.9	507.9
1005.0526	2785.8723	1392.6	510.45
1005.1723	2787.0579	1398.35	515.85
1005.2921	2788.2428	1405	522.3
1005.4118	2789.427	1405.35	524.1
1005.5314	2790.6106	1417.4	535.2
1005.651	2791.7935	1424.8	541
1005.7706	2792.9757	1428.05	547.9
1005.8902	2794.1573	1440.45	556.75
1006.0097	2795.3382	1448.7	565.65
1006.1291	2796.5184	1448.4	568.65
1006.2485	2797.698	1465.25	582.15
1006.3679	2798.8769	1473.25	591.75
1006.4873	2800.0551	1486.75	604.1
1006.6066	2801.2327	1495.6	610.6
1006.7258	2802.4096	1507.95	625.8
1006.8451	2803.5859	1529.5	645.65
1006.9642	2804.7615	1545.1	663.9
1007.0834	2805.9364	1561.2	680.7
1007.2025	2807.1106	1581.4	700.6
1007.3216	2808.2842	1606.55	722.25
1007.4406	2809.4572	1633	750.95
1007.5596	2810.6294	1671.6	789.15
1007.6785	2811.801	1692.05	810.2
1007.7975	2812.972	1732.1	852
1007.9163	2814.1423	1767.6	884.9
1008.0352	2815.3119	1813.05	930.2
1008.154	2816.4808	1859.65	978.25
1008.2727	2817.6491	1902.05	1020.05
1008.3914	2818.8167	1955.1	1072.6
1008.5101	2819.9837	2008.9	1123.05
1008.6288	2821.15	2054.05	1171.15
1008.7474	2822.3157	2111.8	1229.8
1008.8659	2823.4807	2161.85	1280.55
1008.9844	2824.645	2228.75	1345.15
1009.1029	2825.8086	2274.2	1393
1009.2214	2826.9716	2332.2	1451.15
1009.3398	2828.134	2379.7	1498.3
1009.4581	2829.2957	2436.55	1554.35
1009.5764	2830.4567	2463.45	1582.6
1009.6947	2831.617	2490.2	1606.45
1009.813	2832.7767	2502.15	1620.6
1009.9312	2833.9358	2499.8	1617.95
1010.0493	2835.0941	2491.45	1607.95
1010.1675	2836.2519	2484.95	1604.3
1010.2855	2837.4089	2461.35	1578.8
1010.4036	2838.5653	2451.6	1570.65
1010.5216	2839.7211	2431.2	1549.1
1010.6396	2840.8761	2427.7	1544.75
1010.7575	2842.0306	2425.1	1543.9
1010.8754	2843.1843	2453.5	1569.9
1010.9932	2844.3374	2487.9	1605.4
1011.111	2845.4899	2517.45	1634.2
1011.2288	2846.6417	2568.4	1686.3
1011.3465	2847.7928	2626.3	1743.95
1011.4642	2848.9433	2683.95	1801.6
1011.5818	2850.0931	2759.7	1878.1
1011.6995	2851.2422	2817.55	1933.45
1011.817	2852.3907	2884.1	2000.75
1011.9345	2853.5385	2928.8	2043.65
1012.052	2854.6857	3010.1	2101.3
1012.1695	2855.8323	3022.05	2140.65
1012.2869	2856.9781	3066.25	2183.9
1012.4042	2858.1233	3137.75	2256.1
1012.5216	2859.2679	3170.6	2289
1012.6389	2860.4118	3213.75	2331.6
1012.7561	2861.555	3278.05	2392
1012.8733	2862.6976	3313.15	2427.3
1012.9905	2863.8395	3342.55	2462.2
1013.1076	2864.9808	3395.65	2513.85
1013.2247	2866.1214	3409.2	2529.25
1013.3417	2867.2614	3416.35	2535.85
1013.4587	2868.4007	3444.05	2561.45
1013.5757	2869.5393	3447	2563
1013.6926	2870.6773	3472.85	2588.3
1013.8095	2871.8146	3478.75	2592.85
1013.9263	2872.9513	3479.5	2595.85
1014.0431	2874.0874	3462.5	2578.3
1014.1599	2875.2227	3455.7	2572.3
1014.2766	2876.3574	3448.25	2566.85
1014.3933	2877.4915	3421.65	2539.75
1014.51	2878.6249	3401.95	2521.1
1014.6266	2879.7577	3379.35	2491.95
1014.7431	2880.8898	3363.65	2470.95
1014.8596	2882.0212	3341.15	2458.4
1014.9761	2883.152	3314.7	2431.4
1015.0925	2884.2821	3315.95	2436.25
1015.2089	2885.4116	3316.85	2435.1
1015.3253	2886.5405	3302.8	2419.15
1015.4416	2887.6686	3306.55	2420
1015.5579	2888.7962	3313.1	2433.5
1015.6741	2889.923	3330.3	2448.7
1015.7903	2891.0493	3336.4	2456.85
1015.9065	2892.1748	3355.6	2473.55
1016.0226	2893.2997	3358.6	2475.3
1016.1387	2894.424	3375.7	2493.55
1016.2547	2895.5476	3382.55	2502.05
1016.3707	2896.6706	3391.8	2509.25
1016.4866	2897.7929	3416.05	2533.1
1016.6025	2898.9145	3444.45	2562.4
1016.7184	2900.0355	3473.15	2589.35
1016.8342	2901.1559	3502.9	2622.25
1016.95	2902.2756	3536.6	2654.45
1017.0658	2903.3946	3567.9	2686.1
1017.1815	2904.513	3589.65	2706.35
1017.2971	2905.6308	3595.3	2712.75
1017.4127	2906.7479	3644.65	2761.65
1017.5283	2907.8643	3665.05	2781.85
1017.6439	2908.9801	3668.6	2786.1
1017.7594	2910.0953	3692.6	2810.3
1017.8748	2911.2098	3677.1	2789.9
1017.9902	2912.3236	3691.8	2801.85
1018.1056	2913.4368	3670.6	2786.95
1018.2209	2914.5494	3645.65	2761.65
1018.3362	2915.6613	3629.75	2743.6
1018.4515	2916.7725	3587.4	2702.45
1018.5667	2917.8831	3562.3	2679.55
1018.6819	2918.9931	3545.25	2659.25
1018.797	2920.1024	3508.55	2622.75
1018.9121	2921.211	3482.65	2602.3
1019.0271	2922.319	3468.65	2585.45
1019.1421	2923.4264	3460.35	2578.9
1019.2571	2924.5331	3435.1	2553.8
1019.372	2925.6391	3428.75	2547.05
1019.4869	2926.7445	3423.85	2544.05
1019.6017	2927.8493	3435.95	2553.85
1019.7165	2928.9534	3438.3	2554.75
1019.8313	2930.0569	3438.85	2555.3
1019.946	2931.1597	3444.55	2560.85
1020.0606	2932.2619	3436.5	2553.75
1020.1753	2933.3634	3451.4	2568.4
1020.2899	2934.4643	3460.05	2571.3
1020.4044	2935.5645	3433.35	2544.6
1020.5189	2936.6641	3414.2	2526.8
1020.6334	2937.763	3397.55	2516.35
1020.7478	2938.8613	3363.25	2479.3
1020.8622	2939.959	3319.8	2435.65
1020.9765	2941.056	3257.75	2376.25
1021.0908	2942.1523	3189.6	2304.85
1021.2051	2943.248	3119.4	2236.15
1021.3193	2944.3431	3051.3	2169.3
1021.4334	2945.4375	2949.9	2065
1021.5476	2946.5313	2845.4	1964.4
1021.6617	2947.6244	2763.9	1881.5
1021.7757	2948.7169	2657.45	1775.75
1021.8897	2949.8087	2560.15	1677.65
1022.0037	2950.8999	2479.25	1597.2
1022.1176	2951.9904	2401.5	1520.5
1022.2315	2953.0803	2335.4	1451
1022.3453	2954.1696	2270	1387.85
1022.4591	2955.2582	2208.15	1326.75
1022.5728	2956.3462	2174.6	1293.15
1022.6865	2957.4335	2130.55	1249.7
1022.8002	2958.5202	2093.3	1206.75
1022.9138	2959.6062	2069.3	1187.9
1023.0274	2960.6916	2043.25	1162.65
1023.141	2961.7764	2019.85	1137.3
1023.2545	2962.8605	2008.35	1125
1023.3679	2963.9439	1988.95	1108.4
1023.4813	2965.0267	1987	1103.95
1023.5947	2966.1089	1994.45	1089.4
1023.708	2967.1905	1963.2	1081.1
1023.8213	2968.2714	1958.5	1076.55
1023.9346	2969.3516	1956.6	1073.05
1024.0478	2970.4312	1977.3	1085.3
1024.1609	2971.5102	1964.8	1083.7
1024.274	2972.5885	1976.7	1096.05
1024.3871	2973.6662	1981.85	1095.45
1024.5002	2974.7432	1961.1	1079.4
1024.6132	2975.8196	1969.8	1089.35
1024.7261	2976.8954	1960	1080.35
1024.839	2977.9705	1954.75	1072.85
1024.9519	2979.045	1951.45	1069.1
1025.0647	2980.1188	1935.2	1053.2
1025.1775	2981.192	1914.1	1033.65
1025.2902	2982.2645	1902.15	1021.45
1025.4029	2983.3364	1879.15	995.75
1025.5156	2984.4077	1846.85	964.75
1025.6282	2985.4783	1839.5	950.35
1025.7407	2986.5483	1804.4	923.9
1025.8532	2987.6177	1768.3	887.35
1025.9657	2988.6864	1739.75	857.75
1026.0782	2989.7545	1709.15	827
1026.1906	2990.8219	1679.45	799.35
1026.3029	2991.8887	1641.45	756.45
1026.4152	2992.9548	1612.75	729.1
1026.5275	2994.0204	1582.35	700.55
1026.6397	2995.0852	1550.75	670.25
1026.7519	2996.1495	1529.3	646.8
1026.864	2997.2131	1499.2	618.4
1026.9761	2998.276	1480.4	597.75
1027.0882	2999.3383	1458.6	577
1027.2002	3000.4	1435.75	554.65
1027.3122	3001.4611	1425.75	543.35
1027.4241	3002.5215	1400.1	519.45
1027.536	3003.5812	1390.5	510
1027.6478	3004.6404	1368.95	486.7
1027.7596	3005.6989	1360.15	476.45
1027.8714	3006.7567	1353.6	470.15
1027.9831	3007.8139	1358.75	449.5
1028.0947	3008.8705	1332.6	451.6
1028.2064	3009.9264	1337.15	437.05
1028.3179	3010.9818	1318.05	436.45
1028.4295	3012.0364	1308.7	427.65
1028.541	3013.0905	1300.25	417.4
1028.6524	3014.1439	1302.85	423.2
1028.7638	3015.1966	1284.45	402.7
1028.8752	3016.2487	1283.9	401.3
1028.9865	3017.3002	1287.85	401.45
1029.0978	3018.3511	1283.5	402
1029.209	3019.4013	1284.9	401.7
1029.3202	3020.4509	1275.2	394.5
1029.4314	3021.4998	1278.5	394.9
1029.5425	3022.5481	1269.2	386.7
1029.6535	3023.5958	1274.65	393.7
1029.7645	3024.6428	1270.15	386.35
1029.8755	3025.6892	1269.75	387.75
1029.9864	3026.735	1269.25	387.05
1030.0973	3027.7802	1275.1	392.6
1030.2082	3028.8247	1264	382.9
1030.319	3029.8685	1266	385.3
1030.4297	3030.9118	1274.65	392.15
1030.5404	3031.9544	1271.25	389.6
1030.6511	3032.9963	1273	390.1
1030.7617	3034.0376	1272.85	389.95
1030.8723	3035.0783	1281.8	397.6
1030.9829	3036.1184	1288.8	407.4
1031.0934	3037.1578	1286.7	407.6
1031.2038	3038.1966	1283.65	399.25
1031.3142	3039.2348	1287.9	407.15
1031.4246	3040.2723	1296.05	405.55
1031.5349	3041.3092	1291.8	411.7
1031.6452	3042.3455	1282	399.85
1031.7554	3043.3811	1282.3	400.65
1031.8656	3044.4161	1296.6	413.5
1031.9758	3045.4505	1283.15	401.75
1032.0859	3046.4842	1282.7	401.1
1032.1959	3047.5173	1273.85	392.85
1032.3059	3048.5498	1275.45	394
1032.4159	3049.5816	1268.4	385.35
1032.5258	3050.6128	1270.6	387.45
1032.6357	3051.6434	1266.8	382.65
1032.7455	3052.6734	1266.45	383.15
1032.8553	3053.7027	1261.55	377.7
1032.9651	3054.7314	1259.05	378.35
1033.0748	3055.7594	1252.85	371.2
1033.1845	3056.7868	1251.9	370.4
1033.2941	3057.8136	1248.05	366.65
1033.4037	3058.8398	1239.05	358.5
1033.5132	3059.8653	1241.4	357.45
1033.6227	3060.8902	1242.85	363.15
1033.7321	3061.9145	1241.6	360.85
1033.8415	3062.9381	1232.55	351.15
1033.9509	3063.9612	1244.35	346.2
1034.0602	3064.9835	1235.3	352.4
1034.1694	3066.0053	1223.45	339.75
1034.2787	3067.0264	1222.1	340.9
1034.3878	3068.0469	1215.4	331.8
1034.497	3069.0668	1216.9	331.3
1034.6061	3070.086	1209.55	329.65
1034.7151	3071.1046	1202.85	319.25
1034.8241	3072.1226	1193.05	311.3
1034.9331	3073.1399	1199.5	317.05
1035.042	3074.1567	1188.45	306.7
1035.1508	3075.1727	1176.8	290.9
1035.2597	3076.1882	1168.3	287.65
1035.3684	3077.203	1165.35	283.35
1035.4772	3078.2173	1160.55	278.85
1035.5859	3079.2308	1153.95	269.45
1035.6945	3080.2438	1149	267.95
1035.8031	3081.2561	1141	259.05
1035.9117	3082.2678	1129.7	247.25
1036.0202	3083.2789	1128.25	245.15
1036.1286	3084.2893	1122.15	241.8
1036.2371	3085.2991	1119.8	236.25
1036.3454	3086.3083	1114.7	227.2
1036.4538	3087.3169	1107.1	226.65
1036.562	3088.3248	1106.95	223.5
1036.6703	3089.3321	1100.55	216.6
1036.7785	3090.3388	1095.9	215.2
1036.8866	3091.3449	1089.05	206.2
1036.9948	3092.3503	1088.3	205.7
1037.1028	3093.3551	1087.8	208.55
1037.2108	3094.3593	1077.75	197.2
1037.3188	3095.3629	1080.45	199.75
1037.4267	3096.3658	1075.7	191.7
1037.5346	3097.3681	1074.45	193.15
1037.6425	3098.3698	1074.95	190.9
1037.7503	3099.3708	1073.75	186.45
1037.858	3100.3713	1065.3	182.45
1037.9657	3101.3711	1064.15	180.75
1038.0734	3102.3702	1204.55	181.05
1038.181	3103.3688	1060.15	177.15
1038.2886	3104.3667	1055.8	174.65
1038.3961	3105.364	1055.85	172.25
1038.5036	3106.3607	1054.3	171.1
1038.611	3107.3568	1050.5	166.55
1038.7184	3108.3522	1048.8	167.5
1038.8257	3109.347	1044.3	160.95
1038.933	3110.3412	1048.4	163.1
1039.0403	3111.3348	1040.05	158
1039.1475	3112.3277	1039.8	158.35
1039.2547	3113.32	1036.55	153.6
1039.3618	3114.3117	1034	150.85
1039.4689	3115.3028	1035.3	153
1039.5759	3116.2932	1037.95	155.7
1039.6829	3117.2831	1037.85	149.55
1039.7898	3118.2723	1032.55	150.75
1039.8967	3119.2608	1027.1	142.6
1040.0035	3120.2488	1027.6	147.85
1040.1103	3121.2361	1026.15	145.7
1040.2171	3122.2229	1021.6	140.5
1040.3238	3123.209	1023.1	140.15
1040.4305	3124.1944	1020.1	137.9
1040.5371	3125.1793	1021.2	136.85
1040.6437	3126.1635	1018.45	137.35
1040.7502	3127.1471	1015.6	133.9
1040.8567	3128.1301	1021.5	138.75
1040.9631	3129.1125	1015.35	134.5
1041.0695	3130.0942	1012.2	129.1
1041.1759	3131.0753	1021	130.65
1041.2822	3132.0558	1015.75	132.75
1041.3884	3133.0357	1008.8	126.6
1041.4946	3134.015	1005.85	122
1041.6008	3134.9936	1010.75	128.85
1041.7069	3135.9716	1026.45	124.35
1041.813	3136.949	1008.2	126.2
1041.919	3137.9258	1020.1	120.15
1042.025	3138.902	1011.1	123.1
1042.1309	3139.8775	1002.25	121.95
1042.2368	3140.8524	1004.2	123.05
1042.3427	3141.8267	999	114.15
1042.4485	3142.8004	1005.05	122.65
1042.5542	3143.7735	1004.5	116.5
1042.6599	3144.7459	999.65	116.2
1042.7656	3145.7178	996.45	112.9
1042.8712	3146.689	991.5	111.45
1042.9768	3147.6596	996.25	112.45
1043.0823	3148.6295	993.7	112.1
1043.1878	3149.5989	991.3	110.45
1043.2932	3150.5676	992.2	112.95
1043.3986	3151.5357	990.75	109.55
1043.5039	3152.5032	993.15	112.8
1043.6092	3153.4701	990.1	107.55
1043.7145	3154.4364	989.4	105.3
1043.8197	3155.402	989.85	109.7
1043.9248	3156.367	987.3	103.6
1044.03	3157.3315	1020.4	108.25
1044.135	3158.2952	985.75	105.8
1044.24	3159.2584	985.1	103.7
1044.345	3160.221	985.05	103.6
1044.4499	3161.1829	982.95	102.4
1044.5548	3162.1442	983.4	102.05
1044.6596	3163.105	984.05	101.9
1044.7644	3164.065	981.15	98.5
1044.8692	3165.0245	983.75	99.95
1044.9739	3165.9834	981.15	101.1
1045.0785	3166.9416	978.8	96.95
1045.1831	3167.8993	981.45	99.95
1045.2877	3168.8563	977	95.1
1045.3922	3169.8127	978.95	99.45
1045.4966	3170.7684	976.8	96.35
1045.6011	3171.7236	980.15	96.85
1045.7054	3172.6782	977.5	95.25
1045.8098	3173.6321	976.45	94.75
1045.914	3174.5854	981.1	92.8
1046.0183	3175.5381	973.7	91.5
1046.1224	3176.4902	975.05	93
1046.2266	3177.4417	973.55	91.55
1046.3307	3178.3926	972.15	90.25
1046.4347	3179.3428	969.1	88.95
1046.5387	3180.2924	970.4	90.6
1046.6427	3181.2415	969.55	87.6
1046.7466	3182.1899	971.1	88.65
1046.8504	3183.1377	970.45	87.75
1046.9542	3184.0848	971.85	85.75
1047.058	3185.0314	968.35	83.45
1047.1617	3185.9773	966.95	84.5
1047.2654	3186.9227	971.3	87.3
1047.369	3187.8674	968.45	87.2
1047.4726	3188.8115	971.15	84.4
1047.5761	3189.755	965.7	83.9
1047.6796	3190.6979	964.05	81.45
1047.783	3191.6402	963.8	85.15
1047.8864	3192.5818	962.85	80.35
1047.9898	3193.5229	983.8	83.15
1048.0931	3194.4633	963	81.95
1048.1963	3195.4031	959.5	75.5
1048.2995	3196.3423	962.1	80.65
1048.4027	3197.2809	957.2	74.75
1048.5058	3198.2189	964	81.9
1048.6089	3199.1563	979.45	79.5
1048.7119	3200.0931	961.15	79.4
1048.8148	3201.0292	959.95	81
1048.9178	3201.9648	956.7	75.25
1049.0206	3202.8997	963.3	79.35
1049.1235	3203.834	960.9	78.25
1049.2262	3204.7677	956.9	76.1
1049.329	3205.7008	960.8	76.15
1049.4317	3206.6333	957.4	78.1
1049.5343	3207.5652	961.3	75
1049.6369	3208.4964	957.55	77.55
1049.7394	3209.4271	959.65	78.55
1049.8419	3210.3571	954.4	73.95
1049.9444	3211.2865	957.75	75.6
1050.0468	3212.2154	953.45	70.65
1050.1491	3213.1436	956.9	72.45
1050.2514	3214.0712	961.5	72.45
1050.3537	3214.9982	952.9	71.3
1050.4559	3215.9246	955.2	73.15
1050.5581	3216.8503	953.2	71.5
1050.6602	3217.7755	950.1	68.15
1050.7623	3218.7001	954.1	72.1
1050.8643	3219.624	951.1	69.55
1050.9663	3220.5473	951.75	69.85
1051.0682	3221.4701	951.85	68.55
1051.1701	3222.3922	954.5	72
1051.2719	3223.3137	950.85	67.8
1051.3737	3224.2346	954.9	71.3
1051.4754	3225.1549	945.65	65.6
1051.5771	3226.0746	948.8	65.05
1051.6788	3226.9937	950.3	69.2
1051.7804	3227.9121	947	66.3
1051.8819	3228.83	947.95	68.1
1051.9834	3229.7473	946.35	66.15
1052.0849	3230.6639	949.25	69.35
1052.1863	3231.5799	946.5	64.6
1052.2876	3232.4954	947.3	65.25
1052.3889	3233.4102	945.2	63
1052.4902	3234.3244	945.65	62.25
1052.5914	3235.238	944.65	63.6
1052.6926	3236.151	968.65	61.65
1052.7937	3237.0634	942.95	62.1
1052.8948	3237.9752	945.85	65.9
1052.9958	3238.8864	944.6	62.6
1053.0968	3239.797	944.4	62.8
1053.1977	3240.7069	944.8	61.8
1053.2986	3241.6163	941.15	57.7
1053.3994	3242.5251	940.2	60
1053.5002	3243.4332	939.85	58.35
1053.6009	3244.3408	942.65	59.95
1053.7016	3245.2477	940.65	59.65
1053.8022	3246.154	939.9	57.2
1053.9028	3247.0598	939.5	55.75
1054.0034	3247.9649	935.5	56
1054.1039	3248.8694	939.4	58.85
1054.2043	3249.7733	937.65	55.55
1054.3047	3250.6766	936.9	54.15
1054.4051	3251.5793	940.85	57.45
1054.5054	3252.4814	938.75	57.55
1054.6056	3253.3829	937.25	56.7
1054.7058	3254.2838	935.05	54.15
1054.806	3255.1841	934.4	53.5
1054.9061	3256.0838	934.1	51.15
1055.0061	3256.9829	936.3	57.35
1055.1062	3257.8814	938.45	52.95
1055.2061	3258.7792	935.4	49.65
1055.306	3259.6765	931.9	49
1055.4059	3260.5731	930.3	47.25
1055.5057	3261.4692	931.1	48.1
1055.6055	3262.3647	933.3	51.2
1055.7052	3263.2595	930.7	49.35
1055.8049	3264.1538	928.4	46.2
1055.9045	3265.0474	927.15	45.65
1056.0041	3265.9404	928.65	49.35
1056.1036	3266.8329	925.15	43.5
1056.2031	3267.7247	935.75	43.7
1056.3025	3268.616	927.2	46
1056.4019	3269.5066	921.55	39.15
1056.5013	3270.3966	924.25	41.5
1056.6005	3271.286	918.8	36.8
