Software Version:	3.9.2.0
Unit SN:	10000200
Spectrometer SN:	6960
Date:	3/14/2024 1:29:14 PM
Data Line Index:	25
Spectral Points:	2048
Integration time (ms):	125
Averages:	20
Delay (ms):	30000
Sequence Number:	1
Processing:	dark subtract
Laser Power (mW):	300
Laser Current (mA):	825
Laser Diode Temp (C):	25
Laser Case Temp (C):	28.5
System Temp (C):	28.5
Spectrometer Temp (C):	26.3
CCD Temp (C):	0.004
Secondary Temp (C):	20.007
Heatsink Temp (C):	24.445
CCDPCB Temp (C):	37.819
SecondaryPCB Temp (C):	35.607

Wavelength	RamanShift	Raw Counts	Dark Subtracted
787.061	30.1047	465.9	53.8
787.2016	32.3739	472.95	63.85
787.3422	34.6426	475.05	64.85
787.4828	36.9109	485.55	72.3
787.6235	39.1787	493.55	78.55
787.7642	41.4461	505.8	83.6
787.9049	43.7131	514.2	88.75
788.0456	45.9796	521.55	92.6
788.1863	48.2456	535.6	102.8
788.3271	50.5112	543.05	105.6
788.4679	52.7764	553.75	113.6
788.6087	55.0411	563.65	123.4
788.7496	57.3054	577	130.1
788.8904	59.5692	587.15	137.1
789.0313	61.8326	605.6	153
789.1722	64.0955	621.25	164.7
789.3132	66.3579	641.7	177.9
789.4541	68.6199	659.45	194.6
789.5951	70.8815	696.5	229.9
789.7361	73.1426	787.25	316.15
789.8771	75.4032	1016.15	540.7
790.0181	77.6634	1597.2	1114.8
790.1592	79.9231	2938	2448.05
790.3003	82.1824	5928.45	5425.45
790.4414	84.4412	11381.9	10858.9
790.5825	86.6995	19004.05	18457.65
790.7237	88.9574	26574.65	26004.05
790.8648	91.2148	31791.35	31204.4
791.006	93.4717	34198.7	33600.9
791.1472	95.7282	34688.15	34080.9
791.2885	97.9842	34575	33968.25
791.4297	100.2398	33808.7	33200.75
791.571	102.4949	33065.6	32452.3
791.7123	104.7495	32138.7	31519.2
791.8536	107.0036	31228.3	30609.35
791.9949	109.2573	30415.8	29801.15
792.1363	111.5105	29656.8	29038.05
792.2777	113.7632	28973.95	28353.5
792.4191	116.0154	28437.75	27807.4
792.5605	118.2672	28064.95	27438.45
792.7019	120.5185	27644.45	27020.2
792.8434	122.7693	27405.4	26776.8
792.9849	125.0197	27174.75	26540.8
793.1264	127.2696	26898.45	26266.75
793.2679	129.519	26738.85	26102.1
793.4094	131.7679	26410.2	25773.85
793.551	134.0163	26176.55	25531.5
793.6926	136.2642	25853.5	25206.45
793.8342	138.5117	25478.1	24827.7
793.9758	140.7587	25143.4	24490.95
794.1175	143.0052	24793.95	24140.05
794.2591	145.2512	24446.15	23796.8
794.4008	147.4967	24120.25	23465.85
794.5425	149.7417	23849.45	23197.4
794.6842	151.9863	23707.25	23049.15
794.826	154.2304	23608.85	22946.45
794.9677	156.4739	23434.4	22768.9
795.1095	158.717	23315.05	22646.65
795.2513	160.9596	23158.2	22482.65
795.3931	163.2017	22881.9	22210.85
795.535	165.4433	22591.25	21911.25
795.6768	167.6844	22229.25	21554.35
795.8187	169.925	21913.2	21234.75
795.9606	172.1651	21522.7	20839.9
796.1025	174.4047	21287.4	20601.3
796.2445	176.6439	21027.65	20343.1
796.3864	178.8825	20801.65	20110.15
796.5284	181.1206	20685	19991.5
796.6704	183.3582	20480.3	19779.8
796.8124	185.5954	20376	19675.65
796.9544	187.832	20306.95	19607.55
797.0965	190.0681	20281.4	19575.4
797.2386	192.3037	20270.6	19562.55
797.3806	194.5388	20240.85	19531.85
797.5228	196.7734	20273.35	19561.9
797.6649	199.0075	20339.8	19622.85
797.807	201.2411	20531.85	19812.85
797.9492	203.4742	20565.3	19845.6
798.0914	205.7068	20716.8	19996.8
798.2336	207.9389	20803.05	20086.95
798.3758	210.1704	20983.1	20262.55
798.518	212.4015	21094.05	20363.5
798.6603	214.632	21245.7	20515.2
798.8025	216.862	21399.95	20677.9
798.9448	219.0915	21470.15	20755.2
799.0871	221.3205	21559.75	20852.9
799.2294	223.549	21665.25	20961.15
799.3718	225.777	21796.05	21094.05
799.5141	228.0044	21923.55	21217.9
799.6565	230.2314	22037.95	21335.4
799.7989	232.4578	22182.35	21479.8
799.9413	234.6837	22286.85	21573.05
800.0837	236.909	22419.5	21704.55
800.2262	239.1339	22445.55	21712.9
800.3687	241.3582	22329.8	21606.35
800.5111	243.582	22211.85	21467.35
800.6536	245.8053	22124.3	21381.25
800.7961	248.0281	22022.4	21284.3
800.9387	250.2503	22004.7	21265.3
801.0812	252.472	22034.3	21290.4
801.2238	254.6932	22175.8	21426.35
801.3664	256.9139	22234.8	21483.75
801.509	259.134	22424.55	21671.3
801.6516	261.3536	22643.1	21896.45
801.7942	263.5727	22906.65	22156.1
801.9369	265.7912	23103.35	22351.25
802.0795	268.0092	23441.75	22690
802.2222	270.2267	23628.3	22874
802.3649	272.4436	23722.4	22966.85
802.5076	274.6601	23692.4	22924.55
802.6504	276.8759	23637.95	22879.85
802.7931	279.0913	23530.1	22773.1
802.9359	281.3061	23379.8	22617.4
803.0787	283.5204	23314.1	22553.6
803.2215	285.7341	23257.75	22491.3
803.3643	287.9473	23312.25	22534.7
803.5071	290.16	23406.55	22634.85
803.6499	292.3721	23439.5	22669.45
803.7928	294.5837	23686.4	22921.35
803.9357	296.7947	23923.55	23155.6
804.0786	299.0052	24057.05	23288.55
804.2215	301.2152	24035.95	23264.7
804.3644	303.4246	23853.5	23086.45
804.5074	305.6334	23469.95	22703.4
804.6503	307.8418	23007.35	22234.45
804.7933	310.0495	22606.65	21836.45
804.9363	312.2568	22173.4	21399.95
805.0793	314.4635	21745.1	20973.45
805.2223	316.6696	21432.3	20658.05
805.3653	318.8752	21162.05	20380.6
805.5084	321.0802	21084.1	20309.3
805.6514	323.2847	21034.75	20261.45
805.7945	325.4887	21092.05	20314.75
805.9376	327.692	21099.2	20324.75
806.0807	329.8949	21042.3	20262.6
806.2238	332.0972	20850.7	20068.05
806.367	334.2989	20625.95	19841.95
806.5101	336.5001	20379.15	19597.25
806.6533	338.7007	20129.2	19344.2
806.7965	340.9008	20031.55	19246
806.9397	343.1003	19813.75	19025.3
807.0829	345.2992	19694.35	18905.8
807.2261	347.4976	19541.5	18752.65
807.3693	349.6955	19479.8	18689.15
807.5126	351.8927	19443.65	18651.1
807.6559	354.0895	19328	18525.65
807.7991	356.2856	19344.3	18550.1
807.9424	358.4812	19244.6	18451.6
808.0857	360.6763	19264.85	18470.4
808.2291	362.8707	19257.85	18461.85
808.3724	365.0646	19260.65	18460.9
808.5158	367.258	19263.45	18461.35
808.6591	369.4508	19303.8	18500.25
808.8025	371.643	19432.55	18628.35
808.9459	373.8346	19470.9	18663
809.0893	376.0257	19535.4	18724.95
809.2327	378.2162	19513.8	18706.4
809.3762	380.4062	19540.85	18730
809.5196	382.5956	19414.45	18597.65
809.6631	384.7844	19303.1	18491.45
809.8066	386.9726	19103.2	18289.5
809.9501	389.1603	18994.5	18182.65
810.0936	391.3474	18926.3	18080
810.2371	393.5339	18886.4	18073.25
810.3806	395.7199	18782.9	17977.2
810.5241	397.9052	18824.8	18020.7
810.6677	400.09	18849.65	18046
810.8113	402.2743	19004.05	18201.4
810.9548	404.4579	19155.3	18353.85
811.0984	406.641	19395	18592.15
811.2421	408.8235	19525.05	18721.85
811.3857	411.0054	19691.3	18884.35
811.5293	413.1868	19864.75	19057.75
811.673	415.3675	19912.5	19105.75
811.8166	417.5477	19930.55	19121.85
811.9603	419.7273	19893.5	19082.3
812.104	421.9064	19809.35	18992.75
812.2477	424.0848	19729.95	18912.75
812.3914	426.2627	19542.05	18724.5
812.5351	428.4399	19274.6	18452.6
812.6788	430.6166	18920.4	18096.95
812.8226	432.7928	18547.8	17724.35
812.9663	434.9683	18239.35	17416.9
813.1101	437.1432	18019.6	17194
813.2539	439.3176	17790.75	16964.7
813.3977	441.4914	17679.5	16853.25
813.5415	443.6645	17600.2	16772.4
813.6853	445.8371	17533.9	16706.35
813.8291	448.0091	17429.05	16602.85
813.973	450.1806	17393.65	16565.5
814.1168	452.3514	17329.6	16500.5
814.2607	454.5216	17384.8	16551.25
814.4046	456.6913	17290.9	16459.3
814.5485	458.8603	17349.1	16517.75
814.6924	461.0288	17417.3	16587.15
814.8363	463.1967	17359.7	16528.7
814.9802	465.3639	17390.3	16556.65
815.1241	467.5306	17387.4	16553.5
815.2681	469.6967	17372.3	16544.25
815.412	471.8622	17339.6	16509.3
815.556	474.0271	17394.85	16564.75
815.7	476.1914	17431.25	16599.85
815.844	478.3551	17383.1	16549.25
815.988	480.5182	17461	16626.55
816.132	482.6807	17528.35	16693.2
816.276	484.8426	17717.95	16884.2
816.4201	487.0039	18019.8	17185.15
816.5641	489.1647	18405	17570.3
816.7082	491.3248	18736.3	17901.65
816.8522	493.4843	18848.3	18013.3
816.9963	495.6432	18814.7	17978.05
817.1404	497.8015	18659.25	17821.2
817.2845	499.9592	18553.3	17715.05
817.4286	502.1163	18339.25	17502.1
817.5727	504.2728	17987.3	17145.55
817.7168	506.4287	17704.05	16865.5
817.861	508.5839	17341.1	16501.6
818.0051	510.7386	17089.85	16251.6
818.1493	512.8927	17004.5	16156
818.2935	515.0461	16957.05	16114.7
818.4377	517.199	17030.65	16192.45
818.5818	519.3512	17179.2	16340.5
818.726	521.5029	17414.15	16566.9
818.8703	523.6539	17647.4	16804.45
819.0145	525.8043	17724.45	16878.45
819.1587	527.9541	17657.75	16812.95
819.303	530.1033	17495.65	16652.4
819.4472	532.2519	17329.9	16486.75
819.5915	534.3999	17262.85	16414.9
819.7357	536.5472	17284.75	16437.1
819.88	538.694	17519.5	16672.9
820.0243	540.8401	17806.15	16957.85
820.1686	542.9856	18018.95	17168.6
820.3129	545.1305	18048.75	17200.35
820.4572	547.2748	17940	17090.5
820.6016	549.4185	17760.5	16910.2
820.7459	551.5615	17566.15	16715.65
820.8902	553.704	17555.05	16705.45
821.0346	555.8458	17561.45	16711.25
821.1789	557.987	17731.5	16883.1
821.3233	560.1276	17910.7	17057.2
821.4677	562.2675	18281.2	17435.65
821.6121	564.4069	18756.95	17908.65
821.7565	566.5456	19205.75	18356.1
821.9009	568.6837	19339	18492.5
822.0453	570.8212	18946.85	18101.35
822.1897	572.958	18221.6	17373.35
822.3342	575.0942	17577.2	16730.25
822.4786	577.2299	17116.35	16268.8
822.6231	579.3648	16874.85	16024.4
822.7675	581.4992	16818.65	15970.55
822.912	583.6329	16919.3	16069.9
823.0565	585.766	17077.9	16228.25
823.201	587.8985	17197.25	16346.35
823.3454	590.0304	17226.2	16351.05
823.4899	592.1616	17149.2	16295.45
823.6345	594.2922	17032.75	16182.4
823.779	596.4222	16781.85	15926.35
823.9235	598.5515	16578.95	15723.7
824.068	600.6802	16394.3	15541.5
824.2126	602.8083	16222.85	15368.5
824.3571	604.9358	16177.1	15321.85
824.5017	607.0626	16196.15	15344.45
824.6462	609.1888	16232.25	15377.75
824.7908	611.3144	16376.55	15519.25
824.9354	613.4393	16454.8	15600.15
825.08	615.5636	16567	15712.45
825.2246	617.6873	16556.55	15702.5
825.3692	619.8103	16522.5	15663.2
825.5138	621.9327	16319.85	15463.75
825.6584	624.0544	16097.05	15243.6
825.803	626.1756	15891.9	15038.05
825.9477	628.2961	15746.75	14890.2
826.0923	630.4159	15630.05	14774.65
826.237	632.5351	15624.65	14767.85
826.3816	634.6537	15584.15	14728.1
826.5263	636.7716	15562.55	14704.35
826.6709	638.8889	15552.85	14694.35
826.8156	641.0056	15559.7	14699.85
826.9603	643.1216	15520	14659.85
827.105	645.237	15496.6	14636.5
827.2497	647.3518	15395.15	14534.7
827.3944	649.4659	15312.25	14451.7
827.5391	651.5793	15243.55	14382.45
827.6838	653.6922	15185.3	14328.7
827.8285	655.8043	15162.55	14301.5
827.9733	657.9159	15159.75	14297.25
828.118	660.0268	15121.8	14259.45
828.2627	662.137	15125.75	14262.75
828.4075	664.2466	15092.85	14227.45
828.5522	666.3556	15065.35	14204.4
828.697	668.4639	15025.3	14158.95
828.8418	670.5716	15022.4	14161.5
828.9865	672.6786	14975.35	14111
829.1313	674.785	14870.25	14006.7
829.2761	676.8907	14803.1	13936.65
829.4209	678.9958	14823.15	13960.9
829.5657	681.1002	14763.9	13898.7
829.7105	683.204	14771.85	13906
829.8553	685.3072	14754.55	13887.4
830.0001	687.4097	14699.05	13836.35
830.1449	689.5115	14647.7	13778.2
830.2898	691.6127	14651.35	13787.1
830.4346	693.7132	14602.55	13738.35
830.5794	695.8131	14659.25	13779.45
830.7243	697.9123	14627.95	13759.15
830.8691	700.0109	14645.9	13782.4
831.014	702.1089	14659.05	13793.15
831.1588	704.2061	14694.7	13829.65
831.3037	706.3028	14729.25	13862.35
831.4486	708.3987	14760.85	13893.55
831.5935	710.4941	14758.85	13891.85
831.7383	712.5887	14822.2	13954.95
831.8832	714.6827	14906.35	14036.2
832.0281	716.7761	15045.25	14179.5
832.173	718.8688	15220.25	14350.8
832.3179	720.9608	15352.9	14478.95
832.4628	723.0522	15481.65	14609.05
832.6077	725.1429	15515.45	14645.8
832.7527	727.233	15546.05	14676.15
832.8976	729.3224	15615.7	14744.4
833.0425	731.4112	15522.8	14653.4
833.1874	733.4993	15335.5	14463.4
833.3324	735.5867	15089.95	14219.75
833.4773	737.6735	14864.65	13993.35
833.6222	739.7596	14644.25	13771.4
833.7672	741.845	14491.7	13619.45
833.9122	743.9298	14364	13490
834.0571	746.014	14326.4	13455.3
834.2021	748.0974	14296.75	13422.95
834.347	750.1802	14292.35	13420.5
834.492	752.2624	14283.8	13412.05
834.637	754.3439	14313.85	13441.6
834.782	756.4247	14438.05	13553.8
834.9269	758.5048	14571.45	13702.1
835.0719	760.5843	14825.6	13952.75
835.2169	762.6631	15190.75	14317.05
835.3619	764.7413	15775.5	14903.75
835.5069	766.8188	16508.7	15635.05
835.6519	768.8956	17074.1	16200.15
835.7969	770.9718	17475.8	16602.5
835.9419	773.0473	17429.55	16559.2
836.0869	775.1221	17137.05	16264.5
836.232	777.1962	16827.5	15954.5
836.377	779.2697	16736.9	15865.45
836.522	781.3426	16774.4	15890.45
836.667	783.4147	16902.7	16032.05
836.8121	785.4862	16959.35	16086.75
836.9571	787.557	16798.75	15926.6
837.1021	789.6271	16301.65	15430.35
837.2472	791.6966	15648.5	14779.15
837.3922	793.7654	15019.9	14145.5
837.5373	795.8335	14575.8	13705.3
837.6823	797.901	14219.9	13347.95
837.8274	799.9678	14032.05	13155.3
837.9724	802.0339	13915.7	13042.55
838.1175	804.0993	13871.9	12988.5
838.2626	806.1641	13794.75	12921
838.4076	808.2282	13695.55	12821.45
838.5527	810.2916	13614.5	12736.85
838.6978	812.3544	13556.6	12682.5
838.8428	814.4164	13467.65	12596.65
838.9879	816.4778	13474.35	12598.65
839.133	818.5385	13488.15	12613.15
839.2781	820.5986	13646.5	12773.4
839.4232	822.658	13863.75	12989.9
839.5682	824.7166	14174.55	13298.35
839.7133	826.7747	14676.3	13802
839.8584	828.832	15202.2	14327.05
840.0035	830.8886	15577.1	14702.25
840.1486	832.9446	15777.5	14900.95
840.2937	834.9999	15645.9	14773.1
840.4388	837.0545	15348.1	14470.75
840.5839	839.1085	14996.65	14120.85
840.729	841.1618	14667.75	13790.35
840.8741	843.2143	14422.2	13549.6
841.0192	845.2662	14188.2	13311.55
841.1643	847.3175	14023.25	13147.9
841.3095	849.368	13862.65	12988.9
841.4546	851.4179	13772.25	12897.3
841.5997	853.467	13634.7	12756.95
841.7448	855.5155	13566.1	12688.6
841.8899	857.5633	13487.65	12612.45
842.0351	859.6105	13370.2	12496.8
842.1802	861.6569	13272.65	12394.9
842.3253	863.7027	13189.6	12313.6
842.4704	865.7478	13130.9	12253.2
842.6156	867.7922	13073.05	12196.6
842.7607	869.8359	13016.75	12139.75
842.9058	871.8789	13034.25	12154.8
843.0509	873.9212	13151.3	12243.45
843.1961	875.9629	13182.1	12301.4
843.3412	878.0039	13307.65	12431.55
843.4863	880.0441	13389.25	12511.65
843.6315	882.0837	13433.6	12554.8
843.7766	884.1226	13435.75	12556.7
843.9218	886.1609	13491.55	12613.45
844.0669	888.1984	13587.5	12708.95
844.212	890.2352	13689	12812.8
844.3572	892.2714	13724.65	12841.6
844.5023	894.3069	13667.6	12791.3
844.6475	896.3416	13480.5	12601.8
844.7926	898.3757	13332.9	12452.05
844.9377	900.4091	13238.25	12360.6
845.0829	902.4418	13208.45	12323.25
845.228	904.4739	13188.35	12307.85
845.3732	906.5052	13260.25	12382.45
845.5183	908.5358	13211.65	12332.35
845.6635	910.5658	13069.35	12189.55
845.8086	912.595	12858.35	11977.6
845.9538	914.6236	12628.35	11750.7
846.0989	916.6515	12489.1	11611.1
846.2441	918.6786	12366.35	11483.4
846.3892	920.7051	12334.7	11454.45
846.5344	922.7309	12374.9	11497.35
846.6795	924.756	12345.65	11465.4
846.8246	926.7804	12438.7	11555.9
846.9698	928.8041	12437.85	11555.3
847.1149	930.8272	12488.15	11607.05
847.2601	932.8495	12444.45	11562.35
847.4052	934.8711	12428	11545.95
847.5504	936.892	12336.55	11455.6
847.6955	938.9123	12331.5	11448.85
847.8407	940.9318	12344.95	11467.3
847.9858	942.9506	12289.65	11409.7
848.131	944.9688	12222	11341
848.2761	946.9862	12129.2	11248.95
848.4213	949.003	11984.5	11103.45
848.5664	951.019	11874.65	10995.9
848.7115	953.0344	11802.55	10919.95
848.8567	955.0491	11747.95	10864.75
849.0018	957.063	11808.55	10929
849.147	959.0763	11852.35	10970.6
849.2921	961.0888	11870.15	10987.95
849.4373	963.1007	11932	11050.45
849.5824	965.1119	11933.4	11053.55
849.7275	967.1223	11935.75	11056.6
849.8727	969.1321	11891	11011.75
850.0178	971.1412	11894	11013.05
850.1629	973.1495	11829.95	10951.1
850.3081	975.1572	11871.4	10957.6
850.4532	977.1641	11873.7	10991.9
850.5983	979.1704	11855.3	10973.45
850.7435	981.1759	11772.05	10888.6
850.8886	983.1808	11783.4	10901.9
851.0337	985.1849	11812.65	10918.5
851.1788	987.1884	11859.05	10973.7
851.324	989.1911	11951.65	11068.1
851.4691	991.1932	12011.6	11129.15
851.6142	993.1945	12013.3	11133.45
851.7593	995.1951	11979	11096.2
851.9045	997.1951	11952.95	11065.55
852.0496	999.1943	11894.65	11013.25
852.1947	1001.1928	11884.35	11003.45
852.3398	1003.1906	11924.55	11044.1
852.4849	1005.1877	12031.7	11147.5
852.63	1007.1841	12093.7	11212.85
852.7751	1009.1798	12081.4	11202.15
852.9202	1011.1748	12020.75	11137.8
853.0653	1013.1691	11860.8	10978.25
853.2104	1015.1627	11635.95	10752.45
853.3555	1017.1556	11385.25	10503.2
853.5006	1019.1477	11256.85	10375.9
853.6457	1021.1392	11139	10258.4
853.7908	1023.1299	11079.8	10197.75
853.9359	1025.12	11095.35	10213.25
854.081	1027.1093	11150.35	10269.8
854.2261	1029.0979	11245.4	10366.95
854.3712	1031.0859	11334.7	10454.15
854.5163	1033.0731	11340	10458.7
854.6613	1035.0596	11281.3	10400
854.8064	1037.0454	11161.25	10277.3
854.9515	1039.0304	11054.2	10173.75
855.0965	1041.0148	10907.1	10024
855.2416	1042.9985	10802.1	9922.75
855.3867	1044.9814	10725.55	9844.35
855.5317	1046.9636	10662.2	9777.55
855.6768	1048.9452	10646.2	9765.5
855.8219	1050.926	10698.85	9819.8
855.9669	1052.9061	10688.5	9807
856.112	1054.8855	10693.65	9811.55
856.257	1056.8642	10723.8	9840.8
856.4021	1058.8421	10785.6	9899.3
856.5471	1060.8194	10804.6	9921.6
856.6921	1062.7959	10828.65	9947.45
856.8372	1064.7717	10892.05	10008.8
856.9822	1066.7469	10962.05	10079.5
857.1272	1068.7213	11032.8	10147.55
857.2723	1070.695	11092.15	10211.4
857.4173	1072.6679	11131.7	10250.15
857.5623	1074.6402	11098.7	10216.85
857.7073	1076.6117	11102.05	10215.1
857.8523	1078.5826	10975.85	10094.95
857.9973	1080.5527	10850.7	9965.05
858.1423	1082.5221	10723.45	9838.2
858.2873	1084.4908	10724.65	9839.95
858.4323	1086.4587	10734.7	9851.85
858.5773	1088.426	10773.55	9889.5
858.7223	1090.3925	10772.1	9884.2
858.8673	1092.3584	10801.3	9918.6
859.0123	1094.3235	10764	9883.75
859.1573	1096.2879	10857.75	9973.15
859.3022	1098.2515	10975.3	10094.35
859.4472	1100.2145	11123.85	10239.4
859.5922	1102.1767	11283.15	10398.7
859.7371	1104.1382	11499.45	10618.1
859.8821	1106.099	11775.6	10890.55
860.027	1108.0591	11989.5	11108.3
860.172	1110.0185	12171.9	11286
860.3169	1111.9771	12254.55	11373.45
860.4619	1113.9351	12170.65	11287.85
860.6068	1115.8923	12000.65	11118.35
860.7517	1117.8488	11845.6	10961.15
860.8967	1119.8045	11644.2	10760.5
861.0416	1121.7596	11479.85	10593.45
861.1865	1123.7139	11339.15	10455.65
861.3314	1125.6675	11266.3	10383.15
861.4763	1127.6204	11290.1	10407.25
861.6212	1129.5726	11228.5	10344.7
861.7661	1131.524	11174.6	10293.9
861.911	1133.4748	11004.7	10122.05
862.0559	1135.4248	10835.6	9949.5
862.2008	1137.3741	10654.2	9772.2
862.3457	1139.3226	10533.5	9648.6
862.4905	1141.2705	10483.2	9599.5
862.6354	1143.2176	10378.45	9488.3
862.7803	1145.164	10305.4	9420.25
862.9251	1147.1097	10242.85	9358.7
863.07	1149.0546	10174.6	9291.45
863.2148	1150.9989	10052.4	9168.75
863.3597	1152.9424	9916.2	9033.1
863.5045	1154.8852	9835.25	8951.45
863.6493	1156.8272	9786.3	8904.75
863.7942	1158.7686	9796.6	8905.3
863.939	1160.7092	9826.75	8941.5
864.0838	1162.6491	9855.3	8969.65
864.2286	1164.5883	9940.9	9059.2
864.3734	1166.5267	10054.85	9171.35
864.5182	1168.4644	10179.1	9294.95
864.663	1170.4014	10374.8	9488.45
864.8078	1172.3377	10625.65	9743.95
864.9526	1174.2732	10932.8	10049.2
865.0974	1176.2081	11375.9	10494
865.2421	1178.1421	11853.4	10966.55
865.3869	1180.0755	12390.35	11509.55
865.5317	1182.0082	12759.15	11875.65
865.6764	1183.9401	12930.8	12044.75
865.8212	1185.8713	12841.95	11961.4
865.9659	1187.8017	12500.3	11616.25
866.1106	1189.7315	12083.35	11200
866.2554	1191.6605	11669.75	10757.35
866.4001	1193.5888	11337.65	10453.25
866.5448	1195.5163	11148.6	10265.3
866.6895	1197.4432	11027.45	10141.25
866.8342	1199.3693	10985.8	10102.75
866.9789	1201.2947	10905.2	10013.75
867.1236	1203.2193	10875.55	9990.1
867.2683	1205.1432	10867.95	9983.8
867.413	1207.0664	10830.6	9945.45
867.5576	1208.9889	10803.75	9917.2
867.7023	1210.9106	10801.4	9917.65
867.847	1212.8316	10778.4	9897.35
867.9916	1214.7519	10832.95	9939.85
868.1363	1216.6715	10842.35	9960.3
868.2809	1218.5903	10884.75	10000.2
868.4255	1220.5084	10974.9	10092.4
868.5701	1222.4257	11077	10194.05
868.7148	1224.3424	11159.4	10276.5
868.8594	1226.2583	11294.4	10406.4
869.004	1228.1735	11411.45	10527.6
869.1486	1230.0879	11558.7	10673.05
869.2932	1232.0016	11737.25	10856.15
869.4377	1233.9146	11870.1	10984.4
869.5823	1235.8269	11866.65	10983.1
869.7269	1237.7384	11860.9	10974.85
869.8715	1239.6492	11714.85	10831.25
870.016	1241.5592	11679.4	10796.65
870.1606	1243.4686	11708.5	10824.05
870.3051	1245.3772	11874.7	10991.4
870.4496	1247.285	12051.95	11167.8
870.5941	1249.1922	12248.9	11365.7
870.7387	1251.0986	12438.05	11555
870.8832	1253.0042	12513.45	11630.8
871.0277	1254.9092	12631.1	11746.5
871.1722	1256.8134	12749.5	11864.6
871.3167	1258.7169	12900.8	12016.2
871.4611	1260.6196	13063.95	12181.85
871.6056	1262.5216	13265.95	12380
871.7501	1264.4229	13475.65	12591.5
871.8945	1266.3234	13710.95	12827.7
872.039	1268.2232	13793.5	12909.35
872.1834	1270.1223	13904.65	13019.3
872.3278	1272.0207	13912.25	13027.05
872.4723	1273.9183	13899.65	13010.8
872.6167	1275.8151	13800.65	12917.65
872.7611	1277.7113	13790.75	12905.45
872.9055	1279.6067	13832.8	12948.3
873.0499	1281.5014	14100	13212.55
873.1943	1283.3953	14501.95	13615.45
873.3386	1285.2885	15039.85	14157.1
873.483	1287.181	15566.25	14683.2
873.6274	1289.0727	16147.9	15263.6
873.7717	1290.9637	16498.4	15614.1
873.9161	1292.854	16751.8	15868.15
874.0604	1294.7435	16734.8	15850.25
874.2047	1296.6323	16608.3	15725.3
874.349	1298.5204	16409.25	15523.9
874.4933	1300.4077	16196.9	15311.55
874.6376	1302.2943	15925.85	15040.3
874.7819	1304.1802	15580.5	14698.15
874.9262	1306.0653	15097.2	14209.45
875.0705	1307.9497	14601.85	13717.25
875.2147	1309.8333	14175.7	13291.55
875.359	1311.7162	13821.05	12937.25
875.5032	1313.5984	13593.55	12706.9
875.6475	1315.4798	13477.3	12576.55
875.7917	1317.3605	13364.45	12465.4
875.9359	1319.2405	13231.75	12347.1
876.0801	1321.1197	12975.3	12089.35
876.2243	1322.9982	12676.25	11785.9
876.3685	1324.876	12410.8	11525.3
876.5127	1326.753	12054.9	11171.1
876.6569	1328.6293	11825.2	10937.55
876.801	1330.5048	11645.6	10758.6
876.9452	1332.3796	11469.2	10585.25
877.0893	1334.2537	11372.95	10462.4
877.2335	1336.127	11260.3	10376.5
877.3776	1337.9996	11207.85	10321.8
877.5217	1339.8714	11174.4	10288.3
877.6658	1341.7426	11210.75	10281.45
877.8099	1343.6129	11226.75	10341.35
877.954	1345.4826	11200.05	10315.85
878.0981	1347.3515	11194.25	10306.55
878.2422	1349.2196	11183.75	10299.65
878.3862	1351.087	11200.2	10314.3
878.5303	1352.9537	11252	10369.2
878.6743	1354.8197	11352.4	10468.6
878.8184	1356.6849	11532.65	10646.75
878.9624	1358.5493	11682.45	10796.1
879.1064	1360.4131	11870.75	10986.4
879.2504	1362.276	11999.7	11115.2
879.3944	1364.1383	12042.1	11157.85
879.5384	1365.9998	11900.9	11009.25
879.6823	1367.8606	11569.5	10683.9
879.8263	1369.7206	11187.85	10304.25
879.9702	1371.5799	10856.95	9969.7
880.1142	1373.4384	10544.7	9659.95
880.2581	1375.2962	10312.7	9425.95
880.402	1377.1533	9963.65	9079.7
880.5459	1379.0096	9608.45	8722.2
880.6898	1380.8652	9255.6	8370.3
880.8337	1382.7201	8934.15	8050.75
880.9776	1384.5742	8680.85	7795.9
881.1215	1386.4275	8502.75	7618.25
881.2653	1388.2802	8335.9	7452.05
881.4092	1390.132	8204.85	7319.95
881.553	1391.9832	8138.9	7252.2
881.6968	1393.8336	8043.55	7158.9
881.8406	1395.6832	7995.5	7108.75
881.9844	1397.5322	7963.1	7077.8
882.1282	1399.3803	7914	7025.4
882.272	1401.2278	7863.4	6978.35
882.4158	1403.0745	7865.2	6978.45
882.5595	1404.9204	7832.85	6950.3
882.7033	1406.7656	7838.35	6952.35
882.847	1408.6101	7851.15	6964.95
882.9908	1410.4538	7852.65	6968.45
883.1345	1412.2968	7911.35	7026
883.2782	1414.139	7965.9	7080.1
883.4219	1415.9805	8050.4	7165.85
883.5656	1417.8213	8126.5	7233.3
883.7092	1419.6613	8208.3	7323.85
883.8529	1421.5006	8337.75	7451.4
883.9965	1423.3391	8561.1	7675.65
884.1402	1425.1769	8883.4	7998.15
884.2838	1427.0139	9273.9	8387.35
884.4274	1428.8502	9817.25	8930.55
884.571	1430.6858	10332.35	9447.15
884.7146	1432.5206	10765.6	9880.3
884.8582	1434.3547	10996.15	10111.2
885.0018	1436.188	11015.7	10132.1
885.1453	1438.0206	10928.2	10041.75
885.2889	1439.8524	10778.55	9896
885.4324	1441.6835	10644.95	9757.45
885.5759	1443.5139	10570.45	9682.2
885.7194	1445.3435	10483.6	9596.55
885.8629	1447.1724	10449.05	9564.8
886.0064	1449.0005	10395.35	9511.7
886.1499	1450.8279	10339.9	9453.45
886.2933	1452.6545	10341.1	9456.15
886.4368	1454.4804	10364.65	9480.65
886.5802	1456.3056	10362.85	9472.1
886.7237	1458.13	10272.55	9386.85
886.8671	1459.9536	10128.45	9242.1
887.0105	1461.7766	9857.6	8971.85
887.1539	1463.5987	9556.05	8668.3
887.2972	1465.4202	9190.15	8303.55
887.4406	1467.2409	8872.65	7988.35
887.584	1469.0608	8588.95	7706.25
887.7273	1470.88	8307.25	7419.2
887.8706	1472.6984	8066.65	7181.55
888.0139	1474.5161	7851.9	6964.5
888.1572	1476.3331	7696.15	6813.3
888.3005	1478.1493	7571.9	6686.75
888.4438	1479.9648	7506.7	6622.85
888.5871	1481.7795	7416.4	6530.9
888.7303	1483.5935	7328.2	6443.3
888.8736	1485.4067	7289.2	6403.5
889.0168	1487.2192	7261.2	6376.2
889.16	1489.031	7204.35	6316.55
889.3032	1490.842	7162.75	6278.3
889.4464	1492.6522	7135.05	6247.4
889.5896	1494.4618	7104.4	6217.25
889.7327	1496.2705	7054.35	6168.9
889.8759	1498.0785	7013.4	6127.8
890.019	1499.8858	6956.45	6072.95
890.1622	1501.6924	6927.35	6044.65
890.3053	1503.4981	6879.85	5995.5
890.4484	1505.3032	6824.15	5941.7
890.5914	1507.1075	6789.05	5904
890.7345	1508.911	6762.7	5878.45
890.8776	1510.7138	6713.7	5828.75
891.0206	1512.5159	6662.65	5778.4
891.1637	1514.3172	6641.25	5756.6
891.3067	1516.1178	6570.15	5689.9
891.4497	1517.9176	6561.05	5674.2
891.5927	1519.7166	6494.5	5610.5
891.7357	1521.515	6489.4	5600.5
891.8786	1523.3126	6449.7	5564.9
892.0216	1525.1094	6452.5	5563.6
892.1645	1526.9055	6406.9	5523.2
892.3074	1528.7008	6390.85	5507.65
892.4503	1530.4954	6352.9	5466.25
892.5932	1532.2893	6346.15	5465.1
892.7361	1534.0824	6315	5425.3
892.879	1535.8747	6332.15	5447.55
893.0218	1537.6663	6318.7	5433.25
893.1647	1539.4572	6312.05	5426.1
893.3075	1541.2473	6309.15	5422.95
893.4503	1543.0367	6295.7	5410.1
893.5931	1544.8253	6292.3	5403.7
893.7359	1546.6132	6326	5440.9
893.8787	1548.4003	6366	5470.6
894.0214	1550.1867	6416.95	5523.7
894.1642	1551.9723	6459.35	5570.5
894.3069	1553.7572	6558.25	5673.5
894.4496	1555.5414	6651.55	5767.9
894.5923	1557.3247	6810.55	5924.45
894.735	1559.1074	6994.9	6110.75
894.8777	1560.8893	7151.5	6266.7
895.0204	1562.6705	7306.2	6419.7
895.163	1564.4509	7451.5	6567.35
895.3056	1566.2305	7525.85	6641.6
895.4482	1568.0094	7595.5	6711.8
895.5908	1569.7876	7583.95	6702.1
895.7334	1571.565	7578.4	6693.35
895.876	1573.3417	7548.15	6666
896.0186	1575.1176	7565.2	6680.8
896.1611	1576.8928	7542.55	6657.9
896.3036	1578.6672	7560.95	6677.75
896.4461	1580.4409	7566.05	6681.65
896.5886	1582.2138	7580.05	6694.55
896.7311	1583.986	7645.3	6762.2
896.8736	1585.7575	7734.3	6851.85
897.0161	1587.5282	7819.75	6936.8
897.1585	1589.2981	7932.35	7048.8
897.3009	1591.0673	8046.1	7161.4
897.4433	1592.8358	8123.3	7240.5
897.5857	1594.6035	8249.6	7366.8
897.7281	1596.3704	8335.05	7448.9
897.8705	1598.1366	8425.65	7542.15
898.0128	1599.9021	8495.15	7612
898.1551	1601.6668	8591.5	7705.55
898.2975	1603.4308	8716.9	7832.65
898.4398	1605.194	8867.55	7978.25
898.5821	1606.9564	9065.8	8185.25
898.7243	1608.7182	9344.45	8455.35
898.8666	1610.4791	9625.55	8740.35
899.0088	1612.2394	9957.75	9075.65
899.1511	1613.9988	10290.95	9406.85
899.2933	1615.7576	10618.9	9735.7
899.4355	1617.5156	10841.45	9949.65
899.5776	1619.2728	10957.55	10075
899.7198	1621.0293	10905.05	10022.3
899.862	1622.785	10683.7	9796.5
900.0041	1624.54	10351.45	9466.3
900.1462	1626.2942	9993.4	9109.85
900.2883	1628.0477	9546.05	8658.3
900.4304	1629.8005	9170.15	8282.1
900.5725	1631.5525	8800.05	7916.85
900.7145	1633.3037	8504.55	7620.7
900.8566	1635.0542	8266	7383.75
900.9986	1636.804	8045.35	7161.9
901.1406	1638.553	7955.75	7015.25
901.2826	1640.3013	7819.45	6936.85
901.4245	1642.0488	7770.9	6887.4
901.5665	1643.7955	7805.7	6925.05
901.7085	1645.5416	7834.2	6950.25
901.8504	1647.2868	7917.65	7035.85
901.9923	1649.0313	8001.05	7116.2
902.1342	1650.7751	8166.2	7278.35
902.2761	1652.5181	8299.15	7416.35
902.4179	1654.2604	8460.25	7574.75
902.5598	1656.0019	8672.05	7790
902.7016	1657.7427	8911.4	8026.65
902.8434	1659.4828	9170.5	8288.1
902.9852	1661.222	9362.55	8479.7
903.127	1662.9606	9360.5	8477.3
903.2687	1664.6984	9163.4	8281.3
903.4105	1666.4354	8753.7	7870.95
903.5522	1668.1717	8187.8	7306.85
903.6939	1669.9072	7642.35	6759.25
903.8356	1671.642	7139.8	6253.5
903.9773	1673.3761	6738	5855.55
904.119	1675.1094	6421.85	5540.15
904.2606	1676.8419	6175.4	5291.5
904.4022	1678.5737	5948.15	5066.7
904.5439	1680.3048	5797.7	4914.6
904.6855	1682.0351	5667.45	4786.45
904.827	1683.7646	5535.25	4649.7
904.9686	1685.4934	5466.3	4584.2
905.1101	1687.2215	5367.95	4484.55
905.2517	1688.9488	5299.1	4417.65
905.3932	1690.6754	5259.35	4378.15
905.5347	1692.4012	5188.4	4306.15
905.6761	1694.1263	5153.85	4271.85
905.8176	1695.8506	5106.7	4225.05
905.9591	1697.5742	5068.2	4186.65
906.1005	1699.297	4997.7	4116.05
906.2419	1701.0191	4961.05	4078.85
906.3833	1702.7404	4928.15	4046.75
906.5246	1704.461	4906.1	4022.45
906.666	1706.1808	4860.1	3975.4
906.8073	1707.8999	4856.85	3973.05
906.9487	1709.6182	4810.55	3928.25
907.09	1711.3358	4790.2	3907.4
907.2313	1713.0527	4756	3874.85
907.3725	1714.7688	4722.15	3834.5
907.5138	1716.4841	4707.65	3823.45
907.655	1718.1987	4710.9	3823.75
907.7962	1719.9126	4680.85	3798.45
907.9374	1721.6257	4666.2	3781.05
908.0786	1723.338	4655.85	3773.25
908.2198	1725.0496	4630.15	3746.45
908.3609	1726.7605	4609.8	3726.7
908.502	1728.4706	4598.75	3715.9
908.6431	1730.18	4576.5	3691.45
908.7842	1731.8886	4563.4	3681.4
908.9253	1733.5964	4551.8	3663.35
909.0664	1735.3036	4543.4	3659.2
909.2074	1737.0099	4515.35	3634.15
909.3484	1738.7156	4491.15	3611.3
909.4894	1740.4204	4454.3	3566.75
909.6304	1742.1246	4438.55	3554.25
909.7714	1743.8279	4422.05	3539.4
909.9123	1745.5306	4396.25	3513.25
910.0532	1747.2325	4394.05	3511.95
910.1941	1748.9336	4360.65	3480.75
910.335	1750.634	4355.1	3471.2
910.4759	1752.3336	4331	3448.15
910.6168	1754.0325	4318.75	3436.45
910.7576	1755.7307	4310.1	3428
910.8984	1757.4281	4309.3	3426.9
911.0392	1759.1247	4308.5	3418.3
911.18	1760.8206	4300.6	3414.7
911.3208	1762.5158	4287.05	3400.65
911.4615	1764.2102	4277.35	3395.9
911.6022	1765.9039	4262.95	3381.5
911.7429	1767.5968	4242.85	3359.75
911.8836	1769.289	4233.3	3351.85
912.0243	1770.9804	4212.75	3327.8
912.1649	1772.6711	4212.7	3331.45
912.3056	1774.361	4195.8	3314.45
912.4462	1776.0502	4198.35	3313.55
912.5868	1777.7386	4189.25	3304.95
912.7274	1779.4263	4186.6	3304.85
912.8679	1781.1132	4183.5	3299.65
913.0084	1782.7994	4162.85	3279
913.149	1784.4849	4143.55	3261.2
913.2895	1786.1696	4153.65	3254.8
913.4299	1787.8535	4140.65	3258.45
913.5704	1789.5367	4122.25	3237.6
913.7108	1791.2192	4127.55	3244.95
913.8513	1792.9009	4113.75	3217.75
913.9917	1794.5818	4087.05	3205
914.132	1796.2621	4079.95	3199.1
914.2724	1797.9415	4082.15	3198.1
914.4128	1799.6202	4070.2	3189.6
914.5531	1801.2982	4072.55	3191.65
914.6934	1802.9755	4042.95	3160.85
914.8337	1804.6519	4051.55	3168.05
914.9739	1806.3277	4023.55	3140.65
915.1142	1808.0027	4010.15	3129.15
915.2544	1809.6769	4011.7	3129.25
915.3946	1811.3504	4006.25	3122.2
915.5348	1813.0231	4000.3	3117.5
915.675	1814.6951	3983.65	3100.6
915.8151	1816.3664	3998.25	3112.5
915.9553	1818.0369	3978.8	3097.1
916.0954	1819.7067	3978	3097.05
916.2355	1821.3757	3959.25	3075.9
916.3755	1823.044	3966.4	3086.05
916.5156	1824.7115	3946.2	3063.95
916.6556	1826.3783	3931.55	3050.95
916.7956	1828.0443	3942.7	3061.8
916.9356	1829.7096	3909.35	3026.5
917.0756	1831.3741	3924.95	3037.9
917.2155	1833.0379	3898.05	3017.3
917.3555	1834.701	3919.05	3033.9
917.4954	1836.3633	3894.55	3010.6
917.6353	1838.0248	3884.65	3002.5
917.7751	1839.6856	3891.15	3008.75
917.915	1841.3457	3885.05	3002.85
918.0548	1843.005	3878.3	2996.4
918.1946	1844.6636	3876.45	2994.7
918.3344	1846.3214	3859.95	2977.3
918.4742	1847.9785	3861.3	2980.55
918.6139	1849.6349	3842.25	2957.5
918.7537	1851.2904	3860.4	2969.85
918.8934	1852.9453	3853.1	2969.95
919.0331	1854.5994	3822.25	2939.2
919.1727	1856.2528	3842.15	2955.55
919.3124	1857.9054	3819.9	2939.05
919.452	1859.5572	3806.8	2926.65
919.5916	1861.2083	3825	2941.6
919.7312	1862.8587	3806.1	2927
919.8708	1864.5084	3796.15	2912.05
920.0103	1866.1572	3782.8	2901.4
920.1498	1867.8054	3772.3	2888.6
920.2893	1869.4528	3774.25	2892.7
920.4288	1871.0994	3758.15	2877
920.5683	1872.7453	3749.2	2867.9
920.7077	1874.3905	3760.3	2859
920.8471	1876.0349	3745.45	2863.3
920.9865	1877.6786	3750.1	2868.25
921.1259	1879.3215	3733.15	2849.6
921.2653	1880.9637	3720.5	2837.65
921.4046	1882.6051	3721.1	2838.5
921.5439	1884.2458	3716.35	2833.2
921.6832	1885.8858	3712.2	2829.6
921.8225	1887.525	3693.9	2811.75
921.9617	1889.1634	3673	2789.5
922.101	1890.8011	3660.7	2778.5
922.2402	1892.4381	3659.65	2776.45
922.3794	1894.0743	3653.4	2773.5
922.5185	1895.7098	3656.8	2774.4
922.6577	1897.3446	3650.75	2768.45
922.7968	1898.9786	3626.75	2740.85
922.9359	1900.6118	3633.9	2752.35
923.075	1902.2443	3596.15	2711.1
923.214	1903.8761	3607.4	2725.2
923.3531	1905.5071	3599.45	2716.4
923.4921	1907.1374	3589.9	2707.4
923.6311	1908.7669	3586.55	2704.6
923.77	1910.3957	3597.2	2717.3
923.909	1912.0237	3573.3	2690.65
924.0479	1913.651	3575.75	2694.15
924.1868	1915.2776	3570.8	2688.65
924.3257	1916.9034	3547.95	2667.5
924.4646	1918.5285	3537.35	2657.55
924.6034	1920.1528	3520.5	2638.95
924.7422	1921.7764	3523	2642.1
924.881	1923.3992	3514.25	2632.9
925.0198	1925.0213	3491.45	2609.6
925.1586	1926.6427	3487	2606.9
925.2973	1928.2633	3586.1	2597.75
925.436	1929.8832	3483.2	2599.6
925.5747	1931.5023	3471.8	2590.55
925.7134	1933.1207	3466.05	2585.25
925.852	1934.7383	3446.55	2562.85
925.9906	1936.3552	3446.7	2563.6
926.1292	1937.9714	3435.6	2552.65
926.2678	1939.5868	3433.35	2549.55
926.4064	1941.2015	3412	2529.1
926.5449	1942.8154	3398.9	2518.1
926.6834	1944.4286	3394.15	2511.45
926.8219	1946.041	3406.15	2501.85
926.9604	1947.6528	3387.1	2499.45
927.0988	1949.2637	3358.4	2477.35
927.2372	1950.8739	3349.35	2465.75
927.3756	1952.4834	3335.55	2452.05
927.514	1954.0921	3343.05	2460
927.6523	1955.7001	3338.5	2451.3
927.7907	1957.3074	3326.15	2445.05
927.929	1958.9139	3303.25	2422
928.0673	1960.5197	3301.25	2416.3
928.2055	1962.1247	3291.45	2410.15
928.3438	1963.729	3285.35	2405.15
928.482	1965.3325	3298.45	2391.5
928.6202	1966.9353	3295.4	2415.2
928.7584	1968.5374	3270.75	2388.3
928.8965	1970.1387	3237.1	2357
929.0346	1971.7393	3239.6	2357.85
929.1727	1973.3392	3235.4	2352.7
929.3108	1974.9383	3239.95	2359.05
929.4489	1976.5366	3225.55	2344.15
929.5869	1978.1342	3224.9	2343.25
929.7249	1979.7311	3225.6	2341.8
929.8629	1981.3273	3202.7	2320.7
930.0009	1982.9227	3213.85	2329.7
930.1388	1984.5173	3191.75	2309.3
930.2767	1986.1112	3175.2	2293.3
930.4146	1987.7044	3176.9	2296.2
930.5525	1989.2968	3167.65	2284.05
930.6904	1990.8885	3167.15	2280.85
930.8282	1992.4795	3156.7	2272.25
930.966	1994.0697	3156.65	2274.9
931.1038	1995.6592	3146.7	2265.3
931.2415	1997.2479	3142.45	2260.45
931.3793	1998.8359	3131.3	2249.6
931.517	2000.4232	3124.7	2243.75
931.6547	2002.0097	3125.75	2245.55
931.7923	2003.5955	3100.7	2217.25
931.93	2005.1805	3105.5	2220.6
932.0676	2006.7648	3104.05	2221.3
932.2052	2008.3484	3085.65	2199.9
932.3427	2009.9312	3095.75	2211.7
932.4803	2011.5133	3065.05	2183.15
932.6178	2013.0946	3077.3	2197.55
932.7553	2014.6752	3071.7	2190.2
932.8928	2016.2551	3060.3	2176.3
933.0302	2017.8342	3056.7	2174.65
933.1676	2019.4126	3057.55	2176.15
933.305	2020.9902	3045.2	2163.35
933.4424	2022.5672	3053.7	2170.35
933.5798	2024.1433	3044.7	2157.5
933.7171	2025.7188	3033.7	2154.25
933.8544	2027.2935	3028.2	2143.9
933.9917	2028.8674	3018.95	2139
934.129	2030.4406	3004.75	2123.3
934.2662	2032.0131	2988.55	2106.15
934.4034	2033.5849	2986.5	2096
934.5406	2035.1559	2986.05	2103.85
934.6778	2036.7261	2979.1	2098.25
934.8149	2038.2957	2980.15	2097.35
934.952	2039.8645	2963.15	2081.2
935.0891	2041.4325	2973.35	2090.05
935.2262	2042.9998	2965.15	2082.45
935.3632	2044.5664	2954.2	2071.1
935.5002	2046.1323	2955.1	2072.25
935.6372	2047.6974	2957.1	2074.25
935.7742	2049.2617	2938.4	2058.45
935.9111	2050.8254	2960.45	2045.5
936.048	2052.3883	2949.4	2066.1
936.1849	2053.9504	2924	2042.75
936.3218	2055.5118	2920.5	2039.15
936.4586	2057.0725	2914.55	2027
936.5955	2058.6325	2897.25	2014.8
936.7323	2060.1917	2908	2023.95
936.869	2061.7502	2910.65	2026.35
937.0058	2063.3079	2891.9	2009.8
937.1425	2064.8649	2893.35	2010.35
937.2792	2066.4212	2884.8	2001.3
937.4159	2067.9767	2880.7	1998.45
937.5525	2069.5315	2875.45	1994.15
937.6891	2071.0856	2861.6	1979.15
937.8257	2072.6389	2848.75	1964.1
937.9623	2074.1915	2829.25	1948.5
938.0989	2075.7433	2832.4	1949.3
938.2354	2077.2945	2840.55	1960.4
938.3719	2078.8448	2824.75	1942.05
938.5084	2080.3945	2819.05	1937.6
938.6448	2081.9434	2815.55	1933.2
938.7812	2083.4916	2819.35	1936.9
938.9176	2085.039	2793.85	1911.95
939.054	2086.5857	2779.15	1894.15
939.1903	2088.1317	2793.9	1911.35
939.3267	2089.677	2777.55	1894.75
939.463	2091.2215	2776.05	1894.2
939.5992	2092.7652	2775.15	1894.05
939.7355	2094.3083	2771.05	1887.35
939.8717	2095.8506	2763.15	1884.95
940.0079	2097.3921	2773.15	1891.7
940.1441	2098.933	2758.9	1875.75
940.2802	2100.4731	2752.8	1871.9
940.4163	2102.0124	2781.7	1880.4
940.5524	2103.5511	2751.1	1869.15
940.6885	2105.089	2749.5	1866.8
940.8245	2106.6261	2746.65	1864.75
940.9606	2108.1626	2738.55	1856.15
941.0965	2109.6983	2755.85	1844.95
941.2325	2111.2332	2730.55	1848.35
941.3684	2112.7675	2715.85	1832
941.5044	2114.301	2728.15	1846.5
941.6403	2115.8337	2713.85	1830.3
941.7761	2117.3657	2713.55	1832.4
941.912	2118.897	2704	1820.6
942.0478	2120.4276	2697.75	1810.35
942.1835	2121.9575	2696.95	1815.5
942.3193	2123.4866	2706.05	1811.05
942.455	2125.0149	2687.4	1801.45
942.5907	2126.5426	2671.85	1789.85
942.7264	2128.0695	2664.65	1779.5
942.8621	2129.5956	2671.95	1791.15
942.9977	2131.1211	2668.35	1782.15
943.1333	2132.6458	2656.95	1776.2
943.2689	2134.1698	2651.2	1769.95
943.4044	2135.693	2658.3	1774
943.54	2137.2155	2649.9	1765.95
943.6755	2138.7373	2641.6	1760.15
943.8109	2140.2584	2638.8	1754.55
943.9464	2141.7787	2635.05	1746.65
944.0818	2143.2983	2627.95	1746.8
944.2172	2144.8171	2624.55	1742.75
944.3526	2146.3353	2601.95	1717.55
944.4879	2147.8527	2605.95	1725.65
944.6232	2149.3693	2592.45	1709.95
944.7585	2150.8853	2599.4	1713.95
944.8938	2152.4005	2580.75	1699
945.029	2153.9149	2592.05	1710.45
945.1642	2155.4287	2584.25	1702.65
945.2994	2156.9417	2578.4	1693.2
945.4346	2158.454	2571.75	1685.7
945.5697	2159.9655	2569.55	1689.6
945.7048	2161.4764	2565.55	1684.15
945.8399	2162.9865	2563.55	1681.65
945.9749	2164.4958	2558.45	1674.35
946.1099	2166.0045	2554.55	1668.95
946.2449	2167.5124	2543.6	1658.8
946.3799	2169.0195	2544.85	1664.55
946.5148	2170.526	2544.4	1662.85
946.6498	2172.0317	2536.05	1652.8
946.7846	2173.5367	2533.55	1652
946.9195	2175.0409	2524.45	1643.85
947.0543	2176.5445	2527.2	1646.4
947.1891	2178.0473	2523.5	1642.6
947.3239	2179.5494	2518.85	1633.85
947.4587	2181.0507	2516.15	1635.8
947.5934	2182.5513	2506.7	1623.95
947.7281	2184.0512	2506.7	1625.15
947.8628	2185.5504	2493.85	1613.1
947.9974	2187.0488	2493.2	1608.25
948.132	2188.5465	2476.05	1596.25
948.2666	2190.0435	2461.75	1577.95
948.4012	2191.5397	2470.85	1590.4
948.5357	2193.0353	2479.75	1598.9
948.6702	2194.5301	2459.05	1575.9
948.8047	2196.0241	2453.4	1570.85
948.9392	2197.5175	2464.15	1584.5
949.0736	2199.0101	2449.95	1565.2
949.208	2200.502	2447.85	1567.2
949.3424	2201.9931	2442.9	1560.5
949.4767	2203.4835	2436.05	1552.75
949.611	2204.9733	2429.75	1541.35
949.7453	2206.4622	2423.05	1539
949.8796	2207.9505	2417.95	1532.7
950.0138	2209.438	2417.1	1535.2
950.148	2210.9248	2402.8	1519.4
950.2822	2212.4109	2399.3	1519.5
950.4164	2213.8962	2399.55	1515.15
950.5505	2215.3809	2394.2	1511.3
950.6846	2216.8648	2396.65	1515.35
950.8186	2218.3479	2389.25	1502.35
950.9527	2219.8304	2387.45	1501.75
951.0867	2221.3121	2381.7	1497.8
951.2207	2222.7931	2367.35	1485.95
951.3546	2224.2733	2366.2	1485.55
951.4886	2225.7529	2362.45	1478.25
951.6225	2227.2317	2353.35	1470.1
951.7563	2228.7098	2343.15	1459.9
951.8902	2230.1872	2347.45	1465.95
952.024	2231.6638	2341.35	1460.45
952.1578	2233.1397	2347.35	1460.35
952.2916	2234.6149	2330.25	1449.1
952.4253	2236.0894	2326.05	1441.45
952.559	2237.5632	2330.25	1438.7
952.6927	2239.0362	2317.1	1434.65
952.8263	2240.5085	2311.5	1428.75
952.9599	2241.9801	2301.35	1418.9
953.0935	2243.4509	2306.25	1422.95
953.2271	2244.921	2298.05	1417.45
953.3606	2246.3904	2298.65	1413.7
953.4941	2247.8591	2302.35	1421.1
953.6276	2249.3271	2278.9	1396.5
953.7611	2250.7943	2280.15	1396.4
953.8945	2252.2608	2281.35	1398.3
954.0279	2253.7266	2262.05	1381.05
954.1612	2255.1917	2268.15	1384.75
954.2946	2256.656	2270.65	1390
954.4279	2258.1197	2257	1373.3
954.5612	2259.5826	2258.3	1372.05
954.6944	2261.0447	2255.75	1372.05
954.8276	2262.5062	2244.7	1360
954.9608	2263.9669	2252.95	1369
955.094	2265.4269	2234.65	1355.05
955.2271	2266.8862	2241.95	1360
955.3602	2268.3448	2229.55	1347.95
955.4933	2269.8026	2231.4	1346.1
955.6264	2271.2598	2230	1347.2
955.7594	2272.7162	2217.65	1335.4
955.8924	2274.1719	2222.15	1340.85
956.0253	2275.6268	2207.9	1326.05
956.1583	2277.0811	2210.9	1327.1
956.2912	2278.5346	2211.8	1331
956.4241	2279.9874	2208.8	1326.4
956.5569	2281.4395	2205.5	1323.2
956.6897	2282.8908	2202.5	1316.2
956.8225	2284.3414	2203.5	1320.75
956.9553	2285.7914	2205.55	1324.25
957.088	2287.2406	2198.15	1315.65
957.2207	2288.689	2192.7	1311.55
957.3534	2290.1368	2186.05	1304.4
957.486	2291.5838	2178.3	1292.55
957.6186	2293.0302	2175.45	1294.05
957.7512	2294.4758	2176.1	1292.95
957.8838	2295.9206	2167.55	1281.95
958.0163	2297.3648	2162.3	1280.3
958.1488	2298.8082	2166.7	1281
958.2813	2300.251	2154.4	1272.5
958.4137	2301.693	2159.05	1273.95
958.5461	2303.1343	2153.75	1269
958.6785	2304.5748	2148.2	1265.4
958.8108	2306.0147	2151	1267.2
958.9432	2307.4538	2148.2	1262.05
959.0754	2308.8922	2133.95	1254.45
959.2077	2310.3299	2135.4	1253.7
959.3399	2311.7669	2133.75	1253.4
959.4721	2313.2031	2124.1	1243.15
959.6043	2314.6387	2127.7	1244.65
959.7365	2316.0735	2113.15	1231.05
959.8686	2317.5076	2115.45	1232.85
960.0006	2318.941	2107.45	1225.35
960.1327	2320.3737	2107.6	1225.3
960.2647	2321.8056	2100.65	1216.3
960.3967	2323.2369	2112.5	1229.9
960.5287	2324.6674	2114.75	1231.2
960.6606	2326.0972	2103.65	1219.65
960.7925	2327.5263	2089.35	1207.35
960.9244	2328.9547	2096.15	1213.6
961.0562	2330.3823	2093.05	1209.25
961.1881	2331.8092	2085.05	1200
961.3198	2333.2355	2083.65	1200.95
961.4516	2334.661	2072.6	1191.05
961.5833	2336.0858	2081.2	1196.95
961.715	2337.5098	2073.6	1191.8
961.8467	2338.9332	2071.35	1189.75
961.9783	2340.3558	2067.2	1181.35
962.1099	2341.7778	2067.5	1185.35
962.2415	2343.199	2054.75	1170.95
962.373	2344.6195	2051.25	1170.2
962.5045	2346.0393	2060.85	1178.55
962.636	2347.4583	2050.8	1166.85
962.7675	2348.8767	2046.05	1162.9
962.8989	2350.2943	2045.4	1162.1
963.0303	2351.7113	2048.7	1164.8
963.1617	2353.1275	2038.45	1156.4
963.293	2354.543	2058.7	1152.8
963.4243	2355.9578	2035	1152.75
963.5556	2357.3718	2028.75	1147.3
963.6868	2358.7852	2026.6	1141.9
963.818	2360.1978	2027.15	1145.05
963.9492	2361.6098	2022.45	1141.45
964.0803	2363.021	2022.75	1137.45
964.2114	2364.4315	2017.95	1136.3
964.3425	2365.8413	2006.1	1124.5
964.4736	2367.2504	2002.95	1123.15
964.6046	2368.6587	1999.3	1115.9
964.7356	2370.0664	2004.15	1122.45
964.8666	2371.4733	1999.35	1117.35
964.9975	2372.8795	2003.85	1122.7
965.1284	2374.285	1993.9	1110.7
965.2593	2375.6899	1987.75	1106.5
965.3901	2377.0939	1978.4	1097.1
965.5209	2378.4973	1975.55	1094.25
965.6517	2379.9	1974.05	1091.55
965.7825	2381.3019	1973.95	1093.1
965.9132	2382.7032	1968.8	1087.1
966.0439	2384.1037	1968.25	1089.25
966.1745	2385.5035	1964.55	1081.65
966.3051	2386.9027	1957.4	1076.35
966.4357	2388.3011	1957.2	1071.3
966.5663	2389.6987	1958.85	1075.6
966.6968	2391.0957	1958.35	1076.7
966.8273	2392.492	1939.85	1060.05
966.9578	2393.8876	1936.05	1051.95
967.0882	2395.2824	1939.1	1058.6
967.2186	2396.6765	1923.75	1040.7
967.349	2398.07	1915.9	1034.75
967.4793	2399.4627	1920.05	1036.9
967.6097	2400.8547	1914.45	1032.05
967.7399	2402.246	1922.05	1034.85
967.8702	2403.6366	1912.15	1030.45
968.0004	2405.0265	1914.5	1031.15
968.1306	2406.4156	1913.9	1027.3
968.2607	2407.8041	1910.55	1026.4
968.3909	2409.1918	1901.85	1017.95
968.521	2410.5789	1898.45	1014.8
968.651	2411.9652	1899.4	1014.55
968.781	2413.3508	1881.4	1000.5
968.911	2414.7358	1879	995.15
969.041	2416.12	1872.65	993.3
969.1709	2417.5035	1883.8	1001.4
969.3008	2418.8863	1893.25	1010.2
969.4307	2420.2684	1882	1000.05
969.5606	2421.6497	1870.75	988.6
969.6904	2423.0304	1865.25	983.15
969.8201	2424.4104	1867.15	984.7
969.9499	2425.7896	1869.45	980.3
970.0796	2427.1682	1863.8	983.7
970.2093	2428.546	1859	974.15
970.3389	2429.9232	1857.7	974.55
970.4685	2431.2996	1858.2	977.55
970.5981	2432.6753	1855.3	973.6
970.7277	2434.0503	1848.3	965.95
970.8572	2435.4246	1838.25	955.25
970.9867	2436.7982	1839	954.1
971.1161	2438.1711	1837.55	957.45
971.2456	2439.5433	1836.8	952.2
971.375	2440.9148	1836.9	951.6
971.5043	2442.2856	1828.25	947.35
971.6336	2443.6557	1818.45	933.65
971.7629	2445.025	1813.7	932.8
971.8922	2446.3937	1822.85	938.7
972.0214	2447.7617	1813.65	931.1
972.1506	2449.1289	1815.8	934
972.2798	2450.4955	1825.15	940.5
972.4089	2451.8613	1810.2	930.05
972.538	2453.2265	1804.3	921.5
972.6671	2454.5909	1800.8	919.35
972.7961	2455.9546	1801.9	920.05
972.9251	2457.3177	1787.6	905.95
973.0541	2458.68	1798.4	916.65
973.1831	2460.0416	1797.85	916.9
973.312	2461.4025	1794.25	910.35
973.4408	2462.7627	1801.5	909.1
973.5697	2464.1222	1791.75	909.05
973.6985	2465.4811	1790.1	907.5
973.8273	2466.8392	1781.55	896.75
973.956	2468.1966	1788.65	905.2
974.0847	2469.5533	1783.7	899.9
974.2134	2470.9093	1786.15	902.9
974.3421	2472.2645	1786.4	903.8
974.4707	2473.6191	1773.4	892.8
974.5993	2474.973	1775.25	894.9
974.7278	2476.3262	1773.3	891.25
974.8563	2477.6787	1775.95	893.25
974.9848	2479.0305	1772.3	889.7
975.1132	2480.3816	1756.3	871.85
975.2417	2481.7319	1762.65	882
975.37	2483.0816	1763.2	878.5
975.4984	2484.4306	1760.5	875.3
975.6267	2485.7789	1756.1	874.35
975.755	2487.1264	1746.7	864.7
975.8833	2488.4733	1745.9	865.4
976.0115	2489.8195	1755.2	867.7
976.1397	2491.165	1751.2	867.25
976.2678	2492.5097	1736.6	853.5
976.3959	2493.8538	1733.7	852.3
976.524	2495.1972	1730.25	847.5
976.6521	2496.5398	1726.7	842
976.7801	2497.8818	1728.1	844.45
976.9081	2499.2231	1722.65	840.75
977.036	2500.5637	1724.95	840.85
977.164	2501.9035	1712	829.5
977.2918	2503.2427	1716.1	830.65
977.4197	2504.5812	1714.45	834.55
977.5475	2505.919	1719.2	835.6
977.6753	2507.256	1714.1	833.8
977.8031	2508.5924	1706.85	823.3
977.9308	2509.9281	1709.6	822
978.0585	2511.2631	1708.25	825.65
978.1861	2512.5974	1705.25	823.35
978.3137	2513.9309	1698.1	816.45
978.4413	2515.2638	1722.35	811.2
978.5689	2516.596	1699.45	818.75
978.6964	2517.9275	1702.5	820.85
978.8239	2519.2583	1687.65	804.9
978.9513	2520.5884	1694.25	810.7
979.0788	2521.9178	1689.45	808.2
979.2062	2523.2465	1683.65	802.55
979.3335	2524.5745	1687.45	805.45
979.4608	2525.9018	1676.45	794.65
979.5881	2527.2284	1667.05	786.25
979.7154	2528.5543	1667.7	786.6
979.8426	2529.8796	1670.85	789.9
979.9698	2531.2041	1670.6	789.15
980.0969	2532.5279	1667.3	787.05
980.224	2533.851	1681.5	799.9
980.3511	2535.1735	1672.1	791.95
980.4781	2536.4952	1663.3	781.25
980.6052	2537.8163	1659.1	776.55
980.7321	2539.1366	1660.5	779.75
980.8591	2540.4562	1658.5	774.8
980.986	2541.7752	1669.15	787.8
981.1129	2543.0935	1654.35	771.55
981.2397	2544.411	1660	779.25
981.3665	2545.7279	1654.7	773.25
981.4933	2547.0441	1658.75	778.2
981.62	2548.3596	1660.75	775.4
981.7467	2549.6744	1655.35	776
981.8734	2550.9885	1651.1	765.6
982.0001	2552.3019	1641.5	761.8
982.1267	2553.6146	1650.35	768.85
982.2532	2554.9266	1645.35	763.75
982.3798	2556.2379	1638.3	753.65
982.5063	2557.5485	1637.35	756.45
982.6327	2558.8585	1646.8	755.15
982.7592	2560.1677	1645	758.3
982.8856	2561.4762	1641.85	759.35
983.0119	2562.7841	1634.15	749.55
983.1383	2564.0913	1636.05	756.4
983.2646	2565.3977	1635	752.55
983.3908	2566.7035	1625.7	744.6
983.517	2568.0086	1626	742
983.6432	2569.313	1630.95	747.9
983.7694	2570.6167	1632.1	747.5
983.8955	2571.9197	1631.2	752.1
984.0216	2573.222	1630.25	746.65
984.1476	2574.5236	1630.7	748.1
984.2737	2575.8246	1623.9	738.45
984.3996	2577.1248	1629.35	746.35
984.5256	2578.4244	1625	743.25
984.6515	2579.7232	1626.85	744.35
984.7774	2581.0214	1657.15	746.35
984.9032	2582.3189	1625.25	742.5
985.029	2583.6157	1622.15	736.3
985.1548	2584.9118	1625	741.35
985.2806	2586.2072	1611.1	730.65
985.4063	2587.5019	1615.15	734.7
985.5319	2588.7959	1618.2	736.65
985.6576	2590.0893	1620.15	738.15
985.7832	2591.3819	1625.4	743.6
985.9087	2592.6739	1619.4	739.65
986.0343	2593.9652	1617.2	735.25
986.1597	2595.2557	1613.95	732.7
986.2852	2596.5456	1617.85	734.95
986.4106	2597.8348	1613.65	732.25
986.536	2599.1234	1616.85	735.7
986.6614	2600.4112	1614.2	732.2
986.7867	2601.6983	1619.25	733.75
986.912	2602.9848	1619.95	738
987.0372	2604.2705	1620.75	730.95
987.1624	2605.5556	1615.75	733.1
987.2876	2606.84	1609.85	729.05
987.4128	2608.1237	1617.05	734.35
987.5379	2609.4067	1609.6	725.9
987.6629	2610.689	1606.75	715.65
987.788	2611.9707	1610.95	725.65
987.913	2613.2516	1603.7	718.4
988.0379	2614.5319	1588.15	708
988.1629	2615.8115	1588.55	704.5
988.2878	2617.0903	1591.35	707.1
988.4126	2618.3685	1588.4	704.65
988.5375	2619.6461	1589.9	709.55
988.6622	2620.9229	1585.55	703.9
988.787	2622.199	1589.5	707.45
988.9117	2623.4745	1587.05	705.9
989.0364	2624.7493	1579.9	698.7
989.161	2626.0234	1579.45	700.5
989.2857	2627.2968	1569.7	687.75
989.4102	2628.5695	1574.85	690.1
989.5348	2629.8415	1583.25	703.2
989.6593	2631.1128	1569.4	684.9
989.7837	2632.3835	1564.75	683.65
989.9082	2633.6535	1556.15	673.25
990.0326	2634.9228	1566	685.3
990.1569	2636.1914	1567.5	688.35
990.2812	2637.4593	1562.5	680.35
990.4055	2638.7265	1562.35	679.1
990.5298	2639.9931	1564.05	682
990.654	2641.259	1550	666.3
990.7782	2642.5242	1555.65	674.65
990.9023	2643.7887	1549.65	668.6
991.0264	2645.0525	1552.85	670.25
991.1505	2646.3156	1548.45	665.6
991.2745	2647.5781	1542.4	659.95
991.3985	2648.8398	1533.85	652
991.5225	2650.1009	1578.75	658.4
991.6464	2651.3613	1536.65	655.5
991.7703	2652.6211	1537.25	656.4
991.8942	2653.8801	1538.25	657.4
992.018	2655.1385	1537.8	654.05
992.1418	2656.3961	1534.95	654.05
992.2655	2657.6531	1536.55	656.1
992.3892	2658.9094	1535.2	651.65
992.5129	2660.1651	1540.9	659.8
992.6366	2661.42	1533.85	650.6
992.7602	2662.6743	1545.1	663.85
992.8837	2663.9279	1539.6	659.7
993.0073	2665.1808	1535.3	653.85
993.1307	2666.433	1538.8	655.4
993.2542	2667.6846	1539.2	657.6
993.3776	2668.9354	1547.25	662.45
993.501	2670.1856	1546.15	664.3
993.6244	2671.4351	1546.75	667.15
993.7477	2672.6839	1550.1	666.7
993.8709	2673.9321	1545.65	665.2
993.9942	2675.1795	1555.25	673.4
994.1174	2676.4263	1547.35	667.25
994.2405	2677.6724	1550.65	669.25
994.3637	2678.9179	1551.9	670.4
994.4868	2680.1626	1551.55	670.2
994.6098	2681.4067	1543.7	663.75
994.7328	2682.6501	1545.45	664.1
994.8558	2683.8928	1546.4	666.65
994.9788	2685.1348	1536.6	654.45
995.1017	2686.3761	1542.75	661
995.2245	2687.6168	1532.1	650.15
995.3474	2688.8568	1531.75	650.9
995.4702	2690.0961	1525.55	646.75
995.5929	2691.3348	1531.3	647.1
995.7156	2692.5727	1517.15	636.3
995.8383	2693.81	1513.3	631.25
995.961	2695.0466	1518.9	639.75
996.0836	2696.2826	1523.15	640.5
996.2062	2697.5178	1514.45	627.95
996.3287	2698.7524	1513.1	632.45
996.4512	2699.9863	1520.6	639.2
996.5737	2701.2195	1521.35	640.4
996.6961	2702.452	1523.7	639.55
996.8185	2703.6839	1524	642.1
996.9408	2704.9151	1530.5	649.4
997.0631	2706.1456	1538.5	655.95
997.1854	2707.3755	1533.85	651.35
997.3077	2708.6046	1548.7	663.85
997.4299	2709.8331	1554.45	672.8
997.552	2711.0609	1557.15	676.1
997.6742	2712.2881	1560.6	680.2
997.7963	2713.5145	1579	695.5
997.9183	2714.7403	1584.65	705
998.0403	2715.9654	1586.15	703.7
998.1623	2717.1899	1607.95	711.25
998.2842	2718.4136	1605.7	725.3
998.4062	2719.6367	1618.45	737
998.528	2720.8591	1637.35	748.45
998.6498	2722.0809	1637.3	755.75
998.7716	2723.3019	1654.8	771.5
998.8934	2724.5223	1662.65	780.05
999.0151	2725.7421	1659.7	776.45
999.1368	2726.9611	1663.7	779.7
999.2584	2728.1795	1668.35	781.2
999.38	2729.3972	1657.45	774
999.5016	2730.6142	1649.5	755.45
999.6231	2731.8306	1630.25	748.1
999.7446	2733.0462	1612.45	727.65
999.8661	2734.2612	1603.35	714.8
999.9875	2735.4756	1583.5	699.75
1000.1089	2736.6892	1567	683.4
1000.2302	2737.9022	1559	679.05
1000.3515	2739.1145	1543.45	660.25
1000.4728	2740.3262	1532.2	641.75
1000.594	2741.5372	1521.4	640.6
1000.7152	2742.7475	1504.7	625.7
1000.8363	2743.9571	1499.55	615.8
1000.9575	2745.1661	1496.15	610.05
1001.0785	2746.3744	1476.8	596.3
1001.1996	2747.582	1465.7	582.9
1001.3206	2748.7889	1469.15	586.3
1001.4415	2749.9952	1457.9	575.55
1001.5625	2751.2008	1452.1	567.35
1001.6833	2752.4057	1454.4	571.65
1001.8042	2753.61	1441.6	558.4
1001.925	2754.8136	1449.15	564.7
1002.0458	2756.0165	1441.9	561.15
1002.1665	2757.2188	1442.3	560.35
1002.2872	2758.4204	1433.7	552.9
1002.4078	2759.6213	1436.8	552.8
1002.5285	2760.8215	1443.9	556.4
1002.649	2762.0211	1436.15	552.2
1002.7696	2763.22	1430	546.45
1002.8901	2764.4182	1434.35	550.45
1003.0106	2765.6158	1430.95	547.35
1003.131	2766.8127	1431.75	547.95
1003.2514	2768.009	1425.7	544.8
1003.3717	2769.2045	1422.55	540.05
1003.492	2770.3994	1416.45	532.75
1003.6123	2771.5936	1409.55	529.55
1003.7325	2772.7872	1407.8	528.6
1003.8527	2773.9801	1411.1	528.45
1003.9729	2775.1723	1421.95	521.75
1004.093	2776.3639	1407.85	527.4
1004.2131	2777.5548	1408.9	524.7
1004.3331	2778.745	1405.05	521
1004.4531	2779.9346	1404.5	523.7
1004.5731	2781.1235	1410.25	526.85
1004.693	2782.3117	1402.75	521.95
1004.8129	2783.4992	1402.15	520.6
1004.9328	2784.6861	1407.55	527.9
1005.0526	2785.8723	1418.15	535.55
1005.1723	2787.0579	1419.9	536.05
1005.2921	2788.2428	1419.3	539
1005.4118	2789.427	1426.2	544.45
1005.5314	2790.6106	1424.4	542.45
1005.651	2791.7935	1431.3	548.25
1005.7706	2792.9757	1439.1	557.25
1005.8902	2794.1573	1449.45	565.2
1006.0097	2795.3382	1458.65	578.15
1006.1291	2796.5184	1466.35	586.25
1006.2485	2797.698	1481.45	597.25
1006.3679	2798.8769	1486.85	604.45
1006.4873	2800.0551	1494.45	613.25
1006.6066	2801.2327	1507.15	623.15
1006.7258	2802.4096	1528.8	648.65
1006.8451	2803.5859	1538.55	655.55
1006.9642	2804.7615	1544.65	662.8
1007.0834	2805.9364	1570.3	689.65
1007.2025	2807.1106	1593	710.5
1007.3216	2808.2842	1612.55	728.9
1007.4406	2809.4572	1644.75	763.25
1007.5596	2810.6294	1665.1	781.8
1007.6785	2811.801	1703	823.8
1007.7975	2812.972	1733.2	851.75
1007.9163	2814.1423	1772.25	890.8
1008.0352	2815.3119	1821	940.45
1008.154	2816.4808	1861.3	980.05
1008.2727	2817.6491	1918.75	1037
1008.3914	2818.8167	1969.35	1087.35
1008.5101	2819.9837	2015.3	1127.8
1008.6288	2821.15	2069.8	1189.4
1008.7474	2822.3157	2127	1246.6
1008.8659	2823.4807	2184.4	1300.55
1008.9844	2824.645	2236.25	1354.1
1009.1029	2825.8086	2301.35	1418.3
1009.2214	2826.9716	2359.35	1479.8
1009.3398	2828.134	2399.15	1517.95
1009.4581	2829.2957	2443.9	1562.4
1009.5764	2830.4567	2492.2	1611.95
1009.6947	2831.617	2503.4	1622.1
1009.813	2832.7767	2522.95	1641.55
1009.9312	2833.9358	2523.65	1643.15
1010.0493	2835.0941	2519.9	1635.6
1010.1675	2836.2519	2496.3	1615.2
1010.2855	2837.4089	2480.65	1598
1010.4036	2838.5653	2466.65	1586.15
1010.5216	2839.7211	2444	1563.3
1010.6396	2840.8761	2445.7	1563.05
1010.7575	2842.0306	2462.55	1584.35
1010.8754	2843.1843	2465.1	1584.25
1010.9932	2844.3374	2497.5	1615.8
1011.111	2845.4899	2541.55	1658.55
1011.2288	2846.6417	2582.7	1702
1011.3465	2847.7928	2642.35	1761.55
1011.4642	2848.9433	2697.1	1814.05
1011.5818	2850.0931	2750.6	1869.55
1011.6995	2851.2422	2823.85	1940.05
1011.817	2852.3907	2886.05	2004.45
1011.9345	2853.5385	2935.4	2050.85
1012.052	2854.6857	2999.7	2092.65
1012.1695	2855.8323	3026.85	2148
1012.2869	2856.9781	3071.2	2188.9
1012.4042	2858.1233	3131.55	2250.65
1012.5216	2859.2679	3183.45	2301.7
1012.6389	2860.4118	3226.05	2344.85
1012.7561	2861.555	3271.1	2384.5
1012.8733	2862.6976	3312.6	2428.1
1012.9905	2863.8395	3363.65	2482.55
1013.1076	2864.9808	3382	2499.85
1013.2247	2866.1214	3402.9	2522.55
1013.3417	2867.2614	3429.2	2546.25
1013.4587	2868.4007	3450.95	2568.65
1013.5757	2869.5393	3453	2569.7
1013.6926	2870.6773	3468.1	2582.7
1013.8095	2871.8146	3494.85	2612.35
1013.9263	2872.9513	3474.65	2590.35
1014.0431	2874.0874	3467.15	2585.9
1014.1599	2875.2227	3476.85	2594.35
1014.2766	2876.3574	3442.35	2563.1
1014.3933	2877.4915	3418.55	2537.3
1014.51	2878.6249	3385.5	2505.6
1014.6266	2879.7577	3369.75	2487.15
1014.7431	2880.8898	3366.45	2473.3
1014.8596	2882.0212	3353.1	2473.8
1014.9761	2883.152	3334.55	2453.2
1015.0925	2884.2821	3318.8	2439.1
1015.2089	2885.4116	3305.5	2423.7
1015.3253	2886.5405	3314.7	2432.15
1015.4416	2887.6686	3316.3	2431.05
1015.5579	2888.7962	3321.05	2442.35
1015.6741	2889.923	3336	2455.55
1015.7903	2891.0493	3350	2470.55
1015.9065	2892.1748	3351.45	2469.85
1016.0226	2893.2997	3353.05	2469.75
1016.1387	2894.424	3371.2	2489.95
1016.2547	2895.5476	3388.75	2508
1016.3707	2896.6706	3384.2	2503.15
1016.4866	2897.7929	3419.35	2537.75
1016.6025	2898.9145	3450.25	2569.45
1016.7184	2900.0355	3474.15	2592
1016.8342	2901.1559	3509.35	2627.45
1016.95	2902.2756	3536.05	2654.25
1017.0658	2903.3946	3565.05	2682
1017.1815	2904.513	3578.85	2694.25
1017.2971	2905.6308	3615.5	2733.85
1017.4127	2906.7479	3629.4	2748.25
1017.5283	2907.8643	3670.15	2788.45
1017.6439	2908.9801	3662.4	2779.9
1017.7594	2910.0953	3678.4	2797.4
1017.8748	2911.2098	3675.45	2788.75
1017.9902	2912.3236	3666.25	2776.9
1018.1056	2913.4368	3661	2776.3
1018.2209	2914.5494	3649.65	2767.95
1018.3362	2915.6613	3619.35	2731.7
1018.4515	2916.7725	3566.2	2683.3
1018.5667	2917.8831	3543.55	2658.9
1018.6819	2918.9931	3520.3	2636
1018.797	2920.1024	3489.55	2606.9
1018.9121	2921.211	3484	2602.2
1019.0271	2922.319	3451.85	2570.3
1019.1421	2923.4264	3443.65	2561.3
1019.2571	2924.5331	3429.8	2550
1019.372	2925.6391	3426.1	2544.55
1019.4869	2926.7445	3423.75	2544.1
1019.6017	2927.8493	3423.05	2541.75
1019.7165	2928.9534	3437.15	2554.25
1019.8313	2930.0569	3433.05	2547.9
1019.946	2931.1597	3436.4	2553.65
1020.0606	2932.2619	3443.6	2562.95
1020.1753	2933.3634	3449.4	2567.55
1020.2899	2934.4643	3460.3	2572.7
1020.4044	2935.5645	3457.4	2569.85
1020.5189	2936.6641	3419.75	2533.45
1020.6334	2937.763	3399.8	2517.5
1020.7478	2938.8613	3361.25	2480.45
1020.8622	2939.959	3332.8	2445.45
1020.9765	2941.056	3267.05	2386
1021.0908	2942.1523	3205.55	2322.55
1021.2051	2943.248	3146.7	2264.35
1021.3193	2944.3431	3035.25	2153.65
1021.4334	2945.4375	2943.7	2062.4
1021.5476	2946.5313	2855.5	1975.25
1021.6617	2947.6244	2765.25	1882
1021.7757	2948.7169	2673.2	1791.5
1021.8897	2949.8087	2579.9	1700.5
1022.0037	2950.8999	2475.45	1592.85
1022.1176	2951.9904	2402.75	1522.95
1022.2315	2953.0803	2337.25	1457.55
1022.3453	2954.1696	2279.05	1398.35
1022.4591	2955.2582	2225.75	1346.55
1022.5728	2956.3462	2170.4	1288.15
1022.6865	2957.4335	2134.7	1254.05
1022.8002	2958.5202	2109.3	1225.5
1022.9138	2959.6062	2075.15	1193.35
1023.0274	2960.6916	2051.45	1170.7
1023.141	2961.7764	2032.45	1148.45
1023.2545	2962.8605	2012.95	1129.95
1023.3679	2963.9439	1995.15	1114.15
1023.4813	2965.0267	1980.25	1096.4
1023.5947	2966.1089	2007.45	1104.8
1023.708	2967.1905	1979.65	1099.4
1023.8213	2968.2714	1975	1096.3
1023.9346	2969.3516	1975.3	1094.45
1024.0478	2970.4312	1983.55	1093.65
1024.1609	2971.5102	1984.45	1104.25
1024.274	2972.5885	1980.15	1098.55
1024.3871	2973.6662	1992.9	1105
1024.5002	2974.7432	1994.15	1112.7
1024.6132	2975.8196	1978	1095.1
1024.7261	2976.8954	1978.25	1097.75
1024.839	2977.9705	1963.85	1082.7
1024.9519	2979.045	1955.35	1074.95
1025.0647	2980.1188	1948.35	1068.3
1025.1775	2981.192	1930.3	1049.65
1025.2902	2982.2645	1902.55	1020.85
1025.4029	2983.3364	1895.8	1015.05
1025.5156	2984.4077	1865.85	985.55
1025.6282	2985.4783	1848	960.5
1025.7407	2986.5483	1818.2	935.2
1025.8532	2987.6177	1776.7	896.9
1025.9657	2988.6864	1746.7	865.45
1026.0782	2989.7545	1712.25	829.95
1026.1906	2990.8219	1683	803.35
1026.3029	2991.8887	1656.85	773.05
1026.4152	2992.9548	1627.55	743.85
1026.5275	2994.0204	1596.75	717.55
1026.6397	2995.0852	1557.6	677.9
1026.7519	2996.1495	1532.45	650.65
1026.864	2997.2131	1504.05	621.15
1026.9761	2998.276	1480.3	600.2
1027.0882	2999.3383	1466.45	585.35
1027.2002	3000.4	1444.95	562.45
1027.3122	3001.4611	1428.4	548.3
1027.4241	3002.5215	1411.35	529.9
1027.536	3003.5812	1394.5	514.9
1027.6478	3004.6404	1383	501
1027.7596	3005.6989	1369.25	486.65
1027.8714	3006.7567	1362.45	480
1027.9831	3007.8139	1378.3	471.8
1028.0947	3008.8705	1333.85	452.3
1028.2064	3009.9264	1348.65	450.6
1028.3179	3010.9818	1322.55	439.35
1028.4295	3012.0364	1314.05	432.25
1028.541	3013.0905	1308.6	426.65
1028.6524	3014.1439	1305.15	423.15
1028.7638	3015.1966	1299.05	418
1028.8752	3016.2487	1291.75	410.55
1028.9865	3017.3002	1295.2	409.65
1029.0978	3018.3511	1290.9	412.65
1029.209	3019.4013	1281.4	401.65
1029.3202	3020.4509	1284.65	403.3
1029.4314	3021.4998	1280.05	398.2
1029.5425	3022.5481	1272.95	391.4
1029.6535	3023.5958	1272.45	390.35
1029.7645	3024.6428	1275.45	393.45
1029.8755	3025.6892	1270.25	388.45
1029.9864	3026.735	1271.35	390.4
1030.0973	3027.7802	1280.6	400.35
1030.2082	3028.8247	1266.8	384.2
1030.319	3029.8685	1267.05	385.5
1030.4297	3030.9118	1274.75	395.5
1030.5404	3031.9544	1272.55	390.05
1030.6511	3032.9963	1277.15	395.75
1030.7617	3034.0376	1279.15	397.3
1030.8723	3035.0783	1289	404.05
1030.9829	3036.1184	1282.3	401.2
1031.0934	3037.1578	1286.65	407.5
1031.2038	3038.1966	1289.85	407.05
1031.3142	3039.2348	1287.35	408.1
1031.4246	3040.2723	1297.15	406.25
1031.5349	3041.3092	1281.95	401.95
1031.6452	3042.3455	1286.65	404.75
1031.7554	3043.3811	1286.3	404
1031.8656	3044.4161	1284.75	402.95
1031.9758	3045.4505	1279	398.35
1032.0859	3046.4842	1278.4	396.55
1032.1959	3047.5173	1280.1	398.65
1032.3059	3048.5498	1275.5	393.3
1032.4159	3049.5816	1278.75	397.35
1032.5258	3050.6128	1271.1	389.35
1032.6357	3051.6434	1269.7	387.7
1032.7455	3052.6734	1267.65	386.65
1032.8553	3053.7027	1262.6	382.35
1032.9651	3054.7314	1261	381.8
1033.0748	3055.7594	1252.95	371.95
1033.1845	3056.7868	1257.6	374.3
1033.2941	3057.8136	1256.45	374.6
1033.4037	3058.8398	1247.35	367.1
1033.5132	3059.8653	1241.15	362.25
1033.6227	3060.8902	1245.6	364.85
1033.7321	3061.9145	1238.95	357.65
1033.8415	3062.9381	1236.35	354.85
1033.9509	3063.9612	1251.85	353.15
1034.0602	3064.9835	1243.05	364.7
1034.1694	3066.0053	1227.6	344.2
1034.2787	3067.0264	1224.5	344.2
1034.3878	3068.0469	1225.85	342.55
1034.497	3069.0668	1219.55	334.85
1034.6061	3070.086	1207.6	328.8
1034.7151	3071.1046	1212.15	329
1034.8241	3072.1226	1204.25	322.65
1034.9331	3073.1399	1199.95	320.35
1035.042	3074.1567	1195.9	313.95
1035.1508	3075.1727	1191.8	310.75
1035.2597	3076.1882	1177.9	294.3
1035.3684	3077.203	1171.35	288.85
1035.4772	3078.2173	1166.65	283.7
1035.5859	3079.2308	1162.8	278.3
1035.6945	3080.2438	1157.15	272.7
1035.8031	3081.2561	1141.95	258.95
1035.9117	3082.2678	1143.85	263.25
1036.0202	3083.2789	1132.85	251.15
1036.1286	3084.2893	1132.55	251.4
1036.2371	3085.2991	1126.55	246.7
1036.3454	3086.3083	1123.4	237.65
1036.4538	3087.3169	1115.05	232.45
1036.562	3088.3248	1112.15	231.4
1036.6703	3089.3321	1115.05	231.15
1036.7785	3090.3388	1102.2	221.3
1036.8866	3091.3449	1096.9	216.45
1036.9948	3092.3503	1100.55	215.5
1037.1028	3093.3551	1089.55	209.8
1037.2108	3094.3593	1088.6	206.8
1037.3188	3095.3629	1083.9	206.05
1037.4267	3096.3658	1080.65	198
1037.5346	3097.3681	1082.15	202.4
1037.6425	3098.3698	1082.45	201
1037.7503	3099.3708	1082.9	195.2
1037.858	3100.3713	1072.45	190.45
1037.9657	3101.3711	1066.45	184.1
1038.0734	3102.3702	1205.3	186
1038.181	3103.3688	1066	183.5
1038.2886	3104.3667	1062.35	182.1
1038.3961	3105.364	1059.7	179
1038.5036	3106.3607	1059.15	175.35
1038.611	3107.3568	1057.05	172.45
1038.7184	3108.3522	1054.8	177.35
1038.8257	3109.347	1054.2	173.6
1038.933	3110.3412	1051.5	166.9
1039.0403	3111.3348	1047.2	166.25
1039.1475	3112.3277	1049.7	167.55
1039.2547	3113.32	1046.9	169.65
1039.3618	3114.3117	1045.4	164.1
1039.4689	3115.3028	1042.1	159.9
1039.5759	3116.2932	1041.55	157.85
1039.6829	3117.2831	1041.25	155.25
1039.7898	3118.2723	1037.45	155.15
1039.8967	3119.2608	1036.85	155.85
1040.0035	3120.2488	1031.85	150.1
1040.1103	3121.2361	1031.7	151.75
1040.2171	3122.2229	1029.2	147.9
1040.3238	3123.209	1026.75	145.05
1040.4305	3124.1944	1025.5	144.95
1040.5371	3125.1793	1031.1	147.85
1040.6437	3126.1635	1024.05	144.4
1040.7502	3127.1471	1024.45	141.8
1040.8567	3128.1301	1021.55	139.95
1040.9631	3129.1125	1018.9	135.55
1041.0695	3130.0942	1018.4	138.35
1041.1759	3131.0753	1026.95	138.5
1041.2822	3132.0558	1019.45	135.85
1041.3884	3133.0357	1015.15	134.3
1041.4946	3134.015	1014.5	132.5
1041.6008	3134.9936	1020.05	138.1
1041.7069	3135.9716	1033.4	132.25
1041.813	3136.949	1007.7	125.75
1041.919	3137.9258	1031.55	130.6
1042.025	3138.902	1013.75	127.15
1042.1309	3139.8775	1007.35	125.4
1042.2368	3140.8524	1006	126.2
1042.3427	3141.8267	1006.6	124.3
1042.4485	3142.8004	1006.95	127
1042.5542	3143.7735	1014.15	126.95
1042.6599	3144.7459	1003.4	120
1042.7656	3145.7178	1004.55	122.5
1042.8712	3146.689	997.9	115.2
1042.9768	3147.6596	1003.1	121.05
1043.0823	3148.6295	998.35	115.7
1043.1878	3149.5989	999.05	115.9
1043.2932	3150.5676	1002.75	126.35
1043.3986	3151.5357	995.6	116
1043.5039	3152.5032	996.6	115.85
1043.6092	3153.4701	998.8	118.85
1043.7145	3154.4364	997	115.05
1043.8197	3155.402	994.8	116.9
1043.9248	3156.367	996.85	113.4
1044.03	3157.3315	1026.5	114.35
1044.135	3158.2952	993.7	113.35
1044.24	3159.2584	988.3	107.6
1044.345	3160.221	992.8	111
1044.4499	3161.1829	988.05	108.2
1044.5548	3162.1442	986.45	105.7
1044.6596	3163.105	985.85	107.3
1044.7644	3164.065	988.15	104.45
1044.8692	3165.0245	989.3	104.75
1044.9739	3165.9834	983.65	104.1
1045.0785	3166.9416	984.45	103.8
1045.1831	3167.8993	983.7	101.85
1045.2877	3168.8563	979.6	96.3
1045.3922	3169.8127	983.75	104.65
1045.4966	3170.7684	982.2	101.05
1045.6011	3171.7236	983.15	98.95
1045.7054	3172.6782	983.2	102
1045.8098	3173.6321	978.45	96.4
1045.914	3174.5854	985.5	100.8
1046.0183	3175.5381	980.4	100.95
1046.1224	3176.4902	977.95	95.9
1046.2266	3177.4417	978.15	95.8
1046.3307	3178.3926	977.25	95.95
1046.4347	3179.3428	974.85	95.45
1046.5387	3180.2924	976	93.1
1046.6427	3181.2415	977.45	95.3
1046.7466	3182.1899	977.45	95.55
1046.8504	3183.1377	974.75	92.1
1046.9542	3184.0848	976.55	92.45
1047.058	3185.0314	974.35	94.6
1047.1617	3185.9773	970.95	88.3
1047.2654	3186.9227	976.5	94.6
1047.369	3187.8674	970.4	90.1
1047.4726	3188.8115	977.5	91.45
1047.5761	3189.755	965.25	84.5
1047.6796	3190.6979	968.35	86.65
1047.783	3191.6402	971.65	91.75
1047.8864	3192.5818	968.75	87.45
1047.9898	3193.5229	988.55	85.95
1048.0931	3194.4633	969.05	89.35
1048.1963	3195.4031	964.05	82.15
1048.2995	3196.3423	965.85	84.75
1048.4027	3197.2809	966.9	86.15
1048.5058	3198.2189	967.65	85.8
1048.6089	3199.1563	983.85	89.7
1048.7119	3200.0931	963.4	81.15
1048.8148	3201.0292	961.3	81.85
1048.9178	3201.9648	964.75	81.8
1049.0206	3202.8997	965.55	80.95
1049.1235	3203.834	963.45	83.55
1049.2262	3204.7677	962	80.55
1049.329	3205.7008	959.9	76.55
1049.4317	3206.6333	958	80.1
1049.5343	3207.5652	963.75	80.1
1049.6369	3208.4964	961.8	81.95
1049.7394	3209.4271	960	78.85
1049.8419	3210.3571	961.3	80.6
1049.9444	3211.2865	958.55	74.9
1050.0468	3212.2154	959.7	78.45
1050.1491	3213.1436	962.15	79.7
1050.2514	3214.0712	965.4	77.7
1050.3537	3214.9982	956.9	77.25
1050.4559	3215.9246	955.95	73.8
1050.5581	3216.8503	955.7	74.9
1050.6602	3217.7755	956.15	74.75
1050.7623	3218.7001	953.2	71.2
1050.8643	3219.624	954.85	72.6
1050.9663	3220.5473	956.55	75.2
1051.0682	3221.4701	956.15	74.3
1051.1701	3222.3922	956.35	74.35
1051.2719	3223.3137	954.5	75.2
1051.3737	3224.2346	951.25	71.35
1051.4754	3225.1549	953.05	73.1
1051.5771	3226.0746	950.6	69.45
1051.6788	3226.9937	951.8	70.4
1051.7804	3227.9121	949.55	68.6
1051.8819	3228.83	951.6	70.35
1051.9834	3229.7473	954.8	74.05
1052.0849	3230.6639	952.45	70.85
1052.1863	3231.5799	949.65	68.4
1052.2876	3232.4954	947.85	65.45
1052.3889	3233.4102	946.95	65.85
1052.4902	3234.3244	946.75	65.65
1052.5914	3235.238	949.4	69.85
1052.6926	3236.151	972.7	68.45
1052.7937	3237.0634	947.45	65.95
1052.8948	3237.9752	947.8	64.95
1052.9958	3238.8864	945.85	63.5
1053.0968	3239.797	950.05	68.5
1053.1977	3240.7069	945.4	63.4
1053.2986	3241.6163	947.85	63.75
1053.3994	3242.5251	944.3	65.7
1053.5002	3243.4332	942.2	61.75
1053.6009	3244.3408	944.75	62.85
1053.7016	3245.2477	940.95	61.25
1053.8022	3246.154	945.55	63.3
1053.9028	3247.0598	943.85	58.65
1054.0034	3247.9649	943.9	62.85
1054.1039	3248.8694	941.15	59.05
1054.2043	3249.7733	938.9	58
1054.3047	3250.6766	938.1	56.8
1054.4051	3251.5793	940.35	59.3
1054.5054	3252.4814	939.5	59.7
1054.6056	3253.3829	939.5	57.35
1054.7058	3254.2838	937.2	56.8
1054.806	3255.1841	939.1	58.2
1054.9061	3256.0838	936.65	54.2
1055.0061	3256.9829	934	54.15
1055.1062	3257.8814	938.45	53.15
1055.2061	3258.7792	936.9	54.75
1055.306	3259.6765	936.15	55.25
1055.4059	3260.5731	934.45	53.25
1055.5057	3261.4692	932.15	50.5
1055.6055	3262.3647	933.55	52.75
1055.7052	3263.2595	930.55	49.5
1055.8049	3264.1538	930.9	49.5
1055.9045	3265.0474	931.9	47
1056.0041	3265.9404	930.2	48.95
1056.1036	3266.8329	927.35	45.5
1056.2031	3267.7247	939.7	48.65
1056.3025	3268.616	924.55	46.5
1056.4019	3269.5066	925.5	42.85
1056.5013	3270.3966	926.25	43.6
1056.6005	3271.286	919.65	40.3
