Software Version:	3.9.2.0
Unit SN:	10000200
Spectrometer SN:	6960
Date:	3/14/2024 1:18:03 PM
Data Line Index:	25
Spectral Points:	2048
Integration time (ms):	125
Averages:	20
Delay (ms):	30000
Sequence Number:	1
Processing:	dark subtract
Laser Power (mW):	300
Laser Current (mA):	825
Laser Diode Temp (C):	25
Laser Case Temp (C):	28.3
System Temp (C):	28.3
Spectrometer Temp (C):	26.1
CCD Temp (C):	0.005
Secondary Temp (C):	20.011
Heatsink Temp (C):	24.142
CCDPCB Temp (C):	37.919
SecondaryPCB Temp (C):	35.462

Wavelength	RamanShift	Raw Counts	Dark Subtracted
787.061	30.1047	434.8	23.05
787.2016	32.3739	434.6	24.2
787.3422	34.6426	435.8	25.5
787.4828	36.9109	442.7	31
787.6235	39.1787	448.45	30.9
787.7642	41.4461	454.05	31.8
787.9049	43.7131	460.2	36.75
788.0456	45.9796	466.25	37.7
788.1863	48.2456	473.15	40.9
788.3271	50.5112	480.55	42.95
788.4679	52.7764	484.65	44.75
788.6087	55.0411	490.5	50.6
788.7496	57.3054	504.45	57.5
788.8904	59.5692	506.1	55.25
789.0313	61.8326	513.1	58.95
789.1722	64.0955	521	61
789.3132	66.3579	537.55	74.75
789.4541	68.6199	546.65	81.85
789.5951	70.8815	569.05	102.4
789.7361	73.1426	613.1	141.35
789.8771	75.4032	718.55	242.9
790.0181	77.6634	970	487.55
790.1592	79.9231	1573.45	1085.1
790.3003	82.1824	2872	2376.6
790.4414	84.4412	5204.05	4694.3
790.5825	86.6995	8459.5	7927.05
790.7237	88.9574	11649.9	11101.9
790.8648	91.2148	13902.2	13341.15
791.006	93.4717	14958.5	14388.65
791.1472	95.7282	15140.05	14566.35
791.2885	97.9842	15052.45	14474.55
791.4297	100.2398	14709.3	14131.75
791.571	102.4949	14319.25	13738.7
791.7123	104.7495	13898.45	13310.55
791.8536	107.0036	13491.6	12902.95
791.9949	109.2573	13054.45	12469.5
792.1363	111.5105	12722.2	12132.75
792.2777	113.7632	12366.55	11775.65
792.4191	116.0154	12119.05	11520.15
792.5605	118.2672	11940	11346.25
792.7019	120.5185	11765.7	11171.8
792.8434	122.7693	11611.8	11016.3
792.9849	125.0197	11484.55	10888.6
793.1264	127.2696	11370.35	10770.35
793.2679	129.519	11286.95	10682.75
793.4094	131.7679	11131.35	10524.25
793.551	134.0163	10995.2	10385.7
793.6926	136.2642	10865.1	10251.6
793.8342	138.5117	10693.75	10068.4
793.9758	140.7587	10513.7	9893.2
794.1175	143.0052	10362.55	9741.8
794.2591	145.2512	10194.25	9570.75
794.4008	147.4967	10027.15	9403.4
794.5425	149.7417	9912.6	9287.35
794.6842	151.9863	9821.2	9195.8
794.826	154.2304	9768.95	9137.95
794.9677	156.4739	9714.5	9075.7
795.1095	158.717	9683	9046.2
795.2513	160.9596	9560.55	8917.9
795.3931	163.2017	9469.75	8827.1
795.535	165.4433	9333.7	8688.15
795.6768	167.6844	9152.15	8504
795.8187	169.925	9007.4	8356.3
795.9606	172.1651	8827.6	8174.2
796.1025	174.4047	8705.15	8047.25
796.2445	176.6439	8586.3	7926.35
796.3864	178.8825	8491.05	7828.75
796.5284	181.1206	8403.25	7739.5
796.6704	183.3582	8327.2	7659.4
796.8124	185.5954	8310.5	7643.85
796.9544	187.832	8260.9	7589.8
797.0965	190.0681	8238	7561.45
797.2386	192.3037	8223.5	7547.3
797.3806	194.5388	8220	7538.8
797.5228	196.7734	8268.9	7584.8
797.6649	199.0075	8274.95	7587.25
797.807	201.2411	8334.45	7645.4
797.9492	203.4742	8348.5	7659.8
798.0914	205.7068	8426.6	7737
798.2336	207.9389	8464.85	7774.5
798.3758	210.1704	8566.65	7873.05
798.518	212.4015	8617.05	7917.1
798.6603	214.632	8675.55	7978.05
798.8025	216.862	8739.35	8047.8
798.9448	219.0915	8749.95	8067.1
799.0871	221.3205	8803.75	8121.7
799.2294	223.549	8816.75	8142.9
799.3718	225.777	8884.85	8210.25
799.5141	228.0044	8933.45	8255.05
799.6565	230.2314	8997.6	8323.3
799.7989	232.4578	9054.9	8374.7
799.9413	234.6837	9135.85	8449.1
800.0837	236.909	9178.05	8492.5
800.2262	239.1339	9172.35	8463.85
800.3687	241.3582	9110.45	8413.25
800.5111	243.582	9065.25	8347.55
800.6536	245.8053	9022.6	8304.95
800.7961	248.0281	8987.6	8277.7
800.9387	250.2503	8949.6	8232.3
801.0812	252.472	8974.2	8253.05
801.2238	254.6932	9035.25	8311.6
801.3664	256.9139	9091.85	8367.2
801.509	259.134	9200	8474.3
801.6516	261.3536	9277.55	8554.7
801.7942	263.5727	9409.25	8680.6
801.9369	265.7912	9517	8793.25
802.0795	268.0092	9658.9	8932.2
802.2222	270.2267	9741.45	9015.4
802.3649	272.4436	9807.95	9077
802.5076	274.6601	9823.8	9086.25
802.6504	276.8759	9792.35	9061.9
802.7931	279.0913	9734.4	9001.65
802.9359	281.3061	9658.25	8924.9
803.0787	283.5204	9655.35	8917.1
803.2215	285.7341	9634.1	8893
803.3643	287.9473	9639.9	8895.5
803.5071	290.16	9649.75	8904.8
803.6499	292.3721	9698.8	8957.7
803.7928	294.5837	9769.95	9027
803.9357	296.7947	9892.15	9148.05
804.0786	299.0052	9964.5	9221.85
804.2215	301.2152	9928.25	9182.25
804.3644	303.4246	9873.85	9131.25
804.5074	305.6334	9690.15	8945.6
804.6503	307.8418	9494.35	8747.35
804.7933	310.0495	9299.2	8551.3
804.9363	312.2568	9117.55	8371.45
805.0793	314.4635	8909.9	8160.85
805.2223	316.6696	8769.55	8019.9
805.3653	318.8752	8649.4	7889.25
805.5084	321.0802	8603.8	7853.2
805.6514	323.2847	8623.85	7870.75
805.7945	325.4887	8613.5	7860.8
805.9376	327.692	8610	7858.2
806.0807	329.8949	8619.3	7865
806.2238	332.0972	8529.15	7773.9
806.367	334.2989	8425.45	7663.95
806.5101	336.5001	8297.55	7536.95
806.6533	338.7007	8184.7	7427.7
806.7965	340.9008	8129.95	7366.8
806.9397	343.1003	8039	7273.5
807.0829	345.2992	7971.4	7209
807.2261	347.4976	7920.45	7153.7
807.3693	349.6955	7862.15	7090.4
807.5126	351.8927	7873.8	7103.7
807.6559	354.0895	7821.1	7040.95
807.7991	356.2856	7791.9	7018.7
807.9424	358.4812	7760.7	6985.65
808.0857	360.6763	7761.25	6989.85
808.2291	362.8707	7743.9	6969.8
808.3724	365.0646	7770.05	6991.3
808.5158	367.258	7775.45	6997.85
808.6591	369.4508	7808.5	7027.75
808.8025	371.643	7865.8	7081.8
808.9459	373.8346	7902.2	7120
809.0893	376.0257	7920.4	7132.85
809.2327	378.2162	7939.8	7152.1
809.3762	380.4062	7912.55	7125.15
809.5196	382.5956	7875.6	7085.35
809.6631	384.7844	7801.1	7012
809.8066	386.9726	7731.25	6941.7
809.9501	389.1603	7690.65	6903.05
810.0936	391.3474	7681.6	6860.4
810.2371	393.5339	7629.15	6838.2
810.3806	395.7199	7593.7	6805.35
810.5241	397.9052	7634.95	6850.6
810.6677	400.09	7669.8	6883.55
810.8113	402.2743	7729.25	6947.85
810.9548	404.4579	7795.85	7014.7
811.0984	406.641	7909.2	7125.35
811.2421	408.8235	7988	7203.6
811.3857	411.0054	8088.05	7303.55
811.5293	413.1868	8195.35	7407.45
811.673	415.3675	8256.2	7465.85
811.8166	417.5477	8246.4	7456
811.9603	419.7273	8190.7	7396.05
812.104	421.9064	8091.55	7289.1
812.2477	424.0848	8042.7	7246.75
812.3914	426.2627	7988.9	7190.45
812.5351	428.4399	7864.8	7062.55
812.6788	430.6166	7701.85	6899.35
812.8226	432.7928	7533.25	6727.45
812.9663	434.9683	7383.95	6579.9
813.1101	437.1432	7265.45	6457.3
813.2539	439.3176	7174.1	6368.95
813.3977	441.4914	7122.15	6317
813.5415	443.6645	7125.2	6316.6
813.6853	445.8371	7086.7	6278.25
813.8291	448.0091	7057.2	6250.9
813.973	450.1806	7026.95	6219.8
814.1168	452.3514	7001.55	6191.05
814.2607	454.5216	7019.45	6203.15
814.4046	456.6913	7001.9	6190.1
814.5485	458.8603	7022.1	6210.35
814.6924	461.0288	7044.8	6235.95
814.8363	463.1967	7047.35	6235.7
814.9802	465.3639	7066.8	6252.4
815.1241	467.5306	7035.3	6218.9
815.2681	469.6967	7026.4	6212.85
815.412	471.8622	7052.15	6239.05
815.556	474.0271	7053.3	6238.05
815.7	476.1914	7078.1	6260.25
815.844	478.3551	7064.55	6249.5
815.988	480.5182	7083.65	6264.85
816.132	482.6807	7130.1	6312.45
816.276	484.8426	7207.15	6389
816.4201	487.0039	7345.75	6528.5
816.5641	489.1647	7524.75	6706.15
816.7082	491.3248	7703.8	6885.2
816.8522	493.4843	7733.8	6916.65
816.9963	495.6432	7715.8	6898.8
817.1404	497.8015	7618.8	6796.1
817.2845	499.9592	7570	6748.4
817.4286	502.1163	7470.95	6651.85
817.5727	504.2728	7322.65	6502.05
817.7168	506.4287	7169.9	6347.85
817.861	508.5839	7027.85	6203.9
818.0051	510.7386	6926.35	6103.25
818.1493	512.8927	6870.4	6040.45
818.2935	515.0461	6868.15	6047.05
818.4377	517.199	6876.35	6052.25
818.5818	519.3512	6968.4	6143.6
818.726	521.5029	7108.1	6279.9
818.8703	523.6539	7211.65	6385.5
819.0145	525.8043	7272.4	6447.6
819.1587	527.9541	7225.6	6397.5
819.303	530.1033	7135.55	6309.25
819.4472	532.2519	7051.15	6222.75
819.5915	534.3999	7024.65	6193.7
819.7357	536.5472	7056.65	6226.85
819.88	538.694	7141.85	6310.35
820.0243	540.8401	7276.25	6443.9
820.1686	542.9856	7350.8	6518.8
820.3129	545.1305	7371.35	6539.35
820.4572	547.2748	7338.95	6508.1
820.6016	549.4185	7255.75	6419.5
820.7459	551.5615	7172.45	6340.25
820.8902	553.704	7196.5	6362.3
821.0346	555.8458	7200.55	6364.95
821.1789	557.987	7274.1	6440.45
821.3233	560.1276	7371	6536.45
821.4677	562.2675	7546.65	6713.45
821.6121	564.4069	7777.9	6944.4
821.7565	566.5456	7994.6	7161.75
821.9009	568.6837	8056.2	7220.9
822.0453	570.8212	7865.8	7033.2
822.1897	572.958	7547.1	6710.6
822.3342	575.0942	7238.9	6407.7
822.4786	577.2299	7017.5	6184.5
822.6231	579.3648	6916.6	6081.75
822.7675	581.4992	6886.6	6052.5
822.912	583.6329	6925.4	6086.65
823.0565	585.766	6978.35	6141.75
823.201	587.8985	7059.85	6224.15
823.3454	590.0304	7102.4	6243.75
823.4899	592.1616	7080.05	6243.15
823.6345	594.2922	7011.25	6175.05
823.779	596.4222	6911.65	6074.7
823.9235	598.5515	6815.75	5976.65
824.068	600.6802	6710.15	5874.25
824.2126	602.8083	6640.65	5800.75
824.3571	604.9358	6632.75	5790.8
824.5017	607.0626	6643.4	5804.75
824.6462	609.1888	6670.95	5827.95
824.7908	611.3144	6725.75	5886.15
824.9354	613.4393	6809.55	5970.1
825.08	615.5636	6835.45	5994.7
825.2246	617.6873	6845	6003.55
825.3692	619.8103	6814.2	5971.35
825.5138	621.9327	6728.6	5881.75
825.6584	624.0544	6634.75	5791.8
825.803	626.1756	6520.45	5678.2
825.9477	628.2961	6441.95	5598.45
826.0923	630.4159	6413.05	5569.4
826.237	632.5351	6404.75	5560.9
826.3816	634.6537	6400.2	5556.35
826.5263	636.7716	6403.25	5558.9
826.6709	638.8889	6389.35	5546.1
826.8156	641.0056	6410.9	5565.35
826.9603	643.1216	6381.2	5533.75
827.105	645.237	6381.75	5533.7
827.2497	647.3518	6328.95	5480.05
827.3944	649.4659	6303.35	5455.15
827.5391	651.5793	6272.25	5423.15
827.6838	653.6922	6243.45	5399.05
827.8285	655.8043	6197.6	5350.95
827.9733	657.9159	6219.5	5368.75
828.118	660.0268	6217.5	5368.5
828.2627	662.137	6209.75	5361.15
828.4075	664.2466	6211.1	5360.45
828.5522	666.3556	6196.8	5346.85
828.697	668.4639	6181.45	5327.8
828.8418	670.5716	6160.95	5310.1
828.9865	672.6786	6140.35	5286.75
829.1313	674.785	6111.35	5256.35
829.2761	676.8907	6074.7	5223.2
829.4209	678.9958	6075.8	5226.3
829.5657	681.1002	6075.9	5224.55
829.7105	683.204	6042.45	5188.4
829.8553	685.3072	6035.55	5179.65
830.0001	687.4097	6023.3	5170.35
830.1449	689.5115	6019.3	5162.7
830.2898	691.6127	6027.6	5175.5
830.4346	693.7132	5993.9	5140.85
830.5794	695.8131	6012.15	5145.05
830.7243	697.9123	6003.05	5148
830.8691	700.0109	6012.15	5156.1
831.014	702.1089	6037.55	5184.25
831.1588	704.2061	6055.35	5201.55
831.3037	706.3028	6089.6	5233.35
831.4486	708.3987	6114.3	5259.95
831.5935	710.4941	6120.15	5267
831.7383	712.5887	6142.2	5285
831.8832	714.6827	6165.4	5307.7
832.0281	716.7761	6232.6	5374.6
832.173	718.8688	6322.1	5464.05
832.3179	720.9608	6387.6	5529
832.4628	723.0522	6432.25	5573.05
832.6077	725.1429	6455.4	5600.35
832.7527	727.233	6494.05	5636.6
832.8976	729.3224	6494.1	5637
833.0425	731.4112	6452.65	5592.5
833.1874	733.4993	6389.9	5528.9
833.3324	735.5867	6292.75	5433.2
833.4773	737.6735	6183.15	5321.95
833.6222	739.7596	6088.35	5227.55
833.7672	741.845	6028.25	5169.05
833.9122	743.9298	5994.05	5130.5
834.0571	746.014	5968	5110.4
834.2021	748.0974	5956.95	5094
834.347	750.1802	5966.85	5104
834.492	752.2624	5967.9	5108.25
834.637	754.3439	5987.6	5125.5
834.782	756.4247	6006.95	5138.15
834.9269	758.5048	6075.1	5213.5
835.0719	760.5843	6203.35	5341.7
835.2169	762.6631	6368.05	5507.75
835.3619	764.7413	6629.85	5771.1
835.5069	766.8188	6967.5	6104.95
835.6519	768.8956	7239.45	6375.9
835.7969	770.9718	7441.05	6579.65
835.9419	773.0473	7435.65	6575.35
836.0869	775.1221	7276.2	6415.4
836.232	777.1962	7142.85	6279
836.377	779.2697	7126.8	6265.75
836.522	781.3426	7178.5	6308.2
836.667	783.4147	7230.05	6366.85
836.8121	785.4862	7249	6386.4
836.9571	787.557	7137.7	6275.25
837.1021	789.6271	6927.75	6063.75
837.2472	791.6966	6616.3	5753.5
837.3922	793.7654	6294.4	5430.15
837.5373	795.8335	6092.9	5229
837.6823	797.901	5944.75	5081.35
837.8274	799.9678	5879.25	5013.55
837.9724	802.0339	5821.7	4957.25
838.1175	804.0993	5799.65	4925.05
838.2626	806.1641	5768.3	4902.85
838.4076	808.2282	5745.95	4881.05
838.5527	810.2916	5700.95	4833.4
838.6978	812.3544	5671.6	4807.45
838.8428	814.4164	5617.25	4752.6
838.9879	816.4778	5626.4	4759.05
839.133	818.5385	5660.75	4798.65
839.2781	820.5986	5722.6	4858.85
839.4232	822.658	5819.45	4952.9
839.5682	824.7166	5976.85	5113.4
839.7133	826.7747	6236.3	5373.2
839.8584	828.832	6463	5598.2
840.0035	830.8886	6656.45	5788.2
840.1486	832.9446	6762.1	5895.3
840.2937	834.9999	6681.85	5817.8
840.4388	837.0545	6540.4	5671.6
840.5839	839.1085	6354.85	5489.35
840.729	841.1618	6199.5	5330.2
840.8741	843.2143	6083.5	5214.5
841.0192	845.2662	5981	5113.15
841.1643	847.3175	5897.95	5033.8
841.3095	849.368	5852	4983.95
841.4546	851.4179	5796.4	4929.75
841.5997	853.467	5766.95	4900.8
841.7448	855.5155	5719.35	4852.55
841.8899	857.5633	5676.3	4810.3
842.0351	859.6105	5619.65	4754.75
842.1802	861.6569	5581.7	4712.35
842.3253	863.7027	5557.05	4687.2
842.4704	865.7478	5517.25	4647.7
842.6156	867.7922	5506.85	4638.2
842.7607	869.8359	5477	4607.65
842.9058	871.8789	5487.95	4619.35
843.0509	873.9212	5551.35	4648.5
843.1961	875.9629	5570.3	4701.35
843.3412	878.0039	5617.05	4747.8
843.4863	880.0441	5646.6	4778.05
843.6315	882.0837	5689.7	4821.75
843.7766	884.1226	5707.95	4836.65
843.9218	886.1609	5706.75	4838.95
844.0669	888.1984	5768.6	4898.45
844.212	890.2352	5841.55	4972.85
844.3572	892.2714	5831.8	4959
844.5023	894.3069	5818.4	4946.4
844.6475	896.3416	5721.1	4850.7
844.7926	898.3757	5650.2	4777.5
844.9377	900.4091	5604.2	4734.1
845.0829	902.4418	5587.9	4713.85
845.228	904.4739	5602.15	4728.45
845.3732	906.5052	5651.35	4783.4
845.5183	908.5358	5603.05	4735.6
845.6635	910.5658	5551	4679.75
845.8086	912.595	5453.65	4583.65
845.9538	914.6236	5329.9	4457.3
846.0989	916.6515	5266.15	4395.7
846.2441	918.6786	5241.95	4368.5
846.3892	920.7051	5224	4352.9
846.5344	922.7309	5244.85	4371.8
846.6795	924.756	5238.25	4367.95
846.8246	926.7804	5271.25	4396.8
846.9698	928.8041	5278.3	4407
847.1149	930.8272	5285.75	4411.05
847.2601	932.8495	5286.55	4412
847.4052	934.8711	5282.3	4408.7
847.5504	936.892	5257.15	4386.2
847.6955	938.9123	5243.65	4368.2
847.8407	940.9318	5236.6	4362.3
847.9858	942.9506	5247.35	4372.5
848.131	944.9688	5239.55	4366.6
848.2761	946.9862	5180.95	4309.35
848.4213	949.003	5110.1	4239.15
848.5664	951.019	5041.75	4169.15
848.7115	953.0344	5020.5	4146.6
848.8567	955.0491	4991.9	4118.15
849.0018	957.063	5021.95	4149.4
849.147	959.0763	5050.25	4176.4
849.2921	961.0888	5073.05	4198.4
849.4373	963.1007	5083.4	4210.65
849.5824	965.1119	5100.2	4228.75
849.7275	967.1223	5087.3	4213.35
849.8727	969.1321	5064.4	4191.7
850.0178	971.1412	5074.3	4199.35
850.1629	973.1495	5063.5	4190.55
850.3081	975.1572	5073.65	4166.9
850.4532	977.1641	5065.6	4192.35
850.5983	979.1704	5048.35	4173.25
850.7435	981.1759	5032.45	4154.35
850.8886	983.1808	5042.55	4168.95
851.0337	985.1849	5047.45	4161.45
851.1788	987.1884	5077.6	4201.95
851.324	989.1911	5111.95	4233.75
851.4691	991.1932	5148.2	4271.1
851.6142	993.1945	5154	4278.15
851.7593	995.1951	5121.55	4247.45
851.9045	997.1951	5135.2	4255.5
852.0496	999.1943	5082.85	4207.95
852.1947	1001.1928	5107.3	4228.9
852.3398	1003.1906	5107.4	4234.25
852.4849	1005.1877	5174.85	4298.1
852.63	1007.1841	5223.4	4349.2
852.7751	1009.1798	5216.7	4342.75
852.9202	1011.1748	5180.1	4305.4
853.0653	1013.1691	5102.3	4227.45
853.2104	1015.1627	5008.75	4132.1
853.3555	1017.1556	4889.85	4012.95
853.5006	1019.1477	4831.85	3956.35
853.6457	1021.1392	4783.85	3908.05
853.7908	1023.1299	4777.55	3902.55
853.9359	1025.12	4769.3	3892.65
854.081	1027.1093	4811.3	3934.45
854.2261	1029.0979	4873.5	4000.25
854.3712	1031.0859	4892.85	4015.55
854.5163	1033.0731	4913.7	4037.2
854.6613	1035.0596	4875.95	4001.8
854.8064	1037.0454	4827.2	3951.15
854.9515	1039.0304	4782	3904.7
855.0965	1041.0148	4709	3832.1
855.2416	1042.9985	4668.05	3790.9
855.3867	1044.9814	4641.9	3766.65
855.5317	1046.9636	4614.95	3737.15
855.6768	1048.9452	4609.1	3734
855.8219	1050.926	4640.55	3765.15
855.9669	1052.9061	4639.15	3764.8
856.112	1054.8855	4656.45	3781.75
856.257	1056.8642	4680.4	3802.4
856.4021	1058.8421	4687.55	3808.3
856.5471	1060.8194	4698.35	3821.3
856.6921	1062.7959	4719.35	3841.55
856.8372	1064.7717	4748.15	3869.5
856.9822	1066.7469	4789.75	3911.2
857.1272	1068.7213	4823.05	3942.8
857.2723	1070.695	4853.1	3978.55
857.4173	1072.6679	4858.6	3981.85
857.5623	1074.6402	4881.45	4004.15
857.7073	1076.6117	4857.45	3973.65
857.8523	1078.5826	4810.45	3931.8
857.9973	1080.5527	4737.5	3857.4
858.1423	1082.5221	4685.95	3808.45
858.2873	1084.4908	4675.9	3798.3
858.4323	1086.4587	4687.8	3810
858.5773	1088.426	4689.85	3814.15
858.7223	1090.3925	4693.45	3811.55
858.8673	1092.3584	4706.95	3831.15
859.0123	1094.3235	4715.75	3841.25
859.1573	1096.2879	4744.05	3865.9
859.3022	1098.2515	4800.6	3923.1
859.4472	1100.2145	4887.1	4011
859.5922	1102.1767	4962.8	4081.7
859.7371	1104.1382	5065.9	4188.3
859.8821	1106.099	5184.5	4302.45
860.027	1108.0591	5288.45	4410.9
860.172	1110.0185	5382.65	4504.1
860.3169	1111.9771	5403.2	4526.5
860.4619	1113.9351	5372.15	4494.5
860.6068	1115.8923	5319	4439.2
860.7517	1117.8488	5234.4	4355.05
860.8967	1119.8045	5150.15	4270.95
861.0416	1121.7596	5086.45	4209.4
861.1865	1123.7139	5007.95	4131
861.3314	1125.6675	4977.15	4099.6
861.4763	1127.6204	5001.55	4122.15
861.6212	1129.5726	4974.45	4095.85
861.7661	1131.524	4939.6	4061.9
861.911	1133.4748	4873.8	3995.25
862.0559	1135.4248	4768.05	3885.1
862.2008	1137.3741	4696.65	3820.25
862.3457	1139.3226	4646.3	3765.9
862.4905	1141.2705	4626.75	3747.35
862.6354	1143.2176	4569.2	3684.55
862.7803	1145.164	4569.15	3688.8
862.9251	1147.1097	4524.25	3644.55
863.07	1149.0546	4477.45	3598.3
863.2148	1150.9989	4424.15	3546.5
863.3597	1152.9424	4375.2	3496.15
863.5045	1154.8852	4322.45	3445.1
863.6493	1156.8272	4296.25	3419.35
863.7942	1158.7686	4321.2	3435.4
863.939	1160.7092	4309	3429.6
864.0838	1162.6491	4327.2	3445.05
864.2286	1164.5883	4377.1	3497.7
864.3734	1166.5267	4428.7	3549.1
864.5182	1168.4644	4500.75	3621.85
864.663	1170.4014	4594.35	3710.5
864.8078	1172.3377	4707.7	3829.5
864.9526	1174.2732	4845.05	3966.85
865.0974	1176.2081	5036.25	4157.85
865.2421	1178.1421	5301.55	4420.8
865.3869	1180.0755	5548.5	4670.75
865.5317	1182.0082	5735.95	4858.8
865.6764	1183.9401	5811.65	4931.55
865.8212	1185.8713	5752.05	4872.5
865.9659	1187.8017	5577.5	4696.4
866.1106	1189.7315	5381.35	4502.65
866.2554	1191.6605	5210.5	4299.95
866.4001	1193.5888	5024.7	4144.25
866.5448	1195.5163	4929.85	4049.25
866.6895	1197.4432	4874.9	3993.95
866.8342	1199.3693	4854.8	3976.6
866.9789	1201.2947	4841.85	3955
867.1236	1203.2193	4825.15	3943.95
867.2683	1205.1432	4807.45	3926.3
867.413	1207.0664	4807.7	3926.3
867.5576	1208.9889	4788.05	3905.6
867.7023	1210.9106	4797.9	3918.65
867.847	1212.8316	4800.2	3921.3
867.9916	1214.7519	4824.05	3935
868.1363	1216.6715	4837.5	3958.9
868.2809	1218.5903	4871.2	3992.85
868.4255	1220.5084	4897.9	4019.75
868.5701	1222.4257	4932.55	4053.85
868.7148	1224.3424	4973.3	4094.55
868.8594	1226.2583	5039.45	4153.1
869.004	1228.1735	5113.2	4233.2
869.1486	1230.0879	5164.25	4283.7
869.2932	1232.0016	5274	4396.2
869.4377	1233.9146	5369	4486
869.5823	1235.8269	5371.75	4493.7
869.7269	1237.7384	5342.85	4462
869.8715	1239.6492	5287.15	4407.2
870.016	1241.5592	5260.9	4379.45
870.1606	1243.4686	5306.6	4425.95
870.3051	1245.3772	5383.65	4501.8
870.4496	1247.285	5491.65	4612.25
870.5941	1249.1922	5599	4718
870.7387	1251.0986	5672.2	4794.15
870.8832	1253.0042	5728.45	4845.5
871.0277	1254.9092	5789.65	4909.7
871.1722	1256.8134	5838.15	4957.75
871.3167	1258.7169	5926.35	5043.7
871.4611	1260.6196	5978.15	5099.35
871.6056	1262.5216	6088.65	5205.55
871.7501	1264.4229	6172.5	5295.75
871.8945	1266.3234	6292.95	5414.1
872.039	1268.2232	6330.3	5450.1
872.1834	1270.1223	6360.25	5478.3
872.3278	1272.0207	6372.5	5490.2
872.4723	1273.9183	6363.05	5475.55
872.6167	1275.8151	6308.2	5427.2
872.7611	1277.7113	6328.9	5447.3
872.9055	1279.6067	6354.6	5474.75
873.0499	1281.5014	6478.45	5594.8
873.1943	1283.3953	6697.2	5814.8
873.3386	1285.2885	6979.35	6099.15
873.483	1287.181	7241.85	6357.25
873.6274	1289.0727	7510.25	6631.15
873.7717	1290.9637	7704.3	6822.25
873.9161	1292.854	7829.4	6949.85
874.0604	1294.7435	7816.6	6935.35
874.2047	1296.6323	7757.9	6876.65
874.349	1298.5204	7644.15	6759.9
874.4933	1300.4077	7513.9	6632.75
874.6376	1302.2943	7381.25	6501.15
874.7819	1304.1802	7193.95	6314.1
874.9262	1306.0653	6957.65	6073.6
875.0705	1307.9497	6694.6	5813.9
875.2147	1309.8333	6484.4	5604.1
875.359	1311.7162	6325.25	5443.9
875.5032	1313.5984	6235.65	5352.35
875.6475	1315.4798	6171.9	5279.6
875.7917	1317.3605	6133.9	5234.35
875.9359	1319.2405	6080.9	5195.2
876.0801	1321.1197	5956.4	5073.1
876.2243	1322.9982	5799	4912.85
876.3685	1324.876	5668.25	4787.05
876.5127	1326.753	5490.15	4607.75
876.6569	1328.6293	5370.75	4487.3
876.801	1330.5048	5293.75	4409.25
876.9452	1332.3796	5212.15	4332.1
877.0893	1334.2537	5164.35	4257.8
877.2335	1336.127	5110.8	4229.4
877.3776	1337.9996	5067.35	4184.9
877.5217	1339.8714	5080.15	4196.65
877.6658	1341.7426	5115	4193.4
877.8099	1343.6129	5074.85	4191.8
877.954	1345.4826	5072.05	4191.35
878.0981	1347.3515	5067.05	4181.45
878.2422	1349.2196	5048.4	4166.55
878.3862	1351.087	5080.65	4198.95
878.5303	1352.9537	5099.1	4215.45
878.6743	1354.8197	5133.3	4252
878.8184	1356.6849	5224.6	4341.9
878.9624	1358.5493	5292.55	4409.7
879.1064	1360.4131	5390.15	4507.4
879.2504	1362.276	5482.65	4600.5
879.3944	1364.1383	5479.8	4599.35
879.5384	1365.9998	5435	4549.05
879.6823	1367.8606	5269.45	4386.95
879.8263	1369.7206	5094.9	4212.85
879.9702	1371.5799	4948.55	4065.5
880.1142	1373.4384	4807.25	3923.15
880.2581	1375.2962	4706.75	3822.65
880.402	1377.1533	4546.85	3666.1
880.5459	1379.0096	4386.25	3500.95
880.6898	1380.8652	4214.2	3333.3
880.8337	1382.7201	4074.55	3192.45
880.9776	1384.5742	3969.55	3087.2
881.1215	1386.4275	3881.3	2998.15
881.2653	1388.2802	3815.9	2935.6
881.4092	1390.132	3761.25	2879.6
881.553	1391.9832	3729.9	2845.4
881.6968	1393.8336	3699.5	2818.65
881.8406	1395.6832	3667.15	2782.3
881.9844	1397.5322	3651.05	2772.3
882.1282	1399.3803	3648.2	2763.2
882.272	1401.2278	3622.15	2738.35
882.4158	1403.0745	3607.8	2726.2
882.5595	1404.9204	3609.05	2727.95
882.7033	1406.7656	3609.5	2727.15
882.847	1408.6101	3611.1	2726.8
882.9908	1410.4538	3618.55	2736.75
883.1345	1412.2968	3657.75	2777.5
883.2782	1414.139	3674.3	2791.65
883.4219	1415.9805	3720.7	2839.85
883.5656	1417.8213	3749.15	2861.4
883.7092	1419.6613	3787.55	2906.7
883.8529	1421.5006	3865.8	2981.95
883.9965	1423.3391	3964.1	3081.8
884.1402	1425.1769	4110.75	3226.55
884.2838	1427.0139	4309.3	3426.55
884.4274	1428.8502	4553.45	3670.2
884.571	1430.6858	4809.45	3926.95
884.7146	1432.5206	4999.05	4116.7
884.8582	1434.3547	5101.55	4216.85
885.0018	1436.188	5103.65	4223.3
885.1453	1438.0206	5068.15	4186.25
885.2889	1439.8524	4989.55	4106.15
885.4324	1441.6835	4931.25	4048.15
885.5759	1443.5139	4887.5	4000.7
885.7194	1445.3435	4846.1	3963.1
885.8629	1447.1724	4829.35	3948.15
886.0064	1449.0005	4824.95	3943.2
886.1499	1450.8279	4800.65	3918.4
886.2933	1452.6545	4774.75	3890.9
886.4368	1454.4804	4787.2	3904.9
886.5802	1456.3056	4811.8	3920.3
886.7237	1458.13	4767.45	3885.2
886.8671	1459.9536	4684.7	3801.05
887.0105	1461.7766	4563.6	3681.7
887.1539	1463.5987	4413.75	3527.1
887.2972	1465.4202	4261.6	3379.15
887.4406	1467.2409	4114.9	3232.45
887.584	1469.0608	3974.25	3093.1
887.7273	1470.88	3839	2957.1
887.8706	1472.6984	3744.35	2862.2
888.0139	1474.5161	3641.2	2755.95
888.1572	1476.3331	3590.05	2710.1
888.3005	1478.1493	3532.8	2649.95
888.4438	1479.9648	3486.55	2603.2
888.5871	1481.7795	3454.55	2573.35
888.7303	1483.5935	3426.1	2543.55
888.8736	1485.4067	3400.7	2519.5
889.0168	1487.2192	3389.85	2505.65
889.16	1489.031	3374.4	2491.5
889.3032	1490.842	3358.7	2474.15
889.4464	1492.6522	3346.55	2465.4
889.5896	1494.4618	3317.5	2433.2
889.7327	1496.2705	3302.35	2420
889.8759	1498.0785	3287.75	2406.35
890.019	1499.8858	3272.5	2390.95
890.1622	1501.6924	3241.6	2359.9
890.3053	1503.4981	3236.3	2355.65
890.4484	1505.3032	3224.05	2342.1
890.5914	1507.1075	3202.15	2318.4
890.7345	1508.911	3185.8	2304.45
890.8776	1510.7138	3151.85	2269.6
891.0206	1512.5159	3145.05	2263
891.1637	1514.3172	3131.35	2246.7
891.3067	1516.1178	3093.95	2213.35
891.4497	1517.9176	3090.4	2205.8
891.5927	1519.7166	3069.15	2186.65
891.7357	1521.515	3076.55	2187.7
891.8786	1523.3126	3053.1	2169.8
892.0216	1525.1094	3034.95	2149.75
892.1645	1526.9055	3023.4	2141.6
892.3074	1528.7008	3019.8	2137.05
892.4503	1530.4954	3010.65	2120.95
892.5932	1532.2893	3000.85	2120.55
892.7361	1534.0824	2996.9	2108
892.879	1535.8747	2990.25	2108.2
893.0218	1537.6663	2990.2	2106.4
893.1647	1539.4572	2989.3	2104.45
893.3075	1541.2473	2997.55	2114.65
893.4503	1543.0367	2986.25	2104.6
893.5931	1544.8253	3005.9	2120.1
893.7359	1546.6132	3006.15	2122
893.8787	1548.4003	3036.7	2144.05
894.0214	1550.1867	3052.05	2161.85
894.1642	1551.9723	3081	2193.6
894.3069	1553.7572	3120.7	2236.85
894.4496	1555.5414	3161.05	2278.95
894.5923	1557.3247	3230.6	2347.8
894.735	1559.1074	3330.15	2449.4
894.8777	1560.8893	3404.1	2523.3
895.0204	1562.6705	3483.9	2599.45
895.163	1564.4509	3550.4	2667.25
895.3056	1566.2305	3589.65	2707.65
895.4482	1568.0094	3609.35	2728.45
895.5908	1569.7876	3611.65	2728.4
895.7334	1571.565	3619.5	2736.7
895.876	1573.3417	3605.2	2724.05
896.0186	1575.1176	3602.35	2720
896.1611	1576.8928	3611.55	2728.9
896.3036	1578.6672	3613.05	2731.85
896.4461	1580.4409	3637.45	2755.5
896.5886	1582.2138	3651.7	2767
896.7311	1583.986	3689.95	2807.2
896.8736	1585.7575	3727.4	2847.4
897.0161	1587.5282	3761.45	2878.95
897.1585	1589.2981	3809.5	2928.55
897.3009	1591.0673	3869.7	2986.2
897.4433	1592.8358	3924.45	3043.5
897.5857	1594.6035	3963.55	3079
897.7281	1596.3704	3990.5	3108.05
897.8705	1598.1366	4035.95	3152.4
898.0128	1599.9021	4074.65	3193.05
898.1551	1601.6668	4115.8	3232.75
898.2975	1603.4308	4175.55	3293.1
898.4398	1605.194	4250.55	3364.95
898.5821	1606.9564	4329.4	3446.15
898.7243	1608.7182	4452.35	3564.9
898.8666	1610.4791	4608.6	3726.15
899.0088	1612.2394	4775.2	3892.1
899.1511	1613.9988	4936.9	4054.4
899.2933	1615.7576	5092.35	4212.3
899.4355	1617.5156	5181.5	4296
899.5776	1619.2728	5233.45	4350.55
899.7198	1621.0293	5195	4314.2
899.862	1622.785	5100.9	4217.75
900.0041	1624.54	4946.35	4061.85
900.1462	1626.2942	4750.8	3867.65
900.2883	1628.0477	4532.85	3649.1
900.4304	1629.8005	4344.2	3458.55
900.5725	1631.5525	4168.45	3287.95
900.7145	1633.3037	4032.25	3148.05
900.8566	1635.0542	3919.25	3039.9
900.9986	1636.804	3831.7	2949.25
901.1406	1638.553	3795.25	2860.9
901.2826	1640.3013	3719.2	2838.75
901.4245	1642.0488	3697.9	2814.65
901.5665	1643.7955	3695.6	2816.15
901.7085	1645.5416	3706.9	2825.3
901.8504	1647.2868	3760.15	2877.45
901.9923	1649.0313	3794.2	2914.3
902.1342	1650.7751	3860.55	2973.9
902.2761	1652.5181	3927.7	3047.9
902.4179	1654.2604	4000.1	3117.45
902.5598	1656.0019	4097.85	3216.85
902.7016	1657.7427	4195	3314.1
902.8434	1659.4828	4326	3445.15
902.9852	1661.222	4400.7	3519.25
903.127	1662.9606	4405.45	3523
903.2687	1664.6984	4316.8	3434.15
903.4105	1666.4354	4115.55	3233.9
903.5522	1668.1717	3858.45	2975.5
903.6939	1669.9072	3612.3	2732
903.8356	1671.642	3390.05	2505.3
903.9773	1673.3761	3212.35	2331.6
904.119	1675.1094	3060.5	2178.6
904.2606	1676.8419	2955.75	2074.25
904.4022	1678.5737	2863.95	1983.2
904.5439	1680.3048	2803.8	1921.9
904.6855	1682.0351	2742.6	1861.4
904.827	1683.7646	2698.9	1816.2
904.9686	1685.4934	2650.3	1769.9
905.1101	1687.2215	2625.6	1744
905.2517	1688.9488	2599.95	1719.9
905.3932	1690.6754	2559.85	1679.2
905.5347	1692.4012	2550.1	1669.05
905.6761	1694.1263	2522	1638.75
905.8176	1695.8506	2514	1631.65
905.9591	1697.5742	2490.2	1609.1
906.1005	1699.297	2467.35	1585.4
906.2419	1701.0191	2457.1	1577.8
906.3833	1702.7404	2444.05	1561.15
906.5246	1704.461	2426.35	1543.25
906.666	1706.1808	2402.6	1520.6
906.8073	1707.8999	2396.05	1512.55
906.9487	1709.6182	2384.5	1504.1
907.09	1711.3358	2372.1	1490.95
907.2313	1713.0527	2374.65	1493.8
907.3725	1714.7688	2352.15	1464.6
907.5138	1716.4841	2340.4	1456.35
907.655	1718.1987	2343.95	1459.55
907.7962	1719.9126	2328	1447.6
907.9374	1721.6257	2327.7	1443.25
908.0786	1723.338	2321.6	1439.85
908.2198	1725.0496	2308.7	1426.2
908.3609	1726.7605	2314.75	1433.55
908.502	1728.4706	2307.95	1425
908.6431	1730.18	2293.9	1409.6
908.7842	1731.8886	2280	1399.8
908.9253	1733.5964	2272.25	1385.75
909.0664	1735.3036	2273.55	1390.75
909.2074	1737.0099	2265.4	1385.45
909.3484	1738.7156	2257.9	1375.8
909.4894	1740.4204	2244.9	1359.3
909.6304	1742.1246	2235.6	1354.05
909.7714	1743.8279	2232.25	1351.05
909.9123	1745.5306	2218.5	1336.65
910.0532	1747.2325	2211.15	1330.35
910.1941	1748.9336	2207.6	1327.3
910.335	1750.634	2196.35	1314.3
910.4759	1752.3336	2200.9	1320.3
910.6168	1754.0325	2202.85	1321.7
910.7576	1755.7307	2183.15	1301.65
910.8984	1757.4281	2184	1301.05
911.0392	1759.1247	2192.6	1301.2
911.18	1760.8206	2185.6	1299.45
911.3208	1762.5158	2178.85	1295.2
911.4615	1764.2102	2166.5	1286.05
911.6022	1765.9039	2161.05	1279.5
911.7429	1767.5968	2152.55	1270.7
911.8836	1769.289	2159.25	1276.85
912.0243	1770.9804	2150.4	1268.9
912.1649	1772.6711	2139.7	1257.3
912.3056	1774.361	2145	1263.5
912.4462	1776.0502	2140.65	1260.5
912.5868	1777.7386	2139.45	1256.4
912.7274	1779.4263	2126.45	1244.85
912.8679	1781.1132	2128.1	1246.55
913.0084	1782.7994	2122.15	1238.75
913.149	1784.4849	2117.55	1235.25
913.2895	1786.1696	2134.35	1235.1
913.4299	1787.8535	2116.2	1235.05
913.5704	1789.5367	2111.1	1228.15
913.7108	1791.2192	2111.95	1231.5
913.8513	1792.9009	2118.55	1222.45
913.9917	1794.5818	2100.2	1218.15
914.132	1796.2621	2095.65	1215.3
914.2724	1797.9415	2095.75	1214.2
914.4128	1799.6202	2092.8	1212
914.5531	1801.2982	2077.1	1195.95
914.6934	1802.9755	2081.95	1200.65
914.8337	1804.6519	2083.15	1202.05
914.9739	1806.3277	2076.8	1196.2
915.1142	1808.0027	2053.65	1171.35
915.2544	1809.6769	2074.05	1193.1
915.3946	1811.3504	2064.8	1180.6
915.5348	1813.0231	2053.65	1169.7
915.675	1814.6951	2066.3	1185.25
915.8151	1816.3664	2064.15	1179
915.9553	1818.0369	2059.05	1175.9
916.0954	1819.7067	2052.1	1171.5
916.2355	1821.3757	2058.65	1175.6
916.3755	1823.044	2050.1	1170.3
916.5156	1824.7115	2040.15	1158
916.6556	1826.3783	2033.55	1153.4
916.7956	1828.0443	2042.85	1160.95
916.9356	1829.7096	2038.4	1156.3
917.0756	1831.3741	2037	1154
917.2155	1833.0379	2030.7	1150.55
917.3555	1834.701	2021.45	1136.3
917.4954	1836.3633	2032.3	1149.8
917.6353	1838.0248	2025.25	1141.55
917.7751	1839.6856	2021.1	1139
917.915	1841.3457	2022.8	1142.85
918.0548	1843.005	2018.3	1139.4
918.1946	1844.6636	2017	1135.45
918.3344	1846.3214	2013.6	1131.9
918.4742	1847.9785	2016.95	1137.25
918.6139	1849.6349	2010.05	1126.4
918.7537	1851.2904	2010.15	1119.85
918.8934	1852.9453	2006.25	1124.6
919.0331	1854.5994	1997.4	1113.4
919.1727	1856.2528	2005.4	1117.35
919.3124	1857.9054	1998.55	1115.65
919.452	1859.5572	2001.8	1120.55
919.5916	1861.2083	1995.15	1111.65
919.7312	1862.8587	1994.05	1113.65
919.8708	1864.5084	1994.25	1112.75
920.0103	1866.1572	1993.1	1113
920.1498	1867.8054	1985.3	1105.05
920.2893	1869.4528	1983.15	1101.05
920.4288	1871.0994	1972.35	1090.3
920.5683	1872.7453	1965.5	1083.8
920.7077	1874.3905	1984.75	1085.5
920.8471	1876.0349	1966.7	1085.8
920.9865	1877.6786	1976.1	1091.5
921.1259	1879.3215	1974.45	1093.5
921.2653	1880.9637	1964.8	1082.05
921.4046	1882.6051	1956.1	1075.15
921.5439	1884.2458	1956.9	1074.65
921.6832	1885.8858	1945.45	1061.45
921.8225	1887.525	1951.55	1069.2
921.9617	1889.1634	1936.6	1056.6
922.101	1890.8011	1942.15	1061.75
922.2402	1892.4381	1932.85	1052.45
922.3794	1894.0743	1949.9	1069.85
922.5185	1895.7098	1937	1054.65
922.6577	1897.3446	1929.95	1049.6
922.7968	1898.9786	1932.55	1046
922.9359	1900.6118	1938.65	1057.55
923.075	1902.2443	1922.15	1035.5
923.214	1903.8761	1922.1	1041.6
923.3531	1905.5071	1914.55	1031.8
923.4921	1907.1374	1909.95	1027.55
923.6311	1908.7669	1913.05	1031.95
923.77	1910.3957	1911.05	1029.15
923.909	1912.0237	1907.55	1028.65
924.0479	1913.651	1905.15	1022
924.1868	1915.2776	1895.6	1014.65
924.3257	1916.9034	1904.45	1023.1
924.4646	1918.5285	1894	1014.15
924.6034	1920.1528	1881.35	997.9
924.7422	1921.7764	1885.4	1002.85
924.881	1923.3992	1881.5	1001.4
925.0198	1925.0213	1881.35	1001.35
925.1586	1926.6427	1872.6	990.8
925.2973	1928.2633	1966.15	980.5
925.436	1929.8832	1873.6	991.45
925.5747	1931.5023	1862.4	983.45
925.7134	1933.1207	1859.7	980
925.852	1934.7383	1865.15	980
925.9906	1936.3552	1845.6	963.55
926.1292	1937.9714	1856.35	974.9
926.2678	1939.5868	1854.75	971.2
926.4064	1941.2015	1854.3	971.05
926.5449	1942.8154	1842.2	960.5
926.6834	1944.4286	1841.3	958.65
926.8219	1946.041	1854.75	950.6
926.9604	1947.6528	1820.95	936.35
927.0988	1949.2637	1829.85	947.7
927.2372	1950.8739	1833.05	948.7
927.3756	1952.4834	1818.25	938.2
927.514	1954.0921	1816.5	934.85
927.6523	1955.7001	1825.45	939.7
927.7907	1957.3074	1819.85	938.05
927.929	1958.9139	1811.5	931.7
928.0673	1960.5197	1809.4	925.6
928.2055	1962.1247	1807.35	927
928.3438	1963.729	1790.6	909.1
928.482	1965.3325	1824.75	918.9
928.6202	1966.9353	1796.85	916.15
928.7584	1968.5374	1792.75	910.1
928.8965	1970.1387	1792.65	912.55
929.0346	1971.7393	1794	911.1
929.1727	1973.3392	1786.05	903.7
929.3108	1974.9383	1782.4	901.3
929.4489	1976.5366	1775.25	894.2
929.5869	1978.1342	1772	889.3
929.7249	1979.7311	1764.1	880.6
929.8629	1981.3273	1771.45	888
930.0009	1982.9227	1766.7	883.2
930.1388	1984.5173	1761.45	879.35
930.2767	1986.1112	1762.95	882.9
930.4146	1987.7044	1747.6	867.15
930.5525	1989.2968	1754.85	873.7
930.6904	1990.8885	1758.6	873.05
930.8282	1992.4795	1751.55	867.8
930.966	1994.0697	1743.4	863.65
931.1038	1995.6592	1736.35	855.75
931.2415	1997.2479	1740.35	858.3
931.3793	1998.8359	1743.4	860.5
931.517	2000.4232	1738.4	857
931.6547	2002.0097	1732.6	852.75
931.7923	2003.5955	1741.15	859.1
931.93	2005.1805	1736.3	851.7
932.0676	2006.7648	1734.2	854.8
932.2052	2008.3484	1723.95	839.9
932.3427	2009.9312	1725.8	843.05
932.4803	2011.5133	1720.75	838.25
932.6178	2013.0946	1719.4	837.45
932.7553	2014.6752	1720.75	838.4
932.8928	2016.2551	1718.75	837.15
933.0302	2017.8342	1717.5	836.1
933.1676	2019.4126	1712.8	833.1
933.305	2020.9902	1706.45	825.6
933.4424	2022.5672	1714	830.1
933.5798	2024.1433	1714.75	826.45
933.7171	2025.7188	1700	818.45
933.8544	2027.2935	1704.7	822.15
933.9917	2028.8674	1689.55	807.35
934.129	2030.4406	1686.2	806.35
934.2662	2032.0131	1693.75	812.45
934.4034	2033.5849	1689.2	803.3
934.5406	2035.1559	1691	808.5
934.6778	2036.7261	1684.3	804
934.8149	2038.2957	1686.05	806.25
934.952	2039.8645	1681.7	800.25
935.0891	2041.4325	1687.8	805.05
935.2262	2042.9998	1682.6	800.3
935.3632	2044.5664	1677.7	792.75
935.5002	2046.1323	1672	789.15
935.6372	2047.6974	1676.05	795.35
935.7742	2049.2617	1672.3	790.7
935.9111	2050.8254	1699.9	783.25
936.048	2052.3883	1668.75	786.2
936.1849	2053.9504	1659.4	778.9
936.3218	2055.5118	1665	781.7
936.4586	2057.0725	1666.65	780.45
936.5955	2058.6325	1657.65	775.9
936.7323	2060.1917	1651.2	769.45
936.869	2061.7502	1650.8	765.55
937.0058	2063.3079	1646	765.1
937.1425	2064.8649	1652.05	767.05
937.2792	2066.4212	1658.05	774.85
937.4159	2067.9767	1643	764.25
937.5525	2069.5315	1638.05	756.05
937.6891	2071.0856	1637.6	754.3
937.8257	2072.6389	1642.65	758.65
937.9623	2074.1915	1635.5	755.3
938.0989	2075.7433	1634.85	750.8
938.2354	2077.2945	1626.75	746.35
938.3719	2078.8448	1618.35	738.45
938.5084	2080.3945	1623.05	740.4
938.6448	2081.9434	1622.3	741.7
938.7812	2083.4916	1617.25	734.95
938.9176	2085.039	1614.15	731.95
939.054	2086.5857	1612.9	729.1
939.1903	2088.1317	1612.15	731.55
939.3267	2089.677	1615.95	733.65
939.463	2091.2215	1602.75	720.8
939.5992	2092.7652	1609.55	727.25
939.7355	2094.3083	1603.65	722.65
939.8717	2095.8506	1602.1	721.75
940.0079	2097.3921	1605.7	725.3
940.1441	2098.933	1592.05	710.05
940.2802	2100.4731	1598.4	719.7
940.4163	2102.0124	1620.45	718.95
940.5524	2103.5511	1600	718.65
940.6885	2105.089	1595.4	713.75
940.8245	2106.6261	1593.75	711.1
940.9606	2108.1626	1592.6	708.65
941.0965	2109.6983	1622.25	712.35
941.2325	2111.2332	1592.1	708.8
941.3684	2112.7675	1583.95	703
941.5044	2114.301	1589.1	705.7
941.6403	2115.8337	1581.45	699.6
941.7761	2117.3657	1581.1	699.05
941.912	2118.897	1584.4	701.75
942.0478	2120.4276	1583.55	696.8
942.1835	2121.9575	1582.3	700.2
942.3193	2123.4866	1586.45	688.35
942.455	2125.0149	1578.75	696.1
942.5907	2126.5426	1565.75	682.6
942.7264	2128.0695	1571.25	684.75
942.8621	2129.5956	1577.2	695.85
942.9977	2131.1211	1568.25	682
943.1333	2132.6458	1562.6	681.9
943.2689	2134.1698	1568.75	687.95
943.4044	2135.693	1563.1	678.1
943.54	2137.2155	1557.45	672.4
943.6755	2138.7373	1555.5	673.65
943.8109	2140.2584	1557.65	675.15
943.9464	2141.7787	1562.55	674.75
944.0818	2143.2983	1549	668.6
944.2172	2144.8171	1539.8	658.65
944.3526	2146.3353	1547.95	662.9
944.4879	2147.8527	1544.55	664.25
944.6232	2149.3693	1546.5	663.15
944.7585	2150.8853	1540.95	658.1
944.8938	2152.4005	1539.6	658.75
945.029	2153.9149	1546.25	666.7
945.1642	2155.4287	1539.25	657.15
945.2994	2156.9417	1536.65	653.8
945.4346	2158.454	1539.05	653.8
945.5697	2159.9655	1535.6	654.4
945.7048	2161.4764	1534.85	654.05
945.8399	2162.9865	1530.1	648.2
945.9749	2164.4958	1529.55	646.55
946.1099	2166.0045	1524.35	639.1
946.2449	2167.5124	1526.3	646.55
946.3799	2169.0195	1525.25	642.1
946.5148	2170.526	1520.5	636.9
946.6498	2172.0317	1518.15	636.6
946.7846	2173.5367	1520.5	636.15
946.9195	2175.0409	1522.9	642.85
947.0543	2176.5445	1512.8	632.5
947.1891	2178.0473	1513.25	632
947.3239	2179.5494	1509.25	623.7
947.4587	2181.0507	1509.4	625.85
947.5934	2182.5513	1501.5	618.75
947.7281	2184.0512	1499.25	616.75
947.8628	2185.5504	1507.05	626.55
947.9974	2187.0488	1503.9	624.6
948.132	2188.5465	1503.4	621.25
948.2666	2190.0435	1496.45	614.55
948.4012	2191.5397	1497.45	615.2
948.5357	2193.0353	1492.3	611.25
948.6702	2194.5301	1495.9	614.3
948.8047	2196.0241	1490.25	606.9
948.9392	2197.5175	1486.7	605.4
949.0736	2199.0101	1492.85	607.4
949.208	2200.502	1482.9	602.8
949.3424	2201.9931	1484.75	602.2
949.4767	2203.4835	1483.1	598.7
949.611	2204.9733	1484.9	589.45
949.7453	2206.4622	1476.4	594.35
949.8796	2207.9505	1474.6	589.1
950.0138	2209.438	1472.15	591.95
950.148	2210.9248	1475.5	593.35
950.2822	2212.4109	1471.85	591.45
950.4164	2213.8962	1467	582.4
950.5505	2215.3809	1469.05	586.4
950.6846	2216.8648	1469.05	586.4
950.8186	2218.3479	1466.8	580.25
950.9527	2219.8304	1468.45	583.75
951.0867	2221.3121	1462	581.2
951.2207	2222.7931	1460.6	580.55
951.3546	2224.2733	1450.2	567.35
951.4886	2225.7529	1457.2	577.65
951.6225	2227.2317	1447.1	564.05
951.7563	2228.7098	1451.8	571.55
951.8902	2230.1872	1446.8	563.7
952.024	2231.6638	1450.8	569.45
952.1578	2233.1397	1440.3	553.1
952.2916	2234.6149	1448.3	567
952.4253	2236.0894	1437	554.65
952.559	2237.5632	1452.9	560.3
952.6927	2239.0362	1442.5	560.15
952.8263	2240.5085	1436.5	555.1
952.9599	2241.9801	1436.85	554.55
953.0935	2243.4509	1428.5	547.25
953.2271	2244.921	1424.75	544.35
953.3606	2246.3904	1427.2	543.25
953.4941	2247.8591	1425	546.65
953.6276	2249.3271	1425.9	545.05
953.7611	2250.7943	1429.6	548.9
953.8945	2252.2608	1420.35	538.8
954.0279	2253.7266	1417.3	537.2
954.1612	2255.1917	1420.7	537.25
954.2946	2256.656	1415	531.55
954.4279	2258.1197	1411.8	530.7
954.5612	2259.5826	1409.95	525.05
954.6944	2261.0447	1420.9	536.7
954.8276	2262.5062	1406.55	522.95
954.9608	2263.9669	1405.6	522.3
955.094	2265.4269	1405	523.35
955.2271	2266.8862	1401.5	519.05
955.3602	2268.3448	1402.35	520.85
955.4933	2269.8026	1406.55	524.5
955.6264	2271.2598	1408.25	525.7
955.7594	2272.7162	1399.6	519.8
955.8924	2274.1719	1396.65	515.6
956.0253	2275.6268	1395.2	512.65
956.1583	2277.0811	1393.65	510.2
956.2912	2278.5346	1396.4	518.6
956.4241	2279.9874	1395.2	512.95
956.5569	2281.4395	1396.5	514.8
956.6897	2282.8908	1396.05	507.35
956.8225	2284.3414	1389.9	507.2
956.9553	2285.7914	1391.6	510.05
957.088	2287.2406	1395.65	511.4
957.2207	2288.689	1388.85	508.65
957.3534	2290.1368	1391.3	509.65
957.486	2291.5838	1386.55	502.4
957.6186	2293.0302	1387.65	502.95
957.7512	2294.4758	1380.6	498
957.8838	2295.9206	1382.9	500.35
958.0163	2297.3648	1381.35	498.6
958.1488	2298.8082	1373.65	490.7
958.2813	2300.251	1378.85	498.3
958.4137	2301.693	1379.25	496.55
958.5461	2303.1343	1382.25	499.55
958.6785	2304.5748	1374.25	491.3
958.8108	2306.0147	1371.45	488.4
958.9432	2307.4538	1374.15	488.1
959.0754	2308.8922	1370	489.55
959.2077	2310.3299	1371.05	489.4
959.3399	2311.7669	1363.1	480.25
959.4721	2313.2031	1365.6	485.1
959.6043	2314.6387	1362.65	481.2
959.7365	2316.0735	1365.45	484.05
959.8686	2317.5076	1362.55	481.8
960.0006	2318.941	1358.1	477.55
960.1327	2320.3737	1363.35	482.05
960.2647	2321.8056	1362.8	477.35
960.3967	2323.2369	1357.95	474.4
960.5287	2324.6674	1355.9	471.45
960.6606	2326.0972	1356.4	472.7
960.7925	2327.5263	1353.85	472.3
960.9244	2328.9547	1357.3	474.2
961.0562	2330.3823	1351.95	470.5
961.1881	2331.8092	1352.25	467.85
961.3198	2333.2355	1341.15	461.9
961.4516	2334.661	1341.1	457.15
961.5833	2336.0858	1352.1	469.2
961.715	2337.5098	1339.15	458.65
961.8467	2338.9332	1344.5	463.15
961.9783	2340.3558	1346.45	460.9
962.1099	2341.7778	1346.65	465.15
962.2415	2343.199	1335.6	450.4
962.373	2344.6195	1333.8	451.2
962.5045	2346.0393	1337.7	457.75
962.636	2347.4583	1337.05	454.1
962.7675	2348.8767	1337.65	454.95
962.8989	2350.2943	1332.8	450.5
963.0303	2351.7113	1334.3	451.55
963.1617	2353.1275	1334.35	454
963.293	2354.543	1342.6	452.85
963.4243	2355.9578	1335	453.1
963.5556	2357.3718	1326.15	444.7
963.6868	2358.7852	1327.9	442.1
963.818	2360.1978	1325.4	441.95
963.9492	2361.6098	1322.55	441.1
964.0803	2363.021	1325.9	441.4
964.2114	2364.4315	1323.5	441.3
964.3425	2365.8413	1325.85	442.75
964.4736	2367.2504	1324.7	442.4
964.6046	2368.6587	1326.05	444.25
964.7356	2370.0664	1312.95	431.35
964.8666	2371.4733	1318.45	436.9
964.9975	2372.8795	1308.4	427.45
965.1284	2374.285	1312.65	429.5
965.2593	2375.6899	1311.7	430.35
965.3901	2377.0939	1308.65	426.3
965.5209	2378.4973	1308.6	428.95
965.6517	2379.9	1309.05	425.35
965.7825	2381.3019	1307.35	425.95
965.9132	2382.7032	1307.45	427.55
966.0439	2384.1037	1310.25	429.15
966.1745	2385.5035	1304.15	421.2
966.3051	2386.9027	1301.35	419.8
966.4357	2388.3011	1307.9	422.05
966.5663	2389.6987	1301.35	420.45
966.6968	2391.0957	1298.55	416.95
966.8273	2392.492	1292.2	411.65
966.9578	2393.8876	1294.95	412.45
967.0882	2395.2824	1293.95	411.95
967.2186	2396.6765	1285.35	404.25
967.349	2398.07	1286.1	405.75
967.4793	2399.4627	1290.8	409.5
967.6097	2400.8547	1285.95	405.4
967.7399	2402.246	1285	397.55
967.8702	2403.6366	1284.4	402.25
968.0004	2405.0265	1284.45	403.2
968.1306	2406.4156	1293.25	406.45
968.2607	2407.8041	1291.15	407.1
968.3909	2409.1918	1285.65	402.15
968.521	2410.5789	1272.8	392.4
968.651	2411.9652	1282.3	396.95
968.781	2413.3508	1279.45	399
968.911	2414.7358	1278.45	395.7
969.041	2416.12	1270.55	389.8
969.1709	2417.5035	1277.6	397.65
969.3008	2418.8863	1278.85	396.75
969.4307	2420.2684	1266.1	383.4
969.5606	2421.6497	1277.35	396.05
969.6904	2423.0304	1269.65	389.65
969.8201	2424.4104	1265.35	382.4
969.9499	2425.7896	1272.4	384.8
970.0796	2427.1682	1268.7	386.8
970.2093	2428.546	1268.6	385.9
970.3389	2429.9232	1264.7	381.15
970.4685	2431.2996	1262.5	382.5
970.5981	2432.6753	1260.45	381.05
970.7277	2434.0503	1259.75	375
970.8572	2435.4246	1256.8	377.1
970.9867	2436.7982	1258.45	374.25
971.1161	2438.1711	1257	376.5
971.2456	2439.5433	1267.05	385.6
971.375	2440.9148	1260.85	373.9
971.5043	2442.2856	1259.45	378.3
971.6336	2443.6557	1248.7	365.8
971.7629	2445.025	1246.55	366.05
971.8922	2446.3937	1250.25	367.6
972.0214	2447.7617	1242.5	360.8
972.1506	2449.1289	1250.65	370.05
972.2798	2450.4955	1247.25	362.1
972.4089	2451.8613	1246.9	367.2
972.538	2453.2265	1243.45	361.9
972.6671	2454.5909	1244.55	361.5
972.7961	2455.9546	1241.95	360.75
972.9251	2457.3177	1236.7	357.15
973.0541	2458.68	1241.95	360.3
973.1831	2460.0416	1236	355.75
973.312	2461.4025	1244.5	360.7
973.4408	2462.7627	1245.6	353
973.5697	2464.1222	1239.4	358.05
973.6985	2465.4811	1239.75	359.05
973.8273	2466.8392	1242.8	361.75
973.956	2468.1966	1238.9	354.25
974.0847	2469.5533	1234.55	351.15
974.2134	2470.9093	1239.5	357.05
974.3421	2472.2645	1234.45	350.5
974.4707	2473.6191	1234.4	354
974.5993	2474.973	1240.4	358.25
974.7278	2476.3262	1236.85	353.6
974.8563	2477.6787	1229.8	349.35
974.9848	2479.0305	1232.7	352.05
975.1132	2480.3816	1228.45	346.5
975.2417	2481.7319	1233.3	352
975.37	2483.0816	1233.1	350.25
975.4984	2484.4306	1229.6	349.5
975.6267	2485.7789	1224	342.1
975.755	2487.1264	1225.1	342.65
975.8833	2488.4733	1224.6	344.6
976.0115	2489.8195	1234.45	332.25
976.1397	2491.165	1225.25	338.3
976.2678	2492.5097	1219.2	336.4
976.3959	2493.8538	1220.05	340.65
976.524	2495.1972	1219.75	337.85
976.6521	2496.5398	1217.3	334.2
976.7801	2497.8818	1221.85	338.25
976.9081	2499.2231	1212.95	330.95
977.036	2500.5637	1212.55	329.55
977.164	2501.9035	1207.35	327.65
977.2918	2503.2427	1216.95	330.75
977.4197	2504.5812	1214.5	333.85
977.5475	2505.919	1205.4	321.35
977.6753	2507.256	1208.25	327.5
977.8031	2508.5924	1206.25	323.55
977.9308	2509.9281	1215.45	328.1
978.0585	2511.2631	1208.7	328.6
978.1861	2512.5974	1207.85	329.25
978.3137	2513.9309	1205.6	322.45
978.4413	2515.2638	1231	317.5
978.5689	2516.596	1204.5	322.55
978.6964	2517.9275	1203.05	320.35
978.8239	2519.2583	1202.75	318.75
978.9513	2520.5884	1209.6	325.6
979.0788	2521.9178	1202.35	319.45
979.2062	2523.2465	1202.15	319.4
979.3335	2524.5745	1192.7	312.65
979.4608	2525.9018	1194.65	313.5
979.5881	2527.2284	1191.1	310.8
979.7154	2528.5543	1193.7	314.65
979.8426	2529.8796	1190.1	308.05
979.9698	2531.2041	1196	315.05
980.0969	2532.5279	1203.65	323.8
980.224	2533.851	1194.8	312.05
980.3511	2535.1735	1199.2	316.7
980.4781	2536.4952	1190.6	308.55
980.6052	2537.8163	1187.35	304.15
980.7321	2539.1366	1192.7	314.15
980.8591	2540.4562	1192.95	311.4
980.986	2541.7752	1194.35	314.65
981.1129	2543.0935	1191.25	308.55
981.2397	2544.411	1190.3	309.2
981.3665	2545.7279	1188.05	306.25
981.4933	2547.0441	1191.35	310.7
981.62	2548.3596	1195	309.65
981.7467	2549.6744	1180.75	298.05
981.8734	2550.9885	1198.5	307.8
982.0001	2552.3019	1189.15	309.65
982.1267	2553.6146	1188.4	305.7
982.2532	2554.9266	1185.75	301.9
982.3798	2556.2379	1184.85	302.2
982.5063	2557.5485	1182.35	302.15
982.6327	2558.8585	1188.6	299.55
982.7592	2560.1677	1189.85	304
982.8856	2561.4762	1180.95	299.75
983.0119	2562.7841	1187.35	300.15
983.1383	2564.0913	1180.3	300.35
983.2646	2565.3977	1180.2	299.7
983.3908	2566.7035	1182.55	301.85
983.517	2568.0086	1181.9	298.25
983.6432	2569.313	1183.25	300.9
983.7694	2570.6167	1180	296.5
983.8955	2571.9197	1173.5	293.75
984.0216	2573.222	1185.35	302.75
984.1476	2574.5236	1175.95	293.5
984.2737	2575.8246	1183.7	301.7
984.3996	2577.1248	1181.3	296.75
984.5256	2578.4244	1174.7	294
984.6515	2579.7232	1174.8	293.8
984.7774	2581.0214	1212.1	298.8
984.9032	2582.3189	1174.55	293.2
985.029	2583.6157	1183.65	298.15
985.1548	2584.9118	1182.55	300
985.2806	2586.2072	1170.3	288.85
985.4063	2587.5019	1174.45	293.35
985.5319	2588.7959	1177.65	295.75
985.6576	2590.0893	1181.1	297.7
985.7832	2591.3819	1178.3	299.4
985.9087	2592.6739	1174.45	294.9
986.0343	2593.9652	1175.15	292.4
986.1597	2595.2557	1180.55	299.05
986.2852	2596.5456	1178.95	293.45
986.4106	2597.8348	1176.85	295.8
986.536	2599.1234	1176.95	297.35
986.6614	2600.4112	1180.1	296.25
986.7867	2601.6983	1177.85	293.2
986.912	2602.9848	1175.35	293.05
987.0372	2604.2705	1180.75	291.65
987.1624	2605.5556	1177.75	296.65
987.2876	2606.84	1175.95	296.55
987.4128	2608.1237	1175.05	293.05
987.5379	2609.4067	1169.55	287.3
987.6629	2610.689	1178.45	287.8
987.788	2611.9707	1174.15	290.2
987.913	2613.2516	1172.6	285.95
988.0379	2614.5319	1169.95	287.8
988.1629	2615.8115	1171.2	289.25
988.2878	2617.0903	1165.85	284.6
988.4126	2618.3685	1162.2	278.85
988.5375	2619.6461	1161.75	280.3
988.6622	2620.9229	1160.4	279.6
988.787	2622.199	1159	276.1
988.9117	2623.4745	1162.45	281.55
989.0364	2624.7493	1164.7	282.9
989.161	2626.0234	1159.7	279.1
989.2857	2627.2968	1158.5	275.3
989.4102	2628.5695	1163.15	281.45
989.5348	2629.8415	1158	277
989.6593	2631.1128	1160.45	277
989.7837	2632.3835	1159.25	277.85
989.9082	2633.6535	1155.7	274.75
990.0326	2634.9228	1155.75	274.25
990.1569	2636.1914	1154.75	274.9
990.2812	2637.4593	1156.8	274.65
990.4055	2638.7265	1159.7	277.4
990.5298	2639.9931	1152.4	269.3
990.654	2641.259	1152.2	271.1
990.7782	2642.5242	1156.05	272.65
990.9023	2643.7887	1154.65	274.65
991.0264	2645.0525	1149.5	267.1
991.1505	2646.3156	1149.6	267.05
991.2745	2647.5781	1146.4	265.5
991.3985	2648.8398	1145.2	263.9
991.5225	2650.1009	1186.5	266.7
991.6464	2651.3613	1146.75	264.8
991.7703	2652.6211	1145.85	263.95
991.8942	2653.8801	1143.4	264.5
992.018	2655.1385	1147.3	262.4
992.1418	2656.3961	1146	265.2
992.2655	2657.6531	1145.55	264.4
992.3892	2658.9094	1142.45	261
992.5129	2660.1651	1142.85	261.65
992.6366	2661.42	1142.65	261.6
992.7602	2662.6743	1149.15	267.1
992.8837	2663.9279	1149.5	267.45
993.0073	2665.1808	1147.85	265.45
993.1307	2666.433	1153	269.75
993.2542	2667.6846	1147.85	267.35
993.3776	2668.9354	1149.45	264.85
993.501	2670.1856	1150.15	268.5
993.6244	2671.4351	1153.75	272.55
993.7477	2672.6839	1154.1	272.4
993.8709	2673.9321	1148.8	268.05
993.9942	2675.1795	1150.55	268.8
994.1174	2676.4263	1157.5	274.9
994.2405	2677.6724	1155.25	274.8
994.3637	2678.9179	1157.1	275
994.4868	2680.1626	1150.2	270.8
994.6098	2681.4067	1157.55	275.15
994.7328	2682.6501	1151.1	271.85
994.8558	2683.8928	1152.3	269.75
994.9788	2685.1348	1149.6	267.9
995.1017	2686.3761	1150.05	269.7
995.2245	2687.6168	1147.45	267.45
995.3474	2688.8568	1142.65	261.1
995.4702	2690.0961	1138.25	260.05
995.5929	2691.3348	1147.2	267.05
995.7156	2692.5727	1144.55	263.45
995.8383	2693.81	1142.05	260.9
995.961	2695.0466	1139.3	258.9
996.0836	2696.2826	1139.6	255.65
996.2062	2697.5178	1144.95	260.55
996.3287	2698.7524	1141.3	256.7
996.4512	2699.9863	1144.25	260
996.5737	2701.2195	1143.1	263.5
996.6961	2702.452	1145.7	263.35
996.8185	2703.6839	1145.1	261.25
996.9408	2704.9151	1144.8	263.5
997.0631	2706.1456	1154.5	272.1
997.1854	2707.3755	1153.25	273.2
997.3077	2708.6046	1154.85	270.45
997.4299	2709.8331	1156.5	274.4
997.552	2711.0609	1163.25	281.3
997.6742	2712.2881	1158.45	278.15
997.7963	2713.5145	1164.3	282.2
997.9183	2714.7403	1168.45	289.4
998.0403	2715.9654	1170.05	286.75
998.1623	2717.1899	1190.45	295.05
998.2842	2718.4136	1181.2	300.8
998.4062	2719.6367	1187.85	304.85
998.528	2720.8591	1195.45	305.1
998.6498	2722.0809	1196.4	314.15
998.7716	2723.3019	1210.8	326.3
998.8934	2724.5223	1209.1	325.85
999.0151	2725.7421	1208.25	324
999.1368	2726.9611	1213.7	329.7
999.2584	2728.1795	1209.45	322.85
999.38	2729.3972	1205.45	324.3
999.5016	2730.6142	1212.8	317.95
999.6231	2731.8306	1194.6	311.2
999.7446	2733.0462	1189.1	305.6
999.8661	2734.2612	1180.35	294.4
999.9875	2735.4756	1177.45	293.55
1000.1089	2736.6892	1164.8	281.05
1000.2302	2737.9022	1157.45	275.2
1000.3515	2739.1145	1153.45	273.3
1000.4728	2740.3262	1155.85	265.5
1000.594	2741.5372	1145.65	265.55
1000.7152	2742.7475	1143.8	262.2
1000.8363	2743.9571	1134.3	251.55
1000.9575	2745.1661	1135.8	249.45
1001.0785	2746.3744	1125.35	243.65
1001.1996	2747.582	1122.65	241.75
1001.3206	2748.7889	1119.9	236.8
1001.4415	2749.9952	1121.5	240.6
1001.5625	2751.2008	1114.6	232
1001.6833	2752.4057	1112.95	229.15
1001.8042	2753.61	1114.65	232.1
1001.925	2754.8136	1111.3	227.8
1002.0458	2756.0165	1106.95	226.7
1002.1665	2757.2188	1110.55	229.3
1002.2872	2758.4204	1110.2	228.05
1002.4078	2759.6213	1108.85	224.75
1002.5285	2760.8215	1117.4	229.8
1002.649	2762.0211	1109.95	223.95
1002.7696	2763.22	1108.25	223.05
1002.8901	2764.4182	1108.5	224.6
1003.0106	2765.6158	1109.45	227.05
1003.131	2766.8127	1107.5	227.25
1003.2514	2768.009	1099.5	216.95
1003.3717	2769.2045	1098.05	215.3
1003.492	2770.3994	1108.05	225.6
1003.6123	2771.5936	1102	218.6
1003.7325	2772.7872	1099.95	217.9
1003.8527	2773.9801	1100.55	216.35
1003.9729	2775.1723	1108.75	210.35
1004.093	2776.3639	1094.25	213.85
1004.2131	2777.5548	1098.9	215.25
1004.3331	2778.745	1094.7	211.3
1004.4531	2779.9346	1098.2	215.5
1004.5731	2781.1235	1098.65	213.75
1004.693	2782.3117	1095.55	214.55
1004.8129	2783.4992	1093.3	210.55
1004.9328	2784.6861	1099.3	217.2
1005.0526	2785.8723	1105.7	221.55
1005.1723	2787.0579	1101.55	219.8
1005.2921	2788.2428	1103.15	222.25
1005.4118	2789.427	1106.25	225.45
1005.5314	2790.6106	1106.15	224.45
1005.651	2791.7935	1112.6	230.75
1005.7706	2792.9757	1111.4	231
1005.8902	2794.1573	1116	234.55
1006.0097	2795.3382	1121.35	240.45
1006.1291	2796.5184	1122.2	243.8
1006.2485	2797.698	1131.7	246.25
1006.3679	2798.8769	1134.35	253.75
1006.4873	2800.0551	1139.8	258.4
1006.6066	2801.2327	1144.7	258.4
1006.7258	2802.4096	1147.65	265.6
1006.8451	2803.5859	1158.95	277.75
1006.9642	2804.7615	1165.3	283.35
1007.0834	2805.9364	1169.1	289.55
1007.2025	2807.1106	1177.3	295.65
1007.3216	2808.2842	1196.4	314.35
1007.4406	2809.4572	1201.8	320.2
1007.5596	2810.6294	1217.3	334.5
1007.6785	2811.801	1231.6	352
1007.7975	2812.972	1247.25	365.9
1007.9163	2814.1423	1259.8	378.6
1008.0352	2815.3119	1288.7	407.5
1008.154	2816.4808	1302	420
1008.2727	2817.6491	1331.6	452.2
1008.3914	2818.8167	1349.6	469.15
1008.5101	2819.9837	1380.75	494.2
1008.6288	2821.15	1399.3	515.2
1008.7474	2822.3157	1417.25	537.3
1008.8659	2823.4807	1451.8	569.5
1008.9844	2824.645	1478.7	594.75
1009.1029	2825.8086	1499.2	618.35
1009.2214	2826.9716	1519.3	638.7
1009.3398	2828.134	1546.35	665.1
1009.4581	2829.2957	1569.1	687.9
1009.5764	2830.4567	1589.25	708.8
1009.6947	2831.617	1591.45	708.8
1009.813	2832.7767	1595.35	713.85
1009.9312	2833.9358	1587.5	707.05
1010.0493	2835.0941	1592.7	710.3
1010.1675	2836.2519	1590.4	709.5
1010.2855	2837.4089	1582.8	700.75
1010.4036	2838.5653	1568	684.75
1010.5216	2839.7211	1553.8	674.35
1010.6396	2840.8761	1566.3	683.95
1010.7575	2842.0306	1560.2	681.1
1010.8754	2843.1843	1568.6	686.25
1010.9932	2844.3374	1590.9	708.4
1011.111	2845.4899	1604.8	721.7
1011.2288	2846.6417	1629.1	748.55
1011.3465	2847.7928	1653.4	773.4
1011.4642	2848.9433	1683.95	801.65
1011.5818	2850.0931	1708.75	829.5
1011.6995	2851.2422	1733.8	850.7
1011.817	2852.3907	1757.85	873.35
1011.9345	2853.5385	1772.95	889.45
1012.052	2854.6857	1818.5	910.6
1012.1695	2855.8323	1825.55	944.15
1012.2869	2856.9781	1845.2	966.55
1012.4042	2858.1233	1875.3	993.3
1012.5216	2859.2679	1892.85	1012.45
1012.6389	2860.4118	1916.35	1034
1012.7561	2861.555	1943	1055.75
1012.8733	2862.6976	1945.6	1061.8
1012.9905	2863.8395	1969.45	1088.8
1013.1076	2864.9808	1983.95	1101.55
1013.2247	2866.1214	1992.4	1111.9
1013.3417	2867.2614	2000.4	1118.85
1013.4587	2868.4007	2007.75	1124.25
1013.5757	2869.5393	2016.35	1131.5
1013.6926	2870.6773	2019	1137.15
1013.8095	2871.8146	2034.35	1150.7
1013.9263	2872.9513	2028.85	1143.5
1014.0431	2874.0874	2025.8	1144.75
1014.1599	2875.2227	2017.3	1136.55
1014.2766	2876.3574	2003.85	1122.1
1014.3933	2877.4915	2001.15	1119.75
1014.51	2878.6249	1981.45	1100.8
1014.6266	2879.7577	1968.5	1087.1
1014.7431	2880.8898	1971.2	1078.95
1014.8596	2882.0212	1963.2	1082.65
1014.9761	2883.152	1957.85	1076.75
1015.0925	2884.2821	1942.3	1061.85
1015.2089	2885.4116	1943.15	1062.75
1015.3253	2886.5405	1942.85	1062.6
1015.4416	2887.6686	1956.75	1073.45
1015.5579	2888.7962	1959.4	1080.65
1015.6741	2889.923	1958.8	1079.4
1015.7903	2891.0493	1962.55	1080.8
1015.9065	2892.1748	1974.05	1092.35
1016.0226	2893.2997	1986.05	1104.75
1016.1387	2894.424	1971.95	1092.4
1016.2547	2895.5476	1989.85	1108
1016.3707	2896.6706	1990.85	1110.4
1016.4866	2897.7929	2003.1	1123.05
1016.6025	2898.9145	2019.85	1137.25
1016.7184	2900.0355	2025.55	1143.35
1016.8342	2901.1559	2043.65	1160.9
1016.95	2902.2756	2049.25	1167.75
1017.0658	2903.3946	2058.35	1177.05
1017.1815	2904.513	2067.15	1182
1017.2971	2905.6308	2081.25	1200.75
1017.4127	2906.7479	2094.1	1212.5
1017.5283	2907.8643	2103.15	1221.35
1017.6439	2908.9801	2107.4	1228.65
1017.7594	2910.0953	2110.85	1230.45
1017.8748	2911.2098	2120.5	1235.7
1017.9902	2912.3236	2117.9	1229.65
1018.1056	2913.4368	2097.85	1213.4
1018.2209	2914.5494	2091.35	1208.35
1018.3362	2915.6613	2087.75	1201.85
1018.4515	2916.7725	2085.95	1203.45
1018.5667	2917.8831	2052.7	1169.75
1018.6819	2918.9931	2035.25	1150.3
1018.797	2920.1024	2018.4	1136.85
1018.9121	2921.211	2009.85	1128.25
1019.0271	2922.319	2013.95	1132.35
1019.1421	2923.4264	1998.85	1117.7
1019.2571	2924.5331	1998.45	1117.35
1019.372	2925.6391	1998.15	1117.7
1019.4869	2926.7445	1998.2	1118.15
1019.6017	2927.8493	2002.25	1120.7
1019.7165	2928.9534	1994.55	1112.55
1019.8313	2930.0569	2013.45	1131
1019.946	2931.1597	2012.15	1130.6
1020.0606	2932.2619	2001.05	1118.55
1020.1753	2933.3634	2016.7	1136.45
1020.2899	2934.4643	2027.7	1137.1
1020.4044	2935.5645	2020.85	1133.25
1020.5189	2936.6641	2006.5	1119.1
1020.6334	2937.763	1982.15	1101.2
1020.7478	2938.8613	1971.65	1089.8
1020.8622	2939.959	1961.8	1075.9
1020.9765	2941.056	1932.5	1053.5
1021.0908	2942.1523	1901.55	1020.15
1021.2051	2943.248	1859.6	977.8
1021.3193	2944.3431	1823.4	943.35
1021.4334	2945.4375	1783.95	903.05
1021.5476	2946.5313	1734.95	853.95
1021.6617	2947.6244	1701.5	819.1
1021.7757	2948.7169	1666.05	784.25
1021.8897	2949.8087	1616.95	735.5
1022.0037	2950.8999	1573.15	692.4
1022.1176	2951.9904	1537.9	656.4
1022.2315	2953.0803	1516.15	633.6
1022.3453	2954.1696	1480.55	598.1
1022.4591	2955.2582	1463.85	583.8
1022.5728	2956.3462	1440.3	558.55
1022.6865	2957.4335	1433.05	550.9
1022.8002	2958.5202	1417.15	533.6
1022.9138	2959.6062	1398.75	516.6
1023.0274	2960.6916	1393.35	512.65
1023.141	2961.7764	1387.5	505.35
1023.2545	2962.8605	1375.85	492.95
1023.3679	2963.9439	1370.6	490.7
1023.4813	2965.0267	1369	486.5
1023.5947	2966.1089	1385.25	479.65
1023.708	2967.1905	1361.8	480.8
1023.8213	2968.2714	1362.75	481.3
1023.9346	2969.3516	1365.85	484.5
1024.0478	2970.4312	1371.65	484.85
1024.1609	2971.5102	1363.45	481.85
1024.274	2972.5885	1366.8	486.15
1024.3871	2973.6662	1374.7	486.3
1024.5002	2974.7432	1372.9	492.75
1024.6132	2975.8196	1368.25	489.75
1024.7261	2976.8954	1365.9	487.55
1024.839	2977.9705	1360.65	481.35
1024.9519	2979.045	1357.9	475.4
1025.0647	2980.1188	1351.05	469.8
1025.1775	2981.192	1349.4	470.95
1025.2902	2982.2645	1326.9	445.2
1025.4029	2983.3364	1325.7	443.15
1025.5156	2984.4077	1311	432.15
1025.6282	2985.4783	1311.9	424.25
1025.7407	2986.5483	1284.15	405.45
1025.8532	2987.6177	1276.85	394.85
1025.9657	2988.6864	1265.75	383.9
1026.0782	2989.7545	1250.3	367.05
1026.1906	2990.8219	1235.45	355.5
1026.3029	2991.8887	1222.05	339.6
1026.4152	2992.9548	1205.45	322.7
1026.5275	2994.0204	1188.95	309.55
1026.6397	2995.0852	1176.15	295.35
1026.7519	2996.1495	1164.95	283.25
1026.864	2997.2131	1156.5	276
1026.9761	2998.276	1144.05	264.15
1027.0882	2999.3383	1136.4	253.85
1027.2002	3000.4	1126.05	245.65
1027.3122	3001.4611	1116.3	236.2
1027.4241	3002.5215	1114	231
1027.536	3003.5812	1100.05	219.65
1027.6478	3004.6404	1095.1	215.55
1027.7596	3005.6989	1092.1	207.45
1027.8714	3006.7567	1086.85	206.05
1027.9831	3007.8139	1111.8	205.25
1028.0947	3008.8705	1076.95	194.7
1028.2064	3009.9264	1086.9	189.1
1028.3179	3010.9818	1068.55	188.55
1028.4295	3012.0364	1067.9	186
1028.541	3013.0905	1064.45	182.95
1028.6524	3014.1439	1059.15	177.65
1028.7638	3015.1966	1058.3	176.85
1028.8752	3016.2487	1057.7	177.6
1028.9865	3017.3002	1065.15	177.15
1029.0978	3018.3511	1052.9	172.8
1029.209	3019.4013	1051.2	167.55
1029.3202	3020.4509	1045.95	163.9
1029.4314	3021.4998	1050.6	170.8
1029.5425	3022.5481	1049.25	167.8
1029.6535	3023.5958	1044.3	164.45
1029.7645	3024.6428	1055	171.85
1029.8755	3025.6892	1050.35	170.3
1029.9864	3026.735	1047.75	166.1
1030.0973	3027.7802	1048.35	167.2
1030.2082	3028.8247	1047.5	165.1
1030.319	3029.8685	1050.7	168.3
1030.4297	3030.9118	1042.85	161.15
1030.5404	3031.9544	1048.4	168.95
1030.6511	3032.9963	1047.15	164.55
1030.7617	3034.0376	1051.4	172.1
1030.8723	3035.0783	1057.3	173.3
1030.9829	3036.1184	1055.85	173.4
1031.0934	3037.1578	1052.45	172.3
1031.2038	3038.1966	1056.7	174.5
1031.3142	3039.2348	1054.75	173.2
1031.4246	3040.2723	1063.5	172.45
1031.5349	3041.3092	1054.75	173.25
1031.6452	3042.3455	1056.8	175.9
1031.7554	3043.3811	1058.7	176.9
1031.8656	3044.4161	1057.8	175.45
1031.9758	3045.4505	1048.55	169.5
1032.0859	3046.4842	1053.5	170.7
1032.1959	3047.5173	1053.1	174.6
1032.3059	3048.5498	1054.05	172.5
1032.4159	3049.5816	1051.05	170.85
1032.5258	3050.6128	1049.4	166.95
1032.6357	3051.6434	1046.4	162.8
1032.7455	3052.6734	1050.7	170.55
1032.8553	3053.7027	1046	164
1032.9651	3054.7314	1045.75	165.15
1033.0748	3055.7594	1042.4	162.45
1033.1845	3056.7868	1042.75	160.4
1033.2941	3057.8136	1040.25	159.9
1033.4037	3058.8398	1040.65	157.45
1033.5132	3059.8653	1040.35	157.85
1033.6227	3060.8902	1036.85	153.1
1033.7321	3061.9145	1035.35	153.8
1033.8415	3062.9381	1036.7	156.4
1033.9509	3063.9612	1047.7	152.1
1034.0602	3064.9835	1032.1	153
1034.1694	3066.0053	1035.85	153.6
1034.2787	3067.0264	1030.3	149.6
1034.3878	3068.0469	1028.85	145.75
1034.497	3069.0668	1033.7	148.85
1034.6061	3070.086	1028.15	146.95
1034.7151	3071.1046	1030.45	146.85
1034.8241	3072.1226	1027.65	145.35
1034.9331	3073.1399	1014.2	133.65
1035.042	3074.1567	1014.2	131
1035.1508	3075.1727	1014.25	130.65
1035.2597	3076.1882	1008	124.9
1035.3684	3077.203	1001.9	120
1035.4772	3078.2173	1003.85	121.2
1035.5859	3079.2308	1004.9	121.1
1035.6945	3080.2438	1000.6	118.2
1035.8031	3081.2561	991.15	112.05
1035.9117	3082.2678	990.3	108
1036.0202	3083.2789	994.25	112.4
1036.1286	3084.2893	986.75	106.15
1036.2371	3085.2991	987.2	106.85
1036.3454	3086.3083	989.6	103
1036.4538	3087.3169	981.3	97.95
1036.562	3088.3248	979.6	97.9
1036.6703	3089.3321	979.1	94.45
1036.7785	3090.3388	974.5	93.15
1036.8866	3091.3449	971.75	91.25
1036.9948	3092.3503	970.25	86.35
1037.1028	3093.3551	971.2	91.7
1037.2108	3094.3593	970.7	92
1037.3188	3095.3629	967.95	87
1037.4267	3096.3658	967.3	84.45
1037.5346	3097.3681	966.15	86.95
1037.6425	3098.3698	969.05	85.9
1037.7503	3099.3708	970.7	84.45
1037.858	3100.3713	962.5	83.4
1037.9657	3101.3711	962.9	80.45
1038.0734	3102.3702	1098.55	73.8
1038.181	3103.3688	962.25	80.55
1038.2886	3104.3667	960.3	80.65
1038.3961	3105.364	958.1	78.1
1038.5036	3106.3607	953.8	70.4
1038.611	3107.3568	956.85	74.7
1038.7184	3108.3522	957.6	76.35
1038.8257	3109.347	952.8	71.3
1038.933	3110.3412	953.2	67.4
1039.0403	3111.3348	950.55	69.75
1039.1475	3112.3277	950	68.9
1039.2547	3113.32	947.35	67.2
1039.3618	3114.3117	950.5	67.75
1039.4689	3115.3028	948.95	66.35
1039.5759	3116.2932	952.75	70.8
1039.6829	3117.2831	953.85	65.6
1039.7898	3118.2723	946.7	65.5
1039.8967	3119.2608	945.05	62.95
1040.0035	3120.2488	945.55	66
1040.1103	3121.2361	945.2	64.4
1040.2171	3122.2229	941.1	60.8
1040.3238	3123.209	944.5	63.4
1040.4305	3124.1944	941.3	61.65
1040.5371	3125.1793	941.05	55.95
1040.6437	3126.1635	940.15	58.75
1040.7502	3127.1471	940.25	59.5
1040.8567	3128.1301	941.55	61.75
1040.9631	3129.1125	942.35	61
1041.0695	3130.0942	940.25	58.1
1041.1759	3131.0753	946.3	57.05
1041.2822	3132.0558	940.8	54.8
1041.3884	3133.0357	936.75	52.75
1041.4946	3134.015	936.45	52.35
1041.6008	3134.9936	937.5	55.3
1041.7069	3135.9716	956.1	54.1
1041.813	3136.949	934.9	52.7
1041.919	3137.9258	951.8	49.95
1042.025	3138.902	941.25	54.1
1042.1309	3139.8775	933.35	53.75
1042.2368	3140.8524	934.8	54.8
1042.3427	3141.8267	932.4	48.4
1042.4485	3142.8004	935.05	52.15
1042.5542	3143.7735	941.65	54.15
1042.6599	3144.7459	938.1	54.05
1042.7656	3145.7178	932.1	51.15
1042.8712	3146.689	928.6	48.35
1042.9768	3147.6596	932.4	49.05
1043.0823	3148.6295	930.6	48.1
1043.1878	3149.5989	932.05	51.5
1043.2932	3150.5676	927.65	47.6
1043.3986	3151.5357	927.4	47.8
1043.5039	3152.5032	930.5	47.55
1043.6092	3153.4701	930.8	50.45
1043.7145	3154.4364	931.6	50.2
1043.8197	3155.402	927.2	46.2
1043.9248	3156.367	930.15	48.8
1044.03	3157.3315	946.1	44.85
1044.135	3158.2952	927.15	46.5
1044.24	3159.2584	926.7	46.45
1044.345	3160.221	926.4	46.6
1044.4499	3161.1829	929.8	48.95
1044.5548	3162.1442	923.75	42.7
1044.6596	3163.105	926.55	45.75
1044.7644	3164.065	924.75	43.15
1044.8692	3165.0245	927.75	44.9
1044.9739	3165.9834	922.5	44.15
1045.0785	3166.9416	923.1	41
1045.1831	3167.8993	924.4	43.4
1045.2877	3168.8563	924.15	42.3
1045.3922	3169.8127	922.15	43.2
1045.4966	3170.7684	924.25	43.65
1045.6011	3171.7236	924.3	39.9
1045.7054	3172.6782	920.95	40.35
1045.8098	3173.6321	924.55	43.15
1045.914	3174.5854	925.4	40.6
1046.0183	3175.5381	925.25	45.2
1046.1224	3176.4902	922.05	42.65
1046.2266	3177.4417	919.9	39.3
1046.3307	3178.3926	920.2	37.7
1046.4347	3179.3428	920.5	40.4
1046.5387	3180.2924	921	38.75
1046.6427	3181.2415	920.95	39.6
1046.7466	3182.1899	922.3	39.95
1046.8504	3183.1377	920.95	39.85
1046.9542	3184.0848	924.8	39.7
1047.058	3185.0314	918.25	38.15
1047.1617	3185.9773	919.6	37.6
1047.2654	3186.9227	919.1	36.6
1047.369	3187.8674	918.95	38.75
1047.4726	3188.8115	924.55	38.1
1047.5761	3189.755	919.25	40.1
1047.6796	3190.6979	918.95	37.15
1047.783	3191.6402	916.55	36.55
1047.8864	3192.5818	917.2	36.65
1047.9898	3193.5229	939.7	36.25
1048.0931	3194.4633	919.15	39.65
1048.1963	3195.4031	919.25	37.5
1048.2995	3196.3423	916.65	36.35
1048.4027	3197.2809	917.15	34.45
1048.5058	3198.2189	915.5	33.45
1048.6089	3199.1563	921.8	35.35
1048.7119	3200.0931	917.8	37.25
1048.8148	3201.0292	914.9	32.5
1048.9178	3201.9648	914	33.3
1049.0206	3202.8997	918.6	34.4
1049.1235	3203.834	915.35	35.1
1049.2262	3204.7677	912.3	30.2
1049.329	3205.7008	915.6	32.7
1049.4317	3206.6333	914.65	34.5
1049.5343	3207.5652	915.35	32.25
1049.6369	3208.4964	916.8	36.25
1049.7394	3209.4271	915.4	33.35
1049.8419	3210.3571	912.1	29.15
1049.9444	3211.2865	915.2	33.45
1050.0468	3212.2154	914.75	32.4
1050.1491	3213.1436	915.05	30.95
1050.2514	3214.0712	923.5	35.75
1050.3537	3214.9982	914.45	33
1050.4559	3215.9246	912.2	28.65
1050.5581	3216.8503	910.6	30.15
1050.6602	3217.7755	912.7	31.7
1050.7623	3218.7001	913.55	31.85
1050.8643	3219.624	910.95	30.2
1050.9663	3220.5473	910.75	28.45
1051.0682	3221.4701	913.95	29.3
1051.1701	3222.3922	913.75	30.25
1051.2719	3223.3137	913.7	33.55
1051.3737	3224.2346	909.5	27.95
1051.4754	3225.1549	910.95	29.3
1051.5771	3226.0746	912	30.75
1051.6788	3226.9937	911.8	28.6
1051.7804	3227.9121	908.9	28.9
1051.8819	3228.83	910.45	30.5
1051.9834	3229.7473	909.65	27.45
1052.0849	3230.6639	910.45	27.55
1052.1863	3231.5799	908.65	27.95
1052.2876	3232.4954	912.35	31.15
1052.3889	3233.4102	909.55	27.75
1052.4902	3234.3244	912.25	31.95
1052.5914	3235.238	908.95	27.65
1052.6926	3236.151	934.15	27.45
1052.7937	3237.0634	907.25	27.7
1052.8948	3237.9752	909.6	27.3
1052.9958	3238.8864	911.5	28.65
1053.0968	3239.797	908.4	28.05
1053.1977	3240.7069	910.2	28.1
1053.2986	3241.6163	913.05	30.25
1053.3994	3242.5251	908.3	27.8
1053.5002	3243.4332	906.6	26.6
1053.6009	3244.3408	909.45	28.3
1053.7016	3245.2477	908.55	28.95
1053.8022	3246.154	908.8	27.15
1053.9028	3247.0598	909.2	27.75
1054.0034	3247.9649	908.6	27.2
1054.1039	3248.8694	906.1	26.4
1054.2043	3249.7733	904.95	24.3
1054.3047	3250.6766	908.95	25.45
1054.4051	3251.5793	907	25.4
1054.5054	3252.4814	905.4	24
1054.6056	3253.3829	904.8	24.95
1054.7058	3254.2838	906.35	25.95
1054.806	3255.1841	905.95	22.1
1054.9061	3256.0838	905.4	22.75
1055.0061	3256.9829	902.9	23.45
1055.1062	3257.8814	906.25	22
1055.2061	3258.7792	905.1	22.1
1055.306	3259.6765	907.15	25.45
1055.4059	3260.5731	902.95	21
1055.5057	3261.4692	902.8	20
1055.6055	3262.3647	903.3	21.9
1055.7052	3263.2595	902.3	19.8
1055.8049	3264.1538	903.15	21.05
1055.9045	3265.0474	901.1	19.6
1056.0041	3265.9404	901.2	20.2
1056.1036	3266.8329	902.95	23.35
1056.2031	3267.7247	910.85	18.4
1056.3025	3268.616	899.3	19.3
1056.4019	3269.5066	901.3	17.85
1056.5013	3270.3966	902.5	18.6
1056.6005	3271.286	899.4	18.85
