Software Version:	3.9.2.0
Unit SN:	10000200
Spectrometer SN:	6960
Date:	3/14/2024 12:51:51 PM
Data Line Index:	25
Spectral Points:	2048
Integration time (ms):	125
Averages:	20
Delay (ms):	30000
Sequence Number:	1
Processing:	dark subtract
Laser Power (mW):	300
Laser Current (mA):	823
Laser Diode Temp (C):	25
Laser Case Temp (C):	27.6
System Temp (C):	27.7
Spectrometer Temp (C):	25.4
CCD Temp (C):	0.015
Secondary Temp (C):	20.007
Heatsink Temp (C):	23.572
CCDPCB Temp (C):	37.207
SecondaryPCB Temp (C):	34.773

Wavelength	RamanShift	Raw Counts	Dark Subtracted
787.061	30.1047	418.25	6.35
787.2016	32.3739	416.5	5.25
787.3422	34.6426	416.95	6.5
787.4828	36.9109	418.2	3.25
787.6235	39.1787	423.65	6.35
787.7642	41.4461	428.2	5.1
787.9049	43.7131	432.6	6.3
788.0456	45.9796	434.75	6.4
788.1863	48.2456	439.15	6.5
788.3271	50.5112	446.6	8.85
788.4679	52.7764	449.15	9.7
788.6087	55.0411	453.6	9.7
788.7496	57.3054	457.95	10.35
788.8904	59.5692	462.35	13.75
789.0313	61.8326	466.5	14.65
789.1722	64.0955	473.05	15.35
789.3132	66.3579	480.7	17.2
789.4541	68.6199	485.65	18.8
789.5951	70.8815	494.45	27.3
789.7361	73.1426	507.95	38.05
789.8771	75.4032	537.9	61.7
790.0181	77.6634	601	119.85
790.1592	79.9231	741.4	256.7
790.3003	82.1824	1046.75	555.55
790.4414	84.4412	1550.45	1048.65
790.5825	86.6995	2219.2	1707.35
790.7237	88.9574	2887	2364.2
790.8648	91.2148	3341.3	2815.95
791.006	93.4717	3572.85	3040.75
791.1472	95.7282	3634.05	3096.75
791.2885	97.9842	3656.45	3114.45
791.4297	100.2398	3636	3092.45
791.571	102.4949	3603.9	3058.05
791.7123	104.7495	3586.3	3033.55
791.8536	107.0036	3563.4	3013.65
791.9949	109.2573	3520.5	2971.5
792.1363	111.5105	3471.4	2919.85
792.2777	113.7632	3413.8	2860.5
792.4191	116.0154	3360.85	2797.45
792.5605	118.2672	3296.75	2739.25
792.7019	120.5185	3234.2	2673.65
792.8434	122.7693	3182.2	2621.6
792.9849	125.0197	3127.9	2567.45
793.1264	127.2696	3096.05	2530.2
793.2679	129.519	3073.45	2504.05
793.4094	131.7679	3056.1	2486.15
793.551	134.0163	3047.3	2474.7
793.6926	136.2642	3023.55	2444.15
793.8342	138.5117	3030.8	2446.05
793.9758	140.7587	3019.45	2437.85
794.1175	143.0052	2978.55	2390.5
794.2591	145.2512	2955.05	2366.4
794.4008	147.4967	2918.4	2331.8
794.5425	149.7417	2893	2302.1
794.6842	151.9863	2875.2	2283.15
794.826	154.2304	2863.9	2268.1
794.9677	156.4739	2856	2251.5
795.1095	158.717	2868.1	2267.15
795.2513	160.9596	2873.65	2267.45
795.3931	163.2017	2873.55	2264.2
795.535	165.4433	2887.7	2275.75
795.6768	167.6844	2876.75	2264.6
795.8187	169.925	2872.75	2258.9
795.9606	172.1651	2840.95	2222.7
796.1025	174.4047	2811.6	2188.15
796.2445	176.6439	2777	2151.95
796.3864	178.8825	2760.45	2133.45
796.5284	181.1206	2761.3	2128.85
796.6704	183.3582	2749.25	2114.45
796.8124	185.5954	2734.25	2100.85
796.9544	187.832	2732.7	2093.3
797.0965	190.0681	2747.65	2107.5
797.2386	192.3037	2746.5	2103.9
797.3806	194.5388	2752.1	2104.45
797.5228	196.7734	2751.6	2099.95
797.6649	199.0075	2757.7	2104.1
797.807	201.2411	2759.8	2104.4
797.9492	203.4742	2787.7	2131.35
798.0914	205.7068	2796.8	2138.95
798.2336	207.9389	2795.4	2136.25
798.3758	210.1704	2816.3	2154.65
798.518	212.4015	2808.85	2143.15
798.6603	214.632	2829.65	2163.1
798.8025	216.862	2815.3	2155.6
798.9448	219.0915	2802.65	2144.6
799.0871	221.3205	2804.9	2152.6
799.2294	223.549	2797.9	2153.55
799.3718	225.777	2800.6	2157.95
799.5141	228.0044	2794.55	2146.85
799.6565	230.2314	2777.5	2131.4
799.7989	232.4578	2772.95	2124.55
799.9413	234.6837	2766.2	2113.35
800.0837	236.909	2753.7	2101.7
800.2262	239.1339	2770.7	2096
800.3687	241.3582	2752.8	2091.65
800.5111	243.582	2770.05	2082.15
800.6536	245.8053	2768.95	2085.05
800.7961	248.0281	2762.3	2080.1
800.9387	250.2503	2766.65	2085.9
801.0812	252.472	2776.55	2088.45
801.2238	254.6932	2774.55	2084.35
801.3664	256.9139	2773.1	2080.55
801.509	259.134	2781.75	2086.35
801.6516	261.3536	2787.1	2093.2
801.7942	263.5727	2808.95	2111.45
801.9369	265.7912	2823.6	2127.25
802.0795	268.0092	2863.6	2168.65
802.2222	270.2267	2886.05	2189.7
802.3649	272.4436	2911.8	2212.85
802.5076	274.6601	2949.95	2239.9
802.6504	276.8759	2951.5	2252.35
802.7931	279.0913	2939.5	2238.4
802.9359	281.3061	2954.75	2252
803.0787	283.5204	2960.8	2253.25
803.2215	285.7341	2976.2	2262.55
803.3643	287.9473	2976.35	2263.4
803.5071	290.16	2996.95	2279.8
803.6499	292.3721	2972.05	2261.15
803.7928	294.5837	2941.25	2227.15
803.9357	296.7947	2912.95	2200
804.0786	299.0052	2908.9	2195.35
804.2215	301.2152	2887.95	2171.6
804.3644	303.4246	2868.4	2156.05
804.5074	305.6334	2861.5	2146.2
804.6503	307.8418	2840.15	2121.1
804.7933	310.0495	2824.95	2106.6
804.9363	312.2568	2805.25	2088.35
805.0793	314.4635	2776.55	2057.15
805.2223	316.6696	2741.9	2019.9
805.3653	318.8752	2719.65	1989.25
805.5084	321.0802	2691	1968.8
805.6514	323.2847	2682.8	1958.8
805.7945	325.4887	2672.95	1950.4
805.9376	327.692	2684.55	1961.1
806.0807	329.8949	2709.15	1983.3
806.2238	332.0972	2738.6	2010.1
806.367	334.2989	2757.95	2024
806.5101	336.5001	2744.05	2011.2
806.6533	338.7007	2715.7	1982.15
806.7965	340.9008	2692.75	1959.3
806.9397	343.1003	2656.85	1920.05
807.0829	345.2992	2636.8	1899.45
807.2261	347.4976	2605.3	1866.8
807.3693	349.6955	2573.8	1827.2
807.5126	351.8927	2573.6	1830.35
807.6559	354.0895	2551.55	1797.1
807.7991	356.2856	2553.5	1806.85
807.9424	358.4812	2536.1	1789.35
808.0857	360.6763	2528.75	1782.45
808.2291	362.8707	2518.95	1768.6
808.3724	365.0646	2526.15	1774.55
808.5158	367.258	2529.45	1778.7
808.6591	369.4508	2535.8	1780.2
808.8025	371.643	2537.65	1782.2
808.9459	373.8346	2552.1	1793.35
809.0893	376.0257	2571	1807.55
809.2327	378.2162	2591.3	1832.25
809.3762	380.4062	2604.75	1841.65
809.5196	382.5956	2591.45	1827.5
809.6631	384.7844	2553.8	1791.25
809.8066	386.9726	2519.25	1754.5
809.9501	389.1603	2498.25	1731.45
810.0936	391.3474	2516.3	1717.95
810.2371	393.5339	2484.5	1716
810.3806	395.7199	2482.05	1717.15
810.5241	397.9052	2499.75	1743.25
810.6677	400.09	2509.35	1749.55
810.8113	402.2743	2532	1773.6
810.9548	404.4579	2541	1783.2
811.0984	406.641	2570	1812.05
811.2421	408.8235	2597.7	1835.55
811.3857	411.0054	2648.75	1887.8
811.5293	413.1868	2712.55	1946.1
811.673	415.3675	2778.7	2013.25
811.8166	417.5477	2782.55	2016.8
811.9603	419.7273	2712.3	1943.25
812.104	421.9064	2618.35	1841.2
812.2477	424.0848	2560.2	1789.1
812.3914	426.2627	2532.8	1756.9
812.5351	428.4399	2495.6	1719.45
812.6788	430.6166	2459.75	1679.3
812.8226	432.7928	2424.2	1642.8
812.9663	434.9683	2394.95	1614.6
813.1101	437.1432	2379.1	1594.3
813.2539	439.3176	2356.4	1571.25
813.3977	441.4914	2342.35	1557.55
813.5415	443.6645	2347.75	1559.4
813.6853	445.8371	2338.4	1550.15
813.8291	448.0091	2332.6	1545.45
813.973	450.1806	2333.5	1547.15
814.1168	452.3514	2318.15	1527.1
814.2607	454.5216	2324.9	1525.15
814.4046	456.6913	2313	1523.75
814.5485	458.8603	2320.25	1530.15
814.6924	461.0288	2314.95	1526
814.8363	463.1967	2310.9	1517.85
814.9802	465.3639	2309.05	1517.05
815.1241	467.5306	2300.05	1506.95
815.2681	469.6967	2301.2	1506.7
815.412	471.8622	2286.6	1491.9
815.556	474.0271	2284	1490.2
815.7	476.1914	2276.95	1480.8
815.844	478.3551	2270.2	1475.1
815.988	480.5182	2266.85	1470.25
816.132	482.6807	2272.35	1473.95
816.276	484.8426	2288.55	1491.9
816.4201	487.0039	2305.85	1508.4
816.5641	489.1647	2343.7	1543.95
816.7082	491.3248	2366.65	1568.4
816.8522	493.4843	2363	1562.7
816.9963	495.6432	2371.9	1570.5
817.1404	497.8015	2342.7	1540.4
817.2845	499.9592	2316.85	1516.35
817.4286	502.1163	2276.4	1474.75
817.5727	504.2728	2253.25	1450.85
817.7168	506.4287	2237.65	1434
817.861	508.5839	2222.45	1416.7
818.0051	510.7386	2214.9	1412.15
818.1493	512.8927	2233.65	1420.9
818.2935	515.0461	2223.95	1419.25
818.4377	517.199	2227.4	1423.85
818.5818	519.3512	2254.25	1445.95
818.726	521.5029	2298.95	1486.85
818.8703	523.6539	2320.45	1510.05
819.0145	525.8043	2335.2	1528.25
819.1587	527.9541	2300.95	1492.25
819.303	530.1033	2256.35	1445.85
819.4472	532.2519	2221.15	1411.4
819.5915	534.3999	2210.5	1398.8
819.7357	536.5472	2199.7	1389.7
819.88	538.694	2202	1390.45
820.0243	540.8401	2211.45	1398.8
820.1686	542.9856	2221.15	1407.65
820.3129	545.1305	2225.05	1410.9
820.4572	547.2748	2235.05	1423.05
820.6016	549.4185	2228.6	1414.1
820.7459	551.5615	2233.05	1418.85
820.8902	553.704	2246.85	1434.05
821.0346	555.8458	2249.65	1435.25
821.1789	557.987	2258.4	1445.6
821.3233	560.1276	2278.25	1459.9
821.4677	562.2675	2313.3	1497.75
821.6121	564.4069	2345.25	1529.7
821.7565	566.5456	2362.3	1545.55
821.9009	568.6837	2352.55	1534.75
822.0453	570.8212	2314.45	1500
822.1897	572.958	2272.3	1453.1
822.3342	575.0942	2238.85	1422.25
822.4786	577.2299	2230.85	1409.5
822.6231	579.3648	2195.25	1373.25
822.7675	581.4992	2177.85	1356.3
822.912	583.6329	2183.9	1364.5
823.0565	585.766	2185.6	1363.95
823.201	587.8985	2219.2	1397.8
823.3454	590.0304	2249.5	1415.45
823.4899	592.1616	2256.9	1432.5
823.6345	594.2922	2248.9	1424.95
823.779	596.4222	2236.3	1414.3
823.9235	598.5515	2188.9	1364.75
824.068	600.6802	2152.95	1329.2
824.2126	602.8083	2128.3	1304.85
824.3571	604.9358	2122.3	1294.25
824.5017	607.0626	2114.85	1291.7
824.6462	609.1888	2121.25	1294.4
824.7908	611.3144	2135.4	1311.1
824.9354	613.4393	2156.15	1330.7
825.08	615.5636	2191.75	1365
825.2246	617.6873	2205.9	1380.85
825.3692	619.8103	2224.1	1393.5
825.5138	621.9327	2226.5	1394.25
825.6584	624.0544	2203.5	1376.55
825.803	626.1756	2168.65	1339.15
825.9477	628.2961	2129.8	1300.2
826.0923	630.4159	2122.15	1293.1
826.237	632.5351	2124.15	1294.4
826.3816	634.6537	2117.1	1285.5
826.5263	636.7716	2103.5	1271.65
826.6709	638.8889	2099.35	1268.85
826.8156	641.0056	2113.35	1281.75
826.9603	643.1216	2110.65	1281.55
827.105	645.237	2119.25	1284.95
827.2497	647.3518	2107.95	1275.15
827.3944	649.4659	2081.8	1249.15
827.5391	651.5793	2078.65	1244.8
827.6838	653.6922	2063.05	1229.65
827.8285	655.8043	2053.1	1217.7
827.9733	657.9159	2050.8	1213.7
828.118	660.0268	2040.9	1203.95
828.2627	662.137	2028.3	1193.5
828.4075	664.2466	2041.8	1203.15
828.5522	666.3556	2032.2	1193.9
828.697	668.4639	2034.4	1194.75
828.8418	670.5716	2031.75	1194.25
828.9865	672.6786	2020.2	1182.05
829.1313	674.785	2017.5	1177.25
829.2761	676.8907	2010	1173.75
829.4209	678.9958	1998.85	1160.9
829.5657	681.1002	2001.7	1161.45
829.7105	683.204	1998.6	1156.85
829.8553	685.3072	2005.3	1165.15
830.0001	687.4097	2002.85	1164.05
830.1449	689.5115	2002.7	1158.35
830.2898	691.6127	1996.7	1157.7
830.4346	693.7132	2003.4	1161.7
830.5794	695.8131	1999	1144.45
830.7243	697.9123	2000.25	1156
830.8691	700.0109	2009.45	1166.55
831.014	702.1089	2007.8	1167.1
831.1588	704.2061	2009.75	1167.85
831.3037	706.3028	2020.25	1177.45
831.4486	708.3987	2042.85	1199.6
831.5935	710.4941	2040.55	1198
831.7383	712.5887	2042.2	1198.3
831.8832	714.6827	2042.4	1196
832.0281	716.7761	2041.7	1199.45
832.173	718.8688	2037.45	1191.3
832.3179	720.9608	2042.1	1193.25
832.4628	723.0522	2043.1	1194.2
832.6077	725.1429	2051.15	1207.7
832.7527	727.233	2078.1	1232.85
832.8976	729.3224	2117.8	1270.8
833.0425	731.4112	2145.45	1297.9
833.1874	733.4993	2156.8	1307.25
833.3324	735.5867	2125.2	1277.3
833.4773	737.6735	2080.55	1235.55
833.6222	739.7596	2056.3	1207.15
833.7672	741.845	2040.3	1192.05
833.9122	743.9298	2044.15	1194.45
834.0571	746.014	2052.75	1204.7
834.2021	748.0974	2065.2	1213.65
834.347	750.1802	2069.1	1217.45
834.492	752.2624	2050.95	1203.25
834.637	754.3439	2041.2	1190.05
834.782	756.4247	2034.05	1174.75
834.9269	758.5048	2020.55	1169.35
835.0719	760.5843	2027.85	1176.35
835.2169	762.6631	2042.7	1191.8
835.3619	764.7413	2070.95	1222.65
835.5069	766.8188	2109.6	1256.7
835.6519	768.8956	2153.15	1300.1
835.7969	770.9718	2185.45	1334.75
835.9419	773.0473	2173.65	1323.1
836.0869	775.1221	2151.55	1299.7
836.232	777.1962	2144.6	1291.6
836.377	779.2697	2178.2	1325.05
836.522	781.3426	2252.35	1387.5
836.667	783.4147	2277.85	1423.8
836.8121	785.4862	2262.9	1411.45
836.9571	787.557	2207.05	1355.9
837.1021	789.6271	2138.35	1285.3
837.2472	791.6966	2061.05	1206.3
837.3922	793.7654	1999.3	1145.3
837.5373	795.8335	1971.8	1117.65
837.6823	797.901	1947.45	1094.25
837.8274	799.9678	1945.35	1089.8
837.9724	802.0339	1943.1	1087.2
838.1175	804.0993	1958.55	1092.75
838.2626	806.1641	1939.15	1083.65
838.4076	808.2282	1923.55	1068.8
838.5527	810.2916	1915.65	1056.8
838.6978	812.3544	1905.9	1052.85
838.8428	814.4164	1902.1	1048.6
838.9879	816.4778	1905.35	1049.2
839.133	818.5385	1917.25	1061.9
839.2781	820.5986	1926.5	1070.85
839.4232	822.658	1959.25	1102.1
839.5682	824.7166	1997.3	1141.8
839.7133	826.7747	2044.05	1188.7
839.8584	828.832	2094.2	1238.15
840.0035	830.8886	2125.55	1267.3
840.1486	832.9446	2138.6	1279.95
840.2937	834.9999	2114.1	1259
840.4388	837.0545	2080.05	1218.7
840.5839	839.1085	2019.95	1161.7
840.729	841.1618	1980.1	1117.15
840.8741	843.2143	1944.45	1085.7
841.0192	845.2662	1918.6	1060.75
841.1643	847.3175	1911.35	1054.35
841.3095	849.368	1917.6	1058.65
841.4546	851.4179	1901.95	1044.85
841.5997	853.467	1898.9	1041.35
841.7448	855.5155	1901.8	1040.2
841.8899	857.5633	1893.85	1035.3
842.0351	859.6105	1899.8	1040.2
842.1802	861.6569	1888.05	1028.65
842.3253	863.7027	1883.05	1022.4
842.4704	865.7478	1875.05	1014.65
842.6156	867.7922	1864.7	1004.6
842.7607	869.8359	1856.75	994.05
842.9058	871.8789	1851.2	991.1
843.0509	873.9212	1887.95	991.9
843.1961	875.9629	1856.65	994.75
843.3412	878.0039	1864.05	1001.2
843.4863	880.0441	1869	1009.55
843.6315	882.0837	1876	1015.05
843.7766	884.1226	1902.55	1037.45
843.9218	886.1609	1907.75	1047.5
844.0669	888.1984	1947.15	1087.5
844.212	890.2352	1962.95	1100.85
844.3572	892.2714	1965.8	1098.45
844.5023	894.3069	1957.3	1094.05
844.6475	896.3416	1923.35	1063.05
844.7926	898.3757	1901.65	1038.2
844.9377	900.4091	1889.85	1027.6
845.0829	902.4418	1891.25	1022.55
845.228	904.4739	1891	1026.25
845.3732	906.5052	1902.35	1040.8
845.5183	908.5358	1902.05	1040.05
845.6635	910.5658	1879.25	1013.35
845.8086	912.595	1861.8	998.15
845.9538	914.6236	1835	969.85
846.0989	916.6515	1816.4	953.65
846.2441	918.6786	1812.2	947.05
846.3892	920.7051	1805.9	940.65
846.5344	922.7309	1797.6	934.2
846.6795	924.756	1805.4	940.35
846.8246	926.7804	1811	944.1
846.9698	928.8041	1803.1	935.45
847.1149	930.8272	1817.75	952.6
847.2601	932.8495	1817.1	950.85
847.4052	934.8711	1819	951.45
847.5504	936.892	1827.75	961.9
847.6955	938.9123	1836.1	968.95
847.8407	940.9318	1850.95	985.45
847.9858	942.9506	1857.85	992.05
848.131	944.9688	1833	966.5
848.2761	946.9862	1825.35	959.2
848.4213	949.003	1807.55	939.8
848.5664	951.019	1794.15	927.7
848.7115	953.0344	1778.15	909.9
848.8567	955.0491	1779.75	912.4
849.0018	957.063	1772.85	902.15
849.147	959.0763	1768.8	900.6
849.2921	961.0888	1759.25	890.7
849.4373	963.1007	1766.1	899.75
849.5824	965.1119	1749.1	882
849.7275	967.1223	1753.95	885.8
849.8727	969.1321	1745.8	878.85
850.0178	971.1412	1749.3	879.7
850.1629	973.1495	1740.1	874.75
850.3081	975.1572	1780.45	876.25
850.4532	977.1641	1741.75	872.7
850.5983	979.1704	1729.85	862.9
850.7435	981.1759	1735.2	861.65
850.8886	983.1808	1725.9	855.55
851.0337	985.1849	1745.4	864.7
851.1788	987.1884	1724.55	853.9
851.324	989.1911	1721.35	849.55
851.4691	991.1932	1728.6	856.25
851.6142	993.1945	1725.4	857.55
851.7593	995.1951	1719.4	852.5
851.9045	997.1951	1726.4	850.4
852.0496	999.1943	1704.95	835.65
852.1947	1001.1928	1714.15	843.9
852.3398	1003.1906	1707.55	838.55
852.4849	1005.1877	1729.95	860.2
852.63	1007.1841	1748.6	878.05
852.7751	1009.1798	1751.95	883.3
852.9202	1011.1748	1730.1	861.15
853.0653	1013.1691	1722.6	852.05
853.2104	1015.1627	1702.8	831.45
853.3555	1017.1556	1679.6	807.05
853.5006	1019.1477	1670.45	798.75
853.6457	1021.1392	1654.15	785
853.7908	1023.1299	1650.75	778.75
853.9359	1025.12	1646.9	773.8
854.081	1027.1093	1650.85	780.25
854.2261	1029.0979	1665.35	796.25
854.3712	1031.0859	1677.75	806.35
854.5163	1033.0731	1672.2	800.5
854.6613	1035.0596	1683	812.65
854.8064	1037.0454	1677.45	804.7
854.9515	1039.0304	1657.6	789.35
855.0965	1041.0148	1638.9	767.7
855.2416	1042.9985	1640	767.9
855.3867	1044.9814	1625.55	753.7
855.5317	1046.9636	1618.45	745.7
855.6768	1048.9452	1619.2	748.05
855.8219	1050.926	1629.3	757.55
855.9669	1052.9061	1636.2	764.15
856.112	1054.8855	1638.5	766.85
856.257	1056.8642	1637.35	763.15
856.4021	1058.8421	1644.15	767.6
856.5471	1060.8194	1631.95	757.65
856.6921	1062.7959	1627.75	755.85
856.8372	1064.7717	1630.05	755.85
856.9822	1066.7469	1634.3	758.6
857.1272	1068.7213	1628.3	751.65
857.2723	1070.695	1624.4	752.25
857.4173	1072.6679	1640.4	768.3
857.5623	1074.6402	1652.95	780.4
857.7073	1076.6117	1656.55	777.8
857.8523	1078.5826	1644.9	770.05
857.9973	1080.5527	1616.15	740.15
858.1423	1082.5221	1600.3	726.05
858.2873	1084.4908	1585.15	714.2
858.4323	1086.4587	1575.05	699.3
858.5773	1088.426	1567.4	692.05
858.7223	1090.3925	1572.6	692.35
858.8673	1092.3584	1571.9	699
859.0123	1094.3235	1566.85	692.45
859.1573	1096.2879	1578.2	703.45
859.3022	1098.2515	1591.35	717.85
859.4472	1100.2145	1608.3	734.7
859.5922	1102.1767	1625.1	749.35
859.7371	1104.1382	1644.5	770.25
859.8821	1106.099	1670.8	794.75
860.027	1108.0591	1698.5	825.1
860.172	1110.0185	1723.3	846.45
860.3169	1111.9771	1742.35	865.55
860.4619	1113.9351	1760.05	886.15
860.6068	1115.8923	1794.85	920.95
860.7517	1117.8488	1812.95	933.75
860.8967	1119.8045	1784.6	909.5
861.0416	1121.7596	1729.4	852.75
861.1865	1123.7139	1659.3	786.7
861.3314	1125.6675	1626.95	751.6
861.4763	1127.6204	1637.4	760.8
861.6212	1129.5726	1642.3	765.75
861.7661	1131.524	1642.1	766.95
861.911	1133.4748	1617.2	742.8
862.0559	1135.4248	1585.35	707.6
862.2008	1137.3741	1562.6	683.8
862.3457	1139.3226	1542.7	665.25
862.4905	1141.2705	1541.35	664.4
862.6354	1143.2176	1541.25	659.25
862.7803	1145.164	1550	673.4
862.9251	1147.1097	1543.95	667.8
863.07	1149.0546	1531.5	653.45
863.2148	1150.9989	1509.85	632.9
863.3597	1152.9424	1506.25	628.8
863.5045	1154.8852	1495.1	618.2
863.6493	1156.8272	1491.25	615.75
863.7942	1158.7686	1495.8	612.7
863.939	1160.7092	1491	612.3
864.0838	1162.6491	1487.4	609.45
864.2286	1164.5883	1501.9	625
864.3734	1166.5267	1507.65	628.65
864.5182	1168.4644	1517.8	641.5
864.663	1170.4014	1538.6	657.2
864.8078	1172.3377	1557.95	684.3
864.9526	1174.2732	1576.8	699.5
865.0974	1176.2081	1631.15	752.1
865.2421	1178.1421	1698.25	817.45
865.3869	1180.0755	1755.8	880.1
865.5317	1182.0082	1787.4	911.7
865.6764	1183.9401	1780.65	900.75
865.8212	1185.8713	1717	838.75
865.9659	1187.8017	1643.45	765.7
866.1106	1189.7315	1590.9	713.35
866.2554	1191.6605	1572.95	667.65
866.4001	1193.5888	1519.5	642.2
866.5448	1195.5163	1505.2	625.7
866.6895	1197.4432	1494.65	615.8
866.8342	1199.3693	1488.4	610.95
866.9789	1201.2947	1474.2	588.6
867.1236	1203.2193	1468.45	592.3
867.2683	1205.1432	1461.35	584.35
867.413	1207.0664	1460.95	581.7
867.5576	1208.9889	1460.85	578.8
867.7023	1210.9106	1455.35	579.15
867.847	1212.8316	1456.4	578.4
867.9916	1214.7519	1474.8	586.3
868.1363	1216.6715	1470.25	592.15
868.2809	1218.5903	1469.65	591.6
868.4255	1220.5084	1480.75	601
868.5701	1222.4257	1480.65	602.35
868.7148	1224.3424	1486.1	607.3
868.8594	1226.2583	1501.45	617.3
869.004	1228.1735	1515.9	637.1
869.1486	1230.0879	1529.3	650.15
869.2932	1232.0016	1547.2	670.1
869.4377	1233.9146	1576.75	695.85
869.5823	1235.8269	1574.45	697.7
869.7269	1237.7384	1587.45	711.15
869.8715	1239.6492	1578.5	701.5
870.016	1241.5592	1596.9	716.95
870.1606	1243.4686	1618.8	739.75
870.3051	1245.3772	1648.4	768.8
870.4496	1247.285	1699.85	819.6
870.5941	1249.1922	1733.7	854.5
870.7387	1251.0986	1783.85	904.85
870.8832	1253.0042	1808.05	927.9
871.0277	1254.9092	1860.7	980.8
871.1722	1256.8134	1904.2	1026.15
871.3167	1258.7169	1954.15	1073.15
871.4611	1260.6196	1970.4	1091.3
871.6056	1262.5216	1965.85	1086.95
871.7501	1264.4229	1958.35	1079.35
871.8945	1266.3234	1947	1069.2
872.039	1268.2232	1914	1032.55
872.1834	1270.1223	1885.95	1005.9
872.3278	1272.0207	1862.2	981.15
872.4723	1273.9183	1849.9	964.05
872.6167	1275.8151	1854.4	973.55
872.7611	1277.7113	1867.7	985.35
872.9055	1279.6067	1915.25	1036.2
873.0499	1281.5014	2002.2	1119.9
873.1943	1283.3953	2092.15	1211.1
873.3386	1285.2885	2191.6	1311.5
873.483	1287.181	2263.1	1381.65
873.6274	1289.0727	2284.05	1404.6
873.7717	1290.9637	2266.05	1385.05
873.9161	1292.854	2198	1317.4
874.0604	1294.7435	2141.3	1259.3
874.2047	1296.6323	2083.85	1204.05
874.349	1298.5204	2041.2	1158.3
874.4933	1300.4077	2001.2	1121.1
874.6376	1302.2943	1962.6	1081.4
874.7819	1304.1802	1944.75	1066.1
874.9262	1306.0653	1932.8	1048.55
875.0705	1307.9497	1906.35	1028.55
875.2147	1309.8333	1884.65	1004.85
875.359	1311.7162	1872.9	992.25
875.5032	1313.5984	1856.1	971.85
875.6475	1315.4798	1866.75	968.65
875.7917	1317.3605	1845.75	961.9
875.9359	1319.2405	1848.7	965.95
876.0801	1321.1197	1828.5	944.45
876.2243	1322.9982	1807.2	922.85
876.3685	1324.876	1761.7	882.45
876.5127	1326.753	1707.65	829.2
876.6569	1328.6293	1661.55	779.2
876.801	1330.5048	1620.85	738.55
876.9452	1332.3796	1582.85	701.05
877.0893	1334.2537	1578.45	670.05
877.2335	1336.127	1537.75	656.55
877.3776	1337.9996	1509.1	627.5
877.5217	1339.8714	1496.15	615.8
877.6658	1341.7426	1535.15	609.8
877.8099	1343.6129	1481.1	603.5
877.954	1345.4826	1478.75	597.35
878.0981	1347.3515	1474.15	590.6
878.2422	1349.2196	1462.6	580
878.3862	1351.087	1449.5	568.5
878.5303	1352.9537	1458.3	575.5
878.6743	1354.8197	1458.15	576.95
878.8184	1356.6849	1460.15	578.85
878.9624	1358.5493	1469.9	588.9
879.1064	1360.4131	1474.2	594.2
879.2504	1362.276	1496.4	616.15
879.3944	1364.1383	1522.65	641.5
879.5384	1365.9998	1523.45	636.7
879.6823	1367.8606	1513.45	630.85
879.8263	1369.7206	1517.65	636.15
879.9702	1371.5799	1516	630.3
880.1142	1373.4384	1511.65	631.5
880.2581	1375.2962	1485.8	603.15
880.402	1377.1533	1462.6	579.9
880.5459	1379.0096	1439.1	557.2
880.6898	1380.8652	1418.65	536.65
880.8337	1382.7201	1396.6	513.95
880.9776	1384.5742	1390	507.1
881.1215	1386.4275	1375.55	490.7
881.2653	1388.2802	1366.25	484.35
881.4092	1390.132	1356.45	474.2
881.553	1391.9832	1352.55	467.95
881.6968	1393.8336	1352.7	470.2
881.8406	1395.6832	1342.25	459.75
881.9844	1397.5322	1333.5	451.95
882.1282	1399.3803	1341.5	453.85
882.272	1401.2278	1327.2	444.45
882.4158	1403.0745	1321.5	438.8
882.5595	1404.9204	1318.5	436.95
882.7033	1406.7656	1315.95	434.65
882.847	1408.6101	1315.9	432.5
882.9908	1410.4538	1306.75	424.7
883.1345	1412.2968	1307.2	425.45
883.2782	1414.139	1309.8	427.6
883.4219	1415.9805	1311.45	431
883.5656	1417.8213	1320.45	430.85
883.7092	1419.6613	1323.95	443.75
883.8529	1421.5006	1341.95	459.1
883.9965	1423.3391	1355.3	472.85
884.1402	1425.1769	1385.35	499.1
884.2838	1427.0139	1415.5	532.55
884.4274	1428.8502	1470.35	585.25
884.571	1430.6858	1502.85	620.45
884.7146	1432.5206	1512	628.2
884.8582	1434.3547	1512.55	629.3
885.0018	1436.188	1499.55	617.5
885.1453	1438.0206	1484	600.4
885.2889	1439.8524	1477.55	594.8
885.4324	1441.6835	1479.9	598.3
885.5759	1443.5139	1480.15	593.75
885.7194	1445.3435	1478.85	595.55
885.8629	1447.1724	1485.45	603.1
886.0064	1449.0005	1481.15	599.8
886.1499	1450.8279	1481.15	596.6
886.2933	1452.6545	1472.8	588.8
886.4368	1454.4804	1473.05	591.5
886.5802	1456.3056	1472.75	582.5
886.7237	1458.13	1461.75	580.6
886.8671	1459.9536	1443.65	561.9
887.0105	1461.7766	1428.85	544.3
887.1539	1463.5987	1409.2	525.15
887.2972	1465.4202	1382.15	500.55
887.4406	1467.2409	1362.45	478.15
887.584	1469.0608	1347.2	464.45
887.7273	1470.88	1322.8	438.7
887.8706	1472.6984	1312.7	429.4
888.0139	1474.5161	1306.6	420.15
888.1572	1476.3331	1293.35	409.7
888.3005	1478.1493	1292.1	409.25
888.4438	1479.9648	1293.8	409.95
888.5871	1481.7795	1285.25	402.6
888.7303	1483.5935	1285.35	403
888.8736	1485.4067	1284	401.55
889.0168	1487.2192	1288	406.6
889.16	1489.031	1291.1	405.75
889.3032	1490.842	1280	398.95
889.4464	1492.6522	1285.45	401.95
889.5896	1494.4618	1281.9	399.65
889.7327	1496.2705	1270.25	387.7
889.8759	1498.0785	1273.5	389.5
890.019	1499.8858	1270.55	386.25
890.1622	1501.6924	1267.75	385.6
890.3053	1503.4981	1267.3	384.3
890.4484	1505.3032	1253.65	370.5
890.5914	1507.1075	1257.65	374.3
890.7345	1508.911	1256.2	373.55
890.8776	1510.7138	1253.65	370.8
891.0206	1512.5159	1244.55	360.65
891.1637	1514.3172	1238.75	355.5
891.3067	1516.1178	1238.3	355.9
891.4497	1517.9176	1232.45	346.55
891.5927	1519.7166	1229.8	346.2
891.7357	1521.515	1230.65	339.8
891.8786	1523.3126	1223.95	340.6
892.0216	1525.1094	1220.65	334.3
892.1645	1526.9055	1212.5	330.35
892.3074	1528.7008	1215.8	332
892.4503	1530.4954	1220.2	334.7
892.5932	1532.2893	1203.15	321.9
892.7361	1534.0824	1211.4	322.85
892.879	1535.8747	1207.1	324.25
893.0218	1537.6663	1204.1	319.4
893.1647	1539.4572	1207.15	321.5
893.3075	1541.2473	1204.15	318.6
893.4503	1543.0367	1198.65	317.15
893.5931	1544.8253	1209.45	321.35
893.7359	1546.6132	1205.9	320.2
893.8787	1548.4003	1217.85	324.25
894.0214	1550.1867	1221.55	329.1
894.1642	1551.9723	1214.25	325.05
894.3069	1553.7572	1219.35	334
894.4496	1555.5414	1224.95	341.3
894.5923	1557.3247	1243.55	359.5
894.735	1559.1074	1252.65	367.75
894.8777	1560.8893	1273.85	391.9
895.0204	1562.6705	1287.9	401.8
895.163	1564.4509	1299.85	417.4
895.3056	1566.2305	1307.35	423.5
895.4482	1568.0094	1306.75	425.25
895.5908	1569.7876	1306.1	422.25
895.7334	1571.565	1302.05	419.1
895.876	1573.3417	1303.9	422.45
896.0186	1575.1176	1301.9	418.95
896.1611	1576.8928	1309.5	424
896.3036	1578.6672	1318.85	436.9
896.4461	1580.4409	1329.55	445.95
896.5886	1582.2138	1348.45	463.05
896.7311	1583.986	1370.3	486.15
896.8736	1585.7575	1374.7	490.95
897.0161	1587.5282	1388.25	504.65
897.1585	1589.2981	1406.3	522.25
897.3009	1591.0673	1406.25	525.5
897.4433	1592.8358	1414.1	531.3
897.5857	1594.6035	1412.95	524.7
897.7281	1596.3704	1409.95	527.25
897.8705	1598.1366	1393.05	508.4
898.0128	1599.9021	1379.75	498.15
898.1551	1601.6668	1371.35	484.3
898.2975	1603.4308	1361.8	475.85
898.4398	1605.194	1365.25	476.2
898.5821	1606.9564	1375.5	491.55
898.7243	1608.7182	1406.7	517.95
898.8666	1610.4791	1441.3	558.2
899.0088	1612.2394	1478.55	594.15
899.1511	1613.9988	1531.85	648.35
899.2933	1615.7576	1556.7	672.5
899.4355	1617.5156	1580.5	693.45
899.5776	1619.2728	1558	673.5
899.7198	1621.0293	1514.8	631.8
899.862	1622.785	1468.25	579.6
900.0041	1624.54	1408.05	520.9
900.1462	1626.2942	1354.8	469.45
900.2883	1628.0477	1304.4	419.05
900.4304	1629.8005	1274.3	385
900.5725	1631.5525	1241.75	356.35
900.7145	1633.3037	1214.5	329.1
900.8566	1635.0542	1192.2	308.85
900.9986	1636.804	1181.1	298.6
901.1406	1638.553	1233.95	285.2
901.2826	1640.3013	1159.95	276
901.4245	1642.0488	1152.7	268.45
901.5665	1643.7955	1141.55	259.5
901.7085	1645.5416	1140.2	254.75
901.8504	1647.2868	1135.35	251.1
901.9923	1649.0313	1130.4	245.05
902.1342	1650.7751	1131.3	241.9
902.2761	1652.5181	1123.75	237.85
902.4179	1654.2604	1126.2	241.35
902.5598	1656.0019	1126.45	242.2
902.7016	1657.7427	1125	240.6
902.8434	1659.4828	1136.65	251.95
902.9852	1661.222	1152.6	266.7
903.127	1662.9606	1161.9	277.05
903.2687	1664.6984	1178.75	294.9
903.4105	1666.4354	1181.9	296.75
903.5522	1668.1717	1169.3	286.05
903.6939	1669.9072	1151.4	270.45
903.8356	1671.642	1133.35	248.4
903.9773	1673.3761	1113.9	230.4
904.119	1675.1094	1097.7	214.7
904.2606	1676.8419	1095.9	211.8
904.4022	1678.5737	1089.25	204.5
904.5439	1680.3048	1082.95	198.35
904.6855	1682.0351	1083.95	198.55
904.827	1683.7646	1076.2	188.3
904.9686	1685.4934	1074.75	191.65
905.1101	1687.2215	1072.05	186.95
905.2517	1688.9488	1067.75	182.55
905.3932	1690.6754	1067.3	183.3
905.5347	1692.4012	1065.2	182.8
905.6761	1694.1263	1064.95	180.85
905.8176	1695.8506	1065.05	180
905.9591	1697.5742	1058	173.85
906.1005	1699.297	1057.7	172.8
906.2419	1701.0191	1059.25	172.6
906.3833	1702.7404	1059.65	176.9
906.5246	1704.461	1058.55	172.9
906.666	1706.1808	1055.45	168.9
906.8073	1707.8999	1057.45	171.75
906.9487	1709.6182	1054.75	168.55
907.09	1711.3358	1050.3	164.7
907.2313	1713.0527	1046.95	164.05
907.3725	1714.7688	1051.9	160.45
907.5138	1716.4841	1051.9	165.65
907.655	1718.1987	1053.75	164.85
907.7962	1719.9126	1039.05	156.6
907.9374	1721.6257	1054	164.75
908.0786	1723.338	1048.45	162.95
908.2198	1725.0496	1045.85	161
908.3609	1726.7605	1042.3	157.6
908.502	1728.4706	1044.65	158.65
908.6431	1730.18	1045.5	156.95
908.7842	1731.8886	1041.85	156.2
908.9253	1733.5964	1045.3	155.7
909.0664	1735.3036	1044.85	157.9
909.2074	1737.0099	1040.3	155.1
909.3484	1738.7156	1040.5	156.55
909.4894	1740.4204	1043.55	157.35
909.6304	1742.1246	1046	159.3
909.7714	1743.8279	1038.75	154.15
909.9123	1745.5306	1039.05	153.6
910.0532	1747.2325	1037.4	152
910.1941	1748.9336	1041.75	157.55
910.335	1750.634	1040.5	153.7
910.4759	1752.3336	1038.45	153.45
910.6168	1754.0325	1038.05	154.75
910.7576	1755.7307	1036	152.25
910.8984	1757.4281	1038.1	153.75
911.0392	1759.1247	1048.55	157.5
911.18	1760.8206	1042.15	153.35
911.3208	1762.5158	1040.55	153.3
911.4615	1764.2102	1036.3	150.55
911.6022	1765.9039	1036.3	150.3
911.7429	1767.5968	1037.1	152.95
911.8836	1769.289	1036.65	150.95
912.0243	1770.9804	1032.55	145.45
912.1649	1772.6711	1033.75	149.35
912.3056	1774.361	1035.55	151
912.4462	1776.0502	1032.5	148.35
912.5868	1777.7386	1034.75	147.35
912.7274	1779.4263	1032.25	147.7
912.8679	1781.1132	1033.8	149.6
913.0084	1782.7994	1028.55	143.25
913.149	1784.4849	1028.8	145.25
913.2895	1786.1696	1046.45	143.4
913.4299	1787.8535	1029.65	145.85
913.5704	1789.5367	1029.75	144.35
913.7108	1791.2192	1025	137.95
913.8513	1792.9009	1043.1	143.75
913.9917	1794.5818	1030.2	144.3
914.132	1796.2621	1028.6	145.15
914.2724	1797.9415	1025.75	141
914.4128	1799.6202	1025.7	141.2
914.5531	1801.2982	1025.2	141.65
914.6934	1802.9755	1025.35	139.6
914.8337	1804.6519	1024.25	139
914.9739	1806.3277	1024.55	142.1
915.1142	1808.0027	1020.75	135.8
915.2544	1809.6769	1025.3	140.55
915.3946	1811.3504	1025.75	139.1
915.5348	1813.0231	1026.3	138.9
915.675	1814.6951	1021.1	135.95
915.8151	1816.3664	1027.6	139
915.9553	1818.0369	1023.25	136.4
916.0954	1819.7067	1023.15	137.65
916.2355	1821.3757	1021.5	135.3
916.3755	1823.044	1021.6	138.35
916.5156	1824.7115	1020.3	134.15
916.6556	1826.3783	1017.05	134.1
916.7956	1828.0443	1019.85	134.4
916.9356	1829.7096	1021.2	136.5
917.0756	1831.3741	1020.15	131.65
917.2155	1833.0379	1021.05	136.2
917.3555	1834.701	1025.1	137.05
917.4954	1836.3633	1019.5	133.35
917.6353	1838.0248	1019.75	132.15
917.7751	1839.6856	1012.05	127.55
917.915	1841.3457	1017.3	132.1
918.0548	1843.005	1016.45	131.65
918.1946	1844.6636	1015.3	132.8
918.3344	1846.3214	1014.85	127.95
918.4742	1847.9785	1012.8	128.8
918.6139	1849.6349	1019.5	129.95
918.7537	1851.2904	1026.85	133.8
918.8934	1852.9453	1015.85	130.4
919.0331	1854.5994	1021	134.9
919.1727	1856.2528	1022.7	132
919.3124	1857.9054	1014.95	129.95
919.452	1859.5572	1012.5	127.15
919.5916	1861.2083	1014.05	129.15
919.7312	1862.8587	1015	129
919.8708	1864.5084	1014.3	129.7
920.0103	1866.1572	1013.35	129.35
920.1498	1867.8054	1009.25	122.85
920.2893	1869.4528	1009.95	126.25
920.4288	1871.0994	1013.45	130.15
920.5683	1872.7453	1009.25	125.35
920.7077	1874.3905	1026.6	123.85
920.8471	1876.0349	1011.15	127.15
920.9865	1877.6786	1013.95	126
921.1259	1879.3215	1008.2	124.75
921.2653	1880.9637	1010.9	123.55
921.4046	1882.6051	1010.7	125.1
921.5439	1884.2458	1009.95	122.65
921.6832	1885.8858	1009.65	125.4
921.8225	1887.525	1012.25	127.05
921.9617	1889.1634	1005.35	118.85
922.101	1890.8011	1008.05	121.05
922.2402	1892.4381	1006.4	123
922.3794	1894.0743	1002.55	118.25
922.5185	1895.7098	1007.3	120.6
922.6577	1897.3446	1004.4	119.2
922.7968	1898.9786	1010.9	120.15
922.9359	1900.6118	1002.25	120.5
923.075	1902.2443	1007.75	119.1
923.214	1903.8761	1004.4	119.05
923.3531	1905.5071	1007.2	120.95
923.4921	1907.1374	1001.95	115.65
923.6311	1908.7669	1006.75	122.45
923.77	1910.3957	1003.85	118.2
923.909	1912.0237	1000.65	115.8
924.0479	1913.651	1004.5	119.95
924.1868	1915.2776	1000.05	115.45
924.3257	1916.9034	997.85	114.15
924.4646	1918.5285	998.25	113.7
924.6034	1920.1528	1000.65	113.1
924.7422	1921.7764	1000.4	114.05
924.881	1923.3992	1000.25	114.45
925.0198	1925.0213	998.05	113.9
925.1586	1926.6427	999.65	115.4
925.2973	1928.2633	1107.25	112.4
925.436	1929.8832	1004.3	118.15
925.5747	1931.5023	995.25	111.5
925.7134	1933.1207	1000.05	115.55
925.852	1934.7383	998.4	113.1
925.9906	1936.3552	996.4	113
926.1292	1937.9714	1000.65	114.7
926.2678	1939.5868	996.8	111.15
926.4064	1941.2015	1000.55	113.85
926.5449	1942.8154	996.1	109.7
926.6834	1944.4286	995.05	110.7
926.8219	1946.041	1016.75	108.1
926.9604	1947.6528	999.7	109.55
927.0988	1949.2637	993.75	109
927.2372	1950.8739	994.35	108.3
927.3756	1952.4834	996.15	111.6
927.514	1954.0921	993.85	106.05
927.6523	1955.7001	999.5	107.4
927.7907	1957.3074	990.3	105.85
927.929	1958.9139	992.75	108.45
928.0673	1960.5197	995.75	108.7
928.2055	1962.1247	993.25	109.1
928.3438	1963.729	990.3	105.55
928.482	1965.3325	1019.25	108.1
928.6202	1966.9353	993.35	109.7
928.7584	1968.5374	992.65	105.15
928.8965	1970.1387	992.25	108.85
929.0346	1971.7393	991.3	104.75
929.1727	1973.3392	993.55	107.75
929.3108	1974.9383	989.05	105.3
929.4489	1976.5366	991.35	104.55
929.5869	1978.1342	990.2	104.5
929.7249	1979.7311	986.7	101.05
929.8629	1981.3273	990.35	102.8
930.0009	1982.9227	988.75	102.6
930.1388	1984.5173	991.85	108.3
930.2767	1986.1112	990.2	105.6
930.4146	1987.7044	988.65	105.7
930.5525	1989.2968	991.95	104.85
930.6904	1990.8885	993.15	105.95
930.8282	1992.4795	988.55	102.6
930.966	1994.0697	988.25	102.85
931.1038	1995.6592	983.6	98.7
931.2415	1997.2479	988.3	103.3
931.3793	1998.8359	991.95	106.45
931.517	2000.4232	990.15	106
931.6547	2002.0097	987.05	101.95
931.7923	2003.5955	985.9	101.9
931.93	2005.1805	991.65	104.65
932.0676	2006.7648	987.95	104.1
932.2052	2008.3484	989.25	102.5
932.3427	2009.9312	993.35	105.2
932.4803	2011.5133	986.9	102.9
932.6178	2013.0946	986.65	99.3
932.7553	2014.6752	983.55	99.3
932.8928	2016.2551	991.15	104.6
933.0302	2017.8342	985.65	101.2
933.1676	2019.4126	983.35	99.5
933.305	2020.9902	986.3	101.4
933.4424	2022.5672	987.05	100.65
933.5798	2024.1433	990.85	98.3
933.7171	2025.7188	985.7	99.35
933.8544	2027.2935	982.65	96.4
933.9917	2028.8674	984.9	97.8
934.129	2030.4406	984.65	98.05
934.2662	2032.0131	984.7	100.5
934.4034	2033.5849	987.35	94.5
934.5406	2035.1559	985.95	99.1
934.6778	2036.7261	985.2	99.35
934.8149	2038.2957	984.3	100.95
934.952	2039.8645	982.25	100.2
935.0891	2041.4325	987.85	100.75
935.2262	2042.9998	982.75	97.25
935.3632	2044.5664	984.9	96.75
935.5002	2046.1323	982.55	95.8
935.6372	2047.6974	982.55	96.45
935.7742	2049.2617	984.15	99.15
935.9111	2050.8254	1014.6	96.2
936.048	2052.3883	984.4	95.9
936.1849	2053.9504	981.45	95
936.3218	2055.5118	981.9	94.55
936.4586	2057.0725	989.3	99.65
936.5955	2058.6325	981.6	96.7
936.7323	2060.1917	981.6	94.65
936.869	2061.7502	986.85	99.2
937.0058	2063.3079	982.55	96.1
937.1425	2064.8649	993.45	104.55
937.2792	2066.4212	982.95	97.6
937.4159	2067.9767	979.95	96.5
937.5525	2069.5315	982.75	98.3
937.6891	2071.0856	981.45	97.05
937.8257	2072.6389	984.3	95.95
937.9623	2074.1915	977.85	96.05
938.0989	2075.7433	984.5	97.35
938.2354	2077.2945	979.9	95.7
938.3719	2078.8448	981	95.9
938.5084	2080.3945	979.4	95.15
938.6448	2081.9434	980.55	96.55
938.7812	2083.4916	979.05	93.3
938.9176	2085.039	984.4	99.75
939.054	2086.5857	979.15	94.05
939.1903	2088.1317	980.75	97.15
939.3267	2089.677	980.6	96.15
939.463	2091.2215	980.15	96.8
939.5992	2092.7652	979.7	92.75
939.7355	2094.3083	979.45	95.85
939.8717	2095.8506	983.05	98.15
940.0079	2097.3921	979.65	95.45
940.1441	2098.933	978.1	92.15
940.2802	2100.4731	982.9	97.5
940.4163	2102.0124	995.05	93.8
940.5524	2103.5511	977.95	92.55
940.6885	2105.089	984.05	99.5
940.8245	2106.6261	977.35	91.35
940.9606	2108.1626	980.05	93.7
941.0965	2109.6983	1008.7	94.95
941.2325	2111.2332	980.15	94.5
941.3684	2112.7675	983.65	97.9
941.5044	2114.301	978.05	92.35
941.6403	2115.8337	984	97.45
941.7761	2117.3657	976.3	92.95
941.912	2118.897	980.25	94.35
942.0478	2120.4276	983.95	92.7
942.1835	2121.9575	981.15	94.95
942.3193	2123.4866	996.4	96.65
942.455	2125.0149	982.35	94
942.5907	2126.5426	980.5	97.15
942.7264	2128.0695	983.95	95.5
942.8621	2129.5956	979	96.15
942.9977	2131.1211	981.95	92.7
943.1333	2132.6458	976.9	92.5
943.2689	2134.1698	977.9	92.65
943.4044	2135.693	981.1	93.8
943.54	2137.2155	979.65	94.65
943.6755	2138.7373	981.2	94.85
943.8109	2140.2584	979.05	94.25
943.9464	2141.7787	982	90.65
944.0818	2143.2983	981	95.6
944.2172	2144.8171	975.35	91.65
944.3526	2146.3353	981.55	93.95
944.4879	2147.8527	973.5	87.9
944.6232	2149.3693	979.95	94
944.7585	2150.8853	979.25	94
944.8938	2152.4005	977.1	91.4
945.029	2153.9149	975	88.45
945.1642	2155.4287	972.65	87.8
945.2994	2156.9417	981.3	95.85
945.4346	2158.454	977.85	91.75
945.5697	2159.9655	976.75	92.75
945.7048	2161.4764	979	93.4
945.8399	2162.9865	974.8	89.65
945.9749	2164.4958	979.15	92.05
946.1099	2166.0045	979	89.95
946.2449	2167.5124	975.8	89.6
946.3799	2169.0195	974.5	89.65
946.5148	2170.526	976.4	90.4
946.6498	2172.0317	972.95	90.05
946.7846	2173.5367	977.7	90.3
946.9195	2175.0409	975.55	92.55
947.0543	2176.5445	975.25	90.5
947.1891	2178.0473	975.6	90.7
947.3239	2179.5494	977.65	88.45
947.4587	2181.0507	973.8	86.55
947.5934	2182.5513	975.75	90.95
947.7281	2184.0512	974.6	89.5
947.8628	2185.5504	976.9	92.7
947.9974	2187.0488	973.1	88.45
948.132	2188.5465	977.45	91.8
948.2666	2190.0435	975.75	90.8
948.4012	2191.5397	976.6	91.8
948.5357	2193.0353	974.9	89.75
948.6702	2194.5301	976.25	88.35
948.8047	2196.0241	975	90.95
948.9392	2197.5175	974.95	89.6
949.0736	2199.0101	976.35	91.75
949.208	2200.502	974.3	88.4
949.3424	2201.9931	971.9	86.7
949.4767	2203.4835	974.4	88.3
949.611	2204.9733	979.35	88.35
949.7453	2206.4622	973.5	88
949.8796	2207.9505	976.8	88.4
950.0138	2209.438	967.7	84.55
950.148	2210.9248	973.65	87.4
950.2822	2212.4109	969.55	84.85
950.4164	2213.8962	970.65	85.45
950.5505	2215.3809	972.75	86.65
950.6846	2216.8648	970.05	86.6
950.8186	2218.3479	973.3	81.1
950.9527	2219.8304	971.45	84.95
951.0867	2221.3121	972	86.35
951.2207	2222.7931	970.55	86.8
951.3546	2224.2733	966.55	81.1
951.4886	2225.7529	970.4	85.25
951.6225	2227.2317	971.35	84.9
951.7563	2228.7098	972.5	86.6
951.8902	2230.1872	967.85	81
952.024	2231.6638	969.35	83.85
952.1578	2233.1397	974.2	85.2
952.2916	2234.6149	966.1	79.15
952.4253	2236.0894	968.35	81.85
952.559	2237.5632	974.8	79.05
952.6927	2239.0362	968.4	83.5
952.8263	2240.5085	967.35	82.3
952.9599	2241.9801	964.95	79
953.0935	2243.4509	964.9	80.25
953.2271	2244.921	965.6	78.9
953.3606	2246.3904	969.3	81.5
953.4941	2247.8591	963.7	79.5
953.6276	2249.3271	965.5	81.75
953.7611	2250.7943	965.3	82.6
953.8945	2252.2608	965.7	80.8
954.0279	2253.7266	964.4	79.05
954.1612	2255.1917	966.1	81.65
954.2946	2256.656	966.05	78.55
954.4279	2258.1197	961.9	76.85
954.5612	2259.5826	964.4	76.5
954.6944	2261.0447	964.7	79
954.8276	2262.5062	966.9	79.75
954.9608	2263.9669	963.35	77.3
955.094	2265.4269	961.5	77.05
955.2271	2266.8862	964.85	79.7
955.3602	2268.3448	964.2	78.9
955.4933	2269.8026	965.85	80.95
955.6264	2271.2598	961.95	75.4
955.7594	2272.7162	961.1	77.3
955.8924	2274.1719	962.2	76.5
956.0253	2275.6268	960.1	73.6
956.1583	2277.0811	962.65	76.6
956.2912	2278.5346	961.55	75.9
956.4241	2279.9874	958.6	72.2
956.5569	2281.4395	960.55	74.95
956.6897	2282.8908	963.75	72.9
956.8225	2284.3414	965.05	79.35
956.9553	2285.7914	961.7	78.7
957.088	2287.2406	962.75	75.25
957.2207	2288.689	962.2	76.7
957.3534	2290.1368	960.8	77.35
957.486	2291.5838	964.85	78.9
957.6186	2293.0302	963.15	75.9
957.7512	2294.4758	959.3	73.65
957.8838	2295.9206	962.8	75.25
958.0163	2297.3648	959.6	74.65
958.1488	2298.8082	961.75	76.7
958.2813	2300.251	958.75	72.75
958.4137	2301.693	962.25	74.5
958.5461	2303.1343	959.3	72.45
958.6785	2304.5748	961.1	75.65
958.8108	2306.0147	960.9	74.4
958.9432	2307.4538	959.55	71.95
959.0754	2308.8922	956.7	72.3
959.2077	2310.3299	956.7	71.25
959.3399	2311.7669	958.9	73.3
959.4721	2313.2031	958.55	73.25
959.6043	2314.6387	960.15	75.3
959.7365	2316.0735	955.9	68.85
959.8686	2317.5076	958.8	74.5
960.0006	2318.941	957.2	73.7
960.1327	2320.3737	958.45	73.45
960.2647	2321.8056	959.6	71.2
960.3967	2323.2369	960.55	73.45
960.5287	2324.6674	960.7	73.5
960.6606	2326.0972	961.3	75
960.7925	2327.5263	964.1	80.7
960.9244	2328.9547	964.45	78.8
961.0562	2330.3823	965.35	79.2
961.1881	2331.8092	965.1	77.65
961.3198	2333.2355	956.7	71.5
961.4516	2334.661	955.2	71.6
961.5833	2336.0858	958.05	71.65
961.715	2337.5098	956.75	72.4
961.8467	2338.9332	956.85	70.5
961.9783	2340.3558	957.75	67.45
962.1099	2341.7778	955	71.45
962.2415	2343.199	954.45	66.2
962.373	2344.6195	954.1	69.95
962.5045	2346.0393	953.45	68.8
962.636	2347.4583	956.45	70.5
962.7675	2348.8767	953	69.35
962.8989	2350.2943	953.8	67.45
963.0303	2351.7113	955.3	68.6
963.1617	2353.1275	953.3	66.4
963.293	2354.543	961.65	67.4
963.4243	2355.9578	952.4	68.5
963.5556	2357.3718	953.05	66.9
963.6868	2358.7852	952.35	63.7
963.818	2360.1978	953.05	66.2
963.9492	2361.6098	951.8	65.3
964.0803	2363.021	954.8	61.75
964.2114	2364.4315	951.4	66.05
964.3425	2365.8413	953.85	67.35
964.4736	2367.2504	950.4	65
964.6046	2368.6587	951.9	66.9
964.7356	2370.0664	953.05	68.35
964.8666	2371.4733	952.15	66.7
964.9975	2372.8795	951.35	65.75
965.1284	2374.285	950.35	66.1
965.2593	2375.6899	949.85	64.9
965.3901	2377.0939	949.55	64.9
965.5209	2378.4973	949.2	64.85
965.6517	2379.9	948.7	62.4
965.7825	2381.3019	951.1	67.1
965.9132	2382.7032	949.1	62.1
966.0439	2384.1037	949.7	66.45
966.1745	2385.5035	952.95	69.1
966.3051	2386.9027	948.55	62.3
966.4357	2388.3011	952.65	64.75
966.5663	2389.6987	951.55	66
966.6968	2391.0957	946.55	60.15
966.8273	2392.492	945.3	62.15
966.9578	2393.8876	943.95	57.6
967.0882	2395.2824	944.4	59.35
967.2186	2396.6765	946.55	62.8
967.349	2398.07	943.85	59.15
967.4793	2399.4627	945.75	58.25
967.6097	2400.8547	948.15	62.8
967.7399	2402.246	952.25	62
967.8702	2403.6366	944.5	60
968.0004	2405.0265	945.35	58.35
968.1306	2406.4156	951.5	62.2
968.2607	2407.8041	949.4	60.85
968.3909	2409.1918	945.8	58.1
968.521	2410.5789	942.3	58.65
968.651	2411.9652	948.95	61.8
968.781	2413.3508	944.2	59.05
968.911	2414.7358	943.6	56.85
969.041	2416.12	945.55	61.1
969.1709	2417.5035	943.95	60.3
969.3008	2418.8863	946.75	61.2
969.4307	2420.2684	942.25	57.9
969.5606	2421.6497	942.75	55.95
969.6904	2423.0304	939.65	55.25
969.8201	2424.4104	944.25	59.4
969.9499	2425.7896	948.35	55.35
970.0796	2427.1682	942.25	58.35
970.2093	2428.546	945.05	58.8
970.3389	2429.9232	942.35	55.7
970.4685	2431.2996	940.15	55.6
970.5981	2432.6753	941.45	54.15
970.7277	2434.0503	941.4	55.9
970.8572	2435.4246	940.6	54.55
970.9867	2436.7982	943.25	55.85
971.1161	2438.1711	939	54.35
971.2456	2439.5433	940.25	52.85
971.375	2440.9148	945.5	55.7
971.5043	2442.2856	938.4	54.2
971.6336	2443.6557	941.65	55.05
971.7629	2445.025	938.45	55.45
971.8922	2446.3937	940.65	54.7
972.0214	2447.7617	938.35	52.1
972.1506	2449.1289	941	55.55
972.2798	2450.4955	942.3	52.95
972.4089	2451.8613	939.35	52.4
972.538	2453.2265	939.7	55.2
972.6671	2454.5909	941.15	55.45
972.7961	2455.9546	939.85	55.05
972.9251	2457.3177	939.5	54.05
973.0541	2458.68	939.55	53.15
973.1831	2460.0416	941.9	55.5
973.312	2461.4025	940.2	53.65
973.4408	2462.7627	949	52.55
973.5697	2464.1222	936.2	53.05
973.6985	2465.4811	936	51.8
973.8273	2466.8392	937.3	50.6
973.956	2468.1966	940.1	52.75
974.0847	2469.5533	941.7	53.45
974.2134	2470.9093	939.15	53.05
974.3421	2472.2645	941.2	54.2
974.4707	2473.6191	938.05	52.3
974.5993	2474.973	934.55	50.1
974.7278	2476.3262	938.4	50.95
974.8563	2477.6787	936.7	52.7
974.9848	2479.0305	934.15	50.1
975.1132	2480.3816	937.75	52.25
975.2417	2481.7319	938.55	52.35
975.37	2483.0816	937.75	51.45
975.4984	2484.4306	938	50.05
975.6267	2485.7789	937.85	53.6
975.755	2487.1264	938.5	51.3
975.8833	2488.4733	934.2	48.25
976.0115	2489.8195	956.55	55.05
976.1397	2491.165	941.05	51.85
976.2678	2492.5097	938.6	51.15
976.3959	2493.8538	937.4	51.35
976.524	2495.1972	933.7	47.95
976.6521	2496.5398	936.15	52.35
976.7801	2497.8818	938.5	50.7
976.9081	2499.2231	934.8	49.15
977.036	2500.5637	936.35	49.15
977.164	2501.9035	936.3	49.55
977.2918	2503.2427	939.55	50.6
977.4197	2504.5812	933.85	48.3
977.5475	2505.919	937.05	47.9
977.6753	2507.256	933.65	47.45
977.8031	2508.5924	931.75	47.3
977.9308	2509.9281	938.6	47.65
978.0585	2511.2631	936.2	52.3
978.1861	2512.5974	931	46.3
978.3137	2513.9309	934.15	47.95
978.4413	2515.2638	960.7	49.3
978.5689	2516.596	932.85	46.6
978.6964	2517.9275	935.25	49.7
978.8239	2519.2583	933.05	48.1
978.9513	2520.5884	931.05	43.65
979.0788	2521.9178	932.05	47.95
979.2062	2523.2465	932.15	46.95
979.3335	2524.5745	932.5	47.9
979.4608	2525.9018	933.05	46.45
979.5881	2527.2284	930.6	47.2
979.7154	2528.5543	931.1	48.5
979.8426	2529.8796	931.5	46.3
979.9698	2531.2041	930.95	44.1
980.0969	2532.5279	929.6	44.25
980.224	2533.851	934.3	50
980.3511	2535.1735	928.55	45.6
980.4781	2536.4952	931.75	47.35
980.6052	2537.8163	932.25	46.15
980.7321	2539.1366	930.15	46.2
980.8591	2540.4562	934	47.85
980.986	2541.7752	930.4	45.05
981.1129	2543.0935	933.05	46.6
981.2397	2544.411	929.8	43.95
981.3665	2545.7279	931.05	45
981.4933	2547.0441	928.95	45.05
981.62	2548.3596	931.05	43.3
981.7467	2549.6744	930.25	45.8
981.8734	2550.9885	934.65	48.4
982.0001	2552.3019	925.05	41.2
982.1267	2553.6146	930.1	44.05
982.2532	2554.9266	929.65	44.45
982.3798	2556.2379	929.8	42.05
982.5063	2557.5485	926.25	43.65
982.6327	2558.8585	936.2	43.45
982.7592	2560.1677	932.35	43.5
982.8856	2561.4762	928.6	42.85
983.0119	2562.7841	934.25	46.05
983.1383	2564.0913	929.15	45.15
983.2646	2565.3977	928.35	42.95
983.3908	2566.7035	928.8	44.75
983.517	2568.0086	929.75	43.15
983.6432	2569.313	927.35	42.55
983.7694	2570.6167	929.85	42.2
983.8955	2571.9197	926.15	41.9
984.0216	2573.222	929.15	42.85
984.1476	2574.5236	928.9	44.15
984.2737	2575.8246	927.35	40.3
984.3996	2577.1248	932.95	42.95
984.5256	2578.4244	928.25	43.8
984.6515	2579.7232	927.8	43.05
984.7774	2581.0214	959.35	41.85
984.9032	2582.3189	926.85	42
985.029	2583.6157	932.25	40.2
985.1548	2584.9118	925.1	38.3
985.2806	2586.2072	927.05	43.5
985.4063	2587.5019	926.75	41.75
985.5319	2588.7959	924.55	39.35
985.6576	2590.0893	927.05	40.65
985.7832	2591.3819	924.95	39.6
985.9087	2592.6739	927.3	43.9
986.0343	2593.9652	929.6	43.65
986.1597	2595.2557	925.55	40.65
986.2852	2596.5456	926.1	39.1
986.4106	2597.8348	926.2	41.3
986.536	2599.1234	925.95	42.5
986.6614	2600.4112	926.6	41.15
986.7867	2601.6983	929.1	42.4
986.912	2602.9848	926.65	39.9
987.0372	2604.2705	932.8	39.05
987.1624	2605.5556	925.1	38.45
987.2876	2606.84	925.9	40.65
987.4128	2608.1237	927.2	38.3
987.5379	2609.4067	924.85	39.3
987.6629	2610.689	933.15	39.5
987.788	2611.9707	929.1	40.6
987.913	2613.2516	928.4	37.55
988.0379	2614.5319	927.35	43.9
988.1629	2615.8115	924.9	40.9
988.2878	2617.0903	925.4	38.7
988.4126	2618.3685	923.7	41.55
988.5375	2619.6461	924.45	38.2
988.6622	2620.9229	922.65	37.9
988.787	2622.199	924.25	39.55
988.9117	2623.4745	923.3	38.2
989.0364	2624.7493	922.95	37.95
989.161	2626.0234	922	38.9
989.2857	2627.2968	922.35	35.5
989.4102	2628.5695	925.2	40.75
989.5348	2629.8415	923.8	38.4
989.6593	2631.1128	925.1	38
989.7837	2632.3835	921.05	34
989.9082	2633.6535	919.9	35.3
990.0326	2634.9228	922.35	35.65
990.1569	2636.1914	920.35	34.8
990.2812	2637.4593	929.95	39.25
990.4055	2638.7265	921.95	35.95
990.5298	2639.9931	923.2	38.75
990.654	2641.259	919.6	32
990.7782	2642.5242	921.95	37
990.9023	2643.7887	921.45	34.8
991.0264	2645.0525	922.1	39.25
991.1505	2646.3156	920.75	32.5
991.2745	2647.5781	919.25	36.05
991.3985	2648.8398	921.45	36.05
991.5225	2650.1009	960.5	37.45
991.6464	2651.3613	920.2	35.95
991.7703	2652.6211	918.95	32.7
991.8942	2653.8801	919.35	35.65
992.018	2655.1385	921.4	31.1
992.1418	2656.3961	919.55	35.4
992.2655	2657.6531	921.45	37.55
992.3892	2658.9094	919.85	32.75
992.5129	2660.1651	917.7	32.6
992.6366	2661.42	920.9	33.7
992.7602	2662.6743	921.25	33.85
992.8837	2663.9279	919	36.9
993.0073	2665.1808	921.45	34.35
993.1307	2666.433	918.4	33.25
993.2542	2667.6846	919.25	33.7
993.3776	2668.9354	923.45	35.45
993.501	2670.1856	919.95	34.5
993.6244	2671.4351	918.85	31.95
993.7477	2672.6839	919.35	32.05
993.8709	2673.9321	920.55	35.8
993.9942	2675.1795	919.25	32.5
994.1174	2676.4263	921	36.7
994.2405	2677.6724	919.65	34
994.3637	2678.9179	922.1	35.6
994.4868	2680.1626	917.9	32.9
994.6098	2681.4067	917.9	31.3
994.7328	2682.6501	918.7	35.85
994.8558	2683.8928	919.9	33.2
994.9788	2685.1348	917.25	32.35
995.1017	2686.3761	918.05	32.95
995.2245	2687.6168	916.35	30.4
995.3474	2688.8568	919	35.65
995.4702	2690.0961	917.2	32.7
995.5929	2691.3348	916.05	31.4
995.7156	2692.5727	916.6	33.15
995.8383	2693.81	917.7	32.25
995.961	2695.0466	914.45	31.9
996.0836	2696.2826	918.75	31.55
996.2062	2697.5178	920.05	32.05
996.3287	2698.7524	916.3	30.55
996.4512	2699.9863	919	32.85
996.5737	2701.2195	916.75	32.45
996.6961	2702.452	918.35	32.6
996.8185	2703.6839	920.1	34.2
996.9408	2704.9151	914.95	30.9
997.0631	2706.1456	918.15	31.7
997.1854	2707.3755	918.1	34.35
997.3077	2708.6046	920.4	33.65
997.4299	2709.8331	916	30.8
997.552	2711.0609	916.35	31.6
997.6742	2712.2881	920	34.85
997.7963	2713.5145	920	31.3
997.9183	2714.7403	917.35	32.8
998.0403	2715.9654	918.65	34.65
998.1623	2717.1899	933.55	34.45
998.2842	2718.4136	920.65	34.85
998.4062	2719.6367	918.6	33.5
998.528	2720.8591	922.75	30.6
998.6498	2722.0809	922.15	36.4
998.7716	2723.3019	922.85	34.85
998.8934	2724.5223	923	37.4
999.0151	2725.7421	923.45	36.05
999.1368	2726.9611	924.1	37.5
999.2584	2728.1795	925.9	35.3
999.38	2729.3972	918.35	32.3
999.5016	2730.6142	929.75	34.25
999.6231	2731.8306	919.85	33.45
999.7446	2733.0462	921.25	34.15
999.8661	2734.2612	921.1	30.65
999.9875	2735.4756	919.3	33.65
1000.1089	2736.6892	918.8	33.25
1000.2302	2737.9022	915.75	31.85
1000.3515	2739.1145	913.6	27.75
1000.4728	2740.3262	926.95	33.65
1000.594	2741.5372	914.65	29.15
1000.7152	2742.7475	916.6	30.45
1000.8363	2743.9571	915.55	29.45
1000.9575	2745.1661	921.45	30.8
1001.0785	2746.3744	915	28.45
1001.1996	2747.582	914.6	28.3
1001.3206	2748.7889	914.6	27.3
1001.4415	2749.9952	912.75	27.9
1001.5625	2751.2008	912.45	27.25
1001.6833	2752.4057	914.55	24.9
1001.8042	2753.61	910.95	25.9
1001.925	2754.8136	914.2	27.05
1002.0458	2756.0165	911.8	27.25
1002.1665	2757.2188	910.6	25.8
1002.2872	2758.4204	909.9	24.8
1002.4078	2759.6213	914.7	28.95
1002.5285	2760.8215	919.3	27.65
1002.649	2762.0211	913.65	25.9
1002.7696	2763.22	917.15	30.4
1002.8901	2764.4182	911.2	23.95
1003.0106	2765.6158	911.3	26.95
1003.131	2766.8127	909.35	24.65
1003.2514	2768.009	911.6	27.2
1003.3717	2769.2045	911.35	24.95
1003.492	2770.3994	910.9	23.1
1003.6123	2771.5936	912.25	27.25
1003.7325	2772.7872	910.75	25.65
1003.8527	2773.9801	910.4	22.2
1003.9729	2775.1723	927.45	25.55
1004.093	2776.3639	909.9	25.6
1004.2131	2777.5548	911.95	25.1
1004.3331	2778.745	914	27.75
1004.4531	2779.9346	909.7	24.8
1004.5731	2781.1235	910.05	22.05
1004.693	2782.3117	912.2	27.9
1004.8129	2783.4992	909.2	24.05
1004.9328	2784.6861	909.35	23.95
1005.0526	2785.8723	912.6	25.85
1005.1723	2787.0579	909.65	24.6
1005.2921	2788.2428	906.9	20.15
1005.4118	2789.427	908.15	23.1
1005.5314	2790.6106	907.6	22.4
1005.651	2791.7935	911.7	25.7
1005.7706	2792.9757	909.05	25.8
1005.8902	2794.1573	913	25.25
1006.0097	2795.3382	911.65	26.65
1006.1291	2796.5184	907.65	23.15
1006.2485	2797.698	912.55	25.3
1006.3679	2798.8769	909.35	24.3
1006.4873	2800.0551	910.05	25.35
1006.6066	2801.2327	912.7	25.1
1006.7258	2802.4096	911.8	27.85
1006.8451	2803.5859	911.95	26.85
1006.9642	2804.7615	911.2	25.6
1007.0834	2805.9364	908.95	25.8
1007.2025	2807.1106	911.05	27.25
1007.3216	2808.2842	910.3	23.95
1007.4406	2809.4572	913	26.8
1007.5596	2810.6294	910.25	24.4
1007.6785	2811.801	913.2	28.9
1007.7975	2812.972	914	28.05
1007.9163	2814.1423	914.35	29.6
1008.0352	2815.3119	914.9	27.8
1008.154	2816.4808	913.05	28.95
1008.2727	2817.6491	917	30.8
1008.3914	2818.8167	914.45	29.7
1008.5101	2819.9837	926.05	38.35
1008.6288	2821.15	922.25	38.45
1008.7474	2822.3157	923.5	37.55
1008.8659	2823.4807	927.7	42.75
1008.9844	2824.645	933.5	47.85
1009.1029	2825.8086	932.8	49.95
1009.2214	2826.9716	937.1	53.4
1009.3398	2828.134	941.05	56.95
1009.4581	2829.2957	946.25	61.95
1009.5764	2830.4567	944.9	61
1009.6947	2831.617	950.4	63.45
1009.813	2832.7767	948	63.55
1009.9312	2833.9358	948	63.9
1010.0493	2835.0941	953.25	66.5
1010.1675	2836.2519	945.05	60.9
1010.2855	2837.4089	950.9	64.2
1010.4036	2838.5653	945.35	61.75
1010.5216	2839.7211	941.05	57.6
1010.6396	2840.8761	945.45	61.05
1010.7575	2842.0306	940.85	56.25
1010.8754	2843.1843	942.1	56.45
1010.9932	2844.3374	942.25	57.75
1011.111	2845.4899	944.55	59.8
1011.2288	2846.6417	940.15	55.05
1011.3465	2847.7928	944.75	59.65
1011.4642	2848.9433	943.05	57.55
1011.5818	2850.0931	944.85	58.55
1011.6995	2851.2422	946.3	60.85
1011.817	2852.3907	950.25	64.1
1011.9345	2853.5385	950.15	63.75
1012.052	2854.6857	973.2	59.7
1012.1695	2855.8323	947.05	63.1
1012.2869	2856.9781	947.55	60.8
1012.4042	2858.1233	950.3	64.95
1012.5216	2859.2679	948.45	63.7
1012.6389	2860.4118	953.7	68.95
1012.7561	2861.555	957.45	66.85
1012.8733	2862.6976	958.1	70.15
1012.9905	2863.8395	958.05	74.2
1013.1076	2864.9808	953	67.4
1013.2247	2866.1214	955.05	72.65
1013.3417	2867.2614	957.45	71.25
1013.4587	2868.4007	962.55	75.25
1013.5757	2869.5393	962.05	77
1013.6926	2870.6773	963.05	74.85
1013.8095	2871.8146	964.55	76.05
1013.9263	2872.9513	965.4	75.3
1014.0431	2874.0874	960.85	73.1
1014.1599	2875.2227	963.45	79.15
1014.2766	2876.3574	965	78.6
1014.3933	2877.4915	965.75	80.9
1014.51	2878.6249	966.2	83.75
1014.6266	2879.7577	967.25	80.15
1014.7431	2880.8898	982.35	87.75
1014.8596	2882.0212	968.85	84.45
1014.9761	2883.152	970.5	84.2
1015.0925	2884.2821	970.05	87.35
1015.2089	2885.4116	971	84.9
1015.3253	2886.5405	973.05	88.65
1015.4416	2887.6686	978.85	92.35
1015.5579	2888.7962	970.85	86.15
1015.6741	2889.923	972.85	86.75
1015.7903	2891.0493	970.5	87.3
1015.9065	2892.1748	973.55	87.75
1016.0226	2893.2997	973.9	87.45
1016.1387	2894.424	971.8	87.1
1016.2547	2895.5476	971.1	86.5
1016.3707	2896.6706	970.2	84.95
1016.4866	2897.7929	971.75	84.9
1016.6025	2898.9145	970.95	86.4
1016.7184	2900.0355	973.5	85.4
1016.8342	2901.1559	976.1	90.15
1016.95	2902.2756	978.3	89.35
1017.0658	2903.3946	973.8	90.15
1017.1815	2904.513	975.3	86.65
1017.2971	2905.6308	970.15	85.6
1017.4127	2906.7479	970.9	85.8
1017.5283	2907.8643	972.1	85.4
1017.6439	2908.9801	970.05	84.9
1017.7594	2910.0953	967.75	82.65
1017.8748	2911.2098	975.45	87.1
1017.9902	2912.3236	979.8	84.35
1018.1056	2913.4368	970.8	82.3
1018.2209	2914.5494	970.8	85.7
1018.3362	2915.6613	973.4	82.2
1018.4515	2916.7725	971.2	83.6
1018.5667	2917.8831	969.95	85.05
1018.6819	2918.9931	966.7	77.4
1018.797	2920.1024	966.2	79.7
1018.9121	2921.211	963.85	78.55
1019.0271	2922.319	965.15	79.9
1019.1421	2923.4264	960.7	76.55
1019.2571	2924.5331	960.25	76.95
1019.372	2925.6391	961.9	76.35
1019.4869	2926.7445	960.6	76.85
1019.6017	2927.8493	958.95	72.65
1019.7165	2928.9534	962.1	75.8
1019.8313	2930.0569	966.3	77.05
1019.946	2931.1597	964.6	79.25
1020.0606	2932.2619	965.2	77.5
1020.1753	2933.3634	964.1	77.9
1020.2899	2934.4643	971.2	79
1020.4044	2935.5645	969.45	77.25
1020.5189	2936.6641	967.6	77.4
1020.6334	2937.763	965	81
1020.7478	2938.8613	966.1	79.9
1020.8622	2939.959	969.2	78.65
1020.9765	2941.056	960.05	75.9
1021.0908	2942.1523	962.05	75.95
1021.2051	2943.248	959.5	73.25
1021.3193	2944.3431	954.15	69.3
1021.4334	2945.4375	952.15	68.65
1021.5476	2946.5313	946.35	63.75
1021.6617	2947.6244	944.35	60.35
1021.7757	2948.7169	942.1	55.65
1021.8897	2949.8087	940.65	55.7
1022.0037	2950.8999	936	50.7
1022.1176	2951.9904	935.85	51.95
1022.2315	2953.0803	931.5	46.75
1022.3453	2954.1696	929.35	44.3
1022.4591	2955.2582	928.2	42.25
1022.5728	2956.3462	927.45	43
1022.6865	2957.4335	928.2	41.35
1022.8002	2958.5202	928.85	42.85
1022.9138	2959.6062	924.25	38.3
1023.0274	2960.6916	924.9	40.05
1023.141	2961.7764	927.05	42.1
1023.2545	2962.8605	926.95	41.85
1023.3679	2963.9439	924.15	39.1
1023.4813	2965.0267	929.35	43.55
1023.5947	2966.1089	949.4	41.75
1023.708	2967.1905	924.5	39.2
1023.8213	2968.2714	923.25	38.75
1023.9346	2969.3516	923	38.35
1024.0478	2970.4312	929.95	36.85
1024.1609	2971.5102	923.45	38.65
1024.274	2972.5885	924.85	38.25
1024.3871	2973.6662	931.45	41.15
1024.5002	2974.7432	925.55	39.1
1024.6132	2975.8196	923.05	38.95
1024.7261	2976.8954	924.1	37.85
1024.839	2977.9705	923.9	39
1024.9519	2979.045	923.75	40.45
1025.0647	2980.1188	925.65	41.55
1025.1775	2981.192	923.75	40.65
1025.2902	2982.2645	923.7	37.5
1025.4029	2983.3364	922	35.5
1025.5156	2984.4077	921.35	34.55
1025.6282	2985.4783	928.55	37
1025.7407	2986.5483	918.2	34.05
1025.8532	2987.6177	917.7	33.8
1025.9657	2988.6864	919.9	34.25
1026.0782	2989.7545	919.75	32.9
1026.1906	2990.8219	913.85	29.15
1026.3029	2991.8887	918.1	30.8
1026.4152	2992.9548	915.3	27.7
1026.5275	2994.0204	913.05	28.75
1026.6397	2995.0852	909.65	25.75
1026.7519	2996.1495	912.85	27.3
1026.864	2997.2131	909.25	23.2
1026.9761	2998.276	910.3	23.65
1027.0882	2999.3383	907.25	19.9
1027.2002	3000.4	906.7	18.85
1027.3122	3001.4611	904.3	18.9
1027.4241	3002.5215	905.45	21
1027.536	3003.5812	905.5	19.8
1027.6478	3004.6404	904.15	19.9
1027.7596	3005.6989	906.4	20.15
1027.8714	3006.7567	902.3	17.6
1027.9831	3007.8139	934.5	19.35
1028.0947	3008.8705	903.5	17.4
1028.2064	3009.9264	919.55	17.75
1028.3179	3010.9818	899.6	14.25
1028.4295	3012.0364	901.85	17.3
1028.541	3013.0905	903.3	18.6
1028.6524	3014.1439	901.75	16.8
1028.7638	3015.1966	900.15	15.3
1028.8752	3016.2487	901.45	15.7
1028.9865	3017.3002	908	16.15
1029.0978	3018.3511	901.95	17.4
1029.209	3019.4013	900.65	16.3
1029.3202	3020.4509	899	14.35
1029.4314	3021.4998	901.2	16.75
1029.5425	3022.5481	899.8	14.75
1029.6535	3023.5958	900.55	14.65
1029.7645	3024.6428	900.45	16.8
1029.8755	3025.6892	898.6	13.15
1029.9864	3026.735	900.3	16.2
1030.0973	3027.7802	900.15	14.4
1030.2082	3028.8247	900.05	17.55
1030.319	3029.8685	897.65	11
1030.4297	3030.9118	899.05	12.2
1030.5404	3031.9544	899.7	14.25
1030.6511	3032.9963	898.85	13.25
1030.7617	3034.0376	899.35	13.75
1030.8723	3035.0783	902.1	15.15
1030.9829	3036.1184	901.85	14.35
1031.0934	3037.1578	898.2	13.1
1031.2038	3038.1966	901	14.65
1031.3142	3039.2348	898.85	13.75
1031.4246	3040.2723	909.3	16.45
1031.5349	3041.3092	899.9	15.45
1031.6452	3042.3455	898.8	13.25
1031.7554	3043.3811	898.55	12.2
1031.8656	3044.4161	900.55	15.55
1031.9758	3045.4505	897.75	14.45
1032.0859	3046.4842	901	14.9
1032.1959	3047.5173	898.85	14.15
1032.3059	3048.5498	900.55	16.85
1032.4159	3049.5816	898.1	12.8
1032.5258	3050.6128	902.7	15.8
1032.6357	3051.6434	900.2	12.2
1032.7455	3052.6734	899.15	13.3
1032.8553	3053.7027	899.35	14.1
1032.9651	3054.7314	899.15	15.05
1033.0748	3055.7594	898.35	12.75
1033.1845	3056.7868	900.45	14.75
1033.2941	3057.8136	899.9	15.6
1033.4037	3058.8398	898.45	13.8
1033.5132	3059.8653	899.6	14.35
1033.6227	3060.8902	898.15	13.5
1033.7321	3061.9145	899.95	13.2
1033.8415	3062.9381	901.05	14.85
1033.9509	3063.9612	916.7	14.85
1034.0602	3064.9835	900.25	13.9
1034.1694	3066.0053	900.8	13.4
1034.2787	3067.0264	900.75	16.25
1034.3878	3068.0469	901.75	18.15
1034.497	3069.0668	902.95	14.4
1034.6061	3070.086	901.35	17.5
1034.7151	3071.1046	904.5	18.8
1034.8241	3072.1226	901.05	12.8
1034.9331	3073.1399	899.65	15.6
1035.042	3074.1567	899.05	14.1
1035.1508	3075.1727	898.1	12.85
1035.2597	3076.1882	899.1	14.05
1035.3684	3077.203	899.1	13.15
1035.4772	3078.2173	900.25	12.8
1035.5859	3079.2308	900.7	12.75
1035.6945	3080.2438	899.8	13.95
1035.8031	3081.2561	896.3	9.45
1035.9117	3082.2678	896.35	11.15
1036.0202	3083.2789	897.05	11.6
1036.1286	3084.2893	895.4	10.35
1036.2371	3085.2991	899.35	14.3
1036.3454	3086.3083	899.6	10.65
1036.4538	3087.3169	898.6	11.75
1036.562	3088.3248	899.85	14.75
1036.6703	3089.3321	898.95	12.35
1036.7785	3090.3388	894.55	9.75
1036.8866	3091.3449	894.15	9.8
1036.9948	3092.3503	898	11.4
1037.1028	3093.3551	893.35	10.65
1037.2108	3094.3593	895.7	10.2
1037.3188	3095.3629	896.65	13
1037.4267	3096.3658	897.75	11.85
1037.5346	3097.3681	895.55	9.4
1037.6425	3098.3698	897.5	11.5
1037.7503	3099.3708	895.45	11.35
1037.858	3100.3713	893.55	8
1037.9657	3101.3711	895.65	9.95
1038.0734	3102.3702	1037.55	13.05
1038.181	3103.3688	897	8.15
1038.2886	3104.3667	895.5	10.2
1038.3961	3105.364	893.55	8.3
1038.5036	3106.3607	894.5	9.25
1038.611	3107.3568	897.35	10.2
1038.7184	3108.3522	894.75	11.95
1038.8257	3109.347	896.4	10.25
1038.933	3110.3412	897.35	7.2
1039.0403	3111.3348	894.15	9.55
1039.1475	3112.3277	895	9.8
1039.2547	3113.32	890.95	5.6
1039.3618	3114.3117	893.5	7.05
1039.4689	3115.3028	891.05	7.65
1039.5759	3116.2932	896.1	8.35
1039.6829	3117.2831	899	9.45
1039.7898	3118.2723	893.1	6.55
1039.8967	3119.2608	892.45	8.2
1040.0035	3120.2488	895.35	9.05
1040.1103	3121.2361	894	7.95
1040.2171	3122.2229	895.7	10.2
1040.3238	3123.209	894.05	7.05
1040.4305	3124.1944	893.3	8.7
1040.5371	3125.1793	893.6	7.55
1040.6437	3126.1635	892.6	8.5
1040.7502	3127.1471	890.95	6.2
1040.8567	3128.1301	890.85	6
1040.9631	3129.1125	891.05	5
1041.0695	3130.0942	894.25	7.95
1041.1759	3131.0753	900.3	8.05
1041.2822	3132.0558	897.45	8.6
1041.3884	3133.0357	895.95	8.95
1041.4946	3134.015	893.7	7.55
1041.6008	3134.9936	893.45	5.9
1041.7069	3135.9716	910.6	6.45
1041.813	3136.949	890.05	4
1041.919	3137.9258	907.8	4.7
1042.025	3138.902	898.4	9.5
1042.1309	3139.8775	891.05	6.85
1042.2368	3140.8524	890.35	6.45
1042.3427	3141.8267	893.35	4.95
1042.4485	3142.8004	893.35	7.95
1042.5542	3143.7735	898.8	7.85
1042.6599	3144.7459	894.15	7.15
1042.7656	3145.7178	894.1	9.1
1042.8712	3146.689	889.85	7.2
1042.9768	3147.6596	894.2	7.05
1043.0823	3148.6295	892.95	7.7
1043.1878	3149.5989	892.9	7.85
1043.2932	3150.5676	890.95	6.95
1043.3986	3151.5357	890.75	6.85
1043.5039	3152.5032	891.8	7.3
1043.6092	3153.4701	890.75	3.75
1043.7145	3154.4364	894.9	7.9
1043.8197	3155.402	891.7	7.45
1043.9248	3156.367	893.95	6.25
1044.03	3157.3315	911.05	8.35
1044.135	3158.2952	892.25	6.65
1044.24	3159.2584	892.75	9.25
1044.345	3160.221	890.3	4.65
1044.4499	3161.1829	890.15	5.15
1044.5548	3162.1442	892.4	9.4
1044.6596	3163.105	891.4	7
1044.7644	3164.065	891.35	5.4
1044.8692	3165.0245	895.45	7.8
1044.9739	3165.9834	889.1	6.35
1045.0785	3166.9416	890.85	3.85
1045.1831	3167.8993	891.55	5.2
1045.2877	3168.8563	892.7	7.2
1045.3922	3169.8127	890.3	4.25
1045.4966	3170.7684	890.6	4.6
1045.6011	3171.7236	892.6	4.25
1045.7054	3172.6782	891.65	5.1
1045.8098	3173.6321	891.75	7.05
1045.914	3174.5854	894.7	4.4
1046.0183	3175.5381	893.65	8.9
1046.1224	3176.4902	891.4	7.2
1046.2266	3177.4417	888.9	4.05
1046.3307	3178.3926	891	5.4
1046.4347	3179.3428	891.4	8.6
1046.5387	3180.2924	890.35	6
1046.6427	3181.2415	890.1	3.3
1046.7466	3182.1899	892.1	5.95
1046.8504	3183.1377	889.4	4.6
1046.9542	3184.0848	893.7	5.05
1047.058	3185.0314	890.7	6.6
1047.1617	3185.9773	890.6	3.6
1047.2654	3186.9227	893.6	8.3
1047.369	3187.8674	891.65	5.7
1047.4726	3188.8115	895.45	5.2
1047.5761	3189.755	888.8	3.6
1047.6796	3190.6979	888.45	5.25
1047.783	3191.6402	889.7	5.8
1047.8864	3192.5818	889.25	1.7
1047.9898	3193.5229	903.4	5.55
1048.0931	3194.4633	891.1	6.4
1048.1963	3195.4031	890.3	3.35
1048.2995	3196.3423	891.3	9.55
1048.4027	3197.2809	888.45	3.75
1048.5058	3198.2189	891.45	5.55
1048.6089	3199.1563	909.05	5.6
1048.7119	3200.0931	889.55	5.75
1048.8148	3201.0292	889.2	5.2
1048.9178	3201.9648	889.55	3.25
1049.0206	3202.8997	893.55	4.6
1049.1235	3203.834	891.65	7.5
1049.2262	3204.7677	890.25	3.85
1049.329	3205.7008	891.1	3
1049.4317	3206.6333	888.5	4.2
1049.5343	3207.5652	892.9	6.85
1049.6369	3208.4964	889.75	4.25
1049.7394	3209.4271	889.7	5.9
1049.8419	3210.3571	890.25	2.5
1049.9444	3211.2865	891.5	5.15
1050.0468	3212.2154	891.6	5.95
1050.1491	3213.1436	894.1	5.05
1050.2514	3214.0712	895.45	5.05
1050.3537	3214.9982	890.15	3.85
1050.4559	3215.9246	890.45	3.8
1050.5581	3216.8503	889.1	3.15
1050.6602	3217.7755	889.7	4.1
1050.7623	3218.7001	887.2	1.3
1050.8643	3219.624	890.7	4.05
1050.9663	3220.5473	890.35	5.25
1051.0682	3221.4701	889.9	2.1
1051.1701	3222.3922	892.1	4.8
1051.2719	3223.3137	888.85	3.15
1051.3737	3224.2346	888.75	4
1051.4754	3225.1549	889.05	3.65
1051.5771	3226.0746	888.1	3.95
1051.6788	3226.9937	890.55	5
1051.7804	3227.9121	889.15	3.9
1051.8819	3228.83	889.3	3.4
1051.9834	3229.7473	891.7	7.35
1052.0849	3230.6639	888.8	1.3
1052.1863	3231.5799	889.75	6.3
1052.2876	3232.4954	890.3	2.5
1052.3889	3233.4102	888.75	4.1
1052.4902	3234.3244	889.75	6.5
1052.5914	3235.238	889.05	5.05
1052.6926	3236.151	915.1	8.1
1052.7937	3237.0634	889.15	3.9
1052.8948	3237.9752	889.6	2.85
1052.9958	3238.8864	889.05	3.8
1053.0968	3239.797	888.1	1.15
1053.1977	3240.7069	889.5	5.15
1053.2986	3241.6163	888.6	1.35
1053.3994	3242.5251	889.5	5.6
1053.5002	3243.4332	888.45	6
1053.6009	3244.3408	888.3	3.6
1053.7016	3245.2477	890.9	5.9
1053.8022	3246.154	889.4	2.95
1053.9028	3247.0598	890.6	4.8
1054.0034	3247.9649	889.3	2.85
1054.1039	3248.8694	888.7	2.75
1054.2043	3249.7733	889.35	2.95
1054.3047	3250.6766	888.1	3.1
1054.4051	3251.5793	889.55	1.8
1054.5054	3252.4814	888.35	6.25
1054.6056	3253.3829	887.5	1.6
1054.7058	3254.2838	887.8	4.15
1054.806	3255.1841	887.85	3.75
1054.9061	3256.0838	889.75	5.05
1055.0061	3256.9829	886.8	5.45
1055.1062	3257.8814	891.05	1.1
1055.2061	3258.7792	891.75	4.8
1055.306	3259.6765	889.3	2.6
1055.4059	3260.5731	887.45	1.55
1055.5057	3261.4692	888.95	2.75
1055.6055	3262.3647	889.4	3.8
1055.7052	3263.2595	889.05	4.05
1055.8049	3264.1538	888.35	4.8
1055.9045	3265.0474	886.9	3.05
1056.0041	3265.9404	889.4	4.55
1056.1036	3266.8329	887.85	3.05
1056.2031	3267.7247	897.4	2.65
1056.3025	3268.616	888.9	5.05
1056.4019	3269.5066	887.35	0.85
1056.5013	3270.3966	889.9	4.6
1056.6005	3271.286	886.65	3.25
