Software Version:	3.9.2.0
Unit SN:	10000200
Spectrometer SN:	6960
Date:	3/14/2024 2:05:27 PM
Data Line Index:	25
Spectral Points:	2048
Integration time (ms):	125
Averages:	20
Delay (ms):	30000
Sequence Number:	1
Processing:	dark subtract
Laser Power (mW):	305
Laser Current (mA):	824
Laser Diode Temp (C):	25.1
Laser Case Temp (C):	29
System Temp (C):	29
Spectrometer Temp (C):	26.8
CCD Temp (C):	0.007
Secondary Temp (C):	20.022
Heatsink Temp (C):	24.798
CCDPCB Temp (C):	38.352
SecondaryPCB Temp (C):	35.807

Wavelength	RamanShift	Raw Counts	Dark Subtracted
787.061	30.1047	446.45	36.95
787.2016	32.3739	446.25	38.6
787.3422	34.6426	449.3	39.1
787.4828	36.9109	455.75	43.2
787.6235	39.1787	463.5	45.95
787.7642	41.4461	471.7	50.3
787.9049	43.7131	482.15	56.6
788.0456	45.9796	487.5	59.3
788.1863	48.2456	496.65	64.05
788.3271	50.5112	504.1	67.45
788.4679	52.7764	510.3	73.1
788.6087	55.0411	521.05	81.55
788.7496	57.3054	530	83.4
788.8904	59.5692	538.9	89.8
789.0313	61.8326	550.05	96.65
789.1722	64.0955	559.7	104.35
789.3132	66.3579	575.2	112.65
789.4541	68.6199	587.05	121.2
789.5951	70.8815	611.45	143.35
789.7361	73.1426	671.5	199.9
789.8771	75.4032	817.4	341.1
790.0181	77.6634	1180.45	700.05
790.1592	79.9231	2038.05	1549.7
790.3003	82.1824	3921.7	3424.25
790.4414	84.4412	7351.85	6835.6
790.5825	86.6995	12244.9	11706.45
790.7237	88.9574	17177.5	16617.3
790.8648	91.2148	20743.15	20169.35
791.006	93.4717	22557.4	21976
791.1472	95.7282	22997.9	22413.35
791.2885	97.9842	23047.55	22454.8
791.4297	100.2398	22721.6	22127.95
791.571	102.4949	22269.3	21670.65
791.7123	104.7495	21733.2	21131.95
791.8536	107.0036	21074.3	20478.15
791.9949	109.2573	20451.85	19850.6
792.1363	111.5105	19843.6	19240.7
792.2777	113.7632	19237.2	18633.7
792.4191	116.0154	18673.35	18061.45
792.5605	118.2672	18281.4	17673.2
792.7019	120.5185	17866.4	17255.55
792.8434	122.7693	17512.35	16901.15
792.9849	125.0197	17226.8	16613.85
793.1264	127.2696	17018.65	16402.15
793.2679	129.519	16927.15	16306.1
793.4094	131.7679	16772.7	16153.2
793.551	134.0163	16694.65	16070.85
793.6926	136.2642	16578.75	15947.6
793.8342	138.5117	16454.25	15816.75
793.9758	140.7587	16311.35	15677.8
794.1175	143.0052	16146	15506.8
794.2591	145.2512	15976.35	15343.9
794.4008	147.4967	15881.95	15245.45
794.5425	149.7417	15754.3	15117.4
794.6842	151.9863	15629.3	14988.05
794.826	154.2304	15628.75	14982.5
794.9677	156.4739	15489.5	14836.5
795.1095	158.717	15452.3	14802.55
795.2513	160.9596	15314	14657.5
795.3931	163.2017	15084.95	14431.15
795.535	165.4433	14858.15	14201.35
795.6768	167.6844	14576	13913.45
795.8187	169.925	14327.8	13664.8
795.9606	172.1651	13998.45	13331.45
796.1025	174.4047	13762.85	13090.8
796.2445	176.6439	13535.05	12862.85
796.3864	178.8825	13303.3	12629.45
796.5284	181.1206	13198.55	12520.35
796.6704	183.3582	13006.15	12323.85
796.8124	185.5954	12933.3	12248.45
796.9544	187.832	12838.5	12151.85
797.0965	190.0681	12827.05	12138.3
797.2386	192.3037	12776.55	12084.65
797.3806	194.5388	12773.75	12078.45
797.5228	196.7734	12799.5	12101.1
797.6649	199.0075	12835.1	12134.85
797.807	201.2411	12941.3	12237.65
797.9492	203.4742	12947.3	12245.9
798.0914	205.7068	13035.75	12330.85
798.2336	207.9389	13105.15	12399.45
798.3758	210.1704	13230.8	12524.6
798.518	212.4015	13333.05	12621.45
798.6603	214.632	13450.85	12744.95
798.8025	216.862	13619.95	12924.7
798.9448	219.0915	13744.8	13055.25
799.0871	221.3205	13896.45	13205.9
799.2294	223.549	14132.4	13442.9
799.3718	225.777	14452.75	13766.95
799.5141	228.0044	14812.5	14121.9
799.6565	230.2314	15236.3	14546.35
799.7989	232.4578	15601.45	14910.95
799.9413	234.6837	15962.9	15263.35
800.0837	236.909	16170.45	15468.25
800.2262	239.1339	16104.25	15378.2
800.3687	241.3582	15851.55	15141.75
800.5111	243.582	15476.8	14739.95
800.6536	245.8053	15148.8	14421.1
800.7961	248.0281	14806.35	14085.8
800.9387	250.2503	14548.95	13819.75
801.0812	252.472	14343.8	13612.5
801.2238	254.6932	14241.55	13507.7
801.3664	256.9139	14148	13411.85
801.509	259.134	14093.3	13356.75
801.6516	261.3536	13974.15	13237.4
801.7942	263.5727	13910.4	13174.15
801.9369	265.7912	13808.95	13070.9
802.0795	268.0092	13754.55	13020.55
802.2222	270.2267	13684.25	12945.4
802.3649	272.4436	13590.3	12850.65
802.5076	274.6601	13537.3	12791.6
802.6504	276.8759	13494.9	12752.5
802.7931	279.0913	13516.45	12772.75
802.9359	281.3061	13519.95	12771.7
803.0787	283.5204	13599.5	12851.2
803.2215	285.7341	13698.6	12945.9
803.3643	287.9473	13859.6	13098.65
803.5071	290.16	14076.3	13317.55
803.6499	292.3721	14348.65	13594.65
803.7928	294.5837	14736.55	13984
803.9357	296.7947	15021.15	14269.15
804.0786	299.0052	15190.35	14437.5
804.2215	301.2152	15013.4	14256.6
804.3644	303.4246	14698.75	13947.05
804.5074	305.6334	14214.8	13464.3
804.6503	307.8418	13791	13035
804.7933	310.0495	13419.25	12663.6
804.9363	312.2568	13182.75	12429.5
805.0793	314.4635	13020.95	12262.7
805.2223	316.6696	13003.2	12246.95
805.3653	318.8752	12957.4	12187.35
805.5084	321.0802	13023.05	12261.15
805.6514	323.2847	13118.95	12360.95
805.7945	325.4887	13146.1	12383.9
805.9376	327.692	13079.25	12316.6
806.0807	329.8949	12998.5	12236.7
806.2238	332.0972	12768.6	12003.35
806.367	334.2989	12508.4	11740
806.5101	336.5001	12290.45	11522.3
806.6533	338.7007	12112.8	11340
806.7965	340.9008	12013.35	11240.85
806.9397	343.1003	11933.6	11160.8
807.0829	345.2992	11865.45	11094.6
807.2261	347.4976	11864.2	11088.5
807.3693	349.6955	11842.2	11062.7
807.5126	351.8927	11888.2	11109.7
807.6559	354.0895	11869.2	11077.35
807.7991	356.2856	11914.6	11136.55
807.9424	358.4812	11900.25	11119.55
808.0857	360.6763	11920.15	11137.35
808.2291	362.8707	11882.25	11099.75
808.3724	365.0646	11890.25	11107
808.5158	367.258	11866.9	11077.45
808.6591	369.4508	11884.7	11094.35
808.8025	371.643	11935.15	11144
808.9459	373.8346	11897.05	11107.1
809.0893	376.0257	11836.65	11038.1
809.2327	378.2162	11751.95	10954
809.3762	380.4062	11657.9	10860.3
809.5196	382.5956	11523.85	10724.5
809.6631	384.7844	11423.1	10624.75
809.8066	386.9726	11342.3	10543.9
809.9501	389.1603	11293.85	10499.5
810.0936	391.3474	11271.05	10440.85
810.2371	393.5339	11254.25	10457.4
810.3806	395.7199	11179.75	10390.15
810.5241	397.9052	11182.05	10390.8
810.6677	400.09	11186.3	10395.75
810.8113	402.2743	11234.65	10444.7
810.9548	404.4579	11259.75	10469.35
811.0984	406.641	11330.95	10540.2
811.2421	408.8235	11516	10724.45
811.3857	411.0054	11832.7	11039.4
811.5293	413.1868	12234.35	11439.65
811.673	415.3675	12553.8	11756.15
811.8166	417.5477	12730.3	11930.5
811.9603	419.7273	12730.15	11930.8
812.104	421.9064	12609.05	11798.95
812.2477	424.0848	12464.4	11659.85
812.3914	426.2627	12281.35	11473.2
812.5351	428.4399	12019.15	11213.9
812.6788	430.6166	11728	10918.9
812.8226	432.7928	11440.7	10627.8
812.9663	434.9683	11146.55	10337
813.1101	437.1432	10968.3	10156.2
813.2539	439.3176	10833.05	10019.95
813.3977	441.4914	10737.95	9923.5
813.5415	443.6645	10723.55	9908.9
813.6853	445.8371	10676.6	9856.9
813.8291	448.0091	10590.35	9776.55
813.973	450.1806	10530.95	9716
814.1168	452.3514	10486.5	9670.2
814.2607	454.5216	10488.4	9661.95
814.4046	456.6913	10428.65	9608.65
814.5485	458.8603	10425.7	9608.8
814.6924	461.0288	10467.8	9649
814.8363	463.1967	10502.15	9685.55
814.9802	465.3639	10610.75	9788.7
815.1241	467.5306	10700.05	9878.45
815.2681	469.6967	10827.75	10008.35
815.412	471.8622	10990.6	10171.6
815.556	474.0271	11115.6	10294.55
815.7	476.1914	11122.55	10298.15
815.844	478.3551	11113	10293.25
815.988	480.5182	11077.5	10257.85
816.132	482.6807	11029.4	10204.95
816.276	484.8426	11077.85	10255.35
816.4201	487.0039	11278.5	10455.2
816.5641	489.1647	11598.05	10775.6
816.7082	491.3248	11944.9	11122.75
816.8522	493.4843	12078.45	11251.55
816.9963	495.6432	12104.6	11278.95
817.1404	497.8015	12010.1	11181.25
817.2845	499.9592	12054.7	11229.95
817.4286	502.1163	11997.1	11169.45
817.5727	504.2728	11858.6	11029.9
817.7168	506.4287	11582.95	10753.35
817.861	508.5839	11209.8	10382.65
818.0051	510.7386	10934.55	10105.2
818.1493	512.8927	10752.75	9917.55
818.2935	515.0461	10625.65	9799.45
818.4377	517.199	10534.3	9705.15
818.5818	519.3512	10463.45	9635.6
818.726	521.5029	10451	9612.7
818.8703	523.6539	10468.8	9635.1
819.0145	525.8043	10489.45	9655.7
819.1587	527.9541	10500.95	9667.5
819.303	530.1033	10521.4	9686.5
819.4472	532.2519	10583.7	9750
819.5915	534.3999	10712.95	9877.85
819.7357	536.5472	10998.3	10169.45
819.88	538.694	11403.85	10571
820.0243	540.8401	11969.9	11136.45
820.1686	542.9856	12362.15	11524.5
820.3129	545.1305	12520.3	11682.2
820.4572	547.2748	12367.8	11530.8
820.6016	549.4185	12002.85	11163.4
820.7459	551.5615	11662.15	10825.4
820.8902	553.704	11511.05	10674.5
821.0346	555.8458	11397.5	10560.9
821.1789	557.987	11349.25	10511.7
821.3233	560.1276	11232.95	10396.7
821.4677	562.2675	11144.7	10310.5
821.6121	564.4069	11051.4	10213.5
821.7565	566.5456	10926.85	10090.5
821.9009	568.6837	10809.7	9972.1
822.0453	570.8212	10597.55	9759.95
822.1897	572.958	10446.35	9604.25
822.3342	575.0942	10286.35	9449.95
822.4786	577.2299	10232.85	9394.35
822.6231	579.3648	10238.95	9399.85
822.7675	581.4992	10328.25	9490.55
822.912	583.6329	10495.2	9653.75
823.0565	585.766	10688.55	9849.2
823.201	587.8985	10773.5	9933.4
823.3454	590.0304	10787.6	9937.1
823.4899	592.1616	10720.1	9876.2
823.6345	594.2922	10639.85	9796.75
823.779	596.4222	10514.7	9670.25
823.9235	598.5515	10380.2	9537.35
824.068	600.6802	10237.45	9395.65
824.2126	602.8083	10071.4	9227.95
824.3571	604.9358	10010.9	9164.75
824.5017	607.0626	9916.55	9070.15
824.6462	609.1888	9841.4	8994.3
824.7908	611.3144	9759.25	8914.15
824.9354	613.4393	9603.65	8759.05
825.08	615.5636	9482.65	8637.9
825.2246	617.6873	9375.95	8531.35
825.3692	619.8103	9338.05	8491.05
825.5138	621.9327	9272.45	8425.65
825.6584	624.0544	9288.45	8441.95
825.803	626.1756	9284.1	8438.85
825.9477	628.2961	9252.5	8404
826.0923	630.4159	9201.15	8354.9
826.237	632.5351	9167.45	8321
826.3816	634.6537	9124.85	8275.95
826.5263	636.7716	9056.9	8205.5
826.6709	638.8889	9052	8205.3
826.8156	641.0056	9069.55	8221.1
826.9603	643.1216	9069.75	8220.3
827.105	645.237	9070.45	8219.35
827.2497	647.3518	9060.25	8213.45
827.3944	649.4659	9083.9	8235.9
827.5391	651.5793	9088.8	8237.15
827.6838	653.6922	9053.5	8202.75
827.8285	655.8043	9054.7	8202.85
827.9733	657.9159	9030.95	8179.25
828.118	660.0268	8944.45	8090.3
828.2627	662.137	8902.75	8052.05
828.4075	664.2466	8856.6	8002.5
828.5522	666.3556	8814.25	7960.7
828.697	668.4639	8811.5	7957.2
828.8418	670.5716	8855.55	8002.2
828.9865	672.6786	8915.15	8058.3
829.1313	674.785	8967.35	8113.75
829.2761	676.8907	9033.8	8178.7
829.4209	678.9958	9106.6	8256.25
829.5657	681.1002	9090	8234.65
829.7105	683.204	9031.9	8172.15
829.8553	685.3072	8994.65	8138.9
830.0001	687.4097	8923.65	8069
830.1449	689.5115	8870.4	8015.7
830.2898	691.6127	8800.35	7945.25
830.4346	693.7132	8730.8	7875.85
830.5794	695.8131	8678.3	7800.65
830.7243	697.9123	8627.65	7770.15
830.8691	700.0109	8563.25	7704.45
831.014	702.1089	8561	7706.85
831.1588	704.2061	8539.7	7682.45
831.3037	706.3028	8572.95	7714.9
831.4486	708.3987	8623.8	7767.9
831.5935	710.4941	8686.45	7829.3
831.7383	712.5887	8844.9	7984.65
831.8832	714.6827	9108.9	8246.45
832.0281	716.7761	9404.9	8547.45
832.173	718.8688	9714.4	8854.45
832.3179	720.9608	9861.15	9000.35
832.4628	723.0522	9839.45	8977.95
832.6077	725.1429	9620.8	8760.25
832.7527	727.233	9317	8455.4
832.8976	729.3224	9031.65	8171.65
833.0425	731.4112	8761.9	7899.1
833.1874	733.4993	8583	7721.3
833.3324	735.5867	8480.15	7617.85
833.4773	737.6735	8393.7	7529.25
833.6222	739.7596	8355.65	7493.2
833.7672	741.845	8333.7	7472.1
833.9122	743.9298	8365.75	7502.35
834.0571	746.014	8332.45	7471.25
834.2021	748.0974	8344.75	7484.2
834.347	750.1802	8331.75	7469.35
834.492	752.2624	8357.05	7495.9
834.637	754.3439	8373	7511.05
834.782	756.4247	8366.3	7496.3
834.9269	758.5048	8439.05	7578.75
835.0719	760.5843	8571	7708.45
835.2169	762.6631	8775.55	7914.25
835.3619	764.7413	9065.85	8203.2
835.5069	766.8188	9528.6	8666.15
835.6519	768.8956	9890.9	9025
835.7969	770.9718	10111.25	9248.05
835.9419	773.0473	10005.7	9142.55
836.0869	775.1221	9737.2	8873.85
836.232	777.1962	9420.9	8556.55
836.377	779.2697	9297.3	8430.45
836.522	781.3426	9337.9	8456.9
836.667	783.4147	9572.65	8708.1
836.8121	785.4862	9809.45	8947.1
836.9571	787.557	9848.4	8982.45
837.1021	789.6271	9546.15	8679.55
837.2472	791.6966	9105.7	8237.2
837.3922	793.7654	8686.7	7819.7
837.5373	795.8335	8437.35	7572.7
837.6823	797.901	8291.35	7428.15
837.8274	799.9678	8253.35	7386.8
837.9724	802.0339	8269.4	7407
838.1175	804.0993	8285.65	7412.3
838.2626	806.1641	8294.6	7429.1
838.4076	808.2282	8249.95	7382.45
838.5527	810.2916	8152.9	7285.35
838.6978	812.3544	8092.55	7229.05
838.8428	814.4164	7981.35	7117.3
838.9879	816.4778	7987.25	7121
839.133	818.5385	7968.55	7102.15
839.2781	820.5986	7966.9	7100.9
839.4232	822.658	8014.25	7146.8
839.5682	824.7166	8018.45	7152.1
839.7133	826.7747	8122.6	7255.4
839.8584	828.832	8211	7344.8
840.0035	830.8886	8266.75	7400.75
840.1486	832.9446	8389.15	7519.25
840.2937	834.9999	8449.9	7584.95
840.4388	837.0545	8524.95	7654.8
840.5839	839.1085	8546.05	7677.3
840.729	841.1618	8571.15	7699.95
840.8741	843.2143	8554.2	7685.95
841.0192	845.2662	8524.55	7657.75
841.1643	847.3175	8444.7	7580.3
841.3095	849.368	8356.35	7490.9
841.4546	851.4179	8280.4	7412.1
841.5997	853.467	8138.8	7271.75
841.7448	855.5155	8033.5	7165.7
841.8899	857.5633	7934.3	7064.6
842.0351	859.6105	7865.95	6996.8
842.1802	861.6569	7787.4	6920.3
842.3253	863.7027	7732.8	6863.25
842.4704	865.7478	7716.3	6846.75
842.6156	867.7922	7729	6862.5
842.7607	869.8359	7758.1	6889.3
842.9058	871.8789	7849.1	6978.75
843.0509	873.9212	8024.3	7119.55
843.1961	875.9629	8146.65	7278.15
843.3412	878.0039	8283	7413.45
843.4863	880.0441	8324.35	7455.4
843.6315	882.0837	8329.3	7458.55
843.7766	884.1226	8207.55	7336.45
843.9218	886.1609	8067.5	7198.95
844.0669	888.1984	7966.7	7098.45
844.212	890.2352	7898.25	7028.75
844.3572	892.2714	7863.05	6989.9
844.5023	894.3069	7826.25	6953.65
844.6475	896.3416	7768.25	6897.45
844.7926	898.3757	7757.85	6885.95
844.9377	900.4091	7739.55	6868.1
845.0829	902.4418	7767.4	6892.45
845.228	904.4739	7774.5	6902
845.3732	906.5052	7747.85	6877.75
845.5183	908.5358	7639.2	6770.6
845.6635	910.5658	7526.8	6655.1
845.8086	912.595	7408.05	6535.8
845.9538	914.6236	7295.7	6425.45
846.0989	916.6515	7250.85	6380.5
846.2441	918.6786	7254.8	6382.05
846.3892	920.7051	7297.25	6424.65
846.5344	922.7309	7395.35	6523.6
846.6795	924.756	7453.85	6582.35
846.8246	926.7804	7511.05	6634.25
846.9698	928.8041	7489.6	6612.35
847.1149	930.8272	7466.1	6593.1
847.2601	932.8495	7417.4	6544.35
847.4052	934.8711	7379.65	6509.25
847.5504	936.892	7234.3	6361.25
847.6955	938.9123	7080.7	6206.4
847.8407	940.9318	6993.15	6119.15
847.9858	942.9506	6861	5988.3
848.131	944.9688	6807.3	5936
848.2761	946.9862	6772.4	5900.95
848.4213	949.003	6742.3	5868.45
848.5664	951.019	6741.3	5868.25
848.7115	953.0344	6743.7	5870.7
848.8567	955.0491	6794.15	5920.4
849.0018	957.063	6850.75	5978.2
849.147	959.0763	6924.15	6051.25
849.2921	961.0888	6953.65	6076.95
849.4373	963.1007	7017.25	6142.95
849.5824	965.1119	7040.95	6167.55
849.7275	967.1223	7065.05	6190.95
849.8727	969.1321	7082.5	6207.65
850.0178	971.1412	7095.85	6221.7
850.1629	973.1495	7078.7	6202.55
850.3081	975.1572	7141.8	6235.5
850.4532	977.1641	7148.8	6276.35
850.5983	979.1704	7132.25	6256.05
850.7435	981.1759	7147	6270.05
850.8886	983.1808	7175.85	6300.65
851.0337	985.1849	7250.35	6364.45
851.1788	987.1884	7387.45	6508.55
851.324	989.1911	7519.55	6641.15
851.4691	991.1932	7643.15	6765.45
851.6142	993.1945	7686.35	6813.65
851.7593	995.1951	7672.25	6793.7
851.9045	997.1951	7612.9	6731.35
852.0496	999.1943	7580.95	6706.55
852.1947	1001.1928	7513.1	6637.65
852.3398	1003.1906	7512.1	6637.6
852.4849	1005.1877	7543.25	6665.75
852.63	1007.1841	7465.55	6593.3
852.7751	1009.1798	7410.6	6535.6
852.9202	1011.1748	7244.85	6369.5
853.0653	1013.1691	7088.7	6210.7
853.2104	1015.1627	6902.05	6027.8
853.3555	1017.1556	6740.6	5865.1
853.5006	1019.1477	6688.6	5810.6
853.6457	1021.1392	6647.5	5774.25
853.7908	1023.1299	6630.15	5754.75
853.9359	1025.12	6674.1	5794.8
854.081	1027.1093	6717.85	5842.75
854.2261	1029.0979	6770.3	5895.95
854.3712	1031.0859	6803.05	5929.6
854.5163	1033.0731	6799.75	5922.65
854.6613	1035.0596	6724.75	5848.8
854.8064	1037.0454	6615.85	5741.45
854.9515	1039.0304	6515.95	5638.1
855.0965	1041.0148	6417.45	5541.25
855.2416	1042.9985	6349.9	5472.15
855.3867	1044.9814	6307.5	5430.8
855.5317	1046.9636	6276.8	5399.7
855.6768	1048.9452	6257.3	5382.6
855.8219	1050.926	6273.75	5398.15
855.9669	1052.9061	6239.35	5361.6
856.112	1054.8855	6235.15	5358
856.257	1056.8642	6268.55	5394.55
856.4021	1058.8421	6302	5422.6
856.5471	1060.8194	6300.35	5424.45
856.6921	1062.7959	6316.75	5440.75
856.8372	1064.7717	6306.1	5429.55
856.9822	1066.7469	6312.85	5435.7
857.1272	1068.7213	6273.35	5393.55
857.2723	1070.695	6262.9	5386.3
857.4173	1072.6679	6194.2	5319
857.5623	1074.6402	6158.7	5282.15
857.7073	1076.6117	6159.4	5276.65
857.8523	1078.5826	6172.15	5293.75
857.9973	1080.5527	6219.6	5340.4
858.1423	1082.5221	6335.65	5458.6
858.2873	1084.4908	6516.15	5638.8
858.4323	1086.4587	6710.8	5830.85
858.5773	1088.426	6807.15	5930.7
858.7223	1090.3925	6826.05	5942.8
858.8673	1092.3584	6729.75	5853.05
859.0123	1094.3235	6611.45	5736.5
859.1573	1096.2879	6521.35	5643.85
859.3022	1098.2515	6487.05	5611.3
859.4472	1100.2145	6513.95	5637.9
859.5922	1102.1767	6545.95	5666.75
859.7371	1104.1382	6637.35	5756.4
859.8821	1106.099	6800.3	5921.05
860.027	1108.0591	6949.9	6073.05
860.172	1110.0185	7085.6	6207.05
860.3169	1111.9771	7057.3	6179.45
860.4619	1113.9351	6878.6	6000.3
860.6068	1115.8923	6620.65	5743.35
860.7517	1117.8488	6343	5464.85
860.8967	1119.8045	6111.2	5232.6
861.0416	1121.7596	5996.85	5119.55
861.1865	1123.7139	5945.3	5070.35
861.3314	1125.6675	5956.55	5080.75
861.4763	1127.6204	6009.45	5131.75
861.6212	1129.5726	6009	5129.2
861.7661	1131.524	6042.15	5165.6
861.911	1133.4748	6091.6	5214
862.0559	1135.4248	6107.85	5229.8
862.2008	1137.3741	6136.5	5260.6
862.3457	1139.3226	6102.2	5223.55
862.4905	1141.2705	6103.4	5225.85
862.6354	1143.2176	6033.05	5150
862.7803	1145.164	6052.05	5171.3
862.9251	1147.1097	6072.65	5194.5
863.07	1149.0546	6079.75	5201.45
863.2148	1150.9989	5967.45	5087.95
863.3597	1152.9424	5819.3	4940.6
863.5045	1154.8852	5692.7	4816.65
863.6493	1156.8272	5576.85	4701
863.7942	1158.7686	5510.95	4627.2
863.939	1160.7092	5480.95	4602.8
864.0838	1162.6491	5488.5	4608.85
864.2286	1164.5883	5521.25	4643.55
864.3734	1166.5267	5592.75	4713.65
864.5182	1168.4644	5682.05	4804.35
864.663	1170.4014	5821.35	4939.4
864.8078	1172.3377	6013.95	5136.4
864.9526	1174.2732	6159.05	5280.25
865.0974	1176.2081	6312	5433.9
865.2421	1178.1421	6428.45	5547.05
865.3869	1180.0755	6525.15	5647.75
865.5317	1182.0082	6535.25	5657.45
865.6764	1183.9401	6469.15	5588.6
865.8212	1185.8713	6301.6	5421.75
865.9659	1187.8017	6093.55	5216
866.1106	1189.7315	5911.6	5032
866.2554	1191.6605	5743.15	4837.1
866.4001	1193.5888	5581	4704
866.5448	1195.5163	5488.9	4610.05
866.6895	1197.4432	5415	4533.5
866.8342	1199.3693	5359.15	4479.65
866.9789	1201.2947	5349.3	4467.75
867.1236	1203.2193	5319.75	4441.8
867.2683	1205.1432	5341.55	4464.1
867.413	1207.0664	5356.4	4474.1
867.5576	1208.9889	5439.9	4557.5
867.7023	1210.9106	5508.1	4629.05
867.847	1212.8316	5589.9	4711.85
867.9916	1214.7519	5640.65	4752.95
868.1363	1216.6715	5628.35	4750.6
868.2809	1218.5903	5608.9	4728.75
868.4255	1220.5084	5570.7	4692.15
868.5701	1222.4257	5523.75	4644.05
868.7148	1224.3424	5501.35	4623.95
868.8594	1226.2583	5556	4669.7
869.004	1228.1735	5637.95	4758.1
869.1486	1230.0879	5745.85	4867.05
869.2932	1232.0016	5837.95	4960.65
869.4377	1233.9146	5864.3	4985.15
869.5823	1235.8269	5814.9	4936.75
869.7269	1237.7384	5681.5	4803.35
869.8715	1239.6492	5548.9	4668.9
870.016	1241.5592	5459.05	4579.7
870.1606	1243.4686	5390.55	4512.05
870.3051	1245.3772	5340.65	4462.3
870.4496	1247.285	5281.55	4401.65
870.5941	1249.1922	5241.45	4362.6
870.7387	1251.0986	5243.35	4365.35
870.8832	1253.0042	5264.45	4384
871.0277	1254.9092	5301.35	4421.45
871.1722	1256.8134	5384.55	4506.4
871.3167	1258.7169	5497.05	4616.3
871.4611	1260.6196	5598.55	4721.6
871.6056	1262.5216	5743.35	4862.35
871.7501	1264.4229	5834.65	4957.7
871.8945	1266.3234	5944.7	5064.25
872.039	1268.2232	5946.2	5065
872.1834	1270.1223	5938.65	5054.45
872.3278	1272.0207	5909.3	5030.4
872.4723	1273.9183	5878.55	4992.4
872.6167	1275.8151	5825.1	4946.4
872.7611	1277.7113	5734.9	4852.7
872.9055	1279.6067	5612	4732.1
873.0499	1281.5014	5494.95	4614.1
873.1943	1283.3953	5371.3	4488.35
873.3386	1285.2885	5324.45	4445.9
873.483	1287.181	5268.5	4386.65
873.6274	1289.0727	5253.2	4373.6
873.7717	1290.9637	5292.4	4412.45
873.9161	1292.854	5393.05	4515
874.0604	1294.7435	5516.2	4635.55
874.2047	1296.6323	5670.2	4790.2
874.349	1298.5204	5865.2	4983.4
874.4933	1300.4077	6078.05	5196.85
874.6376	1302.2943	6210.6	5330.15
874.7819	1304.1802	6284.15	5403.65
874.9262	1306.0653	6249.5	5367.3
875.0705	1307.9497	6134.7	5257.1
875.2147	1309.8333	6095.05	5215.55
875.359	1311.7162	6072.05	5193.75
875.5032	1313.5984	6140.75	5259
875.6475	1315.4798	6279.45	5384.85
875.7917	1317.3605	6418.6	5522.65
875.9359	1319.2405	6520.2	5638.6
876.0801	1321.1197	6547.65	5665.6
876.2243	1322.9982	6522.3	5636.05
876.3685	1324.876	6517.75	5636.35
876.5127	1326.753	6485.7	5603
876.6569	1328.6293	6521.55	5641.25
876.801	1330.5048	6519.1	5637.9
876.9452	1332.3796	6499.85	5620.65
877.0893	1334.2537	6488.55	5580.25
877.2335	1336.127	6418.95	5540.35
877.3776	1337.9996	6383.8	5501.1
877.5217	1339.8714	6354.45	5474.1
877.6658	1341.7426	6335.7	5410.85
877.8099	1343.6129	6266.4	5385.7
877.954	1345.4826	6217.9	5336.45
878.0981	1347.3515	6171.9	5289.15
878.2422	1349.2196	6117.3	5233.45
878.3862	1351.087	6141.8	5259.6
878.5303	1352.9537	6157.75	5278.55
878.6743	1354.8197	6239.5	5356.7
878.8184	1356.6849	6369.5	5487.25
878.9624	1358.5493	6428.1	5545.35
879.1064	1360.4131	6420.35	5538.9
879.2504	1362.276	6360.2	5480.25
879.3944	1364.1383	6234.8	5355.15
879.5384	1365.9998	6054.5	5168.95
879.6823	1367.8606	5853.6	4974.95
879.8263	1369.7206	5674.9	4794.95
879.9702	1371.5799	5560.85	4675.45
880.1142	1373.4384	5460.75	4578.75
880.2581	1375.2962	5380.25	4498.45
880.402	1377.1533	5218.45	4338.25
880.5459	1379.0096	5000.8	4117.7
880.6898	1380.8652	4799.4	3918.65
880.8337	1382.7201	4621.8	3741.1
880.9776	1384.5742	4487.4	3605
881.1215	1386.4275	4370.55	3486.7
881.2653	1388.2802	4279.15	3399.1
881.4092	1390.132	4213.85	3334.05
881.553	1391.9832	4178.25	3295.35
881.6968	1393.8336	4109.75	3226.95
881.8406	1395.6832	4103.25	3221.55
881.9844	1397.5322	4076.1	3195.55
882.1282	1399.3803	4081.35	3194.85
882.272	1401.2278	4061.1	3180.25
882.4158	1403.0745	4076	3196.25
882.5595	1404.9204	4064.4	3182.7
882.7033	1406.7656	4082.3	3202.15
882.847	1408.6101	4085.75	3204.55
882.9908	1410.4538	4096.55	3214.1
883.1345	1412.2968	4136.7	3256.25
883.2782	1414.139	4175.7	3291.7
883.4219	1415.9805	4241.35	3361.75
883.5656	1417.8213	4313.2	3423.35
883.7092	1419.6613	4420.2	3538.35
883.8529	1421.5006	4563.9	3681.05
883.9965	1423.3391	4790.55	3908.5
884.1402	1425.1769	5071.25	4190.8
884.2838	1427.0139	5444.2	4560.8
884.4274	1428.8502	5942.8	5059.65
884.571	1430.6858	6427.55	5546.6
884.7146	1432.5206	6745.3	5866.6
884.8582	1434.3547	6927.05	6043.6
885.0018	1436.188	6963.4	6086.25
885.1453	1438.0206	6893.15	6012.15
885.2889	1439.8524	6778.15	5897.25
885.4324	1441.6835	6713.65	5830.35
885.5759	1443.5139	6657.15	5773.65
885.7194	1445.3435	6609.65	5727
885.8629	1447.1724	6553.5	5671.55
886.0064	1449.0005	6493.7	5610.7
886.1499	1450.8279	6433.75	5550.8
886.2933	1452.6545	6390.75	5510.7
886.4368	1454.4804	6431.15	5552.75
886.5802	1456.3056	6417.55	5528.6
886.7237	1458.13	6322.15	5441.6
886.8671	1459.9536	6151.45	5268.45
887.0105	1461.7766	5868.7	4986.75
887.1539	1463.5987	5549.35	4666.1
887.2972	1465.4202	5258.35	4376.35
887.4406	1467.2409	4981.05	4101.4
887.584	1469.0608	4764.45	3883.55
887.7273	1470.88	4560	3678.45
887.8706	1472.6984	4403.65	3521.9
888.0139	1474.5161	4254.6	3370.3
888.1572	1476.3331	4132.8	3252.6
888.3005	1478.1493	4058	3177.15
888.4438	1479.9648	3980.1	3098.65
888.5871	1481.7795	3909.65	3030.1
888.7303	1483.5935	3863	2981.45
888.8736	1485.4067	3807.9	2927.15
889.0168	1487.2192	3772.2	2891.9
889.16	1489.031	3739.05	2853.6
889.3032	1490.842	3720.35	2839.3
889.4464	1492.6522	3684.35	2802.2
889.5896	1494.4618	3656.75	2772.55
889.7327	1496.2705	3655.55	2775.5
889.8759	1498.0785	3633	2748.85
890.019	1499.8858	3616.55	2736.45
890.1622	1501.6924	3600.65	2721.45
890.3053	1503.4981	3595.2	2714
890.4484	1505.3032	3583.8	2703.15
890.5914	1507.1075	3565.15	2681.85
890.7345	1508.911	3545.8	2663.05
890.8776	1510.7138	3521.8	2639.75
891.0206	1512.5159	3489.85	2607.4
891.1637	1514.3172	3481.5	2600.6
891.3067	1516.1178	3444.25	2563.5
891.4497	1517.9176	3434.7	2551.6
891.5927	1519.7166	3417.6	2538
891.7357	1521.515	3417	2529.75
891.8786	1523.3126	3390.5	2509.85
892.0216	1525.1094	3376.3	2492.1
892.1645	1526.9055	3366.1	2486.1
892.3074	1528.7008	3330.95	2449.6
892.4503	1530.4954	3313.75	2428.85
892.5932	1532.2893	3318	2438.8
892.7361	1534.0824	3306.05	2418.15
892.879	1535.8747	3305.05	2423.2
893.0218	1537.6663	3296.15	2412.2
893.1647	1539.4572	3306.7	2422.5
893.3075	1541.2473	3294.2	2411.6
893.4503	1543.0367	3283	2403
893.5931	1544.8253	3278.45	2393.25
893.7359	1546.6132	3279.25	2397.15
893.8787	1548.4003	3287.6	2395.85
894.0214	1550.1867	3301.75	2410.6
894.1642	1551.9723	3324.15	2439.8
894.3069	1553.7572	3328.6	2445.85
894.4496	1555.5414	3355.75	2473.95
894.5923	1557.3247	3374.4	2492.25
894.735	1559.1074	3397.9	2515.25
894.8777	1560.8893	3437.55	2559.15
895.0204	1562.6705	3475.65	2593.95
895.163	1564.4509	3547.45	2667
895.3056	1566.2305	3599.25	2718.85
895.4482	1568.0094	3673.9	2792.6
895.5908	1569.7876	3732.75	2850.25
895.7334	1571.565	3785.25	2903.75
895.876	1573.3417	3831.35	2950.2
896.0186	1575.1176	3830.3	2949.1
896.1611	1576.8928	3820.15	2937.3
896.3036	1578.6672	3757.3	2877.75
896.4461	1580.4409	3664.6	2783.35
896.5886	1582.2138	3579.8	2696.1
896.7311	1583.986	3482.6	2600.85
896.8736	1585.7575	3412.95	2532.9
897.0161	1587.5282	3342.85	2462.75
897.1585	1589.2981	3308.1	2425.75
897.3009	1591.0673	3278.3	2399
897.4433	1592.8358	3250.95	2371.1
897.5857	1594.6035	3246.05	2361.85
897.7281	1596.3704	3244.65	2363.85
897.8705	1598.1366	3262.6	2382.75
898.0128	1599.9021	3284.75	2404.1
898.1551	1601.6668	3301.3	2419.7
898.2975	1603.4308	3333.4	2453.35
898.4398	1605.194	3383.6	2498.2
898.5821	1606.9564	3450.95	2568.45
898.7243	1608.7182	3526.4	2642.05
898.8666	1610.4791	3639.7	2760.8
899.0088	1612.2394	3750.95	2869.7
899.1511	1613.9988	3886.4	3004.9
899.2933	1615.7576	4047.65	3166.1
899.4355	1617.5156	4257.2	3370.75
899.5776	1619.2728	4420.55	3540.1
899.7198	1621.0293	4552.85	3671.7
899.862	1622.785	4606.7	3723.2
900.0041	1624.54	4572.75	3688.45
900.1462	1626.2942	4448.8	3563.8
900.2883	1628.0477	4281.65	3396.35
900.4304	1629.8005	4108.25	3222.7
900.5725	1631.5525	3929	3048.45
900.7145	1633.3037	3788.2	2905.75
900.8566	1635.0542	3651.75	2771.55
900.9986	1636.804	3558.5	2676.7
901.1406	1638.553	3548.95	2595.45
901.2826	1640.3013	3459.45	2580
901.4245	1642.0488	3416.85	2536.45
901.5665	1643.7955	3409	2527.6
901.7085	1645.5416	3418.35	2537.1
901.8504	1647.2868	3468.8	2588.35
901.9923	1649.0313	3530.4	2649.75
902.1342	1650.7751	3635.5	2749.9
902.2761	1652.5181	3787	2907.3
902.4179	1654.2604	3969.1	3087.9
902.5598	1656.0019	4208.55	3329.05
902.7016	1657.7427	4496.15	3615
902.8434	1659.4828	4736.25	3857.2
902.9852	1661.222	4928.2	4048.5
903.127	1662.9606	4949.45	4071.25
903.2687	1664.6984	4827.05	3947.65
903.4105	1666.4354	4555.65	3674.1
903.5522	1668.1717	4221.2	3341.95
903.6939	1669.9072	3883.3	3005.2
903.8356	1671.642	3607.2	2725
903.9773	1673.3761	3392	2513.4
904.119	1675.1094	3213	2331.7
904.2606	1676.8419	3089.15	2209.15
904.4022	1678.5737	3004.15	2123.45
904.5439	1680.3048	2954.4	2074.35
904.6855	1682.0351	2878.1	1998.05
904.827	1683.7646	2848.55	1965.4
904.9686	1685.4934	2823	1944.95
905.1101	1687.2215	2796.5	1915.65
905.2517	1688.9488	2763.1	1884
905.3932	1690.6754	2745.55	1866.2
905.5347	1692.4012	2734.25	1854.2
905.6761	1694.1263	2719.65	1838.35
905.8176	1695.8506	2709.55	1829.05
905.9591	1697.5742	2691.25	1812.55
906.1005	1699.297	2675.25	1795.85
906.2419	1701.0191	2660.55	1779.9
906.3833	1702.7404	2637.25	1757.55
906.5246	1704.461	2628.3	1747.05
906.666	1706.1808	2606.35	1723.4
906.8073	1707.8999	2610.2	1728.6
906.9487	1709.6182	2600.9	1719.15
907.09	1711.3358	2589.95	1708.65
907.2313	1713.0527	2584.95	1706.9
907.3725	1714.7688	2578.95	1692.6
907.5138	1716.4841	2556.25	1675.2
907.655	1718.1987	2552.05	1666.85
907.7962	1719.9126	2527.65	1648.2
907.9374	1721.6257	2541.1	1656.65
908.0786	1723.338	2531.15	1649.1
908.2198	1725.0496	2520.8	1639.25
908.3609	1726.7605	2514.2	1631.1
908.502	1728.4706	2516.35	1636.7
908.6431	1730.18	2489.95	1607.75
908.7842	1731.8886	2489.5	1610
908.9253	1733.5964	2485.55	1601.9
909.0664	1735.3036	2468	1586.2
909.2074	1737.0099	2469.75	1590.65
909.3484	1738.7156	2460.15	1583.8
909.4894	1740.4204	2459.1	1573.9
909.6304	1742.1246	2464.05	1584.05
909.7714	1743.8279	2447.45	1565.05
909.9123	1745.5306	2451.8	1570.2
910.0532	1747.2325	2438.6	1557.8
910.1941	1748.9336	2424.4	1544.8
910.335	1750.634	2416.9	1535.8
910.4759	1752.3336	2409.2	1531.7
910.6168	1754.0325	2411.3	1532.9
910.7576	1755.7307	2419.3	1539.15
910.8984	1757.4281	2412	1533.15
911.0392	1759.1247	2415.7	1529.1
911.18	1760.8206	2408.65	1523.6
911.3208	1762.5158	2404.35	1521.3
911.4615	1764.2102	2385.95	1505.75
911.6022	1765.9039	2382.85	1502.55
911.7429	1767.5968	2372.25	1491.8
911.8836	1769.289	2357.6	1477
912.0243	1770.9804	2371.75	1491.2
912.1649	1772.6711	2361.7	1482.35
912.3056	1774.361	2354.2	1472.05
912.4462	1776.0502	2362.1	1482.9
912.5868	1777.7386	2363.4	1482.35
912.7274	1779.4263	2346.55	1467.5
912.8679	1781.1132	2347.05	1466.85
913.0084	1782.7994	2340.3	1458.05
913.149	1784.4849	2330.9	1450.85
913.2895	1786.1696	2346.85	1448.65
913.4299	1787.8535	2327.3	1447.7
913.5704	1789.5367	2323.7	1442.9
913.7108	1791.2192	2320.4	1440.9
913.8513	1792.9009	2330.8	1422.1
913.9917	1794.5818	2311.3	1428.45
914.132	1796.2621	2307.55	1429.85
914.2724	1797.9415	2303.05	1422
914.4128	1799.6202	2295.9	1415.05
914.5531	1801.2982	2293	1413.65
914.6934	1802.9755	2285.1	1404.05
914.8337	1804.6519	2292.65	1412.85
914.9739	1806.3277	2275.2	1396.95
915.1142	1808.0027	2268.25	1389.4
915.2544	1809.6769	2282.8	1403.2
915.3946	1811.3504	2270	1389.5
915.5348	1813.0231	2263.7	1382.05
915.675	1814.6951	2258.95	1378.55
915.8151	1816.3664	2271.25	1390.5
915.9553	1818.0369	2269.9	1390.4
916.0954	1819.7067	2256.1	1374.8
916.2355	1821.3757	2258.25	1377.65
916.3755	1823.044	2246.7	1368.45
916.5156	1824.7115	2245.75	1367.9
916.6556	1826.3783	2242.05	1364.15
916.7956	1828.0443	2247.05	1370.3
916.9356	1829.7096	2231.35	1350.85
917.0756	1831.3741	2228.4	1343.85
917.2155	1833.0379	2221.9	1343.25
917.3555	1834.701	2223.35	1341.15
917.4954	1836.3633	2227.5	1346.35
917.6353	1838.0248	2218.6	1336.05
917.7751	1839.6856	2206.75	1326.75
917.915	1841.3457	2206	1329.35
918.0548	1843.005	2209.2	1331.65
918.1946	1844.6636	2206.85	1327.2
918.3344	1846.3214	2203.1	1324.25
918.4742	1847.9785	2211.5	1334.35
918.6139	1849.6349	2200.05	1318.8
918.7537	1851.2904	2211.9	1321.4
918.8934	1852.9453	2197.45	1319.45
919.0331	1854.5994	2183.5	1301.15
919.1727	1856.2528	2200.55	1314.35
919.3124	1857.9054	2194.3	1314.15
919.452	1859.5572	2189.5	1309.55
919.5916	1861.2083	2187.85	1305.65
919.7312	1862.8587	2174.65	1294.85
919.8708	1864.5084	2176.85	1295.4
920.0103	1866.1572	2165.05	1285.55
920.1498	1867.8054	2165.25	1285.2
920.2893	1869.4528	2165.95	1286.55
920.4288	1871.0994	2137.3	1256.7
920.5683	1872.7453	2147.45	1266.9
920.7077	1874.3905	2156.25	1271.3
920.8471	1876.0349	2147.55	1266.4
920.9865	1877.6786	2148.5	1266.95
921.1259	1879.3215	2148.7	1269.75
921.2653	1880.9637	2136.4	1256.35
921.4046	1882.6051	2126.45	1246.1
921.5439	1884.2458	2130.25	1247.2
921.6832	1885.8858	2119.75	1238.95
921.8225	1887.525	2122.25	1240.85
921.9617	1889.1634	2116.1	1237.5
922.101	1890.8011	2111.65	1231.15
922.2402	1892.4381	2112.25	1233.35
922.3794	1894.0743	2115.2	1236.35
922.5185	1895.7098	2104.85	1225.95
922.6577	1897.3446	2100.3	1222.2
922.7968	1898.9786	2104.15	1220.75
922.9359	1900.6118	2094.5	1216.3
923.075	1902.2443	2084.9	1202.65
923.214	1903.8761	2081.05	1202.8
923.3531	1905.5071	2082.8	1201.5
923.4921	1907.1374	2063.4	1181.8
923.6311	1908.7669	2074.05	1194.25
923.77	1910.3957	2074.2	1194.05
923.909	1912.0237	2074.55	1193.3
924.0479	1913.651	2055.15	1174.35
924.1868	1915.2776	2062.15	1183.7
924.3257	1916.9034	2054.5	1175.7
924.4646	1918.5285	2048	1168.2
924.6034	1920.1528	2042.95	1163.05
924.7422	1921.7764	2052.6	1173.1
924.881	1923.3992	2038.5	1160
925.0198	1925.0213	2040.4	1160.45
925.1586	1926.6427	2028.15	1149.7
925.2973	1928.2633	2122.35	1042.95
925.436	1929.8832	2034.45	1151.3
925.5747	1931.5023	2015.9	1134.8
925.7134	1933.1207	2025.2	1143.95
925.852	1934.7383	2024.8	1145.05
925.9906	1936.3552	2006.5	1126.1
926.1292	1937.9714	2004.95	1124.25
926.2678	1939.5868	1994.55	1113
926.4064	1941.2015	1993	1114.3
926.5449	1942.8154	2000.85	1122.8
926.6834	1944.4286	1992.7	1112.85
926.8219	1946.041	2007.2	1103.65
926.9604	1947.6528	1983	1098.9
927.0988	1949.2637	1972.85	1094.75
927.2372	1950.8739	1968.8	1089.2
927.3756	1952.4834	1970.7	1090.65
927.514	1954.0921	1973.25	1094.2
927.6523	1955.7001	1958.25	1074.15
927.7907	1957.3074	1949.7	1072.45
927.929	1958.9139	1941.85	1061.95
928.0673	1960.5197	1951.15	1068.35
928.2055	1962.1247	1949	1071.75
928.3438	1963.729	1942.5	1063.15
928.482	1965.3325	1948.15	1044.35
928.6202	1966.9353	1939	1060.15
928.7584	1968.5374	1929.05	1047.4
928.8965	1970.1387	1929.9	1050.4
929.0346	1971.7393	1925.25	1045.45
929.1727	1973.3392	1927.55	1048.15
929.3108	1974.9383	1915.5	1036.3
929.4489	1976.5366	1912.85	1033.05
929.5869	1978.1342	1913.65	1032.3
929.7249	1979.7311	1905.1	1023.2
929.8629	1981.3273	1903.1	1021.65
930.0009	1982.9227	1907.35	1028.95
930.1388	1984.5173	1895.2	1015.3
930.2767	1986.1112	1886.85	1009.2
930.4146	1987.7044	1893.1	1014.95
930.5525	1989.2968	1894.05	1013.3
930.6904	1990.8885	1885.75	1002.25
930.8282	1992.4795	1875.7	994.85
930.966	1994.0697	1877.2	996.95
931.1038	1995.6592	1883.35	1003.2
931.2415	1997.2479	1877.85	997.25
931.3793	1998.8359	1869.25	989.15
931.517	2000.4232	1854.9	974.25
931.6547	2002.0097	1851.2	974.4
931.7923	2003.5955	1853.25	972.55
931.93	2005.1805	1852.85	970.8
932.0676	2006.7648	1857.15	976.55
932.2052	2008.3484	1851.25	970.15
932.3427	2009.9312	1854.15	972.75
932.4803	2011.5133	1847.85	969.95
932.6178	2013.0946	1845.6	964.85
932.7553	2014.6752	1844.8	966
932.8928	2016.2551	1834.25	953.8
933.0302	2017.8342	1838.9	957.7
933.1676	2019.4126	1832.95	954.5
933.305	2020.9902	1817.65	936.45
933.4424	2022.5672	1827.45	944.5
933.5798	2024.1433	1833.95	950.7
933.7171	2025.7188	1817.75	939.4
933.8544	2027.2935	1817.15	936
933.9917	2028.8674	1817.45	937.3
934.129	2030.4406	1808.25	930.9
934.2662	2032.0131	1804.85	925.45
934.4034	2033.5849	1800.5	916.2
934.5406	2035.1559	1800.6	919.3
934.6778	2036.7261	1801.45	921.3
934.8149	2038.2957	1798.95	917.95
934.952	2039.8645	1790	912
935.0891	2041.4325	1794.9	910.65
935.2262	2042.9998	1791.7	909.65
935.3632	2044.5664	1792.95	911.65
935.5002	2046.1323	1792.85	912.65
935.6372	2047.6974	1788.95	909.7
935.7742	2049.2617	1785.55	905.95
935.9111	2050.8254	1802.95	903.15
936.048	2052.3883	1786.9	908.35
936.1849	2053.9504	1781.9	902.2
936.3218	2055.5118	1774.2	895.3
936.4586	2057.0725	1773.85	889.25
936.5955	2058.6325	1769.6	888.9
936.7323	2060.1917	1763.55	885.05
936.869	2061.7502	1765.7	883.2
937.0058	2063.3079	1758.25	879
937.1425	2064.8649	1759	874.85
937.2792	2066.4212	1757.35	879.1
937.4159	2067.9767	1755	875.6
937.5525	2069.5315	1754.25	873.55
937.6891	2071.0856	1752.6	873.7
937.8257	2072.6389	1745.25	863
937.9623	2074.1915	1737.7	858.2
938.0989	2075.7433	1734.55	854
938.2354	2077.2945	1731.05	851.25
938.3719	2078.8448	1727.5	848.4
938.5084	2080.3945	1722.6	842.4
938.6448	2081.9434	1726.05	846
938.7812	2083.4916	1716.5	837.5
938.9176	2085.039	1723.85	842.8
939.054	2086.5857	1721.7	840.2
939.1903	2088.1317	1719.15	840.9
939.3267	2089.677	1709.85	830
939.463	2091.2215	1713.2	833.6
939.5992	2092.7652	1713.45	832.3
939.7355	2094.3083	1708.55	827.95
939.8717	2095.8506	1701.25	822.85
940.0079	2097.3921	1706.45	825.05
940.1441	2098.933	1697.3	820.05
940.2802	2100.4731	1702.8	821.3
940.4163	2102.0124	1706.65	820.5
940.5524	2103.5511	1693.75	815.55
940.6885	2105.089	1687.9	806.15
940.8245	2106.6261	1696	814.7
940.9606	2108.1626	1701.45	818.75
941.0965	2109.6983	1706.65	797.6
941.2325	2111.2332	1687.2	806.25
941.3684	2112.7675	1684.5	804
941.5044	2114.301	1685.3	804.6
941.6403	2115.8337	1680.5	800.85
941.7761	2117.3657	1675.6	793.9
941.912	2118.897	1681.1	802.7
942.0478	2120.4276	1677.7	788.85
942.1835	2121.9575	1668.35	789.4
942.3193	2123.4866	1681.3	788.1
942.455	2125.0149	1675.45	793.2
942.5907	2126.5426	1661.4	781.65
942.7264	2128.0695	1668.75	782.8
942.8621	2129.5956	1657.4	778.25
942.9977	2131.1211	1665.45	781.65
943.1333	2132.6458	1659.9	780.6
943.2689	2134.1698	1665.5	785.15
943.4044	2135.693	1653.45	770.2
943.54	2137.2155	1654.5	771.8
943.6755	2138.7373	1650.05	769.85
943.8109	2140.2584	1653.4	773.35
943.9464	2141.7787	1650.2	764.15
944.0818	2143.2983	1647.9	768.75
944.2172	2144.8171	1633.3	753
944.3526	2146.3353	1641.4	761.7
944.4879	2147.8527	1634.8	754.45
944.6232	2149.3693	1635.95	756.75
944.7585	2150.8853	1635.5	753.8
944.8938	2152.4005	1628.15	748.8
945.029	2153.9149	1622.5	741.05
945.1642	2155.4287	1620.2	738.65
945.2994	2156.9417	1627.9	746.95
945.4346	2158.454	1623.4	740.35
945.5697	2159.9655	1620.45	741.35
945.7048	2161.4764	1618.85	739.25
945.8399	2162.9865	1615.85	734.15
945.9749	2164.4958	1614.3	733.6
946.1099	2166.0045	1603.75	718
946.2449	2167.5124	1611.9	731.15
946.3799	2169.0195	1607.1	727.05
946.5148	2170.526	1612.3	731.3
946.6498	2172.0317	1606.7	727.2
946.7846	2173.5367	1598.35	716.25
946.9195	2175.0409	1598.3	717.85
947.0543	2176.5445	1602.35	722.65
947.1891	2178.0473	1598.9	717.7
947.3239	2179.5494	1602.95	717.7
947.4587	2181.0507	1592.7	712.55
947.5934	2182.5513	1592.7	711.5
947.7281	2184.0512	1595.25	713.95
947.8628	2185.5504	1581.15	701.25
947.9974	2187.0488	1593.5	711.6
948.132	2188.5465	1582.3	702.45
948.2666	2190.0435	1585.25	704.2
948.4012	2191.5397	1579.25	700.75
948.5357	2193.0353	1573.4	691.5
948.6702	2194.5301	1573.9	692.55
948.8047	2196.0241	1574.05	695
948.9392	2197.5175	1567.15	687.5
949.0736	2199.0101	1577.35	693.15
949.208	2200.502	1566.1	685.5
949.3424	2201.9931	1566.5	688.2
949.4767	2203.4835	1563.9	681.8
949.611	2204.9733	1565.45	679.05
949.7453	2206.4622	1557.95	677.95
949.8796	2207.9505	1559.65	674.65
950.0138	2209.438	1561.15	680.85
950.148	2210.9248	1553.65	673.1
950.2822	2212.4109	1551.6	671.5
950.4164	2213.8962	1549.65	664.75
950.5505	2215.3809	1545.75	666.1
950.6846	2216.8648	1539.7	659
950.8186	2218.3479	1550.05	667.15
950.9527	2219.8304	1541.55	658.4
951.0867	2221.3121	1533.7	652.55
951.2207	2222.7931	1527.5	649.4
951.3546	2224.2733	1535.85	654.9
951.4886	2225.7529	1531	649.25
951.6225	2227.2317	1527.9	644.6
951.7563	2228.7098	1522.25	640
951.8902	2230.1872	1521.2	641.05
952.024	2231.6638	1520.95	638.75
952.1578	2233.1397	1517.8	633.8
952.2916	2234.6149	1521.05	639.9
952.4253	2236.0894	1518.4	638.2
952.559	2237.5632	1529.55	640
952.6927	2239.0362	1511.3	629.25
952.8263	2240.5085	1506.4	627.45
952.9599	2241.9801	1511.05	628.5
953.0935	2243.4509	1502.9	623.3
953.2271	2244.921	1501.7	620
953.3606	2246.3904	1498.35	616.5
953.4941	2247.8591	1500.1	620.35
953.6276	2249.3271	1490.1	609.8
953.7611	2250.7943	1492.85	612.3
953.8945	2252.2608	1484.55	605.05
954.0279	2253.7266	1484.45	605.65
954.1612	2255.1917	1486.4	607.5
954.2946	2256.656	1485.8	604.1
954.4279	2258.1197	1483.2	603.05
954.5612	2259.5826	1485.9	603.35
954.6944	2261.0447	1482.3	601.35
954.8276	2262.5062	1469.9	588.4
954.9608	2263.9669	1476.55	593.8
955.094	2265.4269	1478.3	597.1
955.2271	2266.8862	1468.85	589.55
955.3602	2268.3448	1478.45	597.05
955.4933	2269.8026	1476.9	595.85
955.6264	2271.2598	1471.3	591.35
955.7594	2272.7162	1469.25	590.55
955.8924	2274.1719	1471.4	589.35
956.0253	2275.6268	1468.15	588.1
956.1583	2277.0811	1470.65	591.35
956.2912	2278.5346	1462.3	583
956.4241	2279.9874	1469.1	587.75
956.5569	2281.4395	1461.85	582
956.6897	2282.8908	1463.05	577.35
956.8225	2284.3414	1459.4	578.55
956.9553	2285.7914	1456.35	575.3
957.088	2287.2406	1458.15	577.75
957.2207	2288.689	1458.25	577.9
957.3534	2290.1368	1457.4	576.6
957.486	2291.5838	1455.4	574.95
957.6186	2293.0302	1452.4	570.75
957.7512	2294.4758	1450.55	570.6
957.8838	2295.9206	1445.65	564.3
958.0163	2297.3648	1446.15	565.75
958.1488	2298.8082	1442.8	562.15
958.2813	2300.251	1436.65	556.55
958.4137	2301.693	1446.1	563.35
958.5461	2303.1343	1434.1	554
958.6785	2304.5748	1435	555.05
958.8108	2306.0147	1428.75	548.95
958.9432	2307.4538	1435.7	551.85
959.0754	2308.8922	1427.45	547.3
959.2077	2310.3299	1430.05	550.15
959.3399	2311.7669	1429.35	550.95
959.4721	2313.2031	1430.75	549.5
959.6043	2314.6387	1421.1	539.35
959.7365	2316.0735	1421.1	541.35
959.8686	2317.5076	1417.1	535.55
960.0006	2318.941	1417.85	536.75
960.1327	2320.3737	1411.85	530
960.2647	2321.8056	1419.85	536.4
960.3967	2323.2369	1417.45	537.55
960.5287	2324.6674	1410.2	526.35
960.6606	2326.0972	1413.15	529.4
960.7925	2327.5263	1409.7	529.95
960.9244	2328.9547	1416.35	535.5
961.0562	2330.3823	1417.6	537.1
961.1881	2331.8092	1413.7	531.95
961.3198	2333.2355	1411.1	529.8
961.4516	2334.661	1400.35	518.55
961.5833	2336.0858	1403.4	521.35
961.715	2337.5098	1408	528.45
961.8467	2338.9332	1402.5	521.45
961.9783	2340.3558	1403.2	517.15
962.1099	2341.7778	1398.9	518.05
962.2415	2343.199	1400.2	518.8
962.373	2344.6195	1395.7	515.7
962.5045	2346.0393	1397.6	519.1
962.636	2347.4583	1401.45	517.8
962.7675	2348.8767	1390	508.25
962.8989	2350.2943	1392.6	512.4
963.0303	2351.7113	1388.5	506.7
963.1617	2353.1275	1390.95	512.35
963.293	2354.543	1419.9	513.4
963.4243	2355.9578	1390.65	511.7
963.5556	2357.3718	1386.15	504.6
963.6868	2358.7852	1383.4	499.6
963.818	2360.1978	1391.05	509.85
963.9492	2361.6098	1381.65	501.6
964.0803	2363.021	1386.45	504
964.2114	2364.4315	1381.5	502.2
964.3425	2365.8413	1385.3	502.55
964.4736	2367.2504	1376.95	498.05
964.6046	2368.6587	1377.25	495.75
964.7356	2370.0664	1370.85	491.9
964.8666	2371.4733	1368.65	488.55
964.9975	2372.8795	1368.2	489.1
965.1284	2374.285	1370.65	491.15
965.2593	2375.6899	1364.65	486.85
965.3901	2377.0939	1368.9	488.55
965.5209	2378.4973	1357.2	478.55
965.6517	2379.9	1356.8	475.05
965.7825	2381.3019	1355.15	477.2
965.9132	2382.7032	1358.45	479.7
966.0439	2384.1037	1355.15	476.15
966.1745	2385.5035	1358.7	479.9
966.3051	2386.9027	1345.65	466.85
966.4357	2388.3011	1352.8	471.4
966.5663	2389.6987	1349.45	470.25
966.6968	2391.0957	1347.25	467.7
966.8273	2392.492	1347.7	468.85
966.9578	2393.8876	1337.9	456.65
967.0882	2395.2824	1337.2	457.65
967.2186	2396.6765	1334.65	455.2
967.349	2398.07	1343.2	463.7
967.4793	2399.4627	1333.45	452.05
967.6097	2400.8547	1333	452.5
967.7399	2402.246	1341.55	457
967.8702	2403.6366	1333.6	455.7
968.0004	2405.0265	1333.35	455.55
968.1306	2406.4156	1333.65	452.2
968.2607	2407.8041	1333.4	451.05
968.3909	2409.1918	1330.95	450.15
968.521	2410.5789	1322.75	442.15
968.651	2411.9652	1333.4	449.45
968.781	2413.3508	1330.1	450.5
968.911	2414.7358	1326.6	446.55
969.041	2416.12	1331	452.6
969.1709	2417.5035	1332.5	455.55
969.3008	2418.8863	1322.35	440.6
969.4307	2420.2684	1328.05	448.4
969.5606	2421.6497	1323.75	443.35
969.6904	2423.0304	1323.15	444.9
969.8201	2424.4104	1318.85	438.5
969.9499	2425.7896	1328.45	446.3
970.0796	2427.1682	1314.5	437.15
970.2093	2428.546	1315.3	433.05
970.3389	2429.9232	1309.9	428.85
970.4685	2431.2996	1310.4	430.6
970.5981	2432.6753	1310.8	431.15
970.7277	2434.0503	1307.7	428.5
970.8572	2435.4246	1302.2	423.2
970.9867	2436.7982	1308.9	427.8
971.1161	2438.1711	1301.5	423.45
971.2456	2439.5433	1297.75	418.15
971.375	2440.9148	1303.6	417.95
971.5043	2442.2856	1304.15	426.6
971.6336	2443.6557	1298.65	415.8
971.7629	2445.025	1300.9	421.9
971.8922	2446.3937	1294.85	413.8
972.0214	2447.7617	1300.2	420.75
972.1506	2449.1289	1293.05	414.55
972.2798	2450.4955	1292.8	409.9
972.4089	2451.8613	1290	413.35
972.538	2453.2265	1296.25	417.85
972.6671	2454.5909	1292.8	412.85
972.7961	2455.9546	1294.15	416.5
972.9251	2457.3177	1298.8	420.5
973.0541	2458.68	1287.4	405.35
973.1831	2460.0416	1290.85	411.85
973.312	2461.4025	1289.85	409.8
973.4408	2462.7627	1299.4	407.35
973.5697	2464.1222	1283.7	405.5
973.6985	2465.4811	1291.35	409.55
973.8273	2466.8392	1288.55	407.65
973.956	2468.1966	1286.6	404.1
974.0847	2469.5533	1286.4	406.05
974.2134	2470.9093	1280.3	399.55
974.3421	2472.2645	1286	404.55
974.4707	2473.6191	1287.8	407
974.5993	2474.973	1281.8	403.55
974.7278	2476.3262	1288.3	405.2
974.8563	2477.6787	1283.9	405.2
974.9848	2479.0305	1274.5	394.25
975.1132	2480.3816	1276.5	393.95
975.2417	2481.7319	1278.2	398.25
975.37	2483.0816	1275	393.3
975.4984	2484.4306	1279	397
975.6267	2485.7789	1271.75	394.05
975.755	2487.1264	1275.2	393.15
975.8833	2488.4733	1272.35	393.5
976.0115	2489.8195	1292.4	394.65
976.1397	2491.165	1272.25	390.25
976.2678	2492.5097	1270.95	389.05
976.3959	2493.8538	1261.3	381.45
976.524	2495.1972	1264.35	384.85
976.6521	2496.5398	1264.3	382.45
976.7801	2497.8818	1262.6	380.6
976.9081	2499.2231	1266.55	386.8
977.036	2500.5637	1262.85	381.75
977.164	2501.9035	1257.75	375.75
977.2918	2503.2427	1259.1	376.2
977.4197	2504.5812	1258.5	378
977.5475	2505.919	1264.1	383.8
977.6753	2507.256	1259.25	380.2
977.8031	2508.5924	1258.45	378.75
977.9308	2509.9281	1259.3	373.85
978.0585	2511.2631	1251.75	372.9
978.1861	2512.5974	1249.05	369.75
978.3137	2513.9309	1254.1	372.9
978.4413	2515.2638	1275.6	360.9
978.5689	2516.596	1252.95	374.55
978.6964	2517.9275	1248.2	367.9
978.8239	2519.2583	1248.05	368.5
978.9513	2520.5884	1251.4	371.45
979.0788	2521.9178	1241.55	359.75
979.2062	2523.2465	1243.05	364.65
979.3335	2524.5745	1243.7	364.55
979.4608	2525.9018	1243.4	364.8
979.5881	2527.2284	1243.55	364.85
979.7154	2528.5543	1240.35	361.25
979.8426	2529.8796	1239.15	361.3
979.9698	2531.2041	1241.85	364.55
980.0969	2532.5279	1232.65	352.95
980.224	2533.851	1242.6	361.75
980.3511	2535.1735	1234.9	354.1
980.4781	2536.4952	1239.65	361.95
980.6052	2537.8163	1240.85	360.75
980.7321	2539.1366	1239.25	359.55
980.8591	2540.4562	1236.85	357.35
980.986	2541.7752	1236.85	354.95
981.1129	2543.0935	1230.25	350.5
981.2397	2544.411	1231.35	350.6
981.3665	2545.7279	1230.8	351.3
981.4933	2547.0441	1233.1	353.85
981.62	2548.3596	1237.8	353.6
981.7467	2549.6744	1228.85	350.95
981.8734	2550.9885	1237.55	349.4
982.0001	2552.3019	1227.5	349.6
982.1267	2553.6146	1227.95	346.9
982.2532	2554.9266	1222.45	340.3
982.3798	2556.2379	1224.8	343.7
982.5063	2557.5485	1221.85	343.15
982.6327	2558.8585	1229.2	339.95
982.7592	2560.1677	1227.85	344.95
982.8856	2561.4762	1224.35	342.35
983.0119	2562.7841	1225.1	342.7
983.1383	2564.0913	1218.35	339.3
983.2646	2565.3977	1220.15	340.25
983.3908	2566.7035	1220.15	339.3
983.517	2568.0086	1217.8	336.6
983.6432	2569.313	1216.8	334.6
983.7694	2570.6167	1222.85	339.85
983.8955	2571.9197	1211.85	331.95
984.0216	2573.222	1218.85	336.95
984.1476	2574.5236	1221.1	339.55
984.2737	2575.8246	1223.6	340.5
984.3996	2577.1248	1220.2	337.85
984.5256	2578.4244	1214.8	331.5
984.6515	2579.7232	1219.8	339.95
984.7774	2581.0214	1244.85	332.8
984.9032	2582.3189	1214.3	335.1
985.029	2583.6157	1224.15	341.7
985.1548	2584.9118	1220.05	339.4
985.2806	2586.2072	1221.15	343.25
985.4063	2587.5019	1222.4	340.9
985.5319	2588.7959	1216.2	334.65
985.6576	2590.0893	1223.15	341.25
985.7832	2591.3819	1224.45	346.05
985.9087	2592.6739	1224.05	345.7
986.0343	2593.9652	1228.9	347.4
986.1597	2595.2557	1220.8	340.8
986.2852	2596.5456	1234.9	353.75
986.4106	2597.8348	1224.65	344.5
986.536	2599.1234	1221.25	342.35
986.6614	2600.4112	1230	350.65
986.7867	2601.6983	1232.65	347.75
986.912	2602.9848	1230.1	350.3
987.0372	2604.2705	1236.55	350.3
987.1624	2605.5556	1225.05	344.25
987.2876	2606.84	1227.9	344.75
987.4128	2608.1237	1233.15	351.9
987.5379	2609.4067	1233.2	352.7
987.6629	2610.689	1237.1	346.15
987.788	2611.9707	1226.2	342.45
987.913	2613.2516	1228.65	342.7
988.0379	2614.5319	1221.75	341.9
988.1629	2615.8115	1219.5	339.95
988.2878	2617.0903	1224.9	342.15
988.4126	2618.3685	1221.75	341.55
988.5375	2619.6461	1218.6	335.6
988.6622	2620.9229	1219.25	338.75
988.787	2622.199	1221.8	339.5
988.9117	2623.4745	1225.45	343.25
989.0364	2624.7493	1214.75	334.3
989.161	2626.0234	1222.95	343.7
989.2857	2627.2968	1220.1	340.05
989.4102	2628.5695	1218	336.4
989.5348	2629.8415	1221.75	341.55
989.6593	2631.1128	1217.45	334.85
989.7837	2632.3835	1221.2	340.95
989.9082	2633.6535	1221.3	338.45
990.0326	2634.9228	1224.6	344.85
990.1569	2636.1914	1227.2	345.65
990.2812	2637.4593	1227.2	345.9
990.4055	2638.7265	1222.6	341.6
990.5298	2639.9931	1215.85	336.45
990.654	2641.259	1222.4	341.7
990.7782	2642.5242	1218	338.6
990.9023	2643.7887	1215.05	334.85
991.0264	2645.0525	1211.3	331.65
991.1505	2646.3156	1216.7	335.3
991.2745	2647.5781	1208.5	328.1
991.3985	2648.8398	1210.2	329.4
991.5225	2650.1009	1217.5	327.15
991.6464	2651.3613	1216.55	336.85
991.7703	2652.6211	1210.65	331.3
991.8942	2653.8801	1208.15	330.1
992.018	2655.1385	1208.25	323.7
992.1418	2656.3961	1209.3	328.8
992.2655	2657.6531	1207.5	328.65
992.3892	2658.9094	1211.65	330.25
992.5129	2660.1651	1210.55	332.1
992.6366	2661.42	1214.15	333.55
992.7602	2662.6743	1212.65	333.2
992.8837	2663.9279	1214.15	334.25
993.0073	2665.1808	1213.25	331.6
993.1307	2666.433	1224.05	342.8
993.2542	2667.6846	1220.75	341.3
993.3776	2668.9354	1224.75	340.1
993.501	2670.1856	1216.55	335.65
993.6244	2671.4351	1223.85	343.55
993.7477	2672.6839	1225.55	342.4
993.8709	2673.9321	1222.65	343.8
993.9942	2675.1795	1228.75	348.7
994.1174	2676.4263	1225.9	344.5
994.2405	2677.6724	1233.7	353.8
994.3637	2678.9179	1233.55	354.55
994.4868	2680.1626	1236.3	357.3
994.6098	2681.4067	1234.25	353.5
994.7328	2682.6501	1231.85	352.9
994.8558	2683.8928	1233.2	351.6
994.9788	2685.1348	1230	350.95
995.1017	2686.3761	1228.15	350.8
995.2245	2687.6168	1231.4	349.75
995.3474	2688.8568	1224.55	345.65
995.4702	2690.0961	1220.5	341.55
995.5929	2691.3348	1225.35	345.3
995.7156	2692.5727	1216.95	336.4
995.8383	2693.81	1212.5	332.3
995.961	2695.0466	1212.9	335
996.0836	2696.2826	1214	333.3
996.2062	2697.5178	1218.1	334.4
996.3287	2698.7524	1218.15	337.2
996.4512	2699.9863	1221.75	338.75
996.5737	2701.2195	1214.4	334.9
996.6961	2702.452	1223.4	340.45
996.8185	2703.6839	1219.35	337.4
996.9408	2704.9151	1229.9	351.3
997.0631	2706.1456	1230.45	349.8
997.1854	2707.3755	1237.5	357.7
997.3077	2708.6046	1243.8	361.45
997.4299	2709.8331	1241	358.7
997.552	2711.0609	1253.45	372.35
997.6742	2712.2881	1261.45	378.6
997.7963	2713.5145	1269.7	387.25
997.9183	2714.7403	1272.9	394
998.0403	2715.9654	1278.55	394.25
998.1623	2717.1899	1306.4	412.5
998.2842	2718.4136	1304	424.2
998.4062	2719.6367	1315.35	436.55
998.528	2720.8591	1325.25	437.55
998.6498	2722.0809	1330.9	450.2
998.7716	2723.3019	1336.95	453.7
998.8934	2724.5223	1344.55	463.7
999.0151	2725.7421	1350.5	467.85
999.1368	2726.9611	1352.1	467.95
999.2584	2728.1795	1352.5	467.05
999.38	2729.3972	1340.95	462.25
999.5016	2730.6142	1345	452.1
999.6231	2731.8306	1327.1	445.3
999.7446	2733.0462	1311.1	429.7
999.8661	2734.2612	1304.8	417.4
999.9875	2735.4756	1283.5	399.35
1000.1089	2736.6892	1273.2	390.95
1000.2302	2737.9022	1264.65	383.9
1000.3515	2739.1145	1251.75	371.75
1000.4728	2740.3262	1251.65	362.9
1000.594	2741.5372	1235.95	356.75
1000.7152	2742.7475	1224.75	344.15
1000.8363	2743.9571	1220.7	338
1000.9575	2745.1661	1219.4	332.75
1001.0785	2746.3744	1204.05	321.1
1001.1996	2747.582	1201.85	320.75
1001.3206	2748.7889	1201	318.05
1001.4415	2749.9952	1195.1	314.6
1001.5625	2751.2008	1194.45	314.65
1001.6833	2752.4057	1188.3	306.25
1001.8042	2753.61	1186.55	304.65
1001.925	2754.8136	1187.25	304.3
1002.0458	2756.0165	1182.45	301.05
1002.1665	2757.2188	1184.15	305.1
1002.2872	2758.4204	1180.8	300.55
1002.4078	2759.6213	1184.4	299.8
1002.5285	2760.8215	1189.75	303
1002.649	2762.0211	1187.3	305.5
1002.7696	2763.22	1183.85	300.4
1002.8901	2764.4182	1184.2	301.5
1003.0106	2765.6158	1178.8	298.85
1003.131	2766.8127	1173.1	290.75
1003.2514	2768.009	1177.45	297.6
1003.3717	2769.2045	1175.15	294.45
1003.492	2770.3994	1173.3	291.6
1003.6123	2771.5936	1165.25	284.1
1003.7325	2772.7872	1166.75	289.4
1003.8527	2773.9801	1166.7	284.35
1003.9729	2775.1723	1190.6	295.4
1004.093	2776.3639	1167.1	287.25
1004.2131	2777.5548	1171.75	290
1004.3331	2778.745	1167.45	285.15
1004.4531	2779.9346	1173.95	294.25
1004.5731	2781.1235	1177.6	295.4
1004.693	2782.3117	1181.25	301.2
1004.8129	2783.4992	1179.85	300.35
1004.9328	2784.6861	1185.4	304.7
1005.0526	2785.8723	1189.5	307.15
1005.1723	2787.0579	1192.9	312.4
1005.2921	2788.2428	1204.8	325.6
1005.4118	2789.427	1207.2	325.25
1005.5314	2790.6106	1219.15	338.95
1005.651	2791.7935	1229.5	346.5
1005.7706	2792.9757	1236.2	357.2
1005.8902	2794.1573	1253.7	370.1
1006.0097	2795.3382	1261.65	381.15
1006.1291	2796.5184	1271.5	393.55
1006.2485	2797.698	1287	406.05
1006.3679	2798.8769	1297.15	415.95
1006.4873	2800.0551	1312.35	429.85
1006.6066	2801.2327	1325.8	442.95
1006.7258	2802.4096	1340.8	461.4
1006.8451	2803.5859	1359.2	478.15
1006.9642	2804.7615	1371.85	489.8
1007.0834	2805.9364	1397.5	518.95
1007.2025	2807.1106	1412.95	534.8
1007.3216	2808.2842	1442.1	560.5
1007.4406	2809.4572	1468.35	587.1
1007.5596	2810.6294	1494.25	613.15
1007.6785	2811.801	1523.65	643.2
1007.7975	2812.972	1565.85	686.5
1007.9163	2814.1423	1588.6	709.35
1008.0352	2815.3119	1633.65	751.75
1008.154	2816.4808	1661.95	782.45
1008.2727	2817.6491	1706.2	824.5
1008.3914	2818.8167	1741.3	861.65
1008.5101	2819.9837	1788.85	905.9
1008.6288	2821.15	1809.35	928.7
1008.7474	2822.3157	1842.6	964.15
1008.8659	2823.4807	1881.1	999.45
1008.9844	2824.645	1919.45	1037.3
1009.1029	2825.8086	1937.9	1057.65
1009.2214	2826.9716	1975.8	1096.85
1009.3398	2828.134	2003.3	1122.85
1009.4581	2829.2957	2032.5	1153.75
1009.5764	2830.4567	2040.5	1160.5
1009.6947	2831.617	2057.1	1176.55
1009.813	2832.7767	2062.75	1184.75
1009.9312	2833.9358	2069.35	1189
1010.0493	2835.0941	2056	1174.35
1010.1675	2836.2519	2065.45	1182.75
1010.2855	2837.4089	2051.05	1171.8
1010.4036	2838.5653	2034.8	1152.9
1010.5216	2839.7211	2040.65	1162.5
1010.6396	2840.8761	2050.85	1167.2
1010.7575	2842.0306	2068.7	1190.8
1010.8754	2843.1843	2087.7	1206.55
1010.9932	2844.3374	2142.75	1264.4
1011.111	2845.4899	2176.7	1297.5
1011.2288	2846.6417	2245.6	1364.75
1011.3465	2847.7928	2294.85	1413.65
1011.4642	2848.9433	2355.95	1475.7
1011.5818	2850.0931	2425.65	1544.55
1011.6995	2851.2422	2489.3	1606.25
1011.817	2852.3907	2531.85	1652.4
1011.9345	2853.5385	2591.4	1706.4
1012.052	2854.6857	2661.6	1754.3
1012.1695	2855.8323	2681.85	1803.1
1012.2869	2856.9781	2711.7	1832.75
1012.4042	2858.1233	2747.1	1868.85
1012.5216	2859.2679	2781.05	1900.05
1012.6389	2860.4118	2822.1	1942.35
1012.7561	2861.555	2861.55	1977.3
1012.8733	2862.6976	2871.35	1989
1012.9905	2863.8395	2903.3	2024.2
1013.1076	2864.9808	2921.75	2042.55
1013.2247	2866.1214	2919.95	2040.1
1013.3417	2867.2614	2936.25	2054.65
1013.4587	2868.4007	2957.15	2075.1
1013.5757	2869.5393	2957.45	2076.75
1013.6926	2870.6773	2979.9	2098.25
1013.8095	2871.8146	2992.85	2108.5
1013.9263	2872.9513	2987.2	2106.2
1014.0431	2874.0874	2988.75	2107.5
1014.1599	2875.2227	2972.65	2091.4
1014.2766	2876.3574	2961.2	2079.35
1014.3933	2877.4915	2941.5	2060.4
1014.51	2878.6249	2939.4	2060.65
1014.6266	2879.7577	2921.35	2039.55
1014.7431	2880.8898	2904.8	2013.05
1014.8596	2882.0212	2877.4	1996.65
1014.9761	2883.152	2874.15	1993.45
1015.0925	2884.2821	2860.35	1980.8
1015.2089	2885.4116	2853.2	1973.45
1015.3253	2886.5405	2858.25	1978.2
1015.4416	2887.6686	2867.2	1984.25
1015.5579	2888.7962	2871.3	1992.15
1015.6741	2889.923	2876.45	1996.2
1015.7903	2891.0493	2888.75	2008.6
1015.9065	2892.1748	2893.25	2013.25
1016.0226	2893.2997	2902.45	2021.8
1016.1387	2894.424	2921.35	2041.3
1016.2547	2895.5476	2944.1	2065.15
1016.3707	2896.6706	2958.4	2079.1
1016.4866	2897.7929	2969.35	2087.55
1016.6025	2898.9145	2997.75	2116.6
1016.7184	2900.0355	3010.45	2129.3
1016.8342	2901.1559	3040.95	2158.3
1016.95	2902.2756	3070.3	2190.45
1017.0658	2903.3946	3079.8	2200
1017.1815	2904.513	3117.45	2234
1017.2971	2905.6308	3138.3	2258.3
1017.4127	2906.7479	3157.15	2278
1017.5283	2907.8643	3178.05	2298.3
1017.6439	2908.9801	3189.95	2310.35
1017.7594	2910.0953	3189.25	2308.95
1017.8748	2911.2098	3197.3	2313.7
1017.9902	2912.3236	3197.85	2309.75
1018.1056	2913.4368	3187.05	2302.75
1018.2209	2914.5494	3172.4	2293.5
1018.3362	2915.6613	3142.3	2255.35
1018.4515	2916.7725	3123.85	2241.6
1018.5667	2917.8831	3116.1	2236.15
1018.6819	2918.9931	3090.85	2208.5
1018.797	2920.1024	3070.7	2189.15
1018.9121	2921.211	3042.45	2162.5
1019.0271	2922.319	3029.05	2149.5
1019.1421	2923.4264	3025.6	2146.7
1019.2571	2924.5331	3014.35	2135.75
1019.372	2925.6391	3000.6	2120.95
1019.4869	2926.7445	2989.55	2108.1
1019.6017	2927.8493	2981.45	2103.45
1019.7165	2928.9534	2979.1	2098.85
1019.8313	2930.0569	2980.9	2097.55
1019.946	2931.1597	2962.45	2080.15
1020.0606	2932.2619	2965.75	2083.95
1020.1753	2933.3634	2960.2	2077.3
1020.2899	2934.4643	2948.45	2061.9
1020.4044	2935.5645	2929.2	2042.2
1020.5189	2936.6641	2895.5	2011.1
1020.6334	2937.763	2865.1	1985.2
1020.7478	2938.8613	2831.2	1949.4
1020.8622	2939.959	2782.7	1897.45
1020.9765	2941.056	2712.75	1834.95
1021.0908	2942.1523	2664.3	1783.7
1021.2051	2943.248	2596.75	1715.8
1021.3193	2944.3431	2523.4	1644.15
1021.4334	2945.4375	2440.65	1560.3
1021.5476	2946.5313	2369.1	1491.3
1021.6617	2947.6244	2290.15	1410.65
1021.7757	2948.7169	2215.2	1332.8
1021.8897	2949.8087	2143.6	1262.3
1022.0037	2950.8999	2074.4	1194.75
1022.1176	2951.9904	2016.05	1136.55
1022.2315	2953.0803	1954.3	1072
1022.3453	2954.1696	1897.9	1017.6
1022.4591	2955.2582	1865.2	985.45
1022.5728	2956.3462	1837.15	958.85
1022.6865	2957.4335	1819.85	940.6
1022.8002	2958.5202	1783	900.85
1022.9138	2959.6062	1753.4	874.85
1023.0274	2960.6916	1750.85	870.65
1023.141	2961.7764	1722.65	841.1
1023.2545	2962.8605	1717.15	835.9
1023.3679	2963.9439	1707	826.05
1023.4813	2965.0267	1704.7	821.55
1023.5947	2966.1089	1722.65	819.75
1023.708	2967.1905	1690	810.9
1023.8213	2968.2714	1692.6	812.85
1023.9346	2969.3516	1679.85	801.05
1024.0478	2970.4312	1699.6	813.35
1024.1609	2971.5102	1690	811.7
1024.274	2972.5885	1696.45	818.65
1024.3871	2973.6662	1701.95	816.95
1024.5002	2974.7432	1689.05	808.7
1024.6132	2975.8196	1686.3	804.9
1024.7261	2976.8954	1681.1	801.55
1024.839	2977.9705	1668	788.85
1024.9519	2979.045	1668.45	788.6
1025.0647	2980.1188	1646.85	765.45
1025.1775	2981.192	1631.5	751.15
1025.2902	2982.2645	1616.6	734.9
1025.4029	2983.3364	1591.5	711.45
1025.5156	2984.4077	1578	698.9
1025.6282	2985.4783	1554.05	670
1025.7407	2986.5483	1521.45	641.8
1025.8532	2987.6177	1494.85	617.1
1025.9657	2988.6864	1474.2	592.95
1026.0782	2989.7545	1454.55	571.75
1026.1906	2990.8219	1422.45	542.75
1026.3029	2991.8887	1405.7	526
1026.4152	2992.9548	1385	505.3
1026.5275	2994.0204	1352.8	474.75
1026.6397	2995.0852	1333.05	455.35
1026.7519	2996.1495	1316.55	435.45
1026.864	2997.2131	1296.85	416.95
1026.9761	2998.276	1287.15	405.95
1027.0882	2999.3383	1268	388.05
1027.2002	3000.4	1255	376.85
1027.3122	3001.4611	1249.7	367.9
1027.4241	3002.5215	1235.15	354.9
1027.536	3003.5812	1221.65	341.85
1027.6478	3004.6404	1218.25	336.55
1027.7596	3005.6989	1212.7	330.45
1027.8714	3006.7567	1200.35	320.4
1027.9831	3007.8139	1216.6	312.15
1028.0947	3008.8705	1193.75	313.3
1028.2064	3009.9264	1190.95	308.1
1028.3179	3010.9818	1182.1	302.25
1028.4295	3012.0364	1185	302.75
1028.541	3013.0905	1183.75	303.85
1028.6524	3014.1439	1179.25	298.35
1028.7638	3015.1966	1182.65	301.65
1028.8752	3016.2487	1181.55	301.15
1028.9865	3017.3002	1179.35	294.95
1029.0978	3018.3511	1179.75	300.4
1029.209	3019.4013	1174.85	296.45
1029.3202	3020.4509	1177.9	297.7
1029.4314	3021.4998	1184.35	304.45
1029.5425	3022.5481	1183.55	303.2
1029.6535	3023.5958	1182.6	303.2
1029.7645	3024.6428	1185.1	304.9
1029.8755	3025.6892	1183.75	303.85
1029.9864	3026.735	1188.95	309.55
1030.0973	3027.7802	1190.65	310.25
1030.2082	3028.8247	1194	314.7
1030.319	3029.8685	1193.85	314.5
1030.4297	3030.9118	1201.65	320
1030.5404	3031.9544	1207.2	330.35
1030.6511	3032.9963	1209.9	330.45
1030.7617	3034.0376	1213.8	332.05
1030.8723	3035.0783	1217	336.25
1030.9829	3036.1184	1220.7	338.3
1031.0934	3037.1578	1223.3	343.5
1031.2038	3038.1966	1227.25	346.25
1031.3142	3039.2348	1221.4	341.9
1031.4246	3040.2723	1234.95	347.5
1031.5349	3041.3092	1220.9	342
1031.6452	3042.3455	1221.35	341.05
1031.7554	3043.3811	1213.25	333.25
1031.8656	3044.4161	1211.1	330.4
1031.9758	3045.4505	1211.6	334.1
1032.0859	3046.4842	1215.65	335.2
1032.1959	3047.5173	1196.8	317.45
1032.3059	3048.5498	1196.25	317.2
1032.4159	3049.5816	1186.75	304.65
1032.5258	3050.6128	1189.15	307.05
1032.6357	3051.6434	1188.55	307.4
1032.7455	3052.6734	1180.35	298.5
1032.8553	3053.7027	1176.85	298.6
1032.9651	3054.7314	1164.7	285.3
1033.0748	3055.7594	1163.7	284.5
1033.1845	3056.7868	1157.4	276.6
1033.2941	3057.8136	1156.35	276.1
1033.4037	3058.8398	1155.8	278.15
1033.5132	3059.8653	1144.85	263.8
1033.6227	3060.8902	1139.6	261.5
1033.7321	3061.9145	1146	265.4
1033.8415	3062.9381	1139.8	260.6
1033.9509	3063.9612	1147.35	251.5
1034.0602	3064.9835	1125.95	245.8
1034.1694	3066.0053	1119.5	238.65
1034.2787	3067.0264	1118.7	239.75
1034.3878	3068.0469	1109.6	229.1
1034.497	3069.0668	1111	226.2
1034.6061	3070.086	1097.05	216.85
1034.7151	3071.1046	1097.2	215.15
1034.8241	3072.1226	1090.7	211.1
1034.9331	3073.1399	1077.25	197.35
1035.042	3074.1567	1074.65	195.85
1035.1508	3075.1727	1067.2	185
1035.2597	3076.1882	1060.1	181.7
1035.3684	3077.203	1055.6	174.3
1035.4772	3078.2173	1050.2	169.45
1035.5859	3079.2308	1048	166.6
1035.6945	3080.2438	1036.65	153.4
1035.8031	3081.2561	1031.45	151.2
1035.9117	3082.2678	1025.65	145.35
1036.0202	3083.2789	1019.9	139.4
1036.1286	3084.2893	1017.8	139.85
1036.2371	3085.2991	1011.2	131.55
1036.3454	3086.3083	1012.2	128.9
1036.4538	3087.3169	1007.3	127.5
1036.562	3088.3248	1001.95	119.15
1036.6703	3089.3321	1002.45	120.7
1036.7785	3090.3388	994.25	115.25
1036.8866	3091.3449	990.6	109.75
1036.9948	3092.3503	994.45	111.7
1037.1028	3093.3551	985.45	108.3
1037.2108	3094.3593	981.8	103.45
1037.3188	3095.3629	983.1	104.6
1037.4267	3096.3658	980.6	99.8
1037.5346	3097.3681	978.5	99.15
1037.6425	3098.3698	978.95	96.25
1037.7503	3099.3708	981.65	95.6
1037.858	3100.3713	976.25	96.7
1037.9657	3101.3711	972.45	91
1038.0734	3102.3702	1113.45	92.4
1038.181	3103.3688	972.3	88.85
1038.2886	3104.3667	965.95	86.3
1038.3961	3105.364	968.9	89.7
1038.5036	3106.3607	970.5	89.4
1038.611	3107.3568	968.35	87.7
1038.7184	3108.3522	960.1	80.35
1038.8257	3109.347	960.55	79.4
1038.933	3110.3412	966.45	81.45
1039.0403	3111.3348	959.9	80.15
1039.1475	3112.3277	959.2	80.1
1039.2547	3113.32	957.95	79
1039.3618	3114.3117	961.1	79.8
1039.4689	3115.3028	957.35	76.65
1039.5759	3116.2932	959.35	77.6
1039.6829	3117.2831	962.05	76.65
1039.7898	3118.2723	958	76.85
1039.8967	3119.2608	953.25	73.75
1040.0035	3120.2488	951.4	72.05
1040.1103	3121.2361	952.65	71.65
1040.2171	3122.2229	950.85	71.5
1040.3238	3123.209	950.25	68.45
1040.4305	3124.1944	951.3	71.8
1040.5371	3125.1793	950.35	69.85
1040.6437	3126.1635	950.2	71.9
1040.7502	3127.1471	948.1	68.8
1040.8567	3128.1301	947.9	70.55
1040.9631	3129.1125	947.3	68.2
1041.0695	3130.0942	945.55	65.05
1041.1759	3131.0753	956.2	67.65
1041.2822	3132.0558	949.6	66.25
1041.3884	3133.0357	947.7	67.85
1041.4946	3134.015	945.3	63.5
1041.6008	3134.9936	943.65	61.7
1041.7069	3135.9716	961.6	61.95
1041.813	3136.949	942.5	63.3
1041.919	3137.9258	963.15	64.4
1042.025	3138.902	945.15	60.5
1042.1309	3139.8775	940.55	61.8
1042.2368	3140.8524	936.05	56.2
1042.3427	3141.8267	940	60
1042.4485	3142.8004	940.85	60.75
1042.5542	3143.7735	947.3	60.95
1042.6599	3144.7459	941.1	58.6
1042.7656	3145.7178	936.95	54.35
1042.8712	3146.689	934.35	54.6
1042.9768	3147.6596	934.55	54.1
1043.0823	3148.6295	934.75	55.6
1043.1878	3149.5989	935.45	56.6
1043.2932	3150.5676	934	57.15
1043.3986	3151.5357	929.85	52.45
1043.5039	3152.5032	932.35	54.2
1043.6092	3153.4701	931.7	53.4
1043.7145	3154.4364	935.55	53.1
1043.8197	3155.402	933.85	55.35
1043.9248	3156.367	931.65	49.85
1044.03	3157.3315	965.4	50.9
1044.135	3158.2952	928.6	48.8
1044.24	3159.2584	929.85	50.1
1044.345	3160.221	928.7	48.05
1044.4499	3161.1829	929.4	49.55
1044.5548	3162.1442	929.25	50.45
1044.6596	3163.105	926.35	47.4
1044.7644	3164.065	927.8	46.6
1044.8692	3165.0245	929.35	47.7
1044.9739	3165.9834	926.6	50.55
1045.0785	3166.9416	924.4	45
1045.1831	3167.8993	926.55	44.95
1045.2877	3168.8563	928.05	46
1045.3922	3169.8127	924.55	45.5
1045.4966	3170.7684	922.55	45.3
1045.6011	3171.7236	922.7	43.15
1045.7054	3172.6782	925.05	44.75
1045.8098	3173.6321	924.3	44.2
1045.914	3174.5854	929	44.6
1046.0183	3175.5381	925	46
1046.1224	3176.4902	922.65	42.6
1046.2266	3177.4417	922.7	42.25
1046.3307	3178.3926	919.75	40.95
1046.4347	3179.3428	922.45	44.4
1046.5387	3180.2924	920.55	43.1
1046.6427	3181.2415	920.7	42.45
1046.7466	3182.1899	921.9	42.1
1046.8504	3183.1377	920.65	41.8
1046.9542	3184.0848	923.3	41.55
1047.058	3185.0314	921.95	42.3
1047.1617	3185.9773	919.2	40.6
1047.2654	3186.9227	922.85	42.9
1047.369	3187.8674	919.7	40.05
1047.4726	3188.8115	921.1	35.25
1047.5761	3189.755	916.15	37.5
1047.6796	3190.6979	917.5	39.3
1047.783	3191.6402	919.15	39.5
1047.8864	3192.5818	917.9	37.8
1047.9898	3193.5229	948.6	41.2
1048.0931	3194.4633	919.35	39.8
1048.1963	3195.4031	919.1	40.75
1048.2995	3196.3423	917.4	36.65
1048.4027	3197.2809	918.15	39.85
1048.5058	3198.2189	915.2	32.55
1048.6089	3199.1563	934.95	37
1048.7119	3200.0931	915.8	38.9
1048.8148	3201.0292	917.15	36.5
1048.9178	3201.9648	915.95	37
1049.0206	3202.8997	917.95	35.85
1049.1235	3203.834	918.5	38.65
1049.2262	3204.7677	913.55	36.5
1049.329	3205.7008	914.2	31.5
1049.4317	3206.6333	911.5	33.4
1049.5343	3207.5652	915.1	33
1049.6369	3208.4964	913.1	34.55
1049.7394	3209.4271	913.6	35.45
1049.8419	3210.3571	913.05	33.45
1049.9444	3211.2865	914.85	33
1050.0468	3212.2154	913.85	31.35
1050.1491	3213.1436	916.4	33.55
1050.2514	3214.0712	919	33.45
1050.3537	3214.9982	913.95	33.95
1050.4559	3215.9246	912.45	33.1
1050.5581	3216.8503	913.2	32.8
1050.6602	3217.7755	913.9	33.4
1050.7623	3218.7001	910.45	30.3
1050.8643	3219.624	912.15	33.9
1050.9663	3220.5473	912.05	35.2
1051.0682	3221.4701	910.8	31.8
1051.1701	3222.3922	912.75	32.65
1051.2719	3223.3137	910.35	34.05
1051.3737	3224.2346	913.15	32.5
1051.4754	3225.1549	910.55	29.7
1051.5771	3226.0746	912.05	31.5
1051.6788	3226.9937	909.6	30.05
1051.7804	3227.9121	907.6	30.05
1051.8819	3228.83	910.7	30.4
1051.9834	3229.7473	910.7	32.6
1052.0849	3230.6639	909.2	30.1
1052.1863	3231.5799	909	29.3
1052.2876	3232.4954	911.6	31.9
1052.3889	3233.4102	910.05	31.4
1052.4902	3234.3244	910.1	29.2
1052.5914	3235.238	910.6	30.8
1052.6926	3236.151	935.4	31.65
1052.7937	3237.0634	906.55	29.95
1052.8948	3237.9752	907.85	28.2
1052.9958	3238.8864	909.6	30.7
1053.0968	3239.797	907.95	28.4
1053.1977	3240.7069	909.5	29.25
1053.2986	3241.6163	909.4	29.1
1053.3994	3242.5251	908.25	28.65
1053.5002	3243.4332	906.8	26.25
1053.6009	3244.3408	907.1	26.9
1053.7016	3245.2477	907.95	27.9
1053.8022	3246.154	908.8	28.75
1053.9028	3247.0598	907.45	27.75
1054.0034	3247.9649	907.85	30
1054.1039	3248.8694	907.3	27.4
1054.2043	3249.7733	908.3	28.1
1054.3047	3250.6766	904.3	24.85
1054.4051	3251.5793	903.6	22.3
1054.5054	3252.4814	905.25	26.45
1054.6056	3253.3829	902.75	23
1054.7058	3254.2838	907.8	30.55
1054.806	3255.1841	904.75	25.2
1054.9061	3256.0838	904.3	26.35
1055.0061	3256.9829	902.65	23.55
1055.1062	3257.8814	905.75	25.55
1055.2061	3258.7792	903.7	23.05
1055.306	3259.6765	903.95	24.5
1055.4059	3260.5731	900	22.95
1055.5057	3261.4692	901.4	21.1
1055.6055	3262.3647	903.85	24.85
1055.7052	3263.2595	900.8	20.55
1055.8049	3264.1538	899.45	21.95
1055.9045	3265.0474	900	18
1056.0041	3265.9404	903.35	24.65
1056.1036	3266.8329	898.1	20.95
1056.2031	3267.7247	910.4	21.6
1056.3025	3268.616	895.9	15.85
1056.4019	3269.5066	897.45	18
1056.5013	3270.3966	901.1	19.15
1056.6005	3271.286	898.5	22.55
