Software Version:	3.9.2.0
Unit SN:	10000200
Spectrometer SN:	6960
Date:	3/14/2024 1:56:00 PM
Data Line Index:	25
Spectral Points:	2048
Integration time (ms):	125
Averages:	20
Delay (ms):	30000
Sequence Number:	1
Processing:	dark subtract
Laser Power (mW):	300
Laser Current (mA):	824
Laser Diode Temp (C):	25.1
Laser Case Temp (C):	28.9
System Temp (C):	28.9
Spectrometer Temp (C):	26.8
CCD Temp (C):	0.007
Secondary Temp (C):	20.006
Heatsink Temp (C):	24.796
CCDPCB Temp (C):	38.286
SecondaryPCB Temp (C):	35.918

Wavelength	RamanShift	Raw Counts	Dark Subtracted
787.061	30.1047	465.35	57.05
787.2016	32.3739	465.65	59.6
787.3422	34.6426	468.3	59.8
787.4828	36.9109	477.25	65.95
787.6235	39.1787	483.3	68.35
787.7642	41.4461	496.3	77.05
787.9049	43.7131	506.05	84.3
788.0456	45.9796	511.05	84.05
788.1863	48.2456	526.15	95.8
788.3271	50.5112	531.5	96.9
788.4679	52.7764	545.45	107.55
788.6087	55.0411	555.8	117.1
788.7496	57.3054	567.35	122.8
788.8904	59.5692	574.8	124.75
789.0313	61.8326	587.1	134.45
789.1722	64.0955	601.9	145.6
789.3132	66.3579	618.9	157.2
789.4541	68.6199	641.05	174.8
789.5951	70.8815	675.6	207.75
789.7361	73.1426	757.35	286.6
789.8771	75.4032	950.25	472.95
790.0181	77.6634	1451.65	969.8
790.1592	79.9231	2633	2147.4
790.3003	82.1824	5239.75	4744.2
790.4414	84.4412	10034.1	9522.3
790.5825	86.6995	16826.95	16296.45
790.7237	88.9574	23696.1	23150.1
790.8648	91.2148	28603.9	28044.1
791.006	93.4717	30993.3	30426.3
791.1472	95.7282	31641.95	31070.7
791.2885	97.9842	31705.7	31129
791.4297	100.2398	31244.55	30665.7
791.571	102.4949	30713.75	30132.2
791.7123	104.7495	30005.4	29421.1
791.8536	107.0036	29155.85	28570
791.9949	109.2573	28359.3	27775.1
792.1363	111.5105	27578.55	26992.7
792.2777	113.7632	26875.65	26288.25
792.4191	116.0154	26187.2	25588.8
792.5605	118.2672	25699.65	25108.75
792.7019	120.5185	25172.25	24581.25
792.8434	122.7693	24806.3	24210.25
792.9849	125.0197	24494.45	23897.15
793.1264	127.2696	24211.25	23608.5
793.2679	129.519	24066.4	23463.15
793.4094	131.7679	23881.65	23277.95
793.551	134.0163	23741.35	23130.05
793.6926	136.2642	23556.85	22940.8
793.8342	138.5117	23383.6	22758.8
793.9758	140.7587	23178.5	22559.6
794.1175	143.0052	22961.2	22340.4
794.2591	145.2512	22762.8	22140.3
794.4008	147.4967	22531.3	21911.35
794.5425	149.7417	22407.05	21781.55
794.6842	151.9863	22286.45	21658.5
794.826	154.2304	22244.7	21616.15
794.9677	156.4739	22055.1	21418.35
795.1095	158.717	22003.25	21366.3
795.2513	160.9596	21823.4	21181.55
795.3931	163.2017	21574.2	20931.3
795.535	165.4433	21262.75	20620.5
795.6768	167.6844	20892.55	20246.1
795.8187	169.925	20553.4	19902.35
795.9606	172.1651	20156.35	19502.65
796.1025	174.4047	19838.2	19182.65
796.2445	176.6439	19561.3	18902.1
796.3864	178.8825	19311.05	18651.45
796.5284	181.1206	19185.1	18522.75
796.6704	183.3582	18961.5	18293.2
796.8124	185.5954	18840.4	18172.9
796.9544	187.832	18698.9	18026.8
797.0965	190.0681	18651	17977.15
797.2386	192.3037	18632.65	17955.4
797.3806	194.5388	18604.65	17923.5
797.5228	196.7734	18634.45	17952.3
797.6649	199.0075	18693.25	18008.8
797.807	201.2411	18843.8	18153.5
797.9492	203.4742	18887.15	18195.1
798.0914	205.7068	19037.4	18345.8
798.2336	207.9389	19100.35	18408.5
798.3758	210.1704	19270.65	18576.7
798.518	212.4015	19367.2	18670.9
798.6603	214.632	19525.65	18828.5
798.8025	216.862	19734.35	19042.2
798.9448	219.0915	19871.2	19189
799.0871	221.3205	20108.45	19429
799.2294	223.549	20395.4	19721.2
799.3718	225.777	20769.85	20094
799.5141	228.0044	21146.2	20470.45
799.6565	230.2314	21672.4	20998.2
799.7989	232.4578	22152.8	21476.55
799.9413	234.6837	22552.05	21865.75
800.0837	236.909	22793.15	22107.75
800.2262	239.1339	22751.35	22041.05
800.3687	241.3582	22476.45	21781.2
800.5111	243.582	22097.65	21376.75
800.6536	245.8053	21654.55	20941.65
800.7961	248.0281	21242.25	20534.5
800.9387	250.2503	20943.95	20231.9
801.0812	252.472	20743.1	20025.85
801.2238	254.6932	20643.35	19921.2
801.3664	256.9139	20527.4	19806.7
801.509	259.134	20447.15	19720
801.6516	261.3536	20389.4	19669.95
801.7942	263.5727	20364.7	19640.4
801.9369	265.7912	20238.05	19512.45
802.0795	268.0092	20219.5	19496.05
802.2222	270.2267	20108.7	19380.35
802.3649	272.4436	20030.25	19302.7
802.5076	274.6601	19973.35	19236.75
802.6504	276.8759	19879.2	19149.25
802.7931	279.0913	19876.35	19141.6
802.9359	281.3061	19861.35	19123.95
803.0787	283.5204	19920.45	19186.15
803.2215	285.7341	20028.15	19290.45
803.3643	287.9473	20219.25	19469.55
803.5071	290.16	20457.85	19709.35
803.6499	292.3721	20833.55	20091.55
803.7928	294.5837	21274.35	20528.95
803.9357	296.7947	21612.75	20871.8
804.0786	299.0052	21812.75	21069.85
804.2215	301.2152	21655.85	20911.95
804.3644	303.4246	21259.3	20519.9
804.5074	305.6334	20631.4	19887.8
804.6503	307.8418	20045.8	19302.05
804.7933	310.0495	19579.05	18831.95
804.9363	312.2568	19275.55	18530.95
805.0793	314.4635	19050.1	18306.75
805.2223	316.6696	18964.55	18217.25
805.3653	318.8752	18939.85	18186.1
805.5084	321.0802	18993.25	18242.45
805.6514	323.2847	19123.3	18371.35
805.7945	325.4887	19191.7	18442.6
805.9376	327.692	19123.2	18369.95
806.0807	329.8949	18998.45	18244.2
806.2238	332.0972	18682.75	17927.6
806.367	334.2989	18413.1	17654.7
806.5101	336.5001	18077.55	17315.95
806.6533	338.7007	17842.35	17082.35
806.7965	340.9008	17708.95	16947.95
806.9397	343.1003	17582.75	16817.75
807.0829	345.2992	17535.4	16769.55
807.2261	347.4976	17500.75	16736.1
807.3693	349.6955	17483.75	16715
807.5126	351.8927	17540.35	16771.75
807.6559	354.0895	17515.4	16735.4
807.7991	356.2856	17537.95	16767.3
807.9424	358.4812	17538.15	16768.65
808.0857	360.6763	17576.95	16804.75
808.2291	362.8707	17529.8	16758.75
808.3724	365.0646	17551.4	16776.4
808.5158	367.258	17522.9	16743.25
808.6591	369.4508	17497.95	16716.1
808.8025	371.643	17582.4	16804.05
808.9459	373.8346	17533.45	16749.45
809.0893	376.0257	17500.45	16713.55
809.2327	378.2162	17382.55	16596.25
809.3762	380.4062	17274.65	16487.25
809.5196	382.5956	17100.05	16308.6
809.6631	384.7844	16976.25	16185.5
809.8066	386.9726	16822.7	16028.25
809.9501	389.1603	16770.3	15980.4
810.0936	391.3474	16738.75	15914.9
810.2371	393.5339	16716	15928.1
810.3806	395.7199	16600.55	15815.5
810.5241	397.9052	16612.55	15830.95
810.6677	400.09	16628.7	15847.65
810.8113	402.2743	16656.05	15877.3
810.9548	404.4579	16712.7	15934.7
811.0984	406.641	16849.95	16069.95
811.2421	408.8235	17072.65	16291.7
811.3857	411.0054	17416.5	16633.5
811.5293	413.1868	17900.9	17117.25
811.673	415.3675	18254.55	17468.7
811.8166	417.5477	18485.2	17697.3
811.9603	419.7273	18534.45	17744.3
812.104	421.9064	18392.15	17595.45
812.2477	424.0848	18257.7	17466.55
812.3914	426.2627	17983.8	17186.65
812.5351	428.4399	17645	16847.15
812.6788	430.6166	17251.25	16448.5
812.8226	432.7928	16847.85	16044.1
812.9663	434.9683	16515.05	15712.45
813.1101	437.1432	16260.1	15456.6
813.2539	439.3176	16098.1	15291.2
813.3977	441.4914	15988.6	15184.8
813.5415	443.6645	15928.25	15117.3
813.6853	445.8371	15861.3	15053.2
813.8291	448.0091	15753.2	14949.2
813.973	450.1806	15702.2	14893.3
814.1168	452.3514	15616.8	14807.1
814.2607	454.5216	15597.4	14780.9
814.4046	456.6913	15519.8	14708.35
814.5485	458.8603	15525.75	14716.8
814.6924	461.0288	15599.35	14789.7
814.8363	463.1967	15626.9	14817.55
814.9802	465.3639	15736.1	14924.45
815.1241	467.5306	15824.25	15011.6
815.2681	469.6967	15990.75	15180.25
815.412	471.8622	16165.65	15352.6
815.556	474.0271	16326.5	15514.15
815.7	476.1914	16371.75	15556.2
815.844	478.3551	16351.25	15535.85
815.988	480.5182	16304.85	15489.65
816.132	482.6807	16228	15410.7
816.276	484.8426	16317.95	15504.25
816.4201	487.0039	16596.9	15782.6
816.5641	489.1647	16979.15	16162.05
816.7082	491.3248	17453.35	16634.6
816.8522	493.4843	17669.55	16855.8
816.9963	495.6432	17637.15	16821.9
817.1404	497.8015	17549.45	16728.9
817.2845	499.9592	17580.7	16765.6
817.4286	502.1163	17512.65	16694.55
817.5727	504.2728	17271.55	16451.65
817.7168	506.4287	16953.05	16132.3
817.861	508.5839	16489	15669.45
818.0051	510.7386	16090.55	15270.05
818.1493	512.8927	15915.25	15085.05
818.2935	515.0461	15707.35	14886.4
818.4377	517.199	15631.9	14811.2
818.5818	519.3512	15544.45	14721.5
818.726	521.5029	15563.35	14735.05
818.8703	523.6539	15594.85	14770.75
819.0145	525.8043	15605.65	14781.75
819.1587	527.9541	15627.55	14796.2
819.303	530.1033	15631	14803.7
819.4472	532.2519	15699.4	14875.3
819.5915	534.3999	15862.3	15035.75
819.7357	536.5472	16154.9	15328.35
819.88	538.694	16663.55	15834.45
820.0243	540.8401	17299.7	16472.05
820.1686	542.9856	17882.3	17051.8
820.3129	545.1305	18073.6	17243.5
820.4572	547.2748	17847.1	17017.4
820.6016	549.4185	17414.45	16583.85
820.7459	551.5615	16991.1	16162.3
820.8902	553.704	16816.65	15984.5
821.0346	555.8458	16726.1	15893.9
821.1789	557.987	16655.15	15823.45
821.3233	560.1276	16553.25	15718.25
821.4677	562.2675	16479.85	15648.25
821.6121	564.4069	16393.6	15561.1
821.7565	566.5456	16280.85	15450.3
821.9009	568.6837	16160.55	15329.8
822.0453	570.8212	15894.25	15060.45
822.1897	572.958	15612.9	14780.8
822.3342	575.0942	15386.4	14554.35
822.4786	577.2299	15227.1	14394.9
822.6231	579.3648	15190.9	14360
822.7675	581.4992	15307.95	14475.25
822.912	583.6329	15522.55	14690.65
823.0565	585.766	15781.05	14947.2
823.201	587.8985	15880.45	15049
823.3454	590.0304	15879.7	15020.05
823.4899	592.1616	15753.45	14919.55
823.6345	594.2922	15667.9	14833.55
823.779	596.4222	15495.95	14660.55
823.9235	598.5515	15306.55	14469
824.068	600.6802	15165	14329.8
824.2126	602.8083	14909	14073.75
824.3571	604.9358	14838.05	13997.4
824.5017	607.0626	14741.4	13904.15
824.6462	609.1888	14669.3	13829.9
824.7908	611.3144	14587.7	13749
824.9354	613.4393	14406.7	13568.95
825.08	615.5636	14263.9	13424.6
825.2246	617.6873	14129.85	13291
825.3692	619.8103	14057.6	13216.65
825.5138	621.9327	13955	13109.75
825.6584	624.0544	13911.55	13073
825.803	626.1756	13930.1	13091.4
825.9477	628.2961	13875.85	13033.7
826.0923	630.4159	13804.35	12961
826.237	632.5351	13768.5	12928.5
826.3816	634.6537	13705.15	12860.75
826.5263	636.7716	13643.95	12799.9
826.6709	638.8889	13629.8	12787.3
826.8156	641.0056	13655.95	12811.05
826.9603	643.1216	13629.25	12786.8
827.105	645.237	13629.15	12783.15
827.2497	647.3518	13633.3	12787.05
827.3944	649.4659	13651.1	12806.4
827.5391	651.5793	13652.55	12807.05
827.6838	653.6922	13621.7	12778
827.8285	655.8043	13595.15	12748.6
827.9733	657.9159	13539.05	12690.8
828.118	660.0268	13441.2	12593.85
828.2627	662.137	13379.2	12531.1
828.4075	664.2466	13322.7	12472.6
828.5522	666.3556	13300.05	12455.75
828.697	668.4639	13242.15	12392.2
828.8418	670.5716	13324.35	12477.55
828.9865	672.6786	13410.55	12560.8
829.1313	674.785	13460.4	12608.35
829.2761	676.8907	13515.3	12668.1
829.4209	678.9958	13566.1	12716.85
829.5657	681.1002	13564.4	12712.85
829.7105	683.204	13515.25	12664.4
829.8553	685.3072	13460.7	12611.75
830.0001	687.4097	13359.65	12508.4
830.1449	689.5115	13289.3	12436.3
830.2898	691.6127	13212.4	12361.25
830.4346	693.7132	13122.8	12270.9
830.5794	695.8131	13066.05	12191.15
830.7243	697.9123	13037.4	12183.05
830.8691	700.0109	12959.2	12105.45
831.014	702.1089	12932.05	12080.8
831.1588	704.2061	12858.2	12006.3
831.3037	706.3028	12909.05	12053.95
831.4486	708.3987	12925.05	12074.9
831.5935	710.4941	13049.65	12195.45
831.7383	712.5887	13220.9	12367
831.8832	714.6827	13568.25	12714.1
832.0281	716.7761	13907.75	13055.7
832.173	718.8688	14284.75	13429.9
832.3179	720.9608	14491.75	13631.95
832.4628	723.0522	14517.1	13660.15
832.6077	725.1429	14249.85	13395.9
832.7527	727.233	13876.4	13023.8
832.8976	729.3224	13552.8	12696.7
833.0425	731.4112	13236.15	12381.2
833.1874	733.4993	12996.4	12138.9
833.3324	735.5867	12817.35	11960.15
833.4773	737.6735	12699	11842.35
833.6222	739.7596	12624.2	11764.6
833.7672	741.845	12580.85	11723.65
833.9122	743.9298	12560.75	11702.75
834.0571	746.014	12582.15	11726.35
834.2021	748.0974	12560.85	11700.85
834.347	750.1802	12569.6	11711.45
834.492	752.2624	12555.65	11698.7
834.637	754.3439	12552.05	11689.85
834.782	756.4247	12623.4	11756.75
834.9269	758.5048	12679.95	11823.25
835.0719	760.5843	12875.85	12017.8
835.2169	762.6631	13162.45	12303.35
835.3619	764.7413	13611.95	12753
835.5069	766.8188	14136.5	13275.8
835.6519	768.8956	14640.85	13779.95
835.7969	770.9718	14927.3	14069.05
835.9419	773.0473	14826.15	13969.2
836.0869	775.1221	14434.65	13576.5
836.232	777.1962	14037.6	13177.3
836.377	779.2697	13828.55	12967.55
836.522	781.3426	13870.95	12990.95
836.667	783.4147	14149.7	13286.35
836.8121	785.4862	14489.25	13628.8
836.9571	787.557	14491.2	13629.15
837.1021	789.6271	14081.9	13219.65
837.2472	791.6966	13531.65	12669
837.3922	793.7654	12960.4	12100.8
837.5373	795.8335	12630.5	11768.85
837.6823	797.901	12413.75	11552.75
837.8274	799.9678	12346.6	11483.05
837.9724	802.0339	12361.25	11500.15
838.1175	804.0993	12402.7	11532.85
838.2626	806.1641	12388.5	11524.45
838.4076	808.2282	12288	11424.3
838.5527	810.2916	12206.45	11342.4
838.6978	812.3544	12087.1	11226.7
838.8428	814.4164	11987.05	11125.7
838.9879	816.4778	11976.4	11115.25
839.133	818.5385	11953.4	11092.15
839.2781	820.5986	11983.7	11119.5
839.4232	822.658	12040.95	11177.1
839.5682	824.7166	12132.35	11270.65
839.7133	826.7747	12269.65	11408.65
839.8584	828.832	12410.65	11548.3
840.0035	830.8886	12529.9	11666.75
840.1486	832.9446	12620.95	11757.05
840.2937	834.9999	12696	11832.05
840.4388	837.0545	12752.65	11885.1
840.5839	839.1085	12753.55	11889.25
840.729	841.1618	12774.75	11908.25
840.8741	843.2143	12721.5	11857.25
841.0192	845.2662	12635	11769.15
841.1643	847.3175	12555.7	11691.75
841.3095	849.368	12416.6	11552
841.4546	851.4179	12293.9	11431.75
841.5997	853.467	12130.7	11265.7
841.7448	855.5155	12030.9	11166.45
841.8899	857.5633	11901.25	11035.95
842.0351	859.6105	11742.4	10877.05
842.1802	861.6569	11661.5	10797.1
842.3253	863.7027	11589.85	10721.05
842.4704	865.7478	11563.45	10694.7
842.6156	867.7922	11561.75	10694.6
842.7607	869.8359	11603.75	10735.45
842.9058	871.8789	11734.6	10866.9
843.0509	873.9212	11896.45	10994.65
843.1961	875.9629	12055.45	11189.8
843.3412	878.0039	12249.9	11381.7
843.4863	880.0441	12321.2	11454.75
843.6315	882.0837	12293.7	11426
843.7766	884.1226	12192.5	11324.6
843.9218	886.1609	12023	11155.3
844.0669	888.1984	11895.6	11027
844.212	890.2352	11826.9	10960.3
844.3572	892.2714	11777.75	10906.75
844.5023	894.3069	11737.3	10868.05
844.6475	896.3416	11646.5	10777.85
844.7926	898.3757	11621.6	10754.65
844.9377	900.4091	11573.3	10705.55
845.0829	902.4418	11606.3	10734.35
845.228	904.4739	11596.7	10725.15
845.3732	906.5052	11576.15	10708.3
845.5183	908.5358	11451.05	10584.15
845.6635	910.5658	11285.8	10416.25
845.8086	912.595	11120.75	10252.4
845.9538	914.6236	10982.25	10114.95
846.0989	916.6515	10943	10074.7
846.2441	918.6786	10910.55	10041.75
846.3892	920.7051	10967.35	10096.35
846.5344	922.7309	11059.15	10190
846.6795	924.756	11119.85	10250.45
846.8246	926.7804	11191	10320.05
846.9698	928.8041	11168.5	10294.05
847.1149	930.8272	11179.1	10308.4
847.2601	932.8495	11128.4	10256.65
847.4052	934.8711	11013.75	10143.85
847.5504	936.892	10829.35	9958.25
847.6955	938.9123	10690.1	9818.3
847.8407	940.9318	10540.15	9670.75
847.9858	942.9506	10382.3	9510.65
848.131	944.9688	10307.5	9437.8
848.2761	946.9862	10228.25	9357.4
848.4213	949.003	10195.8	9324.8
848.5664	951.019	10191.85	9320.1
848.7115	953.0344	10197.55	9327.3
848.8567	955.0491	10232.2	9358.65
849.0018	957.063	10299.5	9430.15
849.147	959.0763	10404	9534.3
849.2921	961.0888	10439.9	9567.4
849.4373	963.1007	10492.5	9623.25
849.5824	965.1119	10531.05	9657.85
849.7275	967.1223	10551.1	9680.1
849.8727	969.1321	10571.3	9698.75
850.0178	971.1412	10594	9721.4
850.1629	973.1495	10619.9	9748.55
850.3081	975.1572	10674.55	9769.9
850.4532	977.1641	10670.85	9799.7
850.5983	979.1704	10622.8	9751.9
850.7435	981.1759	10612.5	9737.9
850.8886	983.1808	10653.2	9782.15
851.0337	985.1849	10760.35	9876.1
851.1788	987.1884	10928.7	10054.2
851.324	989.1911	11104.2	10228.65
851.4691	991.1932	11239.65	10367.75
851.6142	993.1945	11296.45	10423.15
851.7593	995.1951	11268.55	10397.3
851.9045	997.1951	11208.35	10328.3
852.0496	999.1943	11113.55	10242.8
852.1947	1001.1928	11030.7	10159.05
852.3398	1003.1906	11036.95	10163.45
852.4849	1005.1877	11067.7	10192.3
852.63	1007.1841	11038.65	10164.9
852.7751	1009.1798	10946.6	10073.6
852.9202	1011.1748	10729.65	9854.25
853.0653	1013.1691	10536.95	9665
853.2104	1015.1627	10299.85	9427.35
853.3555	1017.1556	10094.8	9221
853.5006	1019.1477	9982.4	9107.4
853.6457	1021.1392	9882.7	9011
853.7908	1023.1299	9890.15	9016.35
853.9359	1025.12	9896	9019.05
854.081	1027.1093	9964.45	9091
854.2261	1029.0979	10015.4	9143.7
854.3712	1031.0859	10076.85	9202.45
854.5163	1033.0731	10064.55	9190.4
854.6613	1035.0596	9990.75	9118.85
854.8064	1037.0454	9834.4	8960.55
854.9515	1039.0304	9699.25	8825.5
855.0965	1041.0148	9541.2	8668.4
855.2416	1042.9985	9458.1	8583.35
855.3867	1044.9814	9433.95	8557.5
855.5317	1046.9636	9361.2	8484.8
855.6768	1048.9452	9344.75	8471.55
855.8219	1050.926	9351.9	8477.8
855.9669	1052.9061	9335.9	8462.05
856.112	1054.8855	9317.15	8442.6
856.257	1056.8642	9319.6	8445.35
856.4021	1058.8421	9359.5	8484.3
856.5471	1060.8194	9384.5	8509.95
856.6921	1062.7959	9404.4	8532.45
856.8372	1064.7717	9423.15	8547.2
856.9822	1066.7469	9443.15	8567.85
857.1272	1068.7213	9399.95	8522.7
857.2723	1070.695	9383.45	8507.55
857.4173	1072.6679	9306.7	8430.3
857.5623	1074.6402	9227.1	8353.05
857.7073	1076.6117	9214	8333.4
857.8523	1078.5826	9205.15	8329.5
857.9973	1080.5527	9265	8387.2
858.1423	1082.5221	9403.7	8526.9
858.2873	1084.4908	9613.35	8737.15
858.4323	1086.4587	9818.05	8941.05
858.5773	1088.426	9979	9103.85
858.7223	1090.3925	9955.7	9073.4
858.8673	1092.3584	9901.05	9025.8
859.0123	1094.3235	9725.65	8850.6
859.1573	1096.2879	9619.95	8743.55
859.3022	1098.2515	9560.8	8684.6
859.4472	1100.2145	9590.55	8715.9
859.5922	1102.1767	9671.95	8795.4
859.7371	1104.1382	9809.1	8932.2
859.8821	1106.099	10015.3	9135.3
860.027	1108.0591	10256.35	9381.25
860.172	1110.0185	10371.6	9494.55
860.3169	1111.9771	10373	9498.4
860.4619	1113.9351	10163.1	9287.3
860.6068	1115.8923	9844.9	8969.1
860.7517	1117.8488	9481.75	8603.85
860.8967	1119.8045	9206.2	8330.7
861.0416	1121.7596	9054.5	8176.15
861.1865	1123.7139	8979.95	8104.05
861.3314	1125.6675	8991.15	8115.05
861.4763	1127.6204	9018.65	8140.6
861.6212	1129.5726	9024.25	8145.65
861.7661	1131.524	9031.65	8155.1
861.911	1133.4748	9057.8	8182.4
862.0559	1135.4248	9070.65	8192.05
862.2008	1137.3741	9082.1	8205.65
862.3457	1139.3226	9058.4	8178.85
862.4905	1141.2705	8998.35	8121.25
862.6354	1143.2176	8906.2	8022.75
862.7803	1145.164	8922.85	8044.3
862.9251	1147.1097	8944.15	8066.25
863.07	1149.0546	8899.85	8021.75
863.2148	1150.9989	8820.2	7943.05
863.3597	1152.9424	8643.05	7765.35
863.5045	1154.8852	8454.05	7575.9
863.6493	1156.8272	8321	7446.3
863.7942	1158.7686	8279.1	7393.9
863.939	1160.7092	8217.45	7340.1
864.0838	1162.6491	8199.35	7318.1
864.2286	1164.5883	8263.1	7387.55
864.3734	1166.5267	8344.9	7466.5
864.5182	1168.4644	8496.15	7617.65
864.663	1170.4014	8654.6	7774.8
864.8078	1172.3377	8904.3	8029.15
864.9526	1174.2732	9094.55	8214.2
865.0974	1176.2081	9318.3	8440.75
865.2421	1178.1421	9514.65	8631.95
865.3869	1180.0755	9672.65	8795.45
865.5317	1182.0082	9720.05	8844.55
865.6764	1183.9401	9676.45	8797.7
865.8212	1185.8713	9508.95	8630.4
865.9659	1187.8017	9257.9	8380.75
866.1106	1189.7315	9005.45	8128.3
866.2554	1191.6605	8750.65	7844.45
866.4001	1193.5888	8543.75	7668.2
866.5448	1195.5163	8417.7	7539.4
866.6895	1197.4432	8305.25	7425.5
866.8342	1199.3693	8236.5	7358.45
866.9789	1201.2947	8206.3	7323.45
867.1236	1203.2193	8204.9	7326.25
867.2683	1205.1432	8215.35	7337.6
867.413	1207.0664	8242.45	7363.6
867.5576	1208.9889	8289.45	7408.75
867.7023	1210.9106	8346.8	7469.4
867.847	1212.8316	8435.2	7560.35
867.9916	1214.7519	8497.7	7611
868.1363	1216.6715	8505.1	7628.45
868.2809	1218.5903	8490.65	7613.3
868.4255	1220.5084	8446	7566.35
868.5701	1222.4257	8414.7	7535.95
868.7148	1224.3424	8368.3	7490.7
868.8594	1226.2583	8413.15	7532.2
869.004	1228.1735	8512.85	7633.4
869.1486	1230.0879	8622.4	7743.1
869.2932	1232.0016	8729.85	7852.45
869.4377	1233.9146	8770.5	7890.1
869.5823	1235.8269	8667.35	7787.5
869.7269	1237.7384	8557.9	7680.3
869.8715	1239.6492	8341.75	7462.1
870.016	1241.5592	8246.45	7369.65
870.1606	1243.4686	8134.4	7256.6
870.3051	1245.3772	8082.9	7205.55
870.4496	1247.285	8032.3	7155.2
870.5941	1249.1922	7992	7115
870.7387	1251.0986	7991.3	7113.6
870.8832	1253.0042	7975.75	7095.55
871.0277	1254.9092	8029.8	7150.5
871.1722	1256.8134	8098.3	7220.65
871.3167	1258.7169	8255.55	7374.95
871.4611	1260.6196	8407.25	7530.35
871.6056	1262.5216	8619.35	7739.4
871.7501	1264.4229	8767.6	7890.1
871.8945	1266.3234	8865.55	7985.65
872.039	1268.2232	8912.35	8031.45
872.1834	1270.1223	8921.55	8041.7
872.3278	1272.0207	8889.3	8009.7
872.4723	1273.9183	8851.2	7965.15
872.6167	1275.8151	8772.3	7895
872.7611	1277.7113	8665.35	7784
872.9055	1279.6067	8538.1	7659.6
873.0499	1281.5014	8395.5	7512.9
873.1943	1283.3953	8278.85	7396.6
873.3386	1285.2885	8208.8	7330.15
873.483	1287.181	8189.7	7310.2
873.6274	1289.0727	8216.65	7338.95
873.7717	1290.9637	8252.75	7374.45
873.9161	1292.854	8344.35	7464.4
874.0604	1294.7435	8489.95	7611.95
874.2047	1296.6323	8694.4	7814.8
874.349	1298.5204	8940.4	8058.7
874.4933	1300.4077	9159.45	8280.6
874.6376	1302.2943	9335.9	8456.85
874.7819	1304.1802	9393.9	8515.85
874.9262	1306.0653	9317.4	8434.8
875.0705	1307.9497	9194.75	8314.5
875.2147	1309.8333	9042	8163.35
875.359	1311.7162	9036.85	8156.6
875.5032	1313.5984	9084.9	8204.6
875.6475	1315.4798	9212.25	8314.25
875.7917	1317.3605	9389.85	8493.7
875.9359	1319.2405	9495.7	8615
876.0801	1321.1197	9530.1	8648.85
876.2243	1322.9982	9473.65	8590.05
876.3685	1324.876	9435.9	8558.45
876.5127	1326.753	9386.25	8506.05
876.6569	1328.6293	9386.35	8506.05
876.801	1330.5048	9394.65	8512.75
876.9452	1332.3796	9355.4	8475.7
877.0893	1334.2537	9348.7	8443.2
877.2335	1336.127	9285.75	8405.7
877.3776	1337.9996	9256.95	8378.1
877.5217	1339.8714	9183.9	8305.55
877.6658	1341.7426	9183.5	8260.15
877.8099	1343.6129	9136.5	8255.75
877.954	1345.4826	9036.4	8157.55
878.0981	1347.3515	8985.9	8104.25
878.2422	1349.2196	8949.65	8069.9
878.3862	1351.087	8963.75	8081
878.5303	1352.9537	8974.8	8095.7
878.6743	1354.8197	9108.4	8228.2
878.8184	1356.6849	9280	8399.3
878.9624	1358.5493	9353.95	8475.2
879.1064	1360.4131	9394.05	8512.6
879.2504	1362.276	9322.75	8443.7
879.3944	1364.1383	9160.75	8281.25
879.5384	1365.9998	8943.65	8055.2
879.6823	1367.8606	8635.35	7753.75
879.8263	1369.7206	8367	7486.9
879.9702	1371.5799	8180.3	7296.95
880.1142	1373.4384	8037	7156.65
880.2581	1375.2962	7910.5	7030.2
880.402	1377.1533	7687.75	6806.85
880.5459	1379.0096	7388.7	6506.8
880.6898	1380.8652	7136.05	6257.05
880.8337	1382.7201	6886.95	6004.35
880.9776	1384.5742	6667.05	5785.2
881.1215	1386.4275	6504.6	5620.75
881.2653	1388.2802	6387.85	5508.35
881.4092	1390.132	6286.15	5407.15
881.553	1391.9832	6237.95	5355.1
881.6968	1393.8336	6183.55	5304.3
881.8406	1395.6832	6113.75	5230.25
881.9844	1397.5322	6116.65	5235.35
882.1282	1399.3803	6100.15	5215.65
882.272	1401.2278	6067.2	5186.3
882.4158	1403.0745	6069.65	5189.05
882.5595	1404.9204	6055.9	5175.05
882.7033	1406.7656	6089.3	5207.1
882.847	1408.6101	6091.8	5211.55
882.9908	1410.4538	6120.95	5238.2
883.1345	1412.2968	6162.45	5279.95
883.2782	1414.139	6228	5350.05
883.4219	1415.9805	6290.35	5409.15
883.5656	1417.8213	6402.7	5516.45
883.7092	1419.6613	6535.85	5657.2
883.8529	1421.5006	6716.9	5835.9
883.9965	1423.3391	6974.25	6090.2
884.1402	1425.1769	7350.35	6470.15
884.2838	1427.0139	7853.5	6970.3
884.4274	1428.8502	8447.7	7564.75
884.571	1430.6858	9042.3	8161.5
884.7146	1432.5206	9465.3	8583.8
884.8582	1434.3547	9719.65	8836.75
885.0018	1436.188	9766.5	8886.4
885.1453	1438.0206	9678.25	8797.2
885.2889	1439.8524	9570.3	8688.75
885.4324	1441.6835	9433.65	8551.8
885.5759	1443.5139	9342.1	8457.45
885.7194	1445.3435	9283.15	8402.55
885.8629	1447.1724	9202.2	8320.35
886.0064	1449.0005	9124.35	8245.05
886.1499	1450.8279	9049.55	8165.75
886.2933	1452.6545	9010.3	8129.45
886.4368	1454.4804	9046.9	8166.85
886.5802	1456.3056	9044.45	8155
886.7237	1458.13	8938.85	8057.2
886.8671	1459.9536	8705.15	7824
887.0105	1461.7766	8341.75	7460.6
887.1539	1463.5987	7908.75	7028.4
887.2972	1465.4202	7520.5	6639.7
887.4406	1467.2409	7165.5	6283.15
887.584	1469.0608	6869.35	5989.25
887.7273	1470.88	6637.6	5757.3
887.8706	1472.6984	6411.05	5531.65
888.0139	1474.5161	6213.4	5330.2
888.1572	1476.3331	6069.8	5189.65
888.3005	1478.1493	5950	5066.4
888.4438	1479.9648	5849.6	4967.7
888.5871	1481.7795	5753.5	4873.8
888.7303	1483.5935	5680.75	4801
888.8736	1485.4067	5613.7	4732.5
889.0168	1487.2192	5541	4659.8
889.16	1489.031	5525.95	4642.95
889.3032	1490.842	5476.45	4593.55
889.4464	1492.6522	5428.05	4546.2
889.5896	1494.4618	5423.2	4542.45
889.7327	1496.2705	5394.95	4514.8
889.8759	1498.0785	5378.85	4496.4
890.019	1499.8858	5330.6	4447.65
890.1622	1501.6924	5304.75	4423.75
890.3053	1503.4981	5295.3	4413.9
890.4484	1505.3032	5291.8	4411.7
890.5914	1507.1075	5245.85	4363.4
890.7345	1508.911	5224.5	4343.4
890.8776	1510.7138	5178.8	4295.2
891.0206	1512.5159	5159.2	4277.05
891.1637	1514.3172	5114.05	4234.4
891.3067	1516.1178	5083.9	4202.4
891.4497	1517.9176	5065.75	4183.85
891.5927	1519.7166	5019.15	4138.1
891.7357	1521.515	5017.65	4130.95
891.8786	1523.3126	5000.15	4118
892.0216	1525.1094	4983.8	4099.1
892.1645	1526.9055	4963.45	4082.75
892.3074	1528.7008	4932.55	4052.9
892.4503	1530.4954	4911.65	4029.15
892.5932	1532.2893	4905.4	4025.4
892.7361	1534.0824	4884.7	3999.55
892.879	1535.8747	4883.95	4005.35
893.0218	1537.6663	4872.45	3988.65
893.1647	1539.4572	4850.3	3969.3
893.3075	1541.2473	4851.7	3969.45
893.4503	1543.0367	4860.35	3978.05
893.5931	1544.8253	4830.9	3943.25
893.7359	1546.6132	4850.85	3967.3
893.8787	1548.4003	4859.1	3967.7
894.0214	1550.1867	4868.2	3977.35
894.1642	1551.9723	4889.1	4003.6
894.3069	1553.7572	4900.55	4018.8
894.4496	1555.5414	4918.2	4037.75
894.5923	1557.3247	4951.5	4067.1
894.735	1559.1074	5021.25	4139.75
894.8777	1560.8893	5087.6	4206.75
895.0204	1562.6705	5147	4265.7
895.163	1564.4509	5232.65	4351.35
895.3056	1566.2305	5301.4	4421.1
895.4482	1568.0094	5381.65	4502.15
895.5908	1569.7876	5460.25	4579.95
895.7334	1571.565	5507.35	4625.8
895.876	1573.3417	5539.4	4658.85
896.0186	1575.1176	5531	4650.7
896.1611	1576.8928	5496.5	4611.4
896.3036	1578.6672	5421.75	4540.5
896.4461	1580.4409	5331.65	4451.2
896.5886	1582.2138	5196.7	4314.6
896.7311	1583.986	5085.45	4205.8
896.8736	1585.7575	5011.6	4130.35
897.0161	1587.5282	4942.25	4062.55
897.1585	1589.2981	4877.85	3998.35
897.3009	1591.0673	4842.3	3960.8
897.4433	1592.8358	4857.9	3977.75
897.5857	1594.6035	4842.95	3961.85
897.7281	1596.3704	4840.5	3958.25
897.8705	1598.1366	4865.25	3985.5
898.0128	1599.9021	4894.8	4015.1
898.1551	1601.6668	4914.85	4029.75
898.2975	1603.4308	4982.6	4101.25
898.4398	1605.194	5075.35	4190.45
898.5821	1606.9564	5143.15	4261.15
898.7243	1608.7182	5277.6	4393.25
898.8666	1610.4791	5419.55	4537.85
899.0088	1612.2394	5579.8	4698.8
899.1511	1613.9988	5756.6	4873.95
899.2933	1615.7576	5962.95	5080.4
899.4355	1617.5156	6211.15	5326.45
899.5776	1619.2728	6421.45	5539.4
899.7198	1621.0293	6589.1	5708.45
899.862	1622.785	6646.75	5764.85
900.0041	1624.54	6595.15	5710.55
900.1462	1626.2942	6448.9	5567.45
900.2883	1628.0477	6228.85	5343.55
900.4304	1629.8005	6021.1	5138.95
900.5725	1631.5525	5782.15	4901.2
900.7145	1633.3037	5595.8	4711.7
900.8566	1635.0542	5474.95	4593.9
900.9986	1636.804	5345.45	4461.5
901.1406	1638.553	5329.05	4377.8
901.2826	1640.3013	5236.25	4355.6
901.4245	1642.0488	5202.65	4321.05
901.5665	1643.7955	5209.1	4331
901.7085	1645.5416	5246	4362.4
901.8504	1647.2868	5294.2	4414.55
901.9923	1649.0313	5404.95	4524.05
902.1342	1650.7751	5554.95	4671.9
902.2761	1652.5181	5721.65	4842.3
902.4179	1654.2604	5976.9	5095.95
902.5598	1656.0019	6270.2	5389.6
902.7016	1657.7427	6605.75	5725.7
902.8434	1659.4828	6943.55	6065.05
902.9852	1661.222	7167.45	6286.25
903.127	1662.9606	7172.45	6292.2
903.2687	1664.6984	7003.5	6120.7
903.4105	1666.4354	6616.8	5735.85
903.5522	1668.1717	6161.25	5281.25
903.6939	1669.9072	5694.85	4815.35
903.8356	1671.642	5300.9	4417.55
903.9773	1673.3761	4994.9	4112.9
904.119	1675.1094	4756.1	3876.05
904.2606	1676.8419	4565.35	3686.6
904.4022	1678.5737	4419.15	3540.1
904.5439	1680.3048	4329.25	3449.1
904.6855	1682.0351	4236	3354.4
904.827	1683.7646	4174.9	3293.05
904.9686	1685.4934	4112.25	3233
905.1101	1687.2215	4077.65	3197.2
905.2517	1688.9488	4040	3160.95
905.3932	1690.6754	4003.55	3124.05
905.5347	1692.4012	3975.3	3095.75
905.6761	1694.1263	3953.6	3072.9
905.8176	1695.8506	3933.85	3051.4
905.9591	1697.5742	3913.8	3035.35
906.1005	1699.297	3890.35	3009.45
906.2419	1701.0191	3856.4	2977.45
906.3833	1702.7404	3844.35	2963.55
906.5246	1704.461	3807.65	2925.35
906.666	1706.1808	3794.95	2910.7
906.8073	1707.8999	3777.7	2895.6
906.9487	1709.6182	3753.75	2872.45
907.09	1711.3358	3756.75	2875.45
907.2313	1713.0527	3736.95	2859.65
907.3725	1714.7688	3730.1	2844.95
907.5138	1716.4841	3690.75	2809.6
907.655	1718.1987	3689.1	2801.9
907.7962	1719.9126	3683.6	2803.2
907.9374	1721.6257	3658.3	2773.75
908.0786	1723.338	3646.6	2764.1
908.2198	1725.0496	3632.05	2750.5
908.3609	1726.7605	3627.05	2744.05
908.502	1728.4706	3624.85	2743.8
908.6431	1730.18	3589.75	2705.9
908.7842	1731.8886	3581.65	2701.8
908.9253	1733.5964	3582.15	2696.7
909.0664	1735.3036	3571.45	2690.7
909.2074	1737.0099	3549.2	2668.5
909.3484	1738.7156	3557.05	2677.3
909.4894	1740.4204	3550	2667.6
909.6304	1742.1246	3526.75	2646.75
909.7714	1743.8279	3507.15	2628.15
909.9123	1745.5306	3500.65	2619.15
910.0532	1747.2325	3489.45	2606.75
910.1941	1748.9336	3471.85	2592.6
910.335	1750.634	3455.5	2571.75
910.4759	1752.3336	3459.3	2579.2
910.6168	1754.0325	3464.3	2582.95
910.7576	1755.7307	3444.7	2564.1
910.8984	1757.4281	3440.4	2561.65
911.0392	1759.1247	3438.6	2551.85
911.18	1760.8206	3426.8	2544.65
911.3208	1762.5158	3424.75	2541.15
911.4615	1764.2102	3416.25	2535.2
911.6022	1765.9039	3396.15	2516.2
911.7429	1767.5968	3389.9	2508.55
911.8836	1769.289	3375.2	2494.7
912.0243	1770.9804	3379.15	2496.75
912.1649	1772.6711	3374.5	2495
912.3056	1774.361	3368.6	2486.45
912.4462	1776.0502	3363	2483.65
912.5868	1777.7386	3361.7	2477.55
912.7274	1779.4263	3339.95	2457.95
912.8679	1781.1132	3338.55	2457.3
913.0084	1782.7994	3330.9	2449.75
913.149	1784.4849	3324.6	2443.9
913.2895	1786.1696	3343.45	2444.25
913.4299	1787.8535	3301.7	2422.35
913.5704	1789.5367	3302.4	2419.95
913.7108	1791.2192	3307.25	2426.9
913.8513	1792.9009	3303.4	2396.95
913.9917	1794.5818	3270	2389.15
914.132	1796.2621	3272.9	2393.55
914.2724	1797.9415	3275.75	2393.95
914.4128	1799.6202	3265.5	2387.35
914.5531	1801.2982	3267.5	2389.1
914.6934	1802.9755	3259.75	2378.6
914.8337	1804.6519	3240.75	2360.4
914.9739	1806.3277	3234.5	2356.5
915.1142	1808.0027	3231.3	2351.1
915.2544	1809.6769	3231.65	2351
915.3946	1811.3504	3224.55	2342.75
915.5348	1813.0231	3231.7	2351.3
915.675	1814.6951	3203.55	2322.65
915.8151	1816.3664	3222.95	2340.25
915.9553	1818.0369	3210.6	2332.2
916.0954	1819.7067	3208.55	2328.3
916.2355	1821.3757	3181.05	2297.1
916.3755	1823.044	3185.3	2306.75
916.5156	1824.7115	3176.95	2297.65
916.6556	1826.3783	3187	2307.3
916.7956	1828.0443	3162.75	2283.05
916.9356	1829.7096	3162.6	2281.7
917.0756	1831.3741	3153.6	2268.65
917.2155	1833.0379	3150.5	2269.6
917.3555	1834.701	3139.4	2256.05
917.4954	1836.3633	3147.4	2264.65
917.6353	1838.0248	3147.9	2265.5
917.7751	1839.6856	3130.3	2249.25
917.915	1841.3457	3118.75	2240.75
918.0548	1843.005	3120.35	2240.6
918.1946	1844.6636	3118	2237.2
918.3344	1846.3214	3121.65	2242.15
918.4742	1847.9785	3099.1	2219.9
918.6139	1849.6349	3094.75	2213.2
918.7537	1851.2904	3127.9	2241.2
918.8934	1852.9453	3093.3	2213.4
919.0331	1854.5994	3091.65	2208.85
919.1727	1856.2528	3084.65	2200.6
919.3124	1857.9054	3071.95	2190.8
919.452	1859.5572	3067.2	2189.95
919.5916	1861.2083	3063.65	2182.9
919.7312	1862.8587	3063.95	2184.65
919.8708	1864.5084	3053.7	2173.4
920.0103	1866.1572	3034.9	2155.9
920.1498	1867.8054	3033.2	2155
920.2893	1869.4528	3051.35	2169.65
920.4288	1871.0994	3026.9	2146.7
920.5683	1872.7453	3020	2137.8
920.7077	1874.3905	3037.8	2137.7
920.8471	1876.0349	3008.2	2128.3
920.9865	1877.6786	3010.25	2127.1
921.1259	1879.3215	3005.55	2125.9
921.2653	1880.9637	3012.05	2131.2
921.4046	1882.6051	2993.1	2112
921.5439	1884.2458	2989.3	2107.35
921.6832	1885.8858	2978.45	2097.35
921.8225	1887.525	2967.3	2089
921.9617	1889.1634	2965.6	2085.25
922.101	1890.8011	2955.75	2074.5
922.2402	1892.4381	2955.25	2073.8
922.3794	1894.0743	2961.05	2079.75
922.5185	1895.7098	2953.95	2072.55
922.6577	1897.3446	2945.95	2065.1
922.7968	1898.9786	2934.35	2049.55
922.9359	1900.6118	2933.7	2054.4
923.075	1902.2443	2924.7	2043.25
923.214	1903.8761	2920.5	2040.2
923.3531	1905.5071	2914.7	2033.4
923.4921	1907.1374	2906.15	2026.05
923.6311	1908.7669	2892.05	2012.6
923.77	1910.3957	2901.2	2020.15
923.909	1912.0237	2892.05	2012.15
924.0479	1913.651	2892.9	2012.05
924.1868	1915.2776	2886.65	2007.3
924.3257	1916.9034	2875.35	1996.9
924.4646	1918.5285	2853.45	1974.4
924.6034	1920.1528	2840.45	1958.6
924.7422	1921.7764	2845.75	1966
924.881	1923.3992	2841.95	1962.55
925.0198	1925.0213	2831.4	1953.25
925.1586	1926.6427	2819.95	1941.15
925.2973	1928.2633	3025.2	1911.85
925.436	1929.8832	2847.45	1963.25
925.5747	1931.5023	2798.05	1917.05
925.7134	1933.1207	2800.2	1921.65
925.852	1934.7383	2815.85	1936.75
925.9906	1936.3552	2782.75	1903.25
926.1292	1937.9714	2781.8	1901.55
926.2678	1939.5868	2782.2	1900.2
926.4064	1941.2015	2764.25	1884
926.5449	1942.8154	2753.25	1872.35
926.6834	1944.4286	2755.05	1873.8
926.8219	1946.041	2761	1858.2
926.9604	1947.6528	2743.35	1857.65
927.0988	1949.2637	2724.9	1846
927.2372	1950.8739	2712.3	1832.6
927.3756	1952.4834	2713.45	1833.5
927.514	1954.0921	2734.8	1856.15
927.6523	1955.7001	2700.2	1814.4
927.7907	1957.3074	2693.2	1813.6
927.929	1958.9139	2691.3	1810
928.0673	1960.5197	2686.45	1800.9
928.2055	1962.1247	2671.1	1790.95
928.3438	1963.729	2664.45	1785.1
928.482	1965.3325	2671.75	1769.05
928.6202	1966.9353	2660	1779.85
928.7584	1968.5374	2644.15	1760.8
928.8965	1970.1387	2653.05	1771.25
929.0346	1971.7393	2630.7	1751.35
929.1727	1973.3392	2626.65	1748.55
929.3108	1974.9383	2622.9	1741.3
929.4489	1976.5366	2619.2	1739.1
929.5869	1978.1342	2617.1	1735
929.7249	1979.7311	2611.15	1729
929.8629	1981.3273	2599.85	1716.3
930.0009	1982.9227	2597.2	1716.3
930.1388	1984.5173	2590.5	1710
930.2767	1986.1112	2589.35	1709.5
930.4146	1987.7044	2584.6	1705.4
930.5525	1989.2968	2577.7	1695.75
930.6904	1990.8885	2574.2	1691.65
930.8282	1992.4795	2583.7	1702.35
930.966	1994.0697	2567.65	1687.95
931.1038	1995.6592	2555.55	1674.95
931.2415	1997.2479	2559	1677.15
931.3793	1998.8359	2551.6	1670.8
931.517	2000.4232	2543.55	1664.9
931.6547	2002.0097	2532.15	1652.95
931.7923	2003.5955	2531.85	1650.25
931.93	2005.1805	2544.7	1664.4
932.0676	2006.7648	2538.05	1658.15
932.2052	2008.3484	2523.2	1641.9
932.3427	2009.9312	2533.25	1650.25
932.4803	2011.5133	2515.7	1635.85
932.6178	2013.0946	2504.65	1623.2
932.7553	2014.6752	2499.1	1619.8
932.8928	2016.2551	2502.7	1622.1
933.0302	2017.8342	2498.1	1619
933.1676	2019.4126	2498.7	1620.1
933.305	2020.9902	2483.2	1603.85
933.4424	2022.5672	2495.65	1615.2
933.5798	2024.1433	2488.05	1600
933.7171	2025.7188	2484.55	1605.5
933.8544	2027.2935	2476.25	1593.3
933.9917	2028.8674	2464.25	1583.35
934.129	2030.4406	2455.45	1577.3
934.2662	2032.0131	2447.35	1565.75
934.4034	2033.5849	2455.4	1571.6
934.5406	2035.1559	2435.3	1554.75
934.6778	2036.7261	2443.7	1563.05
934.8149	2038.2957	2433.35	1553.2
934.952	2039.8645	2437.05	1555.55
935.0891	2041.4325	2435.5	1553.7
935.2262	2042.9998	2426.35	1547.35
935.3632	2044.5664	2426.6	1543.2
935.5002	2046.1323	2426	1547.45
935.6372	2047.6974	2407.35	1527.55
935.7742	2049.2617	2398	1519.25
935.9111	2050.8254	2442.5	1529.5
936.048	2052.3883	2408.85	1527.8
936.1849	2053.9504	2393.45	1514.65
936.3218	2055.5118	2387.05	1507.65
936.4586	2057.0725	2388.9	1502.6
936.5955	2058.6325	2380.9	1499.6
936.7323	2060.1917	2379.95	1500.1
936.869	2061.7502	2376.1	1493.2
937.0058	2063.3079	2376.45	1496.9
937.1425	2064.8649	2365.9	1481.65
937.2792	2066.4212	2372.7	1491.5
937.4159	2067.9767	2361.5	1482
937.5525	2069.5315	2348.05	1466.85
937.6891	2071.0856	2341.35	1459.25
937.8257	2072.6389	2344.45	1461.65
937.9623	2074.1915	2341.05	1463.5
938.0989	2075.7433	2329.85	1449.7
938.2354	2077.2945	2320.1	1439.95
938.3719	2078.8448	2325.15	1446.4
938.5084	2080.3945	2314.6	1433.95
938.6448	2081.9434	2308.65	1429.15
938.7812	2083.4916	2292.15	1411.6
938.9176	2085.039	2302.3	1421.6
939.054	2086.5857	2299.5	1418
939.1903	2088.1317	2295.1	1415.35
939.3267	2089.677	2284.85	1404.2
939.463	2091.2215	2283.9	1403.2
939.5992	2092.7652	2272.3	1391.1
939.7355	2094.3083	2281.7	1402.4
939.8717	2095.8506	2279.5	1399.05
940.0079	2097.3921	2273.15	1394.75
940.1441	2098.933	2273.6	1393.2
940.2802	2100.4731	2262.75	1382.5
940.4163	2102.0124	2276.1	1389.4
940.5524	2103.5511	2269.8	1390.8
940.6885	2105.089	2259.65	1379.8
940.8245	2106.6261	2258.6	1377.7
940.9606	2108.1626	2245.85	1363.95
941.0965	2109.6983	2281.75	1374
941.2325	2111.2332	2254.35	1373.4
941.3684	2112.7675	2239.3	1357.6
941.5044	2114.301	2231.5	1349.55
941.6403	2115.8337	2235.75	1355.45
941.7761	2117.3657	2236.95	1357.5
941.912	2118.897	2222.85	1340.4
942.0478	2120.4276	2225.25	1340.35
942.1835	2121.9575	2213.6	1330.2
942.3193	2123.4866	2236.95	1343.9
942.455	2125.0149	2208.35	1324.95
942.5907	2126.5426	2200.15	1318.65
942.7264	2128.0695	2208.05	1323.15
942.8621	2129.5956	2220.55	1339.3
942.9977	2131.1211	2206.2	1322.05
943.1333	2132.6458	2199.05	1319.95
943.2689	2134.1698	2190.85	1310.05
943.4044	2135.693	2189.1	1305.55
943.54	2137.2155	2189.35	1307.9
943.6755	2138.7373	2179.05	1297.8
943.8109	2140.2584	2178.55	1296.95
943.9464	2141.7787	2182.95	1297.3
944.0818	2143.2983	2164.55	1284.55
944.2172	2144.8171	2154.05	1272.85
944.3526	2146.3353	2163.6	1280.5
944.4879	2147.8527	2157.6	1278.85
944.6232	2149.3693	2158.4	1278.05
944.7585	2150.8853	2146.25	1265.55
944.8938	2152.4005	2136.35	1256.1
945.029	2153.9149	2146.9	1265.3
945.1642	2155.4287	2129.7	1249.4
945.2994	2156.9417	2138.35	1255.95
945.4346	2158.454	2128.55	1243.2
945.5697	2159.9655	2135.7	1256.85
945.7048	2161.4764	2123.7	1243.15
945.8399	2162.9865	2121	1238.9
945.9749	2164.4958	2127.8	1245.7
946.1099	2166.0045	2109.6	1226.05
946.2449	2167.5124	2115.05	1236.4
946.3799	2169.0195	2099.25	1221.95
946.5148	2170.526	2109.2	1229.8
946.6498	2172.0317	2100.4	1217.05
946.7846	2173.5367	2113.35	1232.35
946.9195	2175.0409	2105.1	1225.45
947.0543	2176.5445	2091.6	1211.8
947.1891	2178.0473	2089.5	1209.2
947.3239	2179.5494	2086.95	1201.6
947.4587	2181.0507	2081.8	1201.65
947.5934	2182.5513	2082.1	1202.35
947.7281	2184.0512	2072	1191.2
947.8628	2185.5504	2082.9	1203.75
947.9974	2187.0488	2069.8	1190.25
948.132	2188.5465	2065.2	1184.6
948.2666	2190.0435	2069.7	1189.25
948.4012	2191.5397	2054.75	1173.05
948.5357	2193.0353	2052.25	1173.7
948.6702	2194.5301	2055.55	1175.65
948.8047	2196.0241	2057.85	1178.55
948.9392	2197.5175	2051.7	1170.95
949.0736	2199.0101	2050.15	1167
949.208	2200.502	2035.95	1155.15
949.3424	2201.9931	2038.8	1157.7
949.4767	2203.4835	2032.65	1150.9
949.611	2204.9733	2032.05	1145.7
949.7453	2206.4622	2031.6	1150.85
949.8796	2207.9505	2014.05	1130.9
950.0138	2209.438	2004.75	1124.25
950.148	2210.9248	2008.45	1127
950.2822	2212.4109	2012.7	1133.5
950.4164	2213.8962	2004.65	1122.5
950.5505	2215.3809	2003.7	1122
950.6846	2216.8648	1998.25	1118.75
950.8186	2218.3479	2007.75	1124.8
950.9527	2219.8304	1986.5	1105.2
951.0867	2221.3121	1996.65	1113.1
951.2207	2222.7931	1979.05	1098.6
951.3546	2224.2733	1970.95	1088.5
951.4886	2225.7529	1974.45	1092.8
951.6225	2227.2317	1966.5	1082.75
951.7563	2228.7098	1965.65	1083.55
951.8902	2230.1872	1962.45	1083.1
952.024	2231.6638	1971.95	1091.05
952.1578	2233.1397	1956.7	1067.3
952.2916	2234.6149	1947.7	1067
952.4253	2236.0894	1944.1	1062.5
952.559	2237.5632	1957.7	1067.25
952.6927	2239.0362	1942.45	1063.5
952.8263	2240.5085	1938.9	1058.8
952.9599	2241.9801	1933.9	1051.8
953.0935	2243.4509	1931.55	1051.25
953.2271	2244.921	1927.3	1044.95
953.3606	2246.3904	1931.3	1047
953.4941	2247.8591	1927.1	1045.75
953.6276	2249.3271	1916	1035.3
953.7611	2250.7943	1907.05	1025.25
953.8945	2252.2608	1907.2	1025.9
954.0279	2253.7266	1911.25	1033.7
954.1612	2255.1917	1909.9	1029.2
954.2946	2256.656	1901.65	1021.45
954.4279	2258.1197	1896.55	1015.7
954.5612	2259.5826	1901.3	1019.45
954.6944	2261.0447	1898.75	1017.65
954.8276	2262.5062	1890.95	1011.05
954.9608	2263.9669	1881.05	998.6
955.094	2265.4269	1883.9	1001.9
955.2271	2266.8862	1886.3	1003.9
955.3602	2268.3448	1879.4	997.1
955.4933	2269.8026	1881	999.85
955.6264	2271.2598	1870.45	989.85
955.7594	2272.7162	1871.5	993.3
955.8924	2274.1719	1875.95	995.5
956.0253	2275.6268	1871.4	992.9
956.1583	2277.0811	1870.6	989.55
956.2912	2278.5346	1860	979.6
956.4241	2279.9874	1858.65	978
956.5569	2281.4395	1860.95	980
956.6897	2282.8908	1863.45	976.8
956.8225	2284.3414	1855.45	971.8
956.9553	2285.7914	1864.1	984.1
957.088	2287.2406	1846.15	962.45
957.2207	2288.689	1851.9	973.1
957.3534	2290.1368	1848.65	967.35
957.486	2291.5838	1847.15	965.9
957.6186	2293.0302	1840.45	960
957.7512	2294.4758	1834.9	953.3
957.8838	2295.9206	1835.75	953.45
958.0163	2297.3648	1836.2	955.55
958.1488	2298.8082	1830.75	948.65
958.2813	2300.251	1825.45	947.4
958.4137	2301.693	1820.2	938.1
958.5461	2303.1343	1824.7	943.15
958.6785	2304.5748	1815.8	934.85
958.8108	2306.0147	1816.3	934.65
958.9432	2307.4538	1812.35	929.5
959.0754	2308.8922	1809.75	929.75
959.2077	2310.3299	1804.25	921.6
959.3399	2311.7669	1798.85	918.8
959.4721	2313.2031	1790.45	909.55
959.6043	2314.6387	1789.75	909.25
959.7365	2316.0735	1787	905.55
959.8686	2317.5076	1794.65	915.45
960.0006	2318.941	1792.3	910.3
960.1327	2320.3737	1787.95	909.15
960.2647	2321.8056	1781.8	898.95
960.3967	2323.2369	1778.05	896.2
960.5287	2324.6674	1768.3	884.35
960.6606	2326.0972	1780.4	899.9
960.7925	2327.5263	1781.6	900.45
960.9244	2328.9547	1773.4	892
961.0562	2330.3823	1760.95	878.9
961.1881	2331.8092	1770.6	886.05
961.3198	2333.2355	1762.8	882.6
961.4516	2334.661	1758.2	878.2
961.5833	2336.0858	1759.2	876.95
961.715	2337.5098	1755.3	874.35
961.8467	2338.9332	1752.65	871.3
961.9783	2340.3558	1755.35	871.2
962.1099	2341.7778	1753.4	873.05
962.2415	2343.199	1760.35	875.35
962.373	2344.6195	1739.15	859.2
962.5045	2346.0393	1755.45	875.65
962.636	2347.4583	1745.7	863.7
962.7675	2348.8767	1748.1	865.95
962.8989	2350.2943	1741	861.35
963.0303	2351.7113	1749.35	868.5
963.1617	2353.1275	1733.35	852.7
963.293	2354.543	1759.5	854.7
963.4243	2355.9578	1738.95	856.55
963.5556	2357.3718	1728.55	850.5
963.6868	2358.7852	1728.95	845.05
963.818	2360.1978	1712.6	829.65
963.9492	2361.6098	1724	844.05
964.0803	2363.021	1725.1	839.75
964.2114	2364.4315	1724.25	843
964.3425	2365.8413	1716.8	834.4
964.4736	2367.2504	1716.25	836.65
964.6046	2368.6587	1705.8	826.25
964.7356	2370.0664	1710.9	831.2
964.8666	2371.4733	1712.1	831.55
964.9975	2372.8795	1702.95	822.7
965.1284	2374.285	1694.2	812.45
965.2593	2375.6899	1697.05	818.5
965.3901	2377.0939	1687.05	805
965.5209	2378.4973	1676.45	796.2
965.6517	2379.9	1679.8	798.95
965.7825	2381.3019	1686.55	806.45
965.9132	2382.7032	1682.8	804
966.0439	2384.1037	1682.2	804.05
966.1745	2385.5035	1677.8	797.95
966.3051	2386.9027	1669.05	789.2
966.4357	2388.3011	1673.45	788.95
966.5663	2389.6987	1673.7	794.6
966.6968	2391.0957	1669.15	786.75
966.8273	2392.492	1651.9	772.8
966.9578	2393.8876	1654.35	773.85
967.0882	2395.2824	1648.2	768.85
967.2186	2396.6765	1650.95	771.85
967.349	2398.07	1645.3	764.7
967.4793	2399.4627	1648.2	766.25
967.6097	2400.8547	1641	761.35
967.7399	2402.246	1654.75	769.55
967.8702	2403.6366	1641.7	761
968.0004	2405.0265	1645.65	764.7
968.1306	2406.4156	1642.5	758.55
968.2607	2407.8041	1639.5	756.9
968.3909	2409.1918	1628.75	745.25
968.521	2410.5789	1638.6	758.95
968.651	2411.9652	1631.55	750.5
968.781	2413.3508	1624	745.6
968.911	2414.7358	1623.3	743.45
969.041	2416.12	1623.5	743.7
969.1709	2417.5035	1625.55	747.3
969.3008	2418.8863	1612.4	731.9
969.4307	2420.2684	1611.15	731.15
969.5606	2421.6497	1617.3	735.85
969.6904	2423.0304	1603.05	722.9
969.8201	2424.4104	1605	724.85
969.9499	2425.7896	1605.15	718.15
970.0796	2427.1682	1608.2	727.45
970.2093	2428.546	1610.45	729.45
970.3389	2429.9232	1605.15	724.65
970.4685	2431.2996	1595.1	717.05
970.5981	2432.6753	1588.45	709.5
970.7277	2434.0503	1592.15	711.45
970.8572	2435.4246	1592.45	711.3
970.9867	2436.7982	1588.8	704.7
971.1161	2438.1711	1586.05	706.5
971.2456	2439.5433	1584.9	703.7
971.375	2440.9148	1581.5	696.2
971.5043	2442.2856	1582.8	704.6
971.6336	2443.6557	1580.6	698.9
971.7629	2445.025	1574.3	693.8
971.8922	2446.3937	1579.05	697.6
972.0214	2447.7617	1571.05	689.5
972.1506	2449.1289	1572	692.45
972.2798	2450.4955	1567.05	683.6
972.4089	2451.8613	1561.05	682.35
972.538	2453.2265	1566.3	684.85
972.6671	2454.5909	1564.15	684.2
972.7961	2455.9546	1561.4	680.95
972.9251	2457.3177	1569.55	691.7
973.0541	2458.68	1558.4	675.85
973.1831	2460.0416	1558.05	677.6
973.312	2461.4025	1568.2	684.9
973.4408	2462.7627	1563.4	668.6
973.5697	2464.1222	1554.75	674.6
973.6985	2465.4811	1561.05	679.35
973.8273	2466.8392	1549.85	669.15
973.956	2468.1966	1548	666
974.0847	2469.5533	1560.8	680.4
974.2134	2470.9093	1553.8	672.1
974.3421	2472.2645	1557.5	674.25
974.4707	2473.6191	1542.45	663.6
974.5993	2474.973	1547	666.75
974.7278	2476.3262	1546.85	662.4
974.8563	2477.6787	1539.55	660.1
974.9848	2479.0305	1532.45	651.45
975.1132	2480.3816	1534.9	652.45
975.2417	2481.7319	1531.5	651.75
975.37	2483.0816	1536.8	652.6
975.4984	2484.4306	1531.65	649.35
975.6267	2485.7789	1532.5	652.8
975.755	2487.1264	1528.65	647.45
975.8833	2488.4733	1514.6	636.4
976.0115	2489.8195	1535.05	636.7
976.1397	2491.165	1521.5	638.85
976.2678	2492.5097	1521.4	637.6
976.3959	2493.8538	1514.75	633.05
976.524	2495.1972	1510.75	628.7
976.6521	2496.5398	1511.65	629.3
976.7801	2497.8818	1513.45	631.8
976.9081	2499.2231	1503.35	621.7
977.036	2500.5637	1508.05	627.7
977.164	2501.9035	1500.7	618.2
977.2918	2503.2427	1503.5	619.95
977.4197	2504.5812	1502.95	625.05
977.5475	2505.919	1503.55	618.8
977.6753	2507.256	1500.95	621.1
977.8031	2508.5924	1492.7	612
977.9308	2509.9281	1501.3	612.75
978.0585	2511.2631	1496.5	615.95
978.1861	2512.5974	1492.7	614
978.3137	2513.9309	1493.45	611.7
978.4413	2515.2638	1512.3	604.9
978.5689	2516.596	1489.8	610.8
978.6964	2517.9275	1488.8	606.5
978.8239	2519.2583	1480.2	600.6
978.9513	2520.5884	1479.7	597.75
979.0788	2521.9178	1480.6	598.65
979.2062	2523.2465	1474.95	594.55
979.3335	2524.5745	1476.85	596.5
979.4608	2525.9018	1473.1	592.25
979.5881	2527.2284	1470.05	591.7
979.7154	2528.5543	1476.3	597.55
979.8426	2529.8796	1481.3	600.05
979.9698	2531.2041	1472.95	593.85
980.0969	2532.5279	1468.6	590.25
980.224	2533.851	1466.95	585.3
980.3511	2535.1735	1466.2	585.1
980.4781	2536.4952	1463.45	581.9
980.6052	2537.8163	1472.3	592.6
980.7321	2539.1366	1464	583.25
980.8591	2540.4562	1465.15	584.65
980.986	2541.7752	1458.9	578.55
981.1129	2543.0935	1463.1	581.85
981.2397	2544.411	1452.2	570.3
981.3665	2545.7279	1456.4	576.7
981.4933	2547.0441	1450.8	570.65
981.62	2548.3596	1457.45	575.05
981.7467	2549.6744	1451.6	569.95
981.8734	2550.9885	1457.95	568.85
982.0001	2552.3019	1445.95	565.25
982.1267	2553.6146	1450.65	569.2
982.2532	2554.9266	1447.9	568.45
982.3798	2556.2379	1439.35	557.3
982.5063	2557.5485	1437.2	558.7
982.6327	2558.8585	1449.65	561.55
982.7592	2560.1677	1442.95	559.65
982.8856	2561.4762	1439.6	561.15
983.0119	2562.7841	1445.9	560.65
983.1383	2564.0913	1436.7	559.1
983.2646	2565.3977	1434.35	555.3
983.3908	2566.7035	1428.95	547.25
983.517	2568.0086	1438	557.8
983.6432	2569.313	1434.05	552.7
983.7694	2570.6167	1427.75	544.1
983.8955	2571.9197	1431.35	551.9
984.0216	2573.222	1432.45	548.45
984.1476	2574.5236	1426	544.65
984.2737	2575.8246	1427.3	541.45
984.3996	2577.1248	1432.65	549.85
984.5256	2578.4244	1429.75	551.2
984.6515	2579.7232	1426.35	545.4
984.7774	2581.0214	1467.1	552.1
984.9032	2582.3189	1427.75	548.3
985.029	2583.6157	1437.65	552.95
985.1548	2584.9118	1431.15	551.5
985.2806	2586.2072	1437.3	556.55
985.4063	2587.5019	1431.65	553
985.5319	2588.7959	1432.5	550.2
985.6576	2590.0893	1430.15	548.85
985.7832	2591.3819	1437	557.05
985.9087	2592.6739	1439.1	560.65
986.0343	2593.9652	1440.25	558.55
986.1597	2595.2557	1435.1	555
986.2852	2596.5456	1439.25	557.05
986.4106	2597.8348	1440.65	562.55
986.536	2599.1234	1439.8	560.5
986.6614	2600.4112	1440.65	559.5
986.7867	2601.6983	1447.55	563.5
986.912	2602.9848	1435.9	556.4
987.0372	2604.2705	1450.25	563.1
987.1624	2605.5556	1438.1	556.15
987.2876	2606.84	1438.8	560.55
987.4128	2608.1237	1435.4	552.75
987.5379	2609.4067	1432.95	551.8
987.6629	2610.689	1435.3	546.2
987.788	2611.9707	1433.7	551.6
987.913	2613.2516	1431.5	548.15
988.0379	2614.5319	1426.05	547.35
988.1629	2615.8115	1424.15	541.8
988.2878	2617.0903	1417.6	536.3
988.4126	2618.3685	1423	541.45
988.5375	2619.6461	1423.9	543.9
988.6622	2620.9229	1414	531.9
988.787	2622.199	1420.3	538.05
988.9117	2623.4745	1419.5	538.6
989.0364	2624.7493	1413.25	533.35
989.161	2626.0234	1416.75	536.3
989.2857	2627.2968	1420.6	539.9
989.4102	2628.5695	1415.05	532.45
989.5348	2629.8415	1416.6	538.3
989.6593	2631.1128	1415.5	531.9
989.7837	2632.3835	1421.8	539.65
989.9082	2633.6535	1415.8	536.2
990.0326	2634.9228	1424.15	544.85
990.1569	2636.1914	1418.9	539.75
990.2812	2637.4593	1415.2	533.65
990.4055	2638.7265	1418.9	538
990.5298	2639.9931	1412.9	530.5
990.654	2641.259	1413.05	532
990.7782	2642.5242	1411.7	530.05
990.9023	2643.7887	1408.85	528.15
991.0264	2645.0525	1403.15	524.15
991.1505	2646.3156	1405.95	526.4
991.2745	2647.5781	1400.3	519.1
991.3985	2648.8398	1398	517.1
991.5225	2650.1009	1435.55	516.9
991.6464	2651.3613	1398.9	519.95
991.7703	2652.6211	1401.6	520.2
991.8942	2653.8801	1390.95	511.6
992.018	2655.1385	1397.6	515.5
992.1418	2656.3961	1401.4	520.8
992.2655	2657.6531	1398.65	519.4
992.3892	2658.9094	1395.2	515.3
992.5129	2660.1651	1397.35	517.6
992.6366	2661.42	1398.05	518.7
992.7602	2662.6743	1401.75	520.15
992.8837	2663.9279	1403.95	525
993.0073	2665.1808	1403.75	520.55
993.1307	2666.433	1406.45	523.8
993.2542	2667.6846	1404.7	523.6
993.3776	2668.9354	1405.05	521.7
993.501	2670.1856	1404.05	525.3
993.6244	2671.4351	1404.5	522.55
993.7477	2672.6839	1407.35	526.95
993.8709	2673.9321	1413.25	533.25
993.9942	2675.1795	1413.3	533.2
994.1174	2676.4263	1423.9	544.5
994.2405	2677.6724	1411.7	529.1
994.3637	2678.9179	1417.4	535
994.4868	2680.1626	1419.3	537.6
994.6098	2681.4067	1422.3	543.05
994.7328	2682.6501	1420.35	539.7
994.8558	2683.8928	1421.75	541.25
994.9788	2685.1348	1414.35	536.7
995.1017	2686.3761	1408.75	526.35
995.2245	2687.6168	1413.7	534.1
995.3474	2688.8568	1405.65	524.15
995.4702	2690.0961	1408.4	531.55
995.5929	2691.3348	1403.6	521.45
995.7156	2692.5727	1393.75	513.25
995.8383	2693.81	1398.3	516.8
995.961	2695.0466	1390.8	510
996.0836	2696.2826	1395.4	514.65
996.2062	2697.5178	1403.9	520.2
996.3287	2698.7524	1388.45	509
996.4512	2699.9863	1400.05	518
996.5737	2701.2195	1399.05	519.5
996.6961	2702.452	1403.5	523.9
996.8185	2703.6839	1408.35	527.45
996.9408	2704.9151	1407.9	527.95
997.0631	2706.1456	1413.85	534.65
997.1854	2707.3755	1412.8	531.9
997.3077	2708.6046	1426.55	543
997.4299	2709.8331	1428.95	547.5
997.552	2711.0609	1444.5	564.6
997.6742	2712.2881	1450.85	570.75
997.7963	2713.5145	1465.55	582.85
997.9183	2714.7403	1472.4	593.45
998.0403	2715.9654	1485	605.1
998.1623	2717.1899	1505.45	609.6
998.2842	2718.4136	1508.4	629.3
998.4062	2719.6367	1516.6	634.8
998.528	2720.8591	1524.5	635.5
998.6498	2722.0809	1535.05	654.1
998.7716	2723.3019	1542.8	658.55
998.8934	2724.5223	1560.1	678.75
999.0151	2725.7421	1552.55	669.75
999.1368	2726.9611	1555.85	671.8
999.2584	2728.1795	1553.4	669.45
999.38	2729.3972	1548.8	667.95
999.5016	2730.6142	1556.15	661.7
999.6231	2731.8306	1529	647.15
999.7446	2733.0462	1517.8	636.15
999.8661	2734.2612	1497.25	611.6
999.9875	2735.4756	1486.3	605.05
1000.1089	2736.6892	1465.35	584.05
1000.2302	2737.9022	1445.75	565.6
1000.3515	2739.1145	1437.85	556.25
1000.4728	2740.3262	1435.85	547.75
1000.594	2741.5372	1414.5	533.45
1000.7152	2742.7475	1404.4	522.6
1000.8363	2743.9571	1394.85	511.05
1000.9575	2745.1661	1386.9	501.15
1001.0785	2746.3744	1375.1	494.65
1001.1996	2747.582	1367.7	487.5
1001.3206	2748.7889	1361.05	477.85
1001.4415	2749.9952	1348.45	467.35
1001.5625	2751.2008	1343.8	461.85
1001.6833	2752.4057	1345.95	462.2
1001.8042	2753.61	1338.05	457.45
1001.925	2754.8136	1338.95	457.3
1002.0458	2756.0165	1344.1	464.15
1002.1665	2757.2188	1338.35	459.5
1002.2872	2758.4204	1340.5	458.55
1002.4078	2759.6213	1338	454.05
1002.5285	2760.8215	1347.05	460.35
1002.649	2762.0211	1341.05	460.55
1002.7696	2763.22	1341.5	458.75
1002.8901	2764.4182	1337.1	456.3
1003.0106	2765.6158	1333.55	451.05
1003.131	2766.8127	1328.5	447.8
1003.2514	2768.009	1328.65	446.9
1003.3717	2769.2045	1323.65	442.55
1003.492	2770.3994	1324.85	441.25
1003.6123	2771.5936	1324.95	442.3
1003.7325	2772.7872	1313.3	433.8
1003.8527	2773.9801	1310.1	428.2
1003.9729	2775.1723	1337.65	441.05
1004.093	2776.3639	1315.4	434.1
1004.2131	2777.5548	1316.5	432.6
1004.3331	2778.745	1318.75	436.45
1004.4531	2779.9346	1326.3	446.25
1004.5731	2781.1235	1326.6	443.05
1004.693	2782.3117	1329.6	449.6
1004.8129	2783.4992	1330.05	450.5
1004.9328	2784.6861	1342.1	462.75
1005.0526	2785.8723	1345.7	464.1
1005.1723	2787.0579	1346.1	464.35
1005.2921	2788.2428	1357.95	477.4
1005.4118	2789.427	1359.7	478.9
1005.5314	2790.6106	1379.05	497.85
1005.651	2791.7935	1389.3	507.3
1005.7706	2792.9757	1394.05	513.35
1005.8902	2794.1573	1401.3	519.9
1006.0097	2795.3382	1420.8	539.8
1006.1291	2796.5184	1427.65	547.4
1006.2485	2797.698	1452.4	568.45
1006.3679	2798.8769	1472.15	590.6
1006.4873	2800.0551	1489.3	607.1
1006.6066	2801.2327	1507.15	622.65
1006.7258	2802.4096	1524.7	645.55
1006.8451	2803.5859	1542.6	661.4
1006.9642	2804.7615	1574.25	692.5
1007.0834	2805.9364	1590.75	711.6
1007.2025	2807.1106	1613.3	732.6
1007.3216	2808.2842	1649.9	768.9
1007.4406	2809.4572	1692.05	811
1007.5596	2810.6294	1726.35	845.05
1007.6785	2811.801	1760.9	879.85
1007.7975	2812.972	1806.85	926.4
1007.9163	2814.1423	1844.95	963.95
1008.0352	2815.3119	1894.35	1014.75
1008.154	2816.4808	1945.2	1065.3
1008.2727	2817.6491	1989.25	1108.5
1008.3914	2818.8167	2041	1160.65
1008.5101	2819.9837	2097.75	1213.25
1008.6288	2821.15	2130.95	1251.6
1008.7474	2822.3157	2169.65	1290.85
1008.8659	2823.4807	2237.35	1357.85
1008.9844	2824.645	2280.7	1399.7
1009.1029	2825.8086	2321.9	1442.5
1009.2214	2826.9716	2357.25	1478.95
1009.3398	2828.134	2400.3	1519.9
1009.4581	2829.2957	2434	1553.65
1009.5764	2830.4567	2457.35	1577
1009.6947	2831.617	2484.95	1604.2
1009.813	2832.7767	2504.2	1624.6
1009.9312	2833.9358	2493.2	1614.9
1010.0493	2835.0941	2490.65	1609
1010.1675	2836.2519	2479.6	1599.55
1010.2855	2837.4089	2460.4	1579.8
1010.4036	2838.5653	2458.25	1578.55
1010.5216	2839.7211	2452.15	1572.05
1010.6396	2840.8761	2470.35	1587.05
1010.7575	2842.0306	2480.7	1601.05
1010.8754	2843.1843	2520.6	1639.7
1010.9932	2844.3374	2570.1	1689.9
1011.111	2845.4899	2617.35	1736.25
1011.2288	2846.6417	2696.75	1818.25
1011.3465	2847.7928	2768.8	1890.75
1011.4642	2848.9433	2849.75	1968.8
1011.5818	2850.0931	2929.95	2050.1
1011.6995	2851.2422	3010.35	2127.2
1011.817	2852.3907	3091.65	2208.7
1011.9345	2853.5385	3157	2275.35
1012.052	2854.6857	3228.1	2320.4
1012.1695	2855.8323	3260.8	2381.05
1012.2869	2856.9781	3299.6	2419.25
1012.4042	2858.1233	3363.6	2483.1
1012.5216	2859.2679	3391.9	2511.85
1012.6389	2860.4118	3447.2	2565.35
1012.7561	2861.555	3502.2	2616.05
1012.8733	2862.6976	3533.9	2650.45
1012.9905	2863.8395	3568.2	2689.25
1013.1076	2864.9808	3589.85	2708.65
1013.2247	2866.1214	3597.65	2720.05
1013.3417	2867.2614	3626.05	2745.3
1013.4587	2868.4007	3625.9	2743.8
1013.5757	2869.5393	3638.3	2756.2
1013.6926	2870.6773	3661.15	2777.85
1013.8095	2871.8146	3665.75	2782.65
1013.9263	2872.9513	3674.25	2791.8
1014.0431	2874.0874	3673	2794.3
1014.1599	2875.2227	3669.1	2786.1
1014.2766	2876.3574	3646.8	2767
1014.3933	2877.4915	3612.4	2729.6
1014.51	2878.6249	3600.1	2719.9
1014.6266	2879.7577	3566.35	2684.4
1014.7431	2880.8898	3555.35	2661.95
1014.8596	2882.0212	3546.35	2668.95
1014.9761	2883.152	3508.5	2627.1
1015.0925	2884.2821	3521.35	2641.5
1015.2089	2885.4116	3513.4	2635.1
1015.3253	2886.5405	3500.8	2619.4
1015.4416	2887.6686	3512.8	2629.1
1015.5579	2888.7962	3510.2	2629.6
1015.6741	2889.923	3507.45	2629.95
1015.7903	2891.0493	3540.25	2659.15
1015.9065	2892.1748	3536.9	2655.75
1016.0226	2893.2997	3552.5	2671.1
1016.1387	2894.424	3568.5	2690.65
1016.2547	2895.5476	3595.7	2712.85
1016.3707	2896.6706	3620.75	2739.95
1016.4866	2897.7929	3651.9	2767.5
1016.6025	2898.9145	3673.35	2793.2
1016.7184	2900.0355	3701.6	2820.7
1016.8342	2901.1559	3735.45	2853.4
1016.95	2902.2756	3764.25	2884.8
1017.0658	2903.3946	3811.5	2928.75
1017.1815	2904.513	3835.85	2952.75
1017.2971	2905.6308	3865.15	2985
1017.4127	2906.7479	3895.1	3011.95
1017.5283	2907.8643	3896.75	3015.15
1017.6439	2908.9801	3926.85	3045.1
1017.7594	2910.0953	3933.95	3053.2
1017.8748	2911.2098	3943.75	3061.5
1017.9902	2912.3236	3931.15	3042.35
1018.1056	2913.4368	3916.75	3034.25
1018.2209	2914.5494	3909	3028.15
1018.3362	2915.6613	3878.95	2992.4
1018.4515	2916.7725	3851.4	2967.8
1018.5667	2917.8831	3824.6	2941.95
1018.6819	2918.9931	3790.35	2905.35
1018.797	2920.1024	3754.4	2873.15
1018.9121	2921.211	3740.55	2860.1
1019.0271	2922.319	3722.6	2842.3
1019.1421	2923.4264	3694.1	2812.7
1019.2571	2924.5331	3693.45	2813.85
1019.372	2925.6391	3683.45	2804.45
1019.4869	2926.7445	3681.65	2800.25
1019.6017	2927.8493	3669.75	2790
1019.7165	2928.9534	3667.15	2785.45
1019.8313	2930.0569	3653.35	2770.4
1019.946	2931.1597	3644.3	2762.3
1020.0606	2932.2619	3632.95	2751.35
1020.1753	2933.3634	3631.85	2752.85
1020.2899	2934.4643	3625	2736.95
1020.4044	2935.5645	3596.15	2710.15
1020.5189	2936.6641	3558.5	2674.55
1020.6334	2937.763	3530	2650.15
1020.7478	2938.8613	3477.35	2596.5
1020.8622	2939.959	3424.15	2538.3
1020.9765	2941.056	3347.1	2466.75
1021.0908	2942.1523	3246.1	2363.3
1021.2051	2943.248	3180.95	2299.1
1021.3193	2944.3431	3070.85	2192.1
1021.4334	2945.4375	2971.85	2091.75
1021.5476	2946.5313	2868.15	1989.95
1021.6617	2947.6244	2771.6	1891.55
1021.7757	2948.7169	2668.4	1786.95
1021.8897	2949.8087	2573.4	1694.1
1022.0037	2950.8999	2483.5	1601.85
1022.1176	2951.9904	2403.25	1524.05
1022.2315	2953.0803	2336.85	1455.25
1022.3453	2954.1696	2273.9	1393.45
1022.4591	2955.2582	2215.5	1334.85
1022.5728	2956.3462	2159.05	1277.6
1022.6865	2957.4335	2132.8	1252.3
1022.8002	2958.5202	2094.45	1210.5
1022.9138	2959.6062	2063.45	1184
1023.0274	2960.6916	2042.35	1161.35
1023.141	2961.7764	2023.3	1141.2
1023.2545	2962.8605	2012.5	1131.2
1023.3679	2963.9439	2001.4	1121.8
1023.4813	2965.0267	1993.2	1111.35
1023.5947	2966.1089	2002.2	1098.65
1023.708	2967.1905	1972.5	1091.3
1023.8213	2968.2714	1970.1	1090.05
1023.9346	2969.3516	1978.8	1097.85
1024.0478	2970.4312	1984.5	1098
1024.1609	2971.5102	1976.2	1097.7
1024.274	2972.5885	1968.9	1089.75
1024.3871	2973.6662	1978.65	1092.15
1024.5002	2974.7432	1976.35	1097.7
1024.6132	2975.8196	1966.45	1086
1024.7261	2976.8954	1963.45	1084.45
1024.839	2977.9705	1940.05	1059.35
1024.9519	2979.045	1931.35	1050.2
1025.0647	2980.1188	1914.2	1033.8
1025.1775	2981.192	1901.85	1023.25
1025.2902	2982.2645	1861.7	982.5
1025.4029	2983.3364	1850.55	971.35
1025.5156	2984.4077	1819.65	938.85
1025.6282	2985.4783	1795.25	910.85
1025.7407	2986.5483	1762	882.95
1025.8532	2987.6177	1730.15	850.7
1025.9657	2988.6864	1696.8	814.95
1026.0782	2989.7545	1661	779.3
1026.1906	2990.8219	1626.35	747.55
1026.3029	2991.8887	1596.95	712.8
1026.4152	2992.9548	1565.65	686.85
1026.5275	2994.0204	1533.45	655.4
1026.6397	2995.0852	1506.3	627.8
1026.7519	2996.1495	1485.9	604.55
1026.864	2997.2131	1461.2	581.15
1026.9761	2998.276	1440.25	560.85
1027.0882	2999.3383	1420	538.95
1027.2002	3000.4	1397.75	516.15
1027.3122	3001.4611	1387.65	507.35
1027.4241	3002.5215	1367.7	486.85
1027.536	3003.5812	1357.85	479
1027.6478	3004.6404	1342.7	463.4
1027.7596	3005.6989	1336	451.35
1027.8714	3006.7567	1327.15	447.05
1027.9831	3007.8139	1346.35	438.7
1028.0947	3008.8705	1314.4	432.6
1028.2064	3009.9264	1310.8	427.35
1028.3179	3010.9818	1308.6	427.8
1028.4295	3012.0364	1299.5	419.95
1028.541	3013.0905	1295.45	412.8
1028.6524	3014.1439	1301.55	420.65
1028.7638	3015.1966	1294.3	414.35
1028.8752	3016.2487	1292.9	412.8
1028.9865	3017.3002	1295.65	412.85
1029.0978	3018.3511	1292.7	412.55
1029.209	3019.4013	1290.8	410.4
1029.3202	3020.4509	1294.1	415.4
1029.4314	3021.4998	1298.7	417.15
1029.5425	3022.5481	1296.3	416.35
1029.6535	3023.5958	1288.5	409.05
1029.7645	3024.6428	1298.5	416.3
1029.8755	3025.6892	1295.1	416.15
1029.9864	3026.735	1301.75	418.65
1030.0973	3027.7802	1301.4	419.6
1030.2082	3028.8247	1308.85	429.95
1030.319	3029.8685	1303.6	421.55
1030.4297	3030.9118	1307.25	426
1030.5404	3031.9544	1315.65	437.95
1030.6511	3032.9963	1319.7	440.05
1030.7617	3034.0376	1322.3	444.4
1030.8723	3035.0783	1331.25	447.4
1030.9829	3036.1184	1336	451.6
1031.0934	3037.1578	1334.25	452.9
1031.2038	3038.1966	1344	460.55
1031.3142	3039.2348	1341.3	461.15
1031.4246	3040.2723	1343.75	453.7
1031.5349	3041.3092	1340.75	462.9
1031.6452	3042.3455	1337.65	458.75
1031.7554	3043.3811	1335.4	455.05
1031.8656	3044.4161	1329.55	449.45
1031.9758	3045.4505	1328.25	449.85
1032.0859	3046.4842	1326.55	445.1
1032.1959	3047.5173	1315.2	435.55
1032.3059	3048.5498	1313.5	433.7
1032.4159	3049.5816	1304.4	425.25
1032.5258	3050.6128	1298.2	416.5
1032.6357	3051.6434	1290.25	408.35
1032.7455	3052.6734	1290.7	410.15
1032.8553	3053.7027	1279.2	398.3
1032.9651	3054.7314	1272.35	393.65
1033.0748	3055.7594	1269.55	389.5
1033.1845	3056.7868	1265	381.75
1033.2941	3057.8136	1259.1	379.55
1033.4037	3058.8398	1261.4	380.55
1033.5132	3059.8653	1248.45	369.85
1033.6227	3060.8902	1243.45	363.95
1033.7321	3061.9145	1233.25	353.45
1033.8415	3062.9381	1231.65	351.85
1033.9509	3063.9612	1246	350.1
1034.0602	3064.9835	1219.65	336.95
1034.1694	3066.0053	1216.65	334.7
1034.2787	3067.0264	1209.65	328.5
1034.3878	3068.0469	1201.35	320.1
1034.497	3069.0668	1196.65	313.15
1034.6061	3070.086	1190.3	311.95
1034.7151	3071.1046	1180.65	296.55
1034.8241	3072.1226	1177.05	297.1
1034.9331	3073.1399	1162.6	282.55
1035.042	3074.1567	1156.9	275.6
1035.1508	3075.1727	1150.05	270.45
1035.2597	3076.1882	1134.4	253.4
1035.3684	3077.203	1122.45	242.2
1035.4772	3078.2173	1120.8	238.1
1035.5859	3079.2308	1111.3	227.5
1035.6945	3080.2438	1109.2	228.25
1035.8031	3081.2561	1099.95	220.55
1035.9117	3082.2678	1092.5	211.9
1036.0202	3083.2789	1084.5	204.75
1036.1286	3084.2893	1075	195.15
1036.2371	3085.2991	1074.45	194
1036.3454	3086.3083	1074.45	189.75
1036.4538	3087.3169	1065.15	184.65
1036.562	3088.3248	1057.5	175
1036.6703	3089.3321	1057.6	173.75
1036.7785	3090.3388	1052.9	174.5
1036.8866	3091.3449	1048.65	167.55
1036.9948	3092.3503	1044	161.9
1037.1028	3093.3551	1037.9	158.5
1037.2108	3094.3593	1035.95	156.85
1037.3188	3095.3629	1033.05	153.4
1037.4267	3096.3658	1028.8	147.4
1037.5346	3097.3681	1027.65	147.3
1037.6425	3098.3698	1027.25	146.2
1037.7503	3099.3708	1029.9	141.3
1037.858	3100.3713	1022.45	143.65
1037.9657	3101.3711	1021.65	137.65
1038.0734	3102.3702	1158.15	141.35
1038.181	3103.3688	1018.6	136.15
1038.2886	3104.3667	1013.6	133.85
1038.3961	3105.364	1010.05	129.5
1038.5036	3106.3607	1010.35	127.45
1038.611	3107.3568	1010.5	130.2
1038.7184	3108.3522	1007.05	127.65
1038.8257	3109.347	1006.6	126.7
1038.933	3110.3412	1013.1	131.15
1039.0403	3111.3348	1003.75	125.15
1039.1475	3112.3277	1006	125.85
1039.2547	3113.32	1000.8	120.6
1039.3618	3114.3117	998.1	116.4
1039.4689	3115.3028	999.65	119.55
1039.5759	3116.2932	1000.6	119.15
1039.6829	3117.2831	1003.6	115.85
1039.7898	3118.2723	994.7	115.15
1039.8967	3119.2608	995.85	114.85
1040.0035	3120.2488	991	110.5
1040.1103	3121.2361	992.5	109.85
1040.2171	3122.2229	990.7	110.05
1040.3238	3123.209	990.55	109.65
1040.4305	3124.1944	991.75	111.85
1040.5371	3125.1793	991.95	110
1040.6437	3126.1635	987.85	108.95
1040.7502	3127.1471	985.8	105.65
1040.8567	3128.1301	986.55	105.85
1040.9631	3129.1125	986.5	104.35
1041.0695	3130.0942	986.85	107.45
1041.1759	3131.0753	989.65	103
1041.2822	3132.0558	982.4	98.9
1041.3884	3133.0357	978.15	96.8
1041.4946	3134.015	979.9	99.5
1041.6008	3134.9936	978.1	96
1041.7069	3135.9716	995.85	92.3
1041.813	3136.949	975.95	96.15
1041.919	3137.9258	994.15	96.25
1042.025	3138.902	980.9	95.2
1042.1309	3139.8775	974.75	95.9
1042.2368	3140.8524	971	90.6
1042.3427	3141.8267	975.5	93
1042.4485	3142.8004	973.1	91.45
1042.5542	3143.7735	976.05	86.8
1042.6599	3144.7459	970.15	89.7
1042.7656	3145.7178	968.45	88.3
1042.8712	3146.689	964.75	85.7
1042.9768	3147.6596	965.4	83.95
1043.0823	3148.6295	966.5	87.35
1043.1878	3149.5989	965.35	85.55
1043.2932	3150.5676	964.8	84.65
1043.3986	3151.5357	963.7	85.1
1043.5039	3152.5032	963.45	83.65
1043.6092	3153.4701	962	80.25
1043.7145	3154.4364	960.8	77.4
1043.8197	3155.402	962.2	83.9
1043.9248	3156.367	961.55	79.85
1044.03	3157.3315	997.05	81.25
1044.135	3158.2952	958.9	76.5
1044.24	3159.2584	954.35	74.9
1044.345	3160.221	957.4	75.65
1044.4499	3161.1829	958.55	76.95
1044.5548	3162.1442	957.35	77.6
1044.6596	3163.105	955.9	76.05
1044.7644	3164.065	954.25	73.1
1044.8692	3165.0245	955.2	72.9
1044.9739	3165.9834	953.7	76.4
1045.0785	3166.9416	954.5	76.8
1045.1831	3167.8993	951.5	69.6
1045.2877	3168.8563	955.35	72.55
1045.3922	3169.8127	952.55	72.4
1045.4966	3170.7684	948.8	68.85
1045.6011	3171.7236	950.4	68.1
1045.7054	3172.6782	947.45	68.05
1045.8098	3173.6321	953.2	72.1
1045.914	3174.5854	955.55	69.85
1046.0183	3175.5381	948.85	69.8
1046.1224	3176.4902	949.1	68.2
1046.2266	3177.4417	944.75	65.4
1046.3307	3178.3926	944.1	65.1
1046.4347	3179.3428	944.5	66.3
1046.5387	3180.2924	945.9	67.45
1046.6427	3181.2415	945.35	63.4
1046.7466	3182.1899	944.35	62.15
1046.8504	3183.1377	943.1	62.95
1046.9542	3184.0848	946.65	61.8
1047.058	3185.0314	945.65	65.4
1047.1617	3185.9773	943.85	64.35
1047.2654	3186.9227	943.95	62.65
1047.369	3187.8674	942.1	60.1
1047.4726	3188.8115	947.45	64.1
1047.5761	3189.755	939.7	58.95
1047.6796	3190.6979	943.3	63.55
1047.783	3191.6402	940.35	59.95
1047.8864	3192.5818	941.55	61.15
1047.9898	3193.5229	968.6	60.35
1048.0931	3194.4633	941.5	62.65
1048.1963	3195.4031	940.05	59.75
1048.2995	3196.3423	939.85	59.75
1048.4027	3197.2809	935.85	55.6
1048.5058	3198.2189	941.95	59.75
1048.6089	3199.1563	956.3	58.65
1048.7119	3200.0931	938.6	57.2
1048.8148	3201.0292	937.1	58.95
1048.9178	3201.9648	938.15	58.3
1049.0206	3202.8997	938.9	54.15
1049.1235	3203.834	937.4	58.45
1049.2262	3204.7677	935.65	57.6
1049.329	3205.7008	936.9	55.75
1049.4317	3206.6333	932.95	52.35
1049.5343	3207.5652	936.9	56.95
1049.6369	3208.4964	935.75	55.95
1049.7394	3209.4271	933.1	51.85
1049.8419	3210.3571	934.5	54.8
1049.9444	3211.2865	932.05	52
1050.0468	3212.2154	937.7	55.35
1050.1491	3213.1436	938.5	56.15
1050.2514	3214.0712	941.4	54.15
1050.3537	3214.9982	934.35	55.25
1050.4559	3215.9246	934.3	51.5
1050.5581	3216.8503	931.55	51.8
1050.6602	3217.7755	931.9	51.55
1050.7623	3218.7001	932.75	52
1050.8643	3219.624	931.5	53.7
1050.9663	3220.5473	933.7	52.8
1051.0682	3221.4701	932.8	49.65
1051.1701	3222.3922	933.6	53.75
1051.2719	3223.3137	931	51.45
1051.3737	3224.2346	929	48.05
1051.4754	3225.1549	931.15	52.45
1051.5771	3226.0746	930.8	52.95
1051.6788	3226.9937	928.5	48.9
1051.7804	3227.9121	926.8	47.4
1051.8819	3228.83	927.3	48.05
1051.9834	3229.7473	929.4	47.9
1052.0849	3230.6639	931.35	49.7
1052.1863	3231.5799	927.95	47.7
1052.2876	3232.4954	930.15	47.4
1052.3889	3233.4102	926.05	46.1
1052.4902	3234.3244	928.85	48.45
1052.5914	3235.238	928.8	51.05
1052.6926	3236.151	955.3	51.35
1052.7937	3237.0634	926.6	47.5
1052.8948	3237.9752	926.85	47.7
1052.9958	3238.8864	926	46.4
1053.0968	3239.797	925.5	45.05
1053.1977	3240.7069	925.85	44.8
1053.2986	3241.6163	924.65	43.95
1053.3994	3242.5251	926.7	47
1053.5002	3243.4332	925.55	48.1
1053.6009	3244.3408	925.05	44.95
1053.7016	3245.2477	923.6	44.4
1053.8022	3246.154	924.1	44.65
1053.9028	3247.0598	925.25	43.7
1054.0034	3247.9649	922.35	43.4
1054.1039	3248.8694	922.05	41.1
1054.2043	3249.7733	922	42.7
1054.3047	3250.6766	921.7	41.2
1054.4051	3251.5793	922.3	41.5
1054.5054	3252.4814	920.3	40.9
1054.6056	3253.3829	921.5	42.4
1054.7058	3254.2838	920.6	39.95
1054.806	3255.1841	917.6	39.2
1054.9061	3256.0838	921	40.9
1055.0061	3256.9829	916.95	39.65
1055.1062	3257.8814	921.9	39.45
1055.2061	3258.7792	920.8	40.55
1055.306	3259.6765	916.45	34.85
1055.4059	3260.5731	917.2	37.95
1055.5057	3261.4692	916.5	37.15
1055.6055	3262.3647	917	37.4
1055.7052	3263.2595	917.05	35.6
1055.8049	3264.1538	913	34.05
1055.9045	3265.0474	916.85	35.9
1056.0041	3265.9404	912.45	33.4
1056.1036	3266.8329	911.35	31.65
1056.2031	3267.7247	923.25	31.7
1056.3025	3268.616	909.45	30.25
1056.4019	3269.5066	911.1	31.2
1056.5013	3270.3966	912.25	31.4
1056.6005	3271.286	908.75	29.7
