Software Version:	3.9.2.0
Unit SN:	10000200
Spectrometer SN:	6960
Date:	3/14/2024 12:58:11 PM
Data Line Index:	25
Spectral Points:	2048
Integration time (ms):	125
Averages:	20
Delay (ms):	30000
Sequence Number:	1
Processing:	dark subtract
Laser Power (mW):	305
Laser Current (mA):	823
Laser Diode Temp (C):	25
Laser Case Temp (C):	27.9
System Temp (C):	27.9
Spectrometer Temp (C):	25.7
CCD Temp (C):	-0.005
Secondary Temp (C):	20.007
Heatsink Temp (C):	23.741
CCDPCB Temp (C):	37.341
SecondaryPCB Temp (C):	35.095

Wavelength	RamanShift	Raw Counts	Dark Subtracted
787.061	30.1047	419.4	7.45
787.2016	32.3739	417.9	6.8
787.3422	34.6426	418.4	6.05
787.4828	36.9109	421.05	7.05
787.6235	39.1787	425.15	10.05
787.7642	41.4461	431.55	11.7
787.9049	43.7131	434.45	10.45
788.0456	45.9796	437.35	8.3
788.1863	48.2456	443.7	10.65
788.3271	50.5112	446.3	10.2
788.4679	52.7764	452.15	13.05
788.6087	55.0411	454.3	12.9
788.7496	57.3054	462.05	16.6
788.8904	59.5692	465.4	15.95
789.0313	61.8326	469.55	17
789.1722	64.0955	476.35	18.85
789.3132	66.3579	481	19.35
789.4541	68.6199	487.6	22.85
789.5951	70.8815	497.5	29.35
789.7361	73.1426	509.7	37.75
789.8771	75.4032	542.95	66.3
790.0181	77.6634	614.7	131.5
790.1592	79.9231	772.8	287.1
790.3003	82.1824	1108.85	615.35
790.4414	84.4412	1666.15	1162.6
790.5825	86.6995	2428.6	1912.9
790.7237	88.9574	3163.75	2634.85
790.8648	91.2148	3700.8	3168.25
791.006	93.4717	3952.5	3411.45
791.1472	95.7282	4029.1	3481.35
791.2885	97.9842	4049.65	3501.9
791.4297	100.2398	4031.7	3481.45
791.571	102.4949	3989.6	3431.9
791.7123	104.7495	3990.45	3426.45
791.8536	107.0036	3945.65	3385.45
791.9949	109.2573	3900.5	3339.75
792.1363	111.5105	3839.1	3277.25
792.2777	113.7632	3770.95	3208.85
792.4191	116.0154	3718.05	3145.05
792.5605	118.2672	3648.55	3081.45
792.7019	120.5185	3568.8	3000.85
792.8434	122.7693	3516.2	2945.85
792.9849	125.0197	3469.35	2897.95
793.1264	127.2696	3417	2842.75
793.2679	129.519	3413.35	2835.65
793.4094	131.7679	3367.05	2786.7
793.551	134.0163	3361.25	2777.95
793.6926	136.2642	3366.85	2777.7
793.8342	138.5117	3349.3	2755.35
793.9758	140.7587	3321.1	2730.4
794.1175	143.0052	3312.9	2719.35
794.2591	145.2512	3269.2	2674
794.4008	147.4967	3226.5	2630.05
794.5425	149.7417	3204.4	2605.6
794.6842	151.9863	3174.55	2574.05
794.826	154.2304	3180.25	2578.05
794.9677	156.4739	3156.45	2546.35
795.1095	158.717	3167	2558
795.2513	160.9596	3191.45	2575.75
795.3931	163.2017	3193.9	2578.95
795.535	165.4433	3198.35	2579.65
795.6768	167.6844	3191.8	2570.2
795.8187	169.925	3175.2	2549.8
795.9606	172.1651	3146.1	2517.55
796.1025	174.4047	3107.2	2475.45
796.2445	176.6439	3060.25	2428.4
796.3864	178.8825	3035	2397.4
796.5284	181.1206	3044	2403.85
796.6704	183.3582	3029.85	2387.6
796.8124	185.5954	3024.35	2382.8
796.9544	187.832	3016.6	2368.3
797.0965	190.0681	3018.9	2368.1
797.2386	192.3037	3013.3	2361.8
797.3806	194.5388	3025.15	2370.85
797.5228	196.7734	3030.2	2370.95
797.6649	199.0075	3047.35	2385.6
797.807	201.2411	3070.75	2405.45
797.9492	203.4742	3068.9	2403.2
798.0914	205.7068	3087	2420.05
798.2336	207.9389	3087.25	2419
798.3758	210.1704	3101.2	2429.7
798.518	212.4015	3102.75	2431.45
798.6603	214.632	3109	2435.55
798.8025	216.862	3102	2433.45
798.9448	219.0915	3090.05	2425.15
799.0871	221.3205	3098	2438.4
799.2294	223.549	3085.65	2433
799.3718	225.777	3092.1	2439.05
799.5141	228.0044	3089.05	2432.4
799.6565	230.2314	3061.6	2412.55
799.7989	232.4578	3044.5	2390.05
799.9413	234.6837	3040.4	2379.25
800.0837	236.909	3046.65	2383.05
800.2262	239.1339	3049.05	2362.9
800.3687	241.3582	3032.9	2360.5
800.5111	243.582	3045.35	2346.1
800.6536	245.8053	3053.2	2360.7
800.7961	248.0281	3035.4	2348.25
800.9387	250.2503	3042.8	2352.3
801.0812	252.472	3055.6	2359.15
801.2238	254.6932	3064	2365.25
801.3664	256.9139	3046.1	2345.2
801.509	259.134	3054.65	2350.4
801.6516	261.3536	3062.6	2358.35
801.7942	263.5727	3103.7	2401.25
801.9369	265.7912	3111.25	2408.7
802.0795	268.0092	3153.05	2449.85
802.2222	270.2267	3178.05	2472.75
802.3649	272.4436	3204.3	2496.1
802.5076	274.6601	3231.65	2513.95
802.6504	276.8759	3236.55	2527.95
802.7931	279.0913	3266.95	2557
802.9359	281.3061	3263.7	2552.2
803.0787	283.5204	3251.65	2536.55
803.2215	285.7341	3275.1	2554.8
803.3643	287.9473	3288.1	2564.95
803.5071	290.16	3286.75	2560.2
803.6499	292.3721	3260.7	2540.5
803.7928	294.5837	3220.5	2499.05
803.9357	296.7947	3212.5	2492
804.0786	299.0052	3201.05	2481
804.2215	301.2152	3188.65	2463.55
804.3644	303.4246	3176.3	2458.4
804.5074	305.6334	3147.05	2423.15
804.6503	307.8418	3136.2	2410
804.7933	310.0495	3121.7	2393.6
804.9363	312.2568	3087	2360.85
805.0793	314.4635	3040.85	2315.9
805.2223	316.6696	3008.3	2280.45
805.3653	318.8752	2987.05	2252
805.5084	321.0802	2942.35	2212.25
805.6514	323.2847	2941.4	2210.4
805.7945	325.4887	2942.65	2211.15
805.9376	327.692	2942.2	2207.6
806.0807	329.8949	2978.95	2245.9
806.2238	332.0972	2992.9	2257.1
806.367	334.2989	3000	2259.45
806.5101	336.5001	3011.2	2272.05
806.6533	338.7007	2975.55	2234.65
806.7965	340.9008	2950.75	2209.35
806.9397	343.1003	2903.8	2158.75
807.0829	345.2992	2886.6	2142.55
807.2261	347.4976	2857.35	2110.25
807.3693	349.6955	2826.6	2074.25
807.5126	351.8927	2822.1	2070.95
807.6559	354.0895	2802.7	2039.65
807.7991	356.2856	2786.5	2032.1
807.9424	358.4812	2779.15	2025.3
808.0857	360.6763	2769.8	2019
808.2291	362.8707	2755.9	2001.6
808.3724	365.0646	2763.5	2005.8
808.5158	367.258	2767.75	2010.15
808.6591	369.4508	2768.9	2007.75
808.8025	371.643	2786.75	2026
808.9459	373.8346	2802.25	2035.75
809.0893	376.0257	2816.7	2050.75
809.2327	378.2162	2835.6	2066.3
809.3762	380.4062	2839.75	2069.45
809.5196	382.5956	2820.35	2047.4
809.6631	384.7844	2799.9	2030.3
809.8066	386.9726	2763.3	1990.6
809.9501	389.1603	2748	1977.55
810.0936	391.3474	2747.95	1945.15
810.2371	393.5339	2717.1	1944.45
810.3806	395.7199	2714.6	1948.2
810.5241	397.9052	2725.95	1962.3
810.6677	400.09	2737.75	1975.05
810.8113	402.2743	2770.4	2005.75
810.9548	404.4579	2788.05	2025.2
811.0984	406.641	2805.3	2040
811.2421	408.8235	2834.85	2066.6
811.3857	411.0054	2878.05	2109.7
811.5293	413.1868	2949.65	2176.35
811.673	415.3675	3005.4	2231.05
811.8166	417.5477	3013.95	2241.15
811.9603	419.7273	2953.8	2177.3
812.104	421.9064	2867.1	2084.95
812.2477	424.0848	2815.05	2033.7
812.3914	426.2627	2758.25	1973.55
812.5351	428.4399	2723.85	1940.7
812.6788	430.6166	2690.4	1907
812.8226	432.7928	2646.75	1857.9
812.9663	434.9683	2609.9	1821.95
813.1101	437.1432	2583.85	1793.95
813.2539	439.3176	2555.6	1765.2
813.3977	441.4914	2542.05	1750.6
813.5415	443.6645	2554.6	1762.05
813.6853	445.8371	2542.5	1749.2
813.8291	448.0091	2543	1753.15
813.973	450.1806	2540.2	1751.3
814.1168	452.3514	2520.85	1725
814.2607	454.5216	2523.5	1717.65
814.4046	456.6913	2509.65	1712.7
814.5485	458.8603	2508.35	1712.95
814.6924	461.0288	2525.95	1731.3
814.8363	463.1967	2516.05	1718.2
814.9802	465.3639	2508.2	1711.1
815.1241	467.5306	2504.8	1707.45
815.2681	469.6967	2493.4	1696.65
815.412	471.8622	2486.75	1686.1
815.556	474.0271	2480.8	1680.75
815.7	476.1914	2468.8	1666.95
815.844	478.3551	2467.55	1670.15
815.988	480.5182	2453.3	1651.55
816.132	482.6807	2461.95	1657.2
816.276	484.8426	2471.95	1669
816.4201	487.0039	2497.85	1697.55
816.5641	489.1647	2523.8	1721.25
816.7082	491.3248	2550.95	1747.6
816.8522	493.4843	2576.95	1776.2
816.9963	495.6432	2568.75	1764.25
817.1404	497.8015	2545.3	1738.45
817.2845	499.9592	2514.95	1710.8
817.4286	502.1163	2482.75	1673.4
817.5727	504.2728	2444.1	1636.2
817.7168	506.4287	2431.75	1624.4
817.861	508.5839	2400.55	1593.3
818.0051	510.7386	2400.8	1592.65
818.1493	512.8927	2418.4	1604.1
818.2935	515.0461	2413.5	1602.6
818.4377	517.199	2423.6	1614.1
818.5818	519.3512	2444.05	1635.05
818.726	521.5029	2485	1666.55
818.8703	523.6539	2514.8	1700.7
819.0145	525.8043	2520.7	1706.8
819.1587	527.9541	2491.85	1674.55
819.303	530.1033	2448.85	1638.25
819.4472	532.2519	2413.2	1597.75
819.5915	534.3999	2393.25	1577.6
819.7357	536.5472	2382.1	1567.65
819.88	538.694	2382	1566.1
820.0243	540.8401	2390.85	1572.2
820.1686	542.9856	2392.45	1575.9
820.3129	545.1305	2400.35	1582.4
820.4572	547.2748	2421.6	1606.45
820.6016	549.4185	2417	1596.15
820.7459	551.5615	2427.3	1609.1
820.8902	553.704	2421.75	1603.35
821.0346	555.8458	2431.8	1611.75
821.1789	557.987	2446.25	1626.7
821.3233	560.1276	2464.25	1644.2
821.4677	562.2675	2497.4	1679.7
821.6121	564.4069	2525.95	1708.25
821.7565	566.5456	2552.05	1733.35
821.9009	568.6837	2554.45	1735.85
822.0453	570.8212	2499.55	1678.35
822.1897	572.958	2452.1	1628.3
822.3342	575.0942	2421	1601.85
822.4786	577.2299	2407.55	1582.95
822.6231	579.3648	2379.1	1556.95
822.7675	581.4992	2357.35	1534.35
822.912	583.6329	2345.15	1519.65
823.0565	585.766	2370.7	1548
823.201	587.8985	2384.8	1562.8
823.3454	590.0304	2431.35	1596.6
823.4899	592.1616	2435.55	1606.9
823.6345	594.2922	2412.45	1584.3
823.779	596.4222	2403.65	1575.85
823.9235	598.5515	2357.45	1531.65
824.068	600.6802	2325.7	1499.8
824.2126	602.8083	2300.95	1472.95
824.3571	604.9358	2297.45	1468.35
824.5017	607.0626	2276.95	1449.2
824.6462	609.1888	2290.05	1459.75
824.7908	611.3144	2291.2	1461.5
824.9354	613.4393	2319.65	1492.05
825.08	615.5636	2354.6	1525.25
825.2246	617.6873	2382.3	1551.8
825.3692	619.8103	2408.75	1576.55
825.5138	621.9327	2408.1	1573.05
825.6584	624.0544	2385.9	1555.1
825.803	626.1756	2336.2	1505.65
825.9477	628.2961	2307.45	1475.75
826.0923	630.4159	2287.25	1456.15
826.237	632.5351	2291.75	1459.45
826.3816	634.6537	2279.7	1446.25
826.5263	636.7716	2270.7	1436
826.6709	638.8889	2261.3	1426.95
826.8156	641.0056	2258.35	1422.2
826.9603	643.1216	2263.85	1429.45
827.105	645.237	2266.55	1431.35
827.2497	647.3518	2250.7	1412.15
827.3944	649.4659	2243.05	1409.35
827.5391	651.5793	2228.15	1391.75
827.6838	653.6922	2218.65	1381.8
827.8285	655.8043	2205.85	1366.9
827.9733	657.9159	2198.5	1359.6
828.118	660.0268	2201	1359.65
828.2627	662.137	2197.2	1357.9
828.4075	664.2466	2193.8	1352.75
828.5522	666.3556	2188.95	1350.25
828.697	668.4639	2184.8	1340.55
828.8418	670.5716	2175.75	1334.05
828.9865	672.6786	2179.2	1337.05
829.1313	674.785	2161.25	1318.2
829.2761	676.8907	2159.4	1318.3
829.4209	678.9958	2164.5	1325.45
829.5657	681.1002	2153.5	1309
829.7105	683.204	2150.85	1303.4
829.8553	685.3072	2155.6	1312.5
830.0001	687.4097	2148.65	1307.15
830.1449	689.5115	2151.7	1307.45
830.2898	691.6127	2146.5	1303.95
830.4346	693.7132	2150.05	1305.5
830.5794	695.8131	2153.45	1294.8
830.7243	697.9123	2140.95	1296.3
830.8691	700.0109	2142.45	1296.45
831.014	702.1089	2154.45	1310.9
831.1588	704.2061	2160.75	1316.3
831.3037	706.3028	2167.45	1321.55
831.4486	708.3987	2188.8	1342.75
831.5935	710.4941	2190.85	1342.9
831.7383	712.5887	2193.25	1345.2
831.8832	714.6827	2195.7	1346.2
832.0281	716.7761	2192.5	1347.6
832.173	718.8688	2186.85	1337.1
832.3179	720.9608	2183.4	1333.2
832.4628	723.0522	2197.5	1345.45
832.6077	725.1429	2200.45	1354
832.7527	727.233	2223.8	1377.1
832.8976	729.3224	2269.8	1423.35
833.0425	731.4112	2303.7	1452.15
833.1874	733.4993	2306.5	1454.95
833.3324	735.5867	2280.25	1427.7
833.4773	737.6735	2241.3	1389.75
833.6222	739.7596	2187.95	1337.25
833.7672	741.845	2176.3	1326.35
833.9122	743.9298	2186.55	1332.85
834.0571	746.014	2190.7	1339.2
834.2021	748.0974	2210.3	1358.2
834.347	750.1802	2199	1345.8
834.492	752.2624	2197.15	1345.45
834.637	754.3439	2168.55	1315.75
834.782	756.4247	2176	1314.4
834.9269	758.5048	2148.2	1298.7
835.0719	760.5843	2161.1	1308.7
835.2169	762.6631	2175.85	1322.7
835.3619	764.7413	2202.4	1348.3
835.5069	766.8188	2249.65	1394.65
835.6519	768.8956	2300.4	1446
835.7969	770.9718	2333.05	1477.5
835.9419	773.0473	2324.5	1472.15
836.0869	775.1221	2315.55	1460.6
836.232	777.1962	2300.15	1446.1
836.377	779.2697	2342.4	1485.85
836.522	781.3426	2410.35	1543.4
836.667	783.4147	2436.8	1582.75
836.8121	785.4862	2427.15	1573.2
836.9571	787.557	2373.75	1518.55
837.1021	789.6271	2294.15	1437.2
837.2472	791.6966	2201.35	1344.55
837.3922	793.7654	2136.95	1280.05
837.5373	795.8335	2114.2	1258.8
837.6823	797.901	2089.5	1234.95
837.8274	799.9678	2091.5	1233.15
837.9724	802.0339	2085.1	1228.35
838.1175	804.0993	2086.25	1219.3
838.2626	806.1641	2060.65	1202.95
838.4076	808.2282	2064.35	1208.55
838.5527	810.2916	2051.95	1193.15
838.6978	812.3544	2035.6	1177.75
838.8428	814.4164	2023.95	1169.55
838.9879	816.4778	2033	1172.65
839.133	818.5385	2035.65	1176.8
839.2781	820.5986	2052.3	1194.6
839.4232	822.658	2087.45	1229.1
839.5682	824.7166	2128.35	1268.9
839.7133	826.7747	2180.25	1321.1
839.8584	828.832	2230.2	1371.6
840.0035	830.8886	2280.45	1419.5
840.1486	832.9446	2290.2	1427.5
840.2937	834.9999	2269.35	1410.35
840.4388	837.0545	2219.35	1355.5
840.5839	839.1085	2157.75	1297.4
840.729	841.1618	2123.15	1259.9
840.8741	843.2143	2075.4	1216.45
841.0192	845.2662	2047.95	1190.25
841.1643	847.3175	2041.65	1183.2
841.3095	849.368	2031.3	1170.7
841.4546	851.4179	2033	1173
841.5997	853.467	2029.85	1168.5
841.7448	855.5155	2035	1174.2
841.8899	857.5633	2024.25	1163.75
842.0351	859.6105	2020.45	1158.5
842.1802	861.6569	2010.2	1148.55
842.3253	863.7027	2010.1	1148.85
842.4704	865.7478	1991.5	1129.15
842.6156	867.7922	1988.25	1126.5
842.7607	869.8359	1976.1	1113.3
842.9058	871.8789	1976.35	1112.75
843.0509	873.9212	2000.65	1103.5
843.1961	875.9629	1977.4	1115
843.3412	878.0039	1982	1119.6
843.4863	880.0441	1993.85	1131.9
843.6315	882.0837	2007.9	1143.25
843.7766	884.1226	2020.4	1153.95
843.9218	886.1609	2037.95	1176.45
844.0669	888.1984	2070.2	1208.45
844.212	890.2352	2097.45	1234.85
844.3572	892.2714	2095.6	1229.5
844.5023	894.3069	2083.75	1219.7
844.6475	896.3416	2042.65	1177.35
844.7926	898.3757	2012.25	1148.7
844.9377	900.4091	1998.9	1134.25
845.0829	902.4418	2020.2	1148.8
845.228	904.4739	2015.75	1149.6
845.3732	906.5052	2023.55	1158.8
845.5183	908.5358	2010.25	1147
845.6635	910.5658	1996.35	1130.4
845.8086	912.595	1971.45	1106.25
845.9538	914.6236	1951.4	1086.85
846.0989	916.6515	1925.4	1061
846.2441	918.6786	1916.5	1050.5
846.3892	920.7051	1910.65	1044.75
846.5344	922.7309	1909.15	1044.3
846.6795	924.756	1903.7	1035.85
846.8246	926.7804	1908.7	1041
846.9698	928.8041	1909.85	1041.85
847.1149	930.8272	1910.8	1044.25
847.2601	932.8495	1927.35	1059.2
847.4052	934.8711	1932.45	1063.8
847.5504	936.892	1940.05	1073.2
847.6955	938.9123	1947.95	1079.6
847.8407	940.9318	1960.6	1092.45
847.9858	942.9506	1951.65	1083.7
848.131	944.9688	1959.35	1093
848.2761	946.9862	1948.3	1082.15
848.4213	949.003	1919.1	1051.05
848.5664	951.019	1898	1031.1
848.7115	953.0344	1883.95	1013.15
848.8567	955.0491	1872.9	1004.4
849.0018	957.063	1876.15	1007.25
849.147	959.0763	1870.55	1003.2
849.2921	961.0888	1870.7	1001.05
849.4373	963.1007	1869.9	999.05
849.5824	965.1119	1863.15	995.45
849.7275	967.1223	1855.25	985.5
849.8727	969.1321	1846.9	980.2
850.0178	971.1412	1842.9	976.3
850.1629	973.1495	1846.35	978.3
850.3081	975.1572	1884.95	977.9
850.4532	977.1641	1835.8	966.9
850.5983	979.1704	1831.25	960.3
850.7435	981.1759	1835.45	963.5
850.8886	983.1808	1827.55	955.75
851.0337	985.1849	1828	947.55
851.1788	987.1884	1826.85	955.8
851.324	989.1911	1823.75	950.65
851.4691	991.1932	1836.8	965.95
851.6142	993.1945	1814.1	943.8
851.7593	995.1951	1809.7	937.8
851.9045	997.1951	1821.65	944.45
852.0496	999.1943	1813	942.85
852.1947	1001.1928	1805.45	934.1
852.3398	1003.1906	1817.6	945.7
852.4849	1005.1877	1827.05	953.8
852.63	1007.1841	1824.7	955.3
852.7751	1009.1798	1844.55	975.15
852.9202	1011.1748	1835.25	964.45
853.0653	1013.1691	1820.65	947.55
853.2104	1015.1627	1803.55	930.75
853.3555	1017.1556	1773.7	903.25
853.5006	1019.1477	1760.15	885.8
853.6457	1021.1392	1746.05	873.05
853.7908	1023.1299	1744.9	873.6
853.9359	1025.12	1743.75	870.85
854.081	1027.1093	1740.55	868
854.2261	1029.0979	1756.25	886.05
854.3712	1031.0859	1761.05	890.4
854.5163	1033.0731	1770.75	898.4
854.6613	1035.0596	1765.6	896
854.8064	1037.0454	1747.6	875.75
854.9515	1039.0304	1739.8	868.25
855.0965	1041.0148	1732.45	860.6
855.2416	1042.9985	1716.6	842.8
855.3867	1044.9814	1717.45	843.8
855.5317	1046.9636	1711.75	836.6
855.6768	1048.9452	1707.55	835.75
855.8219	1050.926	1719.6	848.3
855.9669	1052.9061	1725.75	856.35
856.112	1054.8855	1728.5	855.95
856.257	1056.8642	1726.55	854.45
856.4021	1058.8421	1726.9	850.4
856.5471	1060.8194	1721.85	848.95
856.6921	1062.7959	1711.55	837.45
856.8372	1064.7717	1714.65	841.6
856.9822	1066.7469	1714.25	839.4
857.1272	1068.7213	1717.2	841.6
857.2723	1070.695	1712.95	840.45
857.4173	1072.6679	1734.2	860.5
857.5623	1074.6402	1737.15	863.45
857.7073	1076.6117	1753.7	873.85
857.8523	1078.5826	1743.3	868.95
857.9973	1080.5527	1703.95	828.1
858.1423	1082.5221	1694.15	818.3
858.2873	1084.4908	1663.5	789.05
858.4323	1086.4587	1659.55	783.3
858.5773	1088.426	1652.65	778.05
858.7223	1090.3925	1644.7	762.2
858.8673	1092.3584	1641.65	766.5
859.0123	1094.3235	1647.95	775.1
859.1573	1096.2879	1654.5	779.35
859.3022	1098.2515	1668.95	795.85
859.4472	1100.2145	1688.6	814.1
859.5922	1102.1767	1709.4	831.75
859.7371	1104.1382	1728.5	855.5
859.8821	1106.099	1761.05	883.55
860.027	1108.0591	1787.5	914.05
860.172	1110.0185	1816.9	941.3
860.3169	1111.9771	1841.2	965.15
860.4619	1113.9351	1868.55	993.45
860.6068	1115.8923	1893.7	1016.2
860.7517	1117.8488	1910.4	1034.9
860.8967	1119.8045	1870.4	996.9
861.0416	1121.7596	1828.45	951.6
861.1865	1123.7139	1759.7	885.65
861.3314	1125.6675	1725.15	849.7
861.4763	1127.6204	1711.95	836.6
861.6212	1129.5726	1733.4	855.3
861.7661	1131.524	1720.9	844.6
861.911	1133.4748	1700.65	824.95
862.0559	1135.4248	1672.3	795.25
862.2008	1137.3741	1641.65	767.1
862.3457	1139.3226	1621.6	743.3
862.4905	1141.2705	1622.15	744.95
862.6354	1143.2176	1623.65	742
862.7803	1145.164	1623.75	745.2
862.9251	1147.1097	1617.95	741.6
863.07	1149.0546	1606.8	727.85
863.2148	1150.9989	1591.05	713.45
863.3597	1152.9424	1581.15	704.95
863.5045	1154.8852	1581.65	706.15
863.6493	1156.8272	1569.35	692.1
863.7942	1158.7686	1568.2	684.8
863.939	1160.7092	1563.9	686.4
864.0838	1162.6491	1566.25	687.5
864.2286	1164.5883	1563.2	686.4
864.3734	1166.5267	1575.45	696.35
864.5182	1168.4644	1588.1	710.75
864.663	1170.4014	1616.45	735.4
864.8078	1172.3377	1629	751.7
864.9526	1174.2732	1654.75	781.25
865.0974	1176.2081	1710.3	833.45
865.2421	1178.1421	1786.2	905.35
865.3869	1180.0755	1846.95	971.5
865.5317	1182.0082	1884.9	1007.45
865.6764	1183.9401	1860.95	980.7
865.8212	1185.8713	1809	930.9
865.9659	1187.8017	1728.75	849.55
866.1106	1189.7315	1665.95	790.6
866.2554	1191.6605	1649.8	742.55
866.4001	1193.5888	1596.85	721.3
866.5448	1195.5163	1578.65	700.55
866.6895	1197.4432	1559.25	683.35
866.8342	1199.3693	1553.8	675.85
866.9789	1201.2947	1547.1	661
867.1236	1203.2193	1534.65	658.1
867.2683	1205.1432	1531.95	652.25
867.413	1207.0664	1525.6	647.3
867.5576	1208.9889	1528.35	647.25
867.7023	1210.9106	1531.5	653.95
867.847	1212.8316	1520.45	644.2
867.9916	1214.7519	1537.05	647.85
868.1363	1216.6715	1532.3	654.65
868.2809	1218.5903	1544.5	665.4
868.4255	1220.5084	1554.6	676.3
868.5701	1222.4257	1555.25	676.95
868.7148	1224.3424	1555.1	677.8
868.8594	1226.2583	1578.6	698.25
869.004	1228.1735	1590.9	711.8
869.1486	1230.0879	1617.1	736.45
869.2932	1232.0016	1634	755.55
869.4377	1233.9146	1654.85	774.25
869.5823	1235.8269	1658.5	780.25
869.7269	1237.7384	1666.35	786.7
869.8715	1239.6492	1664.8	786.3
870.016	1241.5592	1678.2	799.25
870.1606	1243.4686	1703.25	823.2
870.3051	1245.3772	1739.6	860.5
870.4496	1247.285	1785.9	905.45
870.5941	1249.1922	1842.65	964
870.7387	1251.0986	1887.95	1009.2
870.8832	1253.0042	1922.55	1042.45
871.0277	1254.9092	1973.95	1096.05
871.1722	1256.8134	2013.3	1135.75
871.3167	1258.7169	2061.65	1181.6
871.4611	1260.6196	2072.75	1196.85
871.6056	1262.5216	2075.2	1192.85
871.7501	1264.4229	2059.5	1179.9
871.8945	1266.3234	2036.3	1158.9
872.039	1268.2232	2019.35	1137.9
872.1834	1270.1223	1981.6	1102.15
872.3278	1272.0207	1961.35	1081.9
872.4723	1273.9183	1949.7	1060.55
872.6167	1275.8151	1952	1073.15
872.7611	1277.7113	1976.45	1096.25
872.9055	1279.6067	2021.05	1141.55
873.0499	1281.5014	2105.25	1222.85
873.1943	1283.3953	2202.75	1323.45
873.3386	1285.2885	2319.35	1439.65
873.483	1287.181	2382.65	1502.3
873.6274	1289.0727	2420.45	1541.15
873.7717	1290.9637	2377.05	1498.3
873.9161	1292.854	2317.95	1439.2
874.0604	1294.7435	2254.75	1376.2
874.2047	1296.6323	2204.55	1322.85
874.349	1298.5204	2145.95	1263
874.4933	1300.4077	2114	1232.2
874.6376	1302.2943	2083.45	1205.3
874.7819	1304.1802	2063.6	1184.3
874.9262	1306.0653	2049.4	1166.95
875.0705	1307.9497	2015.35	1135.4
875.2147	1309.8333	2002.3	1122.7
875.359	1311.7162	1983.65	1102.1
875.5032	1313.5984	1962.6	1079.65
875.6475	1315.4798	1951.55	1060.55
875.7917	1317.3605	1939.75	1056
875.9359	1319.2405	1947.6	1064.95
876.0801	1321.1197	1916.95	1033.85
876.2243	1322.9982	1893	1009.1
876.3685	1324.876	1853.8	974.75
876.5127	1326.753	1790.55	909.6
876.6569	1328.6293	1751.15	870.5
876.801	1330.5048	1703.8	821
876.9452	1332.3796	1653.7	774.6
877.0893	1334.2537	1641.85	734.4
877.2335	1336.127	1600	718.3
877.3776	1337.9996	1586.3	703.8
877.5217	1339.8714	1572.85	693.2
877.6658	1341.7426	1608.85	686.1
877.8099	1343.6129	1552.8	672.2
877.954	1345.4826	1538.75	657.7
878.0981	1347.3515	1533.6	650.35
878.2422	1349.2196	1528.4	648.15
878.3862	1351.087	1521.55	641.7
878.5303	1352.9537	1515	632.75
878.6743	1354.8197	1516.45	635.75
878.8184	1356.6849	1532.35	651.25
878.9624	1358.5493	1529.3	649.6
879.1064	1360.4131	1545.7	665.35
879.2504	1362.276	1570.45	691.4
879.3944	1364.1383	1587.55	704.65
879.5384	1365.9998	1589.5	701.1
879.6823	1367.8606	1591	709.65
879.8263	1369.7206	1583.35	701.35
879.9702	1371.5799	1580.9	699.15
880.1142	1373.4384	1564.75	682.8
880.2581	1375.2962	1556.75	673.05
880.402	1377.1533	1529.35	649.15
880.5459	1379.0096	1495.2	612.4
880.6898	1380.8652	1469.9	588.55
880.8337	1382.7201	1457.05	576
880.9776	1384.5742	1437.35	555.1
881.1215	1386.4275	1434.8	553.1
881.2653	1388.2802	1420.85	540.9
881.4092	1390.132	1414.9	531.3
881.553	1391.9832	1406.7	522.35
881.6968	1393.8336	1396.05	513.85
881.8406	1395.6832	1399.9	515.4
881.9844	1397.5322	1381.6	500.6
882.1282	1399.3803	1380.7	491.95
882.272	1401.2278	1373.4	493.5
882.4158	1403.0745	1371.1	488.3
882.5595	1404.9204	1360.55	481.6
882.7033	1406.7656	1369.05	486.5
882.847	1408.6101	1363.25	481.7
882.9908	1410.4538	1355.05	472.4
883.1345	1412.2968	1355.25	474.25
883.2782	1414.139	1357.15	475.3
883.4219	1415.9805	1359.85	478.95
883.5656	1417.8213	1376.8	489.6
883.7092	1419.6613	1368.75	489.15
883.8529	1421.5006	1391.45	507.6
883.9965	1423.3391	1408.2	525.3
884.1402	1425.1769	1433.55	550.8
884.2838	1427.0139	1466.45	584
884.4274	1428.8502	1519.75	635.35
884.571	1430.6858	1560.65	678.4
884.7146	1432.5206	1572.9	691.7
884.8582	1434.3547	1568.35	683.7
885.0018	1436.188	1560.2	680.1
885.1453	1438.0206	1552.75	669.4
885.2889	1439.8524	1541.55	659.5
885.4324	1441.6835	1540.05	656.35
885.5759	1443.5139	1545.6	661.2
885.7194	1445.3435	1535.3	652.85
885.8629	1447.1724	1548	665.5
886.0064	1449.0005	1542.6	659.95
886.1499	1450.8279	1534.1	651.4
886.2933	1452.6545	1531.9	649.7
886.4368	1454.4804	1531.7	650.2
886.5802	1456.3056	1529.7	642
886.7237	1458.13	1510.55	629.05
886.8671	1459.9536	1498.35	615.8
887.0105	1461.7766	1476.35	593
887.1539	1463.5987	1463.65	580
887.2972	1465.4202	1430.1	549.05
887.4406	1467.2409	1408.1	525.55
887.584	1469.0608	1391.85	511.2
887.7273	1470.88	1380.05	497.45
887.8706	1472.6984	1366.3	483.2
888.0139	1474.5161	1348.75	464.45
888.1572	1476.3331	1337.45	455.85
888.3005	1478.1493	1337.55	453.45
888.4438	1479.9648	1331.7	449.55
888.5871	1481.7795	1335.4	451.2
888.7303	1483.5935	1325.9	444.6
888.8736	1485.4067	1331.25	450.15
889.0168	1487.2192	1336.1	454.05
889.16	1489.031	1329.55	446
889.3032	1490.842	1324.55	443.95
889.4464	1492.6522	1327.2	444.55
889.5896	1494.4618	1321.5	439.1
889.7327	1496.2705	1319.05	437.25
889.8759	1498.0785	1306.7	423.85
890.019	1499.8858	1308.65	424.2
890.1622	1501.6924	1304.45	424.8
890.3053	1503.4981	1302.2	420.65
890.4484	1505.3032	1301.2	417.9
890.5914	1507.1075	1291.95	409.3
890.7345	1508.911	1289.9	407.35
890.8776	1510.7138	1285.85	403.65
891.0206	1512.5159	1280.35	397.2
891.1637	1514.3172	1279.55	395.7
891.3067	1516.1178	1266.7	385.15
891.4497	1517.9176	1273.75	389.1
891.5927	1519.7166	1271.1	389.95
891.7357	1521.515	1264.85	376.5
891.8786	1523.3126	1263.6	380.8
892.0216	1525.1094	1257.05	370.75
892.1645	1526.9055	1243.9	362.8
892.3074	1528.7008	1254.85	372.05
892.4503	1530.4954	1251.55	361.55
892.5932	1532.2893	1246.3	364.65
892.7361	1534.0824	1245.15	357.9
892.879	1535.8747	1245.4	363.25
893.0218	1537.6663	1242.15	359.65
893.1647	1539.4572	1236.9	351.65
893.3075	1541.2473	1233.65	352.05
893.4503	1543.0367	1229.85	346.45
893.5931	1544.8253	1238.35	349.9
893.7359	1546.6132	1245.2	360.55
893.8787	1548.4003	1247.05	353.4
894.0214	1550.1867	1253.9	360.15
894.1642	1551.9723	1251.65	362.95
894.3069	1553.7572	1255.8	371.55
894.4496	1555.5414	1257.65	372.6
894.5923	1557.3247	1275	393.85
894.735	1559.1074	1299.1	417.15
894.8777	1560.8893	1306.8	426.15
895.0204	1562.6705	1332.2	448.85
895.163	1564.4509	1348.6	465.7
895.3056	1566.2305	1347.5	464.3
895.4482	1568.0094	1350.95	468.2
895.5908	1569.7876	1346.95	462.65
895.7334	1571.565	1340.55	456.75
895.876	1573.3417	1342.8	457.4
896.0186	1575.1176	1346.6	464.15
896.1611	1576.8928	1350.2	466.45
896.3036	1578.6672	1354.95	473.25
896.4461	1580.4409	1370.25	488.15
896.5886	1582.2138	1393.95	507.6
896.7311	1583.986	1404.3	520.05
896.8736	1585.7575	1422.85	541.55
897.0161	1587.5282	1437.05	554.15
897.1585	1589.2981	1459.75	577.2
897.3009	1591.0673	1459.8	576.8
897.4433	1592.8358	1462.4	581.35
897.5857	1594.6035	1470.3	586
897.7281	1596.3704	1457.15	574.3
897.8705	1598.1366	1440.65	557.3
898.0128	1599.9021	1429.8	547.6
898.1551	1601.6668	1419.65	535.45
898.2975	1603.4308	1415.95	531.6
898.4398	1605.194	1421.75	535.35
898.5821	1606.9564	1423.45	539.55
898.7243	1608.7182	1461.7	574.45
898.8666	1610.4791	1490.05	605.7
899.0088	1612.2394	1540.4	656.1
899.1511	1613.9988	1588	704.35
899.2933	1615.7576	1619.4	737.35
899.4355	1617.5156	1629.5	739.4
899.5776	1619.2728	1613.2	728.8
899.7198	1621.0293	1565.8	683.15
899.862	1622.785	1514.15	623.95
900.0041	1624.54	1451.5	565.6
900.1462	1626.2942	1400.65	514.35
900.2883	1628.0477	1351.95	466.4
900.4304	1629.8005	1304	416.65
900.5725	1631.5525	1270.3	385.95
900.7145	1633.3037	1249.8	365.15
900.8566	1635.0542	1224.3	339.8
900.9986	1636.804	1210.5	325.45
901.1406	1638.553	1258	310
901.2826	1640.3013	1185.95	303.7
901.4245	1642.0488	1179.65	295.9
901.5665	1643.7955	1169.45	289.15
901.7085	1645.5416	1165.45	281.35
901.8504	1647.2868	1157.95	275
901.9923	1649.0313	1153.8	272.2
902.1342	1650.7751	1157.25	270.95
902.2761	1652.5181	1150.2	267.3
902.4179	1654.2604	1144.6	261.15
902.5598	1656.0019	1148.45	264.8
902.7016	1657.7427	1158	274.55
902.8434	1659.4828	1161.35	278.75
902.9852	1661.222	1180.6	296.25
903.127	1662.9606	1190.05	306.85
903.2687	1664.6984	1208.3	324.75
903.4105	1666.4354	1202.85	317.3
903.5522	1668.1717	1194.9	311.65
903.6939	1669.9072	1169.75	287.35
903.8356	1671.642	1155.6	271.1
903.9773	1673.3761	1136.45	252.6
904.119	1675.1094	1125.15	242.5
904.2606	1676.8419	1115.95	234
904.4022	1678.5737	1106.6	221.55
904.5439	1680.3048	1099.75	218.35
904.6855	1682.0351	1092.45	209.35
904.827	1683.7646	1095	209.05
904.9686	1685.4934	1086.25	203
905.1101	1687.2215	1088.85	205.75
905.2517	1688.9488	1091.95	209.65
905.3932	1690.6754	1086.4	203.4
905.5347	1692.4012	1080.5	197.55
905.6761	1694.1263	1079.3	198.2
905.8176	1695.8506	1081.3	199.15
905.9591	1697.5742	1082.25	199.75
906.1005	1699.297	1077.8	195.25
906.2419	1701.0191	1074.3	191.9
906.3833	1702.7404	1074.05	192.4
906.5246	1704.461	1074	189.15
906.666	1706.1808	1072.35	186.2
906.8073	1707.8999	1071.85	186.85
906.9487	1709.6182	1065.3	179.5
907.09	1711.3358	1068.55	184.95
907.2313	1713.0527	1063.4	181.75
907.3725	1714.7688	1067.15	178.75
907.5138	1716.4841	1070.45	187.25
907.655	1718.1987	1066.6	181.2
907.7962	1719.9126	1060.95	178.55
907.9374	1721.6257	1061.85	173.5
908.0786	1723.338	1065.35	181.3
908.2198	1725.0496	1060.85	177.4
908.3609	1726.7605	1062.45	177.6
908.502	1728.4706	1060.35	174.75
908.6431	1730.18	1061.35	173.25
908.7842	1731.8886	1059	173.6
908.9253	1733.5964	1059.2	171.1
909.0664	1735.3036	1059	173.15
909.2074	1737.0099	1057.4	171.55
909.3484	1738.7156	1054.75	172.5
909.4894	1740.4204	1057.7	171
909.6304	1742.1246	1055.9	169.2
909.7714	1743.8279	1055.8	171.35
909.9123	1745.5306	1052.15	168.45
910.0532	1747.2325	1051.05	166.25
910.1941	1748.9336	1056.65	175.05
910.335	1750.634	1058.85	175.2
910.4759	1752.3336	1054.2	167.7
910.6168	1754.0325	1050.55	167.6
910.7576	1755.7307	1052.35	169.55
910.8984	1757.4281	1051.95	168.95
911.0392	1759.1247	1059.3	168.4
911.18	1760.8206	1050.7	162.2
911.3208	1762.5158	1050.15	162.05
911.4615	1764.2102	1047.4	164.55
911.6022	1765.9039	1051.8	168.9
911.7429	1767.5968	1048.3	165.2
911.8836	1769.289	1048	162.8
912.0243	1770.9804	1049.15	166
912.1649	1772.6711	1048.75	165.25
912.3056	1774.361	1046.4	161.4
912.4462	1776.0502	1047.65	163.35
912.5868	1777.7386	1048.35	161.75
912.7274	1779.4263	1049.5	165.45
912.8679	1781.1132	1044.75	160.2
913.0084	1782.7994	1049.65	162.9
913.149	1784.4849	1043.95	160
913.2895	1786.1696	1059.7	156.25
913.4299	1787.8535	1043.7	159.85
913.5704	1789.5367	1042.25	159
913.7108	1791.2192	1035	150.35
913.8513	1792.9009	1056.85	160.25
913.9917	1794.5818	1042.5	157
914.132	1796.2621	1039.45	156.1
914.2724	1797.9415	1037.9	154.25
914.4128	1799.6202	1039.3	155.8
914.5531	1801.2982	1042.35	158.3
914.6934	1802.9755	1039.2	154.8
914.8337	1804.6519	1036.05	150.2
914.9739	1806.3277	1041.1	158.8
915.1142	1808.0027	1037.6	153.35
915.2544	1809.6769	1031.15	146.6
915.3946	1811.3504	1039.8	151.8
915.5348	1813.0231	1035.5	149.55
915.675	1814.6951	1038.75	157
915.8151	1816.3664	1034.4	148.25
915.9553	1818.0369	1036.25	154.25
916.0954	1819.7067	1030.45	146.2
916.2355	1821.3757	1036.85	151.8
916.3755	1823.044	1032.05	148.45
916.5156	1824.7115	1035.25	152.3
916.6556	1826.3783	1028.2	146.3
916.7956	1828.0443	1030.4	148.8
916.9356	1829.7096	1033.05	147.5
917.0756	1831.3741	1033.55	146.1
917.2155	1833.0379	1033.85	150.75
917.3555	1834.701	1035	148.6
917.4954	1836.3633	1027.55	141.75
917.6353	1838.0248	1029.5	145.2
917.7751	1839.6856	1027.2	142.55
917.915	1841.3457	1029.1	144.65
918.0548	1843.005	1029.05	147
918.1946	1844.6636	1028.65	144.95
918.3344	1846.3214	1030.1	145.9
918.4742	1847.9785	1026.65	143.45
918.6139	1849.6349	1028.6	141.2
918.7537	1851.2904	1036.05	145.7
918.8934	1852.9453	1023.95	139.65
919.0331	1854.5994	1032.4	147.75
919.1727	1856.2528	1033.6	145.9
919.3124	1857.9054	1025	141
919.452	1859.5572	1024.5	140.85
919.5916	1861.2083	1025.75	141.15
919.7312	1862.8587	1026.15	143.8
919.8708	1864.5084	1024.5	141.8
920.0103	1866.1572	1020.65	137.7
920.1498	1867.8054	1023.8	140.35
920.2893	1869.4528	1020.25	135.55
920.4288	1871.0994	1021.3	137.85
920.5683	1872.7453	1024.25	138.55
920.7077	1874.3905	1034.05	134.1
920.8471	1876.0349	1022	137.5
920.9865	1877.6786	1024.75	141.45
921.1259	1879.3215	1023.8	141.5
921.2653	1880.9637	1021.9	136.75
921.4046	1882.6051	1020.55	135.75
921.5439	1884.2458	1018.5	131.4
921.6832	1885.8858	1017.25	133.65
921.8225	1887.525	1021.4	136.15
921.9617	1889.1634	1014	130.7
922.101	1890.8011	1016.5	132.5
922.2402	1892.4381	1017.15	133.75
922.3794	1894.0743	1017.9	135.35
922.5185	1895.7098	1018.9	134.45
922.6577	1897.3446	1016.2	131.4
922.7968	1898.9786	1024.95	137.9
922.9359	1900.6118	1013.4	129.6
923.075	1902.2443	1015.3	127.6
923.214	1903.8761	1012.35	129.5
923.3531	1905.5071	1015.8	133.25
923.4921	1907.1374	1014.7	128.1
923.6311	1908.7669	1012.5	130.5
923.77	1910.3957	1011.75	128.35
923.909	1912.0237	1013.85	131
924.0479	1913.651	1016.9	132.45
924.1868	1915.2776	1015.3	131.15
924.3257	1916.9034	1011.5	128.35
924.4646	1918.5285	1008.7	127.2
924.6034	1920.1528	1015.15	130.55
924.7422	1921.7764	1010.35	126.55
924.881	1923.3992	1010.6	128.45
925.0198	1925.0213	1011.05	127
925.1586	1926.6427	1009.7	127.7
925.2973	1928.2633	1112.55	120.8
925.436	1929.8832	1011.55	126.15
925.5747	1931.5023	1009.5	126.35
925.7134	1933.1207	1005.7	119.8
925.852	1934.7383	1006.55	120.6
925.9906	1936.3552	1007.15	121
926.1292	1937.9714	1009.95	127.45
926.2678	1939.5868	1005.45	120.3
926.4064	1941.2015	1009.7	125.05
926.5449	1942.8154	1005.15	122.35
926.6834	1944.4286	1005	122.65
926.8219	1946.041	1029.1	121.45
926.9604	1947.6528	1014.75	124.25
927.0988	1949.2637	1004.75	121.35
927.2372	1950.8739	1001.7	117.25
927.3756	1952.4834	1007.4	122.35
927.514	1954.0921	1000.75	116.8
927.6523	1955.7001	1006.95	119.75
927.7907	1957.3074	1001.2	119.35
927.929	1958.9139	1004.8	120.35
928.0673	1960.5197	1002.2	117.65
928.2055	1962.1247	998.85	114.25
928.3438	1963.729	1000.35	118.05
928.482	1965.3325	1026.5	119.05
928.6202	1966.9353	1000.45	116.3
928.7584	1968.5374	1005.8	121.8
928.8965	1970.1387	1001.95	119.2
929.0346	1971.7393	1001.65	117.25
929.1727	1973.3392	1001.5	117.3
929.3108	1974.9383	997.05	114.8
929.4489	1976.5366	996.5	112.7
929.5869	1978.1342	999.2	114.75
929.7249	1979.7311	1001.75	117.8
929.8629	1981.3273	999.15	116
930.0009	1982.9227	1002	116.8
930.1388	1984.5173	998.35	114.55
930.2767	1986.1112	998.9	115.45
930.4146	1987.7044	998.5	116.65
930.5525	1989.2968	999.15	114.25
930.6904	1990.8885	1000.6	113.65
930.8282	1992.4795	999.5	113.1
930.966	1994.0697	999.75	115.4
931.1038	1995.6592	998.7	114.1
931.2415	1997.2479	997.05	113
931.3793	1998.8359	990.95	105.6
931.517	2000.4232	997.6	114.55
931.6547	2002.0097	996.3	112.5
931.7923	2003.5955	995.45	111.65
931.93	2005.1805	997.6	113.1
932.0676	2006.7648	994.25	109.7
932.2052	2008.3484	995.8	110.85
932.3427	2009.9312	1000	113.45
932.4803	2011.5133	991.85	108.3
932.6178	2013.0946	996.05	110.5
932.7553	2014.6752	991.55	110.9
932.8928	2016.2551	997.2	111.4
933.0302	2017.8342	996.4	112.3
933.1676	2019.4126	997.75	114.5
933.305	2020.9902	993.8	109.9
933.4424	2022.5672	992.75	108.3
933.5798	2024.1433	998.6	109.1
933.7171	2025.7188	995.35	111.05
933.8544	2027.2935	992.7	108.85
933.9917	2028.8674	991.05	106.85
934.129	2030.4406	991.25	107.7
934.2662	2032.0131	988.95	106.25
934.4034	2033.5849	999.3	110.55
934.5406	2035.1559	994.4	112.75
934.6778	2036.7261	991.4	106.55
934.8149	2038.2957	990.45	106.85
934.952	2039.8645	991.45	106.95
935.0891	2041.4325	991.55	104.2
935.2262	2042.9998	993.35	110.3
935.3632	2044.5664	992.6	105.35
935.5002	2046.1323	990.4	107.25
935.6372	2047.6974	991.7	107.8
935.7742	2049.2617	989.75	103.4
935.9111	2050.8254	1027.95	109.9
936.048	2052.3883	995.65	110.9
936.1849	2053.9504	991.1	107.15
936.3218	2055.5118	993.45	107.35
936.4586	2057.0725	996	109.3
936.5955	2058.6325	991.75	107.6
936.7323	2060.1917	994.05	111.2
936.869	2061.7502	996.25	110.5
937.0058	2063.3079	989.9	107.2
937.1425	2064.8649	994.2	107.9
937.2792	2066.4212	992.1	106.65
937.4159	2067.9767	993.4	111.1
937.5525	2069.5315	988.05	102.4
937.6891	2071.0856	988.95	105.65
937.8257	2072.6389	991.05	105.95
937.9623	2074.1915	991.05	108.3
938.0989	2075.7433	992.2	106.4
938.2354	2077.2945	989.3	105
938.3719	2078.8448	990	107.9
938.5084	2080.3945	988.25	104.6
938.6448	2081.9434	985.1	101.25
938.7812	2083.4916	992.9	108.45
938.9176	2085.039	994.35	108.65
939.054	2086.5857	990.7	105.1
939.1903	2088.1317	988.95	103.6
939.3267	2089.677	987.45	103.45
939.463	2091.2215	988.7	103.3
939.5992	2092.7652	990.3	104.4
939.7355	2094.3083	987.9	102.7
939.8717	2095.8506	987.85	104.95
940.0079	2097.3921	988.55	105.65
940.1441	2098.933	987.45	105.9
940.2802	2100.4731	989.15	105.5
940.4163	2102.0124	1004.55	102.25
940.5524	2103.5511	988.75	103.85
940.6885	2105.089	988.6	104.9
940.8245	2106.6261	988.4	105.1
940.9606	2108.1626	989.8	104.8
941.0965	2109.6983	1016.3	102.75
941.2325	2111.2332	991.5	107.2
941.3684	2112.7675	991.7	109.25
941.5044	2114.301	989.3	102.65
941.6403	2115.8337	989.85	106.85
941.7761	2117.3657	986.5	101.85
941.912	2118.897	990.15	106.1
942.0478	2120.4276	990.75	99.15
942.1835	2121.9575	991.9	107.95
942.3193	2123.4866	1000.1	100.9
942.455	2125.0149	988.15	103.55
942.5907	2126.5426	989.8	107.3
942.7264	2128.0695	991.85	100.2
942.8621	2129.5956	988.95	107.8
942.9977	2131.1211	989.75	99.55
943.1333	2132.6458	986.6	102.5
943.2689	2134.1698	984.6	101
943.4044	2135.693	989.5	103.25
943.54	2137.2155	990.9	105
943.6755	2138.7373	988.85	103.55
943.8109	2140.2584	991.65	106.75
943.9464	2141.7787	993.4	103.3
944.0818	2143.2983	984.25	99.35
944.2172	2144.8171	985.6	103.65
944.3526	2146.3353	989.7	102.9
944.4879	2147.8527	986.1	103.2
944.6232	2149.3693	988.25	103.25
944.7585	2150.8853	988.95	104.15
944.8938	2152.4005	985.15	102.25
945.029	2153.9149	984.65	102
945.1642	2155.4287	984	101.45
945.2994	2156.9417	988.9	103.65
945.4346	2158.454	990	103.95
945.5697	2159.9655	985.65	103.2
945.7048	2161.4764	981.9	96.8
945.8399	2162.9865	983.65	98.8
945.9749	2164.4958	985.8	99.6
946.1099	2166.0045	989.1	101
946.2449	2167.5124	986.05	104.4
946.3799	2169.0195	982.95	98.05
946.5148	2170.526	986.85	101.3
946.6498	2172.0317	988.2	104.05
946.7846	2173.5367	982.95	97.3
946.9195	2175.0409	984.9	101.75
947.0543	2176.5445	985	101.15
947.1891	2178.0473	981.4	98.2
947.3239	2179.5494	988.2	99.9
947.4587	2181.0507	987.45	103.35
947.5934	2182.5513	982.4	98.25
947.7281	2184.0512	981.35	97.25
947.8628	2185.5504	982.4	98.35
947.9974	2187.0488	980.9	95.5
948.132	2188.5465	978.35	93.8
948.2666	2190.0435	984	100.2
948.4012	2191.5397	983.95	101.2
948.5357	2193.0353	980.25	98.2
948.6702	2194.5301	982.5	98.25
948.8047	2196.0241	978.15	92.75
948.9392	2197.5175	978.4	94.85
949.0736	2199.0101	985.7	99.15
949.208	2200.502	982.2	99.05
949.3424	2201.9931	979.25	94
949.4767	2203.4835	983.45	97.75
949.611	2204.9733	985.6	95.65
949.7453	2206.4622	981.75	98.35
949.8796	2207.9505	981.1	92.45
950.0138	2209.438	978.85	96.3
950.148	2210.9248	980.3	94.15
950.2822	2212.4109	976.5	91.9
950.4164	2213.8962	979.4	91.25
950.5505	2215.3809	982.7	98
950.6846	2216.8648	977.2	95.1
950.8186	2218.3479	982.25	93.8
950.9527	2219.8304	977.9	91.85
951.0867	2221.3121	976.75	91.2
951.2207	2222.7931	975.05	91.5
951.3546	2224.2733	975.05	91.05
951.4886	2225.7529	978	93
951.6225	2227.2317	982.45	94.8
951.7563	2228.7098	974.35	91.6
951.8902	2230.1872	974.8	90.8
952.024	2231.6638	975.4	91.4
952.1578	2233.1397	979.25	90.45
952.2916	2234.6149	974.4	91.4
952.4253	2236.0894	975.5	91.35
952.559	2237.5632	985.3	89.95
952.6927	2239.0362	976.7	92.65
952.8263	2240.5085	974.65	91.75
952.9599	2241.9801	975.05	91.15
953.0935	2243.4509	973.05	90.25
953.2271	2244.921	971.85	89.1
953.3606	2246.3904	976.7	90.75
953.4941	2247.8591	972.3	88.4
953.6276	2249.3271	972.45	89
953.7611	2250.7943	975.55	90.6
953.8945	2252.2608	968.65	85.45
954.0279	2253.7266	967.3	84.3
954.1612	2255.1917	971.35	86.7
954.2946	2256.656	968.9	84
954.4279	2258.1197	970.7	88.4
954.5612	2259.5826	971.8	85.65
954.6944	2261.0447	973.25	86.95
954.8276	2262.5062	973.5	89.1
954.9608	2263.9669	972.9	88.85
955.094	2265.4269	971.1	87.9
955.2271	2266.8862	967	84.1
955.3602	2268.3448	971.5	87.15
955.4933	2269.8026	968.35	84.05
955.6264	2271.2598	970.9	87
955.7594	2272.7162	970.45	87.9
955.8924	2274.1719	970	85.6
956.0253	2275.6268	969.55	86.4
956.1583	2277.0811	967.3	83.45
956.2912	2278.5346	966.3	82.95
956.4241	2279.9874	966.85	82.5
956.5569	2281.4395	968.75	85.75
956.6897	2282.8908	968.35	80.05
956.8225	2284.3414	972.25	85.7
956.9553	2285.7914	969.3	85.7
957.088	2287.2406	970.1	85.5
957.2207	2288.689	967.15	82.55
957.3534	2290.1368	966.4	82.45
957.486	2291.5838	968.4	83.75
957.6186	2293.0302	969.9	86.4
957.7512	2294.4758	966.35	83.55
957.8838	2295.9206	973.75	87.95
958.0163	2297.3648	967.2	82.5
958.1488	2298.8082	968.4	85.55
958.2813	2300.251	968.35	83.4
958.4137	2301.693	968.9	81.8
958.5461	2303.1343	966.8	82.45
958.6785	2304.5748	965.3	80.4
958.8108	2306.0147	964.35	79.05
958.9432	2307.4538	971.25	83.05
959.0754	2308.8922	964.5	83.3
959.2077	2310.3299	969.6	84.75
959.3399	2311.7669	966.55	82.1
959.4721	2313.2031	964.95	82
959.6043	2314.6387	964	77.95
959.7365	2316.0735	964.15	79.05
959.8686	2317.5076	966.3	79.45
960.0006	2318.941	964.75	81.35
960.1327	2320.3737	963.85	77.35
960.2647	2321.8056	963.1	77.75
960.3967	2323.2369	961.25	78.15
960.5287	2324.6674	968.7	81.9
960.6606	2326.0972	968.75	83
960.7925	2327.5263	967.75	84.35
960.9244	2328.9547	971.55	88.05
961.0562	2330.3823	967.2	83.3
961.1881	2331.8092	972.05	85.9
961.3198	2333.2355	962.85	78.75
961.4516	2334.661	959.7	76.25
961.5833	2336.0858	963.95	77.25
961.715	2337.5098	960.45	76
961.8467	2338.9332	959.45	75.1
961.9783	2340.3558	965.5	77.75
962.1099	2341.7778	958.7	75.2
962.2415	2343.199	962.15	78.1
962.373	2344.6195	960.35	77.3
962.5045	2346.0393	957.6	76.4
962.636	2347.4583	961	74.75
962.7675	2348.8767	957.7	76.75
962.8989	2350.2943	958.1	74.05
963.0303	2351.7113	957.15	72.35
963.1617	2353.1275	959.1	75.7
963.293	2354.543	965.35	72.65
963.4243	2355.9578	959.15	74.45
963.5556	2357.3718	957.8	73.1
963.6868	2358.7852	957.35	71.85
963.818	2360.1978	957.55	71.75
963.9492	2361.6098	956.7	72.65
964.0803	2363.021	958.1	69.5
964.2114	2364.4315	958.65	73.95
964.3425	2365.8413	957.7	70.75
964.4736	2367.2504	956.9	72.8
964.6046	2368.6587	957	72.65
964.7356	2370.0664	955.4	70.65
964.8666	2371.4733	957.4	72.95
964.9975	2372.8795	958.1	73.85
965.1284	2374.285	956.55	71.75
965.2593	2375.6899	959.35	77.1
965.3901	2377.0939	956.35	71.1
965.5209	2378.4973	953.1	71.7
965.6517	2379.9	958.8	73.45
965.7825	2381.3019	953.45	70.05
965.9132	2382.7032	954.2	70.25
966.0439	2384.1037	952.45	71.2
966.1745	2385.5035	955.3	71.8
966.3051	2386.9027	952.95	68.5
966.4357	2388.3011	954.2	65.95
966.5663	2389.6987	955.05	71.85
966.6968	2391.0957	952.15	68.85
966.8273	2392.492	954.4	70.75
966.9578	2393.8876	953.5	68.75
967.0882	2395.2824	953.35	71.75
967.2186	2396.6765	949.5	66.35
967.349	2398.07	950.05	66.75
967.4793	2399.4627	950.7	66.05
967.6097	2400.8547	949.9	65.45
967.7399	2402.246	953.7	64.4
967.8702	2403.6366	950.75	65.95
968.0004	2405.0265	949.7	66.55
968.1306	2406.4156	952.9	62.25
968.2607	2407.8041	953.8	66.3
968.3909	2409.1918	951.65	64.35
968.521	2410.5789	951.05	67.4
968.651	2411.9652	952.7	66.75
968.781	2413.3508	951.05	67.8
968.911	2414.7358	949	63.5
969.041	2416.12	947.6	65.35
969.1709	2417.5035	947.15	63.25
969.3008	2418.8863	948	63.4
969.4307	2420.2684	949.85	66.1
969.5606	2421.6497	948.65	63.8
969.6904	2423.0304	945.95	64
969.8201	2424.4104	952	67.6
969.9499	2425.7896	953.45	64
970.0796	2427.1682	945.25	61.6
970.2093	2428.546	947.25	60.7
970.3389	2429.9232	946.4	62.45
970.4685	2431.2996	948.15	63.1
970.5981	2432.6753	944.7	61.1
970.7277	2434.0503	944.35	61.45
970.8572	2435.4246	946.35	61.4
970.9867	2436.7982	945.4	60.35
971.1161	2438.1711	943.7	62.45
971.2456	2439.5433	948.4	63.15
971.375	2440.9148	951.7	63.75
971.5043	2442.2856	945	61.95
971.6336	2443.6557	943.1	58.3
971.7629	2445.025	943.35	59.3
971.8922	2446.3937	943.65	57.3
972.0214	2447.7617	942.45	57.6
972.1506	2449.1289	942.75	58.05
972.2798	2450.4955	947.3	58.9
972.4089	2451.8613	942.4	59.05
972.538	2453.2265	944.35	61.1
972.6671	2454.5909	945.9	62.15
972.7961	2455.9546	940.95	58
972.9251	2457.3177	941.9	59.75
973.0541	2458.68	944.85	60.75
973.1831	2460.0416	943.6	60.6
973.312	2461.4025	943.25	57.55
973.4408	2462.7627	954.1	56.2
973.5697	2464.1222	944.1	59.9
973.6985	2465.4811	944.9	58.5
973.8273	2466.8392	940.45	55
973.956	2468.1966	945.2	59.35
974.0847	2469.5533	944.35	58.2
974.2134	2470.9093	941.9	56.55
974.3421	2472.2645	944.9	59.45
974.4707	2473.6191	942.35	58.6
974.5993	2474.973	941.45	56.95
974.7278	2476.3262	942.4	55.7
974.8563	2477.6787	940.1	55.35
974.9848	2479.0305	940.45	57.55
975.1132	2480.3816	940.8	52.55
975.2417	2481.7319	941	57.85
975.37	2483.0816	941.1	54.8
975.4984	2484.4306	940.65	55.55
975.6267	2485.7789	941.7	57.55
975.755	2487.1264	941.7	54.15
975.8833	2488.4733	939.05	57
976.0115	2489.8195	956	54.55
976.1397	2491.165	941.55	54.65
976.2678	2492.5097	940.45	55
976.3959	2493.8538	939.15	54.95
976.524	2495.1972	940.9	56.3
976.6521	2496.5398	938.95	53.2
976.7801	2497.8818	941.3	53.9
976.9081	2499.2231	938.75	54.6
977.036	2500.5637	940	55.4
977.164	2501.9035	938.85	53.05
977.2918	2503.2427	942.6	53.65
977.4197	2504.5812	938.3	54.75
977.5475	2505.919	938.15	52.15
977.6753	2507.256	936.5	52.6
977.8031	2508.5924	940	56.4
977.9308	2509.9281	943.15	52.1
978.0585	2511.2631	935.45	50.7
978.1861	2512.5974	935.9	53.2
978.3137	2513.9309	936.65	50.4
978.4413	2515.2638	962.5	51.6
978.5689	2516.596	937.05	53.35
978.6964	2517.9275	935.65	49.8
978.8239	2519.2583	939	55.2
978.9513	2520.5884	935.8	50.9
979.0788	2521.9178	934.25	50.35
979.2062	2523.2465	935.35	51.75
979.3335	2524.5745	936	51.55
979.4608	2525.9018	936.15	51.65
979.5881	2527.2284	934.2	49.55
979.7154	2528.5543	933	50.1
979.8426	2529.8796	936.8	52.95
979.9698	2531.2041	935.6	50.4
980.0969	2532.5279	935.95	52.4
980.224	2533.851	936.5	51.55
980.3511	2535.1735	931.8	48.9
980.4781	2536.4952	933.15	49.05
980.6052	2537.8163	933.6	48.15
980.7321	2539.1366	933.05	48.95
980.8591	2540.4562	936.8	51.65
980.986	2541.7752	932.3	49.8
981.1129	2543.0935	932.2	51.2
981.2397	2544.411	932.05	46.35
981.3665	2545.7279	931.1	47.75
981.4933	2547.0441	933.2	48.65
981.62	2548.3596	937.6	50.4
981.7467	2549.6744	933.1	49.25
981.8734	2550.9885	936	49.2
982.0001	2552.3019	930.95	47.6
982.1267	2553.6146	932.35	48.6
982.2532	2554.9266	930.65	45.8
982.3798	2556.2379	933.85	48.1
982.5063	2557.5485	931.65	49.75
982.6327	2558.8585	936.95	45.7
982.7592	2560.1677	937.25	50.9
982.8856	2561.4762	930.7	45.8
983.0119	2562.7841	935.2	48.8
983.1383	2564.0913	928.55	45.1
983.2646	2565.3977	927.9	43
983.3908	2566.7035	933.35	51.2
983.517	2568.0086	931.05	44.95
983.6432	2569.313	932.75	47.3
983.7694	2570.6167	935.45	47.3
983.8955	2571.9197	930.15	45.75
984.0216	2573.222	933.7	46.7
984.1476	2574.5236	930.2	47.65
984.2737	2575.8246	930.2	42.1
984.3996	2577.1248	933.3	47.5
984.5256	2578.4244	927.6	44.15
984.6515	2579.7232	927	42.2
984.7774	2581.0214	957	48.45
984.9032	2582.3189	931	47.05
985.029	2583.6157	934.9	45.25
985.1548	2584.9118	930.9	47.6
985.2806	2586.2072	928.2	44.75
985.4063	2587.5019	930.55	45.65
985.5319	2588.7959	931.45	47.55
985.6576	2590.0893	932.45	47.2
985.7832	2591.3819	928.9	44.7
985.9087	2592.6739	929.8	48
986.0343	2593.9652	929.3	42.8
986.1597	2595.2557	926.7	42.35
986.2852	2596.5456	930.7	45.2
986.4106	2597.8348	928.6	44.3
986.536	2599.1234	928.65	46.35
986.6614	2600.4112	930.1	46
986.7867	2601.6983	931.5	44.95
986.912	2602.9848	928.35	44.25
987.0372	2604.2705	935.55	44.4
987.1624	2605.5556	926.7	44.4
987.2876	2606.84	928.4	43.75
987.4128	2608.1237	927.7	41.6
987.5379	2609.4067	928	43.8
987.6629	2610.689	935.45	41.1
987.788	2611.9707	929.95	44.55
987.913	2613.2516	930.55	42.05
988.0379	2614.5319	926.75	43.8
988.1629	2615.8115	927.85	42.6
988.2878	2617.0903	925.6	38.7
988.4126	2618.3685	926.5	42.3
988.5375	2619.6461	927.75	42.4
988.6622	2620.9229	926.5	40.35
988.787	2622.199	924.9	39.85
988.9117	2623.4745	928.2	42.8
989.0364	2624.7493	924.75	41
989.161	2626.0234	923.15	40.6
989.2857	2627.2968	924.1	39.3
989.4102	2628.5695	926.1	41.2
989.5348	2629.8415	923.7	40.45
989.6593	2631.1128	924.9	39.4
989.7837	2632.3835	923.05	38.15
989.9082	2633.6535	924.25	40.2
990.0326	2634.9228	923.7	41.3
990.1569	2636.1914	921.65	38.55
990.2812	2637.4593	932.05	41.75
990.4055	2638.7265	926	42.2
990.5298	2639.9931	923	40.4
990.654	2641.259	924.2	40.35
990.7782	2642.5242	925.35	39.55
990.9023	2643.7887	924.1	40.45
991.0264	2645.0525	922.9	38.3
991.1505	2646.3156	923.2	37.8
991.2745	2647.5781	922.25	38.95
991.3985	2648.8398	921.65	38.65
991.5225	2650.1009	958.95	34.95
991.6464	2651.3613	923	38.3
991.7703	2652.6211	922.1	37.8
991.8942	2653.8801	922.8	39.95
992.018	2655.1385	923	34.95
992.1418	2656.3961	921.2	37.85
992.2655	2657.6531	921.6	37
992.3892	2658.9094	921.45	37.4
992.5129	2660.1651	920.35	37.25
992.6366	2661.42	919.15	35.7
992.7602	2662.6743	923	35.85
992.8837	2663.9279	920.3	37.5
993.0073	2665.1808	922.65	37.9
993.1307	2666.433	921.5	37.45
993.2542	2667.6846	918.7	35.85
993.3776	2668.9354	922.9	35.75
993.501	2670.1856	923.45	37.55
993.6244	2671.4351	921.6	37.5
993.7477	2672.6839	922.1	35.8
993.8709	2673.9321	921.85	37.4
993.9942	2675.1795	920.05	37.9
994.1174	2676.4263	921.4	38.7
994.2405	2677.6724	922.9	40.7
994.3637	2678.9179	921.85	37.15
994.4868	2680.1626	919.7	36.15
994.6098	2681.4067	921.05	35.45
994.7328	2682.6501	922.05	40.35
994.8558	2683.8928	923.05	39.1
994.9788	2685.1348	918.3	35.95
995.1017	2686.3761	918.65	36.95
995.2245	2687.6168	918.85	34.9
995.3474	2688.8568	919.1	35.7
995.4702	2690.0961	919.35	36.5
995.5929	2691.3348	920.55	35.5
995.7156	2692.5727	921.15	36.95
995.8383	2693.81	918	33.35
995.961	2695.0466	919.2	37.1
996.0836	2696.2826	918.4	33.45
996.2062	2697.5178	940.3	36.65
996.3287	2698.7524	920.5	36.5
996.4512	2699.9863	921.3	34.8
996.5737	2701.2195	915.8	35.35
996.6961	2702.452	918.35	33.25
996.8185	2703.6839	918.95	33.85
996.9408	2704.9151	916.7	34.25
997.0631	2706.1456	917.8	33.4
997.1854	2707.3755	919.6	33.75
997.3077	2708.6046	920.65	34.3
997.4299	2709.8331	921.15	37.25
997.552	2711.0609	919.45	36.3
997.6742	2712.2881	920.9	37.55
997.7963	2713.5145	918.95	35.35
997.9183	2714.7403	921.8	38.55
998.0403	2715.9654	920.5	36.6
998.1623	2717.1899	935.75	36.55
998.2842	2718.4136	918.5	34.05
998.4062	2719.6367	920.15	34.5
998.528	2720.8591	928	36.25
998.6498	2722.0809	923.3	39.45
998.7716	2723.3019	926.7	42.55
998.8934	2724.5223	923.05	36.4
999.0151	2725.7421	924.6	40.1
999.1368	2726.9611	922.2	35.25
999.2584	2728.1795	924.85	37.25
999.38	2729.3972	922.55	38.4
999.5016	2730.6142	932.45	36.05
999.6231	2731.8306	923.3	38.1
999.7446	2733.0462	921.9	35.35
999.8661	2734.2612	923.3	33.5
999.9875	2735.4756	919.85	33.85
1000.1089	2736.6892	918.8	32.7
1000.2302	2737.9022	914.4	30.6
1000.3515	2739.1145	918.3	34.15
1000.4728	2740.3262	922.4	29.6
1000.594	2741.5372	920.3	36.9
1000.7152	2742.7475	915.9	31.8
1000.8363	2743.9571	918.65	33.6
1000.9575	2745.1661	920.2	32.25
1001.0785	2746.3744	914.9	29.05
1001.1996	2747.582	914.4	30.2
1001.3206	2748.7889	916.7	31.15
1001.4415	2749.9952	912.3	29.4
1001.5625	2751.2008	913.15	28.9
1001.6833	2752.4057	915.35	29.2
1001.8042	2753.61	912.35	27.65
1001.925	2754.8136	914.4	28.45
1002.0458	2756.0165	910.2	27.8
1002.1665	2757.2188	911.85	29.65
1002.2872	2758.4204	911.65	27.45
1002.4078	2759.6213	915.2	26.75
1002.5285	2760.8215	918.4	29.55
1002.649	2762.0211	915.2	30.75
1002.7696	2763.22	917.3	31.45
1002.8901	2764.4182	913.95	27.1
1003.0106	2765.6158	910.4	27.35
1003.131	2766.8127	911.95	27.55
1003.2514	2768.009	912.85	27.35
1003.3717	2769.2045	914.6	30.4
1003.492	2770.3994	913.4	29.05
1003.6123	2771.5936	911.35	26.7
1003.7325	2772.7872	910.45	25.8
1003.8527	2773.9801	913.45	27.85
1003.9729	2775.1723	924.6	24.05
1004.093	2776.3639	909.6	26.05
1004.2131	2777.5548	912.6	27
1004.3331	2778.745	911.6	27.2
1004.4531	2779.9346	910.2	26.1
1004.5731	2781.1235	912.6	26.95
1004.693	2782.3117	910.9	27.1
1004.8129	2783.4992	911.65	26
1004.9328	2784.6861	911.55	28.3
1005.0526	2785.8723	912.35	28.2
1005.1723	2787.0579	912.15	26.95
1005.2921	2788.2428	910.55	25.9
1005.4118	2789.427	911.65	27.8
1005.5314	2790.6106	911.5	28.3
1005.651	2791.7935	911.6	25.9
1005.7706	2792.9757	907.55	24.65
1005.8902	2794.1573	912.1	25.7
1006.0097	2795.3382	910.8	27.5
1006.1291	2796.5184	909	27.15
1006.2485	2797.698	911.1	26.05
1006.3679	2798.8769	910.45	26.05
1006.4873	2800.0551	911.35	28.25
1006.6066	2801.2327	915	27.35
1006.7258	2802.4096	910.75	28.2
1006.8451	2803.5859	911.8	25.05
1006.9642	2804.7615	911.5	27.65
1007.0834	2805.9364	911.65	27.85
1007.2025	2807.1106	912.4	28.6
1007.3216	2808.2842	914.7	30.55
1007.4406	2809.4572	912	26.75
1007.5596	2810.6294	914	28
1007.6785	2811.801	910.6	24.8
1007.7975	2812.972	916.25	33.7
1007.9163	2814.1423	916.65	32.45
1008.0352	2815.3119	916	31.5
1008.154	2816.4808	915.75	32.05
1008.2727	2817.6491	922.25	37.05
1008.3914	2818.8167	919.5	38.1
1008.5101	2819.9837	926.8	38.9
1008.6288	2821.15	923.45	38.15
1008.7474	2822.3157	924.35	39.35
1008.8659	2823.4807	930.5	46.25
1008.9844	2824.645	935.2	49.8
1009.1029	2825.8086	935.3	52.6
1009.2214	2826.9716	943	58.75
1009.3398	2828.134	945.55	62.95
1009.4581	2829.2957	950.7	66.15
1009.5764	2830.4567	952.15	68.95
1009.6947	2831.617	951.45	67.25
1009.813	2832.7767	953.8	70.35
1009.9312	2833.9358	954.95	72.5
1010.0493	2835.0941	956.05	70.25
1010.1675	2836.2519	953.1	70.3
1010.2855	2837.4089	951.65	66.45
1010.4036	2838.5653	949.75	67.55
1010.5216	2839.7211	945.9	63.35
1010.6396	2840.8761	947.9	61.85
1010.7575	2842.0306	940.8	59.3
1010.8754	2843.1843	944.6	60.3
1010.9932	2844.3374	942.7	57.6
1011.111	2845.4899	946.65	61.35
1011.2288	2846.6417	946.75	62.35
1011.3465	2847.7928	947.25	63.55
1011.4642	2848.9433	949.35	65.9
1011.5818	2850.0931	948.1	62.95
1011.6995	2851.2422	951.85	64.75
1011.817	2852.3907	947.7	61.95
1011.9345	2853.5385	949.5	64.15
1012.052	2854.6857	975.25	66
1012.1695	2855.8323	951.55	67.5
1012.2869	2856.9781	952.8	69.45
1012.4042	2858.1233	954.1	69.6
1012.5216	2859.2679	956.85	73.15
1012.6389	2860.4118	956.75	72.55
1012.7561	2861.555	963.75	74.65
1012.8733	2862.6976	961.8	76.15
1012.9905	2863.8395	959.3	75.15
1013.1076	2864.9808	961.5	76.7
1013.2247	2866.1214	956.4	74.15
1013.3417	2867.2614	964.2	78.6
1013.4587	2868.4007	962.45	77.85
1013.5757	2869.5393	966.1	79.5
1013.6926	2870.6773	969.35	80.7
1013.8095	2871.8146	964.55	77.25
1013.9263	2872.9513	968.4	82.15
1014.0431	2874.0874	967.15	82.9
1014.1599	2875.2227	968.35	83.55
1014.2766	2876.3574	968.4	84.15
1014.3933	2877.4915	968.9	85.75
1014.51	2878.6249	971.7	87.25
1014.6266	2879.7577	973.65	90.35
1014.7431	2880.8898	985.75	91.35
1014.8596	2882.0212	973.3	90.05
1014.9761	2883.152	976.75	92.25
1015.0925	2884.2821	974.95	90.95
1015.2089	2885.4116	975.7	92.35
1015.3253	2886.5405	973.5	91.7
1015.4416	2887.6686	981	92.4
1015.5579	2888.7962	978.5	97.6
1015.6741	2889.923	977.45	91.9
1015.7903	2891.0493	978.55	97.1
1015.9065	2892.1748	984.35	99.45
1016.0226	2893.2997	974.6	91.3
1016.1387	2894.424	976.9	94.4
1016.2547	2895.5476	977.05	92.8
1016.3707	2896.6706	975.35	92.75
1016.4866	2897.7929	980.7	95.8
1016.6025	2898.9145	973.9	88.4
1016.7184	2900.0355	981.05	98.15
1016.8342	2901.1559	980.15	94.5
1016.95	2902.2756	979.95	92.7
1017.0658	2903.3946	977.7	92.65
1017.1815	2904.513	976.85	88.95
1017.2971	2905.6308	974.85	89.3
1017.4127	2906.7479	975.25	88.75
1017.5283	2907.8643	975	89.75
1017.6439	2908.9801	976.75	93.85
1017.7594	2910.0953	979.15	95.15
1017.8748	2911.2098	978.5	91.25
1017.9902	2912.3236	987.15	94.8
1018.1056	2913.4368	978.7	92.55
1018.2209	2914.5494	976.75	91.95
1018.3362	2915.6613	978.05	87.65
1018.4515	2916.7725	975.1	89.15
1018.5667	2917.8831	973.65	88.4
1018.6819	2918.9931	972.65	86.35
1018.797	2920.1024	970.95	85.1
1018.9121	2921.211	971.2	86.65
1019.0271	2922.319	969.2	86
1019.1421	2923.4264	966.45	83.35
1019.2571	2924.5331	966.95	84.65
1019.372	2925.6391	965.65	80.9
1019.4869	2926.7445	960.9	78.9
1019.6017	2927.8493	965.65	81
1019.7165	2928.9534	969.85	86.55
1019.8313	2930.0569	967.45	79.5
1019.946	2931.1597	967.65	82.7
1020.0606	2932.2619	971.35	87.35
1020.1753	2933.3634	969.35	85.35
1020.2899	2934.4643	975.9	85.55
1020.4044	2935.5645	977.85	86.45
1020.5189	2936.6641	974.95	87.1
1020.6334	2937.763	968.65	85.35
1020.7478	2938.8613	967.25	82.85
1020.8622	2939.959	975.9	85.85
1020.9765	2941.056	966.8	83.2
1021.0908	2942.1523	963.8	78.2
1021.2051	2943.248	963.8	78
1021.3193	2944.3431	958.9	75.2
1021.4334	2945.4375	954.2	68.3
1021.5476	2946.5313	950.15	66.3
1021.6617	2947.6244	946.65	64.3
1021.7757	2948.7169	947.9	63.5
1021.8897	2949.8087	942.65	57.5
1022.0037	2950.8999	938.5	54.9
1022.1176	2951.9904	936.3	53.65
1022.2315	2953.0803	932.6	48.15
1022.3453	2954.1696	935.2	50.2
1022.4591	2955.2582	928.6	44.1
1022.5728	2956.3462	928	47.2
1022.6865	2957.4335	931.1	45.85
1022.8002	2958.5202	930.85	43.05
1022.9138	2959.6062	929	43.7
1023.0274	2960.6916	927.9	43.45
1023.141	2961.7764	926.4	42.35
1023.2545	2962.8605	929.25	43.4
1023.3679	2963.9439	927.15	44.35
1023.4813	2965.0267	929.35	43.7
1023.5947	2966.1089	950.05	44.35
1023.708	2967.1905	926.4	41.5
1023.8213	2968.2714	925.45	42.3
1023.9346	2969.3516	924.15	40.6
1024.0478	2970.4312	932.65	42.25
1024.1609	2971.5102	925.55	42.65
1024.274	2972.5885	922.25	38.45
1024.3871	2973.6662	928.8	39.75
1024.5002	2974.7432	925.95	42.15
1024.6132	2975.8196	925.7	42.45
1024.7261	2976.8954	927.45	45.7
1024.839	2977.9705	924.6	39.95
1024.9519	2979.045	926.5	42.1
1025.0647	2980.1188	924.95	42.25
1025.1775	2981.192	924.5	42.5
1025.2902	2982.2645	924.45	38.4
1025.4029	2983.3364	925.1	41.25
1025.5156	2984.4077	921.15	36.4
1025.6282	2985.4783	928.55	38.15
1025.7407	2986.5483	923.45	40.65
1025.8532	2987.6177	920.2	37.8
1025.9657	2988.6864	919.9	36.15
1026.0782	2989.7545	922.05	35.35
1026.1906	2990.8219	916.05	31.85
1026.3029	2991.8887	919.5	34.2
1026.4152	2992.9548	914.55	30.75
1026.5275	2994.0204	913.15	29.45
1026.6397	2995.0852	912.35	29.3
1026.7519	2996.1495	912.65	28.2
1026.864	2997.2131	911.2	27.55
1026.9761	2998.276	909.5	24.95
1027.0882	2999.3383	907.55	22.6
1027.2002	3000.4	904.75	21
1027.3122	3001.4611	906.55	20.85
1027.4241	3002.5215	903.65	18.6
1027.536	3003.5812	905.4	20.85
1027.6478	3004.6404	901.6	18.15
1027.7596	3005.6989	905	19
1027.8714	3006.7567	902.05	17.5
1027.9831	3007.8139	928.7	17.75
1028.0947	3008.8705	902.8	18.3
1028.2064	3009.9264	917.7	16.6
1028.3179	3010.9818	902.1	19.9
1028.4295	3012.0364	903.05	17.65
1028.541	3013.0905	901.5	18.3
1028.6524	3014.1439	901.75	16.95
1028.7638	3015.1966	900.35	17.15
1028.8752	3016.2487	901.85	19.3
1028.9865	3017.3002	904.8	14.9
1029.0978	3018.3511	897.15	15
1029.209	3019.4013	900.2	16.8
1029.3202	3020.4509	898.95	14.5
1029.4314	3021.4998	901	17.65
1029.5425	3022.5481	899.6	14.25
1029.6535	3023.5958	899	16.1
1029.7645	3024.6428	898.15	12.45
1029.8755	3025.6892	900.2	17.6
1029.9864	3026.735	898.05	14.4
1030.0973	3027.7802	898.2	14.05
1030.2082	3028.8247	895.05	12.5
1030.319	3029.8685	897.05	13
1030.4297	3030.9118	898.5	14.75
1030.5404	3031.9544	897.65	14
1030.6511	3032.9963	897.7	14.15
1030.7617	3034.0376	899.05	16.45
1030.8723	3035.0783	901.1	13.55
1030.9829	3036.1184	901.2	16.9
1031.0934	3037.1578	896.9	14.2
1031.2038	3038.1966	900.85	14.6
1031.3142	3039.2348	897.3	15.15
1031.4246	3040.2723	908.45	17.8
1031.5349	3041.3092	898.2	14.95
1031.6452	3042.3455	900.3	15.25
1031.7554	3043.3811	900.15	13.85
1031.8656	3044.4161	900.9	15.35
1031.9758	3045.4505	898.85	16.35
1032.0859	3046.4842	897.75	13.15
1032.1959	3047.5173	898.35	14.65
1032.3059	3048.5498	899.7	16.15
1032.4159	3049.5816	901.2	16.9
1032.5258	3050.6128	899.65	14.1
1032.6357	3051.6434	900.15	13.7
1032.7455	3052.6734	901.2	16.7
1032.8553	3053.7027	899.65	15
1032.9651	3054.7314	898.4	16.25
1033.0748	3055.7594	898.65	14.4
1033.1845	3056.7868	900.9	16.95
1033.2941	3057.8136	899.05	14.95
1033.4037	3058.8398	898.95	15.3
1033.5132	3059.8653	899.05	15.7
1033.6227	3060.8902	899.75	16.4
1033.7321	3061.9145	898.3	13.25
1033.8415	3062.9381	899.05	16.3
1033.9509	3063.9612	914.15	15
1034.0602	3064.9835	898.5	14.2
1034.1694	3066.0053	901	14.75
1034.2787	3067.0264	898.2	16.6
1034.3878	3068.0469	900.35	15.35
1034.497	3069.0668	903.6	17.25
1034.6061	3070.086	900	16.3
1034.7151	3071.1046	904.1	17.5
1034.8241	3072.1226	899.3	12.85
1034.9331	3073.1399	899.25	15.75
1035.042	3074.1567	899.75	13.25
1035.1508	3075.1727	901.75	14.6
1035.2597	3076.1882	898.5	15.8
1035.3684	3077.203	899.1	14.4
1035.4772	3078.2173	897.3	11.55
1035.5859	3079.2308	900.2	12.35
1035.6945	3080.2438	898.3	12.45
1035.8031	3081.2561	896.9	12.6
1035.9117	3082.2678	898.5	13.75
1036.0202	3083.2789	896.1	11.95
1036.1286	3084.2893	896.6	14.2
1036.2371	3085.2991	896.8	12.95
1036.3454	3086.3083	900.45	13.1
1036.4538	3087.3169	898.45	13.5
1036.562	3088.3248	898.3	13.2
1036.6703	3089.3321	895.05	8.75
1036.7785	3090.3388	893.3	9.35
1036.8866	3091.3449	893.7	9.05
1036.9948	3092.3503	897.05	9.7
1037.1028	3093.3551	893.8	12.9
1037.2108	3094.3593	893.7	11.65
1037.3188	3095.3629	895.65	14.6
1037.4267	3096.3658	896.25	12.65
1037.5346	3097.3681	895.05	12.3
1037.6425	3098.3698	896.9	11.75
1037.7503	3099.3708	896.9	11.7
1037.858	3100.3713	895.95	11.45
1037.9657	3101.3711	896.1	11.85
1038.0734	3102.3702	1035.2	11.25
1038.181	3103.3688	897.25	11.35
1038.2886	3104.3667	892.45	8.4
1038.3961	3105.364	893.65	10.05
1038.5036	3106.3607	893.25	8
1038.611	3107.3568	894.45	8.05
1038.7184	3108.3522	891.6	9.35
1038.8257	3109.347	893.4	7.45
1038.933	3110.3412	898.7	9.65
1039.0403	3111.3348	894.15	9.1
1039.1475	3112.3277	892.6	9.3
1039.2547	3113.32	891.2	8.25
1039.3618	3114.3117	893.3	9.15
1039.4689	3115.3028	893.6	9
1039.5759	3116.2932	894.3	10.8
1039.6829	3117.2831	898.9	7.9
1039.7898	3118.2723	893.6	10.95
1039.8967	3119.2608	892.95	9.4
1040.0035	3120.2488	893.55	9.9
1040.1103	3121.2361	892.45	9.8
1040.2171	3122.2229	890.7	7.2
1040.3238	3123.209	891.55	7.15
1040.4305	3124.1944	892.3	9.2
1040.5371	3125.1793	894.6	10.05
1040.6437	3126.1635	890.25	7.7
1040.7502	3127.1471	893.25	8.9
1040.8567	3128.1301	890.4	7.95
1040.9631	3129.1125	892	8.75
1041.0695	3130.0942	891.45	5.8
1041.1759	3131.0753	900.5	7.55
1041.2822	3132.0558	896.2	7.75
1041.3884	3133.0357	893.9	9.2
1041.4946	3134.015	894.5	11.3
1041.6008	3134.9936	892.15	6.2
1041.7069	3135.9716	911.6	6.75
1041.813	3136.949	893.05	8.65
1041.919	3137.9258	911.85	10.45
1042.025	3138.902	897.5	7.5
1042.1309	3139.8775	891	5.65
1042.2368	3140.8524	888.9	5.55
1042.3427	3141.8267	891.75	5.2
1042.4485	3142.8004	892.6	8.2
1042.5542	3143.7735	897.7	5.8
1042.6599	3144.7459	893.65	8
1042.7656	3145.7178	890.55	5.2
1042.8712	3146.689	890.8	7.85
1042.9768	3147.6596	890.65	4
1043.0823	3148.6295	889.45	3.75
1043.1878	3149.5989	888.85	3.55
1043.2932	3150.5676	887.85	4.1
1043.3986	3151.5357	888.65	5
1043.5039	3152.5032	889.85	6.95
1043.6092	3153.4701	890.5	7.8
1043.7145	3154.4364	893.2	6.75
1043.8197	3155.402	888.35	6.9
1043.9248	3156.367	894.65	7.5
1044.03	3157.3315	912.5	8.05
1044.135	3158.2952	891.55	7.35
1044.24	3159.2584	889.9	6
1044.345	3160.221	891.15	5.65
1044.4499	3161.1829	890.05	6.15
1044.5548	3162.1442	891.4	6.05
1044.6596	3163.105	890.35	7.4
1044.7644	3164.065	892.25	7.9
1044.8692	3165.0245	896.55	10.5
1044.9739	3165.9834	888.55	9.6
1045.0785	3166.9416	888.95	4.35
1045.1831	3167.8993	888.55	5.3
1045.2877	3168.8563	892.4	7.6
1045.3922	3169.8127	890.2	7.5
1045.4966	3170.7684	889.4	4.8
1045.6011	3171.7236	891.95	6.9
1045.7054	3172.6782	890.35	6.15
1045.8098	3173.6321	891.45	3.85
1045.914	3174.5854	893	7.7
1046.0183	3175.5381	892.45	7
1046.1224	3176.4902	889.3	4.85
1046.2266	3177.4417	888.45	5.4
1046.3307	3178.3926	891.65	7.25
1046.4347	3179.3428	887.85	4.45
1046.5387	3180.2924	888.95	4.8
1046.6427	3181.2415	889.45	5.1
1046.7466	3182.1899	892.6	6.5
1046.8504	3183.1377	889	5.05
1046.9542	3184.0848	892.75	4.95
1047.058	3185.0314	890.95	5.3
1047.1617	3185.9773	890.7	5.15
1047.2654	3186.9227	890.3	3.7
1047.369	3187.8674	891.6	8.05
1047.4726	3188.8115	893.65	5.3
1047.5761	3189.755	887.85	6.05
1047.6796	3190.6979	888.8	5
1047.783	3191.6402	889.45	6.25
1047.8864	3192.5818	889.35	7.05
1047.9898	3193.5229	903.4	5.65
1048.0931	3194.4633	890.35	6
1048.1963	3195.4031	889.3	3.55
1048.2995	3196.3423	888.7	4.1
1048.4027	3197.2809	888.9	6.3
1048.5058	3198.2189	888.25	1.65
1048.6089	3199.1563	906.75	5.45
1048.7119	3200.0931	889.5	5.05
1048.8148	3201.0292	887.1	5.35
1048.9178	3201.9648	888.75	6.4
1049.0206	3202.8997	890.95	4.45
1049.1235	3203.834	889.2	4.85
1049.2262	3204.7677	890.45	6.15
1049.329	3205.7008	891.25	5.55
1049.4317	3206.6333	887.2	5.25
1049.5343	3207.5652	890.55	3.95
1049.6369	3208.4964	889.4	6.6
1049.7394	3209.4271	888.75	3.95
1049.8419	3210.3571	887.3	4.65
1049.9444	3211.2865	890.35	4.85
1050.0468	3212.2154	889.75	4.7
1050.1491	3213.1436	891.25	3
1050.2514	3214.0712	893.95	4
1050.3537	3214.9982	888	4.45
1050.4559	3215.9246	889.05	3.8
1050.5581	3216.8503	887.45	5.9
1050.6602	3217.7755	888.25	2.95
1050.7623	3218.7001	888.9	3.5
1050.8643	3219.624	888.4	4.1
1050.9663	3220.5473	888.95	4.85
1051.0682	3221.4701	890.8	5.7
1051.1701	3222.3922	890.75	4.75
1051.2719	3223.3137	888.75	4.85
1051.3737	3224.2346	888.8	5.2
1051.4754	3225.1549	887.65	3.75
1051.5771	3226.0746	887.5	5.15
1051.6788	3226.9937	888.55	3.75
1051.7804	3227.9121	885.85	2.7
1051.8819	3228.83	889	5.35
1051.9834	3229.7473	887.4	2.35
1052.0849	3230.6639	890.4	7.05
1052.1863	3231.5799	885.65	1.6
1052.2876	3232.4954	888.3	4.3
1052.3889	3233.4102	888.5	5.1
1052.4902	3234.3244	887.2	1.9
1052.5914	3235.238	889.05	4.95
1052.6926	3236.151	913.65	2.65
1052.7937	3237.0634	888.65	6.75
1052.8948	3237.9752	886.2	3.3
1052.9958	3238.8864	889.6	5.35
1053.0968	3239.797	888.9	3.8
1053.1977	3240.7069	888.5	2.4
1053.2986	3241.6163	890.8	6.2
1053.3994	3242.5251	887.35	4
1053.5002	3243.4332	886.1	2.5
1053.6009	3244.3408	888.3	2.45
1053.7016	3245.2477	886.65	3.7
1053.8022	3246.154	888.95	3.4
1053.9028	3247.0598	889.75	2.5
1054.0034	3247.9649	888.5	3.6
1054.1039	3248.8694	886.85	3.25
1054.2043	3249.7733	890.05	3.55
1054.3047	3250.6766	887.35	2.85
1054.4051	3251.5793	888.7	3.15
1054.5054	3252.4814	887.05	3.15
1054.6056	3253.3829	889.6	6.35
1054.7058	3254.2838	886.8	1.95
1054.806	3255.1841	888.8	5.05
1054.9061	3256.0838	888.35	6
1055.0061	3256.9829	886.05	2.35
1055.1062	3257.8814	891.35	5.15
1055.2061	3258.7792	887.75	1.05
1055.306	3259.6765	889.4	5.1
1055.4059	3260.5731	886.75	1.7
1055.5057	3261.4692	889.2	4.05
1055.6055	3262.3647	889.55	5.8
1055.7052	3263.2595	886.55	3.05
1055.8049	3264.1538	887.1	3.2
1055.9045	3265.0474	886.95	2.35
1056.0041	3265.9404	886.55	3.8
1056.1036	3266.8329	887.55	5.4
1056.2031	3267.7247	896.85	2.55
1056.3025	3268.616	884.8	3.5
1056.4019	3269.5066	887.55	3.8
1056.5013	3270.3966	888.05	1.8
1056.6005	3271.286	886.95	3.9
