Software Version:	3.9.2.0
Unit SN:	10000200
Spectrometer SN:	6960
Date:	3/14/2024 2:07:49 PM
Data Line Index:	25
Spectral Points:	2048
Integration time (ms):	125
Averages:	20
Delay (ms):	30000
Sequence Number:	1
Processing:	dark subtract
Laser Power (mW):	300
Laser Current (mA):	825
Laser Diode Temp (C):	25.1
Laser Case Temp (C):	29
System Temp (C):	29
Spectrometer Temp (C):	26.9
CCD Temp (C):	0.009
Secondary Temp (C):	20.007
Heatsink Temp (C):	24.817
CCDPCB Temp (C):	38.363
SecondaryPCB Temp (C):	35.973

Wavelength	RamanShift	Raw Counts	Dark Subtracted
787.061	30.1047	444.7	33.95
787.2016	32.3739	443	34.55
787.3422	34.6426	449.7	39.45
787.4828	36.9109	454.1	41.85
787.6235	39.1787	460.2	44.15
787.7642	41.4461	469.5	47.65
787.9049	43.7131	476.8	52.85
788.0456	45.9796	482.9	57
788.1863	48.2456	492.4	60.2
788.3271	50.5112	500.9	64.9
788.4679	52.7764	508.15	70.25
788.6087	55.0411	513.05	72.1
788.7496	57.3054	521.3	76.2
788.8904	59.5692	532.95	83.85
789.0313	61.8326	542	89.55
789.1722	64.0955	552.55	94.6
789.3132	66.3579	566.55	103.7
789.4541	68.6199	581.65	117.7
789.5951	70.8815	606.35	137.95
789.7361	73.1426	659.75	187.45
789.8771	75.4032	798.95	322.95
790.0181	77.6634	1144.15	659.85
790.1592	79.9231	1955.55	1468.25
790.3003	82.1824	3724.65	3225.6
790.4414	84.4412	6973.8	6456.7
790.5825	86.6995	11586.5	11050.65
790.7237	88.9574	16270.1	15712.15
790.8648	91.2148	19615.75	19042.2
791.006	93.4717	21291.65	20710.75
791.1472	95.7282	21741.45	21158.2
791.2885	97.9842	21796.25	21205.5
791.4297	100.2398	21445.2	20853
791.571	102.4949	20997.9	20406.65
791.7123	104.7495	20491.7	19892.15
791.8536	107.0036	19855.7	19255.5
791.9949	109.2573	19228.45	18630
792.1363	111.5105	18668.2	18065.95
792.2777	113.7632	18062.35	17458.75
792.4191	116.0154	17593.75	16979.35
792.5605	118.2672	17177.45	16572.4
792.7019	120.5185	16753.65	16149.65
792.8434	122.7693	16440.9	15830.1
792.9849	125.0197	16210.05	15597.35
793.1264	127.2696	15973.1	15357.5
793.2679	129.519	15864.65	15246.55
793.4094	131.7679	15731.35	15111.45
793.551	134.0163	15647.25	15024.6
793.6926	136.2642	15547.25	14915.8
793.8342	138.5117	15439.1	14800.4
793.9758	140.7587	15265.85	14634.5
794.1175	143.0052	15150.25	14515.3
794.2591	145.2512	14979.95	14344.55
794.4008	147.4967	14860.2	14225.85
794.5425	149.7417	14733.95	14097.55
794.6842	151.9863	14640.2	13996.65
794.826	154.2304	14596.85	13952.65
794.9677	156.4739	14473.5	13822.9
795.1095	158.717	14430.75	13779.65
795.2513	160.9596	14316.75	13661.2
795.3931	163.2017	14117.85	13459.95
795.535	165.4433	13916	13259.25
795.6768	167.6844	13622.45	12962.7
795.8187	169.925	13361.95	12700.3
795.9606	172.1651	13067.8	12403.35
796.1025	174.4047	12863.45	12193.4
796.2445	176.6439	12629.85	11957.4
796.3864	178.8825	12431.15	11758.05
796.5284	181.1206	12289.15	11613.25
796.6704	183.3582	12147.5	11465.2
796.8124	185.5954	12065.65	11381.95
796.9544	187.832	11966.2	11280.35
797.0965	190.0681	11912.7	11226.6
797.2386	192.3037	11921.3	11233.85
797.3806	194.5388	11880.95	11186.4
797.5228	196.7734	11928.55	11235.25
797.6649	199.0075	11974.25	11278.3
797.807	201.2411	12042	11342.9
797.9492	203.4742	12080.5	11377.7
798.0914	205.7068	12198.35	11496
798.2336	207.9389	12232.5	11525.65
798.3758	210.1704	12343.95	11638.3
798.518	212.4015	12419.5	11712.9
798.6603	214.632	12544.85	11832.9
798.8025	216.862	12698.5	11992.55
798.9448	219.0915	12798.85	12104.1
799.0871	221.3205	12992.75	12302.15
799.2294	223.549	13219.7	12533.45
799.3718	225.777	13513	12826.6
799.5141	228.0044	13826.7	13135.15
799.6565	230.2314	14233.95	13546.65
799.7989	232.4578	14634.6	13946.3
799.9413	234.6837	14963.3	14266.7
800.0837	236.909	15123.45	14427.45
800.2262	239.1339	15062.05	14338.95
800.3687	241.3582	14844.3	14138.55
800.5111	243.582	14548.5	13814.8
800.6536	245.8053	14168.5	13444.3
800.7961	248.0281	13870.3	13151.4
800.9387	250.2503	13610.05	12885.8
801.0812	252.472	13415.15	12686.5
801.2238	254.6932	13333.05	12603.15
801.3664	256.9139	13203.05	12468.7
801.509	259.134	13122.9	12384.45
801.6516	261.3536	13053.3	12318.05
801.7942	263.5727	12988.85	12251.85
801.9369	265.7912	12876.85	12140.55
802.0795	268.0092	12822.2	12086.3
802.2222	270.2267	12744.3	12006.65
802.3649	272.4436	12695.35	11957.45
802.5076	274.6601	12644.85	11897.85
802.6504	276.8759	12572.65	11830.3
802.7931	279.0913	12599.85	11857.8
802.9359	281.3061	12612.35	11870.55
803.0787	283.5204	12713.1	11970.35
803.2215	285.7341	12797.4	12048.65
803.3643	287.9473	12920.45	12157.75
803.5071	290.16	13155.85	12396.1
803.6499	292.3721	13404.2	12653.65
803.7928	294.5837	13799.45	13048.05
803.9357	296.7947	14063.6	13313.45
804.0786	299.0052	14177.1	13424.95
804.2215	301.2152	14075.05	13320.25
804.3644	303.4246	13774.5	13024.35
804.5074	305.6334	13308.3	12555.6
804.6503	307.8418	12848.85	12089.85
804.7933	310.0495	12505.45	11748.5
804.9363	312.2568	12282.7	11529.65
805.0793	314.4635	12145.25	11387.8
805.2223	316.6696	12103.1	11346.85
805.3653	318.8752	12103.65	11338
805.5084	321.0802	12155.35	11396.9
805.6514	323.2847	12260.95	11500.3
805.7945	325.4887	12279.7	11520.35
805.9376	327.692	12224.6	11462.1
806.0807	329.8949	12131.35	11363.9
806.2238	332.0972	11880.8	11115.05
806.367	334.2989	11647.65	10876.6
806.5101	336.5001	11425.95	10658.95
806.6533	338.7007	11256.9	10489.6
806.7965	340.9008	11168.15	10396.35
806.9397	343.1003	11103.6	10331.6
807.0829	345.2992	11031.1	10260.8
807.2261	347.4976	11021.9	10247.9
807.3693	349.6955	11013.2	10234.7
807.5126	351.8927	11068.1	10288.05
807.6559	354.0895	11075.95	10283.4
807.7991	356.2856	11107.8	10329.45
807.9424	358.4812	11074.55	10296.8
808.0857	360.6763	11101.85	10320.7
808.2291	362.8707	11052.9	10271.45
808.3724	365.0646	11055.8	10270.8
808.5158	367.258	11053.35	10268.8
808.6591	369.4508	11022.8	10234.6
808.8025	371.643	11085.8	10295.55
808.9459	373.8346	11036.3	10244.4
809.0893	376.0257	11030.45	10238.15
809.2327	378.2162	10936.7	10145.15
809.3762	380.4062	10866.1	10071.8
809.5196	382.5956	10748.8	9949.55
809.6631	384.7844	10632.15	9834.1
809.8066	386.9726	10529.15	9729.7
809.9501	389.1603	10476.15	9680.5
810.0936	391.3474	10449.85	9621.6
810.2371	393.5339	10434.3	9640.05
810.3806	395.7199	10405.2	9611.05
810.5241	397.9052	10388.7	9600.95
810.6677	400.09	10397.05	9613.35
810.8113	402.2743	10430.25	9641.6
810.9548	404.4579	10443.9	9655.1
811.0984	406.641	10568.75	9778.25
811.2421	408.8235	10722.2	9934.7
811.3857	411.0054	10995	10203.9
811.5293	413.1868	11409.9	10615.65
811.673	415.3675	11736.7	10938.55
811.8166	417.5477	11874.15	11076.35
811.9603	419.7273	11900.85	11100.05
812.104	421.9064	11775	10966.45
812.2477	424.0848	11655.5	10851.5
812.3914	426.2627	11480.25	10672.95
812.5351	428.4399	11226.55	10418.95
812.6788	430.6166	10947	10136.15
812.8226	432.7928	10635.35	9823.5
812.9663	434.9683	10388.4	9578.55
813.1101	437.1432	10198.45	9384.1
813.2539	439.3176	10074	9261.8
813.3977	441.4914	9986.85	9171.1
813.5415	443.6645	9976.7	9160.1
813.6853	445.8371	9917.95	9101.3
813.8291	448.0091	9856.3	9042.2
813.973	450.1806	9790.85	8975.95
814.1168	452.3514	9732.1	8913.4
814.2607	454.5216	9754.6	8930
814.4046	456.6913	9673.15	8855.8
814.5485	458.8603	9697.05	8875.2
814.6924	461.0288	9731.55	8913.75
814.8363	463.1967	9747.25	8929.95
814.9802	465.3639	9876.25	9058.25
815.1241	467.5306	9949.45	9129.25
815.2681	469.6967	10111	9292.55
815.412	471.8622	10208.25	9387.85
815.556	474.0271	10327.95	9509.65
815.7	476.1914	10405	9582.95
815.844	478.3551	10365.95	9541.7
815.988	480.5182	10317.25	9494.7
816.132	482.6807	10264.25	9441.55
816.276	484.8426	10330.75	9508.85
816.4201	487.0039	10504.1	9679.75
816.5641	489.1647	10792	9969.25
816.7082	491.3248	11130.45	10306.35
816.8522	493.4843	11326.6	10503.15
816.9963	495.6432	11334.45	10510.8
817.1404	497.8015	11228.4	10399.25
817.2845	499.9592	11251.45	10425.95
817.4286	502.1163	11262.15	10435
817.5727	504.2728	11070.05	10243.6
817.7168	506.4287	10817.25	9991
817.861	508.5839	10459.2	9631.9
818.0051	510.7386	10194.7	9366.8
818.1493	512.8927	10039.85	9204.6
818.2935	515.0461	9878.7	9048.8
818.4377	517.199	9809.15	8980.25
818.5818	519.3512	9737.75	8909
818.726	521.5029	9738.05	8903.05
818.8703	523.6539	9714.05	8880.75
819.0145	525.8043	9750.25	8919.7
819.1587	527.9541	9769	8934.15
819.303	530.1033	9781.05	8948.1
819.4472	532.2519	9850.9	9017.9
819.5915	534.3999	9983.4	9148.1
819.7357	536.5472	10216.4	9381.9
819.88	538.694	10630.35	9796.9
820.0243	540.8401	11167.6	10334.05
820.1686	542.9856	11588.6	10752.5
820.3129	545.1305	11717.6	10880.45
820.4572	547.2748	11559.4	10721.85
820.6016	549.4185	11222.4	10386.9
820.7459	551.5615	10898	10063.35
820.8902	553.704	10732.4	9893.7
821.0346	555.8458	10649.85	9816.1
821.1789	557.987	10574	9738.1
821.3233	560.1276	10483.3	9644.4
821.4677	562.2675	10396	9557.8
821.6121	564.4069	10295.8	9460.95
821.7565	566.5456	10169	9334.15
821.9009	568.6837	10041.1	9203.55
822.0453	570.8212	9902.9	9065.95
822.1897	572.958	9725.6	8884.45
822.3342	575.0942	9583.65	8744.25
822.4786	577.2299	9501.65	8661.4
822.6231	579.3648	9509.2	8670.2
822.7675	581.4992	9618.1	8778.55
822.912	583.6329	9766.95	8927.9
823.0565	585.766	9944.85	9106.45
823.201	587.8985	10053.3	9216.7
823.3454	590.0304	10061.5	9214
823.4899	592.1616	10001.15	9157.05
823.6345	594.2922	9903.9	9063.75
823.779	596.4222	9781.6	8940.05
823.9235	598.5515	9657.15	8815.55
824.068	600.6802	9528.7	8687.85
824.2126	602.8083	9403.65	8561.35
824.3571	604.9358	9335.75	8490.05
824.5017	607.0626	9265.1	8419.65
824.6462	609.1888	9164.25	8320.5
824.7908	611.3144	9065.35	8220.65
824.9354	613.4393	8962.3	8119.7
825.08	615.5636	8842.4	7998.7
825.2246	617.6873	8722.6	7879.5
825.3692	619.8103	8692.2	7846.05
825.5138	621.9327	8619.95	7770.95
825.6584	624.0544	8610.45	7767.6
825.803	626.1756	8607	7761.5
825.9477	628.2961	8595.6	7747.6
826.0923	630.4159	8541.35	7693.25
826.237	632.5351	8524.25	7676.8
826.3816	634.6537	8453.5	7606.2
826.5263	636.7716	8418.5	7569.3
826.6709	638.8889	8426.35	7578.1
826.8156	641.0056	8420.3	7572.8
826.9603	643.1216	8415.75	7567
827.105	645.237	8437.6	7584
827.2497	647.3518	8431.75	7580.55
827.3944	649.4659	8458.3	7607.15
827.5391	651.5793	8468.65	7619.95
827.6838	653.6922	8434.8	7587.15
827.8285	655.8043	8419.75	7570.05
827.9733	657.9159	8400.75	7547.5
828.118	660.0268	8331.2	7479.5
828.2627	662.137	8264.2	7413.5
828.4075	664.2466	8225.2	7371.45
828.5522	666.3556	8181.2	7330.9
828.697	668.4639	8178.9	7324.55
828.8418	670.5716	8206.25	7353.3
828.9865	672.6786	8282.85	7429.7
829.1313	674.785	8323.85	7468.6
829.2761	676.8907	8406.1	7552.3
829.4209	678.9958	8450.5	7597.4
829.5657	681.1002	8438.55	7582.25
829.7105	683.204	8427.35	7569.7
829.8553	685.3072	8369.55	7512.85
830.0001	687.4097	8277.1	7422.35
830.1449	689.5115	8214.25	7357.9
830.2898	691.6127	8158.95	7305.2
830.4346	693.7132	8084.1	7227.6
830.5794	695.8131	8057.1	7180.5
830.7243	697.9123	7975.8	7120.9
830.8691	700.0109	7947.2	7091.25
831.014	702.1089	7914.45	7057.2
831.1588	704.2061	7910.15	7052.6
831.3037	706.3028	7933.5	7075.85
831.4486	708.3987	7971.15	7115.25
831.5935	710.4941	8036.85	7180.7
831.7383	712.5887	8188.1	7330.85
831.8832	714.6827	8444.15	7581.5
832.0281	716.7761	8737.65	7880.4
832.173	718.8688	9036.3	8175.35
832.3179	720.9608	9170	8308.35
832.4628	723.0522	9180.4	8316.3
832.6077	725.1429	8926	8066.85
832.7527	727.233	8646.65	7787.35
832.8976	729.3224	8371.15	7511
833.0425	731.4112	8117.1	7256.5
833.1874	733.4993	7963.05	7100.7
833.3324	735.5867	7872.1	7010.25
833.4773	737.6735	7807.1	6945.95
833.6222	739.7596	7739.95	6877.25
833.7672	741.845	7740.35	6878.75
833.9122	743.9298	7747.95	6884.8
834.0571	746.014	7727.65	6866.7
834.2021	748.0974	7722.45	6862.35
834.347	750.1802	7727.3	6864.8
834.492	752.2624	7729.15	6868.95
834.637	754.3439	7722.8	6858.55
834.782	756.4247	7779.85	6907.35
834.9269	758.5048	7855.85	6995.85
835.0719	760.5843	7967.9	7104.3
835.2169	762.6631	8155.85	7291.65
835.3619	764.7413	8437.7	7575.55
835.5069	766.8188	8871.4	8009.05
835.6519	768.8956	9221.75	8357
835.7969	770.9718	9445.25	8582.45
835.9419	773.0473	9348.95	8485.6
836.0869	775.1221	9078.75	8215.6
836.232	777.1962	8759.95	7897.8
836.377	779.2697	8604.75	7740.15
836.522	781.3426	8677.1	7801.4
836.667	783.4147	8916.7	8053.65
836.8121	785.4862	9161.6	8300.6
836.9571	787.557	9183.75	8315.3
837.1021	789.6271	8918.35	8053.35
837.2472	791.6966	8470.25	7603.85
837.3922	793.7654	8075.05	7208.25
837.5373	795.8335	7826.1	6960.95
837.6823	797.901	7720.4	6855.9
837.8274	799.9678	7656	6791.95
837.9724	802.0339	7663.6	6801.05
838.1175	804.0993	7716.75	6841
838.2626	806.1641	7689.9	6824.75
838.4076	808.2282	7640.2	6773.5
838.5527	810.2916	7574.65	6705.95
838.6978	812.3544	7475.1	6609
838.8428	814.4164	7417.8	6553.9
838.9879	816.4778	7394	6526.15
839.133	818.5385	7390.2	6523.55
839.2781	820.5986	7397.9	6532.65
839.4232	822.658	7422.5	6551.8
839.5682	824.7166	7446.8	6580.8
839.7133	826.7747	7554.45	6689.75
839.8584	828.832	7624.4	6756.75
840.0035	830.8886	7683.3	6813.85
840.1486	832.9446	7774.25	6905.5
840.2937	834.9999	7847.25	6981.3
840.4388	837.0545	7911.3	7040.2
840.5839	839.1085	7962.8	7096.85
840.729	841.1618	7981.25	7110.35
840.8741	843.2143	7967	7101.45
841.0192	845.2662	7902.6	7036.3
841.1643	847.3175	7863.1	6998
841.3095	849.368	7777.1	6912.9
841.4546	851.4179	7684.85	6818.55
841.5997	853.467	7542.7	6674.6
841.7448	855.5155	7465.95	6595.8
841.8899	857.5633	7386.1	6516.95
842.0351	859.6105	7275.75	6406.55
842.1802	861.6569	7214.3	6346.95
842.3253	863.7027	7184.35	6314.85
842.4704	865.7478	7145.05	6275.65
842.6156	867.7922	7154.7	6288.05
842.7607	869.8359	7194.65	6325.7
842.9058	871.8789	7289.75	6420.65
843.0509	873.9212	7446	6546.5
843.1961	875.9629	7557.85	6688.65
843.3412	878.0039	7669.75	6798.6
843.4863	880.0441	7762.75	6892.5
843.6315	882.0837	7755.8	6884.8
843.7766	884.1226	7629.5	6757.85
843.9218	886.1609	7500.55	6631.8
844.0669	888.1984	7384.4	6515.9
844.212	890.2352	7349.2	6479.95
844.3572	892.2714	7281.7	6403.75
844.5023	894.3069	7270.3	6403.45
844.6475	896.3416	7213.25	6341.35
844.7926	898.3757	7184.7	6313.3
844.9377	900.4091	7180.35	6307.45
845.0829	902.4418	7196.85	6322.3
845.228	904.4739	7189.65	6318.5
845.3732	906.5052	7196	6324.25
845.5183	908.5358	7100.7	6229.85
845.6635	910.5658	6977	6105.15
845.8086	912.595	6839.6	5968.25
845.9538	914.6236	6747.05	5877.45
846.0989	916.6515	6725.65	5854.15
846.2441	918.6786	6729.1	5854.7
846.3892	920.7051	6777.1	5904.7
846.5344	922.7309	6852.35	5981.05
846.6795	924.756	6906.8	6033.65
846.8246	926.7804	6966.35	6093.4
846.9698	928.8041	6947.5	6074.65
847.1149	930.8272	6957.35	6086.85
847.2601	932.8495	6886.2	6015.05
847.4052	934.8711	6817.95	5944.55
847.5504	936.892	6705	5832.2
847.6955	938.9123	6571.9	5699.2
847.8407	940.9318	6456.6	5585.3
847.9858	942.9506	6353	5478.5
848.131	944.9688	6290.1	5418.4
848.2761	946.9862	6267.7	5394.6
848.4213	949.003	6233.8	5361.65
848.5664	951.019	6213.4	5339.4
848.7115	953.0344	6248.85	5372.55
848.8567	955.0491	6285.25	5411.1
849.0018	957.063	6339.35	5466.85
849.147	959.0763	6408.35	5536
849.2921	961.0888	6431.45	5556.3
849.4373	963.1007	6486.5	5612.6
849.5824	965.1119	6534.5	5661.9
849.7275	967.1223	6544.25	5670.25
849.8727	969.1321	6559.5	5688.15
850.0178	971.1412	6586.05	5714
850.1629	973.1495	6593.4	5720.4
850.3081	975.1572	6661.1	5737.15
850.4532	977.1641	6635.65	5762.25
850.5983	979.1704	6609.25	5733.85
850.7435	981.1759	6615.7	5740.45
850.8886	983.1808	6667.9	5790.95
851.0337	985.1849	6742.5	5855.95
851.1788	987.1884	6870.05	5993.45
851.324	989.1911	7003.3	6126.6
851.4691	991.1932	7129.85	6250.15
851.6142	993.1945	7174.85	6298.45
851.7593	995.1951	7154.4	6279.7
851.9045	997.1951	7107.65	6226.4
852.0496	999.1943	7060.35	6186.6
852.1947	1001.1928	6983.55	6108.1
852.3398	1003.1906	6960.1	6085.85
852.4849	1005.1877	7021.3	6144.1
852.63	1007.1841	6983.75	6108.8
852.7751	1009.1798	6873.95	6000.35
852.9202	1011.1748	6750.3	5877.05
853.0653	1013.1691	6583.45	5706.35
853.2104	1015.1627	6422.65	5548.3
853.3555	1017.1556	6276.75	5401.05
853.5006	1019.1477	6231.75	5356
853.6457	1021.1392	6168.25	5291.9
853.7908	1023.1299	6160.3	5282.75
853.9359	1025.12	6178.3	5299.7
854.081	1027.1093	6239.1	5365.05
854.2261	1029.0979	6268.6	5395.5
854.3712	1031.0859	6335.85	5460.65
854.5163	1033.0731	6298.65	5425.5
854.6613	1035.0596	6243.25	5368.5
854.8064	1037.0454	6154.65	5279.6
854.9515	1039.0304	6070.55	5194.9
855.0965	1041.0148	5956.95	5081.7
855.2416	1042.9985	5898.25	5023.75
855.3867	1044.9814	5848.7	4972.3
855.5317	1046.9636	5813.25	4934.05
855.6768	1048.9452	5802.25	4928.15
855.8219	1050.926	5797.45	4924.25
855.9669	1052.9061	5776.1	4899.85
856.112	1054.8855	5778.9	4901.5
856.257	1056.8642	5798.45	4923.9
856.4021	1058.8421	5828.5	4947.3
856.5471	1060.8194	5849.25	4974.35
856.6921	1062.7959	5856.55	4980.35
856.8372	1064.7717	5881.55	5004.5
856.9822	1066.7469	5868.35	4990.65
857.1272	1068.7213	5834.6	4955.5
857.2723	1070.695	5806.1	4930.75
857.4173	1072.6679	5759.8	4885.35
857.5623	1074.6402	5722.1	4844.95
857.7073	1076.6117	5707.85	4826.4
857.8523	1078.5826	5737.5	4860.1
857.9973	1080.5527	5805.8	4927.55
858.1423	1082.5221	5895.65	5019.65
858.2873	1084.4908	6053.05	5178.8
858.4323	1086.4587	6233.6	5355.3
858.5773	1088.426	6354.1	5476.15
858.7223	1090.3925	6350.9	5469.65
858.8673	1092.3584	6284.5	5407.65
859.0123	1094.3235	6150.6	5273.5
859.1573	1096.2879	6055.35	5178.8
859.3022	1098.2515	6027.1	5150.35
859.4472	1100.2145	6042.15	5163.55
859.5922	1102.1767	6092.6	5212.55
859.7371	1104.1382	6187.45	5308
859.8821	1106.099	6329.35	5451.65
860.027	1108.0591	6508.4	5632.2
860.172	1110.0185	6595.05	5715
860.3169	1111.9771	6602.85	5728.55
860.4619	1113.9351	6406.55	5530.3
860.6068	1115.8923	6150.05	5272.9
860.7517	1117.8488	5903.4	5024.45
860.8967	1119.8045	5681.55	4801.9
861.0416	1121.7596	5572.2	4694.55
861.1865	1123.7139	5521.15	4643.45
861.3314	1125.6675	5530.15	4651.8
861.4763	1127.6204	5575.1	4696.95
861.6212	1129.5726	5603.7	4723.45
861.7661	1131.524	5635.55	4760.3
861.911	1133.4748	5653.7	4773.85
862.0559	1135.4248	5687.6	4809.05
862.2008	1137.3741	5717.4	4839.5
862.3457	1139.3226	5694.65	4815.45
862.4905	1141.2705	5677.65	4800.9
862.6354	1143.2176	5619.8	4734.15
862.7803	1145.164	5640.55	4760.5
862.9251	1147.1097	5667.15	4787.15
863.07	1149.0546	5640.7	4761.45
863.2148	1150.9989	5572.2	4693
863.3597	1152.9424	5439.25	4558.65
863.5045	1154.8852	5287.5	4410.05
863.6493	1156.8272	5168.65	4292.2
863.7942	1158.7686	5122.85	4239.45
863.939	1160.7092	5085.45	4206.3
864.0838	1162.6491	5068.4	4187.3
864.2286	1164.5883	5141.75	4264.2
864.3734	1166.5267	5192.5	4312
864.5182	1168.4644	5300.55	4422
864.663	1170.4014	5432.05	4550
864.8078	1172.3377	5581.55	4702.7
864.9526	1174.2732	5740.95	4861.85
865.0974	1176.2081	5881.1	5002.05
865.2421	1178.1421	6008.85	5125.75
865.3869	1180.0755	6098.55	5223.25
865.5317	1182.0082	6099.4	5218.4
865.6764	1183.9401	6030.7	5151.6
865.8212	1185.8713	5855.05	4976.35
865.9659	1187.8017	5695.25	4813
866.1106	1189.7315	5499.55	4621.7
866.2554	1191.6605	5342.45	4435.55
866.4001	1193.5888	5183.55	4304.85
866.5448	1195.5163	5084.15	4205.95
866.6895	1197.4432	5034.3	4154.6
866.8342	1199.3693	4972	4092.65
866.9789	1201.2947	4936.55	4054.95
867.1236	1203.2193	4929	4050.75
867.2683	1205.1432	4956.1	4077.3
867.413	1207.0664	4988.4	4107.85
867.5576	1208.9889	5041.9	4158.65
867.7023	1210.9106	5107.1	4229.55
867.847	1212.8316	5171.05	4291.15
867.9916	1214.7519	5243.55	4354.85
868.1363	1216.6715	5233.85	4353.05
868.2809	1218.5903	5233.7	4355.7
868.4255	1220.5084	5182.15	4303.85
868.5701	1222.4257	5160.1	4280.25
868.7148	1224.3424	5120.15	4241.85
868.8594	1226.2583	5167.45	4284.25
869.004	1228.1735	5244.2	4363.85
869.1486	1230.0879	5345.05	4461.65
869.2932	1232.0016	5429.3	4549.65
869.4377	1233.9146	5466.8	4584.75
869.5823	1235.8269	5382.35	4504.2
869.7269	1237.7384	5279.3	4399.05
869.8715	1239.6492	5153.8	4276.25
870.016	1241.5592	5083.95	4203.45
870.1606	1243.4686	5003.5	4124.1
870.3051	1245.3772	4954.85	4073.25
870.4496	1247.285	4915	4034.75
870.5941	1249.1922	4871.1	3991.65
870.7387	1251.0986	4882.15	4003.1
870.8832	1253.0042	4881.9	4003.45
871.0277	1254.9092	4951	4070.4
871.1722	1256.8134	5013.65	4136.3
871.3167	1258.7169	5107.9	4229.05
871.4611	1260.6196	5213.75	4335.25
871.6056	1262.5216	5364.2	4483.4
871.7501	1264.4229	5460.35	4583.8
871.8945	1266.3234	5533.2	4652.8
872.039	1268.2232	5564.6	4684.55
872.1834	1270.1223	5553.8	4672.55
872.3278	1272.0207	5527	4646
872.4723	1273.9183	5487.75	4601.8
872.6167	1275.8151	5438.05	4558.3
872.7611	1277.7113	5342.2	4461.8
872.9055	1279.6067	5249.15	4371.8
873.0499	1281.5014	5122.6	4241.3
873.1943	1283.3953	5042.35	4161.05
873.3386	1285.2885	4949.4	4071
873.483	1287.181	4914.45	4033.15
873.6274	1289.0727	4899.65	4020.4
873.7717	1290.9637	4937.85	4057
873.9161	1292.854	5029.85	4148.55
874.0604	1294.7435	5134.8	4254.15
874.2047	1296.6323	5305.2	4425.8
874.349	1298.5204	5493.2	4607.85
874.4933	1300.4077	5689.2	4807.95
874.6376	1302.2943	5836.3	4955.4
874.7819	1304.1802	5873.85	4992.75
874.9262	1306.0653	5813.55	4930.85
875.0705	1307.9497	5741.5	4861.35
875.2147	1309.8333	5669.45	4789.4
875.359	1311.7162	5683.45	4801.45
875.5032	1313.5984	5766.75	4884.9
875.6475	1315.4798	5877.4	4987.25
875.7917	1317.3605	5999.2	5102.65
875.9359	1319.2405	6109.7	5227.9
876.0801	1321.1197	6129.65	5247.2
876.2243	1322.9982	6118.2	5231.1
876.3685	1324.876	6102.95	5223.15
876.5127	1326.753	6071.85	5188.4
876.6569	1328.6293	6103.6	5220.75
876.801	1330.5048	6122.8	5240.95
876.9452	1332.3796	6108.45	5229.6
877.0893	1334.2537	6077.8	5170.1
877.2335	1336.127	6033.05	5150.8
877.3776	1337.9996	5989.45	5107.25
877.5217	1339.8714	5961.05	5079.35
877.6658	1341.7426	5951.25	5024.7
877.8099	1343.6129	5875.45	4995.7
877.954	1345.4826	5805.25	4924.45
878.0981	1347.3515	5780	4895.35
878.2422	1349.2196	5729.85	4847.65
878.3862	1351.087	5730.5	4850.65
878.5303	1352.9537	5762.65	4880.35
878.6743	1354.8197	5857.9	4977.6
878.8184	1356.6849	5958.9	5078.85
878.9624	1358.5493	6040.4	5160.3
879.1064	1360.4131	6032.9	5152.9
879.2504	1362.276	5965.3	5085.1
879.3944	1364.1383	5846.8	4965.05
879.5384	1365.9998	5674.5	4789
879.6823	1367.8606	5490.25	4609.1
879.8263	1369.7206	5311.55	4429.45
879.9702	1371.5799	5194.6	4311.45
880.1142	1373.4384	5119.45	4237.4
880.2581	1375.2962	5029.9	4145.65
880.402	1377.1533	4877.75	3996.7
880.5459	1379.0096	4668.9	3786.15
880.6898	1380.8652	4469.65	3588.8
880.8337	1382.7201	4289.85	3407.45
880.9776	1384.5742	4155.15	3273.9
881.1215	1386.4275	4072.15	3189.6
881.2653	1388.2802	3997.75	3117.55
881.4092	1390.132	3930.55	3048.1
881.553	1391.9832	3893.8	3014.05
881.6968	1393.8336	3843.9	2962.45
881.8406	1395.6832	3825.35	2942.8
881.9844	1397.5322	3813.65	2930.65
882.1282	1399.3803	3809.6	2923.4
882.272	1401.2278	3776.1	2894.5
882.4158	1403.0745	3798.65	2918.3
882.5595	1404.9204	3788.1	2909.7
882.7033	1406.7656	3795.55	2913.5
882.847	1408.6101	3799.5	2918.2
882.9908	1410.4538	3814.75	2934.95
883.1345	1412.2968	3855.35	2972.45
883.2782	1414.139	3884.05	3002.55
883.4219	1415.9805	3964.65	3083.65
883.5656	1417.8213	4028.35	3139.4
883.7092	1419.6613	4116.3	3234.5
883.8529	1421.5006	4270.8	3387.45
883.9965	1423.3391	4484.85	3603.4
884.1402	1425.1769	4751.35	3867.9
884.2838	1427.0139	5125.4	4242.2
884.4274	1428.8502	5592.75	4712.5
884.571	1430.6858	6045.65	5164
884.7146	1432.5206	6349.45	5468.8
884.8582	1434.3547	6553.7	5672.9
885.0018	1436.188	6587.8	5706.1
885.1453	1438.0206	6518.8	5638.8
885.2889	1439.8524	6414.45	5533.3
885.4324	1441.6835	6348.85	5468.35
885.5759	1443.5139	6271.8	5388.05
885.7194	1445.3435	6218.15	5333.4
885.8629	1447.1724	6194.25	5313.4
886.0064	1449.0005	6125.9	5242.9
886.1499	1450.8279	6086.85	5204.55
886.2933	1452.6545	6047.95	5165.45
886.4368	1454.4804	6049.8	5170.05
886.5802	1456.3056	6049.7	5162.65
886.7237	1458.13	5978.45	5096.45
886.8671	1459.9536	5784	4903.1
887.0105	1461.7766	5519.75	4637.3
887.1539	1463.5987	5200	4315.55
887.2972	1465.4202	4915.6	4035.5
887.4406	1467.2409	4663.75	3781.05
887.584	1469.0608	4473.5	3592.2
887.7273	1470.88	4286.4	3402.8
887.8706	1472.6984	4121.35	3238.55
888.0139	1474.5161	3987.05	3101.6
888.1572	1476.3331	3874.2	2994.35
888.3005	1478.1493	3783.8	2901.5
888.4438	1479.9648	3711.2	2829.55
888.5871	1481.7795	3642.05	2761.15
888.7303	1483.5935	3589.3	2708.8
888.8736	1485.4067	3555.25	2672.25
889.0168	1487.2192	3528.7	2645.55
889.16	1489.031	3483.7	2599.95
889.3032	1490.842	3461.85	2577.7
889.4464	1492.6522	3452.85	2574.2
889.5896	1494.4618	3407.35	2525.85
889.7327	1496.2705	3397.6	2516.8
889.8759	1498.0785	3379.75	2499.75
890.019	1499.8858	3376.7	2494.3
890.1622	1501.6924	3351.4	2470.1
890.3053	1503.4981	3346.8	2465.15
890.4484	1505.3032	3350.15	2466.05
890.5914	1507.1075	3313.35	2430.15
890.7345	1508.911	3295.45	2414.65
890.8776	1510.7138	3279.5	2396.35
891.0206	1512.5159	3263.65	2378.85
891.1637	1514.3172	3230.1	2349.5
891.3067	1516.1178	3223.7	2343.95
891.4497	1517.9176	3209.75	2324.65
891.5927	1519.7166	3191.8	2312.25
891.7357	1521.515	3175.05	2285.05
891.8786	1523.3126	3160.1	2276.55
892.0216	1525.1094	3144.1	2261.45
892.1645	1526.9055	3126.8	2246.1
892.3074	1528.7008	3120.45	2240.05
892.4503	1530.4954	3114.95	2232.45
892.5932	1532.2893	3111.7	2231.95
892.7361	1534.0824	3097.8	2210.3
892.879	1535.8747	3099.95	2219
893.0218	1537.6663	3086.65	2203.2
893.1647	1539.4572	3068.65	2183.7
893.3075	1541.2473	3081.9	2198.65
893.4503	1543.0367	3063.65	2182.9
893.5931	1544.8253	3071.55	2186
893.7359	1546.6132	3067.2	2184.45
893.8787	1548.4003	3072.7	2181.65
894.0214	1550.1867	3075.35	2183.8
894.1642	1551.9723	3098.1	2211.8
894.3069	1553.7572	3107.4	2226.65
894.4496	1555.5414	3129.8	2247.95
894.5923	1557.3247	3142.35	2261.15
894.735	1559.1074	3170.75	2290.25
894.8777	1560.8893	3207.5	2327.5
895.0204	1562.6705	3258.9	2377.5
895.163	1564.4509	3309.1	2428.05
895.3056	1566.2305	3363.65	2482.8
895.4482	1568.0094	3449.3	2568
895.5908	1569.7876	3513.45	2632.8
895.7334	1571.565	3560.75	2679.45
895.876	1573.3417	3584.35	2704.6
896.0186	1575.1176	3576.85	2697.05
896.1611	1576.8928	3562.2	2679.55
896.3036	1578.6672	3505.05	2624.25
896.4461	1580.4409	3437.2	2555.15
896.5886	1582.2138	3333.3	2449.55
896.7311	1583.986	3260.05	2379.9
896.8736	1585.7575	3188.4	2306.6
897.0161	1587.5282	3132.6	2250.5
897.1585	1589.2981	3091.2	2209.7
897.3009	1591.0673	3057.5	2176.95
897.4433	1592.8358	3047.45	2167.4
897.5857	1594.6035	3048.7	2164.5
897.7281	1596.3704	3023.7	2143.6
897.8705	1598.1366	3040.15	2156.6
898.0128	1599.9021	3065.1	2185.4
898.1551	1601.6668	3082.3	2198.15
898.2975	1603.4308	3127.2	2246.55
898.4398	1605.194	3179.4	2295.5
898.5821	1606.9564	3236.35	2355.7
898.7243	1608.7182	3296.6	2411.75
898.8666	1610.4791	3400.55	2520.6
899.0088	1612.2394	3531.4	2649.8
899.1511	1613.9988	3643.3	2763.65
899.2933	1615.7576	3820.85	2938.1
899.4355	1617.5156	4013.65	3125.7
899.5776	1619.2728	4168.35	3286.5
899.7198	1621.0293	4298.9	3419.85
899.862	1622.785	4352.5	3469.75
900.0041	1624.54	4324.35	3440.75
900.1462	1626.2942	4200.3	3319.6
900.2883	1628.0477	4039.6	3156.6
900.4304	1629.8005	3850.8	2965.1
900.5725	1631.5525	3692.65	2811.2
900.7145	1633.3037	3534.35	2653.8
900.8566	1635.0542	3409.9	2528.65
900.9986	1636.804	3325.55	2443.7
901.1406	1638.553	3344.1	2389.7
901.2826	1640.3013	3222.65	2340.35
901.4245	1642.0488	3199.65	2318.55
901.5665	1643.7955	3193.95	2311.5
901.7085	1645.5416	3200.85	2318.65
901.8504	1647.2868	3256.75	2375.9
901.9923	1649.0313	3314.35	2431.85
902.1342	1650.7751	3412.05	2528.35
902.2761	1652.5181	3537.3	2656.65
902.4179	1654.2604	3723.1	2840.95
902.5598	1656.0019	3969.9	3088.8
902.7016	1657.7427	4231.65	3351.9
902.8434	1659.4828	4481.25	3600.55
902.9852	1661.222	4637.7	3754.35
903.127	1662.9606	4657.5	3775.95
903.2687	1664.6984	4549.45	3668.8
903.4105	1666.4354	4283.45	3401.15
903.5522	1668.1717	3952	3072.6
903.6939	1669.9072	3646.25	2765.65
903.8356	1671.642	3391.35	2509.05
903.9773	1673.3761	3175.2	2298.15
904.119	1675.1094	3022.7	2141.35
904.2606	1676.8419	2904.7	2023.8
904.4022	1678.5737	2809.35	1927.45
904.5439	1680.3048	2761.9	1880.7
904.6855	1682.0351	2709.25	1830.8
904.827	1683.7646	2676.15	1793.75
904.9686	1685.4934	2646.2	1767.7
905.1101	1687.2215	2622.95	1742.1
905.2517	1688.9488	2595.8	1716.65
905.3932	1690.6754	2569.85	1689.45
905.5347	1692.4012	2551	1669.7
905.6761	1694.1263	2542.35	1663.1
905.8176	1695.8506	2520.7	1640.55
905.9591	1697.5742	2505.4	1627.1
906.1005	1699.297	2508.4	1628.55
906.2419	1701.0191	2493.3	1613.85
906.3833	1702.7404	2478.55	1600
906.5246	1704.461	2463.55	1583.35
906.666	1706.1808	2446	1564.5
906.8073	1707.8999	2442.35	1559.25
906.9487	1709.6182	2432.2	1551.45
907.09	1711.3358	2420.8	1540.65
907.2313	1713.0527	2418.75	1539
907.3725	1714.7688	2414.1	1528.85
907.5138	1716.4841	2395.75	1514.45
907.655	1718.1987	2381.95	1496.1
907.7962	1719.9126	2379.7	1499.75
907.9374	1721.6257	2378.45	1494.15
908.0786	1723.338	2359.2	1479.65
908.2198	1725.0496	2355.8	1474.65
908.3609	1726.7605	2357.3	1474.05
908.502	1728.4706	2344.85	1464.35
908.6431	1730.18	2345.85	1463.55
908.7842	1731.8886	2324.65	1443.6
908.9253	1733.5964	2328.65	1442.15
909.0664	1735.3036	2322.7	1438.85
909.2074	1737.0099	2303.5	1422.1
909.3484	1738.7156	2299.7	1419.55
909.4894	1740.4204	2308.9	1427.7
909.6304	1742.1246	2309	1427.1
909.7714	1743.8279	2299.65	1419
909.9123	1745.5306	2296.55	1414.85
910.0532	1747.2325	2293.1	1412.3
910.1941	1748.9336	2274.3	1394.4
910.335	1750.634	2264.95	1381.3
910.4759	1752.3336	2264.8	1384.35
910.6168	1754.0325	2263.45	1384.25
910.7576	1755.7307	2256.15	1377.65
910.8984	1757.4281	2260	1381
911.0392	1759.1247	2250.8	1365.6
911.18	1760.8206	2251.2	1367.6
911.3208	1762.5158	2250.3	1366
911.4615	1764.2102	2239.9	1361.85
911.6022	1765.9039	2234.5	1353.25
911.7429	1767.5968	2237.75	1356.65
911.8836	1769.289	2230.55	1351.45
912.0243	1770.9804	2216.95	1335.45
912.1649	1772.6711	2221.55	1340.8
912.3056	1774.361	2216.15	1334.9
912.4462	1776.0502	2212.35	1331.3
912.5868	1777.7386	2208.8	1326.6
912.7274	1779.4263	2207.1	1326.1
912.8679	1781.1132	2200.6	1319.85
913.0084	1782.7994	2203.75	1318.8
913.149	1784.4849	2188.4	1307.65
913.2895	1786.1696	2206	1307.2
913.4299	1787.8535	2189.65	1311.55
913.5704	1789.5367	2181.3	1300.65
913.7108	1791.2192	2169.55	1288.4
913.8513	1792.9009	2183.3	1275.85
913.9917	1794.5818	2170.45	1290.2
914.132	1796.2621	2167.05	1287.45
914.2724	1797.9415	2156.65	1275.85
914.4128	1799.6202	2149	1268.85
914.5531	1801.2982	2151.25	1270.45
914.6934	1802.9755	2149.35	1268.6
914.8337	1804.6519	2147.4	1266.55
914.9739	1806.3277	2140.3	1257.6
915.1142	1808.0027	2144.25	1263.8
915.2544	1809.6769	2135.7	1255.55
915.3946	1811.3504	2136.65	1255.15
915.5348	1813.0231	2131.3	1251.4
915.675	1814.6951	2125.7	1245.55
915.8151	1816.3664	2127.7	1245.4
915.9553	1818.0369	2123.45	1243.75
916.0954	1819.7067	2122.3	1242.55
916.2355	1821.3757	2116.35	1234.55
916.3755	1823.044	2108.55	1228.4
916.5156	1824.7115	2116.2	1235.5
916.6556	1826.3783	2103.6	1226.3
916.7956	1828.0443	2101.95	1222.5
916.9356	1829.7096	2105.3	1223.65
917.0756	1831.3741	2103.8	1221.35
917.2155	1833.0379	2101.95	1222.3
917.3555	1834.701	2088.5	1206.55
917.4954	1836.3633	2090	1208.65
917.6353	1838.0248	2085.65	1205.2
917.7751	1839.6856	2073.75	1195
917.915	1841.3457	2080.6	1200.6
918.0548	1843.005	2079.55	1200.6
918.1946	1844.6636	2072.45	1194.35
918.3344	1846.3214	2072.4	1191.9
918.4742	1847.9785	2075.7	1196.45
918.6139	1849.6349	2069.05	1187.55
918.7537	1851.2904	2080.05	1191.05
918.8934	1852.9453	2064.95	1186.1
919.0331	1854.5994	2058.05	1175.25
919.1727	1856.2528	2073.8	1186.4
919.3124	1857.9054	2051.85	1170.3
919.452	1859.5572	2054.85	1174.95
919.5916	1861.2083	2053.5	1173.25
919.7312	1862.8587	2042.7	1161.95
919.8708	1864.5084	2050.85	1169.4
920.0103	1866.1572	2046.55	1168.5
920.1498	1867.8054	2029.4	1151.15
920.2893	1869.4528	2032.5	1152.6
920.4288	1871.0994	2030.45	1149.3
920.5683	1872.7453	2015.65	1133.45
920.7077	1874.3905	2031.55	1145.7
920.8471	1876.0349	2013.55	1132.9
920.9865	1877.6786	2008.1	1125.55
921.1259	1879.3215	2017.9	1139.75
921.2653	1880.9637	2013.2	1129.85
921.4046	1882.6051	2006.4	1126.45
921.5439	1884.2458	2001.5	1120.8
921.6832	1885.8858	1999.8	1118.75
921.8225	1887.525	1993.85	1112.95
921.9617	1889.1634	1998	1118.5
922.101	1890.8011	1990.4	1109.65
922.2402	1892.4381	1985.05	1106.05
922.3794	1894.0743	1979.55	1101.1
922.5185	1895.7098	1983.35	1104.45
922.6577	1897.3446	1977.1	1093.9
922.7968	1898.9786	1985.85	1100.75
922.9359	1900.6118	1976.9	1096.95
923.075	1902.2443	1974.65	1093.55
923.214	1903.8761	1970.25	1089.35
923.3531	1905.5071	1960.8	1080.4
923.4921	1907.1374	1961.1	1079.15
923.6311	1908.7669	1956.9	1077.15
923.77	1910.3957	1957.05	1078
923.909	1912.0237	1948.95	1069.55
924.0479	1913.651	1943.25	1061.8
924.1868	1915.2776	1941.35	1063.8
924.3257	1916.9034	1935.8	1057.85
924.4646	1918.5285	1937.85	1057.95
924.6034	1920.1528	1933.9	1053.35
924.7422	1921.7764	1926.85	1047.4
924.881	1923.3992	1925.75	1046.95
925.0198	1925.0213	1920.65	1039.6
925.1586	1926.6427	1912.7	1035.2
925.2973	1928.2633	2012.9	1024.05
925.436	1929.8832	1916.85	1035.1
925.5747	1931.5023	1904.75	1024.8
925.7134	1933.1207	1907.5	1027
925.852	1934.7383	1904.25	1022.85
925.9906	1936.3552	1886.85	1007.55
926.1292	1937.9714	1897.4	1017.1
926.2678	1939.5868	1888.05	1005.55
926.4064	1941.2015	1888.85	1007.8
926.5449	1942.8154	1879.65	1002.2
926.6834	1944.4286	1871.4	992.1
926.8219	1946.041	1884.65	982.7
926.9604	1947.6528	1873.75	988.55
927.0988	1949.2637	1857.15	976.75
927.2372	1950.8739	1859.05	977.8
927.3756	1952.4834	1856.85	975.95
927.514	1954.0921	1856.35	973.7
927.6523	1955.7001	1845.65	961.55
927.7907	1957.3074	1845.35	966.7
927.929	1958.9139	1842	962.65
928.0673	1960.5197	1837.65	955.3
928.2055	1962.1247	1832.75	951.2
928.3438	1963.729	1824.6	944.95
928.482	1965.3325	1848.05	943.4
928.6202	1966.9353	1823.2	944.25
928.7584	1968.5374	1824.3	944.2
928.8965	1970.1387	1820.7	940.55
929.0346	1971.7393	1815.1	932.3
929.1727	1973.3392	1816.1	936.5
929.3108	1974.9383	1803.6	922.7
929.4489	1976.5366	1804.35	924.8
929.5869	1978.1342	1808.4	926
929.7249	1979.7311	1798.9	917.8
929.8629	1981.3273	1793	913.1
930.0009	1982.9227	1797.95	915.95
930.1388	1984.5173	1795.45	915.4
930.2767	1986.1112	1787.8	907.65
930.4146	1987.7044	1788.55	908.75
930.5525	1989.2968	1780.7	899.3
930.6904	1990.8885	1788.8	904.75
930.8282	1992.4795	1790.8	909.9
930.966	1994.0697	1785.05	903.45
931.1038	1995.6592	1776.2	895.4
931.2415	1997.2479	1775.8	896.25
931.3793	1998.8359	1767.95	886.55
931.517	2000.4232	1765.05	885.5
931.6547	2002.0097	1762.55	882.95
931.7923	2003.5955	1754.75	875
931.93	2005.1805	1760.35	879.25
932.0676	2006.7648	1759.85	878.65
932.2052	2008.3484	1753.7	872.5
932.3427	2009.9312	1761.75	878.55
932.4803	2011.5133	1755.15	876.15
932.6178	2013.0946	1746	864.95
932.7553	2014.6752	1739.6	861
932.8928	2016.2551	1744.25	862.65
933.0302	2017.8342	1740.05	861.4
933.1676	2019.4126	1733	851.4
933.305	2020.9902	1730.7	852.1
933.4424	2022.5672	1740.5	858.65
933.5798	2024.1433	1737.8	852.3
933.7171	2025.7188	1725.5	846.05
933.8544	2027.2935	1729.8	847.8
933.9917	2028.8674	1712	831.4
934.129	2030.4406	1717.65	837.65
934.2662	2032.0131	1710.85	831.5
934.4034	2033.5849	1710.5	825.8
934.5406	2035.1559	1721.3	842.05
934.6778	2036.7261	1707.9	826.4
934.8149	2038.2957	1701.95	821.15
934.952	2039.8645	1702.2	826.15
935.0891	2041.4325	1704.85	820
935.2262	2042.9998	1704.95	825.25
935.3632	2044.5664	1697.6	817.1
935.5002	2046.1323	1693.9	812.35
935.6372	2047.6974	1692.55	812.05
935.7742	2049.2617	1696.85	815.95
935.9111	2050.8254	1712.7	809.5
936.048	2052.3883	1694.1	812.6
936.1849	2053.9504	1678.3	797.8
936.3218	2055.5118	1692.3	812.15
936.4586	2057.0725	1686.9	802.65
936.5955	2058.6325	1677.1	798.05
936.7323	2060.1917	1685.8	806.45
936.869	2061.7502	1680.4	796.75
937.0058	2063.3079	1668.8	789.75
937.1425	2064.8649	1669.3	784.1
937.2792	2066.4212	1672.8	791.1
937.4159	2067.9767	1665.8	785.95
937.5525	2069.5315	1654.05	775.05
937.6891	2071.0856	1658.65	778
937.8257	2072.6389	1654.4	771.95
937.9623	2074.1915	1652.7	772.85
938.0989	2075.7433	1658	775.5
938.2354	2077.2945	1644.05	764.8
938.3719	2078.8448	1641.6	761.5
938.5084	2080.3945	1641.55	760.8
938.6448	2081.9434	1642.55	761.3
938.7812	2083.4916	1638.4	755
938.9176	2085.039	1642	761.5
939.054	2086.5857	1636.65	754.85
939.1903	2088.1317	1634.25	754
939.3267	2089.677	1626.35	745.65
939.463	2091.2215	1616.9	738.25
939.5992	2092.7652	1629.3	748.8
939.7355	2094.3083	1618.5	737.75
939.8717	2095.8506	1617.15	738.5
940.0079	2097.3921	1612.6	730.9
940.1441	2098.933	1615.4	735.65
940.2802	2100.4731	1616.7	736.3
940.4163	2102.0124	1622.55	733.15
940.5524	2103.5511	1616.45	735.75
940.6885	2105.089	1618.75	738.65
940.8245	2106.6261	1611.25	732.7
940.9606	2108.1626	1605	724.4
941.0965	2109.6983	1637	728.7
941.2325	2111.2332	1611	731.25
941.3684	2112.7675	1600.4	718.75
941.5044	2114.301	1597.3	716.15
941.6403	2115.8337	1604.8	722.3
941.7761	2117.3657	1597.8	718.45
941.912	2118.897	1591.35	710.7
942.0478	2120.4276	1603.2	717.15
942.1835	2121.9575	1594.95	715.2
942.3193	2123.4866	1608.9	715.4
942.455	2125.0149	1599.55	717.35
942.5907	2126.5426	1584.65	704
942.7264	2128.0695	1586.6	699.8
942.8621	2129.5956	1579	699.35
942.9977	2131.1211	1593.6	708.75
943.1333	2132.6458	1585.65	706.15
943.2689	2134.1698	1575.4	694.9
943.4044	2135.693	1574.9	693.25
943.54	2137.2155	1576.65	692.5
943.6755	2138.7373	1585.4	705.25
943.8109	2140.2584	1576.95	695.15
943.9464	2141.7787	1574.2	689.8
944.0818	2143.2983	1565.35	685.5
944.2172	2144.8171	1559.15	678.75
944.3526	2146.3353	1568.05	686.6
944.4879	2147.8527	1554.55	673.9
944.6232	2149.3693	1562.6	681.5
944.7585	2150.8853	1549.65	667.75
944.8938	2152.4005	1554.75	673.85
945.029	2153.9149	1555.7	673.9
945.1642	2155.4287	1545.6	664.45
945.2994	2156.9417	1550	667.3
945.4346	2158.454	1546.2	664.35
945.5697	2159.9655	1553.35	671.25
945.7048	2161.4764	1546.6	664.85
945.8399	2162.9865	1539.3	657.55
945.9749	2164.4958	1541.8	660.25
946.1099	2166.0045	1536.65	653.5
946.2449	2167.5124	1542.1	660.7
946.3799	2169.0195	1532.45	651.9
946.5148	2170.526	1537.4	657.2
946.6498	2172.0317	1532.45	648.75
946.7846	2173.5367	1531.75	652.85
946.9195	2175.0409	1527.1	643.9
947.0543	2176.5445	1532.65	653.05
947.1891	2178.0473	1530.9	650.2
947.3239	2179.5494	1522.6	637.95
947.4587	2181.0507	1518.5	637.1
947.5934	2182.5513	1521.1	640.6
947.7281	2184.0512	1515.65	634.15
947.8628	2185.5504	1519.25	639.95
947.9974	2187.0488	1519.05	637.85
948.132	2188.5465	1518.85	638.05
948.2666	2190.0435	1514.55	633.9
948.4012	2191.5397	1510.9	629.65
948.5357	2193.0353	1507.35	627.9
948.6702	2194.5301	1503.75	621.65
948.8047	2196.0241	1498.95	618.45
948.9392	2197.5175	1504.3	622.45
949.0736	2199.0101	1502.5	618.25
949.208	2200.502	1489.2	609.45
949.3424	2201.9931	1489.15	607.5
949.4767	2203.4835	1491.55	609.25
949.611	2204.9733	1494.75	607.6
949.7453	2206.4622	1484.8	604.15
949.8796	2207.9505	1486.1	601.75
950.0138	2209.438	1484.8	605.1
950.148	2210.9248	1484.85	602.9
950.2822	2212.4109	1483.45	602.7
950.4164	2213.8962	1476.15	593.2
950.5505	2215.3809	1478.4	595.95
950.6846	2216.8648	1479.25	597.05
950.8186	2218.3479	1479.3	594.55
950.9527	2219.8304	1475.75	593.7
951.0867	2221.3121	1467.65	585.9
951.2207	2222.7931	1472.35	591.75
951.3546	2224.2733	1462.1	582.65
951.4886	2225.7529	1460.85	578.4
951.6225	2227.2317	1464.05	580.85
951.7563	2228.7098	1462	580.7
951.8902	2230.1872	1456.3	573.25
952.024	2231.6638	1457.65	576.4
952.1578	2233.1397	1464.3	575.55
952.2916	2234.6149	1454.15	575.55
952.4253	2236.0894	1453.1	570.7
952.559	2237.5632	1469.1	579.45
952.6927	2239.0362	1455	572.7
952.8263	2240.5085	1452.95	570.25
952.9599	2241.9801	1447.6	565.5
953.0935	2243.4509	1437.75	555.4
953.2271	2244.921	1438.2	558.65
953.3606	2246.3904	1438.3	556.6
953.4941	2247.8591	1435.65	555.1
953.6276	2249.3271	1431.75	553.25
953.7611	2250.7943	1431.6	551.1
953.8945	2252.2608	1434	554.1
954.0279	2253.7266	1425.15	544.05
954.1612	2255.1917	1430.8	547.45
954.2946	2256.656	1424.2	543.2
954.4279	2258.1197	1420.65	538.95
954.5612	2259.5826	1425.15	542.75
954.6944	2261.0447	1426.15	545
954.8276	2262.5062	1420.5	535.75
954.9608	2263.9669	1421.95	537.95
955.094	2265.4269	1418.25	537.25
955.2271	2266.8862	1423	542.3
955.3602	2268.3448	1414.55	532.65
955.4933	2269.8026	1416.4	535.6
955.6264	2271.2598	1405.1	523.5
955.7594	2272.7162	1407.55	530.05
955.8924	2274.1719	1412.05	530.85
956.0253	2275.6268	1409.8	527.85
956.1583	2277.0811	1411.9	528.75
956.2912	2278.5346	1408.15	527.15
956.4241	2279.9874	1410.3	527.05
956.5569	2281.4395	1404.6	524.65
956.6897	2282.8908	1404.4	519.75
956.8225	2284.3414	1407.75	525.9
956.9553	2285.7914	1401.5	519.35
957.088	2287.2406	1396.3	513.5
957.2207	2288.689	1398.5	518.05
957.3534	2290.1368	1396.95	516.1
957.486	2291.5838	1401.9	519.75
957.6186	2293.0302	1393.45	510.9
957.7512	2294.4758	1388.9	505.75
957.8838	2295.9206	1392.6	508.6
958.0163	2297.3648	1385.65	504.5
958.1488	2298.8082	1395.9	514.75
958.2813	2300.251	1388.65	506.15
958.4137	2301.693	1385.85	502.55
958.5461	2303.1343	1382.45	500.05
958.6785	2304.5748	1386.05	504.65
958.8108	2306.0147	1379.2	498.3
958.9432	2307.4538	1377.45	493.4
959.0754	2308.8922	1373.85	493.15
959.2077	2310.3299	1381.15	501.75
959.3399	2311.7669	1379.65	499.15
959.4721	2313.2031	1374.45	494.25
959.6043	2314.6387	1371.3	489.85
959.7365	2316.0735	1364.7	483.4
959.8686	2317.5076	1370.25	488.6
960.0006	2318.941	1364	483.15
960.1327	2320.3737	1367.65	487
960.2647	2321.8056	1363.35	481
960.3967	2323.2369	1367.15	486.75
960.5287	2324.6674	1361.6	477.4
960.6606	2326.0972	1361.95	479.2
960.7925	2327.5263	1359.45	479.85
960.9244	2328.9547	1368.3	485.45
961.0562	2330.3823	1358.85	476.95
961.1881	2331.8092	1364.15	481.7
961.3198	2333.2355	1362.25	480.45
961.4516	2334.661	1354.45	472
961.5833	2336.0858	1354.2	470.85
961.715	2337.5098	1346.9	465.55
961.8467	2338.9332	1348.9	466.05
961.9783	2340.3558	1348.95	463.2
962.1099	2341.7778	1348.35	468.85
962.2415	2343.199	1349.45	467.7
962.373	2344.6195	1343.5	461.85
962.5045	2346.0393	1350.15	470.2
962.636	2347.4583	1341	458.05
962.7675	2348.8767	1349.8	465.2
962.8989	2350.2943	1349.3	468.15
963.0303	2351.7113	1344.95	463.85
963.1617	2353.1275	1344.7	462.7
963.293	2354.543	1362.45	457.8
963.4243	2355.9578	1339.1	458.65
963.5556	2357.3718	1339.65	459.6
963.6868	2358.7852	1336.45	451.6
963.818	2360.1978	1334.55	453.45
963.9492	2361.6098	1331.55	450.3
964.0803	2363.021	1339.2	454.9
964.2114	2364.4315	1330.4	450.3
964.3425	2365.8413	1331.3	449.6
964.4736	2367.2504	1329.5	449.75
964.6046	2368.6587	1321.55	440.05
964.7356	2370.0664	1321.3	439.95
964.8666	2371.4733	1323	440.95
964.9975	2372.8795	1319.5	438.9
965.1284	2374.285	1321.8	440.6
965.2593	2375.6899	1312.35	432.7
965.3901	2377.0939	1314.95	436.15
965.5209	2378.4973	1313.05	434.65
965.6517	2379.9	1315.8	435.4
965.7825	2381.3019	1310.75	430.3
965.9132	2382.7032	1306.55	427.85
966.0439	2384.1037	1309.7	431.7
966.1745	2385.5035	1308.9	428.6
966.3051	2386.9027	1314.1	433.75
966.4357	2388.3011	1311.65	428
966.5663	2389.6987	1304.55	424
966.6968	2391.0957	1305.35	425
966.8273	2392.492	1298	419.8
966.9578	2393.8876	1295.05	414.35
967.0882	2395.2824	1302.95	423.5
967.2186	2396.6765	1293.8	414.75
967.349	2398.07	1289.4	410.3
967.4793	2399.4627	1295.1	415.8
967.6097	2400.8547	1291.2	411.85
967.7399	2402.246	1299.3	411.75
967.8702	2403.6366	1293.3	415.15
968.0004	2405.0265	1290.15	410.4
968.1306	2406.4156	1295.1	410
968.2607	2407.8041	1287.3	403.15
968.3909	2409.1918	1289.55	407.85
968.521	2410.5789	1282.9	401.2
968.651	2411.9652	1287.1	404.8
968.781	2413.3508	1285.15	404.75
968.911	2414.7358	1283.55	403.85
969.041	2416.12	1284	404.95
969.1709	2417.5035	1279.75	400.85
969.3008	2418.8863	1280.5	399.45
969.4307	2420.2684	1282.8	402.15
969.5606	2421.6497	1279.1	398.6
969.6904	2423.0304	1273.15	392.7
969.8201	2424.4104	1273.85	394.55
969.9499	2425.7896	1273.85	392.65
970.0796	2427.1682	1274.85	394.2
970.2093	2428.546	1272.65	392.2
970.3389	2429.9232	1266.8	383.65
970.4685	2431.2996	1272.95	394.05
970.5981	2432.6753	1266.2	386.9
970.7277	2434.0503	1265.5	386.75
970.8572	2435.4246	1260.75	383.15
970.9867	2436.7982	1268.8	386.15
971.1161	2438.1711	1260.85	382.9
971.2456	2439.5433	1260.9	380.75
971.375	2440.9148	1263.5	379.45
971.5043	2442.2856	1264	383.1
971.6336	2443.6557	1260.55	378.5
971.7629	2445.025	1259.45	380.4
971.8922	2446.3937	1258.55	376.8
972.0214	2447.7617	1254.5	372.5
972.1506	2449.1289	1257.65	375.4
972.2798	2450.4955	1259.65	377.25
972.4089	2451.8613	1255.6	375.45
972.538	2453.2265	1251.9	373.2
972.6671	2454.5909	1254.65	374.65
972.7961	2455.9546	1255.05	376.25
972.9251	2457.3177	1249.25	369.1
973.0541	2458.68	1252.85	370.8
973.1831	2460.0416	1247.85	368.5
973.312	2461.4025	1248.9	366.7
973.4408	2462.7627	1260.85	368.4
973.5697	2464.1222	1250.35	372.45
973.6985	2465.4811	1247.8	367.25
973.8273	2466.8392	1250.8	370.25
973.956	2468.1966	1245.15	361.6
974.0847	2469.5533	1255.55	373.2
974.2134	2470.9093	1249.2	367.6
974.3421	2472.2645	1248.9	363.9
974.4707	2473.6191	1249.6	370.65
974.5993	2474.973	1241.25	360.4
974.7278	2476.3262	1250.95	369.95
974.8563	2477.6787	1238.05	359
974.9848	2479.0305	1238.65	358.2
975.1132	2480.3816	1243.2	361.2
975.2417	2481.7319	1240	360.4
975.37	2483.0816	1240.3	359.75
975.4984	2484.4306	1239.9	356.95
975.6267	2485.7789	1236.2	356
975.755	2487.1264	1236.1	352.1
975.8833	2488.4733	1232.85	353.55
976.0115	2489.8195	1254.9	356.3
976.1397	2491.165	1236.75	352.65
976.2678	2492.5097	1229.7	345.95
976.3959	2493.8538	1227.5	347.9
976.524	2495.1972	1226.55	346.1
976.6521	2496.5398	1228.65	346.4
976.7801	2497.8818	1227.7	345.9
976.9081	2499.2231	1226.3	347
977.036	2500.5637	1223.6	342.05
977.164	2501.9035	1225.7	343.95
977.2918	2503.2427	1218.35	334.6
977.4197	2504.5812	1219.85	339.85
977.5475	2505.919	1226.05	343.55
977.6753	2507.256	1223.6	342.1
977.8031	2508.5924	1218.85	338.05
977.9308	2509.9281	1229.5	343.85
978.0585	2511.2631	1218.6	338.75
978.1861	2512.5974	1213.8	332.9
978.3137	2513.9309	1211.75	329.85
978.4413	2515.2638	1248.9	333.5
978.5689	2516.596	1214.9	336.05
978.6964	2517.9275	1209.75	326.25
978.8239	2519.2583	1217.15	335.4
978.9513	2520.5884	1214.9	332.55
979.0788	2521.9178	1211.9	328.8
979.2062	2523.2465	1214.75	334.25
979.3335	2524.5745	1213.3	334.55
979.4608	2525.9018	1213.25	334.1
979.5881	2527.2284	1210.25	330.15
979.7154	2528.5543	1207.65	329.35
979.8426	2529.8796	1203.4	322.45
979.9698	2531.2041	1203.25	323.75
980.0969	2532.5279	1210.75	330.65
980.224	2533.851	1210.65	329.85
980.3511	2535.1735	1203.55	322.75
980.4781	2536.4952	1206.15	324.3
980.6052	2537.8163	1205.3	323.05
980.7321	2539.1366	1199.1	318.15
980.8591	2540.4562	1201.5	320
980.986	2541.7752	1197.85	318.85
981.1129	2543.0935	1201.1	320.65
981.2397	2544.411	1199.85	317.55
981.3665	2545.7279	1196.7	315.6
981.4933	2547.0441	1197.25	317
981.62	2548.3596	1199.65	314.35
981.7467	2549.6744	1195.15	314.2
981.8734	2550.9885	1205.55	315.8
982.0001	2552.3019	1195.6	315.25
982.1267	2553.6146	1190.35	309.45
982.2532	2554.9266	1192.65	311.2
982.3798	2556.2379	1192.3	309.75
982.5063	2557.5485	1187.7	308.6
982.6327	2558.8585	1196	308.25
982.7592	2560.1677	1191.95	307.25
982.8856	2561.4762	1189.8	308.55
983.0119	2562.7841	1189.15	305.25
983.1383	2564.0913	1185.3	306.05
983.2646	2565.3977	1188.4	307.2
983.3908	2566.7035	1185.1	302.75
983.517	2568.0086	1187.5	304.9
983.6432	2569.313	1183.75	303.55
983.7694	2570.6167	1193.75	310.6
983.8955	2571.9197	1187.45	307.8
984.0216	2573.222	1189.25	305.55
984.1476	2574.5236	1189.25	307.5
984.2737	2575.8246	1181.85	296.8
984.3996	2577.1248	1184.3	300.15
984.5256	2578.4244	1186.65	306.75
984.6515	2579.7232	1190.75	309.45
984.7774	2581.0214	1215.75	304.4
984.9032	2582.3189	1183.8	303.05
985.029	2583.6157	1188.6	302.15
985.1548	2584.9118	1191.05	309.85
985.2806	2586.2072	1184.9	305.95
985.4063	2587.5019	1194.25	312.4
985.5319	2588.7959	1193.4	314.65
985.6576	2590.0893	1192.5	308.3
985.7832	2591.3819	1194.95	315.9
985.9087	2592.6739	1189.65	309.35
986.0343	2593.9652	1197.2	316.7
986.1597	2595.2557	1198.9	318.2
986.2852	2596.5456	1196.4	312.3
986.4106	2597.8348	1197.65	316.9
986.536	2599.1234	1205.25	327.4
986.6614	2600.4112	1202.95	322.25
986.7867	2601.6983	1198.6	313
986.912	2602.9848	1201	319.85
987.0372	2604.2705	1205.85	317.4
987.1624	2605.5556	1203.4	324.1
987.2876	2606.84	1197.85	317.25
987.4128	2608.1237	1199.65	317.95
987.5379	2609.4067	1196.95	314.45
987.6629	2610.689	1207.75	319.05
987.788	2611.9707	1196.2	313.5
987.913	2613.2516	1200.6	315.8
988.0379	2614.5319	1191.6	312.15
988.1629	2615.8115	1191.5	309.35
988.2878	2617.0903	1197.25	315.3
988.4126	2618.3685	1193.8	313.55
988.5375	2619.6461	1190.2	309.55
988.6622	2620.9229	1193.6	311.5
988.787	2622.199	1195.6	315.85
988.9117	2623.4745	1194.25	312.55
989.0364	2624.7493	1192.35	311.35
989.161	2626.0234	1192.75	314.7
989.2857	2627.2968	1192.05	312.75
989.4102	2628.5695	1196.6	314.2
989.5348	2629.8415	1195.8	314.45
989.6593	2631.1128	1202	319.3
989.7837	2632.3835	1191.6	310.95
989.9082	2633.6535	1194.5	313.55
990.0326	2634.9228	1191.5	311.65
990.1569	2636.1914	1191.15	309.75
990.2812	2637.4593	1190.1	308.3
990.4055	2638.7265	1189.65	309.15
990.5298	2639.9931	1192.75	312.85
990.654	2641.259	1191.6	312.6
990.7782	2642.5242	1187.65	306.55
990.9023	2643.7887	1187.5	305.5
991.0264	2645.0525	1184.75	303.3
991.1505	2646.3156	1192.1	311
991.2745	2647.5781	1187.15	306.2
991.3985	2648.8398	1184.9	305.05
991.5225	2650.1009	1192.1	301.9
991.6464	2651.3613	1176.5	298.05
991.7703	2652.6211	1185.9	304.8
991.8942	2653.8801	1182.8	303.85
992.018	2655.1385	1185.95	303
992.1418	2656.3961	1180.85	300.15
992.2655	2657.6531	1177.9	296.25
992.3892	2658.9094	1178.95	297.05
992.5129	2660.1651	1187.15	306.05
992.6366	2661.42	1188.6	307.15
992.7602	2662.6743	1184.35	303.45
992.8837	2663.9279	1184.9	305.8
993.0073	2665.1808	1189.1	306.65
993.1307	2666.433	1189.55	307
993.2542	2667.6846	1185.95	305.6
993.3776	2668.9354	1193.35	307.45
993.501	2670.1856	1197.55	315.85
993.6244	2671.4351	1197.1	314.7
993.7477	2672.6839	1198.1	317.75
993.8709	2673.9321	1198.7	318.3
993.9942	2675.1795	1199.75	317.1
994.1174	2676.4263	1206.2	326.9
994.2405	2677.6724	1195.9	315.4
994.3637	2678.9179	1208.75	328.35
994.4868	2680.1626	1201.75	321.75
994.6098	2681.4067	1201.75	321.8
994.7328	2682.6501	1206.1	327.25
994.8558	2683.8928	1203.55	322.15
994.9788	2685.1348	1202.9	324.1
995.1017	2686.3761	1196.1	316.6
995.2245	2687.6168	1200.3	319.95
995.3474	2688.8568	1198.65	318.45
995.4702	2690.0961	1189.45	310.05
995.5929	2691.3348	1192	308.95
995.7156	2692.5727	1192.7	310.7
995.8383	2693.81	1186.7	305.95
995.961	2695.0466	1191.75	312.8
996.0836	2696.2826	1186.8	305.55
996.2062	2697.5178	1215.3	316.15
996.3287	2698.7524	1184.55	304.2
996.4512	2699.9863	1198.4	314.15
996.5737	2701.2195	1189.3	308.55
996.6961	2702.452	1194	310.75
996.8185	2703.6839	1201.95	320
996.9408	2704.9151	1200.2	320.85
997.0631	2706.1456	1205.9	324.45
997.1854	2707.3755	1208.65	328.3
997.3077	2708.6046	1217.55	333.25
997.4299	2709.8331	1225.35	344.75
997.552	2711.0609	1224.15	342.5
997.6742	2712.2881	1236.45	356
997.7963	2713.5145	1242.45	360.45
997.9183	2714.7403	1253.7	374.4
998.0403	2715.9654	1254.2	370.35
998.1623	2717.1899	1279.95	384.75
998.2842	2718.4136	1273.6	392.55
998.4062	2719.6367	1286.8	404.8
998.528	2720.8591	1294	406.7
998.6498	2722.0809	1300.75	418.6
998.7716	2723.3019	1309	424.05
998.8934	2724.5223	1316.85	435.8
999.0151	2725.7421	1315.05	434.45
999.1368	2726.9611	1319.8	435.85
999.2584	2728.1795	1320.75	435.2
999.38	2729.3972	1305.8	426.65
999.5016	2730.6142	1316.05	421.1
999.6231	2731.8306	1292.45	409
999.7446	2733.0462	1285.3	402.15
999.8661	2734.2612	1270.8	382.5
999.9875	2735.4756	1266.85	384.9
1000.1089	2736.6892	1246.85	364.85
1000.2302	2737.9022	1231.55	351.6
1000.3515	2739.1145	1225.5	346.95
1000.4728	2740.3262	1224.05	337.75
1000.594	2741.5372	1202.85	324.65
1000.7152	2742.7475	1212.15	328.4
1000.8363	2743.9571	1195.25	310.55
1000.9575	2745.1661	1192.6	307.15
1001.0785	2746.3744	1179.2	295.15
1001.1996	2747.582	1179.15	298
1001.3206	2748.7889	1169.95	287.85
1001.4415	2749.9952	1174.6	293.75
1001.5625	2751.2008	1164	282.85
1001.6833	2752.4057	1168.7	284.75
1001.8042	2753.61	1160	277.35
1001.925	2754.8136	1161.7	277.4
1002.0458	2756.0165	1154	273.5
1002.1665	2757.2188	1159.35	279.3
1002.2872	2758.4204	1160.05	279.8
1002.4078	2759.6213	1165.2	281.05
1002.5285	2760.8215	1171.3	285.3
1002.649	2762.0211	1160.8	279.65
1002.7696	2763.22	1163.75	279.95
1002.8901	2764.4182	1160.5	279
1003.0106	2765.6158	1154.4	273.4
1003.131	2766.8127	1154.35	273.3
1003.2514	2768.009	1157.75	276.2
1003.3717	2769.2045	1150.9	267.95
1003.492	2770.3994	1154.15	270.9
1003.6123	2771.5936	1146.8	266.55
1003.7325	2772.7872	1140.25	261.85
1003.8527	2773.9801	1146.9	263.15
1003.9729	2775.1723	1167.25	268.4
1004.093	2776.3639	1152.8	273.2
1004.2131	2777.5548	1150.6	267.15
1004.3331	2778.745	1150.5	266.6
1004.4531	2779.9346	1153.9	272.85
1004.5731	2781.1235	1156.3	273.95
1004.693	2782.3117	1155.65	275.3
1004.8129	2783.4992	1165.15	282.25
1004.9328	2784.6861	1166.15	288.55
1005.0526	2785.8723	1173.8	293.3
1005.1723	2787.0579	1173	291.65
1005.2921	2788.2428	1183.8	300.25
1005.4118	2789.427	1185.9	306.85
1005.5314	2790.6106	1188.75	308.05
1005.651	2791.7935	1200.85	317.35
1005.7706	2792.9757	1209.1	331.9
1005.8902	2794.1573	1221.75	338.05
1006.0097	2795.3382	1234.65	352.8
1006.1291	2796.5184	1247.5	367.85
1006.2485	2797.698	1261.95	379.15
1006.3679	2798.8769	1269.75	388.95
1006.4873	2800.0551	1287.9	407.3
1006.6066	2801.2327	1302.8	418.25
1006.7258	2802.4096	1312.5	431.35
1006.8451	2803.5859	1328.8	446.85
1006.9642	2804.7615	1340.55	458.2
1007.0834	2805.9364	1363.55	482.35
1007.2025	2807.1106	1383.4	501.65
1007.3216	2808.2842	1412.7	530.3
1007.4406	2809.4572	1437.8	558.1
1007.5596	2810.6294	1467.35	584.85
1007.6785	2811.801	1479.05	598.65
1007.7975	2812.972	1524.5	643.55
1007.9163	2814.1423	1562.25	681.25
1008.0352	2815.3119	1594.95	713.05
1008.154	2816.4808	1613.2	733.65
1008.2727	2817.6491	1661.9	777.5
1008.3914	2818.8167	1697.6	818.25
1008.5101	2819.9837	1732.65	847.75
1008.6288	2821.15	1762.45	880.05
1008.7474	2822.3157	1800.4	921.8
1008.8659	2823.4807	1823.4	940.85
1008.9844	2824.645	1862.85	980
1009.1029	2825.8086	1884.3	1006.05
1009.2214	2826.9716	1920.2	1039.7
1009.3398	2828.134	1946.05	1066.1
1009.4581	2829.2957	1973.05	1093.15
1009.5764	2830.4567	1996.05	1116.95
1009.6947	2831.617	2005.7	1123.85
1009.813	2832.7767	2014.05	1134.05
1009.9312	2833.9358	2012.35	1130.8
1010.0493	2835.0941	2007.85	1124.6
1010.1675	2836.2519	2003.5	1122.95
1010.2855	2837.4089	1995.4	1113.9
1010.4036	2838.5653	1992.45	1111.9
1010.5216	2839.7211	1981.05	1101.7
1010.6396	2840.8761	1997.5	1116.7
1010.7575	2842.0306	2012.5	1132
1010.8754	2843.1843	2035.75	1152.95
1010.9932	2844.3374	2075.35	1195.35
1011.111	2845.4899	2122	1241.15
1011.2288	2846.6417	2174.45	1293.6
1011.3465	2847.7928	2231.1	1350.75
1011.4642	2848.9433	2294.8	1413.2
1011.5818	2850.0931	2354.85	1475.15
1011.6995	2851.2422	2421.25	1538.25
1011.817	2852.3907	2469.05	1586.4
1011.9345	2853.5385	2512.9	1630.15
1012.052	2854.6857	2576.7	1669.4
1012.1695	2855.8323	2603.35	1722.85
1012.2869	2856.9781	2624.5	1742.9
1012.4042	2858.1233	2653.75	1773.15
1012.5216	2859.2679	2694.05	1813.6
1012.6389	2860.4118	2741.05	1860.25
1012.7561	2861.555	2752.75	1867.65
1012.8733	2862.6976	2778.9	1897.2
1012.9905	2863.8395	2811.5	1932.2
1013.1076	2864.9808	2821.25	1941.5
1013.2247	2866.1214	2829.65	1949.3
1013.3417	2867.2614	2845.1	1965.15
1013.4587	2868.4007	2856.35	1974.9
1013.5757	2869.5393	2864.25	1982.45
1013.6926	2870.6773	2863.75	1980.95
1013.8095	2871.8146	2875.45	1990.7
1013.9263	2872.9513	2880.2	1996.75
1014.0431	2874.0874	2892.35	2009.85
1014.1599	2875.2227	2875.25	1994.15
1014.2766	2876.3574	2867.55	1986.1
1014.3933	2877.4915	2846	1965.2
1014.51	2878.6249	2834.35	1954.6
1014.6266	2879.7577	2822.05	1940.45
1014.7431	2880.8898	2805.3	1913.9
1014.8596	2882.0212	2792.2	1911.1
1014.9761	2883.152	2782.6	1901.7
1015.0925	2884.2821	2780.3	1900.75
1015.2089	2885.4116	2767.3	1886.3
1015.3253	2886.5405	2772.8	1892.05
1015.4416	2887.6686	2780	1895.95
1015.5579	2888.7962	2789.1	1910.1
1015.6741	2889.923	2793.5	1912
1015.7903	2891.0493	2794.3	1913
1015.9065	2892.1748	2804.95	1924.45
1016.0226	2893.2997	2815.65	1932.7
1016.1387	2894.424	2837.2	1958.7
1016.2547	2895.5476	2841.95	1963.6
1016.3707	2896.6706	2853.15	1974.1
1016.4866	2897.7929	2880.05	1999.4
1016.6025	2898.9145	2910.95	2027.95
1016.7184	2900.0355	2916.95	2035.75
1016.8342	2901.1559	2951.1	2068.55
1016.95	2902.2756	2978.55	2098.15
1017.0658	2903.3946	2988.15	2107.2
1017.1815	2904.513	3030.7	2146
1017.2971	2905.6308	3040.3	2159.4
1017.4127	2906.7479	3058.3	2177.15
1017.5283	2907.8643	3077.6	2195.7
1017.6439	2908.9801	3078.75	2199.4
1017.7594	2910.0953	3094.3	2214.95
1017.8748	2911.2098	3102	2218.45
1017.9902	2912.3236	3096.8	2208.45
1018.1056	2913.4368	3086.5	2201.75
1018.2209	2914.5494	3068.8	2188.15
1018.3362	2915.6613	3055.5	2169.7
1018.4515	2916.7725	3029.05	2146.8
1018.5667	2917.8831	2996.4	2114.55
1018.6819	2918.9931	2991.6	2107.5
1018.797	2920.1024	2961.1	2080.1
1018.9121	2921.211	2940.7	2060.2
1019.0271	2922.319	2928.7	2047.55
1019.1421	2923.4264	2926.5	2045.3
1019.2571	2924.5331	2909.8	2030.6
1019.372	2925.6391	2900.1	2020.05
1019.4869	2926.7445	2890.6	2009.75
1019.6017	2927.8493	2902	2020.55
1019.7165	2928.9534	2877.3	1997.5
1019.8313	2930.0569	2883.85	1999.45
1019.946	2931.1597	2880.1	1997.25
1020.0606	2932.2619	2882.1	2002.5
1020.1753	2933.3634	2861.35	1980.3
1020.2899	2934.4643	2872.25	1985.1
1020.4044	2935.5645	2854.25	1968.85
1020.5189	2936.6641	2816.5	1932.55
1020.6334	2937.763	2786.75	1908.5
1020.7478	2938.8613	2745	1863.1
1020.8622	2939.959	2701.25	1813.9
1020.9765	2941.056	2637.75	1759.2
1021.0908	2942.1523	2584.85	1702.4
1021.2051	2943.248	2527.45	1649.8
1021.3193	2944.3431	2439.85	1558.35
1021.4334	2945.4375	2370.95	1488.4
1021.5476	2946.5313	2302.2	1421.2
1021.6617	2947.6244	2217.7	1335.35
1021.7757	2948.7169	2149.95	1268.2
1021.8897	2949.8087	2089.15	1206.9
1022.0037	2950.8999	2022.2	1141.55
1022.1176	2951.9904	1959.7	1079.95
1022.2315	2953.0803	1910.85	1028.55
1022.3453	2954.1696	1855.4	976.4
1022.4591	2955.2582	1824.9	943.95
1022.5728	2956.3462	1795.95	914.4
1022.6865	2957.4335	1766	884.7
1022.8002	2958.5202	1740.75	855.1
1022.9138	2959.6062	1718.45	836.5
1023.0274	2960.6916	1699.8	819.25
1023.141	2961.7764	1683.25	801.6
1023.2545	2962.8605	1675.95	797.35
1023.3679	2963.9439	1671.6	792.3
1023.4813	2965.0267	1662.45	781.45
1023.5947	2966.1089	1681.15	777.9
1023.708	2967.1905	1657.9	777.25
1023.8213	2968.2714	1653.7	774.45
1023.9346	2969.3516	1647.45	764.75
1024.0478	2970.4312	1651.9	763.15
1024.1609	2971.5102	1658.75	776.95
1024.274	2972.5885	1650.45	769.6
1024.3871	2973.6662	1666.75	779.65
1024.5002	2974.7432	1645.85	767.15
1024.6132	2975.8196	1645.6	765.3
1024.7261	2976.8954	1630.05	751.9
1024.839	2977.9705	1636.05	754.6
1024.9519	2979.045	1627.65	746.8
1025.0647	2980.1188	1608.5	729.4
1025.1775	2981.192	1590.9	711.45
1025.2902	2982.2645	1578.75	697.5
1025.4029	2983.3364	1557.55	676.85
1025.5156	2984.4077	1540.3	659.85
1025.6282	2985.4783	1521.8	635.05
1025.7407	2986.5483	1497.05	616.2
1025.8532	2987.6177	1476.4	599.1
1025.9657	2988.6864	1445.4	564.8
1026.0782	2989.7545	1421	540.2
1026.1906	2990.8219	1397.1	516.6
1026.3029	2991.8887	1372.95	490.65
1026.4152	2992.9548	1353.35	471.35
1026.5275	2994.0204	1331	450.5
1026.6397	2995.0852	1310.9	431.75
1026.7519	2996.1495	1296	416.3
1026.864	2997.2131	1275.05	394.55
1026.9761	2998.276	1264.1	382.9
1027.0882	2999.3383	1254	370.7
1027.2002	3000.4	1230.05	348.65
1027.3122	3001.4611	1217.35	336.65
1027.4241	3002.5215	1215.7	334.4
1027.536	3003.5812	1202.1	322.2
1027.6478	3004.6404	1198.8	318.2
1027.7596	3005.6989	1197	315.1
1027.8714	3006.7567	1185.75	304.95
1027.9831	3007.8139	1200.35	302.25
1028.0947	3008.8705	1181.65	300.4
1028.2064	3009.9264	1174.15	290.9
1028.3179	3010.9818	1172.4	292.9
1028.4295	3012.0364	1173.2	290.65
1028.541	3013.0905	1165.1	283.8
1028.6524	3014.1439	1164.7	285.05
1028.7638	3015.1966	1164.35	283.5
1028.8752	3016.2487	1166.75	286.2
1028.9865	3017.3002	1167.35	282.6
1029.0978	3018.3511	1169.85	291.4
1029.209	3019.4013	1162.7	283.45
1029.3202	3020.4509	1162.85	281.9
1029.4314	3021.4998	1168.7	286.35
1029.5425	3022.5481	1169.25	289.35
1029.6535	3023.5958	1166.95	285.85
1029.7645	3024.6428	1172.25	291.85
1029.8755	3025.6892	1169.1	288.6
1029.9864	3026.735	1171.8	290.45
1030.0973	3027.7802	1176.85	295.2
1030.2082	3028.8247	1175.2	295.9
1030.319	3029.8685	1179.3	297.2
1030.4297	3030.9118	1185.15	304.85
1030.5404	3031.9544	1188.3	309.45
1030.6511	3032.9963	1186.6	307.5
1030.7617	3034.0376	1190.75	311.4
1030.8723	3035.0783	1202.3	318.15
1030.9829	3036.1184	1197.8	315.95
1031.0934	3037.1578	1198.9	318.8
1031.2038	3038.1966	1210	328.85
1031.3142	3039.2348	1205.95	324.5
1031.4246	3040.2723	1215.95	327.95
1031.5349	3041.3092	1207.8	328.6
1031.6452	3042.3455	1202.25	323.1
1031.7554	3043.3811	1200.2	318
1031.8656	3044.4161	1193.9	312.05
1031.9758	3045.4505	1189.25	310.9
1032.0859	3046.4842	1192.2	312.95
1032.1959	3047.5173	1177.85	298.95
1032.3059	3048.5498	1183.5	301.85
1032.4159	3049.5816	1178.1	296.25
1032.5258	3050.6128	1166.5	284.35
1032.6357	3051.6434	1167.05	285.1
1032.7455	3052.6734	1158.7	276.35
1032.8553	3053.7027	1158.15	278.8
1032.9651	3054.7314	1152.15	270.65
1033.0748	3055.7594	1149.65	269.85
1033.1845	3056.7868	1141.6	259.8
1033.2941	3057.8136	1141.3	261.25
1033.4037	3058.8398	1137.55	259.25
1033.5132	3059.8653	1135.5	255.3
1033.6227	3060.8902	1128.1	247.55
1033.7321	3061.9145	1123.5	243.45
1033.8415	3062.9381	1119.7	239.1
1033.9509	3063.9612	1133.6	239.1
1034.0602	3064.9835	1112.15	231.5
1034.1694	3066.0053	1106.4	222.95
1034.2787	3067.0264	1106.4	226
1034.3878	3068.0469	1102.2	218.9
1034.497	3069.0668	1097.35	214.25
1034.6061	3070.086	1086.15	208.4
1034.7151	3071.1046	1083.8	202.65
1034.8241	3072.1226	1079.2	195.5
1034.9331	3073.1399	1067.7	186.7
1035.042	3074.1567	1064.2	183.4
1035.1508	3075.1727	1058.5	177.1
1035.2597	3076.1882	1050.8	171.45
1035.3684	3077.203	1044.6	165.1
1035.4772	3078.2173	1041.2	159.75
1035.5859	3079.2308	1033.65	149.75
1035.6945	3080.2438	1029.15	146.8
1035.8031	3081.2561	1020.15	138.15
1035.9117	3082.2678	1015.85	134.4
1036.0202	3083.2789	1015.95	136.3
1036.1286	3084.2893	1006.35	126.5
1036.2371	3085.2991	1008.05	129.3
1036.3454	3086.3083	1008.4	124.4
1036.4538	3087.3169	997.6	114.9
1036.562	3088.3248	995.15	113.8
1036.6703	3089.3321	992.6	109.75
1036.7785	3090.3388	986.2	108.35
1036.8866	3091.3449	983.95	103.95
1036.9948	3092.3503	985.1	103.35
1037.1028	3093.3551	976.7	99.45
1037.2108	3094.3593	976.55	96.7
1037.3188	3095.3629	975.9	95.5
1037.4267	3096.3658	971.85	90.2
1037.5346	3097.3681	973.55	92.7
1037.6425	3098.3698	973.7	90.9
1037.7503	3099.3708	974.35	88.9
1037.858	3100.3713	967.1	87.85
1037.9657	3101.3711	966.45	86.55
1038.0734	3102.3702	1099.4	80.9
1038.181	3103.3688	967.5	83.2
1038.2886	3104.3667	960.5	81.15
1038.3961	3105.364	960.3	80.2
1038.5036	3106.3607	964.55	83
1038.611	3107.3568	962.75	80.3
1038.7184	3108.3522	959.05	79.65
1038.8257	3109.347	961.35	80.75
1038.933	3110.3412	959.15	75.65
1039.0403	3111.3348	955.85	75.7
1039.1475	3112.3277	954.2	73.6
1039.2547	3113.32	953.95	75.8
1039.3618	3114.3117	956.25	76.9
1039.4689	3115.3028	952	70.8
1039.5759	3116.2932	955.75	74.55
1039.6829	3117.2831	955.45	68.6
1039.7898	3118.2723	947.9	69.4
1039.8967	3119.2608	949.45	69.8
1040.0035	3120.2488	949.7	72.55
1040.1103	3121.2361	950.2	69.35
1040.2171	3122.2229	948.55	69.8
1040.3238	3123.209	947.2	65.95
1040.4305	3124.1944	944.45	65.2
1040.5371	3125.1793	948.1	67.7
1040.6437	3126.1635	944.85	66.6
1040.7502	3127.1471	944.95	63.25
1040.8567	3128.1301	942.45	63.1
1040.9631	3129.1125	941.65	61.95
1041.0695	3130.0942	944.5	64.55
1041.1759	3131.0753	949.9	59.2
1041.2822	3132.0558	947.75	64.85
1041.3884	3133.0357	941.1	59.9
1041.4946	3134.015	940.75	60.05
1041.6008	3134.9936	940.75	59.2
1041.7069	3135.9716	958.7	57.5
1041.813	3136.949	939.55	58.9
1041.919	3137.9258	954.85	53.9
1042.025	3138.902	943.15	58.45
1042.1309	3139.8775	932.8	52.6
1042.2368	3140.8524	935.4	54.4
1042.3427	3141.8267	937.8	56.55
1042.4485	3142.8004	936.1	54.05
1042.5542	3143.7735	943.55	58.25
1042.6599	3144.7459	937.8	55.65
1042.7656	3145.7178	932.6	51.85
1042.8712	3146.689	932.75	52.3
1042.9768	3147.6596	932.05	50.4
1043.0823	3148.6295	929.6	48.4
1043.1878	3149.5989	927.7	48.15
1043.2932	3150.5676	925.45	47.35
1043.3986	3151.5357	931.4	50.3
1043.5039	3152.5032	930.35	49.75
1043.6092	3153.4701	929.55	49.55
1043.7145	3154.4364	930.1	46.5
1043.8197	3155.402	925.75	46.75
1043.9248	3156.367	927.95	46.3
1044.03	3157.3315	962.05	43.7
1044.135	3158.2952	927.15	49.05
1044.24	3159.2584	926.3	45.45
1044.345	3160.221	923.7	43.4
1044.4499	3161.1829	921.55	41.4
1044.5548	3162.1442	923.35	44.4
1044.6596	3163.105	923.85	44.5
1044.7644	3164.065	924.55	45.5
1044.8692	3165.0245	927.15	44.75
1044.9739	3165.9834	921.3	42
1045.0785	3166.9416	920.45	42.6
1045.1831	3167.8993	922.95	41.15
1045.2877	3168.8563	922.8	42.45
1045.3922	3169.8127	922.15	42.65
1045.4966	3170.7684	921.4	41.2
1045.6011	3171.7236	919.65	37.05
1045.7054	3172.6782	919.75	40.4
1045.8098	3173.6321	920.1	39.55
1045.914	3174.5854	923.25	38.55
1046.0183	3175.5381	918.35	38.6
1046.1224	3176.4902	918.3	39.95
1046.2266	3177.4417	918.65	39.3
1046.3307	3178.3926	918.8	38.55
1046.4347	3179.3428	917.4	39.35
1046.5387	3180.2924	918.5	40.45
1046.6427	3181.2415	918.2	36.4
1046.7466	3182.1899	920.25	38.15
1046.8504	3183.1377	918.05	38.65
1046.9542	3184.0848	923.25	40.65
1047.058	3185.0314	917.6	36.65
1047.1617	3185.9773	917.6	38.05
1047.2654	3186.9227	915.2	34.35
1047.369	3187.8674	918.75	39.45
1047.4726	3188.8115	917.65	35.6
1047.5761	3189.755	914.8	33.75
1047.6796	3190.6979	915.35	35.85
1047.783	3191.6402	916.75	36.15
1047.8864	3192.5818	915.4	34.45
1047.9898	3193.5229	943.75	37.25
1048.0931	3194.4633	915.25	34.85
1048.1963	3195.4031	915.8	35.55
1048.2995	3196.3423	915.3	37.05
1048.4027	3197.2809	913.4	34.85
1048.5058	3198.2189	913.9	33.8
1048.6089	3199.1563	931.35	32.85
1048.7119	3200.0931	915.85	35.45
1048.8148	3201.0292	909.6	30.3
1048.9178	3201.9648	912.85	31.6
1049.0206	3202.8997	913.2	31.65
1049.1235	3203.834	912.3	33.3
1049.2262	3204.7677	911.55	33.45
1049.329	3205.7008	912.95	30.8
1049.4317	3206.6333	911.05	33.05
1049.5343	3207.5652	914.95	32.2
1049.6369	3208.4964	914.8	36.2
1049.7394	3209.4271	913.25	32
1049.8419	3210.3571	910.8	30.35
1049.9444	3211.2865	911.65	31
1050.0468	3212.2154	912.75	32.35
1050.1491	3213.1436	911.5	29.25
1050.2514	3214.0712	916.25	31.5
1050.3537	3214.9982	910.95	32.05
1050.4559	3215.9246	913.05	33.7
1050.5581	3216.8503	908.95	30.45
1050.6602	3217.7755	911.6	30.4
1050.7623	3218.7001	909.45	28.55
1050.8643	3219.624	911	31.35
1050.9663	3220.5473	909.65	29.3
1051.0682	3221.4701	913.7	33.8
1051.1701	3222.3922	911.5	29.55
1051.2719	3223.3137	905.9	26
1051.3737	3224.2346	906.05	26.7
1051.4754	3225.1549	905.9	27.4
1051.5771	3226.0746	909.9	30.15
1051.6788	3226.9937	908.75	29.55
1051.7804	3227.9121	909.4	30.5
1051.8819	3228.83	909.7	29.3
1051.9834	3229.7473	907.8	27.95
1052.0849	3230.6639	907.25	27.15
1052.1863	3231.5799	906	26.65
1052.2876	3232.4954	909.9	28.4
1052.3889	3233.4102	910.65	32.1
1052.4902	3234.3244	907.7	27.95
1052.5914	3235.238	907.9	27.25
1052.6926	3236.151	934.2	30.6
1052.7937	3237.0634	906.15	26.3
1052.8948	3237.9752	907.4	26.6
1052.9958	3238.8864	906.15	25.55
1053.0968	3239.797	906.1	26.15
1053.1977	3240.7069	906.9	26.95
1053.2986	3241.6163	906.7	23.95
1053.3994	3242.5251	906.15	28.1
1053.5002	3243.4332	905.35	26.8
1053.6009	3244.3408	904.05	24.25
1053.7016	3245.2477	904.25	25.45
1053.8022	3246.154	907	25.4
1053.9028	3247.0598	904.5	23.7
1054.0034	3247.9649	905.45	23.9
1054.1039	3248.8694	903.95	23.3
1054.2043	3249.7733	905.65	24.4
1054.3047	3250.6766	904.15	23.35
1054.4051	3251.5793	903.85	23.6
1054.5054	3252.4814	905.55	25.5
1054.6056	3253.3829	900.5	19.55
1054.7058	3254.2838	900.15	21.25
1054.806	3255.1841	900.85	21.4
1054.9061	3256.0838	900.15	21.8
1055.0061	3256.9829	901.4	23.3
1055.1062	3257.8814	903.7	22.3
1055.2061	3258.7792	902.45	19.45
1055.306	3259.6765	900.65	18.8
1055.4059	3260.5731	900.1	20.3
1055.5057	3261.4692	901.45	19.65
1055.6055	3262.3647	901.7	20.85
1055.7052	3263.2595	898.65	22.15
1055.8049	3264.1538	900.3	22.15
1055.9045	3265.0474	900.9	22
1056.0041	3265.9404	897.1	19
1056.1036	3266.8329	897.15	18.6
1056.2031	3267.7247	908.2	20.5
1056.3025	3268.616	895	16.1
1056.4019	3269.5066	898.75	19.3
1056.5013	3270.3966	899.2	18.15
1056.6005	3271.286	894.75	16.35
