Software Version:	3.9.2.0
Unit SN:	10000200
Spectrometer SN:	6960
Date:	3/14/2024 2:14:06 PM
Data Line Index:	25
Spectral Points:	2048
Integration time (ms):	125
Averages:	20
Delay (ms):	30000
Sequence Number:	1
Processing:	dark subtract
Laser Power (mW):	305
Laser Current (mA):	824
Laser Diode Temp (C):	25
Laser Case Temp (C):	29.1
System Temp (C):	29.1
Spectrometer Temp (C):	26.9
CCD Temp (C):	0.009
Secondary Temp (C):	20.008
Heatsink Temp (C):	24.934
CCDPCB Temp (C):	38.341
SecondaryPCB Temp (C):	36.029

Wavelength	RamanShift	Raw Counts	Dark Subtracted
787.061	30.1047	458.85	48.85
787.2016	32.3739	457.25	48.65
787.3422	34.6426	465.2	56.25
787.4828	36.9109	469.7	60.55
787.6235	39.1787	477.7	64.2
787.7642	41.4461	489.05	70.35
787.9049	43.7131	495.85	72.65
788.0456	45.9796	506.55	81.05
788.1863	48.2456	514.45	81.8
788.3271	50.5112	525.1	90
788.4679	52.7764	535.75	99.2
788.6087	55.0411	545.85	105.1
788.7496	57.3054	556.45	110.7
788.8904	59.5692	567.15	120.15
789.0313	61.8326	579.2	126.55
789.1722	64.0955	593.15	134.05
789.3132	66.3579	607.9	145.65
789.4541	68.6199	632.65	167.65
789.5951	70.8815	659.4	191.85
789.7361	73.1426	731.1	260.7
789.8771	75.4032	924.6	447.7
790.0181	77.6634	1394.85	909.3
790.1592	79.9231	2521.65	2034
790.3003	82.1824	4978.35	4482.4
790.4414	84.4412	9481.1	8965.5
790.5825	86.6995	15936.3	15398.9
790.7237	88.9574	22410.3	21850.55
790.8648	91.2148	27087.7	26519.05
791.006	93.4717	29409.2	28828.65
791.1472	95.7282	30037.45	29449.7
791.2885	97.9842	30047.3	29458.1
791.4297	100.2398	29605.05	29013.9
791.571	102.4949	29011.3	28413.85
791.7123	104.7495	28280.55	27680.7
791.8536	107.0036	27513.8	26915.05
791.9949	109.2573	26663	26065.5
792.1363	111.5105	25850.2	25247.7
792.2777	113.7632	25035.25	24432.8
792.4191	116.0154	24339.5	23724.15
792.5605	118.2672	23822.55	23217.1
792.7019	120.5185	23240.2	22629.85
792.8434	122.7693	22796.65	22187.45
792.9849	125.0197	22482.5	21872.6
793.1264	127.2696	22175.4	21560.15
793.2679	129.519	22082.65	21465.05
793.4094	131.7679	21849.1	21228.6
793.551	134.0163	21777.1	21151.55
793.6926	136.2642	21613.6	20983.95
793.8342	138.5117	21416.1	20778.65
793.9758	140.7587	21235.7	20605.35
794.1175	143.0052	21084.55	20448.15
794.2591	145.2512	20897.5	20262.8
794.4008	147.4967	20677.3	20042.55
794.5425	149.7417	20498.35	19856.5
794.6842	151.9863	20387	19746.95
794.826	154.2304	20335.9	19691.9
794.9677	156.4739	20196.4	19549.8
795.1095	158.717	20119.6	19467.6
795.2513	160.9596	19936.35	19280.5
795.3931	163.2017	19686.1	19030.5
795.535	165.4433	19358.6	18701.9
795.6768	167.6844	19018.3	18357.25
795.8187	169.925	18663.65	17999.4
795.9606	172.1651	18252.55	17582.1
796.1025	174.4047	17921.7	17252.05
796.2445	176.6439	17638.55	16966.3
796.3864	178.8825	17338.45	16661.65
796.5284	181.1206	17193.85	16514.45
796.6704	183.3582	16971.7	16290.3
796.8124	185.5954	16840.15	16158.15
796.9544	187.832	16729.85	16045.4
797.0965	190.0681	16669.1	15981.3
797.2386	192.3037	16667.55	15976.95
797.3806	194.5388	16618.25	15924.3
797.5228	196.7734	16641.5	15946.45
797.6649	199.0075	16704	16002.05
797.807	201.2411	16836.65	16134.05
797.9492	203.4742	16898.9	16196.05
798.0914	205.7068	17013.3	16311.85
798.2336	207.9389	17146.35	16439.5
798.3758	210.1704	17256.7	16549.8
798.518	212.4015	17377.9	16667.45
798.6603	214.632	17544.1	16835.55
798.8025	216.862	17728.55	17026.4
798.9448	219.0915	17912.2	17217.85
799.0871	221.3205	18136.9	17446.35
799.2294	223.549	18481.2	17793.1
799.3718	225.777	18851.2	18162.95
799.5141	228.0044	19343.1	18652.35
799.6565	230.2314	19886.05	19197.2
799.7989	232.4578	20426.95	19737.95
799.9413	234.6837	20873.5	20175.2
800.0837	236.909	21102.7	20406.65
800.2262	239.1339	21055.55	20336.7
800.3687	241.3582	20769.3	20062
800.5111	243.582	20271.55	19538.15
800.6536	245.8053	19798.1	19071.45
800.7961	248.0281	19357.75	18636.4
800.9387	250.2503	19011.85	18285.2
801.0812	252.472	18774.6	18044.75
801.2238	254.6932	18635.95	17903.45
801.3664	256.9139	18462.25	17724.35
801.509	259.134	18374.35	17633.35
801.6516	261.3536	18240.75	17506.6
801.7942	263.5727	18176.6	17441.1
801.9369	265.7912	18005.55	17268.35
802.0795	268.0092	17958.75	17223.1
802.2222	270.2267	17834.15	17092.35
802.3649	272.4436	17769.25	17029.55
802.5076	274.6601	17691.1	16940.6
802.6504	276.8759	17622.2	16879.3
802.7931	279.0913	17631.65	16885.85
802.9359	281.3061	17661.35	16916.85
803.0787	283.5204	17761.8	17011.9
803.2215	285.7341	17902.15	17150.7
803.3643	287.9473	18144.25	17381.05
803.5071	290.16	18415.15	17656
803.6499	292.3721	18750.25	18000.15
803.7928	294.5837	19257.85	18504.75
803.9357	296.7947	19615.35	18863.3
804.0786	299.0052	19870.55	19119.8
804.2215	301.2152	19674.75	18917.15
804.3644	303.4246	19190.05	18435.9
804.5074	305.6334	18593.15	17839.4
804.6503	307.8418	17978.5	17222.45
804.7933	310.0495	17532	16774.75
804.9363	312.2568	17196.55	16441.75
805.0793	314.4635	17021.05	16262.95
805.2223	316.6696	16953.7	16194.2
805.3653	318.8752	16929.15	16163.3
805.5084	321.0802	16990.35	16228.75
805.6514	323.2847	17103.75	16340.05
805.7945	325.4887	17170.55	16409.15
805.9376	327.692	17090	16328.2
806.0807	329.8949	16952.3	16189.9
806.2238	332.0972	16682.55	15915.9
806.367	334.2989	16351.2	15577.85
806.5101	336.5001	16020.8	15252.7
806.6533	338.7007	15773.15	15007.3
806.7965	340.9008	15680.3	14911.9
806.9397	343.1003	15541.45	14767.25
807.0829	345.2992	15490.8	14719.45
807.2261	347.4976	15470.05	14692.3
807.3693	349.6955	15462.8	14685.05
807.5126	351.8927	15523.6	14744.4
807.6559	354.0895	15485.7	14695.9
807.7991	356.2856	15542.55	14758.8
807.9424	358.4812	15554.4	14775.35
808.0857	360.6763	15561.85	14780.65
808.2291	362.8707	15511.9	14733.25
808.3724	365.0646	15542.2	14757.35
808.5158	367.258	15512.65	14724.6
808.6591	369.4508	15490.85	14703.05
808.8025	371.643	15529.25	14739.5
808.9459	373.8346	15484.2	14690.95
809.0893	376.0257	15436.4	14640.1
809.2327	378.2162	15328.65	14535.3
809.3762	380.4062	15185.55	14387.55
809.5196	382.5956	15013.1	14210.05
809.6631	384.7844	14907.55	14109.7
809.8066	386.9726	14806.5	14004.25
809.9501	389.1603	14738.65	13940.5
810.0936	391.3474	14675.6	13844.75
810.2371	393.5339	14649.95	13853.45
810.3806	395.7199	14604.2	13809.55
810.5241	397.9052	14603.25	13811.15
810.6677	400.09	14596.55	13804.8
810.8113	402.2743	14640.65	13850.15
810.9548	404.4579	14639.95	13849.65
811.0984	406.641	14809.25	14023.55
811.2421	408.8235	15081.5	14291.3
811.3857	411.0054	15426.2	14634.4
811.5293	413.1868	15928.8	15134.75
811.673	415.3675	16340.15	15543.6
811.8166	417.5477	16567.8	15770.65
811.9603	419.7273	16601.2	15800.05
812.104	421.9064	16491.5	15684.35
812.2477	424.0848	16314.15	15509.2
812.3914	426.2627	16041.8	15234.4
812.5351	428.4399	15727.2	14921.1
812.6788	430.6166	15314.6	14504.6
812.8226	432.7928	14907.1	14095.65
812.9663	434.9683	14557.65	13745.85
813.1101	437.1432	14325.45	13508.4
813.2539	439.3176	14112.15	13295.3
813.3977	441.4914	14018.25	13202.95
813.5415	443.6645	13988.5	13169.55
813.6853	445.8371	13946.7	13131.1
813.8291	448.0091	13836.9	13021.4
813.973	450.1806	13778.55	12964.75
814.1168	452.3514	13674.85	12857.85
814.2607	454.5216	13680.8	12855.05
814.4046	456.6913	13584.7	12766.5
814.5485	458.8603	13609.55	12790.45
814.6924	461.0288	13661.9	12843.15
814.8363	463.1967	13693.5	12876.45
814.9802	465.3639	13818.8	12998.2
815.1241	467.5306	13957.45	13136.7
815.2681	469.6967	14167.35	13347.6
815.412	471.8622	14375.45	13555.9
815.556	474.0271	14531.6	13713.75
815.7	476.1914	14577.7	13756.05
815.844	478.3551	14519.55	13699.05
815.988	480.5182	14464.7	13641.5
816.132	482.6807	14430.45	13607.8
816.276	484.8426	14474.85	13652.55
816.4201	487.0039	14712.15	13887.65
816.5641	489.1647	15150.95	14328.5
816.7082	491.3248	15609.15	14787.65
816.8522	493.4843	15819.85	14995.8
816.9963	495.6432	15870.85	15046.85
817.1404	497.8015	15741	14916.5
817.2845	499.9592	15750.45	14927.7
817.4286	502.1163	15735.35	14908.6
817.5727	504.2728	15520.3	14693
817.7168	506.4287	15175.9	14349.1
817.861	508.5839	14692.25	13864.25
818.0051	510.7386	14322.6	13495.45
818.1493	512.8927	14062.9	13227.15
818.2935	515.0461	13877.7	13050.2
818.4377	517.199	13743.45	12914
818.5818	519.3512	13651.45	12822.15
818.726	521.5029	13665.75	12830.5
818.8703	523.6539	13654.95	12823.3
819.0145	525.8043	13665.8	12836.05
819.1587	527.9541	13714.55	12878.1
819.303	530.1033	13749.1	12915.35
819.4472	532.2519	13817.55	12986.7
819.5915	534.3999	13988.8	13152
819.7357	536.5472	14335.2	13501.8
819.88	538.694	14913.1	14079.25
820.0243	540.8401	15591.9	14756.35
820.1686	542.9856	16196.5	15358.35
820.3129	545.1305	16384.55	15546.75
820.4572	547.2748	16197.3	15361.2
820.6016	549.4185	15729.5	14892
820.7459	551.5615	15268.65	14433.5
820.8902	553.704	15064.6	14227.05
821.0346	555.8458	14923.2	14084.75
821.1789	557.987	14847.9	14008.4
821.3233	560.1276	14708	13870.15
821.4677	562.2675	14562.5	13726.25
821.6121	564.4069	14436.45	13596.55
821.7565	566.5456	14279.7	13444.6
821.9009	568.6837	14099.4	13261.3
822.0453	570.8212	13864.35	13026.7
822.1897	572.958	13592.25	12755.6
822.3342	575.0942	13431.05	12593.1
822.4786	577.2299	13325.65	12483.8
822.6231	579.3648	13357.85	12517.35
822.7675	581.4992	13469	12631.5
822.912	583.6329	13702.95	12862.6
823.0565	585.766	13928.9	13089.6
823.201	587.8985	14068.3	13232.65
823.3454	590.0304	14091.05	13240.45
823.4899	592.1616	14008.85	13165.7
823.6345	594.2922	13895.9	13057
823.779	596.4222	13737	12893.5
823.9235	598.5515	13565.05	12724.9
824.068	600.6802	13393.85	12551.3
824.2126	602.8083	13153.5	12312.4
824.3571	604.9358	13059.95	12214.75
824.5017	607.0626	12926.25	12083.7
824.6462	609.1888	12864.2	12022.3
824.7908	611.3144	12716.65	11870.1
824.9354	613.4393	12531.3	11686.8
825.08	615.5636	12381.3	11537.9
825.2246	617.6873	12213	11367.75
825.3692	619.8103	12148.45	11300.65
825.5138	621.9327	12079.8	11231.6
825.6584	624.0544	12069.35	11226.45
825.803	626.1756	12081.65	11237.1
825.9477	628.2961	12045.6	11198.45
826.0923	630.4159	11976.45	11130
826.237	632.5351	11910.6	11064.1
826.3816	634.6537	11832.35	10986.25
826.5263	636.7716	11793	10943.95
826.6709	638.8889	11755	10908.85
826.8156	641.0056	11786.5	10938.1
826.9603	643.1216	11790.7	10940.4
827.105	645.237	11801.25	10946.85
827.2497	647.3518	11789.85	10938.85
827.3944	649.4659	11816.7	10966.65
827.5391	651.5793	11818.6	10966.25
827.6838	653.6922	11798.9	10947.95
827.8285	655.8043	11774.7	10925.25
827.9733	657.9159	11734.05	10880.85
828.118	660.0268	11624.4	10769.95
828.2627	662.137	11551.9	10698.35
828.4075	664.2466	11489.45	10637.15
828.5522	666.3556	11471.25	10620
828.697	668.4639	11445.55	10590.8
828.8418	670.5716	11495.65	10643.35
828.9865	672.6786	11585.15	10732.5
829.1313	674.785	11645.5	10791.2
829.2761	676.8907	11723.35	10869.1
829.4209	678.9958	11830.6	10979.4
829.5657	681.1002	11780.45	10925.95
829.7105	683.204	11754.9	10895.9
829.8553	685.3072	11657.8	10803.4
830.0001	687.4097	11564	10708.4
830.1449	689.5115	11492.6	10634.8
830.2898	691.6127	11406.8	10552.25
830.4346	693.7132	11315.35	10458
830.5794	695.8131	11243.65	10369.4
830.7243	697.9123	11184.75	10328.7
830.8691	700.0109	11109.8	10252.75
831.014	702.1089	11085.35	10229.5
831.1588	704.2061	11068.6	10211.4
831.3037	706.3028	11106.7	10249.35
831.4486	708.3987	11169.4	10312.15
831.5935	710.4941	11246.35	10388.95
831.7383	712.5887	11440.6	10581.95
831.8832	714.6827	11770.35	10906.75
832.0281	716.7761	12183.4	11325.1
832.173	718.8688	12614.35	11752.6
832.3179	720.9608	12839.65	11980.15
832.4628	723.0522	12794.65	11932.2
832.6077	725.1429	12514.1	11653.8
832.7527	727.233	12083.1	11222.05
832.8976	729.3224	11705.55	10844.15
833.0425	731.4112	11379.5	10518.75
833.1874	733.4993	11091.9	10228.05
833.3324	735.5867	10939.45	10078.3
833.4773	737.6735	10863.05	10001.8
833.6222	739.7596	10788.95	9927.6
833.7672	741.845	10777.2	9916.05
833.9122	743.9298	10741.25	9875.7
834.0571	746.014	10771.15	9909.4
834.2021	748.0974	10763	9901.35
834.347	750.1802	10738.55	9877.3
834.492	752.2624	10749.5	9886.85
834.637	754.3439	10753.55	9892
834.782	756.4247	10807.9	9936.75
834.9269	758.5048	10892.85	10031.4
835.0719	760.5843	11072.35	10209.05
835.2169	762.6631	11343.1	10478.25
835.3619	764.7413	11771.65	10910.6
835.5069	766.8188	12315.95	11451.85
835.6519	768.8956	12808	11943
835.7969	770.9718	13147.05	12283
835.9419	773.0473	13004.95	12141.55
836.0869	775.1221	12646.1	11783.1
836.232	777.1962	12230	11365.85
836.377	779.2697	12016.15	11150.05
836.522	781.3426	12111.5	11238.55
836.667	783.4147	12414	11547.75
836.8121	785.4862	12757.65	11896.7
836.9571	787.557	12769.6	11905.3
837.1021	789.6271	12392.8	11526.85
837.2472	791.6966	11779.85	10915.2
837.3922	793.7654	11251.7	10385.25
837.5373	795.8335	10914.65	10049.5
837.6823	797.901	10722.7	9858.75
837.8274	799.9678	10649	9785.55
837.9724	802.0339	10677.45	9813.35
838.1175	804.0993	10735.75	9860.45
838.2626	806.1641	10704.75	9839.75
838.4076	808.2282	10639.35	9773.2
838.5527	810.2916	10518.55	9650.65
838.6978	812.3544	10399.05	9534.55
838.8428	814.4164	10279.35	9413.85
838.9879	816.4778	10277.4	9414.2
839.133	818.5385	10280.35	9412.55
839.2781	820.5986	10287.6	9421.75
839.4232	822.658	10331.05	9460.4
839.5682	824.7166	10323.65	9456.4
839.7133	826.7747	10473.4	9607.85
839.8584	828.832	10591.25	9724.85
840.0035	830.8886	10647.95	9779.8
840.1486	832.9446	10813.25	9946
840.2937	834.9999	10889	10022.15
840.4388	837.0545	10976.95	10106.45
840.5839	839.1085	11043.4	10176.05
840.729	841.1618	11054.3	10180.7
840.8741	843.2143	11053.05	10185.75
841.0192	845.2662	11002.15	10134.05
841.1643	847.3175	10914.4	10049.5
841.3095	849.368	10811.8	9945.7
841.4546	851.4179	10660.85	9791.6
841.5997	853.467	10495.3	9628.15
841.7448	855.5155	10367.8	9498.05
841.8899	857.5633	10222.05	9355.45
842.0351	859.6105	10107.1	9239.6
842.1802	861.6569	10022.3	9154.2
842.3253	863.7027	9939.55	9069.75
842.4704	865.7478	9919.1	9047.95
842.6156	867.7922	9925	9055.8
842.7607	869.8359	9989.1	9119.6
842.9058	871.8789	10107.4	9237.25
843.0509	873.9212	10291.05	9387.05
843.1961	875.9629	10445.9	9575.1
843.3412	878.0039	10633	9762.65
843.4863	880.0441	10736.75	9865.4
843.6315	882.0837	10708.35	9839.6
843.7766	884.1226	10570.1	9699.25
843.9218	886.1609	10400.85	9533.5
844.0669	888.1984	10245.7	9377.15
844.212	890.2352	10174.15	9306.55
844.3572	892.2714	10096.6	9222.6
844.5023	894.3069	10033.8	9162.1
844.6475	896.3416	10000.95	9128.7
844.7926	898.3757	9973.85	9100.65
844.9377	900.4091	9933.3	9060.65
845.0829	902.4418	9938.75	9065.2
845.228	904.4739	9939.05	9067.7
845.3732	906.5052	9917.7	9047.35
845.5183	908.5358	9778.35	8908.15
845.6635	910.5658	9618.4	8746.8
845.8086	912.595	9464.15	8590.05
845.9538	914.6236	9315.05	8446
846.0989	916.6515	9295.35	8423.55
846.2441	918.6786	9324.3	8449.35
846.3892	920.7051	9333.6	8461.15
846.5344	922.7309	9454.1	8581.7
846.6795	924.756	9530.25	8656
846.8246	926.7804	9614.2	8742.4
846.9698	928.8041	9592.8	8716.75
847.1149	930.8272	9601.3	8729.95
847.2601	932.8495	9514	8640.75
847.4052	934.8711	9437	8564.7
847.5504	936.892	9252.45	8378.2
847.6955	938.9123	9074.5	8199.95
847.8407	940.9318	8918.8	8045.55
847.9858	942.9506	8792	7919.5
848.131	944.9688	8685.7	7813
848.2761	946.9862	8615.7	7742.2
848.4213	949.003	8572.95	7700.4
848.5664	951.019	8567.55	7696.05
848.7115	953.0344	8600	7723.25
848.8567	955.0491	8647.8	7774.55
849.0018	957.063	8705.15	7832.9
849.147	959.0763	8818.45	7945.9
849.2921	961.0888	8878.9	8004.4
849.4373	963.1007	8937.75	8065.3
849.5824	965.1119	8999.45	8123.35
849.7275	967.1223	9000.6	8127.6
849.8727	969.1321	9031.8	8159.5
850.0178	971.1412	9079.35	8205
850.1629	973.1495	9079.55	8205.1
850.3081	975.1572	9143.65	8229.6
850.4532	977.1641	9162.4	8286.9
850.5983	979.1704	9125.95	8249.85
850.7435	981.1759	9133.8	8258.8
850.8886	983.1808	9190.2	8313.1
851.0337	985.1849	9292.85	8406.95
851.1788	987.1884	9484.25	8606.55
851.324	989.1911	9680.8	8803.35
851.4691	991.1932	9806.3	8930.65
851.6142	993.1945	9875.95	9003.15
851.7593	995.1951	9829.35	8952.35
851.9045	997.1951	9775.75	8895
852.0496	999.1943	9701.8	8829
852.1947	1001.1928	9633.8	8759.65
852.3398	1003.1906	9626.65	8752.45
852.4849	1005.1877	9649.2	8774.05
852.63	1007.1841	9574.9	8700.85
852.7751	1009.1798	9450.05	8575
852.9202	1011.1748	9229.65	8353.7
853.0653	1013.1691	9031.75	8157.3
853.2104	1015.1627	8810.35	7935.05
853.3555	1017.1556	8620.3	7746.1
853.5006	1019.1477	8502.65	7627.35
853.6457	1021.1392	8462.3	7588.85
853.7908	1023.1299	8450.6	7573.85
853.9359	1025.12	8489.7	7612.35
854.081	1027.1093	8516.1	7641.1
854.2261	1029.0979	8626.9	7753.3
854.3712	1031.0859	8660.55	7786.9
854.5163	1033.0731	8651.65	7776.4
854.6613	1035.0596	8557.95	7682.6
854.8064	1037.0454	8403.2	7525.85
854.9515	1039.0304	8286.25	7409.3
855.0965	1041.0148	8155.75	7281.45
855.2416	1042.9985	8055	7177.55
855.3867	1044.9814	8034.55	7159.85
855.5317	1046.9636	8007.05	7127.4
855.6768	1048.9452	7942.6	7065.5
855.8219	1050.926	7959.05	7084.4
855.9669	1052.9061	7915.85	7041.25
856.112	1054.8855	7913.2	7036.65
856.257	1056.8642	7951.4	7074.85
856.4021	1058.8421	8001.45	7120.95
856.5471	1060.8194	8004.4	7128.4
856.6921	1062.7959	8017.7	7142
856.8372	1064.7717	8043	7166.55
856.9822	1066.7469	8007.75	7131.2
857.1272	1068.7213	8008.15	7130.75
857.2723	1070.695	7966.2	7089.2
857.4173	1072.6679	7881.25	7004.85
857.5623	1074.6402	7830.1	6951.95
857.7073	1076.6117	7815.85	6934.25
857.8523	1078.5826	7820.1	6940.2
857.9973	1080.5527	7896.2	7016.7
858.1423	1082.5221	8052.75	7174.85
858.2873	1084.4908	8283.35	7406.15
858.4323	1086.4587	8540.7	7661.85
858.5773	1088.426	8705.6	7827.55
858.7223	1090.3925	8701	7820.2
858.8673	1092.3584	8590.55	7716.35
859.0123	1094.3235	8390.1	7512.05
859.1573	1096.2879	8290.05	7413.25
859.3022	1098.2515	8261.7	7386.15
859.4472	1100.2145	8279.45	7403.9
859.5922	1102.1767	8330.4	7450.75
859.7371	1104.1382	8480.8	7602.3
859.8821	1106.099	8693.35	7815.8
860.027	1108.0591	8889	8010.05
860.172	1110.0185	9027.25	8148.35
860.3169	1111.9771	9002.05	8125.15
860.4619	1113.9351	8756.7	7880.55
860.6068	1115.8923	8382.95	7504.8
860.7517	1117.8488	8045.7	7167.35
860.8967	1119.8045	7766.85	6889.1
861.0416	1121.7596	7615.2	6736.45
861.1865	1123.7139	7536.9	6660.4
861.3314	1125.6675	7543.05	6665.95
861.4763	1127.6204	7623.8	6747.55
861.6212	1129.5726	7651.95	6771.5
861.7661	1131.524	7686.5	6809.15
861.911	1133.4748	7704.4	6826.4
862.0559	1135.4248	7743.85	6865.2
862.2008	1137.3741	7790.4	6912.7
862.3457	1139.3226	7742.1	6864
862.4905	1141.2705	7716.9	6840.3
862.6354	1143.2176	7653.9	6770.85
862.7803	1145.164	7689.8	6811
862.9251	1147.1097	7712.65	6836
863.07	1149.0546	7690.05	6809.15
863.2148	1150.9989	7574.65	6696.8
863.3597	1152.9424	7390.85	6509.95
863.5045	1154.8852	7175.6	6298.15
863.6493	1156.8272	7032.9	6157.15
863.7942	1158.7686	6946.45	6059.2
863.939	1160.7092	6893.4	6015.25
864.0838	1162.6491	6905.15	6024.25
864.2286	1164.5883	6986.2	6109.25
864.3734	1166.5267	7065.35	6187.4
864.5182	1168.4644	7191.6	6314.95
864.663	1170.4014	7370.25	6490.75
864.8078	1172.3377	7593.35	6718.3
864.9526	1174.2732	7800.9	6921.9
865.0974	1176.2081	8001.9	7123.35
865.2421	1178.1421	8182.35	7298.05
865.3869	1180.0755	8287.45	7409.2
865.5317	1182.0082	8292.6	7413.85
865.6764	1183.9401	8185.85	7306.75
865.8212	1185.8713	7989.3	7110.25
865.9659	1187.8017	7746.85	6867.7
866.1106	1189.7315	7484.35	6606.3
866.2554	1191.6605	7260.7	6353.45
866.4001	1193.5888	7040.8	6161.8
866.5448	1195.5163	6918.2	6041.6
866.6895	1197.4432	6816.15	5934.55
866.8342	1199.3693	6736.45	5857.75
866.9789	1201.2947	6686.2	5804.05
867.1236	1203.2193	6677.5	5798.05
867.2683	1205.1432	6687.25	5809.05
867.413	1207.0664	6747.8	5866.85
867.5576	1208.9889	6827.6	5946.25
867.7023	1210.9106	6930.75	6051.3
867.847	1212.8316	7015.15	6138.05
867.9916	1214.7519	7092.7	6204.5
868.1363	1216.6715	7099.5	6219.35
868.2809	1218.5903	7083.55	6206.05
868.4255	1220.5084	7036.85	6157.3
868.5701	1222.4257	6995.35	6115.5
868.7148	1224.3424	6953.6	6075.55
868.8594	1226.2583	7014.55	6129.1
869.004	1228.1735	7120	6242.2
869.1486	1230.0879	7240	6359
869.2932	1232.0016	7403.6	6525
869.4377	1233.9146	7407.65	6527.25
869.5823	1235.8269	7324.3	6446.5
869.7269	1237.7384	7155.7	6276.65
869.8715	1239.6492	7000.9	6121.15
870.016	1241.5592	6875.7	5995.05
870.1606	1243.4686	6777.6	5898.45
870.3051	1245.3772	6696.55	5818.6
870.4496	1247.285	6638.2	5758.65
870.5941	1249.1922	6610.55	5728.95
870.7387	1251.0986	6587.05	5708.45
870.8832	1253.0042	6602.75	5723.8
871.0277	1254.9092	6670.1	5790.3
871.1722	1256.8134	6766.6	5888
871.3167	1258.7169	6941.15	6060.2
871.4611	1260.6196	7085.35	6205
871.6056	1262.5216	7242.15	6363.7
871.7501	1264.4229	7387	6508
871.8945	1266.3234	7513.4	6635.85
872.039	1268.2232	7527.7	6646.55
872.1834	1270.1223	7526.15	6645
872.3278	1272.0207	7478	6598.6
872.4723	1273.9183	7439.2	6553.9
872.6167	1275.8151	7373.05	6494.65
872.7611	1277.7113	7261.2	6382.1
872.9055	1279.6067	7119.5	6243.55
873.0499	1281.5014	6956.5	6073.35
873.1943	1283.3953	6785.15	5904.55
873.3386	1285.2885	6682.65	5802.3
873.483	1287.181	6601.85	5720.6
873.6274	1289.0727	6618.65	5739.3
873.7717	1290.9637	6664.55	5783.55
873.9161	1292.854	6775.6	5896.25
874.0604	1294.7435	6929.85	6049.6
874.2047	1296.6323	7168.7	6287.85
874.349	1298.5204	7445.1	6560.2
874.4933	1300.4077	7687.85	6807.9
874.6376	1302.2943	7879.45	7000.3
874.7819	1304.1802	7964.15	7085.05
874.9262	1306.0653	7914.15	7031.65
875.0705	1307.9497	7788.15	6908.75
875.2147	1309.8333	7712.95	6836.05
875.359	1311.7162	7698.75	6818.95
875.5032	1313.5984	7801.95	6918.5
875.6475	1315.4798	7974.15	7083.75
875.7917	1317.3605	8158.05	7261.8
875.9359	1319.2405	8313.85	7432.55
876.0801	1321.1197	8352.65	7471.5
876.2243	1322.9982	8336.8	7453.95
876.3685	1324.876	8309.2	7431.35
876.5127	1326.753	8297.9	7416.55
876.6569	1328.6293	8289.1	7410.45
876.801	1330.5048	8327.8	7445
876.9452	1332.3796	8310.5	7431.75
877.0893	1334.2537	8279.4	7374.4
877.2335	1336.127	8215.75	7335.55
877.3776	1337.9996	8152	7271.05
877.5217	1339.8714	8099.2	7216.6
877.6658	1341.7426	8061.9	7139.1
877.8099	1343.6129	7972.35	7092.35
877.954	1345.4826	7879.05	6996.7
878.0981	1347.3515	7857.55	6973.9
878.2422	1349.2196	7798.15	6917.85
878.3862	1351.087	7785.85	6905.9
878.5303	1352.9537	7837.35	6954.3
878.6743	1354.8197	7923.1	7042.8
878.8184	1356.6849	8103.35	7221.95
878.9624	1358.5493	8181.45	7302.6
879.1064	1360.4131	8166.15	7284.6
879.2504	1362.276	8087.7	7208.2
879.3944	1364.1383	7919.6	7040
879.5384	1365.9998	7699.65	6813.4
879.6823	1367.8606	7421	6538.5
879.8263	1369.7206	7188.65	6305.7
879.9702	1371.5799	7035.35	6153.75
880.1142	1373.4384	6914.65	6036.25
880.2581	1375.2962	6781.7	5899.6
880.402	1377.1533	6570.55	5688.85
880.5459	1379.0096	6269	5387.3
880.6898	1380.8652	5989.3	5107.8
880.8337	1382.7201	5780.65	4899.7
880.9776	1384.5742	5585.6	4704.2
881.1215	1386.4275	5438.4	4558.8
881.2653	1388.2802	5344	4463.55
881.4092	1390.132	5242.15	4360.95
881.553	1391.9832	5189.6	4307.45
881.6968	1393.8336	5114.05	4232
881.8406	1395.6832	5112.6	4229.85
881.9844	1397.5322	5068.9	4186.9
882.1282	1399.3803	5050.8	4164.9
882.272	1401.2278	5045.5	4164.05
882.4158	1403.0745	5031.7	4151.05
882.5595	1404.9204	5040.2	4161.6
882.7033	1406.7656	5045.85	4165.9
882.847	1408.6101	5053.45	4170.55
882.9908	1410.4538	5083.75	4202.45
883.1345	1412.2968	5127.8	4246.85
883.2782	1414.139	5172.65	4289.85
883.4219	1415.9805	5274.05	4395
883.5656	1417.8213	5377.75	4491.45
883.7092	1419.6613	5512.95	4632.2
883.8529	1421.5006	5707.65	4826.15
883.9965	1423.3391	5998.1	5114.1
884.1402	1425.1769	6373.8	5492.15
884.2838	1427.0139	6884.35	6003.85
884.4274	1428.8502	7523.3	6639.2
884.571	1430.6858	8152.85	7271.85
884.7146	1432.5206	8622.1	7742.35
884.8582	1434.3547	8861.45	7979.1
885.0018	1436.188	8906.8	8026.55
885.1453	1438.0206	8826.4	7943.45
885.2889	1439.8524	8686.65	7803.6
885.4324	1441.6835	8576.8	7693.7
885.5759	1443.5139	8501.65	7617.95
885.7194	1445.3435	8409.95	7527.4
885.8629	1447.1724	8360.4	7479.7
886.0064	1449.0005	8271.75	7393.25
886.1499	1450.8279	8214.75	7332.6
886.2933	1452.6545	8170.8	7289.55
886.4368	1454.4804	8200.15	7319.15
886.5802	1456.3056	8197.1	7308.3
886.7237	1458.13	8082.4	7203.95
886.8671	1459.9536	7845.85	6963.9
887.0105	1461.7766	7474.65	6594.45
887.1539	1463.5987	7036.4	6153.3
887.2972	1465.4202	6649.6	5767.1
887.4406	1467.2409	6281.1	5401.8
887.584	1469.0608	5981.8	5100.2
887.7273	1470.88	5739	4857.35
887.8706	1472.6984	5517.75	4638.25
888.0139	1474.5161	5302.85	4418.3
888.1572	1476.3331	5152.45	4270.3
888.3005	1478.1493	5044.95	4161.95
888.4438	1479.9648	4934.9	4054.8
888.5871	1481.7795	4852.75	3970.1
888.7303	1483.5935	4781.15	3902.1
888.8736	1485.4067	4709.45	3827.05
889.0168	1487.2192	4658.6	3778.4
889.16	1489.031	4607.1	3722.2
889.3032	1490.842	4584.4	3703.7
889.4464	1492.6522	4553.25	3672.6
889.5896	1494.4618	4522.75	3637.85
889.7327	1496.2705	4498.3	3618.6
889.8759	1498.0785	4487.5	3606.1
890.019	1499.8858	4454.05	3572
890.1622	1501.6924	4437	3557.1
890.3053	1503.4981	4427.35	3543.9
890.4484	1505.3032	4403.1	3521.65
890.5914	1507.1075	4383.7	3502.95
890.7345	1508.911	4361.25	3477.75
890.8776	1510.7138	4344.1	3460.35
891.0206	1512.5159	4306.95	3425.4
891.1637	1514.3172	4271.1	3389.8
891.3067	1516.1178	4237.95	3358
891.4497	1517.9176	4232.6	3348.35
891.5927	1519.7166	4188.85	3308.05
891.7357	1521.515	4194.7	3307
891.8786	1523.3126	4154.5	3272.25
892.0216	1525.1094	4125.75	3242.35
892.1645	1526.9055	4112.7	3231.7
892.3074	1528.7008	4082.8	3203.15
892.4503	1530.4954	4079.55	3191.2
892.5932	1532.2893	4070.1	3190.8
892.7361	1534.0824	4066.7	3179.7
892.879	1535.8747	4063.75	3182.65
893.0218	1537.6663	4056.85	3175.15
893.1647	1539.4572	4033.95	3151.75
893.3075	1541.2473	4044.85	3163.75
893.4503	1543.0367	4051.45	3169.3
893.5931	1544.8253	4021.75	3137.7
893.7359	1546.6132	4028.1	3145.55
893.8787	1548.4003	4043	3151.8
894.0214	1550.1867	4040.65	3151.2
894.1642	1551.9723	4049.45	3164.45
894.3069	1553.7572	4087.05	3205.65
894.4496	1555.5414	4100.55	3217.9
894.5923	1557.3247	4122.2	3241.6
894.735	1559.1074	4175.1	3295.1
894.8777	1560.8893	4233	3354.3
895.0204	1562.6705	4285.15	3404.15
895.163	1564.4509	4371.75	3490.4
895.3056	1566.2305	4443.85	3564.1
895.4482	1568.0094	4538.75	3657.7
895.5908	1569.7876	4619.75	3737.7
895.7334	1571.565	4683.65	3802.6
895.876	1573.3417	4747	3865.35
896.0186	1575.1176	4765	3885.75
896.1611	1576.8928	4722.85	3841.35
896.3036	1578.6672	4646.95	3766.1
896.4461	1580.4409	4526.3	3648.35
896.5886	1582.2138	4412.45	3529.1
896.7311	1583.986	4284.1	3402
896.8736	1585.7575	4200.55	3319.2
897.0161	1587.5282	4123.6	3244
897.1585	1589.2981	4062.15	3182.35
897.3009	1591.0673	4015.35	3133.6
897.4433	1592.8358	4004.85	3124.5
897.5857	1594.6035	3983.7	3100.65
897.7281	1596.3704	3990.4	3109.4
897.8705	1598.1366	4002.75	3121.6
898.0128	1599.9021	4018.5	3138.9
898.1551	1601.6668	4044.1	3158.95
898.2975	1603.4308	4090.7	3208.5
898.4398	1605.194	4160.8	3275.35
898.5821	1606.9564	4243.4	3363.75
898.7243	1608.7182	4332.35	3444.15
898.8666	1610.4791	4458.15	3578.85
899.0088	1612.2394	4638.85	3758.8
899.1511	1613.9988	4821.15	3940.65
899.2933	1615.7576	5053.85	4174.9
899.4355	1617.5156	5289.65	4403.75
899.5776	1619.2728	5518.05	4638
899.7198	1621.0293	5714.25	4833.65
899.862	1622.785	5797.65	4915.05
900.0041	1624.54	5743.1	4860
900.1462	1626.2942	5608.4	4724.8
900.2883	1628.0477	5365.05	4481.9
900.4304	1629.8005	5119.05	4233.4
900.5725	1631.5525	4885.1	4006.15
900.7145	1633.3037	4660.65	3779.95
900.8566	1635.0542	4509.55	3628.05
900.9986	1636.804	4378.05	3498.45
901.1406	1638.553	4343.9	3389.45
901.2826	1640.3013	4243.85	3364.15
901.4245	1642.0488	4189.15	3306.7
901.5665	1643.7955	4186.3	3305.2
901.7085	1645.5416	4205.75	3324.75
901.8504	1647.2868	4262.45	3383.6
901.9923	1649.0313	4325.9	3444.7
902.1342	1650.7751	4498.5	3615.9
902.2761	1652.5181	4680.8	3799.7
902.4179	1654.2604	4913.4	4032
902.5598	1656.0019	5253.9	4376.15
902.7016	1657.7427	5612.65	4732.2
902.8434	1659.4828	5968.85	5089
902.9852	1661.222	6196.55	5316.6
903.127	1662.9606	6230.55	5351.35
903.2687	1664.6984	6072.45	5193.9
903.4105	1666.4354	5730.05	4847.7
903.5522	1668.1717	5287.55	4409.05
903.6939	1669.9072	4833.9	3953.85
903.8356	1671.642	4476.25	3592.9
903.9773	1673.3761	4179.3	3300.45
904.119	1675.1094	3968.3	3087.9
904.2606	1676.8419	3796	2915
904.4022	1678.5737	3681.95	2800.35
904.5439	1680.3048	3596.9	2717.6
904.6855	1682.0351	3518.2	2642.1
904.827	1683.7646	3457.7	2573.8
904.9686	1685.4934	3408.1	2529.05
905.1101	1687.2215	3390.35	2509.25
905.2517	1688.9488	3336	2456.9
905.3932	1690.6754	3314.75	2437.25
905.5347	1692.4012	3311.9	2432.45
905.6761	1694.1263	3281.3	2402.6
905.8176	1695.8506	3244.1	2365.25
905.9591	1697.5742	3247.4	2368
906.1005	1699.297	3223.4	2344.8
906.2419	1701.0191	3203.75	2325.15
906.3833	1702.7404	3193.45	2314.45
906.5246	1704.461	3150.05	2269.2
906.666	1706.1808	3165.15	2282.8
906.8073	1707.8999	3145.65	2265.55
906.9487	1709.6182	3131.2	2250.45
907.09	1711.3358	3112.05	2232.6
907.2313	1713.0527	3099.8	2220.8
907.3725	1714.7688	3101.9	2215.7
907.5138	1716.4841	3066.3	2187.5
907.655	1718.1987	3068.15	2183.05
907.7962	1719.9126	3063.25	2185.1
907.9374	1721.6257	3049.95	2167.35
908.0786	1723.338	3034.75	2152.55
908.2198	1725.0496	3001.7	2120.25
908.3609	1726.7605	3006.75	2127.05
908.502	1728.4706	2995.45	2114.7
908.6431	1730.18	2986.7	2105.35
908.7842	1731.8886	2980.35	2100.3
908.9253	1733.5964	2978.3	2093.7
909.0664	1735.3036	2972.75	2089.95
909.2074	1737.0099	2947	2068.2
909.3484	1738.7156	2939.55	2060.2
909.4894	1740.4204	2923.15	2038.55
909.6304	1742.1246	2922.35	2041.25
909.7714	1743.8279	2935.2	2055.45
909.9123	1745.5306	2921.3	2040.7
910.0532	1747.2325	2906.05	2027.85
910.1941	1748.9336	2898.95	2020.75
910.335	1750.634	2881.45	2000.6
910.4759	1752.3336	2888.65	2008.85
910.6168	1754.0325	2882.85	2003.05
910.7576	1755.7307	2869.4	1989.75
910.8984	1757.4281	2867.65	1988.25
911.0392	1759.1247	2871.45	1983.85
911.18	1760.8206	2862.6	1979.15
911.3208	1762.5158	2857.55	1973.05
911.4615	1764.2102	2840.35	1962.05
911.6022	1765.9039	2834.35	1954.05
911.7429	1767.5968	2830.35	1952.3
911.8836	1769.289	2829.7	1951.4
912.0243	1770.9804	2835.6	1955.75
912.1649	1772.6711	2817.35	1937.05
912.3056	1774.361	2805.75	1923.8
912.4462	1776.0502	2788.55	1911.65
912.5868	1777.7386	2800.3	1918.9
912.7274	1779.4263	2793.4	1913.85
912.8679	1781.1132	2796.15	1916
913.0084	1782.7994	2780.7	1900.1
913.149	1784.4849	2772.6	1894.35
913.2895	1786.1696	2783	1885.95
913.4299	1787.8535	2761.6	1882.6
913.5704	1789.5367	2752.2	1872.9
913.7108	1791.2192	2757.6	1879
913.8513	1792.9009	2767.85	1863.1
913.9917	1794.5818	2754.2	1875.4
914.132	1796.2621	2734.6	1855.6
914.2724	1797.9415	2731.4	1852.45
914.4128	1799.6202	2726.85	1848.25
914.5531	1801.2982	2727.05	1850.05
914.6934	1802.9755	2722.6	1841.95
914.8337	1804.6519	2703.4	1824.15
914.9739	1806.3277	2702.2	1823.75
915.1142	1808.0027	2700.7	1822.5
915.2544	1809.6769	2701.65	1822.15
915.3946	1811.3504	2687.5	1805.9
915.5348	1813.0231	2692.05	1812.3
915.675	1814.6951	2691.8	1814.25
915.8151	1816.3664	2692.65	1811.25
915.9553	1818.0369	2688.7	1810.8
916.0954	1819.7067	2666.45	1786.95
916.2355	1821.3757	2668.75	1786.65
916.3755	1823.044	2667.85	1786.5
916.5156	1824.7115	2655.4	1774.95
916.6556	1826.3783	2650.3	1772.45
916.7956	1828.0443	2639.95	1760.3
916.9356	1829.7096	2641.15	1759.7
917.0756	1831.3741	2644.9	1761.7
917.2155	1833.0379	2627.6	1746.3
917.3555	1834.701	2623.95	1742.65
917.4954	1836.3633	2630.5	1750.15
917.6353	1838.0248	2627.6	1745.8
917.7751	1839.6856	2610.6	1731.6
917.915	1841.3457	2616.5	1737.3
918.0548	1843.005	2613.35	1734.2
918.1946	1844.6636	2606.75	1728.8
918.3344	1846.3214	2602.55	1723.55
918.4742	1847.9785	2605.1	1728
918.6139	1849.6349	2607.85	1728.05
918.7537	1851.2904	2601.9	1714.7
918.8934	1852.9453	2573.85	1694.3
919.0331	1854.5994	2599.1	1717.6
919.1727	1856.2528	2588.35	1701.7
919.3124	1857.9054	2589.15	1711.7
919.452	1859.5572	2578.6	1698.4
919.5916	1861.2083	2583.15	1702.65
919.7312	1862.8587	2572.5	1694.2
919.8708	1864.5084	2563.95	1683
920.0103	1866.1572	2561.4	1683.6
920.1498	1867.8054	2560.4	1682.15
920.2893	1869.4528	2543.7	1664.15
920.4288	1871.0994	2535.35	1654.1
920.5683	1872.7453	2534.35	1654.65
920.7077	1874.3905	2537.15	1650.3
920.8471	1876.0349	2530.9	1651.05
920.9865	1877.6786	2523.1	1642.05
921.1259	1879.3215	2523.6	1643.15
921.2653	1880.9637	2517.55	1636.35
921.4046	1882.6051	2502.45	1623.2
921.5439	1884.2458	2505.1	1622.1
921.6832	1885.8858	2493.65	1613.8
921.8225	1887.525	2495.3	1614.5
921.9617	1889.1634	2480.9	1602.2
922.101	1890.8011	2477.3	1596.6
922.2402	1892.4381	2485.95	1609.15
922.3794	1894.0743	2478.1	1599.4
922.5185	1895.7098	2467	1587.4
922.6577	1897.3446	2467.75	1589.35
922.7968	1898.9786	2469.35	1582.9
922.9359	1900.6118	2458.05	1579.35
923.075	1902.2443	2455.85	1577.25
923.214	1903.8761	2453.75	1575.95
923.3531	1905.5071	2442.25	1562.7
923.4921	1907.1374	2431.45	1553.75
923.6311	1908.7669	2436.6	1556.65
923.77	1910.3957	2437	1558.05
923.909	1912.0237	2428.05	1547.35
924.0479	1913.651	2429.2	1548.85
924.1868	1915.2776	2419.35	1542.65
924.3257	1916.9034	2411.15	1533
924.4646	1918.5285	2398.3	1520.4
924.6034	1920.1528	2393.35	1512.65
924.7422	1921.7764	2403.4	1523.65
924.881	1923.3992	2395.85	1518.1
925.0198	1925.0213	2374.15	1496.55
925.1586	1926.6427	2378.85	1500.75
925.2973	1928.2633	2467.85	1482.15
925.436	1929.8832	2384.5	1503.45
925.5747	1931.5023	2361.65	1480.85
925.7134	1933.1207	2365.35	1485.8
925.852	1934.7383	2366.15	1486.25
925.9906	1936.3552	2350.95	1470.75
926.1292	1937.9714	2345	1464.6
926.2678	1939.5868	2338.9	1459.65
926.4064	1941.2015	2334.15	1454.75
926.5449	1942.8154	2330.85	1451.9
926.6834	1944.4286	2322.6	1442.45
926.8219	1946.041	2336.55	1434.6
926.9604	1947.6528	2320.2	1435.6
927.0988	1949.2637	2303.95	1426.6
927.2372	1950.8739	2295.55	1414.7
927.3756	1952.4834	2297.35	1418
927.514	1954.0921	2285.95	1404.95
927.6523	1955.7001	2298.2	1415.2
927.7907	1957.3074	2286.45	1409.2
927.929	1958.9139	2269.45	1390.85
928.0673	1960.5197	2272.85	1392
928.2055	1962.1247	2265.25	1388.5
928.3438	1963.729	2250.45	1371.95
928.482	1965.3325	2267.75	1366.65
928.6202	1966.9353	2250.1	1371.55
928.7584	1968.5374	2246.4	1364.2
928.8965	1970.1387	2243.55	1362.4
929.0346	1971.7393	2233.85	1354.8
929.1727	1973.3392	2226.65	1347.05
929.3108	1974.9383	2219.65	1340.6
929.4489	1976.5366	2224.7	1344.5
929.5869	1978.1342	2211.25	1331.05
929.7249	1979.7311	2213.45	1334.2
929.8629	1981.3273	2226	1347.9
930.0009	1982.9227	2203.9	1324.55
930.1388	1984.5173	2203.55	1322.45
930.2767	1986.1112	2201.6	1323.65
930.4146	1987.7044	2191.8	1313.8
930.5525	1989.2968	2199.05	1319.3
930.6904	1990.8885	2191.8	1308.75
930.8282	1992.4795	2184.9	1303.1
930.966	1994.0697	2183.7	1305.1
931.1038	1995.6592	2176	1295.95
931.2415	1997.2479	2171.8	1293.65
931.3793	1998.8359	2172.75	1291.9
931.517	2000.4232	2160	1282.25
931.6547	2002.0097	2149.15	1270.6
931.7923	2003.5955	2157.4	1277.35
931.93	2005.1805	2153.95	1271.15
932.0676	2006.7648	2151.75	1272.05
932.2052	2008.3484	2150.45	1270.1
932.3427	2009.9312	2150.2	1269.5
932.4803	2011.5133	2135.05	1254.65
932.6178	2013.0946	2140.8	1261
932.7553	2014.6752	2127.6	1249.7
932.8928	2016.2551	2129.65	1249.25
933.0302	2017.8342	2131.3	1252.4
933.1676	2019.4126	2129.2	1251.6
933.305	2020.9902	2113.75	1233.9
933.4424	2022.5672	2111.85	1230.8
933.5798	2024.1433	2115.95	1230.1
933.7171	2025.7188	2110.75	1232.95
933.8544	2027.2935	2096.4	1216.8
933.9917	2028.8674	2091.45	1212.6
934.129	2030.4406	2100.9	1222.45
934.2662	2032.0131	2091.35	1211.55
934.4034	2033.5849	2095.35	1210
934.5406	2035.1559	2092.25	1212.65
934.6778	2036.7261	2083.05	1204.35
934.8149	2038.2957	2076.65	1197.8
934.952	2039.8645	2076.1	1197.9
935.0891	2041.4325	2074.05	1192.1
935.2262	2042.9998	2073.6	1191.9
935.3632	2044.5664	2072.7	1187.95
935.5002	2046.1323	2052.85	1168.45
935.6372	2047.6974	2055.6	1167.15
935.7742	2049.2617	2056.25	1165.85
935.9111	2050.8254	2082.05	1163.45
936.048	2052.3883	2060.3	1154.3
936.1849	2053.9504	2052.9	1145.65
936.3218	2055.5118	2054.75	1141.65
936.4586	2057.0725	2061.9	1141
936.5955	2058.6325	2058.6	1137.15
936.7323	2060.1917	2057.4	1136.85
936.869	2061.7502	2061.6	1133.9
937.0058	2063.3079	2058.1	1139.15
937.1425	2064.8649	2063.05	1147.5
937.2792	2066.4212	2056.6	1151.85
937.4159	2067.9767	2048.05	1150.95
937.5525	2069.5315	2036.1	1145.4
937.6891	2071.0856	2031	1142.8
937.8257	2072.6389	2028.15	1143
937.9623	2074.1915	2012.3	1132.2
938.0989	2075.7433	2005.5	1122
938.2354	2077.2945	1992.55	1113.7
938.3719	2078.8448	1991.7	1113.35
938.5084	2080.3945	1981.9	1102.6
938.6448	2081.9434	1976.95	1097.85
938.7812	2083.4916	1971.15	1092.9
938.9176	2085.039	1965.5	1084.8
939.054	2086.5857	1965.5	1084.75
939.1903	2088.1317	1981.75	1102.35
939.3267	2089.677	1968.6	1089.45
939.463	2091.2215	1951.9	1072.95
939.5992	2092.7652	1957.2	1074
939.7355	2094.3083	1954.55	1077
939.8717	2095.8506	1955	1075.7
940.0079	2097.3921	1950.65	1072.9
940.1441	2098.933	1956.6	1077.6
940.2802	2100.4731	1949.35	1069.75
940.4163	2102.0124	1954.7	1069.65
940.5524	2103.5511	1944.1	1066.15
940.6885	2105.089	1936.85	1058.3
940.8245	2106.6261	1930.25	1049.25
940.9606	2108.1626	1935.65	1053.75
941.0965	2109.6983	1956.25	1048.25
941.2325	2111.2332	1928.65	1048.3
941.3684	2112.7675	1931.2	1050.3
941.5044	2114.301	1921.75	1042.1
941.6403	2115.8337	1931	1052
941.7761	2117.3657	1917.2	1040.7
941.912	2118.897	1919.25	1038
942.0478	2120.4276	1927.05	1041.9
942.1835	2121.9575	1916.15	1036.6
942.3193	2123.4866	1917.6	1023.3
942.455	2125.0149	1904.9	1023.5
942.5907	2126.5426	1895.2	1016.75
942.7264	2128.0695	1904.1	1019.7
942.8621	2129.5956	1892.05	1012.9
942.9977	2131.1211	1898.9	1013.35
943.1333	2132.6458	1902.1	1024.25
943.2689	2134.1698	1886.55	1006.8
943.4044	2135.693	1889.1	1008.4
943.54	2137.2155	1885.65	1004.3
943.6755	2138.7373	1885.65	1003.85
943.8109	2140.2584	1878.95	998.3
943.9464	2141.7787	1877.1	988.45
944.0818	2143.2983	1863.2	984.55
944.2172	2144.8171	1863.4	985.45
944.3526	2146.3353	1866.25	984.1
944.4879	2147.8527	1865.75	987.25
944.6232	2149.3693	1861.6	982.25
944.7585	2150.8853	1863.8	984.55
944.8938	2152.4005	1853.65	974
945.029	2153.9149	1853.7	973.4
945.1642	2155.4287	1860.05	981.25
945.2994	2156.9417	1842.45	961.45
945.4346	2158.454	1849.3	967.55
945.5697	2159.9655	1849.35	970.1
945.7048	2161.4764	1838.85	958.3
945.8399	2162.9865	1840.2	957.4
945.9749	2164.4958	1846.75	967.5
946.1099	2166.0045	1838.9	956.75
946.2449	2167.5124	1828.65	950.15
946.3799	2169.0195	1831.4	953.75
946.5148	2170.526	1822.8	943.15
946.6498	2172.0317	1827.95	949.35
946.7846	2173.5367	1830.65	949.4
946.9195	2175.0409	1816.1	937.15
947.0543	2176.5445	1828.9	949.85
947.1891	2178.0473	1817.6	937.45
947.3239	2179.5494	1816.85	933
947.4587	2181.0507	1814.9	934.95
947.5934	2182.5513	1818.95	938.15
947.7281	2184.0512	1812.95	933.45
947.8628	2185.5504	1803.7	925.05
947.9974	2187.0488	1798.15	918.65
948.132	2188.5465	1788.35	908
948.2666	2190.0435	1793.1	913.75
948.4012	2191.5397	1795.4	917.45
948.5357	2193.0353	1788.2	906.2
948.6702	2194.5301	1782.5	902.4
948.8047	2196.0241	1785.7	906.3
948.9392	2197.5175	1783.15	903.95
949.0736	2199.0101	1777.2	896.25
949.208	2200.502	1771.8	893.8
949.3424	2201.9931	1776.05	897.25
949.4767	2203.4835	1767.2	887.5
949.611	2204.9733	1773.9	887.35
949.7453	2206.4622	1764.35	883.9
949.8796	2207.9505	1760.65	877.25
950.0138	2209.438	1752.9	873.55
950.148	2210.9248	1748.7	865.9
950.2822	2212.4109	1753.05	873.3
950.4164	2213.8962	1754.45	871.55
950.5505	2215.3809	1752.5	872.95
950.6846	2216.8648	1744.75	864.25
950.8186	2218.3479	1755.75	872.35
950.9527	2219.8304	1733.6	852.7
951.0867	2221.3121	1738.6	855.85
951.2207	2222.7931	1730.1	853
951.3546	2224.2733	1732.8	854.75
951.4886	2225.7529	1727.3	845.55
951.6225	2227.2317	1729.45	847
951.7563	2228.7098	1728.2	849.3
951.8902	2230.1872	1711.55	831.5
952.024	2231.6638	1719.65	838.35
952.1578	2233.1397	1715.65	829.9
952.2916	2234.6149	1717.3	840.05
952.4253	2236.0894	1721.75	841.4
952.559	2237.5632	1706.1	823.55
952.6927	2239.0362	1698.5	820.25
952.8263	2240.5085	1698.05	819.35
952.9599	2241.9801	1703.5	823.4
953.0935	2243.4509	1701.5	820.6
953.2271	2244.921	1689.05	810.25
953.3606	2246.3904	1688.6	805.8
953.4941	2247.8591	1679.35	800.65
953.6276	2249.3271	1679.9	802.7
953.7611	2250.7943	1681.35	802.95
953.8945	2252.2608	1673.35	793.75
954.0279	2253.7266	1673.55	792.3
954.1612	2255.1917	1672	792.05
954.2946	2256.656	1671.25	792.05
954.4279	2258.1197	1669.15	789.9
954.5612	2259.5826	1667.9	786.35
954.6944	2261.0447	1669.35	789.9
954.8276	2262.5062	1661.45	779.1
954.9608	2263.9669	1657.5	776.15
955.094	2265.4269	1657	777.15
955.2271	2266.8862	1657.15	777.6
955.3602	2268.3448	1648.6	770.3
955.4933	2269.8026	1659	779.1
955.6264	2271.2598	1647.85	767.9
955.7594	2272.7162	1638.6	760.25
955.8924	2274.1719	1646.9	766.25
956.0253	2275.6268	1654.4	775.45
956.1583	2277.0811	1637	757.15
956.2912	2278.5346	1638.8	759.25
956.4241	2279.9874	1635.85	756.75
956.5569	2281.4395	1640.05	760.7
956.6897	2282.8908	1638.75	755.35
956.8225	2284.3414	1642.75	762.25
956.9553	2285.7914	1636.3	758.35
957.088	2287.2406	1623.6	743.05
957.2207	2288.689	1625.95	746.05
957.3534	2290.1368	1630	748.95
957.486	2291.5838	1622.45	741.65
957.6186	2293.0302	1626.5	746.15
957.7512	2294.4758	1624.5	743.95
957.8838	2295.9206	1623.1	740.65
958.0163	2297.3648	1613.95	735.2
958.1488	2298.8082	1618.3	738.75
958.2813	2300.251	1608.55	729.8
958.4137	2301.693	1612.35	730.1
958.5461	2303.1343	1617.9	737.75
958.6785	2304.5748	1604.8	724.25
958.8108	2306.0147	1601.6	721.75
958.9432	2307.4538	1611.05	728.25
959.0754	2308.8922	1595.6	718.05
959.2077	2310.3299	1597.05	718.25
959.3399	2311.7669	1598.85	720.2
959.4721	2313.2031	1589.95	710.2
959.6043	2314.6387	1591.95	713.15
959.7365	2316.0735	1585.55	708.3
959.8686	2317.5076	1584	705.05
960.0006	2318.941	1572.95	694.65
960.1327	2320.3737	1575.85	696.4
960.2647	2321.8056	1587.35	705.35
960.3967	2323.2369	1578.6	697.65
960.5287	2324.6674	1577.35	695.5
960.6606	2326.0972	1578.5	695.25
960.7925	2327.5263	1576.55	699.9
960.9244	2328.9547	1574.3	693.4
961.0562	2330.3823	1577.75	699.95
961.1881	2331.8092	1572.55	690.3
961.3198	2333.2355	1572.2	693.4
961.4516	2334.661	1564.95	685.2
961.5833	2336.0858	1563	680.4
961.715	2337.5098	1558.2	678.8
961.8467	2338.9332	1570.5	691
961.9783	2340.3558	1556.3	674.05
962.1099	2341.7778	1565	683.95
962.2415	2343.199	1555.8	674.9
962.373	2344.6195	1558.45	679.4
962.5045	2346.0393	1554.35	675.45
962.636	2347.4583	1557.9	677.3
962.7675	2348.8767	1550.9	669.85
962.8989	2350.2943	1552.25	671.2
963.0303	2351.7113	1554.9	675.2
963.1617	2353.1275	1550.75	673
963.293	2354.543	1570.45	665.3
963.4243	2355.9578	1547.1	666.8
963.5556	2357.3718	1543.55	662.9
963.6868	2358.7852	1552.55	671.15
963.818	2360.1978	1542.15	661.75
963.9492	2361.6098	1536.05	656.6
964.0803	2363.021	1539.4	656.85
964.2114	2364.4315	1536.45	656.3
964.3425	2365.8413	1537.35	656.75
964.4736	2367.2504	1533.95	654.2
964.6046	2368.6587	1528.8	650.4
964.7356	2370.0664	1518.35	637.3
964.8666	2371.4733	1523.65	645.05
964.9975	2372.8795	1519.35	640.3
965.1284	2374.285	1525	646.35
965.2593	2375.6899	1522.5	643.7
965.3901	2377.0939	1515.05	636.95
965.5209	2378.4973	1515.5	636.45
965.6517	2379.9	1510.65	631.9
965.7825	2381.3019	1503.35	624.85
965.9132	2382.7032	1507.55	628.5
966.0439	2384.1037	1502.55	624.9
966.1745	2385.5035	1495.45	617.9
966.3051	2386.9027	1499.95	621.1
966.4357	2388.3011	1492.55	612.6
966.5663	2389.6987	1499.55	619.35
966.6968	2391.0957	1486.5	607.55
966.8273	2392.492	1490.8	613.05
966.9578	2393.8876	1486.7	606.35
967.0882	2395.2824	1475.35	596.6
967.2186	2396.6765	1482.95	605.05
967.349	2398.07	1483.25	605.35
967.4793	2399.4627	1488	609.65
967.6097	2400.8547	1479.35	601.25
967.7399	2402.246	1480.6	595.2
967.8702	2403.6366	1471	592
968.0004	2405.0265	1468.8	588.95
968.1306	2406.4156	1469.4	585.1
968.2607	2407.8041	1470.15	588.65
968.3909	2409.1918	1469.45	589.55
968.521	2410.5789	1468.5	588.65
968.651	2411.9652	1464.75	581.55
968.781	2413.3508	1465.7	586.65
968.911	2414.7358	1471.05	592.05
969.041	2416.12	1466.25	588.45
969.1709	2417.5035	1460.2	581
969.3008	2418.8863	1454.7	575
969.4307	2420.2684	1462.35	583.9
969.5606	2421.6497	1461.8	582.25
969.6904	2423.0304	1455.55	575.35
969.8201	2424.4104	1450.45	570.7
969.9499	2425.7896	1454.2	572.85
970.0796	2427.1682	1451.45	572.2
970.2093	2428.546	1447.1	567.3
970.3389	2429.9232	1451.75	571.85
970.4685	2431.2996	1440.85	561.75
970.5981	2432.6753	1440.9	562.35
970.7277	2434.0503	1438.4	562.45
970.8572	2435.4246	1439.35	561.25
970.9867	2436.7982	1440.5	558.95
971.1161	2438.1711	1436.85	556.8
971.2456	2439.5433	1433.7	553.9
971.375	2440.9148	1440.55	556.4
971.5043	2442.2856	1428.95	550.65
971.6336	2443.6557	1428.9	547.95
971.7629	2445.025	1422.9	545.75
971.8922	2446.3937	1422.45	542.15
972.0214	2447.7617	1424	544.65
972.1506	2449.1289	1426.35	546.8
972.2798	2450.4955	1431.2	547.2
972.4089	2451.8613	1419	542.25
972.538	2453.2265	1423.7	543.3
972.6671	2454.5909	1413.1	534.2
972.7961	2455.9546	1416.4	536.35
972.9251	2457.3177	1421.35	541.85
973.0541	2458.68	1420.45	538.6
973.1831	2460.0416	1420.9	540.7
973.312	2461.4025	1420.55	539.7
973.4408	2462.7627	1424.45	532.45
973.5697	2464.1222	1411.8	534.85
973.6985	2465.4811	1412.8	532.75
973.8273	2466.8392	1417.5	536.5
973.956	2468.1966	1410.95	528.85
974.0847	2469.5533	1424.75	543.9
974.2134	2470.9093	1411.15	530.3
974.3421	2472.2645	1410.05	528.1
974.4707	2473.6191	1409.65	531.1
974.5993	2474.973	1405.5	527.05
974.7278	2476.3262	1413.3	532.4
974.8563	2477.6787	1407.25	529
974.9848	2479.0305	1406.3	526.85
975.1132	2480.3816	1402.45	522.6
975.2417	2481.7319	1404.8	525.65
975.37	2483.0816	1400.15	519.95
975.4984	2484.4306	1400.8	521.8
975.6267	2485.7789	1399.25	521.1
975.755	2487.1264	1396.7	516.15
975.8833	2488.4733	1391.95	512.9
976.0115	2489.8195	1411.1	516.15
976.1397	2491.165	1389	508.2
976.2678	2492.5097	1382.25	500.65
976.3959	2493.8538	1385.1	505.85
976.524	2495.1972	1380.7	500.2
976.6521	2496.5398	1379.35	498.5
976.7801	2497.8818	1388.05	506.85
976.9081	2499.2231	1376.95	497.1
977.036	2500.5637	1382.9	501.55
977.164	2501.9035	1375.05	493.85
977.2918	2503.2427	1371.25	488.35
977.4197	2504.5812	1377.3	498.25
977.5475	2505.919	1375.45	494.3
977.6753	2507.256	1374.15	497.3
977.8031	2508.5924	1373.2	494
977.9308	2509.9281	1375.35	493.15
978.0585	2511.2631	1365.15	485.15
978.1861	2512.5974	1373.1	494.35
978.3137	2513.9309	1366.3	488.05
978.4413	2515.2638	1392.3	480
978.5689	2516.596	1370.4	493.45
978.6964	2517.9275	1367.35	487.1
978.8239	2519.2583	1364.9	484.15
978.9513	2520.5884	1361.6	481.4
979.0788	2521.9178	1360.65	481.05
979.2062	2523.2465	1353.65	476.9
979.3335	2524.5745	1356.85	477.2
979.4608	2525.9018	1353.15	473.55
979.5881	2527.2284	1356.9	478.8
979.7154	2528.5543	1359.3	478.75
979.8426	2529.8796	1359.8	481.6
979.9698	2531.2041	1356.85	475.85
980.0969	2532.5279	1349.6	471.9
980.224	2533.851	1347.8	468.7
980.3511	2535.1735	1355.85	477.05
980.4781	2536.4952	1350.55	471.1
980.6052	2537.8163	1345.4	465.55
980.7321	2539.1366	1344.35	464.25
980.8591	2540.4562	1350.2	468.9
980.986	2541.7752	1346.15	466.6
981.1129	2543.0935	1347.7	468.55
981.2397	2544.411	1344.35	464.05
981.3665	2545.7279	1343.8	464.5
981.4933	2547.0441	1339.7	460
981.62	2548.3596	1346	462.1
981.7467	2549.6744	1343.4	465.45
981.8734	2550.9885	1339.9	459.05
982.0001	2552.3019	1334.75	457.1
982.1267	2553.6146	1336	458.9
982.2532	2554.9266	1328.8	450.25
982.3798	2556.2379	1333.55	453.25
982.5063	2557.5485	1329.75	450.85
982.6327	2558.8585	1335.75	448.2
982.7592	2560.1677	1333.95	452.2
982.8856	2561.4762	1329.3	450.2
983.0119	2562.7841	1334	450.05
983.1383	2564.0913	1330.05	451.05
983.2646	2565.3977	1329.65	449.2
983.3908	2566.7035	1323.3	443.95
983.517	2568.0086	1322.45	441.35
983.6432	2569.313	1324.8	445.95
983.7694	2570.6167	1322.55	440.15
983.8955	2571.9197	1314.9	436.05
984.0216	2573.222	1319.55	438.4
984.1476	2574.5236	1322.85	444.85
984.2737	2575.8246	1328.75	446
984.3996	2577.1248	1324.2	443.65
984.5256	2578.4244	1322.85	443.9
984.6515	2579.7232	1324.55	444.95
984.7774	2581.0214	1354.6	442.25
984.9032	2582.3189	1331.5	453.4
985.029	2583.6157	1332.85	448.45
985.1548	2584.9118	1322.5	443.85
985.2806	2586.2072	1327.45	447.2
985.4063	2587.5019	1335.65	457.2
985.5319	2588.7959	1332.4	451.3
985.6576	2590.0893	1331.35	450.1
985.7832	2591.3819	1328.75	451.55
985.9087	2592.6739	1332.95	456.3
986.0343	2593.9652	1329.5	449.25
986.1597	2595.2557	1339.5	460.35
986.2852	2596.5456	1340.2	460.35
986.4106	2597.8348	1341.5	462.4
986.536	2599.1234	1340.4	461.5
986.6614	2600.4112	1341.45	463.7
986.7867	2601.6983	1340.9	457.85
986.912	2602.9848	1341.75	463.25
987.0372	2604.2705	1342.35	455.4
987.1624	2605.5556	1343	465.45
987.2876	2606.84	1340.8	461.25
987.4128	2608.1237	1337.85	456.85
987.5379	2609.4067	1334.4	453.85
987.6629	2610.689	1347.55	457.75
987.788	2611.9707	1346.75	462.45
987.913	2613.2516	1337.5	455.05
988.0379	2614.5319	1329.3	448.75
988.1629	2615.8115	1327.4	449.6
988.2878	2617.0903	1327.4	447.15
988.4126	2618.3685	1330.05	448.9
988.5375	2619.6461	1328.4	450.05
988.6622	2620.9229	1333.35	454.55
988.787	2622.199	1330.1	450.4
988.9117	2623.4745	1325.7	445.4
989.0364	2624.7493	1323	444.65
989.161	2626.0234	1321.4	442.1
989.2857	2627.2968	1325.95	446.15
989.4102	2628.5695	1333.05	452.25
989.5348	2629.8415	1331.1	451
989.6593	2631.1128	1331.9	451.6
989.7837	2632.3835	1336.3	457.5
989.9082	2633.6535	1330.7	451.55
990.0326	2634.9228	1333.6	454.35
990.1569	2636.1914	1325.7	447.2
990.2812	2637.4593	1327.4	446.15
990.4055	2638.7265	1329.1	447.3
990.5298	2639.9931	1328.4	450
990.654	2641.259	1328.65	447.65
990.7782	2642.5242	1326.3	448.05
990.9023	2643.7887	1319.6	439.4
991.0264	2645.0525	1321.8	441.4
991.1505	2646.3156	1324.45	444.9
991.2745	2647.5781	1321.2	442.8
991.3985	2648.8398	1321.75	442.05
991.5225	2650.1009	1322.45	437.8
991.6464	2651.3613	1313.5	434.1
991.7703	2652.6211	1317.2	436.75
991.8942	2653.8801	1313.05	435.5
992.018	2655.1385	1314.85	432.5
992.1418	2656.3961	1316.05	436.25
992.2655	2657.6531	1318.5	437.35
992.3892	2658.9094	1322.4	440.85
992.5129	2660.1651	1318.8	440.3
992.6366	2661.42	1315.45	436.95
992.7602	2662.6743	1319.45	437.05
992.8837	2663.9279	1318.45	441.15
993.0073	2665.1808	1321.95	445.25
993.1307	2666.433	1328.15	448.25
993.2542	2667.6846	1325	445.8
993.3776	2668.9354	1328.95	447.55
993.501	2670.1856	1326.85	446.1
993.6244	2671.4351	1330.55	451.05
993.7477	2672.6839	1342.25	460.25
993.8709	2673.9321	1334.25	455.85
993.9942	2675.1795	1344.05	465.35
994.1174	2676.4263	1347.75	470.65
994.2405	2677.6724	1340.25	462.3
994.3637	2678.9179	1346.15	466.15
994.4868	2680.1626	1352.05	473.95
994.6098	2681.4067	1345.85	465.7
994.7328	2682.6501	1353.55	474.4
994.8558	2683.8928	1343.2	464.75
994.9788	2685.1348	1343.25	464.55
995.1017	2686.3761	1335.3	454.9
995.2245	2687.6168	1340.15	461.25
995.3474	2688.8568	1330.95	450.8
995.4702	2690.0961	1335.8	459.7
995.5929	2691.3348	1328.8	449.9
995.7156	2692.5727	1329.2	448.4
995.8383	2693.81	1324.8	446.5
995.961	2695.0466	1323.1	445.35
996.0836	2696.2826	1320.05	437.55
996.2062	2697.5178	1323.45	441.35
996.3287	2698.7524	1325.6	445.6
996.4512	2699.9863	1330.65	449.35
996.5737	2701.2195	1329.5	450.15
996.6961	2702.452	1331.9	449.1
996.8185	2703.6839	1341.75	462.8
996.9408	2704.9151	1343.7	465.75
997.0631	2706.1456	1343.7	464.05
997.1854	2707.3755	1355.45	476.05
997.3077	2708.6046	1361.9	480.6
997.4299	2709.8331	1368.6	487.6
997.552	2711.0609	1373.55	494.75
997.6742	2712.2881	1381.7	501.9
997.7963	2713.5145	1396.45	512.3
997.9183	2714.7403	1404.7	525.9
998.0403	2715.9654	1419	537.15
998.1623	2717.1899	1441.15	548.3
998.2842	2718.4136	1441.9	563.15
998.4062	2719.6367	1446.85	567.1
998.528	2720.8591	1477.45	591.35
998.6498	2722.0809	1475.65	595.1
998.7716	2723.3019	1496.15	614.9
998.8934	2724.5223	1503.75	625.15
999.0151	2725.7421	1506.85	624.35
999.1368	2726.9611	1499.35	617.85
999.2584	2728.1795	1501.5	616.45
999.38	2729.3972	1500.55	621.75
999.5016	2730.6142	1487.55	597.55
999.6231	2731.8306	1476.8	596.15
999.7446	2733.0462	1459.05	577.9
999.8661	2734.2612	1445.35	562.45
999.9875	2735.4756	1424.6	543.25
1000.1089	2736.6892	1412.2	532.4
1000.2302	2737.9022	1388.45	509.45
1000.3515	2739.1145	1381.95	503.75
1000.4728	2740.3262	1376.4	490.45
1000.594	2741.5372	1358.05	480.75
1000.7152	2742.7475	1348.8	469.6
1000.8363	2743.9571	1339.2	458.25
1000.9575	2745.1661	1325.4	441.6
1001.0785	2746.3744	1321.7	442.45
1001.1996	2747.582	1309.6	430.35
1001.3206	2748.7889	1298.85	417.15
1001.4415	2749.9952	1290.35	411.25
1001.5625	2751.2008	1293.35	413.6
1001.6833	2752.4057	1295.6	415
1001.8042	2753.61	1282.4	403.25
1001.925	2754.8136	1283.35	402.8
1002.0458	2756.0165	1280.45	400.1
1002.1665	2757.2188	1282.65	404.35
1002.2872	2758.4204	1282.4	402.55
1002.4078	2759.6213	1283.35	400.15
1002.5285	2760.8215	1293.3	406.7
1002.649	2762.0211	1284.15	401.85
1002.7696	2763.22	1287.25	404
1002.8901	2764.4182	1283.65	404.5
1003.0106	2765.6158	1276.5	397.85
1003.131	2766.8127	1280.95	403.65
1003.2514	2768.009	1267.6	389.2
1003.3717	2769.2045	1275.3	392.95
1003.492	2770.3994	1271.15	388.5
1003.6123	2771.5936	1266.7	385.4
1003.7325	2772.7872	1268.9	390.5
1003.8527	2773.9801	1263	379.85
1003.9729	2775.1723	1274.5	380.05
1004.093	2776.3639	1263.9	386.25
1004.2131	2777.5548	1272.05	388.85
1004.3331	2778.745	1270.45	389.8
1004.4531	2779.9346	1272.5	392.8
1004.5731	2781.1235	1276.35	395.05
1004.693	2782.3117	1272.75	393.05
1004.8129	2783.4992	1276.2	397.9
1004.9328	2784.6861	1288.7	410.7
1005.0526	2785.8723	1299.6	419.7
1005.1723	2787.0579	1305.85	425.95
1005.2921	2788.2428	1306.4	427.95
1005.4118	2789.427	1322.8	444
1005.5314	2790.6106	1326.1	446.7
1005.651	2791.7935	1344.05	463.1
1005.7706	2792.9757	1354.5	477.6
1005.8902	2794.1573	1375.6	494.2
1006.0097	2795.3382	1383.65	504.05
1006.1291	2796.5184	1395.2	516.8
1006.2485	2797.698	1422.95	540.8
1006.3679	2798.8769	1439.8	558.3
1006.4873	2800.0551	1453.8	575
1006.6066	2801.2327	1478.4	595.65
1006.7258	2802.4096	1499.75	623.45
1006.8451	2803.5859	1515.85	636.15
1006.9642	2804.7615	1547.5	669.05
1007.0834	2805.9364	1564.7	686.8
1007.2025	2807.1106	1587.95	709.7
1007.3216	2808.2842	1628.3	748.9
1007.4406	2809.4572	1659.05	780.95
1007.5596	2810.6294	1708.15	830.5
1007.6785	2811.801	1731.45	852.4
1007.7975	2812.972	1788.5	910.55
1007.9163	2814.1423	1834.75	955.15
1008.0352	2815.3119	1881.95	1003.45
1008.154	2816.4808	1932.9	1053.65
1008.2727	2817.6491	1977.45	1098.1
1008.3914	2818.8167	2031.5	1152.9
1008.5101	2819.9837	2091.7	1208.65
1008.6288	2821.15	2130.35	1252.05
1008.7474	2822.3157	2189.2	1309.65
1008.8659	2823.4807	2224.25	1343.45
1008.9844	2824.645	2262.85	1383.6
1009.1029	2825.8086	2302.7	1422.45
1009.2214	2826.9716	2342.4	1464.35
1009.3398	2828.134	2382.95	1502.6
1009.4581	2829.2957	2413.55	1533.4
1009.5764	2830.4567	2443.85	1565.8
1009.6947	2831.617	2472.75	1593.85
1009.813	2832.7767	2477.9	1601.75
1009.9312	2833.9358	2473.8	1597.35
1010.0493	2835.0941	2472.15	1593.15
1010.1675	2836.2519	2449.95	1569.85
1010.2855	2837.4089	2445.85	1565.7
1010.4036	2838.5653	2449.85	1570
1010.5216	2839.7211	2436.3	1557
1010.6396	2840.8761	2453.65	1570.7
1010.7575	2842.0306	2474.8	1598.75
1010.8754	2843.1843	2519.75	1640.45
1010.9932	2844.3374	2562.85	1685.15
1011.111	2845.4899	2625.9	1747
1011.2288	2846.6417	2691.05	1813.6
1011.3465	2847.7928	2772.5	1895
1011.4642	2848.9433	2851.45	1970.85
1011.5818	2850.0931	2947.45	2068.55
1011.6995	2851.2422	3031.5	2149.15
1011.817	2852.3907	3101.25	2221.05
1011.9345	2853.5385	3169.8	2288.45
1012.052	2854.6857	3254.7	2349.05
1012.1695	2855.8323	3285.2	2410.7
1012.2869	2856.9781	3329.35	2449.55
1012.4042	2858.1233	3383.3	2503.75
1012.5216	2859.2679	3422.35	2542.55
1012.6389	2860.4118	3482.55	2605.3
1012.7561	2861.555	3509.6	2627.05
1012.8733	2862.6976	3546.75	2664.9
1012.9905	2863.8395	3588.45	2709.1
1013.1076	2864.9808	3602.6	2723.55
1013.2247	2866.1214	3613.35	2734.45
1013.3417	2867.2614	3640.15	2759.7
1013.4587	2868.4007	3656.35	2774.55
1013.5757	2869.5393	3666.95	2784.55
1013.6926	2870.6773	3665.7	2782.9
1013.8095	2871.8146	3694.75	2813.3
1013.9263	2872.9513	3697.6	2814.65
1014.0431	2874.0874	3708.55	2828.8
1014.1599	2875.2227	3687.7	2806.6
1014.2766	2876.3574	3684.65	2804.15
1014.3933	2877.4915	3647.3	2767
1014.51	2878.6249	3608.8	2730.5
1014.6266	2879.7577	3600.65	2721.75
1014.7431	2880.8898	3587.95	2698.95
1014.8596	2882.0212	3556.6	2680.55
1014.9761	2883.152	3550.1	2670.8
1015.0925	2884.2821	3549.95	2670.95
1015.2089	2885.4116	3529.95	2649.85
1015.3253	2886.5405	3532.15	2650.45
1015.4416	2887.6686	3551.6	2670
1015.5579	2888.7962	3561.25	2683.05
1015.6741	2889.923	3561.85	2684.75
1015.7903	2891.0493	3565.55	2688.5
1015.9065	2892.1748	3582.25	2703
1016.0226	2893.2997	3606.45	2729.1
1016.1387	2894.424	3626.4	2746.45
1016.2547	2895.5476	3630.5	2751.45
1016.3707	2896.6706	3655.25	2776.6
1016.4866	2897.7929	3677.3	2795.85
1016.6025	2898.9145	3732.9	2853.6
1016.7184	2900.0355	3754.8	2875.8
1016.8342	2901.1559	3787.35	2907.85
1016.95	2902.2756	3827.85	2950.15
1017.0658	2903.3946	3866.3	2984.2
1017.1815	2904.513	3883.9	3001.6
1017.2971	2905.6308	3907.35	3026.65
1017.4127	2906.7479	3925.8	3045.75
1017.5283	2907.8643	3946.9	3066.75
1017.6439	2908.9801	3977.7	3097.5
1017.7594	2910.0953	3980.85	3101.65
1017.8748	2911.2098	3985.05	3101.75
1017.9902	2912.3236	3984.9	3098.9
1018.1056	2913.4368	3977.6	3095.5
1018.2209	2914.5494	3949.4	3069.1
1018.3362	2915.6613	3924.45	3036.95
1018.4515	2916.7725	3893.55	3011.9
1018.5667	2917.8831	3876	2996
1018.6819	2918.9931	3847.8	2967.65
1018.797	2920.1024	3816.3	2935.05
1018.9121	2921.211	3790.3	2910.35
1019.0271	2922.319	3775.2	2892.45
1019.1421	2923.4264	3752.7	2874.2
1019.2571	2924.5331	3735.8	2858.5
1019.372	2925.6391	3726.85	2846.1
1019.4869	2926.7445	3715.85	2839.05
1019.6017	2927.8493	3707.75	2827.65
1019.7165	2928.9534	3707.7	2828.25
1019.8313	2930.0569	3705.75	2825.45
1019.946	2931.1597	3686.85	2806.6
1020.0606	2932.2619	3672.45	2794.95
1020.1753	2933.3634	3661.8	2781.2
1020.2899	2934.4643	3660.7	2772.2
1020.4044	2935.5645	3646.1	2760.75
1020.5189	2936.6641	3604.85	2719.8
1020.6334	2937.763	3558.25	2681.1
1020.7478	2938.8613	3498.3	2619.05
1020.8622	2939.959	3458.75	2573
1020.9765	2941.056	3363.35	2486.1
1021.0908	2942.1523	3292.55	2410.75
1021.2051	2943.248	3201.7	2322.35
1021.3193	2944.3431	3092.4	2212.45
1021.4334	2945.4375	2989.7	2110.65
1021.5476	2946.5313	2884.1	2007.15
1021.6617	2947.6244	2777.55	1898.45
1021.7757	2948.7169	2675.75	1796.15
1021.8897	2949.8087	2560.45	1679.8
1022.0037	2950.8999	2482.7	1602.6
1022.1176	2951.9904	2400.95	1522.75
1022.2315	2953.0803	2322.8	1440.9
1022.3453	2954.1696	2264.4	1384.4
1022.4591	2955.2582	2211.55	1334.05
1022.5728	2956.3462	2164.95	1285
1022.6865	2957.4335	2123.45	1241.7
1022.8002	2958.5202	2086.1	1202.25
1022.9138	2959.6062	2058.85	1181.05
1023.0274	2960.6916	2040.4	1162.1
1023.141	2961.7764	2020.6	1141.25
1023.2545	2962.8605	2009.2	1129.65
1023.3679	2963.9439	1988.7	1110.85
1023.4813	2965.0267	1984.65	1101.55
1023.5947	2966.1089	1994.3	1092.8
1023.708	2967.1905	1963.05	1084.3
1023.8213	2968.2714	1957.3	1079.5
1023.9346	2969.3516	1958.35	1078.65
1024.0478	2970.4312	1967.8	1080.15
1024.1609	2971.5102	1970.75	1093.15
1024.274	2972.5885	1966.6	1089.1
1024.3871	2973.6662	1969.4	1087.5
1024.5002	2974.7432	1968.15	1091.15
1024.6132	2975.8196	1951.95	1071.3
1024.7261	2976.8954	1943.9	1065.75
1024.839	2977.9705	1939.1	1057.85
1024.9519	2979.045	1913.45	1036.05
1025.0647	2980.1188	1912.15	1033.55
1025.1775	2981.192	1879.8	1001.35
1025.2902	2982.2645	1862.65	982.75
1025.4029	2983.3364	1826.85	949.7
1025.5156	2984.4077	1804.9	924.55
1025.6282	2985.4783	1780.85	897
1025.7407	2986.5483	1745.9	866.4
1025.8532	2987.6177	1705	827
1025.9657	2988.6864	1680.25	800.05
1026.0782	2989.7545	1642.8	762.9
1026.1906	2990.8219	1620.6	741.85
1026.3029	2991.8887	1577.55	696
1026.4152	2992.9548	1543.9	663.85
1026.5275	2994.0204	1513.75	634.9
1026.6397	2995.0852	1483.2	604.75
1026.7519	2996.1495	1463.35	584.3
1026.864	2997.2131	1441.35	563.6
1026.9761	2998.276	1420.6	542.5
1027.0882	2999.3383	1400.75	522.5
1027.2002	3000.4	1381.75	501.2
1027.3122	3001.4611	1367.45	489
1027.4241	3002.5215	1353.45	472.6
1027.536	3003.5812	1344.55	465.15
1027.6478	3004.6404	1328.75	448.45
1027.7596	3005.6989	1324.75	443.95
1027.8714	3006.7567	1308.45	428.45
1027.9831	3007.8139	1330.15	430.1
1028.0947	3008.8705	1296.65	420.3
1028.2064	3009.9264	1299.85	415.75
1028.3179	3010.9818	1290	411
1028.4295	3012.0364	1288.9	409.55
1028.541	3013.0905	1295.3	416.75
1028.6524	3014.1439	1290.05	410.9
1028.7638	3015.1966	1291.75	411.7
1028.8752	3016.2487	1280.15	401.65
1028.9865	3017.3002	1286.3	404.85
1029.0978	3018.3511	1284.35	406.25
1029.209	3019.4013	1282.8	402.85
1029.3202	3020.4509	1286.65	409.55
1029.4314	3021.4998	1278.1	397.55
1029.5425	3022.5481	1290.95	413.2
1029.6535	3023.5958	1288	406.9
1029.7645	3024.6428	1289.7	410.65
1029.8755	3025.6892	1290.8	412.3
1029.9864	3026.735	1291.95	413.65
1030.0973	3027.7802	1294.9	416.1
1030.2082	3028.8247	1298.9	418.35
1030.319	3029.8685	1308.25	428.6
1030.4297	3030.9118	1307.75	428.5
1030.5404	3031.9544	1314.85	436.45
1030.6511	3032.9963	1325.6	445.45
1030.7617	3034.0376	1319.85	439.85
1030.8723	3035.0783	1326.5	446.9
1030.9829	3036.1184	1331.6	451.65
1031.0934	3037.1578	1333.6	456.15
1031.2038	3038.1966	1344.7	463
1031.3142	3039.2348	1335.1	456.5
1031.4246	3040.2723	1348.45	459.9
1031.5349	3041.3092	1337.4	460.65
1031.6452	3042.3455	1333.35	453.95
1031.7554	3043.3811	1328.9	450.85
1031.8656	3044.4161	1331.7	452.7
1031.9758	3045.4505	1313.45	435.9
1032.0859	3046.4842	1315.7	436.15
1032.1959	3047.5173	1306.45	427
1032.3059	3048.5498	1298.85	421.75
1032.4159	3049.5816	1289.7	410.1
1032.5258	3050.6128	1288.2	408.7
1032.6357	3051.6434	1287.85	408.25
1032.7455	3052.6734	1280.3	399.95
1032.8553	3053.7027	1269.65	391.3
1032.9651	3054.7314	1265.6	388.35
1033.0748	3055.7594	1259.45	381.6
1033.1845	3056.7868	1259.7	380.45
1033.2941	3057.8136	1248.7	367.2
1033.4037	3058.8398	1236.5	360.45
1033.5132	3059.8653	1237.2	360.35
1033.6227	3060.8902	1233.1	353.55
1033.7321	3061.9145	1225.3	346.85
1033.8415	3062.9381	1224.65	343.25
1033.9509	3063.9612	1232.35	337.85
1034.0602	3064.9835	1210.7	331.05
1034.1694	3066.0053	1210.8	329.55
1034.2787	3067.0264	1200.6	320.9
1034.3878	3068.0469	1191.55	309.9
1034.497	3069.0668	1185.4	305.55
1034.6061	3070.086	1172.1	293.7
1034.7151	3071.1046	1170.3	287.95
1034.8241	3072.1226	1159.1	280.7
1034.9331	3073.1399	1148.25	270.05
1035.042	3074.1567	1141.8	262.1
1035.1508	3075.1727	1132	250.75
1035.2597	3076.1882	1125.8	246.5
1035.3684	3077.203	1107.5	229.2
1035.4772	3078.2173	1100.2	219.9
1035.5859	3079.2308	1099.55	217.4
1035.6945	3080.2438	1088.35	209.1
1035.8031	3081.2561	1080.9	199.6
1035.9117	3082.2678	1074.95	197.55
1036.0202	3083.2789	1069.25	188.15
1036.1286	3084.2893	1067.95	189.9
1036.2371	3085.2991	1051.25	173.05
1036.3454	3086.3083	1057.4	175.55
1036.4538	3087.3169	1048.3	168.35
1036.562	3088.3248	1042.25	161.55
1036.6703	3089.3321	1038	155.4
1036.7785	3090.3388	1033.55	156.1
1036.8866	3091.3449	1026.7	145.1
1036.9948	3092.3503	1028	146.2
1037.1028	3093.3551	1021.6	144.15
1037.2108	3094.3593	1020.2	141.05
1037.3188	3095.3629	1015.65	137.55
1037.4267	3096.3658	1016.6	136.4
1037.5346	3097.3681	1010.8	133.2
1037.6425	3098.3698	1013.8	132.65
1037.7503	3099.3708	1015.55	130.4
1037.858	3100.3713	1003.05	126.3
1037.9657	3101.3711	1003.8	124.05
1038.0734	3102.3702	1140.65	121.35
1038.181	3103.3688	999.2	118.65
1038.2886	3104.3667	994.7	117.2
1038.3961	3105.364	999.4	121.6
1038.5036	3106.3607	996.5	115.2
1038.611	3107.3568	993.05	114.45
1038.7184	3108.3522	992.9	114
1038.8257	3109.347	992.75	112.7
1038.933	3110.3412	995.7	113.3
1039.0403	3111.3348	989.65	109.2
1039.1475	3112.3277	989.85	112.65
1039.2547	3113.32	984.55	106.55
1039.3618	3114.3117	985.5	106.4
1039.4689	3115.3028	985.35	106.4
1039.5759	3116.2932	987.25	105.9
1039.6829	3117.2831	993.15	109.8
1039.7898	3118.2723	981	101.2
1039.8967	3119.2608	977.3	98.3
1040.0035	3120.2488	983.45	104.75
1040.1103	3121.2361	978.4	99.9
1040.2171	3122.2229	974.25	94.7
1040.3238	3123.209	980.75	99.55
1040.4305	3124.1944	973	93.35
1040.5371	3125.1793	977.7	96.35
1040.6437	3126.1635	972.95	95
1040.7502	3127.1471	973.35	96.4
1040.8567	3128.1301	970.7	91.6
1040.9631	3129.1125	973.6	93.65
1041.0695	3130.0942	971.8	93.05
1041.1759	3131.0753	977.45	89.2
1041.2822	3132.0558	975.85	96.3
1041.3884	3133.0357	967.75	88.55
1041.4946	3134.015	968.3	87.95
1041.6008	3134.9936	965.9	85.95
1041.7069	3135.9716	984.25	83.45
1041.813	3136.949	962.5	83.5
1041.919	3137.9258	982.1	84
1042.025	3138.902	969.15	83.55
1042.1309	3139.8775	960.9	83.4
1042.2368	3140.8524	959.6	80.25
1042.3427	3141.8267	957.7	78.15
1042.4485	3142.8004	956.75	77.65
1042.5542	3143.7735	967.55	80.75
1042.6599	3144.7459	960.85	79.85
1042.7656	3145.7178	956	75.2
1042.8712	3146.689	953.25	74.55
1042.9768	3147.6596	954.7	74.85
1043.0823	3148.6295	954.75	74.3
1043.1878	3149.5989	951.35	74.15
1043.2932	3150.5676	950.8	72.9
1043.3986	3151.5357	947.5	69.85
1043.5039	3152.5032	952.6	74.5
1043.6092	3153.4701	949.45	71.5
1043.7145	3154.4364	950.4	68.35
1043.8197	3155.402	948.2	72.55
1043.9248	3156.367	950.1	67.3
1044.03	3157.3315	992.85	71.2
1044.135	3158.2952	947.3	67
1044.24	3159.2584	945.8	66.65
1044.345	3160.221	946.1	67.1
1044.4499	3161.1829	945.35	66.2
1044.5548	3162.1442	943.85	65.95
1044.6596	3163.105	941.55	62.95
1044.7644	3164.065	942.2	61.15
1044.8692	3165.0245	945.8	64.85
1044.9739	3165.9834	942.7	63.65
1045.0785	3166.9416	942.8	63.2
1045.1831	3167.8993	941.45	62
1045.2877	3168.8563	942.6	62.45
1045.3922	3169.8127	938.8	59.75
1045.4966	3170.7684	940	58.75
1045.6011	3171.7236	937.7	57
1045.7054	3172.6782	936.6	59.25
1045.8098	3173.6321	938.9	58.4
1045.914	3174.5854	943.2	60.3
1046.0183	3175.5381	939.8	60.1
1046.1224	3176.4902	937.8	60.95
1046.2266	3177.4417	937	58.7
1046.3307	3178.3926	939.1	62
1046.4347	3179.3428	934.85	58.25
1046.5387	3180.2924	933.1	54.55
1046.6427	3181.2415	935.15	55.4
1046.7466	3182.1899	935.8	57.25
1046.8504	3183.1377	933.85	54.9
1046.9542	3184.0848	937.45	56.85
1047.058	3185.0314	934	55.75
1047.1617	3185.9773	937.75	57.45
1047.2654	3186.9227	934.85	55.45
1047.369	3187.8674	933.35	54.6
1047.4726	3188.8115	940	55.3
1047.5761	3189.755	930.85	52.9
1047.6796	3190.6979	931.35	51.8
1047.783	3191.6402	931.2	51.45
1047.8864	3192.5818	928.9	49.3
1047.9898	3193.5229	952.2	54.05
1048.0931	3194.4633	933.15	55.25
1048.1963	3195.4031	931.35	49.75
1048.2995	3196.3423	926.6	48.15
1048.4027	3197.2809	929.15	47.95
1048.5058	3198.2189	929.05	50.8
1048.6089	3199.1563	947.85	53
1048.7119	3200.0931	926.55	48.8
1048.8148	3201.0292	925.8	48.7
1048.9178	3201.9648	926.35	48.6
1049.0206	3202.8997	929.6	47.5
1049.1235	3203.834	927	47.5
1049.2262	3204.7677	929.25	49.9
1049.329	3205.7008	926.4	47.1
1049.4317	3206.6333	927.55	48.45
1049.5343	3207.5652	929.35	48.55
1049.6369	3208.4964	929.15	49.4
1049.7394	3209.4271	924.65	46.9
1049.8419	3210.3571	924.65	46.65
1049.9444	3211.2865	924.95	46.6
1050.0468	3212.2154	924.2	44.2
1050.1491	3213.1436	928.15	47.8
1050.2514	3214.0712	930.25	44.6
1050.3537	3214.9982	923.6	45.85
1050.4559	3215.9246	923.9	44.2
1050.5581	3216.8503	923.1	42.95
1050.6602	3217.7755	924	44
1050.7623	3218.7001	919.5	42.15
1050.8643	3219.624	922.65	44.95
1050.9663	3220.5473	922.55	44.25
1051.0682	3221.4701	921.85	41
1051.1701	3222.3922	925.55	45.3
1051.2719	3223.3137	923.65	43.9
1051.3737	3224.2346	922.05	42
1051.4754	3225.1549	921.45	42.65
1051.5771	3226.0746	920.85	42.55
1051.6788	3226.9937	923.25	45.4
1051.7804	3227.9121	920.05	39.85
1051.8819	3228.83	922.05	43.7
1051.9834	3229.7473	918.95	39.85
1052.0849	3230.6639	920.05	40.25
1052.1863	3231.5799	917.5	39.8
1052.2876	3232.4954	921.1	39.95
1052.3889	3233.4102	919.95	41.2
1052.4902	3234.3244	920.7	42.1
1052.5914	3235.238	918.9	39.65
1052.6926	3236.151	942.05	39.85
1052.7937	3237.0634	918	41.25
1052.8948	3237.9752	920.5	42.45
1052.9958	3238.8864	918.25	38.1
1053.0968	3239.797	917.2	36.15
1053.1977	3240.7069	919.25	38.55
1053.2986	3241.6163	917.35	36.65
1053.3994	3242.5251	916.95	40.95
1053.5002	3243.4332	916.1	38.6
1053.6009	3244.3408	918.75	39.65
1053.7016	3245.2477	917.8	41.05
1053.8022	3246.154	918.05	39.3
1053.9028	3247.0598	919.15	39.75
1054.0034	3247.9649	915.1	37.6
1054.1039	3248.8694	917.9	39.35
1054.2043	3249.7733	916.15	38.15
1054.3047	3250.6766	913.95	34.25
1054.4051	3251.5793	915.85	36.4
1054.5054	3252.4814	914.85	38.05
1054.6056	3253.3829	913.75	36.2
1054.7058	3254.2838	913.3	35.35
1054.806	3255.1841	913.8	36.65
1054.9061	3256.0838	912.85	33.65
1055.0061	3256.9829	910.8	34.45
1055.1062	3257.8814	911.25	30.8
1055.2061	3258.7792	911.55	30.1
1055.306	3259.6765	912.7	32.35
1055.4059	3260.5731	910.15	31.2
1055.5057	3261.4692	909.7	30.85
1055.6055	3262.3647	908.95	29.2
1055.7052	3263.2595	907.2	30.1
1055.8049	3264.1538	907.5	28.7
1055.9045	3265.0474	909.5	28.15
1056.0041	3265.9404	908.25	30.9
1056.1036	3266.8329	905.95	27.5
1056.2031	3267.7247	918.25	31
1056.3025	3268.616	906.7	30.1
1056.4019	3269.5066	904.7	25.75
1056.5013	3270.3966	906.7	27.4
1056.6005	3271.286	901.25	23.15
