Software Version:	3.9.2.0
Unit SN:	10000200
Spectrometer SN:	6960
Date:	3/14/2024 1:59:56 PM
Data Line Index:	25
Spectral Points:	2048
Integration time (ms):	125
Averages:	20
Delay (ms):	30000
Sequence Number:	1
Processing:	dark subtract
Laser Power (mW):	300
Laser Current (mA):	825
Laser Diode Temp (C):	25.1
Laser Case Temp (C):	29
System Temp (C):	29
Spectrometer Temp (C):	26.8
CCD Temp (C):	0.005
Secondary Temp (C):	20.006
Heatsink Temp (C):	24.803
CCDPCB Temp (C):	38.33
SecondaryPCB Temp (C):	35.951

Wavelength	RamanShift	Raw Counts	Dark Subtracted
787.061	30.1047	456.7	45.75
787.2016	32.3739	460.75	52.5
787.3422	34.6426	462.9	52.95
787.4828	36.9109	469.5	56.6
787.6235	39.1787	476.85	61.6
787.7642	41.4461	486.2	65.8
787.9049	43.7131	495.85	71.8
788.0456	45.9796	503.1	74.9
788.1863	48.2456	516.35	85.3
788.3271	50.5112	524.9	90.6
788.4679	52.7764	530.15	91.35
788.6087	55.0411	540.8	100.75
788.7496	57.3054	551.1	103.35
788.8904	59.5692	567.7	118.65
789.0313	61.8326	576.05	122.15
789.1722	64.0955	590.05	133.2
789.3132	66.3579	607.45	146.45
789.4541	68.6199	623.55	157.75
789.5951	70.8815	654.4	186.8
789.7361	73.1426	725.7	254.75
789.8771	75.4032	909.2	431.9
790.0181	77.6634	1369.95	886.8
790.1592	79.9231	2438.2	1951
790.3003	82.1824	4817.3	4318.15
790.4414	84.4412	9179.7	8663.1
790.5825	86.6995	15391.15	14850.95
790.7237	88.9574	21634.95	21073.15
790.8648	91.2148	26177.35	25601.2
791.006	93.4717	28388.8	27804.35
791.1472	95.7282	28999.2	28408.05
791.2885	97.9842	29084.4	28491.3
791.4297	100.2398	28645.2	28045.3
791.571	102.4949	28174.6	27569.95
791.7123	104.7495	27468.75	26860.95
791.8536	107.0036	26744.95	26143.95
791.9949	109.2573	25985.9	25382.9
792.1363	111.5105	25232.3	24624.4
792.2777	113.7632	24495.8	23883.95
792.4191	116.0154	23909.85	23289.35
792.5605	118.2672	23410.75	22798.6
792.7019	120.5185	22937.8	22323.4
792.8434	122.7693	22549.8	21933.6
792.9849	125.0197	22271.55	21651.45
793.1264	127.2696	21947.8	21326.6
793.2679	129.519	21833.65	21209.2
793.4094	131.7679	21677.8	21050.55
793.551	134.0163	21543.2	20914.85
793.6926	136.2642	21427.65	20793.4
793.8342	138.5117	21234.45	20591.65
793.9758	140.7587	21055.8	20416.75
794.1175	143.0052	20932.9	20287.8
794.2591	145.2512	20713.2	20068.55
794.4008	147.4967	20504.75	19866.05
794.5425	149.7417	20369.95	19725.7
794.6842	151.9863	20256.7	19614.05
794.826	154.2304	20212.85	19561.75
794.9677	156.4739	20073.8	19417.7
795.1095	158.717	19986	19330.95
795.2513	160.9596	19856.15	19195
795.3931	163.2017	19587.15	18928.65
795.535	165.4433	19304.95	18640.15
795.6768	167.6844	18985.3	18322.9
795.8187	169.925	18642.3	17971.8
795.9606	172.1651	18258.4	17587
796.1025	174.4047	17969.15	17294.85
796.2445	176.6439	17708.95	17033.6
796.3864	178.8825	17475.75	16795.2
796.5284	181.1206	17283.45	16601.2
796.6704	183.3582	17091.9	16404.2
796.8124	185.5954	16975.3	16288.15
796.9544	187.832	16860.35	16170.95
797.0965	190.0681	16856	16162.9
797.2386	192.3037	16819.85	16124
797.3806	194.5388	16829.1	16130.85
797.5228	196.7734	16829.55	16130.55
797.6649	199.0075	16856	16153.3
797.807	201.2411	16991.2	16283.95
797.9492	203.4742	17050.75	16344.4
798.0914	205.7068	17157.5	16447.75
798.2336	207.9389	17254.85	16544.05
798.3758	210.1704	17409.3	16697.45
798.518	212.4015	17521.6	16809.25
798.6603	214.632	17680.95	16967.3
798.8025	216.862	17828.05	17121.5
798.9448	219.0915	17968.65	17268.35
799.0871	221.3205	18194.25	17494.65
799.2294	223.549	18475.55	17783.9
799.3718	225.777	18838.95	18143.3
799.5141	228.0044	19245.45	18544.7
799.6565	230.2314	19746.3	19055.45
799.7989	232.4578	20256.55	19559.65
799.9413	234.6837	20605	19901.35
800.0837	236.909	20822.7	20117.8
800.2262	239.1339	20807.4	20082.1
800.3687	241.3582	20489.1	19776.6
800.5111	243.582	20084.6	19347.15
800.6536	245.8053	19671.4	18937.35
800.7961	248.0281	19271.7	18544.05
800.9387	250.2503	18974.1	18241.1
801.0812	252.472	18776.6	18038.55
801.2238	254.6932	18634.8	17898.4
801.3664	256.9139	18503.25	17764.8
801.509	259.134	18448.95	17708
801.6516	261.3536	18338.7	17599.4
801.7942	263.5727	18295.65	17553
801.9369	265.7912	18165.5	17422.55
802.0795	268.0092	18144.45	17401.15
802.2222	270.2267	18029	17284.75
802.3649	272.4436	17952.45	17209.6
802.5076	274.6601	17872.7	17121.45
802.6504	276.8759	17807.65	17059.55
802.7931	279.0913	17795.35	17047.1
802.9359	281.3061	17795.7	17044.1
803.0787	283.5204	17893.45	17139.6
803.2215	285.7341	18014.9	17257.7
803.3643	287.9473	18196.8	17427.35
803.5071	290.16	18473.85	17711.2
803.6499	292.3721	18779.4	18022.4
803.7928	294.5837	19213.9	18455.85
803.9357	296.7947	19584.1	18826.95
804.0786	299.0052	19747.5	18990.4
804.2215	301.2152	19605.25	18843.3
804.3644	303.4246	19189.75	18430.3
804.5074	305.6334	18597.7	17838.95
804.6503	307.8418	18075.9	17311.25
804.7933	310.0495	17628.5	16865.8
804.9363	312.2568	17348.15	16588.7
805.0793	314.4635	17148.55	16387.95
805.2223	316.6696	17090.75	16326.65
805.3653	318.8752	17072.05	16300.55
805.5084	321.0802	17126.9	16360.7
805.6514	323.2847	17215.05	16447.3
805.7945	325.4887	17271.3	16503.9
805.9376	327.692	17231.55	16463.2
806.0807	329.8949	17118.8	16348.55
806.2238	332.0972	16856.95	16088.1
806.367	334.2989	16548.15	15771.7
806.5101	336.5001	16223.3	15447.85
806.6533	338.7007	16017.1	15240.95
806.7965	340.9008	15924.3	15150.15
806.9397	343.1003	15809	15028.95
807.0829	345.2992	15733.3	14957.95
807.2261	347.4976	15703.45	14921.25
807.3693	349.6955	15710.95	14926.3
807.5126	351.8927	15758.25	14973.5
807.6559	354.0895	15732.55	14934.85
807.7991	356.2856	15779.4	14994.5
807.9424	358.4812	15753.2	14967.9
808.0857	360.6763	15813.9	15027.4
808.2291	362.8707	15744.7	14956.3
808.3724	365.0646	15779.2	14990
808.5158	367.258	15738	14948.75
808.6591	369.4508	15722.55	14924.75
808.8025	371.643	15790.8	14996.55
808.9459	373.8346	15760.5	14962.75
809.0893	376.0257	15695.85	14894.6
809.2327	378.2162	15589.15	14789.25
809.3762	380.4062	15467.6	14665.15
809.5196	382.5956	15280.75	14477.55
809.6631	384.7844	15199.05	14396.3
809.8066	386.9726	15066.95	14260.4
809.9501	389.1603	15042	14240
810.0936	391.3474	15016.5	14181.4
810.2371	393.5339	14935.2	14131.4
810.3806	395.7199	14869.9	14072
810.5241	397.9052	14886.45	14089.85
810.6677	400.09	14889.35	14093.75
810.8113	402.2743	14922.5	14126.95
810.9548	404.4579	14933.8	14137.5
811.0984	406.641	15098.05	14302.3
811.2421	408.8235	15271.55	14476.85
811.3857	411.0054	15630.35	14834.75
811.5293	413.1868	16097.3	15297.3
811.673	415.3675	16474.6	15668.9
811.8166	417.5477	16682	15880.5
811.9603	419.7273	16678.05	15874.1
812.104	421.9064	16546.45	15735.75
812.2477	424.0848	16426	15619.55
812.3914	426.2627	16187.3	15379.45
812.5351	428.4399	15873.85	15063.5
812.6788	430.6166	15501.5	14686.05
812.8226	432.7928	15153.8	14338.1
812.9663	434.9683	14820.35	14006.6
813.1101	437.1432	14592.9	13775.55
813.2539	439.3176	14406.8	13588.55
813.3977	441.4914	14318.75	13499.1
813.5415	443.6645	14279.95	13459.05
813.6853	445.8371	14178.05	13360.45
813.8291	448.0091	14086.15	13269.35
813.973	450.1806	14076.75	13258.3
814.1168	452.3514	13984.75	13164.7
814.2607	454.5216	13958.55	13131.25
814.4046	456.6913	13889.1	13065.95
814.5485	458.8603	13885.9	13064.75
814.6924	461.0288	13963.2	13139.9
814.8363	463.1967	13985.25	13161.4
814.9802	465.3639	14092.9	13268.35
815.1241	467.5306	14190.45	13366.1
815.2681	469.6967	14347.2	13521.65
815.412	471.8622	14487.05	13663.6
815.556	474.0271	14690.8	13866.95
815.7	476.1914	14740	13915.05
815.844	478.3551	14702.05	13875.2
815.988	480.5182	14636.4	13810.35
816.132	482.6807	14591.05	13766
816.276	484.8426	14662.85	13836.4
816.4201	487.0039	14912.15	14087.7
816.5641	489.1647	15278.25	14451.85
816.7082	491.3248	15677.95	14852.15
816.8522	493.4843	15902.45	15076.15
816.9963	495.6432	15902.6	15071.4
817.1404	497.8015	15802.25	14970.35
817.2845	499.9592	15807.15	14977.7
817.4286	502.1163	15794.15	14963.35
817.5727	504.2728	15559.15	14730.25
817.7168	506.4287	15286.7	14456.5
817.861	508.5839	14850.6	14019.9
818.0051	510.7386	14480.8	13651.75
818.1493	512.8927	14240.55	13399.25
818.2935	515.0461	14064.75	13231.8
818.4377	517.199	13973.65	13140.25
818.5818	519.3512	13915	13083.15
818.726	521.5029	13906.35	13068.15
818.8703	523.6539	13907.05	13071.1
819.0145	525.8043	13919.75	13082.35
819.1587	527.9541	13970.5	13132.3
819.303	530.1033	13964.45	13126.75
819.4472	532.2519	14049.75	13211.35
819.5915	534.3999	14212.5	13371.75
819.7357	536.5472	14496.9	13659.7
819.88	538.694	14975.55	14137
820.0243	540.8401	15633.65	14794.85
820.1686	542.9856	16160.6	15320.2
820.3129	545.1305	16326.55	15481.65
820.4572	547.2748	16157.05	15315.55
820.6016	549.4185	15730.45	14888.1
820.7459	551.5615	15326.65	14484.85
820.8902	553.704	15118.75	14273.1
821.0346	555.8458	14994.8	14152.7
821.1789	557.987	14982.55	14142.5
821.3233	560.1276	14868.3	14025.05
821.4677	562.2675	14740.5	13900.05
821.6121	564.4069	14624.75	13782.8
821.7565	566.5456	14499.85	13660.4
821.9009	568.6837	14373.15	13531.95
822.0453	570.8212	14143.2	13301.7
822.1897	572.958	13901.25	13057.45
822.3342	575.0942	13717	12875.65
822.4786	577.2299	13617.05	12773.2
822.6231	579.3648	13589.95	12744.05
822.7675	581.4992	13688.9	12845.9
822.912	583.6329	13908.7	13063.65
823.0565	585.766	14148.4	13305.65
823.201	587.8985	14237.1	13395.75
823.3454	590.0304	14216.35	13362.65
823.4899	592.1616	14151.35	13306.25
823.6345	594.2922	14038.75	13193.3
823.779	596.4222	13904.45	13055.9
823.9235	598.5515	13747.15	12902.35
824.068	600.6802	13588.75	12744.1
824.2126	602.8083	13386	12541.3
824.3571	604.9358	13307.85	12461.75
824.5017	607.0626	13174.75	12327.5
824.6462	609.1888	13105.35	12257.2
824.7908	611.3144	13027.65	12179.8
824.9354	613.4393	12823	11975.5
825.08	615.5636	12709	11860.2
825.2246	617.6873	12560.8	11713.7
825.3692	619.8103	12475.6	11627.2
825.5138	621.9327	12413.85	11561.1
825.6584	624.0544	12422.8	11576.05
825.803	626.1756	12394.15	11547.8
825.9477	628.2961	12383	11531.4
826.0923	630.4159	12320.65	11473.05
826.237	632.5351	12239.4	11388.75
826.3816	634.6537	12173.95	11322.05
826.5263	636.7716	12134.5	11281
826.6709	638.8889	12100.75	11247.35
826.8156	641.0056	12132.2	11281.2
826.9603	643.1216	12157.4	11304.2
827.105	645.237	12165.15	11311.1
827.2497	647.3518	12155.85	11303.4
827.3944	649.4659	12155.35	11301.35
827.5391	651.5793	12171.65	11317.35
827.6838	653.6922	12146.2	11292.65
827.8285	655.8043	12097.25	11241.8
827.9733	657.9159	12069	11213.4
828.118	660.0268	11971.75	11115.2
828.2627	662.137	11924.3	11068.3
828.4075	664.2466	11869.6	11013.8
828.5522	666.3556	11836.2	10978.8
828.697	668.4639	11792.95	10933.9
828.8418	670.5716	11852.75	10995.85
828.9865	672.6786	11926.3	11070.05
829.1313	674.785	11996.65	11139.05
829.2761	676.8907	12091.9	11235.05
829.4209	678.9958	12151	11295.8
829.5657	681.1002	12116.1	11258.5
829.7105	683.204	12110.1	11248.4
829.8553	685.3072	12022.25	11163.9
830.0001	687.4097	11912.8	11054.2
830.1449	689.5115	11837.85	10977.5
830.2898	691.6127	11780.35	10924.75
830.4346	693.7132	11683.35	10826.15
830.5794	695.8131	11640.65	10759.9
830.7243	697.9123	11582	10718.75
830.8691	700.0109	11491.05	10629.45
831.014	702.1089	11450.95	10590.65
831.1588	704.2061	11476.05	10615.75
831.3037	706.3028	11483.55	10620.05
831.4486	708.3987	11551	10691.3
831.5935	710.4941	11628.65	10770.05
831.7383	712.5887	11795	10934.2
831.8832	714.6827	12100.3	11234.3
832.0281	716.7761	12498.15	11636.7
832.173	718.8688	12855.15	11991.2
832.3179	720.9608	13042.4	12179.75
832.4628	723.0522	13054.6	12190
832.6077	725.1429	12751.3	11888.7
832.7527	727.233	12407.4	11543.5
832.8976	729.3224	12055.95	11192.9
833.0425	731.4112	11740.7	10877.1
833.1874	733.4993	11523.6	10657.05
833.3324	735.5867	11379	10515.2
833.4773	737.6735	11301.35	10434.7
833.6222	739.7596	11252.65	10387.9
833.7672	741.845	11189.3	10323
833.9122	743.9298	11164.3	10294.95
834.0571	746.014	11178.8	10315.9
834.2021	748.0974	11179.05	10312.15
834.347	750.1802	11180.5	10314.75
834.492	752.2624	11148.95	10284.6
834.637	754.3439	11160.75	10294.55
834.782	756.4247	11230.35	10355.9
834.9269	758.5048	11311.1	10447.55
835.0719	760.5843	11447.15	10580.75
835.2169	762.6631	11698.3	10833.45
835.3619	764.7413	12116.2	11252.15
835.5069	766.8188	12627.95	11760.45
835.6519	768.8956	13066.35	12198.6
835.7969	770.9718	13350.9	12483.1
835.9419	773.0473	13212.95	12346.4
836.0869	775.1221	12880.75	12013.6
836.232	777.1962	12522.3	11654.85
836.377	779.2697	12312.2	11444.65
836.522	781.3426	12347.35	11462.05
836.667	783.4147	12639.9	11770.85
836.8121	785.4862	12968.05	12100.5
836.9571	787.557	13009.4	12143.35
837.1021	789.6271	12616.1	11747.65
837.2472	791.6966	12058.25	11191.75
837.3922	793.7654	11568.95	10699.2
837.5373	795.8335	11249.5	10381.4
837.6823	797.901	11078.95	10209.15
837.8274	799.9678	11032.65	10165.45
837.9724	802.0339	11051.65	10183.3
838.1175	804.0993	11090.6	10212.85
838.2626	806.1641	11069.75	10201.1
838.4076	808.2282	10997.65	10128.85
838.5527	810.2916	10907.35	10035.55
838.6978	812.3544	10797	9930.85
838.8428	814.4164	10661.3	9792.65
838.9879	816.4778	10693.7	9823.55
839.133	818.5385	10646.95	9778.8
839.2781	820.5986	10672.35	9804.45
839.4232	822.658	10687	9816.75
839.5682	824.7166	10740.05	9873.2
839.7133	826.7747	10869.95	10001.55
839.8584	828.832	10998.55	10130.85
840.0035	830.8886	11046.55	10176.9
840.1486	832.9446	11204.9	10333.2
840.2937	834.9999	11270.9	10404.35
840.4388	837.0545	11357.2	10482.7
840.5839	839.1085	11399.75	10528.4
840.729	841.1618	11403.75	10530
840.8741	843.2143	11364.7	10495.25
841.0192	845.2662	11297.45	10427.8
841.1643	847.3175	11232.4	10363.2
841.3095	849.368	11150.3	10278.6
841.4546	851.4179	10992.55	10121
841.5997	853.467	10845.2	9974.15
841.7448	855.5155	10734.25	9862.95
841.8899	857.5633	10599.7	9727.2
842.0351	859.6105	10486.1	9615.8
842.1802	861.6569	10446.85	9576.6
842.3253	863.7027	10365.8	9493.8
842.4704	865.7478	10324.5	9451.95
842.6156	867.7922	10354.85	9481.65
842.7607	869.8359	10386.9	9515.9
842.9058	871.8789	10493.5	9621.7
843.0509	873.9212	10688.2	9782.6
843.1961	875.9629	10794.9	9923.9
843.3412	878.0039	10969.65	10095.2
843.4863	880.0441	11056.35	10185.7
843.6315	882.0837	11036.65	10161.3
843.7766	884.1226	10915.2	10042
843.9218	886.1609	10755.85	9884.4
844.0669	888.1984	10613.4	9741.5
844.212	890.2352	10550.85	9677.5
844.3572	892.2714	10506.3	9628.9
844.5023	894.3069	10452.9	9578.9
844.6475	896.3416	10382.15	9506.65
844.7926	898.3757	10334.35	9461.85
844.9377	900.4091	10334	9459.15
845.0829	902.4418	10332.9	9457
845.228	904.4739	10358.95	9482.75
845.3732	906.5052	10312.1	9437.35
845.5183	908.5358	10217.65	9345.4
845.6635	910.5658	10053.8	9177.4
845.8086	912.595	9895.4	9021.15
845.9538	914.6236	9764.65	8891.75
846.0989	916.6515	9735.55	8861.35
846.2441	918.6786	9705.7	8830.3
846.3892	920.7051	9785.25	8908.4
846.5344	922.7309	9900.6	9026.95
846.6795	924.756	9952.3	9077.5
846.8246	926.7804	10047.05	9170.4
846.9698	928.8041	9979.35	9100.9
847.1149	930.8272	10002.3	9128.7
847.2601	932.8495	9939.45	9064.4
847.4052	934.8711	9840.25	8963.5
847.5504	936.892	9677.15	8802.5
847.6955	938.9123	9524.75	8648.6
847.8407	940.9318	9380.6	8504.05
847.9858	942.9506	9241.25	8364.6
848.131	944.9688	9143.4	8267.45
848.2761	946.9862	9114.85	8239.6
848.4213	949.003	9048	8170.5
848.5664	951.019	9042.05	8167.7
848.7115	953.0344	9075.25	8200.4
848.8567	955.0491	9117.05	8239.9
849.0018	957.063	9167.25	8291.25
849.147	959.0763	9255.1	8379.9
849.2921	961.0888	9305.6	8426.75
849.4373	963.1007	9384.6	8506.55
849.5824	965.1119	9415.65	8541.15
849.7275	967.1223	9424.25	8547.95
849.8727	969.1321	9430.2	8554.4
850.0178	971.1412	9507.6	8630
850.1629	973.1495	9503.8	8625.65
850.3081	975.1572	9550.4	8638.15
850.4532	977.1641	9563.05	8685.8
850.5983	979.1704	9524	8646.9
850.7435	981.1759	9491.5	8611.35
850.8886	983.1808	9568.2	8692
851.0337	985.1849	9646.55	8758.4
851.1788	987.1884	9785.35	8905.45
851.324	989.1911	9973.15	9091.85
851.4691	991.1932	10104.85	9227.05
851.6142	993.1945	10165.05	9286.8
851.7593	995.1951	10107.65	9228.85
851.9045	997.1951	10072.35	9190.8
852.0496	999.1943	10005.25	9128.5
852.1947	1001.1928	9944.7	9069.85
852.3398	1003.1906	9950.75	9073.6
852.4849	1005.1877	9948.45	9069.1
852.63	1007.1841	9899.9	9021.3
852.7751	1009.1798	9821.45	8944.3
852.9202	1011.1748	9620.65	8743
853.0653	1013.1691	9411.15	8534.75
853.2104	1015.1627	9189.7	8312.1
853.3555	1017.1556	8989.75	8112.75
853.5006	1019.1477	8921.15	8040.35
853.6457	1021.1392	8842.65	7966.05
853.7908	1023.1299	8848.95	7970.75
853.9359	1025.12	8865.65	7988.85
854.081	1027.1093	8920.8	8044.55
854.2261	1029.0979	9001.45	8124
854.3712	1031.0859	9028.1	8151.35
854.5163	1033.0731	9032.2	8154.55
854.6613	1035.0596	8931.3	8056.55
854.8064	1037.0454	8793.9	7914.6
854.9515	1039.0304	8686.55	7809.55
855.0965	1041.0148	8574.3	7695.7
855.2416	1042.9985	8451.25	7572.3
855.3867	1044.9814	8432.7	7555.2
855.5317	1046.9636	8381	7501.25
855.6768	1048.9452	8355.3	7478.95
855.8219	1050.926	8361.55	7484.75
855.9669	1052.9061	8351.7	7471.55
856.112	1054.8855	8334	7458.8
856.257	1056.8642	8358.1	7477.35
856.4021	1058.8421	8383.65	7500.05
856.5471	1060.8194	8387.6	7509.3
856.6921	1062.7959	8436.9	7558.85
856.8372	1064.7717	8441.75	7560.95
856.9822	1066.7469	8426.6	7547.6
857.1272	1068.7213	8394.35	7512.15
857.2723	1070.695	8353.1	7477.05
857.4173	1072.6679	8285	7403.4
857.5623	1074.6402	8230.45	7353.5
857.7073	1076.6117	8225.95	7341
857.8523	1078.5826	8231.25	7352.3
857.9973	1080.5527	8280.05	7399.4
858.1423	1082.5221	8403.05	7522.5
858.2873	1084.4908	8616	7736.15
858.4323	1086.4587	8855.05	7976.5
858.5773	1088.426	8981.85	8102.25
858.7223	1090.3925	8976.45	8093.7
858.8673	1092.3584	8896.4	8020.05
859.0123	1094.3235	8736.3	7856.25
859.1573	1096.2879	8619.7	7739.3
859.3022	1098.2515	8572.55	7691.9
859.4472	1100.2145	8611.65	7732.95
859.5922	1102.1767	8665.2	7780.8
859.7371	1104.1382	8768.4	7889.2
859.8821	1106.099	8983.7	8103.5
860.027	1108.0591	9173.2	8293.25
860.172	1110.0185	9314.85	8434.65
860.3169	1111.9771	9275.55	8398.15
860.4619	1113.9351	9084.45	8203.8
860.6068	1115.8923	8756.05	7874.85
860.7517	1117.8488	8416.75	7533.4
860.8967	1119.8045	8150.25	7271.45
861.0416	1121.7596	8024.7	7144.15
861.1865	1123.7139	7956	7076.6
861.3314	1125.6675	7956.8	7078.05
861.4763	1127.6204	8023.3	7143.9
861.6212	1129.5726	7995.6	7113.55
861.7661	1131.524	8059.4	7181.45
861.911	1133.4748	8070.6	7189.9
862.0559	1135.4248	8101	7218.2
862.2008	1137.3741	8120.55	7240.6
862.3457	1139.3226	8112.85	7232.4
862.4905	1141.2705	8074.65	7196.25
862.6354	1143.2176	7985.1	7098.4
862.7803	1145.164	8005.3	7124.55
862.9251	1147.1097	8032.95	7150.65
863.07	1149.0546	8007.4	7127.55
863.2148	1150.9989	7897.7	7015.7
863.3597	1152.9424	7721.05	6840.05
863.5045	1154.8852	7550.35	6670.1
863.6493	1156.8272	7415.85	6535.25
863.7942	1158.7686	7374.35	6487
863.939	1160.7092	7332.8	6453.5
864.0838	1162.6491	7295.75	6413.7
864.2286	1164.5883	7348.95	6469.95
864.3734	1166.5267	7429.25	6548
864.5182	1168.4644	7563.4	6682.6
864.663	1170.4014	7733.1	6846.9
864.8078	1172.3377	7939.9	7060.4
864.9526	1174.2732	8150.45	7271.25
865.0974	1176.2081	8347.95	7468.15
865.2421	1178.1421	8490.55	7607.2
865.3869	1180.0755	8612.3	7735.45
865.5317	1182.0082	8620.9	7740.2
865.6764	1183.9401	8564.25	7681.8
865.8212	1185.8713	8383.45	7503.45
865.9659	1187.8017	8133.6	7252.05
866.1106	1189.7315	7905.8	7025.5
866.2554	1191.6605	7690.85	6782.8
866.4001	1193.5888	7479.95	6599.4
866.5448	1195.5163	7369.05	6488.05
866.6895	1197.4432	7266.4	6385.05
866.8342	1199.3693	7223.75	6343.05
866.9789	1201.2947	7167.9	6283.7
867.1236	1203.2193	7156.1	6274.95
867.2683	1205.1432	7183.65	6299.4
867.413	1207.0664	7232.2	6350.9
867.5576	1208.9889	7283.95	6400.35
867.7023	1210.9106	7348.65	6466.4
867.847	1212.8316	7437.3	6558.25
867.9916	1214.7519	7502.2	6613.05
868.1363	1216.6715	7514.6	6634.6
868.2809	1218.5903	7495.9	6618.1
868.4255	1220.5084	7441.65	6559
868.5701	1222.4257	7410.5	6528.6
868.7148	1224.3424	7348.65	6470.6
868.8594	1226.2583	7391.95	6507.95
869.004	1228.1735	7498.1	6616.7
869.1486	1230.0879	7625.3	6743.5
869.2932	1232.0016	7747.25	6867.55
869.4377	1233.9146	7766.45	6886.75
869.5823	1235.8269	7685.15	6801.35
869.7269	1237.7384	7550.75	6670.15
869.8715	1239.6492	7366.5	6483.95
870.016	1241.5592	7261.75	6379.9
870.1606	1243.4686	7187.3	6307.1
870.3051	1245.3772	7119.9	6239.35
870.4496	1247.285	7038	6157.8
870.5941	1249.1922	7018.65	6138.05
870.7387	1251.0986	6981.8	6102.9
870.8832	1253.0042	7000.25	6119.3
871.0277	1254.9092	7073.8	6191.55
871.1722	1256.8134	7131.8	6250.8
871.3167	1258.7169	7292.1	6410.9
871.4611	1260.6196	7420.5	6538.8
871.6056	1262.5216	7592.6	6708.6
871.7501	1264.4229	7718.8	6836.85
871.8945	1266.3234	7831.55	6948.8
872.039	1268.2232	7843.6	6963.1
872.1834	1270.1223	7848.65	6964.65
872.3278	1272.0207	7825.15	6945.25
872.4723	1273.9183	7785.05	6894.9
872.6167	1275.8151	7693.05	6812.25
872.7611	1277.7113	7618.7	6733.55
872.9055	1279.6067	7466.25	6588.1
873.0499	1281.5014	7330.2	6446.7
873.1943	1283.3953	7200.15	6316.1
873.3386	1285.2885	7117.6	6237.15
873.483	1287.181	7064.4	6183.65
873.6274	1289.0727	7098.25	6216.95
873.7717	1290.9637	7102.25	6219.3
873.9161	1292.854	7200.1	6318.25
874.0604	1294.7435	7347.4	6465.2
874.2047	1296.6323	7544.9	6662.8
874.349	1298.5204	7798.5	6912.4
874.4933	1300.4077	8036.05	7153.95
874.6376	1302.2943	8206.7	7325.85
874.7819	1304.1802	8262.05	7379.35
874.9262	1306.0653	8197.25	7314.15
875.0705	1307.9497	8080.75	7196.6
875.2147	1309.8333	7980.4	7099.35
875.359	1311.7162	7979.15	7097.4
875.5032	1313.5984	8073.4	7191.3
875.6475	1315.4798	8211.25	7319.6
875.7917	1317.3605	8366.15	7469.55
875.9359	1319.2405	8471.25	7586.95
876.0801	1321.1197	8510	7625.3
876.2243	1322.9982	8467.1	7580.1
876.3685	1324.876	8442	7560.5
876.5127	1326.753	8393.45	7510.1
876.6569	1328.6293	8419.75	7536.8
876.801	1330.5048	8442.25	7558.35
876.9452	1332.3796	8418.2	7539.95
877.0893	1334.2537	8414	7507.5
877.2335	1336.127	8350.55	7468.9
877.3776	1337.9996	8321.3	7437.65
877.5217	1339.8714	8241.9	7359.3
877.6658	1341.7426	8222.35	7294.6
877.8099	1343.6129	8150	7269.7
877.954	1345.4826	8105.05	7221.15
878.0981	1347.3515	8039.8	7153.9
878.2422	1349.2196	7996.95	7113.05
878.3862	1351.087	7986	7102.3
878.5303	1352.9537	8035.55	7151.95
878.6743	1354.8197	8136.5	7251.2
878.8184	1356.6849	8308.7	7426.65
878.9624	1358.5493	8383.35	7502.3
879.1064	1360.4131	8357.55	7476.45
879.2504	1362.276	8294.95	7412.2
879.3944	1364.1383	8155.65	7273.9
879.5384	1365.9998	7948.6	7061.25
879.6823	1367.8606	7683.25	6798.25
879.8263	1369.7206	7442.7	6560.8
879.9702	1371.5799	7283.2	6398.45
880.1142	1373.4384	7172.7	6289.8
880.2581	1375.2962	7056.2	6171.45
880.402	1377.1533	6848.55	5968.15
880.5459	1379.0096	6588.55	5703.2
880.6898	1380.8652	6328	5445.35
880.8337	1382.7201	6098.65	5218.05
880.9776	1384.5742	5913.75	5032.8
881.1215	1386.4275	5788.6	4905.2
881.2653	1388.2802	5677.5	4795.1
881.4092	1390.132	5592.8	4712.05
881.553	1391.9832	5549.75	4664.05
881.6968	1393.8336	5492.1	4609.45
881.8406	1395.6832	5439.8	4556.65
881.9844	1397.5322	5433.9	4551.35
882.1282	1399.3803	5412.7	4525.6
882.272	1401.2278	5397.95	4517.05
882.4158	1403.0745	5402.45	4519.1
882.5595	1404.9204	5372.75	4493.7
882.7033	1406.7656	5404.25	4519.9
882.847	1408.6101	5407.6	4522.15
882.9908	1410.4538	5422.3	4539.6
883.1345	1412.2968	5446.1	4563.35
883.2782	1414.139	5503.05	4618.45
883.4219	1415.9805	5599.3	4718.2
883.5656	1417.8213	5692.65	4802.4
883.7092	1419.6613	5814.3	4931.1
883.8529	1421.5006	5978.65	5096
883.9965	1423.3391	6240.2	5356
884.1402	1425.1769	6584.25	5701.25
884.2838	1427.0139	7068.6	6186.15
884.4274	1428.8502	7632.05	6748.35
884.571	1430.6858	8214.7	7330.35
884.7146	1432.5206	8612.9	7730.9
884.8582	1434.3547	8844.55	7961.35
885.0018	1436.188	8869.5	7986.55
885.1453	1438.0206	8801.7	7917.85
885.2889	1439.8524	8673.1	7791.05
885.4324	1441.6835	8563.75	7679.85
885.5759	1443.5139	8506.25	7621.1
885.7194	1445.3435	8416.25	7531.7
885.8629	1447.1724	8377.2	7496.45
886.0064	1449.0005	8288.65	7406.4
886.1499	1450.8279	8242.25	7358.05
886.2933	1452.6545	8162	7278
886.4368	1454.4804	8216.85	7335.8
886.5802	1456.3056	8207.95	7318.9
886.7237	1458.13	8117.1	7235.65
886.8671	1459.9536	7879.4	6995.7
887.0105	1461.7766	7545.45	6662.45
887.1539	1463.5987	7141.6	6258.5
887.2972	1465.4202	6789.95	5908.35
887.4406	1467.2409	6467.45	5583.5
887.584	1469.0608	6203.25	5321.1
887.7273	1470.88	5956.65	5071.25
887.8706	1472.6984	5746.6	4864.4
888.0139	1474.5161	5557.95	4671.4
888.1572	1476.3331	5420.9	4538.15
888.3005	1478.1493	5288.75	4406.4
888.4438	1479.9648	5224.05	4341.85
888.5871	1481.7795	5113.65	4231.75
888.7303	1483.5935	5046.3	4165.65
888.8736	1485.4067	5000.25	4116.45
889.0168	1487.2192	4956.9	4072.05
889.16	1489.031	4928.55	4043.75
889.3032	1490.842	4876.15	3992.2
889.4464	1492.6522	4862	3980.7
889.5896	1494.4618	4823.8	3938.15
889.7327	1496.2705	4800.25	3916.85
889.8759	1498.0785	4796.1	3914.5
890.019	1499.8858	4755.4	3872.35
890.1622	1501.6924	4729.35	3848
890.3053	1503.4981	4716.1	3832.9
890.4484	1505.3032	4712.35	3829.7
890.5914	1507.1075	4697.1	3813.7
890.7345	1508.911	4659.85	3780.25
890.8776	1510.7138	4623.9	3740.95
891.0206	1512.5159	4607.05	3722.75
891.1637	1514.3172	4566.25	3682.5
891.3067	1516.1178	4536.85	3654.55
891.4497	1517.9176	4516.5	3629.9
891.5927	1519.7166	4504	3622.85
891.7357	1521.515	4487.15	3596.9
891.8786	1523.3126	4456.5	3574.3
892.0216	1525.1094	4435.35	3551.25
892.1645	1526.9055	4417.5	3535.8
892.3074	1528.7008	4417.65	3534.95
892.4503	1530.4954	4373.35	3489.75
892.5932	1532.2893	4378.65	3497.05
892.7361	1534.0824	4364.55	3477.75
892.879	1535.8747	4361.55	3480.1
893.0218	1537.6663	4358.45	3475.45
893.1647	1539.4572	4345.05	3462
893.3075	1541.2473	4340.45	3456.45
893.4503	1543.0367	4336.6	3454.9
893.5931	1544.8253	4323.05	3433.75
893.7359	1546.6132	4328.05	3441.5
893.8787	1548.4003	4318.55	3428.15
894.0214	1550.1867	4345.85	3453.75
894.1642	1551.9723	4348.3	3461.3
894.3069	1553.7572	4378.4	3493.2
894.4496	1555.5414	4385.05	3502.25
894.5923	1557.3247	4439.95	3556.2
894.735	1559.1074	4473.3	3588.35
894.8777	1560.8893	4524.25	3641.05
895.0204	1562.6705	4583.25	3699.8
895.163	1564.4509	4651.2	3768.9
895.3056	1566.2305	4701.5	3818.65
895.4482	1568.0094	4801.4	3918.25
895.5908	1569.7876	4857.65	3972.55
895.7334	1571.565	4929.55	4046.95
895.876	1573.3417	4962.15	4081.45
896.0186	1575.1176	4981.85	4099.15
896.1611	1576.8928	4949.3	4066.1
896.3036	1578.6672	4865.3	3982.95
896.4461	1580.4409	4761.95	3878.3
896.5886	1582.2138	4658.5	3773.4
896.7311	1583.986	4551.15	3668.6
896.8736	1585.7575	4465.85	3582.5
897.0161	1587.5282	4408.6	3526.25
897.1585	1589.2981	4338.4	3455.9
897.3009	1591.0673	4304.15	3422.4
897.4433	1592.8358	4293.15	3411.55
897.5857	1594.6035	4287.75	3403
897.7281	1596.3704	4275.85	3391.55
897.8705	1598.1366	4281.5	3399.75
898.0128	1599.9021	4309	3426.95
898.1551	1601.6668	4340.75	3457.05
898.2975	1603.4308	4385	3503.05
898.4398	1605.194	4452.95	3566.25
898.5821	1606.9564	4526	3645.45
898.7243	1608.7182	4633.7	3745.4
898.8666	1610.4791	4752.45	3869.4
899.0088	1612.2394	4880.8	3997.4
899.1511	1613.9988	5045.4	4165.15
899.2933	1615.7576	5283.65	4401.5
899.4355	1617.5156	5484.15	4597
899.5776	1619.2728	5712.55	4831.75
899.7198	1621.0293	5872.45	4991.4
899.862	1622.785	5940.8	5056.65
900.0041	1624.54	5900.6	5016.55
900.1462	1626.2942	5756.45	4871.4
900.2883	1628.0477	5552.95	4668.4
900.4304	1629.8005	5337.15	4452.05
900.5725	1631.5525	5116.45	4234.05
900.7145	1633.3037	4934.3	4051
900.8566	1635.0542	4770.15	3887.05
900.9986	1636.804	4680.6	3798.55
901.1406	1638.553	4655.85	3703.1
901.2826	1640.3013	4554.05	3673.5
901.4245	1642.0488	4517	3632.9
901.5665	1643.7955	4527.7	3647.35
901.7085	1645.5416	4536.35	3654.25
901.8504	1647.2868	4610.15	3728.55
901.9923	1649.0313	4675	3791.55
902.1342	1650.7751	4806.85	3922.25
902.2761	1652.5181	4989.55	4106.8
902.4179	1654.2604	5205.85	4324.25
902.5598	1656.0019	5502.95	4621.8
902.7016	1657.7427	5835.7	4951.25
902.8434	1659.4828	6132.65	5252.6
902.9852	1661.222	6358.2	5474.2
903.127	1662.9606	6363.8	5480.85
903.2687	1664.6984	6230.85	5349.85
903.4105	1666.4354	5897.6	5015.25
903.5522	1668.1717	5468.4	4588.9
903.6939	1669.9072	5048.1	4167.55
903.8356	1671.642	4698.1	3813.35
903.9773	1673.3761	4416.15	3536.55
904.119	1675.1094	4199.95	3318.9
904.2606	1676.8419	4054.1	3172.6
904.4022	1678.5737	3928.85	3044.95
904.5439	1680.3048	3844.3	2963.25
904.6855	1682.0351	3778.15	2895.3
904.827	1683.7646	3728.15	2842.8
904.9686	1685.4934	3671.85	2791.9
905.1101	1687.2215	3630.3	2747.25
905.2517	1688.9488	3597.1	2715
905.3932	1690.6754	3568.35	2688.55
905.5347	1692.4012	3549.8	2669.15
905.6761	1694.1263	3538.35	2659.1
905.8176	1695.8506	3512.95	2631.25
905.9591	1697.5742	3499.65	2619.55
906.1005	1699.297	3488.8	2605.3
906.2419	1701.0191	3459.35	2577.95
906.3833	1702.7404	3432.75	2554.15
906.5246	1704.461	3413.75	2531.4
906.666	1706.1808	3416.05	2533.4
906.8073	1707.8999	3391.1	2507.7
906.9487	1709.6182	3375.65	2493.9
907.09	1711.3358	3352.6	2471.15
907.2313	1713.0527	3354.95	2474.45
907.3725	1714.7688	3336.05	2449.55
907.5138	1716.4841	3316.15	2433.9
907.655	1718.1987	3313.7	2429.55
907.7962	1719.9126	3293.35	2416.3
907.9374	1721.6257	3278.6	2392.65
908.0786	1723.338	3272.3	2392.85
908.2198	1725.0496	3262.5	2380.9
908.3609	1726.7605	3259.6	2375.15
908.502	1728.4706	3250.1	2368.5
908.6431	1730.18	3229.2	2345
908.7842	1731.8886	3214.6	2332.8
908.9253	1733.5964	3208.6	2322
909.0664	1735.3036	3214.7	2332.05
909.2074	1737.0099	3191.95	2312.05
909.3484	1738.7156	3196.25	2314.85
909.4894	1740.4204	3187.75	2304.1
909.6304	1742.1246	3168.95	2288.45
909.7714	1743.8279	3154.6	2273.5
909.9123	1745.5306	3139.45	2256.95
910.0532	1747.2325	3144.2	2265.65
910.1941	1748.9336	3136.8	2257.2
910.335	1750.634	3121.9	2241
910.4759	1752.3336	3116.3	2234.05
910.6168	1754.0325	3104.6	2226.2
910.7576	1755.7307	3108.45	2225.4
910.8984	1757.4281	3103	2220.8
911.0392	1759.1247	3095.05	2206.55
911.18	1760.8206	3101.35	2215.55
911.3208	1762.5158	3080.35	2195.25
911.4615	1764.2102	3067.7	2187.5
911.6022	1765.9039	3073.85	2192.35
911.7429	1767.5968	3071.1	2190.45
911.8836	1769.289	3055.95	2172.65
912.0243	1770.9804	3030.25	2149.05
912.1649	1772.6711	3056.05	2175.75
912.3056	1774.361	3029.15	2147.3
912.4462	1776.0502	3029	2146.6
912.5868	1777.7386	3033.25	2148.6
912.7274	1779.4263	3029.85	2149.3
912.8679	1781.1132	3004.25	2122.75
913.0084	1782.7994	3000.1	2117.2
913.149	1784.4849	3000.45	2119.65
913.2895	1786.1696	3011.8	2110.1
913.4299	1787.8535	2999.15	2118.5
913.5704	1789.5367	2982.2	2101.65
913.7108	1791.2192	2974.35	2092.05
913.8513	1792.9009	2984.25	2076.65
913.9917	1794.5818	2982.2	2099.95
914.132	1796.2621	2957.85	2078.9
914.2724	1797.9415	2953.3	2072.9
914.4128	1799.6202	2950.05	2067.5
914.5531	1801.2982	2945.25	2064.3
914.6934	1802.9755	2941.5	2059.3
914.8337	1804.6519	2937.3	2055.1
914.9739	1806.3277	2919.7	2040.95
915.1142	1808.0027	2910.45	2030.3
915.2544	1809.6769	2916.15	2033.55
915.3946	1811.3504	2912.45	2031.4
915.5348	1813.0231	2907.15	2024.2
915.675	1814.6951	2894.1	2014.2
915.8151	1816.3664	2894.75	2011.5
915.9553	1818.0369	2900.85	2019.8
916.0954	1819.7067	2891.5	2011.85
916.2355	1821.3757	2890.15	2007.7
916.3755	1823.044	2886	2007.25
916.5156	1824.7115	2881.65	1998.4
916.6556	1826.3783	2875.65	1997.85
916.7956	1828.0443	2848.25	1967.65
916.9356	1829.7096	2854.2	1974.35
917.0756	1831.3741	2852.15	1966.6
917.2155	1833.0379	2847.8	1964.65
917.3555	1834.701	2841.15	1959.65
917.4954	1836.3633	2838.05	1956.2
917.6353	1838.0248	2838.95	1953.9
917.7751	1839.6856	2839.75	1961.4
917.915	1841.3457	2833.25	1952.85
918.0548	1843.005	2817.2	1934.3
918.1946	1844.6636	2825.6	1946.7
918.3344	1846.3214	2824	1941.95
918.4742	1847.9785	2810.8	1932.4
918.6139	1849.6349	2799.9	1916.3
918.7537	1851.2904	2806.9	1917
918.8934	1852.9453	2798.6	1917.5
919.0331	1854.5994	2797.65	1913.7
919.1727	1856.2528	2799.8	1915.6
919.3124	1857.9054	2798	1917.05
919.452	1859.5572	2793.85	1916.1
919.5916	1861.2083	2780.5	1897.3
919.7312	1862.8587	2775.15	1892.95
919.8708	1864.5084	2778.25	1898.3
920.0103	1866.1572	2758.15	1878
920.1498	1867.8054	2755	1874.3
920.2893	1869.4528	2755.9	1875.55
920.4288	1871.0994	2750.7	1870.35
920.5683	1872.7453	2741.85	1861.9
920.7077	1874.3905	2741.4	1853.95
920.8471	1876.0349	2728.45	1846.1
920.9865	1877.6786	2722.85	1840.3
921.1259	1879.3215	2733.6	1849.65
921.2653	1880.9637	2733.4	1852.35
921.4046	1882.6051	2704	1823.15
921.5439	1884.2458	2706.35	1822.15
921.6832	1885.8858	2700.45	1821.2
921.8225	1887.525	2707.3	1823.4
921.9617	1889.1634	2692.7	1814.2
922.101	1890.8011	2690.05	1810.3
922.2402	1892.4381	2668.55	1789
922.3794	1894.0743	2674.4	1793.65
922.5185	1895.7098	2663.7	1781.2
922.6577	1897.3446	2659.4	1778.3
922.7968	1898.9786	2668.9	1786.35
922.9359	1900.6118	2662.3	1780.9
923.075	1902.2443	2642.5	1760.7
923.214	1903.8761	2646.55	1766.05
923.3531	1905.5071	2625.9	1743.95
923.4921	1907.1374	2637.1	1755.6
923.6311	1908.7669	2628.5	1746.1
923.77	1910.3957	2629.9	1749.3
923.909	1912.0237	2605.85	1723.95
924.0479	1913.651	2608.2	1727
924.1868	1915.2776	2591.5	1711.35
924.3257	1916.9034	2604.5	1725.9
924.4646	1918.5285	2586.1	1706.75
924.6034	1920.1528	2589.1	1706.4
924.7422	1921.7764	2588.2	1705.95
924.881	1923.3992	2584.5	1704.7
925.0198	1925.0213	2566	1685.65
925.1586	1926.6427	2566.45	1686.35
925.2973	1928.2633	2750.65	1646.15
925.436	1929.8832	2585.45	1702.5
925.5747	1931.5023	2556.45	1675.65
925.7134	1933.1207	2545.35	1664.15
925.852	1934.7383	2546.9	1665.35
925.9906	1936.3552	2535.25	1655.65
926.1292	1937.9714	2543.95	1662.1
926.2678	1939.5868	2524.45	1643.55
926.4064	1941.2015	2514.05	1633.75
926.5449	1942.8154	2516.75	1636.15
926.6834	1944.4286	2502.35	1622.25
926.8219	1946.041	2505.1	1601.25
926.9604	1947.6528	2488.45	1603.9
927.0988	1949.2637	2472.8	1591.1
927.2372	1950.8739	2472.4	1591.35
927.3756	1952.4834	2468.75	1586.4
927.514	1954.0921	2470.9	1588.55
927.6523	1955.7001	2468	1582.75
927.7907	1957.3074	2459.55	1580.05
927.929	1958.9139	2448.35	1569.6
928.0673	1960.5197	2444.35	1562.2
928.2055	1962.1247	2442.45	1562.2
928.3438	1963.729	2425.15	1546.55
928.482	1965.3325	2444.75	1541.6
928.6202	1966.9353	2420.05	1540.65
928.7584	1968.5374	2417.6	1536.8
928.8965	1970.1387	2408.3	1525.3
929.0346	1971.7393	2405.15	1522.75
929.1727	1973.3392	2394.45	1512.65
929.3108	1974.9383	2403.1	1521.35
929.4489	1976.5366	2387.05	1506
929.5869	1978.1342	2396.1	1514.3
929.7249	1979.7311	2393.85	1512.5
929.8629	1981.3273	2382.25	1500.85
930.0009	1982.9227	2371.1	1489.3
930.1388	1984.5173	2370.35	1490
930.2767	1986.1112	2357.15	1475.85
930.4146	1987.7044	2361.1	1481.45
930.5525	1989.2968	2351.25	1469.65
930.6904	1990.8885	2357.6	1471.2
930.8282	1992.4795	2352.8	1468.2
930.966	1994.0697	2348.6	1466.7
931.1038	1995.6592	2337.2	1457.85
931.2415	1997.2479	2330.05	1447.1
931.3793	1998.8359	2337.75	1457
931.517	2000.4232	2321.6	1442.3
931.6547	2002.0097	2315.1	1434.3
931.7923	2003.5955	2324.05	1442.4
931.93	2005.1805	2316.6	1432.35
932.0676	2006.7648	2309.75	1430.2
932.2052	2008.3484	2310.85	1429.15
932.3427	2009.9312	2305.8	1421.5
932.4803	2011.5133	2303	1425.75
932.6178	2013.0946	2286.9	1406.1
932.7553	2014.6752	2284.3	1402.65
932.8928	2016.2551	2279.7	1398.5
933.0302	2017.8342	2268.8	1388
933.1676	2019.4126	2281.5	1401
933.305	2020.9902	2268.9	1388.6
933.4424	2022.5672	2269.1	1387.25
933.5798	2024.1433	2269.15	1381.7
933.7171	2025.7188	2262.9	1383.2
933.8544	2027.2935	2256.25	1374.65
933.9917	2028.8674	2251.75	1372.5
934.129	2030.4406	2252.7	1370.65
934.2662	2032.0131	2247.7	1367.7
934.4034	2033.5849	2239.9	1352.05
934.5406	2035.1559	2238.9	1360.05
934.6778	2036.7261	2229.7	1348.25
934.8149	2038.2957	2224.9	1343.1
934.952	2039.8645	2226.25	1345.5
935.0891	2041.4325	2217.05	1332.9
935.2262	2042.9998	2213.95	1335.4
935.3632	2044.5664	2218.85	1334.95
935.5002	2046.1323	2208.1	1331.15
935.6372	2047.6974	2215.8	1334.45
935.7742	2049.2617	2206.85	1326.6
935.9111	2050.8254	2231.3	1317.8
936.048	2052.3883	2209.75	1327.7
936.1849	2053.9504	2194.3	1311.55
936.3218	2055.5118	2201.25	1319.05
936.4586	2057.0725	2193.3	1307.9
936.5955	2058.6325	2194.35	1314.3
936.7323	2060.1917	2183.45	1301.8
936.869	2061.7502	2171.95	1286.3
937.0058	2063.3079	2183.55	1301.2
937.1425	2064.8649	2169.8	1285.7
937.2792	2066.4212	2163.65	1280.4
937.4159	2067.9767	2166	1284.05
937.5525	2069.5315	2159.25	1278.95
937.6891	2071.0856	2153	1271.75
937.8257	2072.6389	2149.8	1268.4
937.9623	2074.1915	2138.45	1257.25
938.0989	2075.7433	2128.35	1245.45
938.2354	2077.2945	2129.55	1249.05
938.3719	2078.8448	2126.6	1247.85
938.5084	2080.3945	2126.75	1246.5
938.6448	2081.9434	2120.65	1239.95
938.7812	2083.4916	2115.6	1234.7
938.9176	2085.039	2119.75	1235.95
939.054	2086.5857	2109.85	1230.2
939.1903	2088.1317	2100.5	1217.55
939.3267	2089.677	2111.9	1232.05
939.463	2091.2215	2100.65	1221.35
939.5992	2092.7652	2095.6	1213.65
939.7355	2094.3083	2096.55	1216.25
939.8717	2095.8506	2085.75	1206.05
940.0079	2097.3921	2090.2	1209.95
940.1441	2098.933	2085.7	1204.25
940.2802	2100.4731	2084.2	1202.85
940.4163	2102.0124	2095.1	1207.05
940.5524	2103.5511	2081.1	1200
940.6885	2105.089	2077.9	1196
940.8245	2106.6261	2075.75	1194.8
940.9606	2108.1626	2066.95	1183.05
941.0965	2109.6983	2081.05	1167.6
941.2325	2111.2332	2074.7	1195.75
941.3684	2112.7675	2063.55	1181.3
941.5044	2114.301	2064.9	1182.65
941.6403	2115.8337	2059.6	1178
941.7761	2117.3657	2051.25	1168.9
941.912	2118.897	2058.5	1179.25
942.0478	2120.4276	2046.9	1159.6
942.1835	2121.9575	2052	1169.65
942.3193	2123.4866	2047.55	1152.6
942.455	2125.0149	2033.95	1152
942.5907	2126.5426	2032.25	1151.05
942.7264	2128.0695	2036.45	1150.55
942.8621	2129.5956	2020.85	1140.65
942.9977	2131.1211	2027.05	1140.55
943.1333	2132.6458	2021.95	1141.4
943.2689	2134.1698	2023.7	1144.55
943.4044	2135.693	2023.3	1141.1
943.54	2137.2155	2015.95	1131.4
943.6755	2138.7373	2009.55	1127.35
943.8109	2140.2584	2006.85	1125
943.9464	2141.7787	2014.4	1127.05
944.0818	2143.2983	1997.4	1115.9
944.2172	2144.8171	1988.4	1109.75
944.3526	2146.3353	1990.95	1106.8
944.4879	2147.8527	1993	1115.1
944.6232	2149.3693	1987.7	1106.2
944.7585	2150.8853	1982.05	1100.3
944.8938	2152.4005	1971.65	1091
945.029	2153.9149	1981.25	1100.2
945.1642	2155.4287	1972.6	1090.35
945.2994	2156.9417	1974.6	1090.9
945.4346	2158.454	1973.55	1089.9
945.5697	2159.9655	1963.85	1084.15
945.7048	2161.4764	1965.95	1084.5
945.8399	2162.9865	1956.4	1076.75
945.9749	2164.4958	1963.65	1081.35
946.1099	2166.0045	1960.35	1076.4
946.2449	2167.5124	1956.25	1075.9
946.3799	2169.0195	1946.85	1066.65
946.5148	2170.526	1958.45	1075.1
946.6498	2172.0317	1944.45	1062.6
946.7846	2173.5367	1948.05	1065.05
946.9195	2175.0409	1944.95	1065.15
947.0543	2176.5445	1936.2	1055.7
947.1891	2178.0473	1939.9	1059.5
947.3239	2179.5494	1934.1	1051.15
947.4587	2181.0507	1930.9	1049.55
947.5934	2182.5513	1929.6	1050.45
947.7281	2184.0512	1918.5	1035.65
947.8628	2185.5504	1917.9	1036.7
947.9974	2187.0488	1910.45	1029.55
948.132	2188.5465	1917	1035.5
948.2666	2190.0435	1911.1	1029
948.4012	2191.5397	1910.75	1030.35
948.5357	2193.0353	1909.85	1028.6
948.6702	2194.5301	1903.2	1019.85
948.8047	2196.0241	1894.7	1012.25
948.9392	2197.5175	1894.1	1014.15
949.0736	2199.0101	1895.55	1010.65
949.208	2200.502	1888.6	1008.9
949.3424	2201.9931	1876.35	996.4
949.4767	2203.4835	1882.75	999.05
949.611	2204.9733	1880.55	993.8
949.7453	2206.4622	1875.1	994.1
949.8796	2207.9505	1878.2	994.2
950.0138	2209.438	1864.8	984.05
950.148	2210.9248	1853.9	969.25
950.2822	2212.4109	1857.6	976.45
950.4164	2213.8962	1853.6	971.1
950.5505	2215.3809	1863.6	981.5
950.6846	2216.8648	1859.45	978.5
950.8186	2218.3479	1853	967.8
950.9527	2219.8304	1839.85	954.75
951.0867	2221.3121	1833.05	951.5
951.2207	2222.7931	1831.1	949.85
951.3546	2224.2733	1828.6	945.1
951.4886	2225.7529	1835.35	954
951.6225	2227.2317	1837.75	955.9
951.7563	2228.7098	1833.55	951.65
951.8902	2230.1872	1819.05	939.1
952.024	2231.6638	1815.1	934.9
952.1578	2233.1397	1825.25	938.7
952.2916	2234.6149	1808.25	927.55
952.4253	2236.0894	1812.3	929.7
952.559	2237.5632	1807.1	915.85
952.6927	2239.0362	1799.55	917.05
952.8263	2240.5085	1803.55	921.2
952.9599	2241.9801	1800.6	918.6
953.0935	2243.4509	1792.65	910.7
953.2271	2244.921	1787.7	906.4
953.3606	2246.3904	1794.55	911.85
953.4941	2247.8591	1787.7	906.15
953.6276	2249.3271	1779.85	898.5
953.7611	2250.7943	1773.9	893.7
953.8945	2252.2608	1777.55	895.7
954.0279	2253.7266	1772.4	890.95
954.1612	2255.1917	1765.2	884.7
954.2946	2256.656	1777.95	893.9
954.4279	2258.1197	1762.3	883.7
954.5612	2259.5826	1763.3	879.5
954.6944	2261.0447	1760	879.25
954.8276	2262.5062	1758.75	876.2
954.9608	2263.9669	1758.05	874.7
955.094	2265.4269	1752.55	873.8
955.2271	2266.8862	1756.05	875.3
955.3602	2268.3448	1751.95	870.35
955.4933	2269.8026	1752	868.7
955.6264	2271.2598	1745.7	864.05
955.7594	2272.7162	1732.7	851.4
955.8924	2274.1719	1748.35	866.4
956.0253	2275.6268	1739.25	856.7
956.1583	2277.0811	1731.75	848.5
956.2912	2278.5346	1735.4	854.2
956.4241	2279.9874	1738.35	856.75
956.5569	2281.4395	1735.55	854.05
956.6897	2282.8908	1741.85	856.45
956.8225	2284.3414	1729.9	845.7
956.9553	2285.7914	1729.25	847.5
957.088	2287.2406	1726.75	843.6
957.2207	2288.689	1725.7	845.15
957.3534	2290.1368	1724.9	840.4
957.486	2291.5838	1721.8	838.3
957.6186	2293.0302	1719.4	836.75
957.7512	2294.4758	1706.8	825.05
957.8838	2295.9206	1707	824.85
958.0163	2297.3648	1702	820.6
958.1488	2298.8082	1696.55	815.1
958.2813	2300.251	1697.45	815.55
958.4137	2301.693	1703.15	818.95
958.5461	2303.1343	1691.45	807.9
958.6785	2304.5748	1697.3	814.95
958.8108	2306.0147	1691.95	811.7
958.9432	2307.4538	1697.95	813.85
959.0754	2308.8922	1682.65	803.6
959.2077	2310.3299	1686.8	804.7
959.3399	2311.7669	1681.75	799.95
959.4721	2313.2031	1673.25	791.3
959.6043	2314.6387	1673.45	792
959.7365	2316.0735	1673.9	792.3
959.8686	2317.5076	1669.6	788.6
960.0006	2318.941	1671.35	790.25
960.1327	2320.3737	1663.25	782.25
960.2647	2321.8056	1667.85	783.2
960.3967	2323.2369	1661.05	778.15
960.5287	2324.6674	1660.4	775.85
960.6606	2326.0972	1670.15	786.05
960.7925	2327.5263	1656.3	774.55
960.9244	2328.9547	1659.75	779.45
961.0562	2330.3823	1656.6	773.65
961.1881	2331.8092	1650.35	766.65
961.3198	2333.2355	1646.8	766.1
961.4516	2334.661	1642.5	761.75
961.5833	2336.0858	1647.05	765.65
961.715	2337.5098	1642.2	760.35
961.8467	2338.9332	1641.35	760.4
961.9783	2340.3558	1638.05	753.35
962.1099	2341.7778	1641.05	759.1
962.2415	2343.199	1635.8	751.35
962.373	2344.6195	1638.6	757.75
962.5045	2346.0393	1629.2	748
962.636	2347.4583	1627.8	746.15
962.7675	2348.8767	1638.55	755.9
962.8989	2350.2943	1631.55	750.4
963.0303	2351.7113	1631.65	747
963.1617	2353.1275	1627.4	747.25
963.293	2354.543	1654.4	749.9
963.4243	2355.9578	1631.3	751.1
963.5556	2357.3718	1620.7	740.55
963.6868	2358.7852	1621.8	736.85
963.818	2360.1978	1609.45	723.85
963.9492	2361.6098	1614.95	733.2
964.0803	2363.021	1614.3	728.7
964.2114	2364.4315	1611.1	730.8
964.3425	2365.8413	1612.05	728.2
964.4736	2367.2504	1608	726.4
964.6046	2368.6587	1602.55	721.7
964.7356	2370.0664	1594.5	716.85
964.8666	2371.4733	1596.55	715.25
964.9975	2372.8795	1598.05	717.05
965.1284	2374.285	1595.1	712
965.2593	2375.6899	1589.8	709.6
965.3901	2377.0939	1587.55	705.5
965.5209	2378.4973	1584.3	704.2
965.6517	2379.9	1583.8	701.85
965.7825	2381.3019	1583.75	704.6
965.9132	2382.7032	1579.2	695.9
966.0439	2384.1037	1582.95	704.6
966.1745	2385.5035	1570.75	688.75
966.3051	2386.9027	1572.35	694.65
966.4357	2388.3011	1570.6	688.7
966.5663	2389.6987	1572.3	687.85
966.6968	2391.0957	1562.55	684.75
966.8273	2392.492	1563.55	683.55
966.9578	2393.8876	1558.05	676.65
967.0882	2395.2824	1552.75	671.95
967.2186	2396.6765	1542.4	662.85
967.349	2398.07	1550.3	672.7
967.4793	2399.4627	1547.4	667.25
967.6097	2400.8547	1545.95	664.7
967.7399	2402.246	1547.4	662.2
967.8702	2403.6366	1544.8	664.25
968.0004	2405.0265	1544.45	664.1
968.1306	2406.4156	1540.65	656.7
968.2607	2407.8041	1549.25	665.75
968.3909	2409.1918	1540.4	656.85
968.521	2410.5789	1539.75	659.35
968.651	2411.9652	1539.95	657.05
968.781	2413.3508	1533.15	653.8
968.911	2414.7358	1534.25	654.4
969.041	2416.12	1530.35	649.35
969.1709	2417.5035	1520.4	640.25
969.3008	2418.8863	1529.55	648.4
969.4307	2420.2684	1521.15	639.85
969.5606	2421.6497	1520.35	639
969.6904	2423.0304	1515.9	637.5
969.8201	2424.4104	1514.1	633.35
969.9499	2425.7896	1516.5	628.5
970.0796	2427.1682	1504.1	623.25
970.2093	2428.546	1512.05	629.6
970.3389	2429.9232	1507.35	626.3
970.4685	2431.2996	1509.5	631.35
970.5981	2432.6753	1501.9	621.2
970.7277	2434.0503	1493.8	612.55
970.8572	2435.4246	1495.45	615.7
970.9867	2436.7982	1495.8	615.2
971.1161	2438.1711	1502.8	623.9
971.2456	2439.5433	1492.1	610.2
971.375	2440.9148	1498.65	613.05
971.5043	2442.2856	1487.45	606.15
971.6336	2443.6557	1489.65	607.55
971.7629	2445.025	1487.55	606.55
971.8922	2446.3937	1491.9	611.75
972.0214	2447.7617	1486.55	605.5
972.1506	2449.1289	1486.55	607.3
972.2798	2450.4955	1493.65	608.8
972.4089	2451.8613	1483.4	605.05
972.538	2453.2265	1477.4	596
972.6671	2454.5909	1482.05	602
972.7961	2455.9546	1477.4	596.7
972.9251	2457.3177	1480.05	599.85
973.0541	2458.68	1465.95	583.55
973.1831	2460.0416	1474.35	593.05
973.312	2461.4025	1474.6	593.3
973.4408	2462.7627	1485.35	593.4
973.5697	2464.1222	1469.95	590.35
973.6985	2465.4811	1468.65	586.25
973.8273	2466.8392	1472.8	593.35
973.956	2468.1966	1473.55	590.55
974.0847	2469.5533	1473.15	591.05
974.2134	2470.9093	1470.3	591.15
974.3421	2472.2645	1467.05	582.6
974.4707	2473.6191	1468.65	586.05
974.5993	2474.973	1461.8	579.15
974.7278	2476.3262	1453.4	571.1
974.8563	2477.6787	1464	583.65
974.9848	2479.0305	1457.2	574.8
975.1132	2480.3816	1454.5	572.45
975.2417	2481.7319	1454.5	574
975.37	2483.0816	1451.25	567.9
975.4984	2484.4306	1454.6	574.75
975.6267	2485.7789	1449.05	569.65
975.755	2487.1264	1441.1	558.8
975.8833	2488.4733	1440.05	559.05
976.0115	2489.8195	1456.4	556.5
976.1397	2491.165	1441.25	556.3
976.2678	2492.5097	1438.45	555.85
976.3959	2493.8538	1442.35	561.75
976.524	2495.1972	1432.5	548.5
976.6521	2496.5398	1427.75	545.45
976.7801	2497.8818	1432.8	549.3
976.9081	2499.2231	1423.9	544.6
977.036	2500.5637	1425.55	544.1
977.164	2501.9035	1432.9	551.5
977.2918	2503.2427	1428.8	544.1
977.4197	2504.5812	1421.8	541.65
977.5475	2505.919	1426	543.2
977.6753	2507.256	1423.65	543.05
977.8031	2508.5924	1417.45	536.15
977.9308	2509.9281	1419.9	533.6
978.0585	2511.2631	1421.4	543
978.1861	2512.5974	1424.75	543.9
978.3137	2513.9309	1411.8	529.65
978.4413	2515.2638	1437.05	527.75
978.5689	2516.596	1416.85	538.45
978.6964	2517.9275	1409.95	528.35
978.8239	2519.2583	1406.9	527.8
978.9513	2520.5884	1406.6	523.6
979.0788	2521.9178	1411.4	529.4
979.2062	2523.2465	1404.85	523.15
979.3335	2524.5745	1404.65	523.95
979.4608	2525.9018	1402.1	521.8
979.5881	2527.2284	1405.9	525.7
979.7154	2528.5543	1390.65	512.2
979.8426	2529.8796	1401.3	520.6
979.9698	2531.2041	1394.35	512.85
980.0969	2532.5279	1393.25	512.15
980.224	2533.851	1398.8	516.45
980.3511	2535.1735	1388.9	508.1
980.4781	2536.4952	1392.7	511.85
980.6052	2537.8163	1390.2	508.6
980.7321	2539.1366	1393.5	511.9
980.8591	2540.4562	1386.65	504.45
980.986	2541.7752	1392.75	510.35
981.1129	2543.0935	1390	508.85
981.2397	2544.411	1382.5	502.2
981.3665	2545.7279	1388.7	508.6
981.4933	2547.0441	1384.2	502.5
981.62	2548.3596	1386.5	502.4
981.7467	2549.6744	1383.3	501.75
981.8734	2550.9885	1391.2	503.3
982.0001	2552.3019	1376.35	496.35
982.1267	2553.6146	1379.25	497.9
982.2532	2554.9266	1374.45	491.85
982.3798	2556.2379	1375.25	493.35
982.5063	2557.5485	1373.7	493.75
982.6327	2558.8585	1373.5	484.25
982.7592	2560.1677	1375.9	491.75
982.8856	2561.4762	1370.75	490.75
983.0119	2562.7841	1361.3	476.75
983.1383	2564.0913	1361.6	481.55
983.2646	2565.3977	1365.35	483.35
983.3908	2566.7035	1367.05	486.25
983.517	2568.0086	1365.7	483.4
983.6432	2569.313	1364.45	482.45
983.7694	2570.6167	1362.9	477.45
983.8955	2571.9197	1360.6	480.65
984.0216	2573.222	1363.9	480.45
984.1476	2574.5236	1360.5	479.2
984.2737	2575.8246	1357.3	475
984.3996	2577.1248	1365	482
984.5256	2578.4244	1356	474.4
984.6515	2579.7232	1364.55	482.1
984.7774	2581.0214	1400.15	481.85
984.9032	2582.3189	1362.85	483.05
985.029	2583.6157	1360.55	473.45
985.1548	2584.9118	1359.8	479.95
985.2806	2586.2072	1362.85	481.85
985.4063	2587.5019	1362.3	481.95
985.5319	2588.7959	1360.55	477.55
985.6576	2590.0893	1366.25	482.15
985.7832	2591.3819	1372.3	493.45
985.9087	2592.6739	1365.3	485.6
986.0343	2593.9652	1374.5	492.5
986.1597	2595.2557	1366.85	484.3
986.2852	2596.5456	1368.5	484.8
986.4106	2597.8348	1373.25	494.1
986.536	2599.1234	1378.5	497.9
986.6614	2600.4112	1374	494.3
986.7867	2601.6983	1371.2	485.65
986.912	2602.9848	1386.15	505.95
987.0372	2604.2705	1381.4	493.2
987.1624	2605.5556	1377.95	496.7
987.2876	2606.84	1378.65	498.35
987.4128	2608.1237	1363.6	482.05
987.5379	2609.4067	1367.9	484.75
987.6629	2610.689	1366.25	476.25
987.788	2611.9707	1370.6	486.5
987.913	2613.2516	1368.25	483.65
988.0379	2614.5319	1363	483.15
988.1629	2615.8115	1358.25	479.45
988.2878	2617.0903	1354.25	471.4
988.4126	2618.3685	1360.1	479.2
988.5375	2619.6461	1358.75	476.9
988.6622	2620.9229	1359.95	480.85
988.787	2622.199	1364.3	482.5
988.9117	2623.4745	1360.3	477.85
989.0364	2624.7493	1357.1	475.6
989.161	2626.0234	1346.6	466.55
989.2857	2627.2968	1357.2	477
989.4102	2628.5695	1360.55	479.1
989.5348	2629.8415	1363.8	483.75
989.6593	2631.1128	1359.55	477.4
989.7837	2632.3835	1350.25	471.4
989.9082	2633.6535	1358.85	476.4
990.0326	2634.9228	1354.15	473.3
990.1569	2636.1914	1354.15	472.35
990.2812	2637.4593	1367.25	485
990.4055	2638.7265	1355.75	473.5
990.5298	2639.9931	1361.3	478.4
990.654	2641.259	1349.45	468.35
990.7782	2642.5242	1352.9	470.65
990.9023	2643.7887	1355.5	473.5
991.0264	2645.0525	1341.2	459.95
991.1505	2646.3156	1348.1	464.5
991.2745	2647.5781	1352.35	472.7
991.3985	2648.8398	1339.05	459.3
991.5225	2650.1009	1377.05	458.35
991.6464	2651.3613	1341.8	460.3
991.7703	2652.6211	1341.75	460.75
991.8942	2653.8801	1335.85	454.95
992.018	2655.1385	1341.75	459.2
992.1418	2656.3961	1341	460.95
992.2655	2657.6531	1338.7	457.6
992.3892	2658.9094	1340.5	458.05
992.5129	2660.1651	1338.6	454.45
992.6366	2661.42	1341.5	460.3
992.7602	2662.6743	1348.15	465.7
992.8837	2663.9279	1343.9	464.3
993.0073	2665.1808	1344.45	463.05
993.1307	2666.433	1350.75	467.9
993.2542	2667.6846	1344.8	465.55
993.3776	2668.9354	1348.85	465.25
993.501	2670.1856	1347.95	468.1
993.6244	2671.4351	1348.3	469.1
993.7477	2672.6839	1358.4	476.25
993.8709	2673.9321	1352.3	469.95
993.9942	2675.1795	1365.5	483.85
994.1174	2676.4263	1356.4	474.9
994.2405	2677.6724	1363.5	482.5
994.3637	2678.9179	1368.25	486.35
994.4868	2680.1626	1365.9	484.2
994.6098	2681.4067	1364.35	480.55
994.7328	2682.6501	1365.15	483.8
994.8558	2683.8928	1365.35	483.35
994.9788	2685.1348	1360.8	479.8
995.1017	2686.3761	1353	471.05
995.2245	2687.6168	1356.9	477.9
995.3474	2688.8568	1356.8	476.85
995.4702	2690.0961	1353.35	473.55
995.5929	2691.3348	1346.15	464.3
995.7156	2692.5727	1346.05	465.4
995.8383	2693.81	1340.15	458.85
995.961	2695.0466	1339.7	458.4
996.0836	2696.2826	1332.15	449.2
996.2062	2697.5178	1344.5	459.8
996.3287	2698.7524	1339.2	457.65
996.4512	2699.9863	1347.35	462.6
996.5737	2701.2195	1343.3	463.3
996.6961	2702.452	1352.15	468.55
996.8185	2703.6839	1356.15	474.3
996.9408	2704.9151	1352.5	472.05
997.0631	2706.1456	1357.35	475.5
997.1854	2707.3755	1366.65	485.35
997.3077	2708.6046	1373.5	488.95
997.4299	2709.8331	1378.55	495.75
997.552	2711.0609	1387.55	506.25
997.6742	2712.2881	1396.5	516.65
997.7963	2713.5145	1404.85	522.15
997.9183	2714.7403	1408.2	528.6
998.0403	2715.9654	1425.15	541.8
998.1623	2717.1899	1445.25	549.75
998.2842	2718.4136	1445.1	565.1
998.4062	2719.6367	1444.95	562.8
998.528	2720.8591	1469.35	579.6
998.6498	2722.0809	1473.1	591.65
998.7716	2723.3019	1484.85	598.55
998.8934	2724.5223	1490.3	608.05
999.0151	2725.7421	1490.5	605.35
999.1368	2726.9611	1494.45	611.8
999.2584	2728.1795	1502	616.25
999.38	2729.3972	1488.25	606.45
999.5016	2730.6142	1485.65	592
999.6231	2731.8306	1468.2	586.1
999.7446	2733.0462	1451.75	567.3
999.8661	2734.2612	1441.2	554.8
999.9875	2735.4756	1418.75	536.6
1000.1089	2736.6892	1409.8	526.5
1000.2302	2737.9022	1386.8	507.75
1000.3515	2739.1145	1385.05	503.45
1000.4728	2740.3262	1371.2	483.3
1000.594	2741.5372	1358.35	478.65
1000.7152	2742.7475	1354.15	472.1
1000.8363	2743.9571	1340.05	456.95
1000.9575	2745.1661	1338.35	452.95
1001.0785	2746.3744	1331.15	449.35
1001.1996	2747.582	1318.45	438.1
1001.3206	2748.7889	1311.85	428.4
1001.4415	2749.9952	1309.4	428.1
1001.5625	2751.2008	1299.9	418.45
1001.6833	2752.4057	1294.85	411.25
1001.8042	2753.61	1296.3	413.3
1001.925	2754.8136	1296.95	413.65
1002.0458	2756.0165	1285.65	404.35
1002.1665	2757.2188	1289.65	410
1002.2872	2758.4204	1290	409.5
1002.4078	2759.6213	1296.75	413.25
1002.5285	2760.8215	1296.7	410
1002.649	2762.0211	1288.8	406.4
1002.7696	2763.22	1290.65	404.35
1002.8901	2764.4182	1288.7	407.55
1003.0106	2765.6158	1286	406.65
1003.131	2766.8127	1285	402.65
1003.2514	2768.009	1278.55	396.6
1003.3717	2769.2045	1281.75	398.1
1003.492	2770.3994	1278.35	395.75
1003.6123	2771.5936	1275.8	392.8
1003.7325	2772.7872	1272.8	392.65
1003.8527	2773.9801	1275.55	392.6
1003.9729	2775.1723	1281.85	383.2
1004.093	2776.3639	1269.45	389.45
1004.2131	2777.5548	1274.65	392.75
1004.3331	2778.745	1280	397.05
1004.4531	2779.9346	1273.35	392.45
1004.5731	2781.1235	1279.1	395.85
1004.693	2782.3117	1279.6	400.8
1004.8129	2783.4992	1281.6	398.65
1004.9328	2784.6861	1291.2	410.3
1005.0526	2785.8723	1300.75	417.6
1005.1723	2787.0579	1301.2	418.35
1005.2921	2788.2428	1312.8	432.1
1005.4118	2789.427	1322.15	442.85
1005.5314	2790.6106	1327.7	446.9
1005.651	2791.7935	1336.75	456.45
1005.7706	2792.9757	1347.8	469.55
1005.8902	2794.1573	1361.05	477.45
1006.0097	2795.3382	1373.1	493.55
1006.1291	2796.5184	1388.45	509.95
1006.2485	2797.698	1408	523.3
1006.3679	2798.8769	1426.35	544.75
1006.4873	2800.0551	1443.8	561.4
1006.6066	2801.2327	1455.4	572.85
1006.7258	2802.4096	1475	594.55
1006.8451	2803.5859	1492.8	608.85
1006.9642	2804.7615	1512.75	630.45
1007.0834	2805.9364	1539	658.05
1007.2025	2807.1106	1566.65	685.8
1007.3216	2808.2842	1599.55	715.85
1007.4406	2809.4572	1625.45	745.25
1007.5596	2810.6294	1660.05	776.25
1007.6785	2811.801	1690.5	811.2
1007.7975	2812.972	1729	846.3
1007.9163	2814.1423	1781.35	900.9
1008.0352	2815.3119	1823.6	941.05
1008.154	2816.4808	1868.65	990.1
1008.2727	2817.6491	1911.65	1029.75
1008.3914	2818.8167	1963.7	1084.95
1008.5101	2819.9837	2017.8	1131.6
1008.6288	2821.15	2043.45	1164.05
1008.7474	2822.3157	2081.4	1201.2
1008.8659	2823.4807	2141.3	1257.5
1008.9844	2824.645	2167	1285.8
1009.1029	2825.8086	2212.25	1330.9
1009.2214	2826.9716	2238.15	1358.55
1009.3398	2828.134	2290.45	1409.3
1009.4581	2829.2957	2317	1435.9
1009.5764	2830.4567	2336.7	1457.15
1009.6947	2831.617	2357.95	1475.5
1009.813	2832.7767	2365.55	1483.9
1009.9312	2833.9358	2369.95	1489.7
1010.0493	2835.0941	2357.35	1474.85
1010.1675	2836.2519	2357.65	1476.05
1010.2855	2837.4089	2340.45	1459
1010.4036	2838.5653	2336.6	1454.4
1010.5216	2839.7211	2333.4	1453.55
1010.6396	2840.8761	2349.7	1466.4
1010.7575	2842.0306	2355.5	1475.95
1010.8754	2843.1843	2387	1506.6
1010.9932	2844.3374	2442.4	1561.7
1011.111	2845.4899	2503.55	1621.45
1011.2288	2846.6417	2570.4	1688.8
1011.3465	2847.7928	2658.3	1777.1
1011.4642	2848.9433	2702.95	1821.6
1011.5818	2850.0931	2778.55	1895.65
1011.6995	2851.2422	2870.35	1988.15
1011.817	2852.3907	2938.7	2056.45
1011.9345	2853.5385	2990.35	2106.35
1012.052	2854.6857	3071.65	2164.7
1012.1695	2855.8323	3106.05	2226
1012.2869	2856.9781	3148.1	2267.25
1012.4042	2858.1233	3189.95	2308.5
1012.5216	2859.2679	3221.75	2341
1012.6389	2860.4118	3267.95	2386.45
1012.7561	2861.555	3312.5	2426.85
1012.8733	2862.6976	3344.7	2463.5
1012.9905	2863.8395	3363.2	2481
1013.1076	2864.9808	3391.2	2509.1
1013.2247	2866.1214	3410.95	2530.8
1013.3417	2867.2614	3421.05	2538.1
1013.4587	2868.4007	3425.3	2543.95
1013.5757	2869.5393	3443.95	2561.2
1013.6926	2870.6773	3467	2584.45
1013.8095	2871.8146	3463.7	2579.85
1013.9263	2872.9513	3468.5	2584.65
1014.0431	2874.0874	3448.6	2565.5
1014.1599	2875.2227	3461.6	2579.15
1014.2766	2876.3574	3442.1	2559.9
1014.3933	2877.4915	3442.3	2560.8
1014.51	2878.6249	3404.85	2524
1014.6266	2879.7577	3385.7	2503.35
1014.7431	2880.8898	3382.1	2491.2
1014.8596	2882.0212	3335.7	2456.4
1014.9761	2883.152	3338.2	2455.85
1015.0925	2884.2821	3336	2455.85
1015.2089	2885.4116	3319.7	2439.95
1015.3253	2886.5405	3320.75	2439.65
1015.4416	2887.6686	3321.35	2436.9
1015.5579	2888.7962	3332.25	2452.6
1015.6741	2889.923	3334.65	2454.4
1015.7903	2891.0493	3346.9	2466
1015.9065	2892.1748	3362.45	2481.4
1016.0226	2893.2997	3375.15	2494.6
1016.1387	2894.424	3389.4	2510.7
1016.2547	2895.5476	3411.2	2530.3
1016.3707	2896.6706	3422.15	2540.05
1016.4866	2897.7929	3461	2578.1
1016.6025	2898.9145	3494	2612.15
1016.7184	2900.0355	3517.95	2635.2
1016.8342	2901.1559	3537.85	2655.2
1016.95	2902.2756	3568.5	2687.5
1017.0658	2903.3946	3617.55	2735.75
1017.1815	2904.513	3644.85	2762.9
1017.2971	2905.6308	3656.35	2776.15
1017.4127	2906.7479	3667.95	2786.45
1017.5283	2907.8643	3683.75	2802.2
1017.6439	2908.9801	3717.3	2838.05
1017.7594	2910.0953	3732.95	2851.6
1017.8748	2911.2098	3722.15	2836.75
1017.9902	2912.3236	3722.1	2831.65
1018.1056	2913.4368	3712.2	2825.25
1018.2209	2914.5494	3695.25	2814.15
1018.3362	2915.6613	3676.6	2788.5
1018.4515	2916.7725	3648.15	2763.75
1018.5667	2917.8831	3613.05	2730
1018.6819	2918.9931	3588.6	2706.9
1018.797	2920.1024	3565.3	2685
1018.9121	2921.211	3543.65	2663.45
1019.0271	2922.319	3518.25	2637.05
1019.1421	2923.4264	3508.2	2626.95
1019.2571	2924.5331	3487.5	2604
1019.372	2925.6391	3487.65	2607.4
1019.4869	2926.7445	3473.25	2594.5
1019.6017	2927.8493	3472.65	2590.85
1019.7165	2928.9534	3458.3	2576.95
1019.8313	2930.0569	3450.45	2566.7
1019.946	2931.1597	3453.25	2572.15
1020.0606	2932.2619	3439.2	2557
1020.1753	2933.3634	3432.35	2550.1
1020.2899	2934.4643	3423.4	2535.55
1020.4044	2935.5645	3407.95	2522
1020.5189	2936.6641	3379.6	2495.85
1020.6334	2937.763	3331.55	2450
1020.7478	2938.8613	3294	2412.35
1020.8622	2939.959	3237	2349.9
1020.9765	2941.056	3160.55	2280.7
1021.0908	2942.1523	3090.95	2207.25
1021.2051	2943.248	3019.05	2136.65
1021.3193	2944.3431	2919.8	2039.5
1021.4334	2945.4375	2823.35	1941.8
1021.5476	2946.5313	2721.25	1841.9
1021.6617	2947.6244	2626.7	1745.6
1021.7757	2948.7169	2523.85	1642
1021.8897	2949.8087	2456.8	1578.45
1022.0037	2950.8999	2371.9	1490.75
1022.1176	2951.9904	2291.85	1411.3
1022.2315	2953.0803	2222.35	1340.55
1022.3453	2954.1696	2160.95	1281.3
1022.4591	2955.2582	2110	1230.6
1022.5728	2956.3462	2059.75	1179
1022.6865	2957.4335	2029.1	1147.5
1022.8002	2958.5202	2012.4	1128.95
1022.9138	2959.6062	1971.25	1090
1023.0274	2960.6916	1959.15	1077.15
1023.141	2961.7764	1938.35	1055.8
1023.2545	2962.8605	1925.15	1043.5
1023.3679	2963.9439	1921.6	1040.45
1023.4813	2965.0267	1911.25	1029.6
1023.5947	2966.1089	1917.5	1009.75
1023.708	2967.1905	1898.25	1017.5
1023.8213	2968.2714	1894.3	1013.6
1023.9346	2969.3516	1893	1011.15
1024.0478	2970.4312	1887.7	1001.05
1024.1609	2971.5102	1885.45	1005
1024.274	2972.5885	1896.2	1017
1024.3871	2973.6662	1909.2	1025.25
1024.5002	2974.7432	1876.35	996
1024.6132	2975.8196	1880.6	1000.8
1024.7261	2976.8954	1878.65	999.6
1024.839	2977.9705	1858.4	978
1024.9519	2979.045	1849.9	970
1025.0647	2980.1188	1843.3	961.9
1025.1775	2981.192	1818.1	938.05
1025.2902	2982.2645	1791.2	909.5
1025.4029	2983.3364	1785.6	903.45
1025.5156	2984.4077	1746.55	866.5
1025.6282	2985.4783	1718.65	829.95
1025.7407	2986.5483	1686.05	805.2
1025.8532	2987.6177	1661.6	781.25
1025.9657	2988.6864	1618.95	738.1
1026.0782	2989.7545	1595.9	715.9
1026.1906	2990.8219	1571.9	691.1
1026.3029	2991.8887	1541.45	657.35
1026.4152	2992.9548	1504	622.35
1026.5275	2994.0204	1482.35	602.65
1026.6397	2995.0852	1458.95	578.45
1026.7519	2996.1495	1435.65	551.75
1026.864	2997.2131	1405	523.55
1026.9761	2998.276	1390.65	509.4
1027.0882	2999.3383	1369.25	487.65
1027.2002	3000.4	1356.85	476.7
1027.3122	3001.4611	1347.45	465.25
1027.4241	3002.5215	1333.9	453.85
1027.536	3003.5812	1314.8	434.8
1027.6478	3004.6404	1309.2	428.85
1027.7596	3005.6989	1294.25	413.4
1027.8714	3006.7567	1286.65	406.35
1027.9831	3007.8139	1314.45	406.75
1028.0947	3008.8705	1273.35	393.75
1028.2064	3009.9264	1276.1	392.7
1028.3179	3010.9818	1268	384.65
1028.4295	3012.0364	1267.85	387.6
1028.541	3013.0905	1268.15	388.1
1028.6524	3014.1439	1261.15	377.65
1028.7638	3015.1966	1259.6	381.4
1028.8752	3016.2487	1260.4	380.95
1028.9865	3017.3002	1271.65	387.6
1029.0978	3018.3511	1262.9	384.15
1029.209	3019.4013	1271.85	389.7
1029.3202	3020.4509	1258.45	377.5
1029.4314	3021.4998	1262	381.25
1029.5425	3022.5481	1261.6	379.75
1029.6535	3023.5958	1264.85	384.95
1029.7645	3024.6428	1270.5	388.7
1029.8755	3025.6892	1263.7	385.5
1029.9864	3026.735	1275.8	394.45
1030.0973	3027.7802	1270.45	389.25
1030.2082	3028.8247	1278.1	398.15
1030.319	3029.8685	1279.1	396.75
1030.4297	3030.9118	1277.25	396.7
1030.5404	3031.9544	1278.9	395.95
1030.6511	3032.9963	1298.6	419.85
1030.7617	3034.0376	1292.5	412.45
1030.8723	3035.0783	1307.3	424.25
1030.9829	3036.1184	1311.85	430.55
1031.0934	3037.1578	1304.15	427
1031.2038	3038.1966	1309.6	428.2
1031.3142	3039.2348	1306.3	428.2
1031.4246	3040.2723	1316.65	426.9
1031.5349	3041.3092	1308.25	430
1031.6452	3042.3455	1304.2	422.7
1031.7554	3043.3811	1305.35	422.6
1031.8656	3044.4161	1300.6	418.65
1031.9758	3045.4505	1291.4	412.4
1032.0859	3046.4842	1292.75	412.95
1032.1959	3047.5173	1278.4	400
1032.3059	3048.5498	1275.85	395.5
1032.4159	3049.5816	1272.5	390.15
1032.5258	3050.6128	1266	384.3
1032.6357	3051.6434	1262.75	380
1032.7455	3052.6734	1255.45	374.45
1032.8553	3053.7027	1253.3	371.5
1032.9651	3054.7314	1238	358.55
1033.0748	3055.7594	1240.2	359.25
1033.1845	3056.7868	1233.85	352.15
1033.2941	3057.8136	1230.9	349.85
1033.4037	3058.8398	1219	336.75
1033.5132	3059.8653	1219.6	337.85
1033.6227	3060.8902	1217.35	336.5
1033.7321	3061.9145	1218.95	338.4
1033.8415	3062.9381	1204.25	322.6
1033.9509	3063.9612	1217.15	321.6
1034.0602	3064.9835	1190.45	308.8
1034.1694	3066.0053	1189.3	305.5
1034.2787	3067.0264	1180.3	300.65
1034.3878	3068.0469	1179.45	298.55
1034.497	3069.0668	1175.15	290.5
1034.6061	3070.086	1160.5	280
1034.7151	3071.1046	1156.95	273.95
1034.8241	3072.1226	1150.6	268.05
1034.9331	3073.1399	1140.6	257.05
1035.042	3074.1567	1126.75	246.35
1035.1508	3075.1727	1119.9	238.25
1035.2597	3076.1882	1109.4	229.95
1035.3684	3077.203	1107.25	228.1
1035.4772	3078.2173	1099.65	218.15
1035.5859	3079.2308	1095.7	212.55
1035.6945	3080.2438	1086	202.2
1035.8031	3081.2561	1074.05	193.6
1035.9117	3082.2678	1069.5	188.9
1036.0202	3083.2789	1061.2	178.3
1036.1286	3084.2893	1061.5	181.65
1036.2371	3085.2991	1055.25	173.65
1036.3454	3086.3083	1049.4	165.45
1036.4538	3087.3169	1045.9	164.05
1036.562	3088.3248	1042.4	159.6
1036.6703	3089.3321	1034.4	153.2
1036.7785	3090.3388	1032.85	153.1
1036.8866	3091.3449	1027.2	146.8
1036.9948	3092.3503	1030.85	147.9
1037.1028	3093.3551	1020.3	141.4
1037.2108	3094.3593	1019.8	139.15
1037.3188	3095.3629	1018.85	138.95
1037.4267	3096.3658	1017.1	135.95
1037.5346	3097.3681	1015.15	133.2
1037.6425	3098.3698	1011.25	127.6
1037.7503	3099.3708	1013.65	126.85
1037.858	3100.3713	1010.3	131.45
1037.9657	3101.3711	1006.75	125.9
1038.0734	3102.3702	1142.25	118.05
1038.181	3103.3688	1005.65	122.6
1038.2886	3104.3667	996.45	116.4
1038.3961	3105.364	996.8	116.3
1038.5036	3106.3607	998.65	116.35
1038.611	3107.3568	997.35	115.85
1038.7184	3108.3522	990.55	109.1
1038.8257	3109.347	996.25	112.85
1038.933	3110.3412	994.05	108.75
1039.0403	3111.3348	989.15	110.45
1039.1475	3112.3277	989.35	109
1039.2547	3113.32	987.9	108.15
1039.3618	3114.3117	991.3	111
1039.4689	3115.3028	985.85	104.75
1039.5759	3116.2932	989.5	107.4
1039.6829	3117.2831	990.4	104.45
1039.7898	3118.2723	981.3	102.05
1039.8967	3119.2608	981.5	100.85
1040.0035	3120.2488	983.6	101.95
1040.1103	3121.2361	984.25	101.25
1040.2171	3122.2229	978.3	98.8
1040.3238	3123.209	979.3	97.3
1040.4305	3124.1944	979.25	97.85
1040.5371	3125.1793	977	95.8
1040.6437	3126.1635	974.9	95.15
1040.7502	3127.1471	976.45	96.4
1040.8567	3128.1301	972.6	91.55
1040.9631	3129.1125	974.5	95.4
1041.0695	3130.0942	972.35	93.95
1041.1759	3131.0753	984.15	94.35
1041.2822	3132.0558	974.9	94
1041.3884	3133.0357	969.65	88.9
1041.4946	3134.015	967.3	84.6
1041.6008	3134.9936	973.3	90.55
1041.7069	3135.9716	986.6	86.35
1041.813	3136.949	966.2	83.7
1041.919	3137.9258	980.65	81.3
1042.025	3138.902	969.95	84.3
1042.1309	3139.8775	962.6	84.1
1042.2368	3140.8524	963.5	83.5
1042.3427	3141.8267	962.35	79.65
1042.4485	3142.8004	963.4	80.25
1042.5542	3143.7735	969.75	81.95
1042.6599	3144.7459	961.1	78.05
1042.7656	3145.7178	958.4	76.3
1042.8712	3146.689	955.1	76.55
1042.9768	3147.6596	960.85	77.4
1043.0823	3148.6295	956.85	76.8
1043.1878	3149.5989	953.5	74.1
1043.2932	3150.5676	953.55	74.35
1043.3986	3151.5357	951.75	72.45
1043.5039	3152.5032	952.4	71.3
1043.6092	3153.4701	950.3	69.7
1043.7145	3154.4364	952.6	70.75
1043.8197	3155.402	951.25	71.8
1043.9248	3156.367	956	72.9
1044.03	3157.3315	989.5	74.7
1044.135	3158.2952	949.8	69.55
1044.24	3159.2584	951.35	71.15
1044.345	3160.221	947.95	67.5
1044.4499	3161.1829	947.5	66.9
1044.5548	3162.1442	944.55	64.05
1044.6596	3163.105	950.95	71.3
1044.7644	3164.065	946.55	64.6
1044.8692	3165.0245	948.05	64.8
1044.9739	3165.9834	945.35	65.9
1045.0785	3166.9416	946.9	66.4
1045.1831	3167.8993	946.3	65.55
1045.2877	3168.8563	944.9	63.55
1045.3922	3169.8127	945.25	65.65
1045.4966	3170.7684	944	64.05
1045.6011	3171.7236	943.4	63.15
1045.7054	3172.6782	941.4	59.85
1045.8098	3173.6321	942.5	61.45
1045.914	3174.5854	945.45	60.4
1046.0183	3175.5381	940.25	60.05
1046.1224	3176.4902	937.85	58.05
1046.2266	3177.4417	937.35	58.25
1046.3307	3178.3926	938.2	56.25
1046.4347	3179.3428	937.75	60.1
1046.5387	3180.2924	938.1	58.95
1046.6427	3181.2415	939.1	57.9
1046.7466	3182.1899	938.4	54.75
1046.8504	3183.1377	939	59.45
1046.9542	3184.0848	940.6	56.2
1047.058	3185.0314	938.25	58.25
1047.1617	3185.9773	936.55	55.8
1047.2654	3186.9227	937.45	56.2
1047.369	3187.8674	936.5	56.7
1047.4726	3188.8115	937.45	53.8
1047.5761	3189.755	939.8	60.75
1047.6796	3190.6979	935.6	57.3
1047.783	3191.6402	933	53.6
1047.8864	3192.5818	935.3	54.75
1047.9898	3193.5229	963.75	55.4
1048.0931	3194.4633	936.1	55.55
1048.1963	3195.4031	933.95	52.4
1048.2995	3196.3423	931.45	52.75
1048.4027	3197.2809	930.4	50.5
1048.5058	3198.2189	932.7	50.7
1048.6089	3199.1563	949.8	51.3
1048.7119	3200.0931	929.25	49.65
1048.8148	3201.0292	929.65	51.25
1048.9178	3201.9648	932.95	52.9
1049.0206	3202.8997	935.45	50.2
1049.1235	3203.834	930.85	50.05
1049.2262	3204.7677	932.2	53.15
1049.329	3205.7008	930.35	50.9
1049.4317	3206.6333	928.45	48.75
1049.5343	3207.5652	932.45	51.7
1049.6369	3208.4964	929	49.75
1049.7394	3209.4271	927.1	48.45
1049.8419	3210.3571	927.4	46.1
1049.9444	3211.2865	927.4	45.95
1050.0468	3212.2154	931.5	50
1050.1491	3213.1436	932.6	49.8
1050.2514	3214.0712	935.15	48.3
1050.3537	3214.9982	926.3	46.5
1050.4559	3215.9246	929	49.8
1050.5581	3216.8503	926.9	46.4
1050.6602	3217.7755	927.65	46.85
1050.7623	3218.7001	926.4	47.15
1050.8643	3219.624	925.05	45.15
1050.9663	3220.5473	923.35	42.1
1051.0682	3221.4701	928.15	48.65
1051.1701	3222.3922	927.4	46.45
1051.2719	3223.3137	924.4	44
1051.3737	3224.2346	924.95	43.85
1051.4754	3225.1549	921.75	41.95
1051.5771	3226.0746	924.4	43.95
1051.6788	3226.9937	920.05	40.25
1051.7804	3227.9121	923.75	44.5
1051.8819	3228.83	924.3	43.9
1051.9834	3229.7473	926	43.9
1052.0849	3230.6639	922.35	42.15
1052.1863	3231.5799	921.15	41.3
1052.2876	3232.4954	925.75	46.45
1052.3889	3233.4102	922.85	43.25
1052.4902	3234.3244	923.55	42.35
1052.5914	3235.238	921.95	40.7
1052.6926	3236.151	945.65	41.4
1052.7937	3237.0634	920.45	39.85
1052.8948	3237.9752	921.15	40.8
1052.9958	3238.8864	923.55	44.45
1053.0968	3239.797	920.35	39.55
1053.1977	3240.7069	920.5	40.15
1053.2986	3241.6163	921.75	41.65
1053.3994	3242.5251	920.3	39.55
1053.5002	3243.4332	918.05	38.4
1053.6009	3244.3408	923	42.15
1053.7016	3245.2477	916.5	39
1053.8022	3246.154	920.8	38.95
1053.9028	3247.0598	921.5	39.65
1054.0034	3247.9649	919.7	38.7
1054.1039	3248.8694	918.75	39.2
1054.2043	3249.7733	917.9	38.4
1054.3047	3250.6766	915.9	37
1054.4051	3251.5793	917	35.2
1054.5054	3252.4814	915.2	34.35
1054.6056	3253.3829	915.55	36.45
1054.7058	3254.2838	916.2	37.75
1054.806	3255.1841	914.95	36
1054.9061	3256.0838	916	35.7
1055.0061	3256.9829	912.6	33.1
1055.1062	3257.8814	918.15	34.75
1055.2061	3258.7792	915.75	35.35
1055.306	3259.6765	913.6	30.55
1055.4059	3260.5731	913.8	36.3
1055.5057	3261.4692	913.4	31.95
1055.6055	3262.3647	910.75	30.05
1055.7052	3263.2595	910.4	29.3
1055.8049	3264.1538	910	31.25
1055.9045	3265.0474	912.9	32.1
1056.0041	3265.9404	910.45	30.3
1056.1036	3266.8329	906.75	27
1056.2031	3267.7247	919	30.75
1056.3025	3268.616	907.5	27.6
1056.4019	3269.5066	905.85	25.35
1056.5013	3270.3966	908.55	25.85
1056.6005	3271.286	904.55	27.3
