Software Version:	3.9.2.0
Unit SN:	10000200
Spectrometer SN:	6960
Date:	3/14/2024 12:40:49 PM
Data Line Index:	25
Spectral Points:	2048
Integration time (ms):	125
Averages:	20
Delay (ms):	30000
Sequence Number:	1
Processing:	dark subtract
Laser Power (mW):	305
Laser Current (mA):	823
Laser Diode Temp (C):	25
Laser Case Temp (C):	27
System Temp (C):	27
Spectrometer Temp (C):	24.6
CCD Temp (C):	0.004
Secondary Temp (C):	20.008
Heatsink Temp (C):	23.081
CCDPCB Temp (C):	36.774
SecondaryPCB Temp (C):	34.384

Wavelength	RamanShift	Raw Counts	Dark Subtracted
787.061	30.1047	416.7	4.25
787.2016	32.3739	417.5	6.3
787.3422	34.6426	417.65	4.2
787.4828	36.9109	420.8	6.4
787.6235	39.1787	425.4	8
787.7642	41.4461	430.8	8.3
787.9049	43.7131	433.65	8.45
788.0456	45.9796	436.45	7.85
788.1863	48.2456	441.95	8.25
788.3271	50.5112	448.75	12.05
788.4679	52.7764	449.75	11.75
788.6087	55.0411	451.95	10.75
788.7496	57.3054	458.65	11.15
788.8904	59.5692	460.8	13.1
789.0313	61.8326	465	11.55
789.1722	64.0955	471.45	14.75
789.3132	66.3579	479.7	16.5
789.4541	68.6199	485	19.65
789.5951	70.8815	494.7	28.5
789.7361	73.1426	508.95	36.35
789.8771	75.4032	537.4	60.75
790.0181	77.6634	598.05	116.7
790.1592	79.9231	739.15	254.5
790.3003	82.1824	1025.95	536.35
790.4414	84.4412	1525.15	1029.35
790.5825	86.6995	2168.65	1661.8
790.7237	88.9574	2805.45	2292.6
790.8648	91.2148	3259.7	2743.45
791.006	93.4717	3467.15	2944.55
791.1472	95.7282	3542.55	3016.4
791.2885	97.9842	3558.1	3029.5
791.4297	100.2398	3534.05	3000.35
791.571	102.4949	3514.7	2978.7
791.7123	104.7495	3506.75	2965.85
791.8536	107.0036	3472.7	2933.3
791.9949	109.2573	3422.3	2881.75
792.1363	111.5105	3386.25	2847
792.2777	113.7632	3295.4	2753.35
792.4191	116.0154	3252.95	2700.4
792.5605	118.2672	3195.55	2649.5
792.7019	120.5185	3132.1	2584.05
792.8434	122.7693	3073.25	2524.85
792.9849	125.0197	3027.15	2476.95
793.1264	127.2696	2974.35	2419.9
793.2679	129.519	2957.75	2402.65
793.4094	131.7679	2930.05	2370.05
793.551	134.0163	2928.35	2364.2
793.6926	136.2642	2911.75	2342.75
793.8342	138.5117	2928.35	2355.2
793.9758	140.7587	2896.35	2322.85
794.1175	143.0052	2867.15	2289.65
794.2591	145.2512	2839	2260.6
794.4008	147.4967	2794.95	2217.5
794.5425	149.7417	2775.45	2195.95
794.6842	151.9863	2750.65	2167.25
794.826	154.2304	2745.35	2158.45
794.9677	156.4739	2736.6	2144.7
795.1095	158.717	2745.45	2153.95
795.2513	160.9596	2766.25	2170.6
795.3931	163.2017	2764.6	2164.75
795.535	165.4433	2776.75	2174.95
795.6768	167.6844	2779.6	2176.8
795.8187	169.925	2763.35	2158.8
795.9606	172.1651	2724.2	2112.55
796.1025	174.4047	2689.55	2077.05
796.2445	176.6439	2662.7	2047
796.3864	178.8825	2654.3	2034.9
796.5284	181.1206	2641.25	2020.05
796.6704	183.3582	2631.65	2006.2
796.8124	185.5954	2630.85	2002.85
796.9544	187.832	2624.05	1992.9
797.0965	190.0681	2629.6	1999.5
797.2386	192.3037	2623.55	1988.05
797.3806	194.5388	2617.85	1979.7
797.5228	196.7734	2627.65	1986.8
797.6649	199.0075	2640	1996
797.807	201.2411	2656	2009.3
797.9492	203.4742	2664.9	2016.2
798.0914	205.7068	2680.75	2034.1
798.2336	207.9389	2690.9	2043.9
798.3758	210.1704	2702.1	2049.75
798.518	212.4015	2707.45	2052.05
798.6603	214.632	2706.1	2049.85
798.8025	216.862	2695.3	2044.45
798.9448	219.0915	2690.15	2046.85
799.0871	221.3205	2698	2057.95
799.2294	223.549	2698.4	2065.05
799.3718	225.777	2701.3	2066.95
799.5141	228.0044	2700.6	2061.75
799.6565	230.2314	2678.55	2042.3
799.7989	232.4578	2672.55	2034.95
799.9413	234.6837	2657.4	2009.8
800.0837	236.909	2652.8	2005.15
800.2262	239.1339	2668.65	1996.4
800.3687	241.3582	2632.25	1979.15
800.5111	243.582	2664.8	1983.15
800.6536	245.8053	2668.75	1993.6
800.7961	248.0281	2649.1	1978.4
800.9387	250.2503	2660.4	1987.25
801.0812	252.472	2660.1	1978.35
801.2238	254.6932	2669.8	1987.35
801.3664	256.9139	2678.1	1993.1
801.509	259.134	2670.75	1985.75
801.6516	261.3536	2678.85	1995.35
801.7942	263.5727	2704.85	2015.95
801.9369	265.7912	2727.05	2041.2
802.0795	268.0092	2760.1	2071.05
802.2222	270.2267	2793.6	2105.15
802.3649	272.4436	2818.9	2129.05
802.5076	274.6601	2833.45	2133.25
802.6504	276.8759	2851.25	2155.8
802.7931	279.0913	2846.45	2151.85
802.9359	281.3061	2864.25	2169.15
803.0787	283.5204	2874.9	2174.55
803.2215	285.7341	2899.55	2198.45
803.3643	287.9473	2903.7	2197.8
803.5071	290.16	2912.55	2202.05
803.6499	292.3721	2878.3	2173.9
803.7928	294.5837	2837	2130.6
803.9357	296.7947	2823.75	2119.65
804.0786	299.0052	2808.45	2103.55
804.2215	301.2152	2800.2	2090.4
804.3644	303.4246	2794.3	2088.1
804.5074	305.6334	2775.05	2068.5
804.6503	307.8418	2763.6	2051.1
804.7933	310.0495	2738.55	2026.15
804.9363	312.2568	2722	2013.1
805.0793	314.4635	2690.35	1980.2
805.2223	316.6696	2670.65	1957.3
805.3653	318.8752	2636.65	1913.1
805.5084	321.0802	2599.55	1882.5
805.6514	323.2847	2598.15	1882.15
805.7945	325.4887	2588.75	1872.95
805.9376	327.692	2590.7	1870.8
806.0807	329.8949	2630.9	1911.6
806.2238	332.0972	2659.45	1939
806.367	334.2989	2681.9	1954.05
806.5101	336.5001	2672.4	1946.85
806.6533	338.7007	2661.55	1935.55
806.7965	340.9008	2628.4	1899.4
806.9397	343.1003	2584.8	1856.05
807.0829	345.2992	2555.85	1826.2
807.2261	347.4976	2514.4	1782.2
807.3693	349.6955	2493.85	1758.35
807.5126	351.8927	2484.65	1747.9
807.6559	354.0895	2475.25	1728
807.7991	356.2856	2468.3	1730.65
807.9424	358.4812	2456.6	1718.55
808.0857	360.6763	2455.6	1715.9
808.2291	362.8707	2443.8	1701.35
808.3724	365.0646	2431.5	1689.3
808.5158	367.258	2435.55	1688.65
808.6591	369.4508	2447.35	1699.3
808.8025	371.643	2468.45	1720.15
808.9459	373.8346	2469.35	1717.65
809.0893	376.0257	2508.15	1757.4
809.2327	378.2162	2525.85	1770.3
809.3762	380.4062	2526.25	1769.55
809.5196	382.5956	2531.25	1770.7
809.6631	384.7844	2489.15	1732.95
809.8066	386.9726	2461.65	1700.95
809.9501	389.1603	2442	1680.9
810.0936	391.3474	2451.95	1659.9
810.2371	393.5339	2424.45	1663.05
810.3806	395.7199	2419.9	1665
810.5241	397.9052	2422.15	1670.35
810.6677	400.09	2433.6	1684.9
810.8113	402.2743	2471.75	1721.7
810.9548	404.4579	2489.2	1737.2
811.0984	406.641	2530.95	1777.4
811.2421	408.8235	2554.45	1802.7
811.3857	411.0054	2576.75	1822.65
811.5293	413.1868	2644.05	1887.9
811.673	415.3675	2719.45	1959.55
811.8166	417.5477	2734.75	1974.05
811.9603	419.7273	2680.25	1917.7
812.104	421.9064	2582.75	1812.45
812.2477	424.0848	2512.7	1743.5
812.3914	426.2627	2483.05	1716.55
812.5351	428.4399	2427.75	1656.85
812.6788	430.6166	2388.6	1612.8
812.8226	432.7928	2364.95	1587.55
812.9663	434.9683	2341.7	1569.1
813.1101	437.1432	2323.45	1546.15
813.2539	439.3176	2297	1517.3
813.3977	441.4914	2295.75	1518.15
813.5415	443.6645	2287.6	1504.25
813.6853	445.8371	2292.1	1509.2
813.8291	448.0091	2282.3	1503.1
813.973	450.1806	2280.95	1498.9
814.1168	452.3514	2274.9	1491.8
814.2607	454.5216	2276.5	1485.15
814.4046	456.6913	2266.45	1481.65
814.5485	458.8603	2256.15	1472.05
814.6924	461.0288	2263.9	1479.55
814.8363	463.1967	2262.4	1476.3
814.9802	465.3639	2263.75	1475.3
815.1241	467.5306	2261.75	1474.55
815.2681	469.6967	2239.9	1453.05
815.412	471.8622	2241.65	1453.3
815.556	474.0271	2235.6	1447.45
815.7	476.1914	2233.15	1441.45
815.844	478.3551	2219.7	1428.65
815.988	480.5182	2237.6	1445.25
816.132	482.6807	2224.4	1432.25
816.276	484.8426	2229.8	1437.5
816.4201	487.0039	2265.95	1471.9
816.5641	489.1647	2286.8	1492.9
816.7082	491.3248	2330.95	1537.95
816.8522	493.4843	2336.65	1543.55
816.9963	495.6432	2327.3	1533.05
817.1404	497.8015	2302.8	1502.6
817.2845	499.9592	2268.75	1472.55
817.4286	502.1163	2248.45	1452.2
817.5727	504.2728	2209.25	1409.15
817.7168	506.4287	2200.45	1403
817.861	508.5839	2180.3	1382.4
818.0051	510.7386	2187.75	1388.9
818.1493	512.8927	2191.15	1387.45
818.2935	515.0461	2191.3	1390.7
818.4377	517.199	2194.4	1395
818.5818	519.3512	2209.4	1410.65
818.726	521.5029	2262.75	1455.5
818.8703	523.6539	2307.45	1506.15
819.0145	525.8043	2308.95	1505.1
819.1587	527.9541	2273.05	1465.85
819.303	530.1033	2219.1	1414.1
819.4472	532.2519	2190.6	1385.95
819.5915	534.3999	2184.1	1377.9
819.7357	536.5472	2167.65	1360.55
819.88	538.694	2159.2	1352.65
820.0243	540.8401	2180.25	1371.65
820.1686	542.9856	2185.85	1375.45
820.3129	545.1305	2201.75	1391.15
820.4572	547.2748	2214	1405.05
820.6016	549.4185	2202.55	1392.95
820.7459	551.5615	2212.75	1403.4
820.8902	553.704	2217.2	1407.05
821.0346	555.8458	2220.15	1408.8
821.1789	557.987	2245.2	1433.3
821.3233	560.1276	2258.2	1444
821.4677	562.2675	2285.15	1474.25
821.6121	564.4069	2333.45	1521.25
821.7565	566.5456	2367.5	1556.75
821.9009	568.6837	2352.65	1540
822.0453	570.8212	2307.2	1496.45
822.1897	572.958	2252.55	1439.8
822.3342	575.0942	2220.5	1407.55
822.4786	577.2299	2202.6	1385.55
822.6231	579.3648	2184.2	1367.9
822.7675	581.4992	2150.4	1333.95
822.912	583.6329	2143.95	1326.7
823.0565	585.766	2159.5	1342.5
823.201	587.8985	2194.8	1379.5
823.3454	590.0304	2226.8	1400.3
823.4899	592.1616	2236.25	1416.65
823.6345	594.2922	2251.45	1432.2
823.779	596.4222	2214.2	1395.45
823.9235	598.5515	2172.5	1351.8
824.068	600.6802	2136.2	1318
824.2126	602.8083	2114.35	1292.9
824.3571	604.9358	2103.2	1280.7
824.5017	607.0626	2097.35	1275.3
824.6462	609.1888	2113.15	1291.8
824.7908	611.3144	2121.8	1298.55
824.9354	613.4393	2137.1	1315.55
825.08	615.5636	2167.9	1346.2
825.2246	617.6873	2199.95	1377.3
825.3692	619.8103	2221.35	1396.65
825.5138	621.9327	2219.7	1394.75
825.6584	624.0544	2210.05	1386.6
825.803	626.1756	2163.25	1339.25
825.9477	628.2961	2132.9	1307.55
826.0923	630.4159	2099.3	1275.05
826.237	632.5351	2094.95	1269.35
826.3816	634.6537	2104.35	1277.7
826.5263	636.7716	2100.8	1272.6
826.6709	638.8889	2089.05	1261.3
826.8156	641.0056	2090.2	1261.7
826.9603	643.1216	2093.15	1263.45
827.105	645.237	2104.65	1273.85
827.2497	647.3518	2088.4	1259.5
827.3944	649.4659	2079.1	1248.5
827.5391	651.5793	2055.1	1226.05
827.6838	653.6922	2045.8	1213.95
827.8285	655.8043	2027.3	1197.15
827.9733	657.9159	2034.05	1200.6
828.118	660.0268	2025.75	1191.3
828.2627	662.137	2029	1196.7
828.4075	664.2466	2023.1	1189.3
828.5522	666.3556	2024.45	1193.6
828.697	668.4639	2020.35	1181.45
828.8418	670.5716	2005.6	1171.6
828.9865	672.6786	2009.4	1175.2
829.1313	674.785	1998.25	1163.2
829.2761	676.8907	1991.7	1157.45
829.4209	678.9958	2005.3	1172.2
829.5657	681.1002	1988.1	1151.15
829.7105	683.204	1997.2	1156.65
829.8553	685.3072	1993.8	1155.4
830.0001	687.4097	1986.7	1150.95
830.1449	689.5115	1992.3	1154.25
830.2898	691.6127	1988	1151.55
830.4346	693.7132	1987.95	1150.95
830.5794	695.8131	1988.55	1136.9
830.7243	697.9123	1997.55	1159.05
830.8691	700.0109	1996.6	1156.65
831.014	702.1089	1999.6	1160.15
831.1588	704.2061	2007.75	1169.2
831.3037	706.3028	2023.15	1182.65
831.4486	708.3987	2031.85	1190.75
831.5935	710.4941	2035.15	1192.85
831.7383	712.5887	2049.75	1206.55
831.8832	714.6827	2045.05	1200.6
832.0281	716.7761	2038.35	1196
832.173	718.8688	2025	1180.1
832.3179	720.9608	2036.55	1191.1
832.4628	723.0522	2029.9	1185.5
832.6077	725.1429	2039.35	1197.35
832.7527	727.233	2081.25	1237.15
832.8976	729.3224	2113.2	1268.15
833.0425	731.4112	2144.75	1299.65
833.1874	733.4993	2157.35	1310.05
833.3324	735.5867	2135.9	1288.95
833.4773	737.6735	2092.85	1247.9
833.6222	739.7596	2052	1205.3
833.7672	741.845	2036.3	1189.75
833.9122	743.9298	2039.65	1192.65
834.0571	746.014	2043.65	1197.85
834.2021	748.0974	2069.25	1221.45
834.347	750.1802	2061.05	1214.15
834.492	752.2624	2047.3	1202.2
834.637	754.3439	2043.2	1194.85
834.782	756.4247	2023.55	1166.05
834.9269	758.5048	2019.95	1172.75
835.0719	760.5843	2027.05	1177.4
835.2169	762.6631	2036.35	1188.75
835.3619	764.7413	2068.3	1221.25
835.5069	766.8188	2124.8	1275.8
835.6519	768.8956	2161.7	1311.8
835.7969	770.9718	2208.65	1358.3
835.9419	773.0473	2189.05	1338.75
836.0869	775.1221	2180.3	1328.9
836.232	777.1962	2169.65	1319.3
836.377	779.2697	2191.6	1339.1
836.522	781.3426	2257	1395.45
836.667	783.4147	2308.3	1457.05
836.8121	785.4862	2298.15	1449.45
836.9571	787.557	2242.45	1392.45
837.1021	789.6271	2162.25	1309.45
837.2472	791.6966	2082.3	1232.1
837.3922	793.7654	2006.35	1153
837.5373	795.8335	1972.6	1121.05
837.6823	797.901	1950.6	1099.45
837.8274	799.9678	1946.65	1094.5
837.9724	802.0339	1944.5	1092.3
838.1175	804.0993	1958.05	1094.7
838.2626	806.1641	1951.7	1098
838.4076	808.2282	1937.05	1082.6
838.5527	810.2916	1919.2	1061.8
838.6978	812.3544	1914.7	1061.5
838.8428	814.4164	1903.45	1051.25
838.9879	816.4778	1912.95	1059.15
839.133	818.5385	1914.6	1060.65
839.2781	820.5986	1938.2	1084.7
839.4232	822.658	1966.15	1109.25
839.5682	824.7166	2006.65	1150.1
839.7133	826.7747	2051.55	1199.2
839.8584	828.832	2106.65	1252.4
840.0035	830.8886	2145.9	1289.8
840.1486	832.9446	2161.85	1303.5
840.2937	834.9999	2141.35	1286.25
840.4388	837.0545	2106.65	1246.05
840.5839	839.1085	2037.85	1180.95
840.729	841.1618	1984.5	1122.8
840.8741	843.2143	1956.5	1099.1
841.0192	845.2662	1932.55	1075.75
841.1643	847.3175	1914.5	1059.85
841.3095	849.368	1910.9	1054.05
841.4546	851.4179	1907.7	1052.5
841.5997	853.467	1913.9	1057.6
841.7448	855.5155	1911.2	1053.5
841.8899	857.5633	1904.9	1047.9
842.0351	859.6105	1919.6	1062.35
842.1802	861.6569	1894.85	1037.7
842.3253	863.7027	1884.9	1025.75
842.4704	865.7478	1874.45	1014.75
842.6156	867.7922	1873.55	1014.5
842.7607	869.8359	1865.85	1005.3
842.9058	871.8789	1847.65	988.5
843.0509	873.9212	1885.05	991.2
843.1961	875.9629	1857.9	997.75
843.3412	878.0039	1865.45	1005.75
843.4863	880.0441	1881.15	1021.3
843.6315	882.0837	1893.2	1030.75
843.7766	884.1226	1903.45	1040.45
843.9218	886.1609	1919.55	1060.05
844.0669	888.1984	1956.15	1096.35
844.212	890.2352	1984.8	1127.3
844.3572	892.2714	1993.65	1129.15
844.5023	894.3069	1977.15	1116.05
844.6475	896.3416	1930.35	1070.8
844.7926	898.3757	1909.6	1049.4
844.9377	900.4091	1892.55	1029.55
845.0829	902.4418	1898.1	1030.8
845.228	904.4739	1906.6	1041.95
845.3732	906.5052	1917.4	1054.8
845.5183	908.5358	1916.1	1053.65
845.6635	910.5658	1897.05	1033.6
845.8086	912.595	1878.25	1018
845.9538	914.6236	1852.4	990.9
846.0989	916.6515	1833.95	970.95
846.2441	918.6786	1815	949.15
846.3892	920.7051	1812	946.4
846.5344	922.7309	1815.85	952.1
846.6795	924.756	1797.2	933.9
846.8246	926.7804	1810.95	944.4
846.9698	928.8041	1810.45	942.65
847.1149	930.8272	1822.05	959.3
847.2601	932.8495	1824.75	957.85
847.4052	934.8711	1833.05	968.5
847.5504	936.892	1823.7	957.35
847.6955	938.9123	1847.8	981.95
847.8407	940.9318	1855.55	992.2
847.9858	942.9506	1878.5	1011
848.131	944.9688	1861.7	997.85
848.2761	946.9862	1849.35	985.4
848.4213	949.003	1823.85	957.05
848.5664	951.019	1811.95	945.4
848.7115	953.0344	1792	924.7
848.8567	955.0491	1792.25	925.8
849.0018	957.063	1774.5	907.65
849.147	959.0763	1785.35	919.35
849.2921	961.0888	1776.95	908.6
849.4373	963.1007	1767.45	898.7
849.5824	965.1119	1761.6	895.1
849.7275	967.1223	1772.3	903.45
849.8727	969.1321	1754.4	888.6
850.0178	971.1412	1755.45	887.15
850.1629	973.1495	1748.75	882.25
850.3081	975.1572	1807.75	889.25
850.4532	977.1641	1749.05	883.5
850.5983	979.1704	1751.2	882.2
850.7435	981.1759	1748.35	877.45
850.8886	983.1808	1733.45	863.1
851.0337	985.1849	1735.35	857.15
851.1788	987.1884	1732.3	862.1
851.324	989.1911	1734.95	862.5
851.4691	991.1932	1737.4	867.45
851.6142	993.1945	1735.9	869.05
851.7593	995.1951	1735.35	864.25
851.9045	997.1951	1735.9	860.95
852.0496	999.1943	1729.65	860.05
852.1947	1001.1928	1727.8	858.65
852.3398	1003.1906	1728.95	859.05
852.4849	1005.1877	1753.25	884.55
852.63	1007.1841	1757.6	886.85
852.7751	1009.1798	1763.95	893.55
852.9202	1011.1748	1754.8	884.65
853.0653	1013.1691	1744.85	873.65
853.2104	1015.1627	1717.15	846.4
853.3555	1017.1556	1688.55	819.1
853.5006	1019.1477	1683.55	812.3
853.6457	1021.1392	1675.1	806
853.7908	1023.1299	1664.4	794.2
853.9359	1025.12	1659	787.2
854.081	1027.1093	1660.1	792.85
854.2261	1029.0979	1671.4	801.8
854.3712	1031.0859	1685.95	814.55
854.5163	1033.0731	1691.85	822.25
854.6613	1035.0596	1690.1	821.95
854.8064	1037.0454	1678.35	808.7
854.9515	1039.0304	1682.6	812.55
855.0965	1041.0148	1660.95	791.85
855.2416	1042.9985	1642.4	767.75
855.3867	1044.9814	1639.4	769.1
855.5317	1046.9636	1628.05	753.7
855.6768	1048.9452	1633.25	761.9
855.8219	1050.926	1639.55	768.85
855.9669	1052.9061	1659.6	791.15
856.112	1054.8855	1662.9	790.4
856.257	1056.8642	1657.2	787.65
856.4021	1058.8421	1654.2	776.55
856.5471	1060.8194	1648.1	775.4
856.6921	1062.7959	1652.45	779.5
856.8372	1064.7717	1651.3	776.15
856.9822	1066.7469	1644	767.9
857.1272	1068.7213	1654.15	780.45
857.2723	1070.695	1645.6	773.1
857.4173	1072.6679	1657.4	785.35
857.5623	1074.6402	1677.6	804.05
857.7073	1076.6117	1689	811.35
857.8523	1078.5826	1666	790.9
857.9973	1080.5527	1652.05	773.5
858.1423	1082.5221	1627	753.8
858.2873	1084.4908	1601.6	727.2
858.4323	1086.4587	1595	718.5
858.5773	1088.426	1588.15	712.95
858.7223	1090.3925	1586.3	708.25
858.8673	1092.3584	1574.65	703.45
859.0123	1094.3235	1581.95	709.55
859.1573	1096.2879	1600.6	726.7
859.3022	1098.2515	1600.65	726.15
859.4472	1100.2145	1624	752.15
859.5922	1102.1767	1645	768.05
859.7371	1104.1382	1668.9	793.7
859.8821	1106.099	1696.85	820.7
860.027	1108.0591	1722.15	849.5
860.172	1110.0185	1748.45	871.6
860.3169	1111.9771	1774.65	901.4
860.4619	1113.9351	1801.45	926.6
860.6068	1115.8923	1849.9	974.6
860.7517	1117.8488	1868.35	992.15
860.8967	1119.8045	1834.55	960.1
861.0416	1121.7596	1778.85	904.05
861.1865	1123.7139	1711.6	837.4
861.3314	1125.6675	1663.75	788.55
861.4763	1127.6204	1663.1	789.9
861.6212	1129.5726	1675.4	797.2
861.7661	1131.524	1671.25	794.55
861.911	1133.4748	1656.55	780.7
862.0559	1135.4248	1614.4	736.8
862.2008	1137.3741	1584.15	709.2
862.3457	1139.3226	1562.2	685.35
862.4905	1141.2705	1558.75	682.85
862.6354	1143.2176	1567.65	687.05
862.7803	1145.164	1571.2	694.75
862.9251	1147.1097	1570.6	694.95
863.07	1149.0546	1560.15	680.65
863.2148	1150.9989	1540.75	663.8
863.3597	1152.9424	1530.2	651.9
863.5045	1154.8852	1517.1	640.55
863.6493	1156.8272	1508.85	634.2
863.7942	1158.7686	1513.8	628.7
863.939	1160.7092	1504.1	627.65
864.0838	1162.6491	1500.2	620.85
864.2286	1164.5883	1516	640.45
864.3734	1166.5267	1525.1	646.3
864.5182	1168.4644	1531.65	653.85
864.663	1170.4014	1552.55	672.5
864.8078	1172.3377	1577.4	701.85
864.9526	1174.2732	1602.45	725.5
865.0974	1176.2081	1653	776
865.2421	1178.1421	1725.85	846.15
865.3869	1180.0755	1795.9	921
865.5317	1182.0082	1844.5	968.1
865.6764	1183.9401	1838.65	959.45
865.8212	1185.8713	1778.35	901.7
865.9659	1187.8017	1700.25	821.4
866.1106	1189.7315	1629.05	752.55
866.2554	1191.6605	1601.75	696.1
866.4001	1193.5888	1547.3	668.95
866.5448	1195.5163	1538.45	663.3
866.6895	1197.4432	1512.5	634.65
866.8342	1199.3693	1500.6	624
866.9789	1201.2947	1498.85	612.85
867.1236	1203.2193	1493.55	615.85
867.2683	1205.1432	1487.45	611.6
867.413	1207.0664	1479.05	599.85
867.5576	1208.9889	1474.9	593.2
867.7023	1210.9106	1474.4	596.15
867.847	1212.8316	1476.75	597.35
867.9916	1214.7519	1491.45	602.8
868.1363	1216.6715	1487.75	611.1
868.2809	1218.5903	1498.35	618.95
868.4255	1220.5084	1505.2	626.45
868.5701	1222.4257	1516.2	638.5
868.7148	1224.3424	1517.05	639.85
868.8594	1226.2583	1530.25	644.75
869.004	1228.1735	1542.3	662.9
869.1486	1230.0879	1551.1	672.6
869.2932	1232.0016	1588.15	708.75
869.4377	1233.9146	1606.5	724.85
869.5823	1235.8269	1607.85	731.05
869.7269	1237.7384	1610.95	730.4
869.8715	1239.6492	1611.95	734
870.016	1241.5592	1614.05	735
870.1606	1243.4686	1638.4	759.85
870.3051	1245.3772	1680.05	801.7
870.4496	1247.285	1732.45	855
870.5941	1249.1922	1787.25	909.15
870.7387	1251.0986	1820.95	942.65
870.8832	1253.0042	1867.05	988
871.0277	1254.9092	1923.55	1044.2
871.1722	1256.8134	1984	1106.85
871.3167	1258.7169	2027.9	1147.45
871.4611	1260.6196	2061.05	1181.1
871.6056	1262.5216	2078.65	1196.4
871.7501	1264.4229	2061.6	1183.8
871.8945	1266.3234	2049.6	1169.45
872.039	1268.2232	2016.2	1136.75
872.1834	1270.1223	1983.05	1101.75
872.3278	1272.0207	1950.05	1069.85
872.4723	1273.9183	1943.6	1057.1
872.6167	1275.8151	1936.25	1056.15
872.7611	1277.7113	1960.1	1080
872.9055	1279.6067	2009.7	1128.6
873.0499	1281.5014	2095	1211.55
873.1943	1283.3953	2195.1	1312.25
873.3386	1285.2885	2321.3	1442.3
873.483	1287.181	2415.35	1534.45
873.6274	1289.0727	2454.4	1573.2
873.7717	1290.9637	2441.4	1560.95
873.9161	1292.854	2365.45	1486.65
874.0604	1294.7435	2276.2	1396.25
874.2047	1296.6323	2207.6	1326.9
874.349	1298.5204	2137.45	1253.05
874.4933	1300.4077	2085.65	1203.35
874.6376	1302.2943	2059.25	1180.05
874.7819	1304.1802	2024.65	1145.8
874.9262	1306.0653	2006.55	1122.05
875.0705	1307.9497	1990.95	1109.75
875.2147	1309.8333	1978.7	1098.55
875.359	1311.7162	1957.25	1077.05
875.5032	1313.5984	1935.75	1052.4
875.6475	1315.4798	1930.15	1039.65
875.7917	1317.3605	1941.9	1045.7
875.9359	1319.2405	1931.4	1047.6
876.0801	1321.1197	1929.1	1046.35
876.2243	1322.9982	1901.7	1013.75
876.3685	1324.876	1867.95	988.8
876.5127	1326.753	1802.85	922
876.6569	1328.6293	1753.65	869.8
876.801	1330.5048	1705.85	822.15
876.9452	1332.3796	1651.9	773.15
877.0893	1334.2537	1639.05	732.15
877.2335	1336.127	1586.45	703.5
877.3776	1337.9996	1575.55	692.95
877.5217	1339.8714	1550.1	667.45
877.6658	1341.7426	1574.25	648.9
877.8099	1343.6129	1529.85	648.45
877.954	1345.4826	1516.4	635.25
878.0981	1347.3515	1511.95	627.85
878.2422	1349.2196	1500.1	617.85
878.3862	1351.087	1493.35	611.5
878.5303	1352.9537	1495.15	611.8
878.6743	1354.8197	1498.45	614.45
878.8184	1356.6849	1498.7	617.85
878.9624	1358.5493	1513.85	632.25
879.1064	1360.4131	1523.15	641.05
879.2504	1362.276	1536.95	654.95
879.3944	1364.1383	1566.6	686
879.5384	1365.9998	1574.85	686.35
879.6823	1367.8606	1568.2	686.15
879.8263	1369.7206	1556.35	673.6
879.9702	1371.5799	1557.75	674.25
880.1142	1373.4384	1557.15	675.5
880.2581	1375.2962	1546.25	662.45
880.402	1377.1533	1508	625.9
880.5459	1379.0096	1481.05	598.4
880.6898	1380.8652	1458.85	577.05
880.8337	1382.7201	1438.35	556.6
880.9776	1384.5742	1426.5	544.05
881.1215	1386.4275	1407.3	525.25
881.2653	1388.2802	1394.6	512.25
881.4092	1390.132	1399.2	515.95
881.553	1391.9832	1391.9	508.5
881.6968	1393.8336	1376.65	494.75
881.8406	1395.6832	1378.65	495.7
881.9844	1397.5322	1377.7	495.1
882.1282	1399.3803	1372.6	486.05
882.272	1401.2278	1356.25	474.95
882.4158	1403.0745	1356.6	473.2
882.5595	1404.9204	1340.3	459.1
882.7033	1406.7656	1340.3	457.05
882.847	1408.6101	1341.55	458.25
882.9908	1410.4538	1340.55	457
883.1345	1412.2968	1340.4	458.55
883.2782	1414.139	1340.3	459.05
883.4219	1415.9805	1346.9	464.05
883.5656	1417.8213	1356.55	464.75
883.7092	1419.6613	1356.55	473.7
883.8529	1421.5006	1365.9	481.4
883.9965	1423.3391	1391	509
884.1402	1425.1769	1423.35	541.25
884.2838	1427.0139	1462.2	576.85
884.4274	1428.8502	1509.8	624.55
884.571	1430.6858	1558.45	674.9
884.7146	1432.5206	1567.1	684.25
884.8582	1434.3547	1573.15	687.7
885.0018	1436.188	1558.15	674.3
885.1453	1438.0206	1552.8	667.9
885.2889	1439.8524	1539	653.9
885.4324	1441.6835	1537	653.45
885.5759	1443.5139	1540.25	653.65
885.7194	1445.3435	1544.55	661.45
885.8629	1447.1724	1545.05	661.05
886.0064	1449.0005	1540.3	656.05
886.1499	1450.8279	1531.4	646.95
886.2933	1452.6545	1530	645.05
886.4368	1454.4804	1524.85	640.55
886.5802	1456.3056	1531.15	640.15
886.7237	1458.13	1512.9	629.95
886.8671	1459.9536	1503	618.75
887.0105	1461.7766	1475	593.4
887.1539	1463.5987	1450.55	565.15
887.2972	1465.4202	1429	545.75
887.4406	1467.2409	1409.65	524.35
887.584	1469.0608	1395.35	512.25
887.7273	1470.88	1367.35	481
887.8706	1472.6984	1354.65	471.5
888.0139	1474.5161	1346.2	458.9
888.1572	1476.3331	1331.4	448.65
888.3005	1478.1493	1322.35	436.15
888.4438	1479.9648	1315.2	431
888.5871	1481.7795	1317.25	431.95
888.7303	1483.5935	1317	433.75
888.8736	1485.4067	1315.05	431.65
889.0168	1487.2192	1319.05	434.85
889.16	1489.031	1318.6	432.65
889.3032	1490.842	1318.75	434.45
889.4464	1492.6522	1313.3	430
889.5896	1494.4618	1319.85	434.15
889.7327	1496.2705	1315.45	431.45
889.8759	1498.0785	1308.1	425.55
890.019	1499.8858	1307.6	423.95
890.1622	1501.6924	1299.6	416.3
890.3053	1503.4981	1299.3	417.7
890.4484	1505.3032	1292.85	408.8
890.5914	1507.1075	1291.6	408.25
890.7345	1508.911	1288.95	404.8
890.8776	1510.7138	1284.9	399.45
891.0206	1512.5159	1272.95	386.55
891.1637	1514.3172	1271.55	388.4
891.3067	1516.1178	1267.7	383.8
891.4497	1517.9176	1260.5	372.75
891.5927	1519.7166	1256.8	373.05
891.7357	1521.515	1263.45	372.4
891.8786	1523.3126	1249.15	364.45
892.0216	1525.1094	1249.6	365.05
892.1645	1526.9055	1247	363.95
892.3074	1528.7008	1246.6	361.75
892.4503	1530.4954	1248.55	358.45
892.5932	1532.2893	1236.35	353.75
892.7361	1534.0824	1241.5	351.6
892.879	1535.8747	1237.4	353.35
893.0218	1537.6663	1233.35	348.15
893.1647	1539.4572	1232.1	345.95
893.3075	1541.2473	1236.75	352.2
893.4503	1543.0367	1234.85	350.6
893.5931	1544.8253	1240.45	350.75
893.7359	1546.6132	1241	354.2
893.8787	1548.4003	1250.7	355.7
894.0214	1550.1867	1246.75	351.8
894.1642	1551.9723	1247.7	357.4
894.3069	1553.7572	1249.6	362.3
894.4496	1555.5414	1257.7	372.15
894.5923	1557.3247	1275.5	389.1
894.735	1559.1074	1290.05	405.55
894.8777	1560.8893	1314.95	432.45
895.0204	1562.6705	1331.05	444.5
895.163	1564.4509	1344.15	460.1
895.3056	1566.2305	1355.8	471.85
895.4482	1568.0094	1357.05	472.6
895.5908	1569.7876	1348.85	465.35
895.7334	1571.565	1351.2	464.4
895.876	1573.3417	1354.85	469.2
896.0186	1575.1176	1352.25	468.6
896.1611	1576.8928	1362.25	479.3
896.3036	1578.6672	1376.8	492.95
896.4461	1580.4409	1384.95	500.15
896.5886	1582.2138	1411.55	523.3
896.7311	1583.986	1426.35	541.75
896.8736	1585.7575	1454.9	571.8
897.0161	1587.5282	1467	580.7
897.1585	1589.2981	1479	594.25
897.3009	1591.0673	1491.3	607.3
897.4433	1592.8358	1490.8	609.05
897.5857	1594.6035	1497.6	610.7
897.7281	1596.3704	1491.2	606.2
897.8705	1598.1366	1470.9	586
898.0128	1599.9021	1458	572.95
898.1551	1601.6668	1443.2	555.05
898.2975	1603.4308	1420.55	535.85
898.4398	1605.194	1429.4	540.4
898.5821	1606.9564	1445.15	560.9
898.7243	1608.7182	1472.05	582.95
898.8666	1610.4791	1509.15	623.65
899.0088	1612.2394	1572.7	688.15
899.1511	1613.9988	1627.2	742.55
899.2933	1615.7576	1670.2	785.8
899.4355	1617.5156	1690.3	799.75
899.5776	1619.2728	1679	794.75
899.7198	1621.0293	1633.45	749.55
899.862	1622.785	1568.75	678.3
900.0041	1624.54	1499.4	611.25
900.1462	1626.2942	1437.95	551.55
900.2883	1628.0477	1379.9	489.85
900.4304	1629.8005	1331.15	441.35
900.5725	1631.5525	1294.4	410.05
900.7145	1633.3037	1265.2	379.75
900.8566	1635.0542	1245.4	360.65
900.9986	1636.804	1224.95	339.75
901.1406	1638.553	1272.95	322.35
901.2826	1640.3013	1201.1	314.4
901.4245	1642.0488	1188.15	301.3
901.5665	1643.7955	1182.95	299.5
901.7085	1645.5416	1170.35	285.6
901.8504	1647.2868	1167.6	281.45
901.9923	1649.0313	1167.3	281
902.1342	1650.7751	1157.3	269
902.2761	1652.5181	1159.7	275.4
902.4179	1654.2604	1160.95	273.25
902.5598	1656.0019	1163.05	277.3
902.7016	1657.7427	1165.6	281.05
902.8434	1659.4828	1169.15	284.15
902.9852	1661.222	1186.65	298.9
903.127	1662.9606	1203.65	320.1
903.2687	1664.6984	1219.35	334.25
903.4105	1666.4354	1230.25	342.35
903.5522	1668.1717	1219.95	334.4
903.6939	1669.9072	1202.4	317.6
903.8356	1671.642	1183.85	297.55
903.9773	1673.3761	1160.3	276.15
904.119	1675.1094	1143.6	258.9
904.2606	1676.8419	1124.65	238.6
904.4022	1678.5737	1119.7	235
904.5439	1680.3048	1112.4	226.75
904.6855	1682.0351	1112.65	227.8
904.827	1683.7646	1106.2	219.55
904.9686	1685.4934	1101.6	216.85
905.1101	1687.2215	1098.85	212.9
905.2517	1688.9488	1095.6	210.3
905.3932	1690.6754	1096.75	213.15
905.5347	1692.4012	1093.5	208.7
905.6761	1694.1263	1095.1	208.9
905.8176	1695.8506	1084.9	200.35
905.9591	1697.5742	1090.7	206.1
906.1005	1699.297	1088	201.55
906.2419	1701.0191	1081.5	196.4
906.3833	1702.7404	1081.65	195.05
906.5246	1704.461	1086	197.9
906.666	1706.1808	1081.1	191.8
906.8073	1707.8999	1077.4	189
906.9487	1709.6182	1079.05	192.8
907.09	1711.3358	1079.75	193.75
907.2313	1713.0527	1074.75	190.35
907.3725	1714.7688	1081.85	192.2
907.5138	1716.4841	1078.15	189.1
907.655	1718.1987	1082.45	192.95
907.7962	1719.9126	1074.5	191
907.9374	1721.6257	1077	189
908.0786	1723.338	1070.6	183.9
908.2198	1725.0496	1065.2	179.35
908.3609	1726.7605	1071.55	188.6
908.502	1728.4706	1071.6	184.8
908.6431	1730.18	1073.2	183.45
908.7842	1731.8886	1068.65	182.5
908.9253	1733.5964	1085.75	180.15
909.0664	1735.3036	1068.85	179.9
909.2074	1737.0099	1064.65	180.1
909.3484	1738.7156	1070.4	185.75
909.4894	1740.4204	1065.35	176.05
909.6304	1742.1246	1067.4	181.55
909.7714	1743.8279	1064.15	178.5
909.9123	1745.5306	1064.55	177.25
910.0532	1747.2325	1064.95	179.6
910.1941	1748.9336	1065	178.35
910.335	1750.634	1063.25	176.3
910.4759	1752.3336	1064.35	178.8
910.6168	1754.0325	1060.35	176.2
910.7576	1755.7307	1063.2	176.35
910.8984	1757.4281	1060.35	173.75
911.0392	1759.1247	1070.2	175.1
911.18	1760.8206	1069.95	180.45
911.3208	1762.5158	1067.85	177.75
911.4615	1764.2102	1060.7	174.35
911.6022	1765.9039	1059.55	172.6
911.7429	1767.5968	1056.25	169.25
911.8836	1769.289	1056.85	170.75
912.0243	1770.9804	1059.15	171.85
912.1649	1772.6711	1061.15	175.1
912.3056	1774.361	1059.8	172.85
912.4462	1776.0502	1056.05	169.75
912.5868	1777.7386	1062.25	173.65
912.7274	1779.4263	1057.1	170.55
912.8679	1781.1132	1060.3	174.3
913.0084	1782.7994	1057.1	167.95
913.149	1784.4849	1055.2	167.7
913.2895	1786.1696	1070.7	164.6
913.4299	1787.8535	1055	169.4
913.5704	1789.5367	1050.65	164.2
913.7108	1791.2192	1053.1	167.55
913.8513	1792.9009	1067.7	168.3
913.9917	1794.5818	1053.95	168.2
914.132	1796.2621	1051.1	165.4
914.2724	1797.9415	1052.65	167.4
914.4128	1799.6202	1050.7	164.45
914.5531	1801.2982	1047.65	159.7
914.6934	1802.9755	1050.4	162
914.8337	1804.6519	1045.85	160.5
914.9739	1806.3277	1047.6	163.8
915.1142	1808.0027	1048.1	163.15
915.2544	1809.6769	1047.95	161.15
915.3946	1811.3504	1048.75	160.5
915.5348	1813.0231	1047.35	161.8
915.675	1814.6951	1046	159.95
915.8151	1816.3664	1045.95	156.6
915.9553	1818.0369	1044.1	157.35
916.0954	1819.7067	1044.75	158.6
916.2355	1821.3757	1043.8	154.2
916.3755	1823.044	1046.65	161.25
916.5156	1824.7115	1043.9	157.95
916.6556	1826.3783	1041.35	156
916.7956	1828.0443	1036.8	149.75
916.9356	1829.7096	1041.1	152.7
917.0756	1831.3741	1043.1	153.35
917.2155	1833.0379	1038.7	152.35
917.3555	1834.701	1047.8	157.4
917.4954	1836.3633	1040.8	151.2
917.6353	1838.0248	1038.25	150
917.7751	1839.6856	1039.25	153.25
917.915	1841.3457	1035.95	149.95
918.0548	1843.005	1035.65	149.3
918.1946	1844.6636	1035.25	149.5
918.3344	1846.3214	1041.4	152.75
918.4742	1847.9785	1038.35	153.2
918.6139	1849.6349	1038.6	151.6
918.7537	1851.2904	1046.6	152.9
918.8934	1852.9453	1034.6	146.75
919.0331	1854.5994	1035.6	146.95
919.1727	1856.2528	1038.35	146.4
919.3124	1857.9054	1037.8	148.95
919.452	1859.5572	1035.05	147.7
919.5916	1861.2083	1033.05	145.6
919.7312	1862.8587	1033.55	147.2
919.8708	1864.5084	1031.95	143.5
920.0103	1866.1572	1031.45	146.5
920.1498	1867.8054	1032.05	144.5
920.2893	1869.4528	1032.45	147
920.4288	1871.0994	1031.15	145.7
920.5683	1872.7453	1032.2	146.95
920.7077	1874.3905	1040.05	144.95
920.8471	1876.0349	1029.05	141.75
920.9865	1877.6786	1029.05	142.8
921.1259	1879.3215	1030.05	144
921.2653	1880.9637	1028.65	142.4
921.4046	1882.6051	1031.65	145.25
921.5439	1884.2458	1030.15	139.6
921.6832	1885.8858	1029.6	144.9
921.8225	1887.525	1030.55	144.2
921.9617	1889.1634	1026.45	140.05
922.101	1890.8011	1028.8	143.5
922.2402	1892.4381	1026.65	142.4
922.3794	1894.0743	1025.75	139.5
922.5185	1895.7098	1026.5	139.45
922.6577	1897.3446	1028.6	142
922.7968	1898.9786	1029.5	140.4
922.9359	1900.6118	1026.8	140.45
923.075	1902.2443	1029.35	142.35
923.214	1903.8761	1026.7	141.25
923.3531	1905.5071	1023	136.05
923.4921	1907.1374	1025.3	139.75
923.6311	1908.7669	1024.35	137
923.77	1910.3957	1022.35	135.3
923.909	1912.0237	1023.3	136.2
924.0479	1913.651	1023	135.15
924.1868	1915.2776	1021.15	135.35
924.3257	1916.9034	1023.8	139.4
924.4646	1918.5285	1016.7	131
924.6034	1920.1528	1021.35	133.95
924.7422	1921.7764	1021.6	137.35
924.881	1923.3992	1016.05	131.8
925.0198	1925.0213	1019.85	133.75
925.1586	1926.6427	1019.05	132.6
925.2973	1928.2633	1126.15	130.55
925.436	1929.8832	1021.65	132.55
925.5747	1931.5023	1016.4	130.6
925.7134	1933.1207	1016.9	131.25
925.852	1934.7383	1016.9	126.9
925.9906	1936.3552	1018.65	131.05
926.1292	1937.9714	1017.85	130.05
926.2678	1939.5868	1020.5	132.4
926.4064	1941.2015	1018.45	132.5
926.5449	1942.8154	1017.35	130.45
926.6834	1944.4286	1015.5	129.35
926.8219	1946.041	1039.9	129.65
926.9604	1947.6528	1019.7	128.3
927.0988	1949.2637	1014.9	129.3
927.2372	1950.8739	1015.55	128.3
927.3756	1952.4834	1016.4	129.15
927.514	1954.0921	1014.85	127.95
927.6523	1955.7001	1014.9	124.45
927.7907	1957.3074	1014.25	126.9
927.929	1958.9139	1012.95	126.5
928.0673	1960.5197	1013.25	124.25
928.2055	1962.1247	1011.7	125.05
928.3438	1963.729	1006.3	121.35
928.482	1965.3325	1035.85	127.55
928.6202	1966.9353	1009.45	122.95
928.7584	1968.5374	1010.55	122.3
928.8965	1970.1387	1006.85	121.55
929.0346	1971.7393	1008.5	121.35
929.1727	1973.3392	1012.6	125.45
929.3108	1974.9383	1009	123.9
929.4489	1976.5366	1007.4	121.05
929.5869	1978.1342	1010.3	122
929.7249	1979.7311	1012.3	124.35
929.8629	1981.3273	1008.25	119.95
930.0009	1982.9227	1010.35	122.9
930.1388	1984.5173	1004.6	120.05
930.2767	1986.1112	1003.35	115.9
930.4146	1987.7044	1004.2	116.9
930.5525	1989.2968	1009.8	121.35
930.6904	1990.8885	1009.4	119.6
930.8282	1992.4795	1005.15	116.85
930.966	1994.0697	1003.5	117.8
931.1038	1995.6592	1003.55	118.65
931.2415	1997.2479	1003.05	116.85
931.3793	1998.8359	1009.95	123.35
931.517	2000.4232	1001.95	114.95
931.6547	2002.0097	1005.3	118.35
931.7923	2003.5955	1006.25	120.9
931.93	2005.1805	1008.25	118.8
932.0676	2006.7648	1004.65	120.55
932.2052	2008.3484	1004.05	115.3
932.3427	2009.9312	1004.55	116.3
932.4803	2011.5133	1001.5	116.2
932.6178	2013.0946	1000.7	112.85
932.7553	2014.6752	1004.95	120.8
932.8928	2016.2551	1001.25	113.55
933.0302	2017.8342	1005.4	120
933.1676	2019.4126	1001.45	114.9
933.305	2020.9902	1001.6	115.1
933.4424	2022.5672	1004.5	116.7
933.5798	2024.1433	1007.95	116
933.7171	2025.7188	997.5	112.8
933.8544	2027.2935	1006.75	120.5
933.9917	2028.8674	999.15	112.25
934.129	2030.4406	999.5	113.15
934.2662	2032.0131	1001.85	115.95
934.4034	2033.5849	1008.6	116.6
934.5406	2035.1559	1003.95	117.05
934.6778	2036.7261	999.3	112.65
934.8149	2038.2957	998.6	111.35
934.952	2039.8645	998.15	110.8
935.0891	2041.4325	1000.9	111.45
935.2262	2042.9998	997.45	111.75
935.3632	2044.5664	999.7	110.3
935.5002	2046.1323	997.7	112.2
935.6372	2047.6974	996.5	109.3
935.7742	2049.2617	998.5	114.25
935.9111	2050.8254	1031.45	111.35
936.048	2052.3883	999.7	111.4
936.1849	2053.9504	997.55	112.35
936.3218	2055.5118	1000.95	115.05
936.4586	2057.0725	999.8	107.65
936.5955	2058.6325	998.95	112.75
936.7323	2060.1917	997.75	110.5
936.869	2061.7502	997	109.2
937.0058	2063.3079	996.4	110.2
937.1425	2064.8649	1001.75	112.75
937.2792	2066.4212	1000.7	113
937.4159	2067.9767	997.1	112.3
937.5525	2069.5315	994.75	108.85
937.6891	2071.0856	997.45	111.3
937.8257	2072.6389	998.75	111.3
937.9623	2074.1915	997.4	111.05
938.0989	2075.7433	998.6	109.15
938.2354	2077.2945	996.25	109.55
938.3719	2078.8448	996.85	111.95
938.5084	2080.3945	994.4	108.2
938.6448	2081.9434	995.75	109.6
938.7812	2083.4916	997.45	109.9
938.9176	2085.039	997.35	110.5
939.054	2086.5857	997.65	108.8
939.1903	2088.1317	996.7	108.95
939.3267	2089.677	997.75	111.3
939.463	2091.2215	994.45	108.6
939.5992	2092.7652	989.7	103.65
939.7355	2094.3083	993.85	105.35
939.8717	2095.8506	993.95	109.35
940.0079	2097.3921	992.95	107.4
940.1441	2098.933	993	105.4
940.2802	2100.4731	992.3	107.55
940.4163	2102.0124	1000.5	105.1
940.5524	2103.5511	993.6	108.45
940.6885	2105.089	994.2	108.3
940.8245	2106.6261	994.8	107.55
940.9606	2108.1626	993.4	106.25
941.0965	2109.6983	1020.9	107.5
941.2325	2111.2332	996.2	107.7
941.3684	2112.7675	991.35	105
941.5044	2114.301	992.55	105.45
941.6403	2115.8337	994.9	108.6
941.7761	2117.3657	995.95	109.55
941.912	2118.897	995.2	109.05
942.0478	2120.4276	999.65	107.45
942.1835	2121.9575	991.35	104.85
942.3193	2123.4866	1006.55	105.85
942.455	2125.0149	995.55	106.55
942.5907	2126.5426	989.95	103.6
942.7264	2128.0695	992.45	101.6
942.8621	2129.5956	990.8	105.15
942.9977	2131.1211	995.2	104.05
943.1333	2132.6458	989.2	104.1
943.2689	2134.1698	991.05	104.35
943.4044	2135.693	991.25	102.7
943.54	2137.2155	994.95	106.35
943.6755	2138.7373	991.85	104.65
943.8109	2140.2584	989.45	101.3
943.9464	2141.7787	997.3	106.05
944.0818	2143.2983	988	101.25
944.2172	2144.8171	994.25	109.25
944.3526	2146.3353	989.1	100.45
944.4879	2147.8527	991.05	105.9
944.6232	2149.3693	992.05	106.1
944.7585	2150.8853	991.8	104.95
944.8938	2152.4005	990.15	103.2
945.029	2153.9149	990.35	103
945.1642	2155.4287	989.5	103.75
945.2994	2156.9417	988.9	101.55
945.4346	2158.454	989.25	98.8
945.5697	2159.9655	988.8	101.6
945.7048	2161.4764	988.5	101.65
945.8399	2162.9865	989.7	103.2
945.9749	2164.4958	992.6	103.1
946.1099	2166.0045	993.9	104.25
946.2449	2167.5124	984.7	98.2
946.3799	2169.0195	984.6	97.15
946.5148	2170.526	986.9	99.25
946.6498	2172.0317	988.7	102.7
946.7846	2173.5367	987.65	98.75
946.9195	2175.0409	988.95	102.95
947.0543	2176.5445	984.3	99.8
947.1891	2178.0473	985.7	98.5
947.3239	2179.5494	987.95	97.7
947.4587	2181.0507	985.15	98.2
947.5934	2182.5513	987.9	101.7
947.7281	2184.0512	987.55	100.9
947.8628	2185.5504	986.6	99.7
947.9974	2187.0488	984.75	98.1
948.132	2188.5465	987.7	99.35
948.2666	2190.0435	985.5	97.55
948.4012	2191.5397	985.15	100
948.5357	2193.0353	985.3	98.7
948.6702	2194.5301	987.8	100.35
948.8047	2196.0241	987.3	100.95
948.9392	2197.5175	984.5	99.5
949.0736	2199.0101	989.15	101
949.208	2200.502	983.75	100.7
949.3424	2201.9931	985.05	98.05
949.4767	2203.4835	984.65	95.55
949.611	2204.9733	989.15	96.85
949.7453	2206.4622	983.95	97.5
949.8796	2207.9505	985.05	96.15
950.0138	2209.438	979.65	93.5
950.148	2210.9248	982.45	95.8
950.2822	2212.4109	979.7	93.4
950.4164	2213.8962	982.25	92.6
950.5505	2215.3809	978.3	90.9
950.6846	2216.8648	980.05	94.1
950.8186	2218.3479	984.55	93.9
950.9527	2219.8304	982.6	94.25
951.0867	2221.3121	982.1	93.1
951.2207	2222.7931	979.6	93.55
951.3546	2224.2733	981.65	96.15
951.4886	2225.7529	981.2	93.9
951.6225	2227.2317	981	91.35
951.7563	2228.7098	980.9	94.75
951.8902	2230.1872	977.35	90.15
952.024	2231.6638	978.65	92.1
952.1578	2233.1397	978.4	87.45
952.2916	2234.6149	979.2	93.15
952.4253	2236.0894	978.85	91.85
952.559	2237.5632	986.55	89.65
952.6927	2239.0362	974.05	86.9
952.8263	2240.5085	975.6	87.6
952.9599	2241.9801	975.7	89.55
953.0935	2243.4509	979.65	94.6
953.2271	2244.921	975.1	88.3
953.3606	2246.3904	979.6	91.55
953.4941	2247.8591	976.55	91.25
953.6276	2249.3271	974.9	89.2
953.7611	2250.7943	975.4	88.6
953.8945	2252.2608	974.25	89.25
954.0279	2253.7266	974.8	88.05
954.1612	2255.1917	975.3	87.9
954.2946	2256.656	977.05	87.9
954.4279	2258.1197	972.15	85.65
954.5612	2259.5826	974.75	87.7
954.6944	2261.0447	975.35	87.75
954.8276	2262.5062	972.9	85.25
954.9608	2263.9669	974.95	86.3
955.094	2265.4269	973.55	87.5
955.2271	2266.8862	971.9	85.4
955.3602	2268.3448	974.45	88.85
955.4933	2269.8026	971.1	81.4
955.6264	2271.2598	974.35	87.8
955.7594	2272.7162	969.8	85.05
955.8924	2274.1719	970.6	85.3
956.0253	2275.6268	971.2	86.9
956.1583	2277.0811	974.85	87.7
956.2912	2278.5346	971.15	87.05
956.4241	2279.9874	968.1	80.85
956.5569	2281.4395	968.4	81.6
956.6897	2282.8908	978.7	86.75
956.8225	2284.3414	970.5	82.2
956.9553	2285.7914	971.65	86.5
957.088	2287.2406	973.15	84.85
957.2207	2288.689	970.6	84.45
957.3534	2290.1368	972.15	86.2
957.486	2291.5838	971.7	84.8
957.6186	2293.0302	968.05	80.85
957.7512	2294.4758	966.4	80.5
957.8838	2295.9206	971.05	80.95
958.0163	2297.3648	969	83.15
958.1488	2298.8082	968.15	79.9
958.2813	2300.251	972.8	86.65
958.4137	2301.693	970	82.65
958.5461	2303.1343	971	84.15
958.6785	2304.5748	968.9	81.9
958.8108	2306.0147	969.8	83.45
958.9432	2307.4538	970.1	82.55
959.0754	2308.8922	965.05	80.7
959.2077	2310.3299	966.05	79.1
959.3399	2311.7669	967.85	81.75
959.4721	2313.2031	964.8	78.85
959.6043	2314.6387	965.8	78.6
959.7365	2316.0735	967.35	80.1
959.8686	2317.5076	967.4	80.2
960.0006	2318.941	964.55	78.5
960.1327	2320.3737	965.95	79.35
960.2647	2321.8056	970.5	81.35
960.3967	2323.2369	969.4	81.95
960.5287	2324.6674	970.65	81.45
960.6606	2326.0972	968.65	78.45
960.7925	2327.5263	972.65	85.45
960.9244	2328.9547	975.9	89.95
961.0562	2330.3823	972.6	85.4
961.1881	2331.8092	971.85	83.15
961.3198	2333.2355	968.1	80.55
961.4516	2334.661	967	79.2
961.5833	2336.0858	967.9	76
961.715	2337.5098	965.8	77.4
961.8467	2338.9332	967.55	80.15
961.9783	2340.3558	968.9	77.6
962.1099	2341.7778	965.2	77.8
962.2415	2343.199	964.75	77.75
962.373	2344.6195	962.6	76.35
962.5045	2346.0393	965.2	79.75
962.636	2347.4583	963.5	76.05
962.7675	2348.8767	962.15	74.6
962.8989	2350.2943	962.2	74.35
963.0303	2351.7113	965.35	77.3
963.1617	2353.1275	962.75	75.7
963.293	2354.543	968.45	74.95
963.4243	2355.9578	961.55	74.35
963.5556	2357.3718	962.8	75.4
963.6868	2358.7852	962.45	73.6
963.818	2360.1978	960.55	72.85
963.9492	2361.6098	958.7	72.65
964.0803	2363.021	962.85	72.6
964.2114	2364.4315	960.55	74.5
964.3425	2365.8413	958	69.9
964.4736	2367.2504	959.6	73.9
964.6046	2368.6587	954	66.3
964.7356	2370.0664	959.05	74.05
964.8666	2371.4733	957.5	71
964.9975	2372.8795	958.85	72.15
965.1284	2374.285	959.7	71.85
965.2593	2375.6899	955.25	70.15
965.3901	2377.0939	959.9	72.6
965.5209	2378.4973	956.2	70.3
965.6517	2379.9	955.85	67.9
965.7825	2381.3019	955.65	67.5
965.9132	2382.7032	958.3	73.25
966.0439	2384.1037	955.75	71.45
966.1745	2385.5035	958.6	70.15
966.3051	2386.9027	956	70.5
966.4357	2388.3011	958.2	66.8
966.5663	2389.6987	956.6	71.4
966.6968	2391.0957	955.6	68.55
966.8273	2392.492	953.9	67.85
966.9578	2393.8876	952.65	63.95
967.0882	2395.2824	955.75	70.4
967.2186	2396.6765	956.65	71.95
967.349	2398.07	954.15	71.1
967.4793	2399.4627	955.6	66.75
967.6097	2400.8547	954.75	69.45
967.7399	2402.246	958.95	65.3
967.8702	2403.6366	954.5	65.1
968.0004	2405.0265	951.55	63.15
968.1306	2406.4156	955.55	64.3
968.2607	2407.8041	954.6	63.3
968.3909	2409.1918	954.5	65.9
968.521	2410.5789	953.35	66.85
968.651	2411.9652	956.65	67.25
968.781	2413.3508	951.9	65.95
968.911	2414.7358	950.1	62.65
969.041	2416.12	950.7	64.7
969.1709	2417.5035	951.5	63.15
969.3008	2418.8863	954.25	66.4
969.4307	2420.2684	953.35	66.3
969.5606	2421.6497	950.95	63.75
969.6904	2423.0304	949.3	62
969.8201	2424.4104	951.25	63.15
969.9499	2425.7896	956.8	65.45
970.0796	2427.1682	951.3	66.15
970.2093	2428.546	950.3	62.35
970.3389	2429.9232	953.15	64.4
970.4685	2431.2996	950.25	62.8
970.5981	2432.6753	950.95	64.8
970.7277	2434.0503	946.9	60.95
970.8572	2435.4246	949.05	60.75
970.9867	2436.7982	947.95	58.65
971.1161	2438.1711	948.65	61.75
971.2456	2439.5433	947.8	58.4
971.375	2440.9148	957	63.6
971.5043	2442.2856	947.25	60.7
971.6336	2443.6557	947.2	59.75
971.7629	2445.025	946.65	61.6
971.8922	2446.3937	945.15	57.9
972.0214	2447.7617	950.4	63.65
972.1506	2449.1289	946.95	60.35
972.2798	2450.4955	951.55	61.5
972.4089	2451.8613	947.7	61.5
972.538	2453.2265	946.2	60.85
972.6671	2454.5909	946.3	58.15
972.7961	2455.9546	945.6	58.5
972.9251	2457.3177	944.7	58.15
973.0541	2458.68	946.35	57.45
973.1831	2460.0416	947.65	60.4
973.312	2461.4025	949.05	61.85
973.4408	2462.7627	958.25	59.7
973.5697	2464.1222	945.75	60
973.6985	2465.4811	947.25	60.15
973.8273	2466.8392	944	56.65
973.956	2468.1966	949.3	59.2
974.0847	2469.5533	949.35	59.65
974.2134	2470.9093	944.95	57.6
974.3421	2472.2645	944.9	58.1
974.4707	2473.6191	943.95	56.7
974.5993	2474.973	946	58.05
974.7278	2476.3262	946.65	58.45
974.8563	2477.6787	941.85	57.4
974.9848	2479.0305	947.55	60.8
975.1132	2480.3816	943.85	55.55
975.2417	2481.7319	944.75	58.45
975.37	2483.0816	946.55	57.95
975.4984	2484.4306	946.7	60.75
975.6267	2485.7789	946.4	61.45
975.755	2487.1264	946.3	59.05
975.8833	2488.4733	942.7	57.55
976.0115	2489.8195	961.5	57.05
976.1397	2491.165	944.95	55
976.2678	2492.5097	945.85	57.6
976.3959	2493.8538	946.4	60.8
976.524	2495.1972	941.5	56.65
976.6521	2496.5398	946.3	58.65
976.7801	2497.8818	943.1	52.45
976.9081	2499.2231	942.45	56.5
977.036	2500.5637	943	55.15
977.164	2501.9035	940	52.75
977.2918	2503.2427	947.25	54.4
977.4197	2504.5812	942.25	54.95
977.5475	2505.919	943.85	55.8
977.6753	2507.256	944.7	59.35
977.8031	2508.5924	942.45	55.45
977.9308	2509.9281	946.25	54.65
978.0585	2511.2631	940.5	53.65
978.1861	2512.5974	937.2	48.25
978.3137	2513.9309	936.95	50.2
978.4413	2515.2638	971.3	52.7
978.5689	2516.596	942.1	55.5
978.6964	2517.9275	941.25	53.5
978.8239	2519.2583	939.8	53.05
978.9513	2520.5884	940.95	50.35
979.0788	2521.9178	939.25	51
979.2062	2523.2465	939.15	52.9
979.3335	2524.5745	936.25	50.7
979.4608	2525.9018	936.7	50.25
979.5881	2527.2284	936.25	50
979.7154	2528.5543	939.45	54.2
979.8426	2529.8796	939.95	52.2
979.9698	2531.2041	936.45	47.35
980.0969	2532.5279	936.15	51.9
980.224	2533.851	936.75	49.3
980.3511	2535.1735	934.3	48.9
980.4781	2536.4952	937.25	50.8
980.6052	2537.8163	939.3	53.05
980.7321	2539.1366	935.35	51.7
980.8591	2540.4562	941.75	53.3
980.986	2541.7752	934.3	48.15
981.1129	2543.0935	934.9	46.95
981.2397	2544.411	939.35	50.5
981.3665	2545.7279	934.55	46.55
981.4933	2547.0441	937.1	51.15
981.62	2548.3596	940.75	51.8
981.7467	2549.6744	938.8	53.65
981.8734	2550.9885	938.55	48.95
982.0001	2552.3019	937.5	52.7
982.1267	2553.6146	937.4	49.7
982.2532	2554.9266	934.8	49.15
982.3798	2556.2379	936.45	48.55
982.5063	2557.5485	936.85	52.45
982.6327	2558.8585	941.65	48.35
982.7592	2560.1677	941.8	51.7
982.8856	2561.4762	934.8	47
983.0119	2562.7841	937.15	48.1
983.1383	2564.0913	934.95	48.65
983.2646	2565.3977	934.05	46.8
983.3908	2566.7035	934.45	48
983.517	2568.0086	935	48.15
983.6432	2569.313	935.8	47.25
983.7694	2570.6167	936.45	46.7
983.8955	2571.9197	932.5	48.95
984.0216	2573.222	941.5	51.8
984.1476	2574.5236	933.7	45.7
984.2737	2575.8246	935.15	45.3
984.3996	2577.1248	935	44.7
984.5256	2578.4244	931.4	45.1
984.6515	2579.7232	934	47.95
984.7774	2581.0214	963.95	45.7
984.9032	2582.3189	932.95	46.55
985.029	2583.6157	940.1	50.65
985.1548	2584.9118	934.85	47.7
985.2806	2586.2072	931.1	44.8
985.4063	2587.5019	930.6	43.75
985.5319	2588.7959	933.5	47.9
985.6576	2590.0893	934.65	48.2
985.7832	2591.3819	933.3	47.7
985.9087	2592.6739	934.65	46.45
986.0343	2593.9652	933.35	45.75
986.1597	2595.2557	933.55	48.2
986.2852	2596.5456	936.75	49.65
986.4106	2597.8348	930.35	45.55
986.536	2599.1234	931.65	45.65
986.6614	2600.4112	933.65	46.85
986.7867	2601.6983	934.35	46.25
986.912	2602.9848	935.4	48.7
987.0372	2604.2705	939.35	46.75
987.1624	2605.5556	930.9	42.65
987.2876	2606.84	933.65	46.4
987.4128	2608.1237	933.65	44.9
987.5379	2609.4067	933.7	49
987.6629	2610.689	941.7	45.5
987.788	2611.9707	936.6	45.9
987.913	2613.2516	934.8	45.2
988.0379	2614.5319	926.95	40.75
988.1629	2615.8115	931.4	44.2
988.2878	2617.0903	930.2	43.2
988.4126	2618.3685	930.35	44.05
988.5375	2619.6461	931.55	44.85
988.6622	2620.9229	929.55	42.25
988.787	2622.199	930.75	42.25
988.9117	2623.4745	927.05	38.3
989.0364	2624.7493	930.25	43.5
989.161	2626.0234	926.95	40.25
989.2857	2627.2968	927.5	40.35
989.4102	2628.5695	929.45	41.1
989.5348	2629.8415	927.95	42.25
989.6593	2631.1128	929.3	40.15
989.7837	2632.3835	926.65	40
989.9082	2633.6535	925.05	38.9
990.0326	2634.9228	926.7	41.8
990.1569	2636.1914	926.65	40.8
990.2812	2637.4593	931.75	39.25
990.4055	2638.7265	928.75	44.3
990.5298	2639.9931	927.45	39.9
990.654	2641.259	927.55	39.2
990.7782	2642.5242	928.4	40.55
990.9023	2643.7887	928.95	41.6
991.0264	2645.0525	927.25	42
991.1505	2646.3156	926.4	39.15
991.2745	2647.5781	925.95	40.55
991.3985	2648.8398	926.5	37.7
991.5225	2650.1009	963.35	37.75
991.6464	2651.3613	928.15	39
991.7703	2652.6211	925.1	37.45
991.8942	2653.8801	924.5	39.35
992.018	2655.1385	927.3	38.8
992.1418	2656.3961	926.35	41.6
992.2655	2657.6531	923.7	37.65
992.3892	2658.9094	925.8	40.1
992.5129	2660.1651	924.15	37.4
992.6366	2661.42	925.45	37.85
992.7602	2662.6743	927.8	41.2
992.8837	2663.9279	925.65	39.2
993.0073	2665.1808	924.45	36.25
993.1307	2666.433	927.8	38.65
993.2542	2667.6846	924	36.15
993.3776	2668.9354	926.8	36.85
993.501	2670.1856	926.2	39.2
993.6244	2671.4351	924	36.1
993.7477	2672.6839	927.85	39.6
993.8709	2673.9321	925.1	37.35
993.9942	2675.1795	926.55	39.65
994.1174	2676.4263	924.7	39.5
994.2405	2677.6724	925.9	40.65
994.3637	2678.9179	924.95	38.15
994.4868	2680.1626	925.85	38.35
994.6098	2681.4067	925.45	37.95
994.7328	2682.6501	926.9	40.6
994.8558	2683.8928	924.65	38.55
994.9788	2685.1348	925.65	41.25
995.1017	2686.3761	923.75	36.4
995.2245	2687.6168	921.85	34.95
995.3474	2688.8568	920.8	33.8
995.4702	2690.0961	920	35.5
995.5929	2691.3348	922.35	35.45
995.7156	2692.5727	922.05	35.95
995.8383	2693.81	923.1	35.75
995.961	2695.0466	923.1	38.15
996.0836	2696.2826	925.05	38.3
996.2062	2697.5178	927.25	37.3
996.3287	2698.7524	922.2	35.4
996.4512	2699.9863	923.25	34
996.5737	2701.2195	921.85	35.4
996.6961	2702.452	925.55	37.5
996.8185	2703.6839	921.1	31.8
996.9408	2704.9151	923.6	38.45
997.0631	2706.1456	924.15	37.65
997.1854	2707.3755	924.1	36.5
997.3077	2708.6046	926.25	39.05
997.4299	2709.8331	926	38.5
997.552	2711.0609	924.8	36.6
997.6742	2712.2881	924.35	38.55
997.7963	2713.5145	928.2	39
997.9183	2714.7403	922.25	37.85
998.0403	2715.9654	926.1	38.5
998.1623	2717.1899	926.25	37.5
998.2842	2718.4136	927.05	40.85
998.4062	2719.6367	925.45	38.45
998.528	2720.8591	933.85	40.85
998.6498	2722.0809	928.1	42.2
998.7716	2723.3019	931.05	42.2
998.8934	2724.5223	928.75	41.8
999.0151	2725.7421	928.75	39.8
999.1368	2726.9611	929.15	37.8
999.2584	2728.1795	929.75	39.15
999.38	2729.3972	925.8	38.15
999.5016	2730.6142	940.35	40.95
999.6231	2731.8306	927.15	40.35
999.7446	2733.0462	925.2	36.2
999.8661	2734.2612	929.55	37.7
999.9875	2735.4756	925.7	36.75
1000.1089	2736.6892	920.45	33.25
1000.2302	2737.9022	920.5	35.55
1000.3515	2739.1145	920	32.95
1000.4728	2740.3262	929.4	34.55
1000.594	2741.5372	921.85	32.35
1000.7152	2742.7475	922.45	33.35
1000.8363	2743.9571	920.8	34.05
1000.9575	2745.1661	924	33
1001.0785	2746.3744	919.15	32.5
1001.1996	2747.582	921.3	36
1001.3206	2748.7889	918.65	32.95
1001.4415	2749.9952	919.95	34.55
1001.5625	2751.2008	919.2	30.75
1001.6833	2752.4057	919.2	28.2
1001.8042	2753.61	917.55	29.6
1001.925	2754.8136	921.1	32.7
1002.0458	2756.0165	915.85	30.25
1002.1665	2757.2188	916.75	29.95
1002.2872	2758.4204	917.7	30.65
1002.4078	2759.6213	919.25	29.55
1002.5285	2760.8215	923.5	30.1
1002.649	2762.0211	919.95	30.6
1002.7696	2763.22	921.5	31.75
1002.8901	2764.4182	915.75	28
1003.0106	2765.6158	916.5	29.65
1003.131	2766.8127	915.5	29.45
1003.2514	2768.009	914.5	28.1
1003.3717	2769.2045	917	27.05
1003.492	2770.3994	918.1	29.75
1003.6123	2771.5936	917.2	29.2
1003.7325	2772.7872	913.55	27.65
1003.8527	2773.9801	915.9	26.8
1003.9729	2775.1723	932.3	30.05
1004.093	2776.3639	914.4	28.65
1004.2131	2777.5548	919.5	30.35
1004.3331	2778.745	913.35	23.05
1004.4531	2779.9346	914.05	29.15
1004.5731	2781.1235	916.95	29.1
1004.693	2782.3117	913.7	27.15
1004.8129	2783.4992	914.4	28.25
1004.9328	2784.6861	914.25	27.75
1005.0526	2785.8723	914.25	25.55
1005.1723	2787.0579	914.9	27.6
1005.2921	2788.2428	913.6	24.6
1005.4118	2789.427	915.05	27.8
1005.5314	2790.6106	916.35	30.9
1005.651	2791.7935	915.65	28.65
1005.7706	2792.9757	914.6	29.55
1005.8902	2794.1573	915.9	26.55
1006.0097	2795.3382	914.25	27.3
1006.1291	2796.5184	915.1	29.85
1006.2485	2797.698	917.8	30.6
1006.3679	2798.8769	916.3	30.05
1006.4873	2800.0551	915.65	27.25
1006.6066	2801.2327	915.8	24.25
1006.7258	2802.4096	913.4	26.15
1006.8451	2803.5859	917.7	31.8
1006.9642	2804.7615	916.25	28.2
1007.0834	2805.9364	913.65	27.9
1007.2025	2807.1106	916.2	29.25
1007.3216	2808.2842	917.65	29.3
1007.4406	2809.4572	915.95	29.75
1007.5596	2810.6294	919.65	30.1
1007.6785	2811.801	918.85	34.15
1007.7975	2812.972	919.4	33.1
1007.9163	2814.1423	919.55	34.35
1008.0352	2815.3119	920.05	34.45
1008.154	2816.4808	922.2	35.4
1008.2727	2817.6491	924.75	35.7
1008.3914	2818.8167	923.7	37.5
1008.5101	2819.9837	931	40.25
1008.6288	2821.15	928.8	42.8
1008.7474	2822.3157	933.55	48.2
1008.8659	2823.4807	937.7	50.25
1008.9844	2824.645	940.2	52.55
1009.1029	2825.8086	945.85	59.45
1009.2214	2826.9716	946.45	58.55
1009.3398	2828.134	950.3	65.55
1009.4581	2829.2957	955.2	68.6
1009.5764	2830.4567	956.5	71.5
1009.6947	2831.617	963.45	75.4
1009.813	2832.7767	962.15	77.3
1009.9312	2833.9358	961.6	75.15
1010.0493	2835.0941	964.8	77.9
1010.1675	2836.2519	963.85	77.25
1010.2855	2837.4089	962.05	75.9
1010.4036	2838.5653	961.35	74.2
1010.5216	2839.7211	955.15	69.05
1010.6396	2840.8761	955.1	66.1
1010.7575	2842.0306	949.55	62.4
1010.8754	2843.1843	953.6	64.4
1010.9932	2844.3374	952.75	66.25
1011.111	2845.4899	954.85	67.75
1011.2288	2846.6417	956.35	70.9
1011.3465	2847.7928	956.65	70.55
1011.4642	2848.9433	957.5	70.9
1011.5818	2850.0931	955.8	70.45
1011.6995	2851.2422	955.65	67.2
1011.817	2852.3907	959.75	72.8
1011.9345	2853.5385	957.35	69.2
1012.052	2854.6857	986.45	73.5
1012.1695	2855.8323	962.05	76.35
1012.2869	2856.9781	959.4	74.35
1012.4042	2858.1233	963.5	77.4
1012.5216	2859.2679	961.95	74.7
1012.6389	2860.4118	965.75	78.7
1012.7561	2861.555	971.15	79.75
1012.8733	2862.6976	971.25	82.35
1012.9905	2863.8395	968.75	81.25
1013.1076	2864.9808	970.8	83.25
1013.2247	2866.1214	968.65	84.8
1013.3417	2867.2614	973.25	86.05
1013.4587	2868.4007	975.75	88.85
1013.5757	2869.5393	978.2	87.2
1013.6926	2870.6773	979.6	90.25
1013.8095	2871.8146	976.15	85.95
1013.9263	2872.9513	982.15	92.8
1014.0431	2874.0874	980.05	92.45
1014.1599	2875.2227	978.3	91.6
1014.2766	2876.3574	982.15	96.65
1014.3933	2877.4915	980.5	92.55
1014.51	2878.6249	984.25	98.5
1014.6266	2879.7577	982.85	95.4
1014.7431	2880.8898	998.6	100.95
1014.8596	2882.0212	985.3	99.45
1014.9761	2883.152	989.8	102.8
1015.0925	2884.2821	991.9	106.15
1015.2089	2885.4116	990.15	103.7
1015.3253	2886.5405	992.65	105.75
1015.4416	2887.6686	997.75	108.35
1015.5579	2888.7962	990.7	104.35
1015.6741	2889.923	990.6	106.1
1015.7903	2891.0493	990.25	105.35
1015.9065	2892.1748	996.4	109.05
1016.0226	2893.2997	996.4	109
1016.1387	2894.424	993.4	107.9
1016.2547	2895.5476	992.85	105.15
1016.3707	2896.6706	988.95	103.65
1016.4866	2897.7929	992.95	104.15
1016.6025	2898.9145	992.4	105.9
1016.7184	2900.0355	992.3	106.45
1016.8342	2901.1559	990.7	102.85
1016.95	2902.2756	991.05	106.15
1017.0658	2903.3946	988.7	102.35
1017.1815	2904.513	994.2	104.9
1017.2971	2905.6308	987.45	101.55
1017.4127	2906.7479	992.25	103.55
1017.5283	2907.8643	987.35	101
1017.6439	2908.9801	988.85	103.8
1017.7594	2910.0953	985.9	100.25
1017.8748	2911.2098	993.1	101.55
1017.9902	2912.3236	1000.4	104.5
1018.1056	2913.4368	990.75	101.85
1018.2209	2914.5494	988.6	102.05
1018.3362	2915.6613	992.5	100.45
1018.4515	2916.7725	986.1	97.95
1018.5667	2917.8831	982.7	95.55
1018.6819	2918.9931	981.45	92.1
1018.797	2920.1024	981.2	92.95
1018.9121	2921.211	980.25	93.25
1019.0271	2922.319	978.55	90.8
1019.1421	2923.4264	976.8	89.35
1019.2571	2924.5331	978.05	92.3
1019.372	2925.6391	974.85	89.85
1019.4869	2926.7445	975.3	89.65
1019.6017	2927.8493	976.4	90.25
1019.7165	2928.9534	974.95	86.55
1019.8313	2930.0569	983.05	95.05
1019.946	2931.1597	978.95	92.85
1020.0606	2932.2619	979.15	94.85
1020.1753	2933.3634	977.7	90.6
1020.2899	2934.4643	985.8	91.7
1020.4044	2935.5645	987.05	92.25
1020.5189	2936.6641	985.45	94.3
1020.6334	2937.763	981.6	94.45
1020.7478	2938.8613	982.5	97.65
1020.8622	2939.959	987.6	94.65
1020.9765	2941.056	982.5	98.45
1021.0908	2942.1523	979.45	93.7
1021.2051	2943.248	974.95	86.9
1021.3193	2944.3431	966.1	80
1021.4334	2945.4375	964	77.05
1021.5476	2946.5313	960	75.35
1021.6617	2947.6244	955.65	68.6
1021.7757	2948.7169	954.9	66.4
1021.8897	2949.8087	950.35	63.45
1022.0037	2950.8999	948.6	62.1
1022.1176	2951.9904	944.3	56.6
1022.2315	2953.0803	942.85	54.15
1022.3453	2954.1696	940.95	54.35
1022.4591	2955.2582	936	49.4
1022.5728	2956.3462	935	48.05
1022.6865	2957.4335	938.2	50.8
1022.8002	2958.5202	938	48.65
1022.9138	2959.6062	938.2	52.45
1023.0274	2960.6916	934.4	48
1023.141	2961.7764	933.7	46.7
1023.2545	2962.8605	939.6	51.95
1023.3679	2963.9439	935.2	49.8
1023.4813	2965.0267	936.7	48.25
1023.5947	2966.1089	957.45	47.8
1023.708	2967.1905	936.3	47.45
1023.8213	2968.2714	933.6	49.35
1023.9346	2969.3516	933.9	47.95
1024.0478	2970.4312	939.8	46.1
1024.1609	2971.5102	931.2	44.95
1024.274	2972.5885	933.75	46.15
1024.3871	2973.6662	940.1	50.25
1024.5002	2974.7432	932.65	45.6
1024.6132	2975.8196	934.75	47.5
1024.7261	2976.8954	935.75	50.7
1024.839	2977.9705	932.5	46.05
1024.9519	2979.045	930.95	44
1025.0647	2980.1188	931.8	45.7
1025.1775	2981.192	930.1	44.65
1025.2902	2982.2645	932.9	45.7
1025.4029	2983.3364	931.85	47.25
1025.5156	2984.4077	931.8	44.85
1025.6282	2985.4783	934.25	43.5
1025.7407	2986.5483	926.65	41.8
1025.8532	2987.6177	927.15	40.8
1025.9657	2988.6864	925.15	38.7
1026.0782	2989.7545	925.35	36.65
1026.1906	2990.8219	924.25	40.3
1026.3029	2991.8887	925.1	38.45
1026.4152	2992.9548	922.5	35.35
1026.5275	2994.0204	919.45	35
1026.6397	2995.0852	915.2	29.25
1026.7519	2996.1495	917.6	31.45
1026.864	2997.2131	915.15	27.25
1026.9761	2998.276	915.9	28.2
1027.0882	2999.3383	912.5	23.5
1027.2002	3000.4	912.7	25.15
1027.3122	3001.4611	910	22.85
1027.4241	3002.5215	911.7	27.25
1027.536	3003.5812	911.85	28.25
1027.6478	3004.6404	906.85	20.1
1027.7596	3005.6989	909.55	20.25
1027.8714	3006.7567	906.1	20
1027.9831	3007.8139	937.25	19.45
1028.0947	3008.8705	907.75	21
1028.2064	3009.9264	924.6	21
1028.3179	3010.9818	905.95	19.2
1028.4295	3012.0364	907.3	21.3
1028.541	3013.0905	904.85	18.1
1028.6524	3014.1439	904.85	19.05
1028.7638	3015.1966	903.7	19.3
1028.8752	3016.2487	903.7	15.4
1028.9865	3017.3002	907.6	16.75
1029.0978	3018.3511	904.4	17.85
1029.209	3019.4013	903.2	17.55
1029.3202	3020.4509	905.05	19
1029.4314	3021.4998	904.4	16.1
1029.5425	3022.5481	902.25	16.6
1029.6535	3023.5958	904.5	19.35
1029.7645	3024.6428	904.9	16.5
1029.8755	3025.6892	901.55	15.35
1029.9864	3026.735	904.95	17.5
1030.0973	3027.7802	902.8	17.3
1030.2082	3028.8247	900.9	14.45
1030.319	3029.8685	905.8	18.6
1030.4297	3030.9118	901.5	15.35
1030.5404	3031.9544	901.85	14.15
1030.6511	3032.9963	903.85	16.95
1030.7617	3034.0376	903.65	19.1
1030.8723	3035.0783	904.75	16.95
1030.9829	3036.1184	906.15	17.3
1031.0934	3037.1578	901.7	15.35
1031.2038	3038.1966	903.5	15.45
1031.3142	3039.2348	901.4	16.7
1031.4246	3040.2723	910.95	16.85
1031.5349	3041.3092	902.6	18.7
1031.6452	3042.3455	903.8	17.65
1031.7554	3043.3811	905	18.25
1031.8656	3044.4161	904.1	17.3
1031.9758	3045.4505	901.25	17.2
1032.0859	3046.4842	902.25	12.3
1032.1959	3047.5173	904.2	18.1
1032.3059	3048.5498	903.1	16.65
1032.4159	3049.5816	903	14.15
1032.5258	3050.6128	904.4	14.9
1032.6357	3051.6434	906.45	20.25
1032.7455	3052.6734	906.55	19.85
1032.8553	3053.7027	901.45	15.05
1032.9651	3054.7314	903.05	15.55
1033.0748	3055.7594	901.7	15.65
1033.1845	3056.7868	904.35	16.9
1033.2941	3057.8136	904.9	18.75
1033.4037	3058.8398	904.65	19
1033.5132	3059.8653	904.25	19.4
1033.6227	3060.8902	904.25	18.25
1033.7321	3061.9145	905.4	17.3
1033.8415	3062.9381	903.8	16.65
1033.9509	3063.9612	917.7	13.9
1034.0602	3064.9835	903.85	19.4
1034.1694	3066.0053	905.25	16.2
1034.2787	3067.0264	906.8	21.35
1034.3878	3068.0469	904.7	18.25
1034.497	3069.0668	907.25	17.35
1034.6061	3070.086	904.2	19.15
1034.7151	3071.1046	905.85	14.5
1034.8241	3072.1226	904.15	16.5
1034.9331	3073.1399	903.25	16.75
1035.042	3074.1567	904.8	17.5
1035.1508	3075.1727	904.9	17.55
1035.2597	3076.1882	903.1	18.35
1035.3684	3077.203	902.8	16.45
1035.4772	3078.2173	902.4	13.05
1035.5859	3079.2308	905.45	15
1035.6945	3080.2438	902.4	13.05
1035.8031	3081.2561	901.9	13.2
1035.9117	3082.2678	902.6	16.7
1036.0202	3083.2789	901.4	15.3
1036.1286	3084.2893	900.05	13.2
1036.2371	3085.2991	898.65	11.9
1036.3454	3086.3083	903.1	12.15
1036.4538	3087.3169	903.2	14.35
1036.562	3088.3248	900.95	10.75
1036.6703	3089.3321	899.95	11.5
1036.7785	3090.3388	898	11.65
1036.8866	3091.3449	899.6	13.05
1036.9948	3092.3503	902.45	13.55
1037.1028	3093.3551	897.8	13.1
1037.2108	3094.3593	896.6	8.65
1037.3188	3095.3629	896.6	11.6
1037.4267	3096.3658	900.6	12.7
1037.5346	3097.3681	898.75	12.55
1037.6425	3098.3698	899.3	10.95
1037.7503	3099.3708	897.25	10.65
1037.858	3100.3713	897.45	10.95
1037.9657	3101.3711	898.65	9.9
1038.0734	3102.3702	1035.25	8.1
1038.181	3103.3688	900.6	12.05
1038.2886	3104.3667	896.7	10.3
1038.3961	3105.364	895.4	9.75
1038.5036	3106.3607	898.55	10.65
1038.611	3107.3568	898.95	9.65
1038.7184	3108.3522	895.2	9.3
1038.8257	3109.347	899.55	11.95
1038.933	3110.3412	900.55	10.95
1039.0403	3111.3348	898.85	11.4
1039.1475	3112.3277	896.35	9
1039.2547	3113.32	895.85	10.6
1039.3618	3114.3117	898	10.6
1039.4689	3115.3028	896.25	9.2
1039.5759	3116.2932	899.35	12.25
1039.6829	3117.2831	902.35	9.05
1039.7898	3118.2723	895.45	9.05
1039.8967	3119.2608	896.05	8.05
1040.0035	3120.2488	895.45	7.2
1040.1103	3121.2361	895.95	7
1040.2171	3122.2229	895.8	8.55
1040.3238	3123.209	896.6	7.95
1040.4305	3124.1944	895.05	8.35
1040.5371	3125.1793	897.55	10.6
1040.6437	3126.1635	894.4	6.45
1040.7502	3127.1471	893.45	7.3
1040.8567	3128.1301	893.05	7.05
1040.9631	3129.1125	895.15	8.15
1041.0695	3130.0942	894.9	7.35
1041.1759	3131.0753	904.05	8.2
1041.2822	3132.0558	900.25	9.15
1041.3884	3133.0357	894.5	7.55
1041.4946	3134.015	895.6	8.45
1041.6008	3134.9936	896.4	7.85
1041.7069	3135.9716	912.85	3.8
1041.813	3136.949	895.35	8.55
1041.919	3137.9258	912.7	7
1042.025	3138.902	902.15	8.4
1042.1309	3139.8775	895	8.15
1042.2368	3140.8524	894.7	9.9
1042.3427	3141.8267	897.95	7.85
1042.4485	3142.8004	895.45	7.7
1042.5542	3143.7735	901.4	6.6
1042.6599	3144.7459	897.5	10.75
1042.7656	3145.7178	893.85	6.8
1042.8712	3146.689	893.3	6.9
1042.9768	3147.6596	896.35	10.65
1043.0823	3148.6295	895.9	8.8
1043.1878	3149.5989	896.35	7.75
1043.2932	3150.5676	892.4	8.75
1043.3986	3151.5357	891.45	6.05
1043.5039	3152.5032	894.8	9.95
1043.6092	3153.4701	894.1	6.4
1043.7145	3154.4364	897.75	9.4
1043.8197	3155.402	891.85	6.85
1043.9248	3156.367	896.4	6.85
1044.03	3157.3315	924.05	6.3
1044.135	3158.2952	893.6	6.5
1044.24	3159.2584	894.75	8.5
1044.345	3160.221	893.5	5.1
1044.4499	3161.1829	891.7	4.25
1044.5548	3162.1442	892.75	5.75
1044.6596	3163.105	893.95	6.65
1044.7644	3164.065	895.85	8
1044.8692	3165.0245	897.5	8.05
1044.9739	3165.9834	893.05	7.8
1045.0785	3166.9416	894.2	7.55
1045.1831	3167.8993	893.45	7.35
1045.2877	3168.8563	894.1	6.35
1045.3922	3169.8127	891.9	5.7
1045.4966	3170.7684	893.25	7.8
1045.6011	3171.7236	895.1	7.1
1045.7054	3172.6782	891.75	4.55
1045.8098	3173.6321	892.9	4.45
1045.914	3174.5854	897.8	6.65
1046.0183	3175.5381	893.6	6.35
1046.1224	3176.4902	893.05	5.85
1046.2266	3177.4417	891.55	5.35
1046.3307	3178.3926	891.5	5
1046.4347	3179.3428	893.25	9.7
1046.5387	3180.2924	891.45	5.5
1046.6427	3181.2415	892.9	5.4
1046.7466	3182.1899	892.75	5.35
1046.8504	3183.1377	891	4.05
1046.9542	3184.0848	896.8	7.35
1047.058	3185.0314	894.1	6.9
1047.1617	3185.9773	892.6	3.45
1047.2654	3186.9227	896.25	7.65
1047.369	3187.8674	894.7	9
1047.4726	3188.8115	900.2	10.4
1047.5761	3189.755	891.35	2.95
1047.6796	3190.6979	892.95	6.9
1047.783	3191.6402	890.7	4.6
1047.8864	3192.5818	891.25	1.7
1047.9898	3193.5229	899.7	5.75
1048.0931	3194.4633	890.75	4.9
1048.1963	3195.4031	893.85	5.4
1048.2995	3196.3423	893.35	4.9
1048.4027	3197.2809	894.1	9.3
1048.5058	3198.2189	891.6	4.4
1048.6089	3199.1563	898.45	5.05
1048.7119	3200.0931	891.75	4.1
1048.8148	3201.0292	889.05	5.35
1048.9178	3201.9648	891.7	5
1049.0206	3202.8997	895.1	6.85
1049.1235	3203.834	893.8	7.15
1049.2262	3204.7677	891.75	4.9
1049.329	3205.7008	894.85	6.05
1049.4317	3206.6333	890.75	5.1
1049.5343	3207.5652	893.3	2.75
1049.6369	3208.4964	892.2	5.3
1049.7394	3209.4271	890.6	5.5
1049.8419	3210.3571	893	8.1
1049.9444	3211.2865	891.3	7.7
1050.0468	3212.2154	892.15	5.9
1050.1491	3213.1436	894.2	6.8
1050.2514	3214.0712	899.5	7.25
1050.3537	3214.9982	894.7	8.2
1050.4559	3215.9246	891.7	3.75
1050.5581	3216.8503	890.1	4.5
1050.6602	3217.7755	891.7	4.75
1050.7623	3218.7001	890.25	2.75
1050.8643	3219.624	892.4	6.5
1050.9663	3220.5473	892.3	5.5
1051.0682	3221.4701	893.05	3.7
1051.1701	3222.3922	894.2	5.75
1051.2719	3223.3137	892.2	6.25
1051.3737	3224.2346	891.3	4.75
1051.4754	3225.1549	890.3	3.05
1051.5771	3226.0746	890.95	5.35
1051.6788	3226.9937	890.65	5.35
1051.7804	3227.9121	890.15	4.9
1051.8819	3228.83	891.6	3.35
1051.9834	3229.7473	892.4	5.95
1052.0849	3230.6639	893	4.75
1052.1863	3231.5799	892.1	5
1052.2876	3232.4954	892.45	4.5
1052.3889	3233.4102	890.9	5.65
1052.4902	3234.3244	890.25	2.75
1052.5914	3235.238	890.55	3.85
1052.6926	3236.151	915.75	3.7
1052.7937	3237.0634	891.5	5.3
1052.8948	3237.9752	890.2	3.85
1052.9958	3238.8864	893.35	4.75
1053.0968	3239.797	891.9	5.3
1053.1977	3240.7069	892.25	3.65
1053.2986	3241.6163	894	3
1053.3994	3242.5251	891.35	4.25
1053.5002	3243.4332	889.75	4.5
1053.6009	3244.3408	894.75	4.8
1053.7016	3245.2477	890.7	3.95
1053.8022	3246.154	891.85	4.65
1053.9028	3247.0598	892.5	4.7
1054.0034	3247.9649	890.05	3.65
1054.1039	3248.8694	892.7	6.05
1054.2043	3249.7733	891.7	5.25
1054.3047	3250.6766	889.9	2.4
1054.4051	3251.5793	892.5	4.25
1054.5054	3252.4814	890.4	5
1054.6056	3253.3829	890.1	1.95
1054.7058	3254.2838	890.55	3.9
1054.806	3255.1841	891.55	5.65
1054.9061	3256.0838	891.35	4.75
1055.0061	3256.9829	889	4.25
1055.1062	3257.8814	891.65	2.9
1055.2061	3258.7792	891.75	4.75
1055.306	3259.6765	890.2	4.25
1055.4059	3260.5731	888.1	1.6
1055.5057	3261.4692	892.6	4.25
1055.6055	3262.3647	891.2	3.25
1055.7052	3263.2595	889.9	0.3
1055.8049	3264.1538	890.55	4.45
1055.9045	3265.0474	891.85	4.15
1056.0041	3265.9404	888.35	3.55
1056.1036	3266.8329	889.9	2.85
1056.2031	3267.7247	903.85	8
1056.3025	3268.616	889.35	5.95
1056.4019	3269.5066	890	2.25
1056.5013	3270.3966	892.5	3.15
1056.6005	3271.286	889.35	3.55
