Software Version:	3.9.2.0
Unit SN:	10000200
Spectrometer SN:	6960
Date:	3/14/2024 12:27:18 PM
Data Line Index:	25
Spectral Points:	2048
Integration time (ms):	125
Averages:	20
Delay (ms):	30000
Sequence Number:	1
Processing:	dark subtract
Laser Power (mW):	295
Laser Current (mA):	817
Laser Diode Temp (C):	25.1
Laser Case Temp (C):	25.5
System Temp (C):	25.4
Spectrometer Temp (C):	23.2
CCD Temp (C):	0.008
Secondary Temp (C):	20.008
Heatsink Temp (C):	22.448
CCDPCB Temp (C):	36.34
SecondaryPCB Temp (C):	30.371

Wavelength	RamanShift	Raw Counts	Dark Subtracted
787.061	30.1047	420.6	9.05
787.2016	32.3739	420.3	9.35
787.3422	34.6426	423.65	12.2
787.4828	36.9109	425	11.5
787.6235	39.1787	430.8	12.95
787.7642	41.4461	436.1	15.15
787.9049	43.7131	438.55	12.1
788.0456	45.9796	443.45	16.4
788.1863	48.2456	447.65	13.45
788.3271	50.5112	454.25	17.2
788.4679	52.7764	456	17.7
788.6087	55.0411	462.15	19.45
788.7496	57.3054	466.9	20.6
788.8904	59.5692	468.8	19.95
789.0313	61.8326	475.4	22.9
789.1722	64.0955	481.95	27.1
789.3132	66.3579	488.1	24.8
789.4541	68.6199	495.8	33
789.5951	70.8815	504.95	38
789.7361	73.1426	528.75	59.1
789.8771	75.4032	577.2	102.85
790.0181	77.6634	683.45	203.35
790.1592	79.9231	929.8	445.85
790.3003	82.1824	1445.2	958.05
790.4414	84.4412	2304.6	1814.85
790.5825	86.6995	3444.05	2950.75
790.7237	88.9574	4547.9	4049.1
790.8648	91.2148	5345.9	4845.85
791.006	93.4717	5719.9	5215.05
791.1472	95.7282	5794.25	5287.8
791.2885	97.9842	5792.25	5282.5
791.4297	100.2398	5712.55	5200.5
791.571	102.4949	5634.25	5118.4
791.7123	104.7495	5569.95	5049.75
791.8536	107.0036	5496.45	4975.3
791.9949	109.2573	5413.1	4893.5
792.1363	111.5105	5279	4756
792.2777	113.7632	5135.45	4610.55
792.4191	116.0154	4992.8	4457.8
792.5605	118.2672	4821.6	4293
792.7019	120.5185	4636.9	4107.25
792.8434	122.7693	4459.5	3929.15
792.9849	125.0197	4321	3786.1
793.1264	127.2696	4200.6	3662.3
793.2679	129.519	4098.1	3559.85
793.4094	131.7679	4027.2	3484.85
793.551	134.0163	3987.65	3442.6
793.6926	136.2642	3982.65	3430.6
793.8342	138.5117	3961.1	3405.9
793.9758	140.7587	3935.1	3380.2
794.1175	143.0052	3884.4	3325.65
794.2591	145.2512	3794.05	3237.1
794.4008	147.4967	3701.9	3142.95
794.5425	149.7417	3619.75	3059.4
794.6842	151.9863	3561.45	2995.75
794.826	154.2304	3522.95	2956.3
794.9677	156.4739	3501.75	2925.5
795.1095	158.717	3526	2951.35
795.2513	160.9596	3571.5	2992.5
795.3931	163.2017	3624.95	3043.45
795.535	165.4433	3659.25	3075.5
795.6768	167.6844	3659.55	3075.95
795.8187	169.925	3634.65	3047
795.9606	172.1651	3539.1	2947.55
796.1025	174.4047	3459.1	2863.85
796.2445	176.6439	3382.5	2786.95
796.3864	178.8825	3328.55	2728.7
796.5284	181.1206	3301.6	2699.95
796.6704	183.3582	3265.25	2657.6
796.8124	185.5954	3246.65	2637.8
796.9544	187.832	3241.75	2629.8
797.0965	190.0681	3241.2	2627.15
797.2386	192.3037	3244.75	2629.65
797.3806	194.5388	3246.9	2626.9
797.5228	196.7734	3268.6	2645.45
797.6649	199.0075	3294.25	2668.3
797.807	201.2411	3330.4	2700.85
797.9492	203.4742	3346.4	2716.9
798.0914	205.7068	3403.9	2774.1
798.2336	207.9389	3416.9	2785.2
798.3758	210.1704	3461.3	2826.35
798.518	212.4015	3468.35	2829.15
798.6603	214.632	3479.6	2842.55
798.8025	216.862	3468.8	2840.25
798.9448	219.0915	3463.35	2840.95
799.0871	221.3205	3487.6	2866.8
799.2294	223.549	3500.85	2884.3
799.3718	225.777	3521.6	2903.8
799.5141	228.0044	3501.8	2879.45
799.6565	230.2314	3484.75	2865.95
799.7989	232.4578	3468.7	2847.65
799.9413	234.6837	3445.55	2816.7
800.0837	236.909	3420.4	2791.9
800.2262	239.1339	3418.15	2763.95
800.3687	241.3582	3390.4	2753.25
800.5111	243.582	3399.95	2732.7
800.6536	245.8053	3411.95	2753.25
800.7961	248.0281	3417.25	2763.8
800.9387	250.2503	3424.6	2765.95
801.0812	252.472	3427.25	2764.4
801.2238	254.6932	3451.45	2785.25
801.3664	256.9139	3457.35	2789.45
801.509	259.134	3467.55	2796.35
801.6516	261.3536	3501.7	2833.65
801.7942	263.5727	3548.9	2878.6
801.9369	265.7912	3624.55	2953.3
802.0795	268.0092	3728.4	3058.15
802.2222	270.2267	3806.3	3133.7
802.3649	272.4436	3914.8	3239.7
802.5076	274.6601	3971.75	3286.95
802.6504	276.8759	4003.95	3326.95
802.7931	279.0913	4032.85	3356.5
802.9359	281.3061	4075.35	3394.45
803.0787	283.5204	4107	3425.1
803.2215	285.7341	4167.4	3479.15
803.3643	287.9473	4205.9	3518.45
803.5071	290.16	4195.7	3500.15
803.6499	292.3721	4125.85	3438.2
803.7928	294.5837	4055.45	3364.3
803.9357	296.7947	3970	3280.55
804.0786	299.0052	3946.8	3256.95
804.2215	301.2152	3905.45	3211.05
804.3644	303.4246	3876.7	3186.25
804.5074	305.6334	3872.8	3182.3
804.6503	307.8418	3872.8	3177.4
804.7933	310.0495	3825.6	3130.3
804.9363	312.2568	3768.55	3072.8
805.0793	314.4635	3697.25	3001.6
805.2223	316.6696	3615.95	2916.75
805.3653	318.8752	3541.55	2834.35
805.5084	321.0802	3461.5	2760.8
805.6514	323.2847	3439.6	2738.75
805.7945	325.4887	3447.4	2745.3
805.9376	327.692	3487.2	2783.65
806.0807	329.8949	3543.7	2837.35
806.2238	332.0972	3650.65	2944.5
806.367	334.2989	3711.1	3000.65
806.5101	336.5001	3735.5	3024.55
806.6533	338.7007	3700.7	2989.65
806.7965	340.9008	3609.7	2896.45
806.9397	343.1003	3502.85	2785.95
807.0829	345.2992	3394.15	2678.25
807.2261	347.4976	3308.25	2589.7
807.3693	349.6955	3242.9	2521.7
807.5126	351.8927	3214.45	2491.1
807.6559	354.0895	3187.2	2453.2
807.7991	356.2856	3165.25	2441
807.9424	358.4812	3130.95	2403.7
808.0857	360.6763	3136.45	2410.4
808.2291	362.8707	3106.8	2380.45
808.3724	365.0646	3127.25	2397.5
808.5158	367.258	3123.45	2391.25
808.6591	369.4508	3151.1	2414.75
808.8025	371.643	3209.1	2474.05
808.9459	373.8346	3260.2	2523.45
809.0893	376.0257	3329.3	2589.05
809.2327	378.2162	3400.65	2659.15
809.3762	380.4062	3427.25	2684.2
809.5196	382.5956	3390.35	2643.8
809.6631	384.7844	3302.55	2559.05
809.8066	386.9726	3237.1	2490.65
809.9501	389.1603	3172.25	2426.8
810.0936	391.3474	3160	2384.85
810.2371	393.5339	3131.3	2387.05
810.3806	395.7199	3140.75	2402.2
810.5241	397.9052	3188.15	2451.95
810.6677	400.09	3245.9	2508.35
810.8113	402.2743	3338.8	2599.75
810.9548	404.4579	3392.8	2654.7
811.0984	406.641	3474.55	2733.85
811.2421	408.8235	3536.6	2794.95
811.3857	411.0054	3612.8	2869.55
811.5293	413.1868	3691.9	2945.15
811.673	415.3675	3751.4	3003.15
811.8166	417.5477	3763.2	3013.5
811.9603	419.7273	3704.8	2951.65
812.104	421.9064	3599.4	2840.45
812.2477	424.0848	3489.45	2732.55
812.3914	426.2627	3360.95	2603.85
812.5351	428.4399	3255.35	2494.85
812.6788	430.6166	3156.2	2393.75
812.8226	432.7928	3078.45	2313.8
812.9663	434.9683	3014.75	2252.45
813.1101	437.1432	2979.6	2213.7
813.2539	439.3176	2944.25	2179
813.3977	441.4914	2915.95	2148.65
813.5415	443.6645	2919.2	2146.2
813.6853	445.8371	2901.2	2133.65
813.8291	448.0091	2908.35	2139.1
813.973	450.1806	2917.45	2147.85
814.1168	452.3514	2902.9	2128.55
814.2607	454.5216	2911.65	2129.85
814.4046	456.6913	2912.05	2137.75
814.5485	458.8603	2917.25	2144.2
814.6924	461.0288	2924.35	2149.55
814.8363	463.1967	2922.1	2148.3
814.9802	465.3639	2915.65	2141.4
815.1241	467.5306	2904.1	2127.35
815.2681	469.6967	2902.95	2125.5
815.412	471.8622	2883.95	2105.6
815.556	474.0271	2888.4	2109.3
815.7	476.1914	2876.8	2095.75
815.844	478.3551	2874.65	2094.7
815.988	480.5182	2871.5	2091.7
816.132	482.6807	2871.7	2090
816.276	484.8426	2910.4	2129.2
816.4201	487.0039	2982.9	2200.9
816.5641	489.1647	3087.7	2305.55
816.7082	491.3248	3182.7	2399.6
816.8522	493.4843	3190.7	2408.65
816.9963	495.6432	3185.05	2400.95
817.1404	497.8015	3115.9	2328.15
817.2845	499.9592	3034.45	2251.5
817.4286	502.1163	2947.9	2162.1
817.5727	504.2728	2876.9	2087.35
817.7168	506.4287	2834.65	2047.5
817.861	508.5839	2805.15	2016.8
818.0051	510.7386	2769.55	1983.75
818.1493	512.8927	2784.7	1989.2
818.2935	515.0461	2799	2009.1
818.4377	517.199	2829.8	2041.95
818.5818	519.3512	2890.8	2098.85
818.726	521.5029	3021.8	2224.65
818.8703	523.6539	3147.65	2355.65
819.0145	525.8043	3167.5	2373.35
819.1587	527.9541	3097.2	2302.1
819.303	530.1033	2950.75	2156.5
819.4472	532.2519	2859.75	2066.2
819.5915	534.3999	2808.7	2009.45
819.7357	536.5472	2787	1990.8
819.88	538.694	2795.05	1997.35
820.0243	540.8401	2819.35	2020.9
820.1686	542.9856	2850.1	2050.25
820.3129	545.1305	2872.75	2072.15
820.4572	547.2748	2918.4	2118.85
820.6016	549.4185	2916	2115.35
820.7459	551.5615	2921.25	2121.6
820.8902	553.704	2946.3	2144.6
821.0346	555.8458	2977.05	2178
821.1789	557.987	3026.2	2224.35
821.3233	560.1276	3097.85	2292.6
821.4677	562.2675	3202.85	2402.1
821.6121	564.4069	3360.3	2558.35
821.7565	566.5456	3448.75	2648.45
821.9009	568.6837	3413.3	2609.9
822.0453	570.8212	3236.85	2435.3
822.1897	572.958	3066.25	2259.9
822.3342	575.0942	2943.65	2139.55
822.4786	577.2299	2869.3	2064.4
822.6231	579.3648	2839.45	2032.25
822.7675	581.4992	2821.1	2013.6
822.912	583.6329	2830.5	2023.55
823.0565	585.766	2884.8	2077.95
823.201	587.8985	2952.8	2145.9
823.3454	590.0304	3064.35	2233
823.4899	592.1616	3139.1	2328.1
823.6345	594.2922	3150.05	2341.4
823.779	596.4222	3103.3	2292.4
823.9235	598.5515	2994.6	2184.55
824.068	600.6802	2879.25	2069.05
824.2126	602.8083	2795.5	1983.9
824.3571	604.9358	2774.2	1960.85
824.5017	607.0626	2754.85	1943
824.6462	609.1888	2768.55	1955.15
824.7908	611.3144	2796.75	1982.25
824.9354	613.4393	2865.3	2051.6
825.08	615.5636	2976.6	2162.2
825.2246	617.6873	3063.5	2250.45
825.3692	619.8103	3140	2325.85
825.5138	621.9327	3149.75	2331.2
825.6584	624.0544	3105.75	2288.95
825.803	626.1756	2995.2	2180.95
825.9477	628.2961	2876.6	2060.65
826.0923	630.4159	2814.35	1996.95
826.237	632.5351	2805.2	1987.3
826.3816	634.6537	2801.8	1984.65
826.5263	636.7716	2774.85	1955.1
826.6709	638.8889	2785.1	1964.9
826.8156	641.0056	2783.45	1961.9
826.9603	643.1216	2824.05	2003.55
827.105	645.237	2836.45	2013.55
827.2497	647.3518	2810.4	1988.95
827.3944	649.4659	2737.6	1914.65
827.5391	651.5793	2711.9	1889.6
827.6838	653.6922	2675	1853.3
827.8285	655.8043	2670.75	1849.15
827.9733	657.9159	2633.35	1808.8
828.118	660.0268	2611.45	1784.9
828.2627	662.137	2615.2	1793.65
828.4075	664.2466	2636.85	1809.9
828.5522	666.3556	2616.05	1791.1
828.697	668.4639	2614.2	1785.8
828.8418	670.5716	2593.9	1768.05
828.9865	672.6786	2586.05	1759.3
829.1313	674.785	2577.75	1749.3
829.2761	676.8907	2566.3	1739.15
829.4209	678.9958	2568.2	1741.55
829.5657	681.1002	2571.6	1741.2
829.7105	683.204	2578.2	1746.8
829.8553	685.3072	2571.2	1741.5
830.0001	687.4097	2564.3	1735.9
830.1449	689.5115	2571.65	1739.05
830.2898	691.6127	2559.2	1730.55
830.4346	693.7132	2565.55	1736.2
830.5794	695.8131	2576.5	1736.6
830.7243	697.9123	2567.05	1735.65
830.8691	700.0109	2571.95	1738.45
831.014	702.1089	2594.6	1762.85
831.1588	704.2061	2616.45	1783.9
831.3037	706.3028	2669.5	1835.05
831.4486	708.3987	2697.95	1865.45
831.5935	710.4941	2739.85	1906.9
831.7383	712.5887	2755.4	1918.95
831.8832	714.6827	2746.35	1908.2
832.0281	716.7761	2725.15	1890.2
832.173	718.8688	2707.9	1873
832.3179	720.9608	2710.05	1869.95
832.4628	723.0522	2729	1891.6
832.6077	725.1429	2757.6	1923.2
832.7527	727.233	2814.65	1979.7
832.8976	729.3224	2917.7	2081.55
833.0425	731.4112	3020.05	2181.5
833.1874	733.4993	3076.8	2238.35
833.3324	735.5867	3017.4	2178.45
833.4773	737.6735	2878.25	2037.15
833.6222	739.7596	2759.25	1920.05
833.7672	741.845	2679.95	1839.8
833.9122	743.9298	2669.95	1829.1
834.0571	746.014	2646.85	1808.25
834.2021	748.0974	2667.5	1827.55
834.347	750.1802	2675	1834.95
834.492	752.2624	2659.75	1820.3
834.637	754.3439	2660.05	1817.95
834.782	756.4247	2650.7	1799.75
834.9269	758.5048	2655.6	1815
835.0719	760.5843	2693.15	1851.75
835.2169	762.6631	2755.7	1913.9
835.3619	764.7413	2847.6	2007.25
835.5069	766.8188	3005.25	2161.6
835.6519	768.8956	3150.8	2305.15
835.7969	770.9718	3275.3	2430.85
835.9419	773.0473	3255.2	2414.05
836.0869	775.1221	3188.75	2344.15
836.232	777.1962	3150.2	2306.3
836.377	779.2697	3249.7	2403.65
836.522	781.3426	3467.5	2611.05
836.667	783.4147	3620.5	2774.3
836.8121	785.4862	3630.4	2786.2
836.9571	787.557	3499.5	2655
837.1021	789.6271	3237.35	2393.45
837.2472	791.6966	2997.7	2151.2
837.3922	793.7654	2801.8	1955.7
837.5373	795.8335	2668.05	1821.05
837.6823	797.901	2607.2	1760.4
837.8274	799.9678	2583.5	1736.2
837.9724	802.0339	2579.8	1735.05
838.1175	804.0993	2619.5	1763.55
838.2626	806.1641	2600.85	1750.95
838.4076	808.2282	2571.1	1723.4
838.5527	810.2916	2536.6	1686.95
838.6978	812.3544	2512.95	1666.45
838.8428	814.4164	2492.3	1647.5
838.9879	816.4778	2505.45	1657.5
839.133	818.5385	2523.15	1675.1
839.2781	820.5986	2578.45	1729.5
839.4232	822.658	2681.5	1831.35
839.5682	824.7166	2811.85	1963.65
839.7133	826.7747	2951.55	2103.5
839.8584	828.832	3103.7	2255
840.0035	830.8886	3212.85	2361.5
840.1486	832.9446	3276.9	2425.45
840.2937	834.9999	3245.55	2396
840.4388	837.0545	3144.75	2292.05
840.5839	839.1085	2964.65	2113.7
840.729	841.1618	2799.55	1946.5
840.8741	843.2143	2707.35	1856
841.0192	845.2662	2631.6	1780.7
841.1643	847.3175	2594.7	1745.1
841.3095	849.368	2564.25	1712.35
841.4546	851.4179	2559.3	1708.05
841.5997	853.467	2569.25	1715.25
841.7448	855.5155	2572.5	1720.65
841.8899	857.5633	2584.5	1734.75
842.0351	859.6105	2582.15	1731.4
842.1802	861.6569	2563.9	1712.45
842.3253	863.7027	2524.4	1670.6
842.4704	865.7478	2501.7	1647.2
842.6156	867.7922	2473.25	1619.3
842.7607	869.8359	2468.45	1612.9
842.9058	871.8789	2453.95	1599
843.0509	873.9212	2481.7	1594.2
843.1961	875.9629	2440.5	1587.4
843.3412	878.0039	2468.85	1613.95
843.4863	880.0441	2489.95	1635.95
843.6315	882.0837	2523.85	1668.9
843.7766	884.1226	2563.4	1705.7
843.9218	886.1609	2633.8	1779.1
844.0669	888.1984	2738.1	1884.15
844.212	890.2352	2830.9	1976.4
844.3572	892.2714	2866.9	2008.5
844.5023	894.3069	2814.5	1958.5
844.6475	896.3416	2713.5	1856.2
844.7926	898.3757	2630.75	1772.55
844.9377	900.4091	2580.3	1724.25
845.0829	902.4418	2584.75	1723.65
845.228	904.4739	2614.45	1755.45
845.3732	906.5052	2674.05	1818
845.5183	908.5358	2663.15	1807.35
845.6635	910.5658	2639.3	1780.9
845.8086	912.595	2573.2	1714.5
845.9538	914.6236	2505.95	1650.05
846.0989	916.6515	2449.7	1593.05
846.2441	918.6786	2418.65	1560.1
846.3892	920.7051	2399.2	1541.45
846.5344	922.7309	2390.05	1531.5
846.6795	924.756	2391.7	1531.95
846.8246	926.7804	2408.55	1546.6
846.9698	928.8041	2427.05	1564.55
847.1149	930.8272	2464.6	1606.05
847.2601	932.8495	2481.25	1620.6
847.4052	934.8711	2492.15	1629.4
847.5504	936.892	2498.9	1638.5
847.6955	938.9123	2534.55	1673.85
847.8407	940.9318	2590.45	1730.95
847.9858	942.9506	2623.75	1763.5
848.131	944.9688	2621.55	1758.8
848.2761	946.9862	2578.5	1718
848.4213	949.003	2516.8	1653.85
848.5664	951.019	2471	1610.05
848.7115	953.0344	2438.05	1575.9
848.8567	955.0491	2406.4	1544.55
849.0018	957.063	2375.9	1514.5
849.147	959.0763	2382.7	1521.5
849.2921	961.0888	2388.75	1522.6
849.4373	963.1007	2375.9	1515.05
849.5824	965.1119	2347.65	1485.85
849.7275	967.1223	2339.15	1477.5
849.8727	969.1321	2320.5	1460.25
850.0178	971.1412	2318.75	1455.6
850.1629	973.1495	2315.75	1452
850.3081	975.1572	2352.95	1440.25
850.4532	977.1641	2329.35	1466.85
850.5983	979.1704	2319.85	1455.8
850.7435	981.1759	2320.9	1453.5
850.8886	983.1808	2301.35	1435.5
851.0337	985.1849	2297.75	1424.15
851.1788	987.1884	2277.4	1411.25
851.324	989.1911	2293.35	1425.9
851.4691	991.1932	2314.2	1448.95
851.6142	993.1945	2309	1444.5
851.7593	995.1951	2310.35	1445.3
851.9045	997.1951	2310.2	1440.6
852.0496	999.1943	2300.25	1435.2
852.1947	1001.1928	2304.05	1437.3
852.3398	1003.1906	2317.75	1452.1
852.4849	1005.1877	2366.7	1500.8
852.63	1007.1841	2426.05	1558.85
852.7751	1009.1798	2457.35	1595.45
852.9202	1011.1748	2443.65	1579.6
853.0653	1013.1691	2387.3	1521.4
853.2104	1015.1627	2319.95	1453.6
853.3555	1017.1556	2274.3	1408.6
853.5006	1019.1477	2233.65	1366.45
853.6457	1021.1392	2198.5	1331.65
853.7908	1023.1299	2196.4	1330.2
853.9359	1025.12	2185.7	1318.2
854.081	1027.1093	2199.55	1333.25
854.2261	1029.0979	2243.55	1378.45
854.3712	1031.0859	2283.45	1417.05
854.5163	1033.0731	2298.1	1432.15
854.6613	1035.0596	2305.7	1440.4
854.8064	1037.0454	2292.65	1423.65
854.9515	1039.0304	2262.6	1393.95
855.0965	1041.0148	2240.4	1375
855.2416	1042.9985	2195.35	1324.6
855.3867	1044.9814	2150.7	1286
855.5317	1046.9636	2160.85	1290.9
855.6768	1048.9452	2165.45	1299.5
855.8219	1050.926	2212.95	1345.25
855.9669	1052.9061	2241.6	1375.8
856.112	1054.8855	2248.85	1380.5
856.257	1056.8642	2255.55	1386.5
856.4021	1058.8421	2248.65	1374.55
856.5471	1060.8194	2238.7	1370.1
856.6921	1062.7959	2235.6	1368.35
856.8372	1064.7717	2226.2	1357.1
856.9822	1066.7469	2228.75	1358.75
857.1272	1068.7213	2246.4	1376.2
857.2723	1070.695	2242.4	1374.15
857.4173	1072.6679	2284.45	1414.8
857.5623	1074.6402	2348.3	1478.35
857.7073	1076.6117	2362.85	1488.3
857.8523	1078.5826	2343.05	1473.15
857.9973	1080.5527	2285.7	1414.8
858.1423	1082.5221	2213.1	1345.3
858.2873	1084.4908	2152.05	1282.45
858.4323	1086.4587	2127.95	1257.15
858.5773	1088.426	2102.15	1232.4
858.7223	1090.3925	2093.9	1219.25
858.8673	1092.3584	2113	1243.6
859.0123	1094.3235	2110.8	1242.35
859.1573	1096.2879	2153.85	1282.3
859.3022	1098.2515	2186.1	1316.7
859.4472	1100.2145	2226.45	1356.85
859.5922	1102.1767	2284.95	1411.45
859.7371	1104.1382	2358.35	1488.45
859.8821	1106.099	2469.05	1595
860.027	1108.0591	2554.1	1682.9
860.172	1110.0185	2636.6	1764.65
860.3169	1111.9771	2711.2	1840.95
860.4619	1113.9351	2802.25	1929.15
860.6068	1115.8923	2929.7	2057.8
860.7517	1117.8488	3032	2158.8
860.8967	1119.8045	2978.2	2106
861.0416	1121.7596	2796.3	1923.75
861.1865	1123.7139	2574.75	1705.6
861.3314	1125.6675	2450.4	1578.25
861.4763	1127.6204	2422.15	1551.35
861.6212	1129.5726	2466.7	1594.1
861.7661	1131.524	2474.05	1603.75
861.911	1133.4748	2406.4	1534.75
862.0559	1135.4248	2299.75	1426.4
862.2008	1137.3741	2203.95	1331.6
862.3457	1139.3226	2133.85	1259.2
862.4905	1141.2705	2112.5	1239.2
862.6354	1143.2176	2132.2	1252.2
862.7803	1145.164	2163.9	1288.9
862.9251	1147.1097	2177.4	1304.25
863.07	1149.0546	2143.8	1267.85
863.2148	1150.9989	2094.85	1219.2
863.3597	1152.9424	2051.95	1177.3
863.5045	1154.8852	2023.3	1151
863.6493	1156.8272	2011.75	1138.55
863.7942	1158.7686	2014.85	1132.65
863.939	1160.7092	2003.85	1128.5
864.0838	1162.6491	2000.45	1125.35
864.2286	1164.5883	2021.55	1147.95
864.3734	1166.5267	2049.1	1172.1
864.5182	1168.4644	2092.55	1216.9
864.663	1170.4014	2156.15	1278
864.8078	1172.3377	2211.6	1340.1
864.9526	1174.2732	2290.6	1418.15
865.0974	1176.2081	2440.55	1567.9
865.2421	1178.1421	2666.35	1791.55
865.3869	1180.0755	2921.4	2048.35
865.5317	1182.0082	3096.45	2222.05
865.6764	1183.9401	3111.95	2236.05
865.8212	1185.8713	2962.15	2085.05
865.9659	1187.8017	2714.55	1837.75
866.1106	1189.7315	2482.4	1607.7
866.2554	1191.6605	2345	1440.75
866.4001	1193.5888	2215.15	1339.7
866.5448	1195.5163	2150.45	1274.7
866.6895	1197.4432	2114	1239.55
866.8342	1199.3693	2071	1197.45
866.9789	1201.2947	2053.25	1170.5
867.1236	1203.2193	2031.95	1156.85
867.2683	1205.1432	2019	1143.8
867.413	1207.0664	2010.15	1133.75
867.5576	1208.9889	2008.5	1131.2
867.7023	1210.9106	2014.7	1137.7
867.847	1212.8316	2016	1142.3
867.9916	1214.7519	2044.55	1160.2
868.1363	1216.6715	2063.95	1190.2
868.2809	1218.5903	2078.15	1201.5
868.4255	1220.5084	2096.9	1219.95
868.5701	1222.4257	2137.1	1260.35
868.7148	1224.3424	2145.6	1269.65
868.8594	1226.2583	2177.1	1295.85
869.004	1228.1735	2227.5	1351.3
869.1486	1230.0879	2282.65	1403.9
869.2932	1232.0016	2363.55	1488.3
869.4377	1233.9146	2425.75	1546.35
869.5823	1235.8269	2450.75	1574.25
869.7269	1237.7384	2459.5	1583.05
869.8715	1239.6492	2436.05	1558.65
870.016	1241.5592	2474.6	1596.25
870.1606	1243.4686	2532.45	1656.65
870.3051	1245.3772	2666.2	1789.65
870.4496	1247.285	2825.55	1948.4
870.5941	1249.1922	2982.2	2104.7
870.7387	1251.0986	3107	2231.75
870.8832	1253.0042	3223.5	2346.9
871.0277	1254.9092	3369.9	2491.25
871.1722	1256.8134	3565.2	2689.45
871.3167	1258.7169	3758.9	2881.15
871.4611	1260.6196	3925.9	3048.6
871.6056	1262.5216	4047.85	3168.7
871.7501	1264.4229	4046.1	3168.95
871.8945	1266.3234	4011.1	3134.5
872.039	1268.2232	3893.75	3013.4
872.1834	1270.1223	3781.5	2903.7
872.3278	1272.0207	3675.4	2796.7
872.4723	1273.9183	3629.45	2742.75
872.6167	1275.8151	3607.9	2731.6
872.7611	1277.7113	3661.4	2781.65
872.9055	1279.6067	3783.2	2905.25
873.0499	1281.5014	4069.75	3189.35
873.1943	1283.3953	4425.3	3548
873.3386	1285.2885	4837.3	3959.3
873.483	1287.181	5173.6	4293.05
873.6274	1289.0727	5358.55	4479
873.7717	1290.9637	5290.55	4410.8
873.9161	1292.854	5058.3	4180.45
874.0604	1294.7435	4736.35	3856.65
874.2047	1296.6323	4461.3	3582.5
874.349	1298.5204	4226.2	3345.4
874.4933	1300.4077	4047.9	3169.75
874.6376	1302.2943	3942.05	3062.4
874.7819	1304.1802	3839.15	2959.9
874.9262	1306.0653	3769.8	2888.25
875.0705	1307.9497	3688.6	2809.25
875.2147	1309.8333	3649.05	2771.8
875.359	1311.7162	3602.1	2722.25
875.5032	1313.5984	3560.75	2680.05
875.6475	1315.4798	3541.6	2653.65
875.7917	1317.3605	3546.45	2651
875.9359	1319.2405	3582.4	2702.4
876.0801	1321.1197	3610.9	2727.8
876.2243	1322.9982	3578.3	2693.75
876.3685	1324.876	3478.1	2598.45
876.5127	1326.753	3329.05	2451.55
876.6569	1328.6293	3148	2268.85
876.801	1330.5048	2955.4	2073.5
876.9452	1332.3796	2762.05	1883.95
877.0893	1334.2537	2656.55	1750.2
877.2335	1336.127	2543.35	1664.15
877.3776	1337.9996	2464.8	1585.7
877.5217	1339.8714	2418.8	1539.65
877.6658	1341.7426	2409.45	1484.75
877.8099	1343.6129	2342.95	1462.05
877.954	1345.4826	2296.3	1418.05
878.0981	1347.3515	2278.55	1397.3
878.2422	1349.2196	2244.3	1362.35
878.3862	1351.087	2231.55	1352.55
878.5303	1352.9537	2214.85	1333.35
878.6743	1354.8197	2217.5	1338
878.8184	1356.6849	2235.1	1356.6
878.9624	1358.5493	2258.65	1376.35
879.1064	1360.4131	2301.9	1423.65
879.2504	1362.276	2369.15	1491.1
879.3944	1364.1383	2442.65	1562.8
879.5384	1365.9998	2485.6	1598.45
879.6823	1367.8606	2460.55	1579.5
879.8263	1369.7206	2452.6	1572.5
879.9702	1371.5799	2459.25	1577.25
880.1142	1373.4384	2462.2	1582.25
880.2581	1375.2962	2410.65	1528.9
880.402	1377.1533	2324.2	1443.5
880.5459	1379.0096	2237.5	1356.45
880.6898	1380.8652	2179.75	1297.7
880.8337	1382.7201	2117.55	1235.4
880.9776	1384.5742	2062.7	1182.15
881.1215	1386.4275	2016.55	1135.35
881.2653	1388.2802	1982.4	1103
881.4092	1390.132	1956.7	1076.65
881.553	1391.9832	1931.55	1050.35
881.6968	1393.8336	1927.55	1045.45
881.8406	1395.6832	1905.4	1024.15
881.9844	1397.5322	1901.5	1021.2
882.1282	1399.3803	1890.2	1005
882.272	1401.2278	1871.35	991.4
882.4158	1403.0745	1843.8	961.95
882.5595	1404.9204	1833.75	955.4
882.7033	1406.7656	1823.1	942.55
882.847	1408.6101	1819.05	937.2
882.9908	1410.4538	1812.85	931.35
883.1345	1412.2968	1805.05	924.2
883.2782	1414.139	1808.9	928.95
883.4219	1415.9805	1836.15	955.75
883.5656	1417.8213	1859.5	969.25
883.7092	1419.6613	1883.05	1001.75
883.8529	1421.5006	1937.25	1053.85
883.9965	1423.3391	2013.1	1130.55
884.1402	1425.1769	2105.8	1224.5
884.2838	1427.0139	2260.35	1379.1
884.4274	1428.8502	2423.7	1543.5
884.571	1430.6858	2566.05	1683.45
884.7146	1432.5206	2623.9	1742.55
884.8582	1434.3547	2616	1734.3
885.0018	1436.188	2577.55	1694.75
885.1453	1438.0206	2557.9	1676.3
885.2889	1439.8524	2543.15	1660.2
885.4324	1441.6835	2534.05	1651.5
885.5759	1443.5139	2527.65	1641.9
885.7194	1445.3435	2541.15	1660.15
885.8629	1447.1724	2544.05	1664.5
886.0064	1449.0005	2536.6	1654.75
886.1499	1450.8279	2531.15	1647.95
886.2933	1452.6545	2503.95	1622.9
886.4368	1454.4804	2504.15	1623.3
886.5802	1456.3056	2492.15	1601.3
886.7237	1458.13	2461.25	1580.55
886.8671	1459.9536	2412.6	1528.95
887.0105	1461.7766	2352.65	1471.15
887.1539	1463.5987	2279.9	1394.95
887.2972	1465.4202	2211.45	1328.8
887.4406	1467.2409	2130.6	1249.35
887.584	1469.0608	2073.85	1191.7
887.7273	1470.88	2005.8	1124.3
887.8706	1472.6984	1960.3	1078.55
888.0139	1474.5161	1903.2	1016.55
888.1572	1476.3331	1862.55	980.6
888.3005	1478.1493	1849.35	966.25
888.4438	1479.9648	1841.6	961.65
888.5871	1481.7795	1838.65	956.25
888.7303	1483.5935	1845.7	964.7
888.8736	1485.4067	1840.75	959.35
889.0168	1487.2192	1846.8	963.9
889.16	1489.031	1854.4	971.35
889.3032	1490.842	1848.75	968.2
889.4464	1492.6522	1851.65	969.35
889.5896	1494.4618	1835.4	952.05
889.7327	1496.2705	1840.3	958.15
889.8759	1498.0785	1838.15	954.7
890.019	1499.8858	1825.85	940.75
890.1622	1501.6924	1814.8	934.25
890.3053	1503.4981	1812.3	929.35
890.4484	1505.3032	1796.95	914.15
890.5914	1507.1075	1786.1	901.5
890.7345	1508.911	1779.6	894.35
890.8776	1510.7138	1763.4	880.1
891.0206	1512.5159	1754.3	870.35
891.1637	1514.3172	1744.25	861.85
891.3067	1516.1178	1732.1	849.4
891.4497	1517.9176	1719.45	834.75
891.5927	1519.7166	1708.25	824.8
891.7357	1521.515	1705.45	815.85
891.8786	1523.3126	1690.85	806.35
892.0216	1525.1094	1687.35	801.75
892.1645	1526.9055	1671.1	788.7
892.3074	1528.7008	1682.1	800
892.4503	1530.4954	1674.4	784
892.5932	1532.2893	1664.5	783.75
892.7361	1534.0824	1666.6	776.35
892.879	1535.8747	1665.7	782.35
893.0218	1537.6663	1655.8	771.05
893.1647	1539.4572	1653.75	768.65
893.3075	1541.2473	1657.45	776.1
893.4503	1543.0367	1656.25	774
893.5931	1544.8253	1662.2	774.15
893.7359	1546.6132	1673.6	788.55
893.8787	1548.4003	1677.05	786.6
894.0214	1550.1867	1695.65	803.8
894.1642	1551.9723	1713.55	826
894.3069	1553.7572	1724.7	839.05
894.4496	1555.5414	1766.75	882.05
894.5923	1557.3247	1811.55	927.6
894.735	1559.1074	1881	998.95
894.8777	1560.8893	1961.1	1078.3
895.0204	1562.6705	2032.6	1149.5
895.163	1564.4509	2095.35	1212.1
895.3056	1566.2305	2117.05	1233.85
895.4482	1568.0094	2145.05	1261
895.5908	1569.7876	2131.15	1247.95
895.7334	1571.565	2130.25	1244.6
895.876	1573.3417	2140.15	1256.5
896.0186	1575.1176	2135.25	1252.9
896.1611	1576.8928	2172.35	1289.05
896.3036	1578.6672	2211.75	1326.35
896.4461	1580.4409	2284.5	1403.1
896.5886	1582.2138	2356.1	1469.1
896.7311	1583.986	2432.4	1549.3
896.8736	1585.7575	2527.2	1643.45
897.0161	1587.5282	2597.1	1714.3
897.1585	1589.2981	2658.15	1775.1
897.3009	1591.0673	2693.25	1808
897.4433	1592.8358	2713.95	1831.05
897.5857	1594.6035	2705.15	1819.65
897.7281	1596.3704	2683.15	1798.05
897.8705	1598.1366	2636.9	1752.3
898.0128	1599.9021	2588.15	1704.45
898.1551	1601.6668	2529.85	1641.75
898.2975	1603.4308	2486.85	1601.95
898.4398	1605.194	2480.6	1591.45
898.5821	1606.9564	2494.45	1608.75
898.7243	1608.7182	2604.05	1714.75
898.8666	1610.4791	2762.45	1879.9
899.0088	1612.2394	2961.75	2077.15
899.1511	1613.9988	3193.3	2307.7
899.2933	1615.7576	3396.4	2512.5
899.4355	1617.5156	3532.8	2643.5
899.5776	1619.2728	3502.95	2618
899.7198	1621.0293	3363	2480.05
899.862	1622.785	3153.05	2262.6
900.0041	1624.54	2898.95	2010.4
900.1462	1626.2942	2648.55	1760.5
900.2883	1628.0477	2420.05	1532.6
900.4304	1629.8005	2239.9	1352.25
900.5725	1631.5525	2092	1207.55
900.7145	1633.3037	1976.3	1091.4
900.8566	1635.0542	1897.65	1012.95
900.9986	1636.804	1829.9	944.9
901.1406	1638.553	1828.45	880.9
901.2826	1640.3013	1726.3	840.7
901.4245	1642.0488	1688.7	801.6
901.5665	1643.7955	1654.95	771.85
901.7085	1645.5416	1635.35	750.15
901.8504	1647.2868	1614.1	729.95
901.9923	1649.0313	1593.3	709.15
902.1342	1650.7751	1594.8	707.75
902.2761	1652.5181	1582	695.4
902.4179	1654.2604	1579.05	692.25
902.5598	1656.0019	1584.3	702.3
902.7016	1657.7427	1606.35	721.1
902.8434	1659.4828	1639.05	756.6
902.9852	1661.222	1695.75	808.1
903.127	1662.9606	1759.15	875.95
903.2687	1664.6984	1854.25	968.45
903.4105	1666.4354	1897.4	1012.95
903.5522	1668.1717	1880.3	994.95
903.6939	1669.9072	1814.05	930.35
903.8356	1671.642	1734.2	845.95
903.9773	1673.3761	1645.95	763.05
904.119	1675.1094	1566.4	681.6
904.2606	1676.8419	1526.65	642.2
904.4022	1678.5737	1490.05	604.95
904.5439	1680.3048	1466.45	582.95
904.6855	1682.0351	1450	565.7
904.827	1683.7646	1444	556.3
904.9686	1685.4934	1428.7	545
905.1101	1687.2215	1416.55	532.9
905.2517	1688.9488	1404.75	521.15
905.3932	1690.6754	1401.35	516.1
905.5347	1692.4012	1397.8	512.55
905.6761	1694.1263	1396.7	511.15
905.8176	1695.8506	1386.9	500.75
905.9591	1697.5742	1377.85	493.55
906.1005	1699.297	1379.9	493.2
906.2419	1701.0191	1371.5	488
906.3833	1702.7404	1374.5	489.65
906.5246	1704.461	1372.65	487.95
906.666	1706.1808	1363	476.3
906.8073	1707.8999	1361.55	475.3
906.9487	1709.6182	1356.85	470.45
907.09	1711.3358	1352.85	469.4
907.2313	1713.0527	1353.05	469.2
907.3725	1714.7688	1358.85	469.15
907.5138	1716.4841	1347.7	461.5
907.655	1718.1987	1348.75	457.85
907.7962	1719.9126	1344.05	461.2
907.9374	1721.6257	1338.65	448.85
908.0786	1723.338	1341.9	456
908.2198	1725.0496	1335.7	449.15
908.3609	1726.7605	1330.3	444.9
908.502	1728.4706	1323.7	437.85
908.6431	1730.18	1329.9	440.95
908.7842	1731.8886	1331.15	446.15
908.9253	1733.5964	1351.2	444.25
909.0664	1735.3036	1327.45	441.35
909.2074	1737.0099	1322.2	438.45
909.3484	1738.7156	1317.2	433
909.4894	1740.4204	1320.65	432.95
909.6304	1742.1246	1316.9	430.5
909.7714	1743.8279	1314.25	431.4
909.9123	1745.5306	1317.55	431.35
910.0532	1747.2325	1317.65	431.1
910.1941	1748.9336	1309.65	425.15
910.335	1750.634	1309.9	423.9
910.4759	1752.3336	1308.7	424.65
910.6168	1754.0325	1308.7	425.75
910.7576	1755.7307	1307.1	421.65
910.8984	1757.4281	1303.85	418.7
911.0392	1759.1247	1311.75	417.4
911.18	1760.8206	1307.9	417.55
911.3208	1762.5158	1309.3	422.4
911.4615	1764.2102	1303.9	420.65
911.6022	1765.9039	1295.55	412.1
911.7429	1767.5968	1307.75	421.85
911.8836	1769.289	1299.3	414.35
912.0243	1770.9804	1293.1	405.15
912.1649	1772.6711	1297.15	411.7
912.3056	1774.361	1295.7	407.45
912.4462	1776.0502	1294.6	409.1
912.5868	1777.7386	1297.3	408.4
912.7274	1779.4263	1293.15	408.95
912.8679	1781.1132	1291.65	404.4
913.0084	1782.7994	1291.2	403.25
913.149	1784.4849	1293.65	407.1
913.2895	1786.1696	1290.9	398.55
913.4299	1787.8535	1288.7	402.25
913.5704	1789.5367	1284.15	398.35
913.7108	1791.2192	1281.05	395.5
913.8513	1792.9009	1295.05	395.45
913.9917	1794.5818	1279.35	393.6
914.132	1796.2621	1276.9	391.6
914.2724	1797.9415	1279.05	393.9
914.4128	1799.6202	1275.7	389.7
914.5531	1801.2982	1277.55	391.2
914.6934	1802.9755	1280.4	393.85
914.8337	1804.6519	1276.1	391
914.9739	1806.3277	1268.3	384.1
915.1142	1808.0027	1264.85	380.6
915.2544	1809.6769	1266.2	379.25
915.3946	1811.3504	1270.6	381.8
915.5348	1813.0231	1267.65	379.95
915.675	1814.6951	1272.35	387
915.8151	1816.3664	1265.2	377.95
915.9553	1818.0369	1267.65	382.3
916.0954	1819.7067	1264.35	378.1
916.2355	1821.3757	1269.3	382
916.3755	1823.044	1266.2	380.9
916.5156	1824.7115	1264.8	379.2
916.6556	1826.3783	1254.85	370.75
916.7956	1828.0443	1259.05	372.95
916.9356	1829.7096	1261.55	375.85
917.0756	1831.3741	1263.15	373.9
917.2155	1833.0379	1260.2	374.7
917.3555	1834.701	1263	373.75
917.4954	1836.3633	1257.55	369.55
917.6353	1838.0248	1255.55	368
917.7751	1839.6856	1257.85	373.75
917.915	1841.3457	1252.25	366
918.0548	1843.005	1254.65	368.9
918.1946	1844.6636	1247.3	361.35
918.3344	1846.3214	1248.05	361.75
918.4742	1847.9785	1250.2	366.2
918.6139	1849.6349	1257.05	369.25
918.7537	1851.2904	1256.05	361.35
918.8934	1852.9453	1253.9	368.15
919.0331	1854.5994	1248.25	360.25
919.1727	1856.2528	1255.2	366.3
919.3124	1857.9054	1249.1	363.25
919.452	1859.5572	1247.05	362.1
919.5916	1861.2083	1244.2	357.65
919.7312	1862.8587	1244.25	357.6
919.8708	1864.5084	1246.1	359.15
920.0103	1866.1572	1241.65	357.2
920.1498	1867.8054	1239.3	354.7
920.2893	1869.4528	1239.15	352.7
920.4288	1871.0994	1236.5	351.45
920.5683	1872.7453	1234.6	348.9
920.7077	1874.3905	1243.25	351.8
920.8471	1876.0349	1235.55	348.15
920.9865	1877.6786	1239.4	351.3
921.1259	1879.3215	1234.7	348.25
921.2653	1880.9637	1234.25	346.55
921.4046	1882.6051	1233.85	347.95
921.5439	1884.2458	1236.5	348.7
921.6832	1885.8858	1236.45	350.45
921.8225	1887.525	1232.35	346.7
921.9617	1889.1634	1231.2	348.1
922.101	1890.8011	1230.1	343.55
922.2402	1892.4381	1225.4	338.5
922.3794	1894.0743	1227.5	344.4
922.5185	1895.7098	1232.2	346.2
922.6577	1897.3446	1226.2	340
922.7968	1898.9786	1228.6	337.9
922.9359	1900.6118	1223.3	337.1
923.075	1902.2443	1225.15	339
923.214	1903.8761	1224.85	338.2
923.3531	1905.5071	1212.75	326.95
923.4921	1907.1374	1219.45	333.55
923.6311	1908.7669	1217.6	331.6
923.77	1910.3957	1216.75	332
923.909	1912.0237	1214.35	329
924.0479	1913.651	1220.6	334.05
924.1868	1915.2776	1214.15	330.7
924.3257	1916.9034	1212.55	327.7
924.4646	1918.5285	1205.45	320.45
924.6034	1920.1528	1209.7	323.8
924.7422	1921.7764	1206.75	320.15
924.881	1923.3992	1207.6	323.9
925.0198	1925.0213	1210.05	323.15
925.1586	1926.6427	1204.5	319.15
925.2973	1928.2633	1290.6	320.25
925.436	1929.8832	1212.8	325.1
925.5747	1931.5023	1205	319.35
925.7134	1933.1207	1201.95	315.1
925.852	1934.7383	1201.8	315.45
925.9906	1936.3552	1199.35	314
926.1292	1937.9714	1202.45	313.7
926.2678	1939.5868	1202.75	316.1
926.4064	1941.2015	1197.9	311.4
926.5449	1942.8154	1194.3	309.25
926.6834	1944.4286	1194.5	308
926.8219	1946.041	1214.15	304.35
926.9604	1947.6528	1191.9	300.6
927.0988	1949.2637	1192.9	307.45
927.2372	1950.8739	1190.55	305.9
927.3756	1952.4834	1189.1	303.7
927.514	1954.0921	1193.05	305.75
927.6523	1955.7001	1197.15	306.8
927.7907	1957.3074	1190.5	304.05
927.929	1958.9139	1188.35	302.8
928.0673	1960.5197	1186.1	299.35
928.2055	1962.1247	1185.8	300.8
928.3438	1963.729	1183.6	298.9
928.482	1965.3325	1204.9	295.4
928.6202	1966.9353	1184.15	299.85
928.7584	1968.5374	1183.85	296.75
928.8965	1970.1387	1183	297.5
929.0346	1971.7393	1185.1	299.3
929.1727	1973.3392	1176.55	291.5
929.3108	1974.9383	1179.85	294.95
929.4489	1976.5366	1170.7	284.2
929.5869	1978.1342	1177.75	290.45
929.7249	1979.7311	1177.1	289.3
929.8629	1981.3273	1177.8	289.75
930.0009	1982.9227	1176.65	287.85
930.1388	1984.5173	1172.8	286.85
930.2767	1986.1112	1170.45	285.45
930.4146	1987.7044	1166.6	282.25
930.5525	1989.2968	1166.85	279.5
930.6904	1990.8885	1174.45	284.9
930.8282	1992.4795	1173.5	285.6
930.966	1994.0697	1169.55	281.05
931.1038	1995.6592	1168.9	283.05
931.2415	1997.2479	1166.9	279.95
931.3793	1998.8359	1171.2	284.15
931.517	2000.4232	1168.3	282.55
931.6547	2002.0097	1169.3	284.5
931.7923	2003.5955	1162.2	273.55
931.93	2005.1805	1169.55	282.15
932.0676	2006.7648	1159	272.2
932.2052	2008.3484	1163.95	276.15
932.3427	2009.9312	1167.45	278.55
932.4803	2011.5133	1159.55	273.1
932.6178	2013.0946	1162.4	274.85
932.7553	2014.6752	1154.75	270.25
932.8928	2016.2551	1165.65	279.65
933.0302	2017.8342	1162.65	277.1
933.1676	2019.4126	1161.6	276.25
933.305	2020.9902	1160.9	274.2
933.4424	2022.5672	1152.95	264.05
933.5798	2024.1433	1160.95	268.45
933.7171	2025.7188	1156.25	270.5
933.8544	2027.2935	1153.35	266.05
933.9917	2028.8674	1152.65	267.45
934.129	2030.4406	1149.3	262.5
934.2662	2032.0131	1156	272.2
934.4034	2033.5849	1153.75	262.95
934.5406	2035.1559	1149.2	261.15
934.6778	2036.7261	1150.85	263.6
934.8149	2038.2957	1155.85	269.15
934.952	2039.8645	1153.65	267.3
935.0891	2041.4325	1153.8	264.05
935.2262	2042.9998	1149.5	265
935.3632	2044.5664	1152.5	264.35
935.5002	2046.1323	1147.2	261.65
935.6372	2047.6974	1150.2	263.05
935.7742	2049.2617	1144.6	259.55
935.9111	2050.8254	1180.9	260.15
936.048	2052.3883	1148.4	259.6
936.1849	2053.9504	1143.65	257.7
936.3218	2055.5118	1146.4	257.4
936.4586	2057.0725	1148.9	260
936.5955	2058.6325	1147.95	260.55
936.7323	2060.1917	1141.15	256.25
936.869	2061.7502	1143.2	254.7
937.0058	2063.3079	1142.75	256.15
937.1425	2064.8649	1143.7	253.95
937.2792	2066.4212	1141	252.95
937.4159	2067.9767	1139.8	255.55
937.5525	2069.5315	1140.2	254.6
937.6891	2071.0856	1138.85	251.85
937.8257	2072.6389	1142.85	255.9
937.9623	2074.1915	1140.85	255.75
938.0989	2075.7433	1145.05	255.25
938.2354	2077.2945	1135.3	250.7
938.3719	2078.8448	1134.95	249.1
938.5084	2080.3945	1139.05	253.1
938.6448	2081.9434	1131.25	243.6
938.7812	2083.4916	1136.25	248.6
938.9176	2085.039	1132.25	244.4
939.054	2086.5857	1134.5	248.3
939.1903	2088.1317	1130.45	246.15
939.3267	2089.677	1131.25	244.7
939.463	2091.2215	1129.7	244.7
939.5992	2092.7652	1134.65	246.35
939.7355	2094.3083	1130.85	243.75
939.8717	2095.8506	1128.8	245.4
940.0079	2097.3921	1124.25	235.85
940.1441	2098.933	1125.5	238.7
940.2802	2100.4731	1128.5	241.3
940.4163	2102.0124	1138.4	244.2
940.5524	2103.5511	1126.75	240.15
940.6885	2105.089	1125.25	240.75
940.8245	2106.6261	1128.8	241.95
940.9606	2108.1626	1125.5	238.1
941.0965	2109.6983	1156.5	241.8
941.2325	2111.2332	1126.15	238.3
941.3684	2112.7675	1127.15	239.85
941.5044	2114.301	1125.65	238.3
941.6403	2115.8337	1125.6	239.2
941.7761	2117.3657	1121.2	234.05
941.912	2118.897	1121.75	235.05
942.0478	2120.4276	1130.55	238.05
942.1835	2121.9575	1122.7	235.25
942.3193	2123.4866	1134.25	233.65
942.455	2125.0149	1124.7	235.45
942.5907	2126.5426	1119.8	233.7
942.7264	2128.0695	1122.15	231.75
942.8621	2129.5956	1118.85	233.55
942.9977	2131.1211	1120.85	229.4
943.1333	2132.6458	1116.9	231
943.2689	2134.1698	1112.05	225.25
943.4044	2135.693	1119.1	230.05
943.54	2137.2155	1119.95	229.15
943.6755	2138.7373	1115.85	231
943.8109	2140.2584	1119.75	233.5
943.9464	2141.7787	1125.85	233.15
944.0818	2143.2983	1115.7	230.05
944.2172	2144.8171	1114.6	229.1
944.3526	2146.3353	1113.65	226.95
944.4879	2147.8527	1114	227.2
944.6232	2149.3693	1114.3	228.8
944.7585	2150.8853	1111.8	225.25
944.8938	2152.4005	1115.75	228
945.029	2153.9149	1115.8	229.25
945.1642	2155.4287	1111.25	224.25
945.2994	2156.9417	1112.1	222.35
945.4346	2158.454	1115.3	227.6
945.5697	2159.9655	1108.05	222
945.7048	2161.4764	1106.65	220.65
945.8399	2162.9865	1107.25	220
945.9749	2164.4958	1109.95	222.8
946.1099	2166.0045	1110.35	222.55
946.2449	2167.5124	1104.1	215.15
946.3799	2169.0195	1107.7	222.9
946.5148	2170.526	1107.05	220.3
946.6498	2172.0317	1103.75	217.3
946.7846	2173.5367	1104.5	217.05
946.9195	2175.0409	1105.2	218.25
947.0543	2176.5445	1105.75	220.35
947.1891	2178.0473	1107.35	220.8
947.3239	2179.5494	1107.65	217.65
947.4587	2181.0507	1106.75	221.05
947.5934	2182.5513	1102.7	216.5
947.7281	2184.0512	1101.15	215.4
947.8628	2185.5504	1102.75	217.65
947.9974	2187.0488	1097.3	210.3
948.132	2188.5465	1103.35	216.8
948.2666	2190.0435	1098.7	211.65
948.4012	2191.5397	1102.2	215.65
948.5357	2193.0353	1100.15	215.95
948.6702	2194.5301	1101.85	215.05
948.8047	2196.0241	1099.35	212.9
948.9392	2197.5175	1094.3	208.85
949.0736	2199.0101	1101.9	212.25
949.208	2200.502	1091.95	207.4
949.3424	2201.9931	1097.55	212.95
949.4767	2203.4835	1097.95	209.2
949.611	2204.9733	1098.7	205.8
949.7453	2206.4622	1092.85	206.4
949.8796	2207.9505	1096.5	205
950.0138	2209.438	1093.3	208.3
950.148	2210.9248	1094.55	207.3
950.2822	2212.4109	1092.9	207.8
950.4164	2213.8962	1094.6	206.25
950.5505	2215.3809	1094.5	207.45
950.6846	2216.8648	1094.4	208.6
950.8186	2218.3479	1097	206.8
950.9527	2219.8304	1091.6	201.9
951.0867	2221.3121	1090.7	203.85
951.2207	2222.7931	1088	201.35
951.3546	2224.2733	1087.55	200.9
951.4886	2225.7529	1088.8	202.4
951.6225	2227.2317	1089.7	200.15
951.7563	2228.7098	1091.8	206.2
951.8902	2230.1872	1087.1	200.15
952.024	2231.6638	1085.3	199.65
952.1578	2233.1397	1088.65	196.95
952.2916	2234.6149	1086.25	198.95
952.4253	2236.0894	1086.75	200.7
952.559	2237.5632	1090.35	195.5
952.6927	2239.0362	1084.45	197.05
952.8263	2240.5085	1083.5	197.15
952.9599	2241.9801	1080.25	193.65
953.0935	2243.4509	1077.05	191.9
953.2271	2244.921	1076.9	191.9
953.3606	2246.3904	1083.9	195.25
953.4941	2247.8591	1081.85	196.7
953.6276	2249.3271	1078.55	192.6
953.7611	2250.7943	1081	194.1
953.8945	2252.2608	1078.45	192.75
954.0279	2253.7266	1078.15	192.7
954.1612	2255.1917	1077.25	191.2
954.2946	2256.656	1072.45	184.4
954.4279	2258.1197	1071.5	185.2
954.5612	2259.5826	1076.65	187.85
954.6944	2261.0447	1079.35	191.3
954.8276	2262.5062	1075.55	188
954.9608	2263.9669	1075.05	187.9
955.094	2265.4269	1075.45	189.95
955.2271	2266.8862	1070.45	184.4
955.3602	2268.3448	1071.75	183.25
955.4933	2269.8026	1068.45	182.15
955.6264	2271.2598	1072.8	186.15
955.7594	2272.7162	1070.8	186.25
955.8924	2274.1719	1072.35	186.5
956.0253	2275.6268	1072.2	186.4
956.1583	2277.0811	1068.35	182.25
956.2912	2278.5346	1070.85	184.55
956.4241	2279.9874	1064.55	177.15
956.5569	2281.4395	1067.7	183.55
956.6897	2282.8908	1074.45	181.1
956.8225	2284.3414	1066.45	179.9
956.9553	2285.7914	1063.8	179.25
957.088	2287.2406	1065.35	176.95
957.2207	2288.689	1067.05	182.45
957.3534	2290.1368	1067.15	179.55
957.486	2291.5838	1064.35	175.5
957.6186	2293.0302	1064.4	177.35
957.7512	2294.4758	1068.55	183.3
957.8838	2295.9206	1069.15	179.8
958.0163	2297.3648	1063.15	177.55
958.1488	2298.8082	1066.3	179.45
958.2813	2300.251	1063.1	176.05
958.4137	2301.693	1064.7	174.7
958.5461	2303.1343	1067.65	179.55
958.6785	2304.5748	1065.25	179.4
958.8108	2306.0147	1062.6	176.05
958.9432	2307.4538	1064.4	175.15
959.0754	2308.8922	1061.85	176.65
959.2077	2310.3299	1060.95	175.4
959.3399	2311.7669	1057.75	170.25
959.4721	2313.2031	1059.65	175.55
959.6043	2314.6387	1058.6	174.2
959.7365	2316.0735	1057.6	172.5
959.8686	2317.5076	1062.35	175.7
960.0006	2318.941	1060.55	174.25
960.1327	2320.3737	1057.8	173.25
960.2647	2321.8056	1061.25	173.1
960.3967	2323.2369	1058.45	169.4
960.5287	2324.6674	1063.4	173.65
960.6606	2326.0972	1059.85	171.6
960.7925	2327.5263	1064.85	178.8
960.9244	2328.9547	1062.5	176.15
961.0562	2330.3823	1064	178.35
961.1881	2331.8092	1063.55	176.05
961.3198	2333.2355	1055.7	169.8
961.4516	2334.661	1054.85	168.15
961.5833	2336.0858	1057	168.8
961.715	2337.5098	1055.3	169.75
961.8467	2338.9332	1052.8	166.05
961.9783	2340.3558	1056.35	167.2
962.1099	2341.7778	1054.55	166.5
962.2415	2343.199	1056.35	168.3
962.373	2344.6195	1051.85	163.75
962.5045	2346.0393	1052.2	167.7
962.636	2347.4583	1051.9	165.15
962.7675	2348.8767	1048.45	161.6
962.8989	2350.2943	1055.9	170
963.0303	2351.7113	1047.1	159.15
963.1617	2353.1275	1048.2	161.7
963.293	2354.543	1074.35	164.6
963.4243	2355.9578	1051.6	163.95
963.5556	2357.3718	1048.9	162.3
963.6868	2358.7852	1050.05	159.85
963.818	2360.1978	1047.25	159.45
963.9492	2361.6098	1044.75	159
964.0803	2363.021	1051.35	161.25
964.2114	2364.4315	1045.25	157.85
964.3425	2365.8413	1048.05	160.35
964.4736	2367.2504	1045.7	162.15
964.6046	2368.6587	1043.5	155.85
964.7356	2370.0664	1045.85	159.15
964.8666	2371.4733	1048.5	162.85
964.9975	2372.8795	1047.15	160.15
965.1284	2374.285	1049.75	162.9
965.2593	2375.6899	1044.95	158.9
965.3901	2377.0939	1040.2	154.6
965.5209	2378.4973	1043.45	157.35
965.6517	2379.9	1044.5	157.25
965.7825	2381.3019	1040.45	153.65
965.9132	2382.7032	1042	155.4
966.0439	2384.1037	1038.6	152.75
966.1745	2385.5035	1043	155.25
966.3051	2386.9027	1043.1	156
966.4357	2388.3011	1045.25	155.6
966.5663	2389.6987	1042.4	156.3
966.6968	2391.0957	1034.3	148.2
966.8273	2392.492	1037.55	151.6
966.9578	2393.8876	1035.2	148.75
967.0882	2395.2824	1036.4	150.05
967.2186	2396.6765	1036.1	150.25
967.349	2398.07	1033.55	148.6
967.4793	2399.4627	1037.35	149.95
967.6097	2400.8547	1034.05	146.75
967.7399	2402.246	1037.05	144.3
967.8702	2403.6366	1033.1	146.5
968.0004	2405.0265	1028.7	141.85
968.1306	2406.4156	1039.75	149.45
968.2607	2407.8041	1032.8	143.55
968.3909	2409.1918	1032.45	141.4
968.521	2410.5789	1033.3	147.55
968.651	2411.9652	1035.35	145.1
968.781	2413.3508	1030.2	143.2
968.911	2414.7358	1031.55	144.25
969.041	2416.12	1028.8	143.45
969.1709	2417.5035	1027.9	142.5
969.3008	2418.8863	1032.9	144.15
969.4307	2420.2684	1029.7	144.55
969.5606	2421.6497	1028	142.95
969.6904	2423.0304	1027.5	142.05
969.8201	2424.4104	1028.55	142.35
969.9499	2425.7896	1036.65	141.9
970.0796	2427.1682	1028.45	141.5
970.2093	2428.546	1030.85	142.15
970.3389	2429.9232	1028.55	141.45
970.4685	2431.2996	1025.85	140
970.5981	2432.6753	1024.1	137.75
970.7277	2434.0503	1027.95	141.15
970.8572	2435.4246	1024.55	139.35
970.9867	2436.7982	1024	134.75
971.1161	2438.1711	1027.2	141.25
971.2456	2439.5433	1029.45	141.5
971.375	2440.9148	1031.2	140
971.5043	2442.2856	1023.6	137.25
971.6336	2443.6557	1029.4	140.7
971.7629	2445.025	1022.55	137.05
971.8922	2446.3937	1022.45	135.95
972.0214	2447.7617	1028.15	142.15
972.1506	2449.1289	1021.05	133.4
972.2798	2450.4955	1027.95	136.05
972.4089	2451.8613	1022.8	137.7
972.538	2453.2265	1023.35	138.9
972.6671	2454.5909	1017.3	128.95
972.7961	2455.9546	1020.85	134.95
972.9251	2457.3177	1020.6	132.4
973.0541	2458.68	1022.55	132.8
973.1831	2460.0416	1021.15	133.5
973.312	2461.4025	1023.6	136
973.4408	2462.7627	1030.55	132.8
973.5697	2464.1222	1017.65	133.7
973.6985	2465.4811	1021.55	134.95
973.8273	2466.8392	1016	129.15
973.956	2468.1966	1022.8	134.2
974.0847	2469.5533	1018.15	130.65
974.2134	2470.9093	1020.85	133.45
974.3421	2472.2645	1021.55	131.15
974.4707	2473.6191	1019.75	132.7
974.5993	2474.973	1020.15	132.45
974.7278	2476.3262	1018.15	129.25
974.8563	2477.6787	1017.75	132.25
974.9848	2479.0305	1014.4	127.05
975.1132	2480.3816	1017.15	128.05
975.2417	2481.7319	1017.4	129.95
975.37	2483.0816	1018.3	130.1
975.4984	2484.4306	1020.35	133.25
975.6267	2485.7789	1016.85	130.2
975.755	2487.1264	1019.65	130.7
975.8833	2488.4733	1013.35	128.45
976.0115	2489.8195	1034.45	129.95
976.1397	2491.165	1021.9	131.35
976.2678	2492.5097	1013.65	123.15
976.3959	2493.8538	1015.65	128.9
976.524	2495.1972	1017.5	132.2
976.6521	2496.5398	1012.05	126
976.7801	2497.8818	1020	130.9
976.9081	2499.2231	1012.75	126.7
977.036	2500.5637	1017.3	130.4
977.164	2501.9035	1014.85	127.2
977.2918	2503.2427	1015.45	126.3
977.4197	2504.5812	1013.95	127
977.5475	2505.919	1014.85	126.65
977.6753	2507.256	1010.05	124.2
977.8031	2508.5924	1015.45	128.3
977.9308	2509.9281	1016.45	125.35
978.0585	2511.2631	1009.6	122
978.1861	2512.5974	1012.25	126.5
978.3137	2513.9309	1008.95	120.45
978.4413	2515.2638	1040.15	122.9
978.5689	2516.596	1008.05	122.4
978.6964	2517.9275	1004.25	117.5
978.8239	2519.2583	1011.7	123.8
978.9513	2520.5884	1010.8	121.15
979.0788	2521.9178	1006.8	118.45
979.2062	2523.2465	1008.85	121.55
979.3335	2524.5745	1009.1	122.3
979.4608	2525.9018	1007.2	119.7
979.5881	2527.2284	1006.6	121.75
979.7154	2528.5543	1003.1	118.7
979.8426	2529.8796	1007.2	122
979.9698	2531.2041	1007.45	121.8
980.0969	2532.5279	1003.35	118.6
980.224	2533.851	1008.2	120.5
980.3511	2535.1735	1007.1	118.75
980.4781	2536.4952	1006.25	120.4
980.6052	2537.8163	1007	119.15
980.7321	2539.1366	1007.35	121.6
980.8591	2540.4562	1003.65	116.2
980.986	2541.7752	1003	117.55
981.1129	2543.0935	1006.55	121.45
981.2397	2544.411	1001.5	111.75
981.3665	2545.7279	1002.85	116.5
981.4933	2547.0441	1004.55	116.65
981.62	2548.3596	1006.55	117.1
981.7467	2549.6744	1003.25	118.6
981.8734	2550.9885	1003.55	114.45
982.0001	2552.3019	1001.7	115.5
982.1267	2553.6146	1000.6	113.4
982.2532	2554.9266	999.95	111.8
982.3798	2556.2379	999.85	111.85
982.5063	2557.5485	999.25	112.45
982.6327	2558.8585	1008.65	114.15
982.7592	2560.1677	1003	114.35
982.8856	2561.4762	1001.2	114.35
983.0119	2562.7841	1001.35	112.1
983.1383	2564.0913	1000.85	114.4
983.2646	2565.3977	999.35	113
983.3908	2566.7035	998.6	111.15
983.517	2568.0086	1003.95	114.4
983.6432	2569.313	1001.4	113.4
983.7694	2570.6167	1002.45	112.65
983.8955	2571.9197	1000	114.6
984.0216	2573.222	1004.4	114.95
984.1476	2574.5236	998.85	112.55
984.2737	2575.8246	998.6	108.8
984.3996	2577.1248	1003.65	114.7
984.5256	2578.4244	996.25	110.85
984.6515	2579.7232	999.5	113
984.7774	2581.0214	1026.7	112.7
984.9032	2582.3189	997.45	111.4
985.029	2583.6157	1005.45	115.75
985.1548	2584.9118	998.2	110.4
985.2806	2586.2072	1001.4	116
985.4063	2587.5019	997.5	110.6
985.5319	2588.7959	1004.55	119.15
985.6576	2590.0893	1000.15	110.75
985.7832	2591.3819	999.45	111.55
985.9087	2592.6739	998.45	114.1
986.0343	2593.9652	1000.3	112.4
986.1597	2595.2557	999.25	113.7
986.2852	2596.5456	998.6	110.3
986.4106	2597.8348	1002.3	116.3
986.536	2599.1234	999.1	112.35
986.6614	2600.4112	1004.1	117.15
986.7867	2601.6983	1005.45	115.9
986.912	2602.9848	1001.3	113.55
987.0372	2604.2705	1010.45	116.7
987.1624	2605.5556	1001.3	116
987.2876	2606.84	999.8	115.3
987.4128	2608.1237	1001.9	113.55
987.5379	2609.4067	998.95	113.4
987.6629	2610.689	1008.75	114.1
987.788	2611.9707	1002.55	114.75
987.913	2613.2516	1001.85	110.8
988.0379	2614.5319	993.65	107.1
988.1629	2615.8115	995.6	108.15
988.2878	2617.0903	996.2	108.95
988.4126	2618.3685	997.2	109.65
988.5375	2619.6461	994.6	107.7
988.6622	2620.9229	995.05	107.7
988.787	2622.199	992.3	105.6
988.9117	2623.4745	997.05	109.05
989.0364	2624.7493	993.3	106.85
989.161	2626.0234	995.6	110.45
989.2857	2627.2968	994.55	109.15
989.4102	2628.5695	997.5	110.65
989.5348	2629.8415	994.2	107.85
989.6593	2631.1128	995.7	107.25
989.7837	2632.3835	995.45	107.3
989.9082	2633.6535	994.65	108.45
990.0326	2634.9228	993.7	106.45
990.1569	2636.1914	994.1	106.6
990.2812	2637.4593	996.15	104.5
990.4055	2638.7265	991.65	104.45
990.5298	2639.9931	988.2	102
990.654	2641.259	991.05	102.3
990.7782	2642.5242	991.55	105.15
990.9023	2643.7887	992.65	104.75
991.0264	2645.0525	988.05	101.95
991.1505	2646.3156	986.85	98.85
991.2745	2647.5781	991.2	104.25
991.3985	2648.8398	986.7	102.35
991.5225	2650.1009	1026.35	101.35
991.6464	2651.3613	992.15	104.8
991.7703	2652.6211	986.75	99.7
991.8942	2653.8801	983.3	99.25
992.018	2655.1385	986.95	98.2
992.1418	2656.3961	986.45	101.95
992.2655	2657.6531	982.4	96.3
992.3892	2658.9094	983.95	96.55
992.5129	2660.1651	982.65	97.9
992.6366	2661.42	988.35	101.05
992.7602	2662.6743	986.55	97.7
992.8837	2663.9279	989.65	104.1
993.0073	2665.1808	987.15	98.55
993.1307	2666.433	986.85	95.75
993.2542	2667.6846	983.1	95.7
993.3776	2668.9354	987.65	98.35
993.501	2670.1856	985.6	98.65
993.6244	2671.4351	990	103.25
993.7477	2672.6839	990.65	102.05
993.8709	2673.9321	988.75	102.75
993.9942	2675.1795	993.25	105.75
994.1174	2676.4263	991.05	104.55
994.2405	2677.6724	987.55	102.1
994.3637	2678.9179	990.25	101.65
994.4868	2680.1626	986.3	100.9
994.6098	2681.4067	993.6	105.6
994.7328	2682.6501	989.25	103.95
994.8558	2683.8928	988.9	102.55
994.9788	2685.1348	988.45	100.85
995.1017	2686.3761	987.9	100.75
995.2245	2687.6168	988.2	102.2
995.3474	2688.8568	984.25	99.85
995.4702	2690.0961	985.25	98.7
995.5929	2691.3348	988.15	102.25
995.7156	2692.5727	981.55	93.55
995.8383	2693.81	979.85	94.45
995.961	2695.0466	980.2	93.85
996.0836	2696.2826	982.95	93.6
996.2062	2697.5178	984.3	93.35
996.3287	2698.7524	983.35	96.4
996.4512	2699.9863	984.8	96.45
996.5737	2701.2195	981.25	96.2
996.6961	2702.452	984.05	96.7
996.8185	2703.6839	985.25	96
996.9408	2704.9151	984.25	99.1
997.0631	2706.1456	986.7	99.35
997.1854	2707.3755	988.05	100.1
997.3077	2708.6046	991.9	102.9
997.4299	2709.8331	988.1	101.1
997.552	2711.0609	988.45	100.5
997.6742	2712.2881	991.75	104.25
997.7963	2713.5145	991.05	102.1
997.9183	2714.7403	992.45	106.55
998.0403	2715.9654	994.15	107.35
998.1623	2717.1899	1007.75	107.4
998.2842	2718.4136	999.15	111.75
998.4062	2719.6367	999.5	112.25
998.528	2720.8591	1013.7	118.55
998.6498	2722.0809	1001.9	113.5
998.7716	2723.3019	1006.55	117.15
998.8934	2724.5223	1010.05	123.95
999.0151	2725.7421	1005.5	118.85
999.1368	2726.9611	1001.1	113.3
999.2584	2728.1795	1005.7	114.3
999.38	2729.3972	1000.05	114.7
999.5016	2730.6142	1010.3	111.6
999.6231	2731.8306	995.25	106.7
999.7446	2733.0462	995	106.2
999.8661	2734.2612	997.75	106.8
999.9875	2735.4756	989.8	102.05
1000.1089	2736.6892	986.45	99.45
1000.2302	2737.9022	981.35	97.7
1000.3515	2739.1145	986	100.55
1000.4728	2740.3262	991	95.2
1000.594	2741.5372	983	97.8
1000.7152	2742.7475	984.4	96.85
1000.8363	2743.9571	978	88.95
1000.9575	2745.1661	984.95	95.25
1001.0785	2746.3744	976	86.8
1001.1996	2747.582	974.7	89
1001.3206	2748.7889	974.8	86.15
1001.4415	2749.9952	973.2	85.75
1001.5625	2751.2008	971.7	84.45
1001.6833	2752.4057	974.75	86.65
1001.8042	2753.61	972	84.3
1001.925	2754.8136	973.35	84.55
1002.0458	2756.0165	969.55	81.9
1002.1665	2757.2188	968.85	83.05
1002.2872	2758.4204	969.65	83.65
1002.4078	2759.6213	972.9	83.85
1002.5285	2760.8215	978.15	85.7
1002.649	2762.0211	973.7	85.6
1002.7696	2763.22	972.9	83.35
1002.8901	2764.4182	970.95	83.5
1003.0106	2765.6158	969.35	82.65
1003.131	2766.8127	966.65	78.65
1003.2514	2768.009	966.1	80
1003.3717	2769.2045	964.75	75.65
1003.492	2770.3994	970.35	81.25
1003.6123	2771.5936	965.55	78.95
1003.7325	2772.7872	967.7	82.65
1003.8527	2773.9801	965.45	78.35
1003.9729	2775.1723	987.25	83.8
1004.093	2776.3639	965.6	80
1004.2131	2777.5548	962.8	72.45
1004.3331	2778.745	961.25	71.95
1004.4531	2779.9346	963.6	77.2
1004.5731	2781.1235	962.5	73.7
1004.693	2782.3117	963.35	77.15
1004.8129	2783.4992	964.7	80.25
1004.9328	2784.6861	963.7	75.75
1005.0526	2785.8723	969	80.1
1005.1723	2787.0579	964.7	77.85
1005.2921	2788.2428	962.9	75.55
1005.4118	2789.427	964.45	77.5
1005.5314	2790.6106	963.8	77.8
1005.651	2791.7935	963.5	74.8
1005.7706	2792.9757	965.65	81.15
1005.8902	2794.1573	969.15	79.1
1006.0097	2795.3382	968.7	80.85
1006.1291	2796.5184	965.4	78.6
1006.2485	2797.698	970.15	81.65
1006.3679	2798.8769	967.85	83.15
1006.4873	2800.0551	967.25	81.1
1006.6066	2801.2327	972.45	83.7
1006.7258	2802.4096	968.95	82.6
1006.8451	2803.5859	974.1	86.25
1006.9642	2804.7615	972.6	83.15
1007.0834	2805.9364	971.2	83
1007.2025	2807.1106	972.4	86.3
1007.3216	2808.2842	975.5	88.95
1007.4406	2809.4572	976.75	88.95
1007.5596	2810.6294	978.9	92.15
1007.6785	2811.801	981.45	96.5
1007.7975	2812.972	985.15	98.95
1007.9163	2814.1423	988.4	102.7
1008.0352	2815.3119	992.2	105.45
1008.154	2816.4808	999.1	114
1008.2727	2817.6491	1004.25	116.15
1008.3914	2818.8167	1011.45	124.05
1008.5101	2819.9837	1021.5	129.6
1008.6288	2821.15	1029.65	143.1
1008.7474	2822.3157	1036.25	150.75
1008.8659	2823.4807	1058.45	172.15
1008.9844	2824.645	1071.25	181.4
1009.1029	2825.8086	1091.35	205.25
1009.2214	2826.9716	1104.55	218.35
1009.3398	2828.134	1119.4	233
1009.4581	2829.2957	1136.75	249.55
1009.5764	2830.4567	1145.7	260.85
1009.6947	2831.617	1151.55	264.9
1009.813	2832.7767	1153.5	267.7
1009.9312	2833.9358	1158.35	271.9
1010.0493	2835.0941	1164.55	275.8
1010.1675	2836.2519	1150.85	262.45
1010.2855	2837.4089	1146.15	258.35
1010.4036	2838.5653	1137.8	249.95
1010.5216	2839.7211	1127.85	241.85
1010.6396	2840.8761	1132.55	246.4
1010.7575	2842.0306	1122.65	235.95
1010.8754	2843.1843	1126	240.3
1010.9932	2844.3374	1126.45	242.05
1011.111	2845.4899	1124.6	237.55
1011.2288	2846.6417	1133.2	246.2
1011.3465	2847.7928	1136.15	250.15
1011.4642	2848.9433	1140.95	257.85
1011.5818	2850.0931	1140.15	254.05
1011.6995	2851.2422	1139.4	250.55
1011.817	2852.3907	1143.05	255.1
1011.9345	2853.5385	1146.45	256.2
1012.052	2854.6857	1172.65	259.4
1012.1695	2855.8323	1153.75	267.9
1012.2869	2856.9781	1152.55	266.45
1012.4042	2858.1233	1159.25	273.3
1012.5216	2859.2679	1167	280.6
1012.6389	2860.4118	1172.65	286.15
1012.7561	2861.555	1181.3	290.2
1012.8733	2862.6976	1191.85	303.65
1012.9905	2863.8395	1195.35	307.6
1013.1076	2864.9808	1197.8	309.45
1013.2247	2866.1214	1203.65	317.25
1013.3417	2867.2614	1208.7	322.85
1013.4587	2868.4007	1212.15	324.9
1013.5757	2869.5393	1217	330.25
1013.6926	2870.6773	1225.2	336.4
1013.8095	2871.8146	1231.05	342.8
1013.9263	2872.9513	1237.35	349.4
1014.0431	2874.0874	1239.7	352.55
1014.1599	2875.2227	1237.6	351.3
1014.2766	2876.3574	1238.95	351.6
1014.3933	2877.4915	1244.8	359.7
1014.51	2878.6249	1252.8	369.1
1014.6266	2879.7577	1256.45	368.45
1014.7431	2880.8898	1272.15	375.55
1014.8596	2882.0212	1273.25	387.9
1014.9761	2883.152	1273.05	385.05
1015.0925	2884.2821	1277.8	391.9
1015.2089	2885.4116	1280.6	396.55
1015.3253	2886.5405	1286.3	400.35
1015.4416	2887.6686	1296.95	405.8
1015.5579	2888.7962	1284.35	399.15
1015.6741	2889.923	1290.5	404.55
1015.7903	2891.0493	1284.85	399.25
1015.9065	2892.1748	1285.5	397.9
1016.0226	2893.2997	1288.25	399.6
1016.1387	2894.424	1282.85	395.6
1016.2547	2895.5476	1288.45	402.45
1016.3707	2896.6706	1291.9	405.3
1016.4866	2897.7929	1295.3	409
1016.6025	2898.9145	1287.35	400.85
1016.7184	2900.0355	1283.1	395.1
1016.8342	2901.1559	1287.05	400.3
1016.95	2902.2756	1289.1	401.5
1017.0658	2903.3946	1277.8	391.1
1017.1815	2904.513	1275.2	383.2
1017.2971	2905.6308	1270.3	383.1
1017.4127	2906.7479	1270.65	384.5
1017.5283	2907.8643	1275	387
1017.6439	2908.9801	1271.9	386
1017.7594	2910.0953	1276	390.25
1017.8748	2911.2098	1271	378.85
1017.9902	2912.3236	1281.85	388.05
1018.1056	2913.4368	1274.1	383.9
1018.2209	2914.5494	1268.95	381.3
1018.3362	2915.6613	1268.95	375.45
1018.4515	2916.7725	1267.35	377.05
1018.5667	2917.8831	1252.9	365.05
1018.6819	2918.9931	1250.05	360.65
1018.797	2920.1024	1242.65	354.9
1018.9121	2921.211	1227.65	341.6
1019.0271	2922.319	1231.55	343.85
1019.1421	2923.4264	1236.7	350.25
1019.2571	2924.5331	1228	341.95
1019.372	2925.6391	1231.55	344.95
1019.4869	2926.7445	1225.8	340.2
1019.6017	2927.8493	1228.3	341.5
1019.7165	2928.9534	1234.6	350.7
1019.8313	2930.0569	1233.6	344.9
1019.946	2931.1597	1233.05	343.6
1020.0606	2932.2619	1238.55	352
1020.1753	2933.3634	1237.8	352.1
1020.2899	2934.4643	1251.95	357.1
1020.4044	2935.5645	1248.8	355.7
1020.5189	2936.6641	1251.65	360.6
1020.6334	2937.763	1244.95	357.9
1020.7478	2938.8613	1250.25	362.15
1020.8622	2939.959	1252.15	360.65
1020.9765	2941.056	1241.85	356.3
1021.0908	2942.1523	1226.5	339.2
1021.2051	2943.248	1216.6	328.2
1021.3193	2944.3431	1192.8	307.45
1021.4334	2945.4375	1181.15	294.95
1021.5476	2946.5313	1169.2	284.05
1021.6617	2947.6244	1152.95	266.55
1021.7757	2948.7169	1137.65	249.95
1021.8897	2949.8087	1126	240.75
1022.0037	2950.8999	1114.8	225.5
1022.1176	2951.9904	1101.8	216.75
1022.2315	2953.0803	1087.9	200.3
1022.3453	2954.1696	1082.3	195.2
1022.4591	2955.2582	1077.05	191.05
1022.5728	2956.3462	1067.1	178.3
1022.6865	2957.4335	1071.7	185.15
1022.8002	2958.5202	1065.55	175.85
1022.9138	2959.6062	1066.35	179.9
1023.0274	2960.6916	1064.85	177.2
1023.141	2961.7764	1066.8	179
1023.2545	2962.8605	1067.1	180.55
1023.3679	2963.9439	1064.15	177.25
1023.4813	2965.0267	1063.5	173.85
1023.5947	2966.1089	1083.95	173.85
1023.708	2967.1905	1056.45	167.7
1023.8213	2968.2714	1059.8	174.35
1023.9346	2969.3516	1058.75	173.25
1024.0478	2970.4312	1063.5	170.75
1024.1609	2971.5102	1054.75	167.9
1024.274	2972.5885	1049.35	163.15
1024.3871	2973.6662	1057.35	167.25
1024.5002	2974.7432	1056.25	169.25
1024.6132	2975.8196	1057.65	172.45
1024.7261	2976.8954	1056.7	169.5
1024.839	2977.9705	1053.55	166.85
1024.9519	2979.045	1056.15	170.35
1025.0647	2980.1188	1059.95	174.05
1025.1775	2981.192	1050.8	165.6
1025.2902	2982.2645	1051.3	162.65
1025.4029	2983.3364	1047.15	159.15
1025.5156	2984.4077	1043.2	155.8
1025.6282	2985.4783	1042.7	150.05
1025.7407	2986.5483	1034.05	148.4
1025.8532	2987.6177	1027.8	139.05
1025.9657	2988.6864	1028.25	140.75
1026.0782	2989.7545	1020.2	132.75
1026.1906	2990.8219	1015.8	129.2
1026.3029	2991.8887	1014.55	126.35
1026.4152	2992.9548	1007.95	119.2
1026.5275	2994.0204	1001.8	116.25
1026.6397	2995.0852	998.2	112.95
1026.7519	2996.1495	993.75	105.45
1026.864	2997.2131	987.75	103.2
1026.9761	2998.276	980.45	93.3
1027.0882	2999.3383	977.35	90.85
1027.2002	3000.4	969.7	81.15
1027.3122	3001.4611	966.65	79.55
1027.4241	3002.5215	965.45	76.85
1027.536	3003.5812	963.1	77.65
1027.6478	3004.6404	960	72.45
1027.7596	3005.6989	957.6	69.6
1027.8714	3006.7567	952.9	66.65
1027.9831	3007.8139	983.25	65.05
1028.0947	3008.8705	953.2	65.35
1028.2064	3009.9264	965	74.55
1028.3179	3010.9818	945.9	59.6
1028.4295	3012.0364	945.15	56.2
1028.541	3013.0905	945.4	58.15
1028.6524	3014.1439	943.15	55.65
1028.7638	3015.1966	942	54.9
1028.8752	3016.2487	943.6	56.45
1028.9865	3017.3002	945.85	58.3
1029.0978	3018.3511	939.5	52.9
1029.209	3019.4013	940.9	56.75
1029.3202	3020.4509	938.1	52.65
1029.4314	3021.4998	942.8	56.5
1029.5425	3022.5481	936.05	50.65
1029.6535	3023.5958	939.2	51
1029.7645	3024.6428	940.3	52.85
1029.8755	3025.6892	936.2	50.6
1029.9864	3026.735	939.4	52.25
1030.0973	3027.7802	938.55	51.9
1030.2082	3028.8247	938.95	52.45
1030.319	3029.8685	937.95	51
1030.4297	3030.9118	938.3	50.95
1030.5404	3031.9544	935.85	50.75
1030.6511	3032.9963	940.6	52.45
1030.7617	3034.0376	937.55	51.6
1030.8723	3035.0783	941	51.15
1030.9829	3036.1184	938.8	51.05
1031.0934	3037.1578	939.75	52.75
1031.2038	3038.1966	936.2	48.9
1031.3142	3039.2348	938.2	51.75
1031.4246	3040.2723	950.2	56.5
1031.5349	3041.3092	940.8	55.5
1031.6452	3042.3455	936.85	50.05
1031.7554	3043.3811	939.2	51.5
1031.8656	3044.4161	937.6	51.05
1031.9758	3045.4505	936.7	51.3
1032.0859	3046.4842	942.3	54.6
1032.1959	3047.5173	937.9	52.65
1032.3059	3048.5498	938.6	53.35
1032.4159	3049.5816	939.55	52.1
1032.5258	3050.6128	943.15	54.15
1032.6357	3051.6434	940.25	50.75
1032.7455	3052.6734	940.55	52.75
1032.8553	3053.7027	939.7	53.15
1032.9651	3054.7314	938.65	53.1
1033.0748	3055.7594	935.35	49.55
1033.1845	3056.7868	942.35	53.65
1033.2941	3057.8136	939.25	53.8
1033.4037	3058.8398	940.4	55.8
1033.5132	3059.8653	942.65	57.4
1033.6227	3060.8902	943.2	58.65
1033.7321	3061.9145	945.35	57.35
1033.8415	3062.9381	943.05	57.3
1033.9509	3063.9612	960.8	55.95
1034.0602	3064.9835	945.55	57.35
1034.1694	3066.0053	943.3	54.25
1034.2787	3067.0264	943.2	56.85
1034.3878	3068.0469	948.35	60.45
1034.497	3069.0668	946.9	57.9
1034.6061	3070.086	942.2	58.4
1034.7151	3071.1046	947.05	57
1034.8241	3072.1226	941.75	54.25
1034.9331	3073.1399	939.75	55.15
1035.042	3074.1567	943	54.9
1035.1508	3075.1727	944.05	57.05
1035.2597	3076.1882	937.85	51.3
1035.3684	3077.203	937.3	52.35
1035.4772	3078.2173	936	47.05
1035.5859	3079.2308	936.9	49.45
1035.6945	3080.2438	938.45	49.5
1035.8031	3081.2561	931.65	45.95
1035.9117	3082.2678	932.1	46.5
1036.0202	3083.2789	932.4	43.9
1036.1286	3084.2893	929.55	43.95
1036.2371	3085.2991	930	45.7
1036.3454	3086.3083	932.6	43
1036.4538	3087.3169	929.6	40.55
1036.562	3088.3248	926.6	37.95
1036.6703	3089.3321	930.5	43.15
1036.7785	3090.3388	927.05	40.8
1036.8866	3091.3449	923.8	37.5
1036.9948	3092.3503	927.6	38.5
1037.1028	3093.3551	922.85	36.45
1037.2108	3094.3593	923.05	36.65
1037.3188	3095.3629	924.9	38.1
1037.4267	3096.3658	924.55	38.2
1037.5346	3097.3681	923.7	36
1037.6425	3098.3698	923	34.5
1037.7503	3099.3708	923.75	38.4
1037.858	3100.3713	920.05	32.4
1037.9657	3101.3711	921.65	33.5
1038.0734	3102.3702	1060.55	37.25
1038.181	3103.3688	922.65	32.25
1038.2886	3104.3667	916.55	29.95
1038.3961	3105.364	920.95	33.55
1038.5036	3106.3607	918.95	30.45
1038.611	3107.3568	920.1	31.35
1038.7184	3108.3522	917.35	31.5
1038.8257	3109.347	919.65	32.8
1038.933	3110.3412	922.05	32.45
1039.0403	3111.3348	917.15	29.9
1039.1475	3112.3277	917.1	31.15
1039.2547	3113.32	913.55	27.2
1039.3618	3114.3117	916.95	30.05
1039.4689	3115.3028	914.05	28.05
1039.5759	3116.2932	915.35	26.45
1039.6829	3117.2831	920	26.3
1039.7898	3118.2723	914.5	26.85
1039.8967	3119.2608	914.95	28.1
1040.0035	3120.2488	915.6	29.2
1040.1103	3121.2361	912.8	25.95
1040.2171	3122.2229	911.65	24.85
1040.3238	3123.209	913.2	25
1040.4305	3124.1944	913.2	27
1040.5371	3125.1793	913.95	26.7
1040.6437	3126.1635	911.3	22.8
1040.7502	3127.1471	910.5	23.1
1040.8567	3128.1301	911.05	25.75
1040.9631	3129.1125	908.85	23.4
1041.0695	3130.0942	909.85	25.2
1041.1759	3131.0753	919.65	24.65
1041.2822	3132.0558	912.75	22.25
1041.3884	3133.0357	913.3	26
1041.4946	3134.015	910.7	21.5
1041.6008	3134.9936	909.55	22.85
1041.7069	3135.9716	928.9	22.2
1041.813	3136.949	908.2	21.9
1041.919	3137.9258	929.1	25.85
1042.025	3138.902	914.8	23.8
1042.1309	3139.8775	910.55	23.6
1042.2368	3140.8524	909.25	23
1042.3427	3141.8267	910.75	22.2
1042.4485	3142.8004	908.9	19.9
1042.5542	3143.7735	914.55	20.95
1042.6599	3144.7459	910.35	23.4
1042.7656	3145.7178	909.25	21.2
1042.8712	3146.689	904.95	21.5
1042.9768	3147.6596	907.85	17.1
1043.0823	3148.6295	907.55	21.45
1043.1878	3149.5989	906.3	20.4
1043.2932	3150.5676	904.15	20.55
1043.3986	3151.5357	906.7	22
1043.5039	3152.5032	906.6	20.2
1043.6092	3153.4701	904.75	19
1043.7145	3154.4364	909.1	20.3
1043.8197	3155.402	904.55	18.35
1043.9248	3156.367	907.6	19.5
1044.03	3157.3315	944.75	22.45
1044.135	3158.2952	905.15	17.15
1044.24	3159.2584	905.7	21.05
1044.345	3160.221	907.2	19.5
1044.4499	3161.1829	904.1	15.85
1044.5548	3162.1442	905.95	20.35
1044.6596	3163.105	902.3	15.75
1044.7644	3164.065	903.95	16.5
1044.8692	3165.0245	907.2	19.05
1044.9739	3165.9834	902.5	16.6
1045.0785	3166.9416	904.35	18.95
1045.1831	3167.8993	905.1	19.25
1045.2877	3168.8563	907.3	19.1
1045.3922	3169.8127	906.7	19.6
1045.4966	3170.7684	905.35	18.45
1045.6011	3171.7236	905.4	17.6
1045.7054	3172.6782	903.5	16.4
1045.8098	3173.6321	905.55	18.3
1045.914	3174.5854	906.85	14.7
1046.0183	3175.5381	901.3	13.05
1046.1224	3176.4902	902.65	15.05
1046.2266	3177.4417	901.6	15.2
1046.3307	3178.3926	904.45	20.15
1046.4347	3179.3428	901.75	16.95
1046.5387	3180.2924	901.4	15.15
1046.6427	3181.2415	903.55	15.8
1046.7466	3182.1899	904.7	17.5
1046.8504	3183.1377	904.9	18.75
1046.9542	3184.0848	905.25	14.75
1047.058	3185.0314	901.75	14.15
1047.1617	3185.9773	903.2	15.35
1047.2654	3186.9227	904	16
1047.369	3187.8674	903.05	14.9
1047.4726	3188.8115	906.55	16.05
1047.5761	3189.755	903.1	18.4
1047.6796	3190.6979	901.05	16
1047.783	3191.6402	902.2	17.6
1047.8864	3192.5818	902.4	15.2
1047.9898	3193.5229	907.7	14.1
1048.0931	3194.4633	900.65	12.8
1048.1963	3195.4031	902.45	15.65
1048.2995	3196.3423	901.1	14.55
1048.4027	3197.2809	903.3	16.6
1048.5058	3198.2189	902.75	17.35
1048.6089	3199.1563	909	15.55
1048.7119	3200.0931	901.3	13.9
1048.8148	3201.0292	897.9	11.85
1048.9178	3201.9648	898.95	12.75
1049.0206	3202.8997	905.3	15.5
1049.1235	3203.834	900.15	13.1
1049.2262	3204.7677	898.5	13.55
1049.329	3205.7008	900.55	11.1
1049.4317	3206.6333	900.15	14.65
1049.5343	3207.5652	902.3	14.05
1049.6369	3208.4964	899.35	10.6
1049.7394	3209.4271	898.9	12.8
1049.8419	3210.3571	898.1	11.95
1049.9444	3211.2865	901.45	13.6
1050.0468	3212.2154	900.75	14.05
1050.1491	3213.1436	902	11.45
1050.2514	3214.0712	907.25	12.05
1050.3537	3214.9982	899.9	12.4
1050.4559	3215.9246	900.45	14.1
1050.5581	3216.8503	897.35	12.6
1050.6602	3217.7755	898.7	11.3
1050.7623	3218.7001	898.7	11.9
1050.8643	3219.624	901.2	14.05
1050.9663	3220.5473	900.35	12
1051.0682	3221.4701	900.1	11.95
1051.1701	3222.3922	904.15	13.5
1051.2719	3223.3137	897.7	11.35
1051.3737	3224.2346	899.4	12.7
1051.4754	3225.1549	899.2	12.85
1051.5771	3226.0746	897.65	13.6
1051.6788	3226.9937	900.45	12.75
1051.7804	3227.9121	898.35	12.3
1051.8819	3228.83	898.7	12.9
1051.9834	3229.7473	897.85	9.7
1052.0849	3230.6639	900.55	12.75
1052.1863	3231.5799	897.3	11.25
1052.2876	3232.4954	898.45	10.2
1052.3889	3233.4102	897.85	11.45
1052.4902	3234.3244	897.6	9.7
1052.5914	3235.238	899.7	12.7
1052.6926	3236.151	921.05	10.1
1052.7937	3237.0634	897.35	9.7
1052.8948	3237.9752	898.3	14.35
1052.9958	3238.8864	898.7	11.6
1053.0968	3239.797	897.8	10.55
1053.1977	3240.7069	900.55	13.35
1053.2986	3241.6163	900.95	12.1
1053.3994	3242.5251	898.3	12.35
1053.5002	3243.4332	897.5	11.5
1053.6009	3244.3408	898.15	11.4
1053.7016	3245.2477	897.9	11.8
1053.8022	3246.154	898.45	10.2
1053.9028	3247.0598	897.15	9.85
1054.0034	3247.9649	896.8	10.7
1054.1039	3248.8694	895.35	8.25
1054.2043	3249.7733	894.65	7.75
1054.3047	3250.6766	895.05	8.6
1054.4051	3251.5793	899.4	12
1054.5054	3252.4814	895.55	10.1
1054.6056	3253.3829	895.95	9.05
1054.7058	3254.2838	896.3	10.25
1054.806	3255.1841	898.4	14.05
1054.9061	3256.0838	897.5	12.4
1055.0061	3256.9829	893.95	7.85
1055.1062	3257.8814	896.75	7.85
1055.2061	3258.7792	898.3	9.9
1055.306	3259.6765	897.45	7.8
1055.4059	3260.5731	895.7	8.5
1055.5057	3261.4692	894.7	6.25
1055.6055	3262.3647	895.55	7.6
1055.7052	3263.2595	897.05	11.3
1055.8049	3264.1538	896.65	9.7
1055.9045	3265.0474	896.8	8.8
1056.0041	3265.9404	895.5	8.45
1056.1036	3266.8329	894.15	6.55
1056.2031	3267.7247	905.35	8.45
1056.3025	3268.616	892.95	7.65
1056.4019	3269.5066	895.8	9.4
1056.5013	3270.3966	897.3	8.65
1056.6005	3271.286	893.45	8.6
