Software Version:	3.9.2.0
Unit SN:	10000200
Spectrometer SN:	6960
Date:	3/14/2024 12:31:19 PM
Data Line Index:	25
Spectral Points:	2048
Integration time (ms):	125
Averages:	20
Delay (ms):	30000
Sequence Number:	1
Processing:	dark subtract
Laser Power (mW):	300
Laser Current (mA):	820
Laser Diode Temp (C):	25
Laser Case Temp (C):	26.1
System Temp (C):	26
Spectrometer Temp (C):	23.7
CCD Temp (C):	0.012
Secondary Temp (C):	20.013
Heatsink Temp (C):	22.649
CCDPCB Temp (C):	36.262
SecondaryPCB Temp (C):	32.55

Wavelength	RamanShift	Raw Counts	Dark Subtracted
787.061	30.1047	419.3	6.95
787.2016	32.3739	416	5.3
787.3422	34.6426	417.65	5.3
787.4828	36.9109	422.1	6.25
787.6235	39.1787	424.2	5.75
787.7642	41.4461	428.8	6.75
787.9049	43.7131	435.8	10.8
788.0456	45.9796	436.65	7.7
788.1863	48.2456	442.65	10.05
788.3271	50.5112	445.9	9.25
788.4679	52.7764	449.55	11.85
788.6087	55.0411	454.7	12.6
788.7496	57.3054	459.35	11
788.8904	59.5692	463.4	14.7
789.0313	61.8326	467.45	14.6
789.1722	64.0955	472.7	16.1
789.3132	66.3579	479.3	17.65
789.4541	68.6199	486.4	21.75
789.5951	70.8815	493.6	27.3
789.7361	73.1426	511.6	41.3
789.8771	75.4032	544.95	71.25
790.0181	77.6634	612.5	133.25
790.1592	79.9231	770.7	288.15
790.3003	82.1824	1089.3	602.3
790.4414	84.4412	1651.15	1159.85
790.5825	86.6995	2387.9	1888.6
790.7237	88.9574	3084.2	2579.45
790.8648	91.2148	3586.05	3079.1
791.006	93.4717	3821.3	3310.6
791.1472	95.7282	3895.5	3381.25
791.2885	97.9842	3923.35	3407.05
791.4297	100.2398	3885.9	3368.25
791.571	102.4949	3841.05	3318.2
791.7123	104.7495	3823.3	3298
791.8536	107.0036	3787.75	3260.3
791.9949	109.2573	3744.65	3218.95
792.1363	111.5105	3669.2	3139.8
792.2777	113.7632	3603.3	3072.6
792.4191	116.0154	3539.65	2998.95
792.5605	118.2672	3463.1	2928.5
792.7019	120.5185	3387.1	2852.35
792.8434	122.7693	3296.15	2758.05
792.9849	125.0197	3220.9	2681.95
793.1264	127.2696	3150.15	2607.7
793.2679	129.519	3112.7	2566.6
793.4094	131.7679	3074.25	2524.3
793.551	134.0163	3063.9	2509.85
793.6926	136.2642	3069.35	2510.05
793.8342	138.5117	3068.45	2506.8
793.9758	140.7587	3043.15	2482.65
794.1175	143.0052	3006.95	2441.85
794.2591	145.2512	2967.75	2402.9
794.4008	147.4967	2928.05	2361.3
794.5425	149.7417	2890.8	2321.75
794.6842	151.9863	2853.4	2282.8
794.826	154.2304	2847.75	2273.8
794.9677	156.4739	2832.35	2250.3
795.1095	158.717	2838.55	2259.3
795.2513	160.9596	2878.1	2293.7
795.3931	163.2017	2883.85	2297.1
795.535	165.4433	2899.85	2308.25
795.6768	167.6844	2904.75	2312.9
795.8187	169.925	2896.05	2301.9
795.9606	172.1651	2844.2	2244.25
796.1025	174.4047	2798.95	2197.9
796.2445	176.6439	2772.6	2168.5
796.3864	178.8825	2747.65	2140.75
796.5284	181.1206	2720.5	2111.3
796.6704	183.3582	2718.75	2105.6
796.8124	185.5954	2720.2	2105.45
796.9544	187.832	2702.3	2083.85
797.0965	190.0681	2707.8	2089.15
797.2386	192.3037	2707.7	2085.25
797.3806	194.5388	2709.9	2084.3
797.5228	196.7734	2714.35	2084.5
797.6649	199.0075	2737.4	2101.7
797.807	201.2411	2752.85	2116.3
797.9492	203.4742	2752.2	2115.2
798.0914	205.7068	2783.25	2148.05
798.2336	207.9389	2796.65	2159.2
798.3758	210.1704	2818.05	2177.1
798.518	212.4015	2807	2161.4
798.6603	214.632	2810	2165.1
798.8025	216.862	2797.6	2159.95
798.9448	219.0915	2795.45	2164.9
799.0871	221.3205	2801.15	2172.3
799.2294	223.549	2813	2188.6
799.3718	225.777	2818.05	2196
799.5141	228.0044	2802.35	2176.1
799.6565	230.2314	2812.2	2188.4
799.7989	232.4578	2797.85	2172.85
799.9413	234.6837	2798.15	2162.75
800.0837	236.909	2774.8	2140.45
800.2262	239.1339	2790.1	2129
800.3687	241.3582	2776.25	2132.25
800.5111	243.582	2784.25	2112.8
800.6536	245.8053	2775.25	2110.5
800.7961	248.0281	2771.55	2112.35
800.9387	250.2503	2777.4	2111.35
801.0812	252.472	2786.45	2117
801.2238	254.6932	2782.4	2109.2
801.3664	256.9139	2787.6	2113.15
801.509	259.134	2779.25	2101.45
801.6516	261.3536	2811.65	2138.4
801.7942	263.5727	2847.35	2169.25
801.9369	265.7912	2865.35	2190.2
802.0795	268.0092	2911.4	2237.8
802.2222	270.2267	2955.15	2276.85
802.3649	272.4436	2998.2	2316.1
802.5076	274.6601	3037.15	2346.1
802.6504	276.8759	3026.9	2343.1
802.7931	279.0913	3063.95	2380.55
802.9359	281.3061	3061.95	2375.6
803.0787	283.5204	3083.25	2394.3
803.2215	285.7341	3103.95	2410.8
803.3643	287.9473	3134.35	2439.6
803.5071	290.16	3132.05	2431.95
803.6499	292.3721	3085.85	2393.3
803.7928	294.5837	3042.05	2344.65
803.9357	296.7947	3008.6	2312.9
804.0786	299.0052	2992.9	2298.1
804.2215	301.2152	2965	2265.55
804.3644	303.4246	2970.35	2273.9
804.5074	305.6334	2952.55	2255.45
804.6503	307.8418	2948.65	2247.15
804.7933	310.0495	2934.55	2233.95
804.9363	312.2568	2911.25	2211.8
805.0793	314.4635	2865.1	2161.35
805.2223	316.6696	2819.25	2113.45
805.3653	318.8752	2783.15	2069.65
805.5084	321.0802	2760.6	2054.5
805.6514	323.2847	2744.5	2037.4
805.7945	325.4887	2730.6	2024.8
805.9376	327.692	2752.25	2043.6
806.0807	329.8949	2787.85	2077.6
806.2238	332.0972	2825.65	2112.95
806.367	334.2989	2865.8	2150.9
806.5101	336.5001	2868	2151.85
806.6533	338.7007	2849.25	2133.25
806.7965	340.9008	2801	2083.45
806.9397	343.1003	2757.2	2035.95
807.0829	345.2992	2693.85	1972.25
807.2261	347.4976	2665.85	1942.75
807.3693	349.6955	2636.8	1909.55
807.5126	351.8927	2617.7	1889.25
807.6559	354.0895	2605.8	1866.35
807.7991	356.2856	2597.45	1868.25
807.9424	358.4812	2572.7	1844.2
808.0857	360.6763	2584.1	1853.45
808.2291	362.8707	2557.9	1826.6
808.3724	365.0646	2570.2	1836.3
808.5158	367.258	2570.35	1834.9
808.6591	369.4508	2590.2	1850.65
808.8025	371.643	2601.7	1863.85
808.9459	373.8346	2623.75	1881.4
809.0893	376.0257	2664.6	1918.6
809.2327	378.2162	2694.2	1948.15
809.3762	380.4062	2704.2	1955.2
809.5196	382.5956	2686.7	1935
809.6631	384.7844	2656.45	1907.55
809.8066	386.9726	2609.05	1857.55
809.9501	389.1603	2571.75	1819.65
810.0936	391.3474	2563.35	1786.75
810.2371	393.5339	2547.6	1795.4
810.3806	395.7199	2547.85	1800.6
810.5241	397.9052	2575.2	1829.85
810.6677	400.09	2595.75	1853.6
810.8113	402.2743	2632.65	1890.5
810.9548	404.4579	2659.95	1917.35
811.0984	406.641	2698.5	1954.95
811.2421	408.8235	2735.2	1988.7
811.3857	411.0054	2782.65	2035.35
811.5293	413.1868	2848.2	2098.8
811.673	415.3675	2914.55	2163.15
811.8166	417.5477	2922.6	2171.3
811.9603	419.7273	2881.35	2124.45
812.104	421.9064	2792.3	2029.35
812.2477	424.0848	2711.9	1952.15
812.3914	426.2627	2665.7	1903.6
812.5351	428.4399	2619.45	1859.55
812.6788	430.6166	2550.6	1783.25
812.8226	432.7928	2514	1745
812.9663	434.9683	2463.2	1694.7
813.1101	437.1432	2450.7	1679.1
813.2539	439.3176	2430.35	1661.5
813.3977	441.4914	2406.1	1636.9
813.5415	443.6645	2413.4	1639.55
813.6853	445.8371	2409.45	1635.3
813.8291	448.0091	2389	1615.35
813.973	450.1806	2409.1	1635.3
814.1168	452.3514	2397.55	1621.65
814.2607	454.5216	2392.3	1607.2
814.4046	456.6913	2390.8	1611.2
814.5485	458.8603	2403.15	1624.2
814.6924	461.0288	2393.8	1617.45
814.8363	463.1967	2394.25	1616.35
814.9802	465.3639	2399.55	1619.35
815.1241	467.5306	2400.1	1618.15
815.2681	469.6967	2378.55	1597.55
815.412	471.8622	2371.85	1592.5
815.556	474.0271	2360.85	1578.95
815.7	476.1914	2365.7	1581.5
815.844	478.3551	2369	1587.25
815.988	480.5182	2361.05	1577.8
816.132	482.6807	2358.25	1572.6
816.276	484.8426	2381.5	1596.8
816.4201	487.0039	2410.75	1626.65
816.5641	489.1647	2454.85	1668.1
816.7082	491.3248	2504.05	1719
816.8522	493.4843	2511.15	1722.8
816.9963	495.6432	2497.9	1710.3
817.1404	497.8015	2484.45	1694.4
817.2845	499.9592	2440.25	1653.75
817.4286	502.1163	2393.45	1603.55
817.5727	504.2728	2356.55	1564.6
817.7168	506.4287	2335.1	1544.35
817.861	508.5839	2316.9	1526.65
818.0051	510.7386	2318.8	1527.75
818.1493	512.8927	2310.5	1512.55
818.2935	515.0461	2313.95	1521.85
818.4377	517.199	2325.3	1531.95
818.5818	519.3512	2349.15	1557.7
818.726	521.5029	2416.4	1616.75
818.8703	523.6539	2471.75	1673.75
819.0145	525.8043	2481.85	1684.7
819.1587	527.9541	2438.35	1639.1
819.303	530.1033	2380.8	1582.65
819.4472	532.2519	2335.9	1536.25
819.5915	534.3999	2319.85	1519.75
819.7357	536.5472	2308.3	1507.15
819.88	538.694	2300.9	1499.65
820.0243	540.8401	2313.35	1512.75
820.1686	542.9856	2332.05	1526.25
820.3129	545.1305	2343.5	1537.95
820.4572	547.2748	2356.95	1553.15
820.6016	549.4185	2363.25	1559.9
820.7459	551.5615	2367.9	1566.4
820.8902	553.704	2372.95	1567.7
821.0346	555.8458	2391.05	1586.45
821.1789	557.987	2395.85	1592.65
821.3233	560.1276	2429.3	1622.6
821.4677	562.2675	2480.2	1676.15
821.6121	564.4069	2553.8	1747.6
821.7565	566.5456	2599.3	1795.5
821.9009	568.6837	2576	1771.5
822.0453	570.8212	2503.25	1698.95
822.1897	572.958	2424.15	1617.25
822.3342	575.0942	2377.65	1570.4
822.4786	577.2299	2348.5	1538.9
822.6231	579.3648	2326.5	1518.65
822.7675	581.4992	2296.15	1486.7
822.912	583.6329	2301.6	1492.55
823.0565	585.766	2312.85	1503.75
823.201	587.8985	2357.55	1549.65
823.3454	590.0304	2399.95	1563.9
823.4899	592.1616	2430.25	1615.2
823.6345	594.2922	2440.95	1627.05
823.779	596.4222	2422.5	1608.8
823.9235	598.5515	2368.8	1554.3
824.068	600.6802	2298.55	1484.8
824.2126	602.8083	2244.4	1430.9
824.3571	604.9358	2248.7	1431.5
824.5017	607.0626	2243.1	1427.6
824.6462	609.1888	2246.9	1429.5
824.7908	611.3144	2268.7	1451.45
824.9354	613.4393	2289.35	1473.45
825.08	615.5636	2338.75	1521.6
825.2246	617.6873	2389.05	1571.2
825.3692	619.8103	2428.65	1609.7
825.5138	621.9327	2428.6	1608.05
825.6584	624.0544	2400.3	1582.3
825.803	626.1756	2348.5	1529.9
825.9477	628.2961	2304.5	1484.75
826.0923	630.4159	2264.3	1443.7
826.237	632.5351	2253.1	1432.5
826.3816	634.6537	2246.55	1424.8
826.5263	636.7716	2256.3	1433.35
826.6709	638.8889	2243.5	1420.75
826.8156	641.0056	2252.35	1430.75
826.9603	643.1216	2260.65	1436.5
827.105	645.237	2268.1	1442.75
827.2497	647.3518	2253.45	1429
827.3944	649.4659	2224.75	1403.2
827.5391	651.5793	2212.15	1387.6
827.6838	653.6922	2205.2	1380
827.8285	655.8043	2179.1	1354
827.9733	657.9159	2169.15	1341.65
828.118	660.0268	2176.25	1344.75
828.2627	662.137	2166.6	1337
828.4075	664.2466	2165.95	1337.15
828.5522	666.3556	2155.8	1328.95
828.697	668.4639	2154	1321.5
828.8418	670.5716	2154.4	1325.7
828.9865	672.6786	2144.4	1313.15
829.1313	674.785	2139.45	1307.85
829.2761	676.8907	2132.55	1301.35
829.4209	678.9958	2125.4	1294.7
829.5657	681.1002	2134.05	1303.15
829.7105	683.204	2136.4	1303.5
829.8553	685.3072	2138.45	1305.45
830.0001	687.4097	2127.45	1295.4
830.1449	689.5115	2136.3	1303.25
830.2898	691.6127	2118.1	1285.6
830.4346	693.7132	2110.45	1276.65
830.5794	695.8131	2134.85	1285.7
830.7243	697.9123	2133.55	1298.5
830.8691	700.0109	2129.5	1295.5
831.014	702.1089	2134.8	1301.3
831.1588	704.2061	2137.65	1302.1
831.3037	706.3028	2166.7	1330.05
831.4486	708.3987	2185.4	1350.3
831.5935	710.4941	2197.4	1361.25
831.7383	712.5887	2199.6	1363.2
831.8832	714.6827	2210.35	1369.1
832.0281	716.7761	2191.45	1353.05
832.173	718.8688	2190.35	1354.4
832.3179	720.9608	2192.3	1351.2
832.4628	723.0522	2196.5	1355.35
832.6077	725.1429	2192.3	1353.6
832.7527	727.233	2233.35	1393.6
832.8976	729.3224	2291.05	1450.55
833.0425	731.4112	2334.9	1495.15
833.1874	733.4993	2364.9	1520.65
833.3324	735.5867	2331.45	1488.4
833.4773	737.6735	2270.3	1427.55
833.6222	739.7596	2219.05	1376.5
833.7672	741.845	2180.15	1336.1
833.9122	743.9298	2185.35	1342.4
834.0571	746.014	2175.25	1333
834.2021	748.0974	2199.35	1355.4
834.347	750.1802	2194.4	1352.4
834.492	752.2624	2179.2	1336.2
834.637	754.3439	2178.65	1333.1
834.782	756.4247	2176.4	1324.3
834.9269	758.5048	2169.45	1327.05
835.0719	760.5843	2174.6	1332.6
835.2169	762.6631	2193.4	1346.55
835.3619	764.7413	2239	1395
835.5069	766.8188	2304.45	1458.5
835.6519	768.8956	2376.6	1530
835.7969	770.9718	2422.4	1575.65
835.9419	773.0473	2421.95	1577.45
836.0869	775.1221	2382.8	1538.8
836.232	777.1962	2357.8	1511.9
836.377	779.2697	2418.9	1571
836.522	781.3426	2518.35	1658.95
836.667	783.4147	2586.4	1736.45
836.8121	785.4862	2580.95	1735.3
836.9571	787.557	2527.2	1681.35
837.1021	789.6271	2396.9	1549.8
837.2472	791.6966	2288	1437.9
837.3922	793.7654	2186.95	1337.5
837.5373	795.8335	2140.45	1291.8
837.6823	797.901	2096.45	1248.35
837.8274	799.9678	2094.6	1243.5
837.9724	802.0339	2089.45	1242.4
838.1175	804.0993	2092.85	1234.7
838.2626	806.1641	2102.4	1250.15
838.4076	808.2282	2079.3	1229.5
838.5527	810.2916	2067.75	1216.7
838.6978	812.3544	2048.55	1200.1
838.8428	814.4164	2043.8	1194.75
838.9879	816.4778	2050.6	1197.35
839.133	818.5385	2047.75	1198.5
839.2781	820.5986	2088.25	1237.4
839.4232	822.658	2132.05	1279.85
839.5682	824.7166	2172.15	1321.85
839.7133	826.7747	2248.2	1397.1
839.8584	828.832	2323	1471.05
840.0035	830.8886	2369.6	1514.95
840.1486	832.9446	2414.85	1558.7
840.2937	834.9999	2393.05	1542.3
840.4388	837.0545	2323.85	1466.1
840.5839	839.1085	2254.7	1401.9
840.729	841.1618	2179.3	1322.75
840.8741	843.2143	2120.05	1269.9
841.0192	845.2662	2083.5	1231.7
841.1643	847.3175	2067.7	1214.05
841.3095	849.368	2056.3	1204.35
841.4546	851.4179	2052.7	1200.1
841.5997	853.467	2055.75	1200.65
841.7448	855.5155	2057.4	1203.25
841.8899	857.5633	2073.95	1219.55
842.0351	859.6105	2047.35	1191.65
842.1802	861.6569	2058.1	1204.75
842.3253	863.7027	2037.15	1182.25
842.4704	865.7478	2024.6	1170.65
842.6156	867.7922	2007.1	1150.15
842.7607	869.8359	1996.7	1139.45
842.9058	871.8789	2000.15	1144.2
843.0509	873.9212	2019	1129.5
843.1961	875.9629	1986.45	1132.25
843.3412	878.0039	1996.8	1140.15
843.4863	880.0441	2010.25	1155.4
843.6315	882.0837	2031.15	1173.3
843.7766	884.1226	2042.95	1183.55
843.9218	886.1609	2077.05	1221.05
844.0669	888.1984	2130.85	1273.6
844.212	890.2352	2164.6	1307.75
844.3572	892.2714	2182.5	1321.4
844.5023	894.3069	2159.8	1300.7
844.6475	896.3416	2105	1246.45
844.7926	898.3757	2065.2	1204.8
844.9377	900.4091	2043.15	1185.25
845.0829	902.4418	2048.65	1186
845.228	904.4739	2069.55	1209.2
845.3732	906.5052	2087.9	1229
845.5183	908.5358	2089.25	1231.25
845.6635	910.5658	2072.55	1212.3
845.8086	912.595	2039.85	1181.75
845.9538	914.6236	1999	1140.85
846.0989	916.6515	1975.6	1116.95
846.2441	918.6786	1953.55	1093
846.3892	920.7051	1949.4	1087.85
846.5344	922.7309	1946.65	1086.4
846.6795	924.756	1944	1081.95
846.8246	926.7804	1954.6	1090.5
846.9698	928.8041	1957.95	1091.85
847.1149	930.8272	1979.65	1118.25
847.2601	932.8495	1975.8	1114.1
847.4052	934.8711	1994	1132
847.5504	936.892	1990.3	1128.4
847.6955	938.9123	2002.3	1139.65
847.8407	940.9318	2030.2	1169.85
847.9858	942.9506	2041.8	1178.1
848.131	944.9688	2048.55	1184.95
848.2761	946.9862	2029.5	1164.8
848.4213	949.003	1982.8	1118.75
848.5664	951.019	1970.15	1107.9
848.7115	953.0344	1951.05	1088.1
848.8567	955.0491	1923.65	1060.25
849.0018	957.063	1922.6	1058.85
849.147	959.0763	1905.05	1041.85
849.2921	961.0888	1925.55	1059.45
849.4373	963.1007	1922.25	1058.1
849.5824	965.1119	1902	1037.2
849.7275	967.1223	1888.3	1024.7
849.8727	969.1321	1882.3	1017.9
850.0178	971.1412	1885.7	1021.75
850.1629	973.1495	1884.35	1020.55
850.3081	975.1572	1928	1016.25
850.4532	977.1641	1886.5	1021.45
850.5983	979.1704	1884.8	1018.75
850.7435	981.1759	1883.5	1012.55
850.8886	983.1808	1875.9	1012.05
851.0337	985.1849	1875.8	1001
851.1788	987.1884	1858.5	991.75
851.324	989.1911	1868.9	999.85
851.4691	991.1932	1866.9	998.85
851.6142	993.1945	1877.65	1014.25
851.7593	995.1951	1867	998.75
851.9045	997.1951	1874.35	1001.6
852.0496	999.1943	1858.7	994.05
852.1947	1001.1928	1858.25	989.45
852.3398	1003.1906	1867	1001.9
852.4849	1005.1877	1892.35	1023.4
852.63	1007.1841	1910.35	1043.75
852.7751	1009.1798	1923.9	1058.1
852.9202	1011.1748	1914.65	1048.7
853.0653	1013.1691	1892.6	1026.9
853.2104	1015.1627	1854.55	983.7
853.3555	1017.1556	1825.85	957.65
853.5006	1019.1477	1814.75	943.75
853.6457	1021.1392	1795.65	929.7
853.7908	1023.1299	1789.45	921.9
853.9359	1025.12	1784.05	914.4
854.081	1027.1093	1789.3	922.35
854.2261	1029.0979	1801.85	935.95
854.3712	1031.0859	1821.9	954.4
854.5163	1033.0731	1835.6	965.3
854.6613	1035.0596	1831.25	961.75
854.8064	1037.0454	1827.55	957.25
854.9515	1039.0304	1826.4	957.8
855.0965	1041.0148	1789.5	917.85
855.2416	1042.9985	1778.7	910.05
855.3867	1044.9814	1762.65	893.45
855.5317	1046.9636	1755.05	882.35
855.6768	1048.9452	1760.1	892.8
855.8219	1050.926	1773.15	904.65
855.9669	1052.9061	1794.65	927.05
856.112	1054.8855	1793.55	922.55
856.257	1056.8642	1800.7	931.1
856.4021	1058.8421	1799.75	926.15
856.5471	1060.8194	1781.75	912.65
856.6921	1062.7959	1776	904.45
856.8372	1064.7717	1781.7	909.3
856.9822	1066.7469	1783.9	912.95
857.1272	1068.7213	1784.35	910.1
857.2723	1070.695	1786.75	917.2
857.4173	1072.6679	1800.6	930.05
857.5623	1074.6402	1838.95	965.6
857.7073	1076.6117	1843.55	967.65
857.8523	1078.5826	1829.25	956.45
857.9973	1080.5527	1803.6	931.15
858.1423	1082.5221	1757.6	886.75
858.2873	1084.4908	1735.15	863
858.4323	1086.4587	1711.05	837.75
858.5773	1088.426	1707.2	835.95
858.7223	1090.3925	1709.45	834.15
858.8673	1092.3584	1705.75	833.25
859.0123	1094.3235	1707.65	836.25
859.1573	1096.2879	1718.95	847.4
859.3022	1098.2515	1746.65	874
859.4472	1100.2145	1761.85	890.2
859.5922	1102.1767	1777.9	901.4
859.7371	1104.1382	1823.15	949.9
859.8821	1106.099	1870.1	997.05
860.027	1108.0591	1907.85	1035
860.172	1110.0185	1940.3	1065.5
860.3169	1111.9771	1968	1094.95
860.4619	1113.9351	2017.75	1147.3
860.6068	1115.8923	2073.2	1199.25
860.7517	1117.8488	2119	1243.25
860.8967	1119.8045	2098.9	1225
861.0416	1121.7596	2006.7	1134.05
861.1865	1123.7139	1905.3	1031.7
861.3314	1125.6675	1847.2	974.55
861.4763	1127.6204	1836.2	964.65
861.6212	1129.5726	1849.75	974.7
861.7661	1131.524	1863.6	990.2
861.911	1133.4748	1823.1	949.45
862.0559	1135.4248	1777.8	901.7
862.2008	1137.3741	1720.7	847.15
862.3457	1139.3226	1704.1	827.25
862.4905	1141.2705	1690.85	817.45
862.6354	1143.2176	1702.6	823.1
862.7803	1145.164	1718.75	842.75
862.9251	1147.1097	1708.05	832.45
863.07	1149.0546	1687.25	811.75
863.2148	1150.9989	1671.15	797.55
863.3597	1152.9424	1644.4	769.85
863.5045	1154.8852	1630.25	755.1
863.6493	1156.8272	1619.8	745.35
863.7942	1158.7686	1642.65	758.35
863.939	1160.7092	1628.7	751.1
864.0838	1162.6491	1629.05	751.05
864.2286	1164.5883	1632.5	757.95
864.3734	1166.5267	1639.3	762.1
864.5182	1168.4644	1659.3	784.1
864.663	1170.4014	1690.8	811.85
864.8078	1172.3377	1717.3	844.75
864.9526	1174.2732	1750.4	875.2
865.0974	1176.2081	1820	944.15
865.2421	1178.1421	1920.55	1041.05
865.3869	1180.0755	2031.35	1157.55
865.5317	1182.0082	2103.9	1228.55
865.6764	1183.9401	2112.85	1235.85
865.8212	1185.8713	2042.2	1166.4
865.9659	1187.8017	1928.4	1053.95
866.1106	1189.7315	1827.8	950.2
866.2554	1191.6605	1772.9	865.6
866.4001	1193.5888	1689.4	810.75
866.5448	1195.5163	1673.35	797.25
866.6895	1197.4432	1657.25	778.6
866.8342	1199.3693	1637	761.2
866.9789	1201.2947	1626.1	742.85
867.1236	1203.2193	1611.15	735.6
867.2683	1205.1432	1598.55	722.25
867.413	1207.0664	1604.75	726.35
867.5576	1208.9889	1602.95	722.8
867.7023	1210.9106	1608.75	733.45
867.847	1212.8316	1594.8	718.85
867.9916	1214.7519	1616.5	732.5
868.1363	1216.6715	1613.25	737.7
868.2809	1218.5903	1628.85	752.65
868.4255	1220.5084	1639.1	762.15
868.5701	1222.4257	1642.85	763.7
868.7148	1224.3424	1657.75	782.8
868.8594	1226.2583	1674.75	792.85
869.004	1228.1735	1687.25	808.8
869.1486	1230.0879	1717.5	838.05
869.2932	1232.0016	1747.8	869.85
869.4377	1233.9146	1770.45	892.65
869.5823	1235.8269	1783.85	907.75
869.7269	1237.7384	1788.3	909.85
869.8715	1239.6492	1787.6	912.1
870.016	1241.5592	1785.4	907.15
870.1606	1243.4686	1830.65	953.95
870.3051	1245.3772	1883.35	1003.65
870.4496	1247.285	1955.55	1075.3
870.5941	1249.1922	2020.2	1141.55
870.7387	1251.0986	2067.9	1190.8
870.8832	1253.0042	2121.45	1244.25
871.0277	1254.9092	2202.45	1324.2
871.1722	1256.8134	2276.65	1400.25
871.3167	1258.7169	2371.15	1492
871.4611	1260.6196	2441.05	1562.35
871.6056	1262.5216	2486.95	1605.75
871.7501	1264.4229	2481	1604.05
871.8945	1266.3234	2467.15	1587.35
872.039	1268.2232	2406.05	1527.9
872.1834	1270.1223	2353.1	1473.3
872.3278	1272.0207	2321	1441.8
872.4723	1273.9183	2299.25	1414.75
872.6167	1275.8151	2285.55	1407.65
872.7611	1277.7113	2305.85	1428.1
872.9055	1279.6067	2382.7	1503.25
873.0499	1281.5014	2489.9	1609.25
873.1943	1283.3953	2648.55	1769.15
873.3386	1285.2885	2834.5	1956.65
873.483	1287.181	2996.75	2117.1
873.6274	1289.0727	3056.8	2177.3
873.7717	1290.9637	3036.5	2155.95
873.9161	1292.854	2934.95	2055.7
874.0604	1294.7435	2789.9	1909.4
874.2047	1296.6323	2660.5	1779.15
874.349	1298.5204	2562.85	1678.4
874.4933	1300.4077	2479.15	1599.1
874.6376	1302.2943	2419.75	1540.1
874.7819	1304.1802	2384.5	1505.1
874.9262	1306.0653	2350.4	1468.55
875.0705	1307.9497	2327.45	1447.75
875.2147	1309.8333	2310.35	1430.05
875.359	1311.7162	2292.05	1412.25
875.5032	1313.5984	2261.65	1377.65
875.6475	1315.4798	2256.2	1359.25
875.7917	1317.3605	2278.35	1384.65
875.9359	1319.2405	2274.4	1393.55
876.0801	1321.1197	2292.3	1411
876.2243	1322.9982	2264.05	1377.55
876.3685	1324.876	2217.3	1338.15
876.5127	1326.753	2150.95	1271.25
876.6569	1328.6293	2064.7	1183.7
876.801	1330.5048	1982.55	1100.75
876.9452	1332.3796	1899.8	1019.95
877.0893	1334.2537	1865.5	958.95
877.2335	1336.127	1797	916.4
877.3776	1337.9996	1766.8	884.4
877.5217	1339.8714	1752.65	872.2
877.6658	1341.7426	1771.6	846.5
877.8099	1343.6129	1719.05	837.6
877.954	1345.4826	1692.8	811.15
878.0981	1347.3515	1678.5	794.2
878.2422	1349.2196	1662.85	778.6
878.3862	1351.087	1659.15	777.85
878.5303	1352.9537	1653.95	774.15
878.6743	1354.8197	1650	769.8
878.8184	1356.6849	1657.05	778.1
878.9624	1358.5493	1669.55	789.5
879.1064	1360.4131	1688.15	808.1
879.2504	1362.276	1718.55	837.65
879.3944	1364.1383	1752.9	872.3
879.5384	1365.9998	1770.95	883.25
879.6823	1367.8606	1755.3	873.65
879.8263	1369.7206	1745.4	863.9
879.9702	1371.5799	1750.3	866.25
880.1142	1373.4384	1748.85	867.55
880.2581	1375.2962	1733.9	850.65
880.402	1377.1533	1688.75	807.2
880.5459	1379.0096	1648.25	766.05
880.6898	1380.8652	1618.65	738.55
880.8337	1382.7201	1591.9	712.3
880.9776	1384.5742	1565.3	682.65
881.1215	1386.4275	1549.3	665.8
881.2653	1388.2802	1530.9	651.8
881.4092	1390.132	1528.75	648.2
881.553	1391.9832	1520.5	636.95
881.6968	1393.8336	1513.3	631.85
881.8406	1395.6832	1503.4	620.05
881.9844	1397.5322	1500.1	620.8
882.1282	1399.3803	1497.05	609.4
882.272	1401.2278	1479.3	597.8
882.4158	1403.0745	1472.65	591.95
882.5595	1404.9204	1459.7	582.15
882.7033	1406.7656	1456.45	575.6
882.847	1408.6101	1458.6	576.7
882.9908	1410.4538	1446.15	564.3
883.1345	1412.2968	1460.1	577.85
883.2782	1414.139	1449.05	567.6
883.4219	1415.9805	1453.75	571.45
883.5656	1417.8213	1474.75	585.85
883.7092	1419.6613	1475.75	593.7
883.8529	1421.5006	1502.8	621.4
883.9965	1423.3391	1528.75	645.25
884.1402	1425.1769	1576.4	694.7
884.2838	1427.0139	1635.15	752.95
884.4274	1428.8502	1717.9	834.75
884.571	1430.6858	1771.7	890.5
884.7146	1432.5206	1796.65	913
884.8582	1434.3547	1800.25	918.3
885.0018	1436.188	1776.35	893.5
885.1453	1438.0206	1765.55	883.05
885.2889	1439.8524	1759.9	876.55
885.4324	1441.6835	1742.9	860.35
885.5759	1443.5139	1751.15	864.2
885.7194	1445.3435	1755.25	871.7
885.8629	1447.1724	1755.7	874.05
886.0064	1449.0005	1749.8	867.75
886.1499	1450.8279	1742.95	859.85
886.2933	1452.6545	1734.55	852.1
886.4368	1454.4804	1729.85	848.4
886.5802	1456.3056	1735	844.05
886.7237	1458.13	1715.5	835.25
886.8671	1459.9536	1698.25	814.25
887.0105	1461.7766	1673	790.7
887.1539	1463.5987	1638.25	753.1
887.2972	1465.4202	1601.45	719.8
887.4406	1467.2409	1569.65	686.6
887.584	1469.0608	1538.4	655.75
887.7273	1470.88	1509	624.7
887.8706	1472.6984	1487.7	605.9
888.0139	1474.5161	1473.2	585.5
888.1572	1476.3331	1462.9	581.55
888.3005	1478.1493	1450.4	564.35
888.4438	1479.9648	1443.9	561.25
888.5871	1481.7795	1427.3	542.95
888.7303	1483.5935	1433.65	549.5
888.8736	1485.4067	1435.2	554.65
889.0168	1487.2192	1440.55	554.2
889.16	1489.031	1449.9	563.6
889.3032	1490.842	1441.35	558.3
889.4464	1492.6522	1439.1	557.25
889.5896	1494.4618	1433.55	550.3
889.7327	1496.2705	1436.95	553.25
889.8759	1498.0785	1431.85	545
890.019	1499.8858	1430.35	546.7
890.1622	1501.6924	1423.5	539.95
890.3053	1503.4981	1419.1	536.4
890.4484	1505.3032	1411.9	528.9
890.5914	1507.1075	1413.2	530.65
890.7345	1508.911	1404.3	522.35
890.8776	1510.7138	1398.3	513.75
891.0206	1512.5159	1393.15	511.7
891.1637	1514.3172	1387.85	504.05
891.3067	1516.1178	1376.75	493.55
891.4497	1517.9176	1378.85	491.85
891.5927	1519.7166	1369.05	486.95
891.7357	1521.515	1378.9	488.2
891.8786	1523.3126	1367.2	482.35
892.0216	1525.1094	1357.45	471.2
892.1645	1526.9055	1354.5	473.95
892.3074	1528.7008	1346.95	462.5
892.4503	1530.4954	1345.15	456.5
892.5932	1532.2893	1345.55	463.8
892.7361	1534.0824	1346.1	456.95
892.879	1535.8747	1344.8	458.85
893.0218	1537.6663	1339.2	453.25
893.1647	1539.4572	1340.35	453.15
893.3075	1541.2473	1333.9	450.1
893.4503	1543.0367	1331.05	448
893.5931	1544.8253	1334.65	444.2
893.7359	1546.6132	1343.8	458.7
893.8787	1548.4003	1353.8	459.05
894.0214	1550.1867	1354.15	463.25
894.1642	1551.9723	1354.15	465.95
894.3069	1553.7572	1368	482.8
894.4496	1555.5414	1377.45	491.4
894.5923	1557.3247	1391.65	506.65
894.735	1559.1074	1418.25	536.55
894.8777	1560.8893	1455.6	573
895.0204	1562.6705	1482.6	598.45
895.163	1564.4509	1509.45	626.6
895.3056	1566.2305	1523.15	639.45
895.4482	1568.0094	1528.4	645.6
895.5908	1569.7876	1528.4	643.8
895.7334	1571.565	1525.5	641.05
895.876	1573.3417	1526	642.6
896.0186	1575.1176	1530.7	646.5
896.1611	1576.8928	1532.7	647.95
896.3036	1578.6672	1553.4	669.5
896.4461	1580.4409	1574.05	691.8
896.5886	1582.2138	1607.7	720.4
896.7311	1583.986	1643.5	757.7
896.8736	1585.7575	1673.9	790.1
897.0161	1587.5282	1708.65	824.65
897.1585	1589.2981	1728.45	845.25
897.3009	1591.0673	1742.6	855.95
897.4433	1592.8358	1757.6	875.75
897.5857	1594.6035	1756.7	870.7
897.7281	1596.3704	1744.15	859.2
897.8705	1598.1366	1718.5	835.5
898.0128	1599.9021	1692.8	808
898.1551	1601.6668	1668.3	781.25
898.2975	1603.4308	1642.3	759.15
898.4398	1605.194	1638.05	748.7
898.5821	1606.9564	1663.25	779.95
898.7243	1608.7182	1703.15	813.55
898.8666	1610.4791	1760.5	873.6
899.0088	1612.2394	1850.3	964.4
899.1511	1613.9988	1944.55	1059.5
899.2933	1615.7576	2022.7	1137
899.4355	1617.5156	2070.85	1181.2
899.5776	1619.2728	2045.8	1159.95
899.7198	1621.0293	1998.4	1113.8
899.862	1622.785	1906.9	1019.05
900.0041	1624.54	1793.3	906.45
900.1462	1626.2942	1693	805.75
900.2883	1628.0477	1606.95	718.75
900.4304	1629.8005	1523.85	634.35
900.5725	1631.5525	1471.3	585
900.7145	1633.3037	1427.95	541.25
900.8566	1635.0542	1384.55	501.6
900.9986	1636.804	1363.85	478.2
901.1406	1638.553	1392.65	442.6
901.2826	1640.3013	1313.75	430.2
901.4245	1642.0488	1300.65	414.7
901.5665	1643.7955	1287.05	402.65
901.7085	1645.5416	1286.55	401.75
901.8504	1647.2868	1274.15	389.2
901.9923	1649.0313	1259.5	376.3
902.1342	1650.7751	1263.75	375.15
902.2761	1652.5181	1252.95	368.05
902.4179	1654.2604	1251.45	364.6
902.5598	1656.0019	1253	368.4
902.7016	1657.7427	1263.4	378.6
902.8434	1659.4828	1271.3	386.25
902.9852	1661.222	1296.05	412
903.127	1662.9606	1321.4	436.6
903.2687	1664.6984	1354.65	471.25
903.4105	1666.4354	1374.45	488.15
903.5522	1668.1717	1371.5	485.45
903.6939	1669.9072	1340	454.55
903.8356	1671.642	1309.45	421.45
903.9773	1673.3761	1273.9	388.55
904.119	1675.1094	1241.2	358
904.2606	1676.8419	1223.1	337.6
904.4022	1678.5737	1209.4	322.8
904.5439	1680.3048	1198.05	313.25
904.6855	1682.0351	1193	306.45
904.827	1683.7646	1193.85	306
904.9686	1685.4934	1183.9	301.55
905.1101	1687.2215	1177.75	292.75
905.2517	1688.9488	1169.15	282.75
905.3932	1690.6754	1167.4	282.95
905.5347	1692.4012	1167.3	283.05
905.6761	1694.1263	1165	280.55
905.8176	1695.8506	1167.95	283
905.9591	1697.5742	1161.4	276.3
906.1005	1699.297	1158.55	273.9
906.2419	1701.0191	1157.6	270.95
906.3833	1702.7404	1156.05	273.05
906.5246	1704.461	1153.75	265.9
906.666	1706.1808	1149.5	262.15
906.8073	1707.8999	1148.85	263.25
906.9487	1709.6182	1146.6	261.6
907.09	1711.3358	1147.75	263.3
907.2313	1713.0527	1137.75	253.15
907.3725	1714.7688	1149.2	256.25
907.5138	1716.4841	1146.1	259.95
907.655	1718.1987	1141.25	251.2
907.7962	1719.9126	1138.75	255.35
907.9374	1721.6257	1143.45	254.8
908.0786	1723.338	1142.9	256.25
908.2198	1725.0496	1136.1	248.85
908.3609	1726.7605	1142.4	254.85
908.502	1728.4706	1137.2	251
908.6431	1730.18	1141.25	252.5
908.7842	1731.8886	1133.65	248.4
908.9253	1733.5964	1154.85	248.05
909.0664	1735.3036	1134.3	245.95
909.2074	1737.0099	1131.85	248.25
909.3484	1738.7156	1129.65	246
909.4894	1740.4204	1131.35	243.95
909.6304	1742.1246	1132.15	244.95
909.7714	1743.8279	1128.75	242.25
909.9123	1745.5306	1127.95	241.45
910.0532	1747.2325	1125.35	239.4
910.1941	1748.9336	1125.7	238.95
910.335	1750.634	1125.8	237.95
910.4759	1752.3336	1123.1	236.2
910.6168	1754.0325	1123.55	240.85
910.7576	1755.7307	1121.1	235.7
910.8984	1757.4281	1121.15	235.9
911.0392	1759.1247	1129.15	234.25
911.18	1760.8206	1130.65	240.25
911.3208	1762.5158	1123.25	235.05
911.4615	1764.2102	1122.75	236.4
911.6022	1765.9039	1119.65	233.3
911.7429	1767.5968	1120.5	234.4
911.8836	1769.289	1118.1	230.05
912.0243	1770.9804	1120.65	233.95
912.1649	1772.6711	1120.3	235.45
912.3056	1774.361	1119.2	233.55
912.4462	1776.0502	1114.5	230.3
912.5868	1777.7386	1119.6	230.5
912.7274	1779.4263	1117.7	232.1
912.8679	1781.1132	1116.2	230.45
913.0084	1782.7994	1114.05	226
913.149	1784.4849	1115.2	229.25
913.2895	1786.1696	1120.5	227.15
913.4299	1787.8535	1113.3	227.05
913.5704	1789.5367	1112.75	226.95
913.7108	1791.2192	1106.9	221.15
913.8513	1792.9009	1122.8	221.6
913.9917	1794.5818	1109.1	221.15
914.132	1796.2621	1108.2	224.45
914.2724	1797.9415	1110.8	223.95
914.4128	1799.6202	1107.75	222.8
914.5531	1801.2982	1108.5	225.4
914.6934	1802.9755	1106.85	219.95
914.8337	1804.6519	1104.65	219.4
914.9739	1806.3277	1104.25	217.35
915.1142	1808.0027	1104.05	217.8
915.2544	1809.6769	1105.75	219.5
915.3946	1811.3504	1105.4	217.05
915.5348	1813.0231	1105.9	219.55
915.675	1814.6951	1100.1	213.95
915.8151	1816.3664	1102.2	211.25
915.9553	1818.0369	1098.5	211.55
916.0954	1819.7067	1099.8	213.4
916.2355	1821.3757	1100.05	211.55
916.3755	1823.044	1101.9	217.25
916.5156	1824.7115	1097.15	212.35
916.6556	1826.3783	1094.2	209.5
916.7956	1828.0443	1091.45	204.05
916.9356	1829.7096	1098.55	210.75
917.0756	1831.3741	1099.5	209.3
917.2155	1833.0379	1095.15	210.5
917.3555	1834.701	1096.6	205.8
917.4954	1836.3633	1097.7	209.4
917.6353	1838.0248	1101.6	213.75
917.7751	1839.6856	1094.1	208.4
917.915	1841.3457	1094.1	209.25
918.0548	1843.005	1087.7	203.2
918.1946	1844.6636	1084.45	198
918.3344	1846.3214	1087.9	202.35
918.4742	1847.9785	1089.7	206.55
918.6139	1849.6349	1092.65	204.75
918.7537	1851.2904	1097	203.35
918.8934	1852.9453	1085.85	199.5
919.0331	1854.5994	1093.1	206.45
919.1727	1856.2528	1093.05	201.05
919.3124	1857.9054	1089.9	203.1
919.452	1859.5572	1087.95	201.65
919.5916	1861.2083	1089.9	202.05
919.7312	1862.8587	1083.55	196.5
919.8708	1864.5084	1087.55	200.15
920.0103	1866.1572	1085.15	201.55
920.1498	1867.8054	1082.45	197.7
920.2893	1869.4528	1084.6	198.15
920.4288	1871.0994	1086.45	201.35
920.5683	1872.7453	1082.85	197.2
920.7077	1874.3905	1089.35	195.15
920.8471	1876.0349	1086.3	199.3
920.9865	1877.6786	1084.3	196.1
921.1259	1879.3215	1079.2	193.6
921.2653	1880.9637	1085.25	198.05
921.4046	1882.6051	1078.05	191.5
921.5439	1884.2458	1086.7	199.95
921.6832	1885.8858	1079.6	193.55
921.8225	1887.525	1083.6	195.6
921.9617	1889.1634	1076.3	189.7
922.101	1890.8011	1081.25	195.7
922.2402	1892.4381	1076.95	188.75
922.3794	1894.0743	1075.65	189.35
922.5185	1895.7098	1075.7	189.85
922.6577	1897.3446	1079.3	191.65
922.7968	1898.9786	1079.1	189.65
922.9359	1900.6118	1071.5	186.6
923.075	1902.2443	1078.4	191.5
923.214	1903.8761	1073.8	189.55
923.3531	1905.5071	1072.65	186.95
923.4921	1907.1374	1077.6	192.15
923.6311	1908.7669	1069.5	180.9
923.77	1910.3957	1072.95	186.35
923.909	1912.0237	1066.6	179.9
924.0479	1913.651	1072.95	185.1
924.1868	1915.2776	1072.7	189.05
924.3257	1916.9034	1072.3	187.05
924.4646	1918.5285	1071.05	187.25
924.6034	1920.1528	1069.25	181.65
924.7422	1921.7764	1066.25	181.4
924.881	1923.3992	1066.7	180.65
925.0198	1925.0213	1067.7	182.7
925.1586	1926.6427	1067.4	181.75
925.2973	1928.2633	1155.15	181.65
925.436	1929.8832	1065.55	175.7
925.5747	1931.5023	1068.2	182.65
925.7134	1933.1207	1059.65	171.8
925.852	1934.7383	1067.5	181.35
925.9906	1936.3552	1060.95	175.75
926.1292	1937.9714	1061.55	175.2
926.2678	1939.5868	1067.8	181.15
926.4064	1941.2015	1060.85	174.4
926.5449	1942.8154	1063.25	176.5
926.6834	1944.4286	1058.85	172.25
926.8219	1946.041	1084.4	174.7
926.9604	1947.6528	1063.85	171.55
927.0988	1949.2637	1054.7	168.65
927.2372	1950.8739	1060	173.4
927.3756	1952.4834	1059.65	173.05
927.514	1954.0921	1059.65	171.2
927.6523	1955.7001	1062.05	170.75
927.7907	1957.3074	1056.95	170
927.929	1958.9139	1055.95	170.35
928.0673	1960.5197	1060.35	172.6
928.2055	1962.1247	1055.1	168.3
928.3438	1963.729	1057.8	172.25
928.482	1965.3325	1073.8	162.05
928.6202	1966.9353	1054.75	168.85
928.7584	1968.5374	1052.25	163.6
928.8965	1970.1387	1050.9	163.45
929.0346	1971.7393	1054.1	166.8
929.1727	1973.3392	1048.25	162.7
929.3108	1974.9383	1046.3	159.9
929.4489	1976.5366	1053.15	167.95
929.5869	1978.1342	1052.9	165.65
929.7249	1979.7311	1052.75	165.85
929.8629	1981.3273	1055.4	169.2
930.0009	1982.9227	1052.9	165.2
930.1388	1984.5173	1047.85	158.6
930.2767	1986.1112	1046.5	159.8
930.4146	1987.7044	1044.8	160.3
930.5525	1989.2968	1046.95	159.65
930.6904	1990.8885	1050.8	161.45
930.8282	1992.4795	1050.35	160.75
930.966	1994.0697	1049.45	163.4
931.1038	1995.6592	1045.85	159.9
931.2415	1997.2479	1044.2	158.15
931.3793	1998.8359	1042.55	156.3
931.517	2000.4232	1049.15	162.9
931.6547	2002.0097	1038.9	153.65
931.7923	2003.5955	1042.45	155.15
931.93	2005.1805	1044.2	155.8
932.0676	2006.7648	1044.2	158.4
932.2052	2008.3484	1043.85	157.25
932.3427	2009.9312	1046.35	158.1
932.4803	2011.5133	1039.55	154.95
932.6178	2013.0946	1046.95	160.1
932.7553	2014.6752	1043.25	159.75
932.8928	2016.2551	1042.15	154.2
933.0302	2017.8342	1045.2	159.95
933.1676	2019.4126	1036.8	149.7
933.305	2020.9902	1046.9	161.05
933.4424	2022.5672	1043.5	156.6
933.5798	2024.1433	1048.4	155.8
933.7171	2025.7188	1042.8	155.35
933.8544	2027.2935	1042.95	155.1
933.9917	2028.8674	1043.6	156.8
934.129	2030.4406	1038.85	153.45
934.2662	2032.0131	1039.25	152.55
934.4034	2033.5849	1042.4	151.2
934.5406	2035.1559	1037.55	151.85
934.6778	2036.7261	1037.9	152.05
934.8149	2038.2957	1039.4	153.45
934.952	2039.8645	1036.4	151.15
935.0891	2041.4325	1042.1	152.5
935.2262	2042.9998	1039.25	153.95
935.3632	2044.5664	1037.25	147.4
935.5002	2046.1323	1037.85	153.05
935.6372	2047.6974	1039	153.05
935.7742	2049.2617	1030.9	143.55
935.9111	2050.8254	1069.3	149.35
936.048	2052.3883	1036.5	147.65
936.1849	2053.9504	1034.65	149.85
936.3218	2055.5118	1035.8	149.25
936.4586	2057.0725	1039.35	148.9
936.5955	2058.6325	1034.45	147.1
936.7323	2060.1917	1031.85	146.35
936.869	2061.7502	1038.75	149.9
937.0058	2063.3079	1032	146.7
937.1425	2064.8649	1038.5	148.15
937.2792	2066.4212	1039.35	152.95
937.4159	2067.9767	1035.9	148.15
937.5525	2069.5315	1029.45	143.4
937.6891	2071.0856	1039.7	154.6
937.8257	2072.6389	1036.9	146.35
937.9623	2074.1915	1030.7	145.8
938.0989	2075.7433	1031.55	143.15
938.2354	2077.2945	1028	141.75
938.3719	2078.8448	1027.75	143.4
938.5084	2080.3945	1025.45	140.4
938.6448	2081.9434	1029.9	145.65
938.7812	2083.4916	1031.15	143.9
938.9176	2085.039	1026	137.7
939.054	2086.5857	1032	145.6
939.1903	2088.1317	1032.8	149.45
939.3267	2089.677	1029.9	143.05
939.463	2091.2215	1029.35	143.25
939.5992	2092.7652	1032.9	147.05
939.7355	2094.3083	1031.55	146.85
939.8717	2095.8506	1025.3	137.3
940.0079	2097.3921	1029.7	144.55
940.1441	2098.933	1027.95	140.7
940.2802	2100.4731	1029.65	141.7
940.4163	2102.0124	1033.8	141
940.5524	2103.5511	1028.35	139.95
940.6885	2105.089	1027.85	141.05
940.8245	2106.6261	1029.55	145.25
940.9606	2108.1626	1031.25	143.8
941.0965	2109.6983	1052.65	135.45
941.2325	2111.2332	1027.1	140.3
941.3684	2112.7675	1030.15	141.45
941.5044	2114.301	1030.1	142.25
941.6403	2115.8337	1027.75	141.55
941.7761	2117.3657	1023.6	137.45
941.912	2118.897	1024.1	137
942.0478	2120.4276	1033.5	140.85
942.1835	2121.9575	1027.2	141.3
942.3193	2123.4866	1040.1	138.15
942.455	2125.0149	1031.6	142.4
942.5907	2126.5426	1027.4	140.8
942.7264	2128.0695	1028.35	137.65
942.8621	2129.5956	1028.35	143.2
942.9977	2131.1211	1026.7	137.15
943.1333	2132.6458	1021	136.55
943.2689	2134.1698	1026.25	140.2
943.4044	2135.693	1026.7	138.25
943.54	2137.2155	1025.6	137.45
943.6755	2138.7373	1025.25	136.9
943.8109	2140.2584	1023.45	136.9
943.9464	2141.7787	1033.9	142
944.0818	2143.2983	1018.75	133.65
944.2172	2144.8171	1022.3	136
944.3526	2146.3353	1024.15	135.4
944.4879	2147.8527	1021.1	134.8
944.6232	2149.3693	1020.05	134.3
944.7585	2150.8853	1023.6	136.95
944.8938	2152.4005	1018.85	132.8
945.029	2153.9149	1021.05	134.2
945.1642	2155.4287	1021.35	136.25
945.2994	2156.9417	1025.85	137.8
945.4346	2158.454	1023.15	132.5
945.5697	2159.9655	1024.55	140.05
945.7048	2161.4764	1021.8	133.45
945.8399	2162.9865	1020.85	136.25
945.9749	2164.4958	1021.95	134
946.1099	2166.0045	1021.25	130.7
946.2449	2167.5124	1018.3	133.8
946.3799	2169.0195	1019.7	131.05
946.5148	2170.526	1018.3	130.65
946.6498	2172.0317	1020.6	134.15
946.7846	2173.5367	1022.05	132.7
946.9195	2175.0409	1019.1	132.95
947.0543	2176.5445	1018.3	134.35
947.1891	2178.0473	1017.95	130.4
947.3239	2179.5494	1025.7	137.35
947.4587	2181.0507	1019.1	133
947.5934	2182.5513	1015.2	129.9
947.7281	2184.0512	1016.45	130.55
947.8628	2185.5504	1016.35	128.3
947.9974	2187.0488	1014.25	129.1
948.132	2188.5465	1021.85	134
948.2666	2190.0435	1012.9	125.95
948.4012	2191.5397	1018.35	132.3
948.5357	2193.0353	1012.6	127.25
948.6702	2194.5301	1017.35	130.9
948.8047	2196.0241	1015.95	126.7
948.9392	2197.5175	1014.8	129.45
949.0736	2199.0101	1017.85	129.8
949.208	2200.502	1010.6	124.3
949.3424	2201.9931	1015.25	130.8
949.4767	2203.4835	1014.8	126.15
949.611	2204.9733	1018.45	125.45
949.7453	2206.4622	1012.6	126.25
949.8796	2207.9505	1014.4	123.1
950.0138	2209.438	1014.1	128.7
950.148	2210.9248	1014.15	126.35
950.2822	2212.4109	1011.4	125.75
950.4164	2213.8962	1012.95	124.45
950.5505	2215.3809	1008.15	121.5
950.6846	2216.8648	1010.55	122.95
950.8186	2218.3479	1013.85	124.5
950.9527	2219.8304	1015.2	124.65
951.0867	2221.3121	1009.3	120.55
951.2207	2222.7931	1008.15	122.3
951.3546	2224.2733	1008.05	120.7
951.4886	2225.7529	1006.85	120.65
951.6225	2227.2317	1010.35	120.1
951.7563	2228.7098	1003.7	117.95
951.8902	2230.1872	1005.8	118.45
952.024	2231.6638	1005.45	119.3
952.1578	2233.1397	1008.05	115.8
952.2916	2234.6149	1004.5	116.45
952.4253	2236.0894	1005.8	117.9
952.559	2237.5632	1013.8	115.7
952.6927	2239.0362	1004.5	118.05
952.8263	2240.5085	1004.2	119
952.9599	2241.9801	1001.7	116.15
953.0935	2243.4509	1001.3	116.4
953.2271	2244.921	999.8	112.25
953.3606	2246.3904	1006.05	117.25
953.4941	2247.8591	1001.7	117.15
953.6276	2249.3271	1000.5	115.45
953.7611	2250.7943	1001.35	113.1
953.8945	2252.2608	1002.8	118.55
954.0279	2253.7266	1001	113.8
954.1612	2255.1917	1000.25	114.15
954.2946	2256.656	1003.15	114.95
954.4279	2258.1197	1000.85	115.05
954.5612	2259.5826	999.3	112.55
954.6944	2261.0447	999.5	112.25
954.8276	2262.5062	1001.05	112.8
954.9608	2263.9669	1003.25	115.25
955.094	2265.4269	996.7	110
955.2271	2266.8862	999	111.7
955.3602	2268.3448	998.1	110.8
955.4933	2269.8026	1003.2	115.6
955.6264	2271.2598	995	106.95
955.7594	2272.7162	995.25	108.2
955.8924	2274.1719	1000.15	113.1
956.0253	2275.6268	995.05	108.2
956.1583	2277.0811	996.25	108.5
956.2912	2278.5346	996.65	112.5
956.4241	2279.9874	999.3	111.45
956.5569	2281.4395	994.1	106.3
956.6897	2282.8908	1001.3	110.95
956.8225	2284.3414	996.1	107.5
956.9553	2285.7914	991.6	105.2
957.088	2287.2406	994	105.3
957.2207	2288.689	993.9	109.65
957.3534	2290.1368	993.05	106.8
957.486	2291.5838	996	109.2
957.6186	2293.0302	991.7	103.35
957.7512	2294.4758	994.8	109.15
957.8838	2295.9206	993	103.85
958.0163	2297.3648	994.4	108.2
958.1488	2298.8082	995.95	109.1
958.2813	2300.251	993.2	105.8
958.4137	2301.693	996.75	106.55
958.5461	2303.1343	994.6	106.3
958.6785	2304.5748	994.65	108.2
958.8108	2306.0147	993.6	108.75
958.9432	2307.4538	995.25	104.5
959.0754	2308.8922	991.35	106.5
959.2077	2310.3299	994.8	108.95
959.3399	2311.7669	991.2	104.75
959.4721	2313.2031	989.25	102.15
959.6043	2314.6387	989.25	102.75
959.7365	2316.0735	989.8	104.55
959.8686	2317.5076	994.1	107.3
960.0006	2318.941	992.35	104.9
960.1327	2320.3737	988.15	102.4
960.2647	2321.8056	994.55	106.7
960.3967	2323.2369	991.05	103.45
960.5287	2324.6674	993.25	104.4
960.6606	2326.0972	994.55	107.05
960.7925	2327.5263	994.9	110.8
960.9244	2328.9547	996.9	109.65
961.0562	2330.3823	998.4	113.05
961.1881	2331.8092	997.25	109.05
961.3198	2333.2355	989.9	102.3
961.4516	2334.661	985.65	98.85
961.5833	2336.0858	985.8	95.35
961.715	2337.5098	988.65	101.05
961.8467	2338.9332	986.85	99.25
961.9783	2340.3558	989.95	99.45
962.1099	2341.7778	985.15	96.7
962.2415	2343.199	987.05	98.1
962.373	2344.6195	984.85	96.95
962.5045	2346.0393	985.75	99.8
962.636	2347.4583	982.6	95.05
962.7675	2348.8767	981.7	94.55
962.8989	2350.2943	986.2	101
963.0303	2351.7113	984.25	97
963.1617	2353.1275	982	95
963.293	2354.543	1006.3	95.6
963.4243	2355.9578	986.5	100.7
963.5556	2357.3718	982.05	95.05
963.6868	2358.7852	987	96.05
963.818	2360.1978	983.4	94.35
963.9492	2361.6098	982.7	97.15
964.0803	2363.021	978.9	88.15
964.2114	2364.4315	977.7	91.55
964.3425	2365.8413	983.35	93.45
964.4736	2367.2504	983.85	99.2
964.6046	2368.6587	983.65	95.8
964.7356	2370.0664	980.5	94.1
964.8666	2371.4733	980.35	93.6
964.9975	2372.8795	980.5	93.4
965.1284	2374.285	982.25	94.6
965.2593	2375.6899	976.3	89.15
965.3901	2377.0939	978.55	92.3
965.5209	2378.4973	979.05	94.35
965.6517	2379.9	978.1	91.25
965.7825	2381.3019	976.95	90.45
965.9132	2382.7032	983.2	96.6
966.0439	2384.1037	975.5	89.7
966.1745	2385.5035	976	90.7
966.3051	2386.9027	979.2	91.5
966.4357	2388.3011	980.8	91
966.5663	2389.6987	979.3	91.35
966.6968	2391.0957	977.2	91.8
966.8273	2392.492	977.05	91.7
966.9578	2393.8876	977.3	86.75
967.0882	2395.2824	972.4	85.6
967.2186	2396.6765	973.55	88.65
967.349	2398.07	973	87.5
967.4793	2399.4627	970.55	82.95
967.6097	2400.8547	973.35	84.15
967.7399	2402.246	978.65	85.6
967.8702	2403.6366	975	88.05
968.0004	2405.0265	970.7	84.7
968.1306	2406.4156	977.5	88.1
968.2607	2407.8041	972.25	80.7
968.3909	2409.1918	972.35	84.9
968.521	2410.5789	972.95	87.95
968.651	2411.9652	975.3	84.9
968.781	2413.3508	970.9	85.9
968.911	2414.7358	974.25	85.05
969.041	2416.12	969.45	83.75
969.1709	2417.5035	969.45	81.95
969.3008	2418.8863	972.1	84.15
969.4307	2420.2684	970.25	82.65
969.5606	2421.6497	975.75	87.8
969.6904	2423.0304	968.7	83.1
969.8201	2424.4104	973.05	85.55
969.9499	2425.7896	978.2	85.5
970.0796	2427.1682	969.2	83.4
970.2093	2428.546	971.25	83.7
970.3389	2429.9232	968.1	80.75
970.4685	2431.2996	969	83.8
970.5981	2432.6753	966.95	79.3
970.7277	2434.0503	966.05	78.4
970.8572	2435.4246	970.4	85.35
970.9867	2436.7982	970.55	81.1
971.1161	2438.1711	965.15	80.1
971.2456	2439.5433	968.1	79.15
971.375	2440.9148	971.25	79.05
971.5043	2442.2856	966.95	80.15
971.6336	2443.6557	968.8	80.65
971.7629	2445.025	965.8	80.05
971.8922	2446.3937	965.1	77.9
972.0214	2447.7617	963.55	75.25
972.1506	2449.1289	967.8	79.65
972.2798	2450.4955	970.3	78.15
972.4089	2451.8613	963.6	77.6
972.538	2453.2265	966.7	80.15
972.6671	2454.5909	966.9	80
972.7961	2455.9546	964.05	78.45
972.9251	2457.3177	963.55	78.1
973.0541	2458.68	967.85	81.3
973.1831	2460.0416	969.4	81.65
973.312	2461.4025	966.4	77.05
973.4408	2462.7627	977.2	80
973.5697	2464.1222	965.15	79.1
973.6985	2465.4811	961.1	74.95
973.8273	2466.8392	964.9	78
973.956	2468.1966	966.95	77.3
974.0847	2469.5533	965.85	77.15
974.2134	2470.9093	965.1	79.3
974.3421	2472.2645	966.15	79.3
974.4707	2473.6191	962.25	74.55
974.5993	2474.973	964.35	79.65
974.7278	2476.3262	967	80
974.8563	2477.6787	961.75	75.15
974.9848	2479.0305	962.05	77.35
975.1132	2480.3816	961.55	72.45
975.2417	2481.7319	960.9	73.55
975.37	2483.0816	961.75	73.7
975.4984	2484.4306	959.9	72.8
975.6267	2485.7789	957.85	71.25
975.755	2487.1264	963.05	74.7
975.8833	2488.4733	960.05	73.6
976.0115	2489.8195	976.8	74.4
976.1397	2491.165	963.4	73.35
976.2678	2492.5097	959.85	69.5
976.3959	2493.8538	960.2	73.5
976.524	2495.1972	956.8	70.4
976.6521	2496.5398	960.55	71.7
976.7801	2497.8818	962.15	72.55
976.9081	2499.2231	958.4	71.2
977.036	2500.5637	962.8	73.05
977.164	2501.9035	959.3	71.65
977.2918	2503.2427	963.45	74.25
977.4197	2504.5812	958.1	70.95
977.5475	2505.919	958.8	69.15
977.6753	2507.256	958.4	71.6
977.8031	2508.5924	958.65	72.35
977.9308	2509.9281	962.75	70.35
978.0585	2511.2631	962.55	75
978.1861	2512.5974	960.6	74.8
978.3137	2513.9309	956.05	67.15
978.4413	2515.2638	988.35	70.05
978.5689	2516.596	957.35	70.05
978.6964	2517.9275	959.9	71.25
978.8239	2519.2583	957.45	69.65
978.9513	2520.5884	957.4	68.6
979.0788	2521.9178	957.7	69.8
979.2062	2523.2465	952.45	66.55
979.3335	2524.5745	956.6	68.55
979.4608	2525.9018	954.25	67.7
979.5881	2527.2284	954.9	68.55
979.7154	2528.5543	954.75	67.7
979.8426	2529.8796	956.05	68.65
979.9698	2531.2041	955.95	68.9
980.0969	2532.5279	954.15	69.5
980.224	2533.851	952.45	63.6
980.3511	2535.1735	951.85	65.4
980.4781	2536.4952	953.6	66
980.6052	2537.8163	954	67.35
980.7321	2539.1366	952.1	64.7
980.8591	2540.4562	954.75	68.3
980.986	2541.7752	951.25	64.65
981.1129	2543.0935	950.95	66.1
981.2397	2544.411	952.7	65.3
981.3665	2545.7279	950.55	64
981.4933	2547.0441	951	64.2
981.62	2548.3596	956.95	67.6
981.7467	2549.6744	952.2	66.65
981.8734	2550.9885	952.95	63.75
982.0001	2552.3019	948.35	62.6
982.1267	2553.6146	953.3	67.35
982.2532	2554.9266	950.2	61.7
982.3798	2556.2379	952.45	65.25
982.5063	2557.5485	948.9	64.4
982.6327	2558.8585	959.15	67.15
982.7592	2560.1677	954	63.65
982.8856	2561.4762	952.05	64.85
983.0119	2562.7841	953.75	65.3
983.1383	2564.0913	950.35	65.45
983.2646	2565.3977	949.45	63.1
983.3908	2566.7035	949.75	61.8
983.517	2568.0086	952.75	64
983.6432	2569.313	950.85	62.45
983.7694	2570.6167	955.35	63.5
983.8955	2571.9197	948.9	63.75
984.0216	2573.222	953.75	64.2
984.1476	2574.5236	951.2	61.95
984.2737	2575.8246	951.55	63.35
984.3996	2577.1248	951.25	61.45
984.5256	2578.4244	945.8	59.15
984.6515	2579.7232	949.65	64.1
984.7774	2581.0214	980.5	61.15
984.9032	2582.3189	949.05	62.15
985.029	2583.6157	952.55	63.05
985.1548	2584.9118	950.9	64.8
985.2806	2586.2072	949.75	63.65
985.4063	2587.5019	949.1	62.05
985.5319	2588.7959	949.3	63.35
985.6576	2590.0893	953.05	65.2
985.7832	2591.3819	948.7	62.8
985.9087	2592.6739	945.95	59.2
986.0343	2593.9652	947.75	58.55
986.1597	2595.2557	948.9	62.6
986.2852	2596.5456	952.15	62.3
986.4106	2597.8348	946.15	60
986.536	2599.1234	947.85	64.95
986.6614	2600.4112	951.35	63.85
986.7867	2601.6983	951.85	62.85
986.912	2602.9848	949.65	64.25
987.0372	2604.2705	958.75	66.5
987.1624	2605.5556	949.7	63.2
987.2876	2606.84	946.1	59.3
987.4128	2608.1237	949.75	60.85
987.5379	2609.4067	947.8	61.65
987.6629	2610.689	953.15	56.6
987.788	2611.9707	952.2	62.1
987.913	2613.2516	951.4	59.2
988.0379	2614.5319	947	60.65
988.1629	2615.8115	946.2	59.9
988.2878	2617.0903	948.35	61.25
988.4126	2618.3685	944.55	57.7
988.5375	2619.6461	946.55	58.3
988.6622	2620.9229	943.3	56.15
988.787	2622.199	946.25	58.2
988.9117	2623.4745	945.4	56.85
989.0364	2624.7493	943.3	57.7
989.161	2626.0234	944.35	57.45
989.2857	2627.2968	943.45	55.75
989.4102	2628.5695	946.05	56.95
989.5348	2629.8415	941.9	57.85
989.6593	2631.1128	946.15	57.35
989.7837	2632.3835	942.7	58.1
989.9082	2633.6535	944.3	57.15
990.0326	2634.9228	944.05	59.1
990.1569	2636.1914	945.3	56.6
990.2812	2637.4593	949.75	57.25
990.4055	2638.7265	945.5	58.55
990.5298	2639.9931	939.05	53
990.654	2641.259	943.65	56.2
990.7782	2642.5242	941.8	54.25
990.9023	2643.7887	943.2	56.8
991.0264	2645.0525	941.4	54.95
991.1505	2646.3156	943.85	54.2
991.2745	2647.5781	940.8	53.5
991.3985	2648.8398	940.1	53.7
991.5225	2650.1009	980	54.15
991.6464	2651.3613	939.3	53.35
991.7703	2652.6211	944.75	58.35
991.8942	2653.8801	938	53.55
992.018	2655.1385	938.1	47.5
992.1418	2656.3961	936.6	49.85
992.2655	2657.6531	940.25	52.75
992.3892	2658.9094	941.1	54.05
992.5129	2660.1651	940.05	53.7
992.6366	2661.42	940.9	53.85
992.7602	2662.6743	939.65	51.3
992.8837	2663.9279	940.1	53.5
993.0073	2665.1808	937.7	50.65
993.1307	2666.433	940.55	51.75
993.2542	2667.6846	939.6	52.8
993.3776	2668.9354	940.1	49.9
993.501	2670.1856	940.2	53.9
993.6244	2671.4351	939.35	52.3
993.7477	2672.6839	940.85	53.2
993.8709	2673.9321	940.15	53.4
993.9942	2675.1795	942	53.05
994.1174	2676.4263	940.5	54.8
994.2405	2677.6724	940.35	54.45
994.3637	2678.9179	941.95	54.7
994.4868	2680.1626	940.25	54.35
994.6098	2681.4067	938.7	51.5
994.7328	2682.6501	942.95	58.05
994.8558	2683.8928	939.05	52.95
994.9788	2685.1348	938.95	50.8
995.1017	2686.3761	941.3	54.6
995.2245	2687.6168	936.8	48.5
995.3474	2688.8568	938.6	50.95
995.4702	2690.0961	938.7	51.2
995.5929	2691.3348	935.7	49.1
995.7156	2692.5727	936.75	49.7
995.8383	2693.81	936.4	48.45
995.961	2695.0466	933.2	47.75
996.0836	2696.2826	935.3	46.9
996.2062	2697.5178	936.7	45.25
996.3287	2698.7524	931.75	46.3
996.4512	2699.9863	934.4	44.35
996.5737	2701.2195	933.5	46.35
996.6961	2702.452	937.75	48.9
996.8185	2703.6839	936.3	48.7
996.9408	2704.9151	936.45	51.75
997.0631	2706.1456	936.6	49
997.1854	2707.3755	939.7	53.7
997.3077	2708.6046	942.9	53.6
997.4299	2709.8331	938.95	49.5
997.552	2711.0609	938.8	52.95
997.6742	2712.2881	937.3	48.7
997.7963	2713.5145	938.2	48.1
997.9183	2714.7403	935.5	50.2
998.0403	2715.9654	940.9	51.35
998.1623	2717.1899	955.2	54.25
998.2842	2718.4136	942.45	55.3
998.4062	2719.6367	942.5	56.35
998.528	2720.8591	947.95	53.75
998.6498	2722.0809	942.85	55.55
998.7716	2723.3019	944.9	54.8
998.8934	2724.5223	945.2	57.25
999.0151	2725.7421	945.25	56.7
999.1368	2726.9611	945.85	57.15
999.2584	2728.1795	946.75	53.35
999.38	2729.3972	940.05	53.2
999.5016	2730.6142	957.7	59.9
999.6231	2731.8306	943.4	54.3
999.7446	2733.0462	940.15	50.9
999.8661	2734.2612	940.9	47.15
999.9875	2735.4756	941.05	52.9
1000.1089	2736.6892	936.7	48
1000.2302	2737.9022	931.45	45.65
1000.3515	2739.1145	934.15	47.45
1000.4728	2740.3262	942.7	47.4
1000.594	2741.5372	934	47.25
1000.7152	2742.7475	935.7	47.2
1000.8363	2743.9571	935.45	46.55
1000.9575	2745.1661	935.15	45.1
1001.0785	2746.3744	932.8	45.25
1001.1996	2747.582	930.95	45.25
1001.3206	2748.7889	931.75	41.9
1001.4415	2749.9952	928.85	43.15
1001.5625	2751.2008	930.3	44
1001.6833	2752.4057	933.9	42.75
1001.8042	2753.61	928.35	39.35
1001.925	2754.8136	932.1	42.8
1002.0458	2756.0165	928.9	42.75
1002.1665	2757.2188	928.1	42.25
1002.2872	2758.4204	927.65	40.95
1002.4078	2759.6213	933.7	44.9
1002.5285	2760.8215	934.45	42.35
1002.649	2762.0211	928.4	41.2
1002.7696	2763.22	935.05	45.3
1002.8901	2764.4182	929.55	40.4
1003.0106	2765.6158	929.55	43.6
1003.131	2766.8127	927.95	42.8
1003.2514	2768.009	925.6	38.1
1003.3717	2769.2045	926.35	39.1
1003.492	2770.3994	927.95	39.1
1003.6123	2771.5936	925.25	34.9
1003.7325	2772.7872	925.45	40.9
1003.8527	2773.9801	929.6	40
1003.9729	2775.1723	939.65	36.25
1004.093	2776.3639	925.5	39.2
1004.2131	2777.5548	928.1	40
1004.3331	2778.745	926.55	39.8
1004.4531	2779.9346	926	39.4
1004.5731	2781.1235	926.55	37.3
1004.693	2782.3117	924.15	38.35
1004.8129	2783.4992	925.5	39.05
1004.9328	2784.6861	923.4	37.35
1005.0526	2785.8723	928	40.9
1005.1723	2787.0579	926.8	40.25
1005.2921	2788.2428	925.15	36.9
1005.4118	2789.427	924.7	38.3
1005.5314	2790.6106	926.85	38.95
1005.651	2791.7935	923	34.15
1005.7706	2792.9757	922.95	36.2
1005.8902	2794.1573	926.6	37.25
1006.0097	2795.3382	926.7	39.3
1006.1291	2796.5184	926.55	41.35
1006.2485	2797.698	927.7	41
1006.3679	2798.8769	928	40.05
1006.4873	2800.0551	926.8	39.1
1006.6066	2801.2327	929.55	40.5
1006.7258	2802.4096	926.75	40.1
1006.8451	2803.5859	927.15	39.75
1006.9642	2804.7615	931.25	44.45
1007.0834	2805.9364	929	42.15
1007.2025	2807.1106	928.05	40.9
1007.3216	2808.2842	930	42.3
1007.4406	2809.4572	930.5	44.05
1007.5596	2810.6294	932.1	42.35
1007.6785	2811.801	928.85	42.6
1007.7975	2812.972	933.55	47.8
1007.9163	2814.1423	934.5	47.3
1008.0352	2815.3119	936.35	48.1
1008.154	2816.4808	933.7	47
1008.2727	2817.6491	942.1	55.15
1008.3914	2818.8167	943.5	57.7
1008.5101	2819.9837	951	59.1
1008.6288	2821.15	949.45	63.9
1008.7474	2822.3157	954.85	67.05
1008.8659	2823.4807	958	70.6
1008.9844	2824.645	967.75	80.75
1009.1029	2825.8086	970.1	82.75
1009.2214	2826.9716	978.45	91.15
1009.3398	2828.134	982.2	95.95
1009.4581	2829.2957	991.65	104.1
1009.5764	2830.4567	996.3	109.65
1009.6947	2831.617	998.9	111.7
1009.813	2832.7767	1002.6	116.55
1009.9312	2833.9358	1000.55	114.1
1010.0493	2835.0941	1002.8	113.75
1010.1675	2836.2519	1000.8	113.4
1010.2855	2837.4089	996.55	110.25
1010.4036	2838.5653	992.5	106.65
1010.5216	2839.7211	988.95	102.6
1010.6396	2840.8761	991	103.95
1010.7575	2842.0306	985.5	97.4
1010.8754	2843.1843	984.75	99.95
1010.9932	2844.3374	983.85	98.25
1011.111	2845.4899	989.85	101.1
1011.2288	2846.6417	993.45	107.8
1011.3465	2847.7928	990.55	103.95
1011.4642	2848.9433	995.6	108.4
1011.5818	2850.0931	995.2	109.95
1011.6995	2851.2422	995.3	104.8
1011.817	2852.3907	994.7	107.05
1011.9345	2853.5385	997.1	108.9
1012.052	2854.6857	1021.1	108.1
1012.1695	2855.8323	995.8	110.65
1012.2869	2856.9781	998.05	112.15
1012.4042	2858.1233	1001.2	113.1
1012.5216	2859.2679	1001.5	115.5
1012.6389	2860.4118	1010	123.05
1012.7561	2861.555	1013.15	121.6
1012.8733	2862.6976	1013.55	122.8
1012.9905	2863.8395	1011.65	126.8
1013.1076	2864.9808	1011.9	124.8
1013.2247	2866.1214	1015.55	130.85
1013.3417	2867.2614	1019.8	132.4
1013.4587	2868.4007	1018.05	131.9
1013.5757	2869.5393	1024.7	132.9
1013.6926	2870.6773	1027	137.7
1013.8095	2871.8146	1030.95	139.5
1013.9263	2872.9513	1028.5	138.35
1014.0431	2874.0874	1031.25	144.85
1014.1599	2875.2227	1033.25	145.8
1014.2766	2876.3574	1032.7	148.3
1014.3933	2877.4915	1029.5	143.1
1014.51	2878.6249	1034.25	148.95
1014.6266	2879.7577	1040.25	153
1014.7431	2880.8898	1049.85	151.9
1014.8596	2882.0212	1042.8	157.15
1014.9761	2883.152	1042.3	153.75
1015.0925	2884.2821	1046.85	161.15
1015.2089	2885.4116	1044.1	156.25
1015.3253	2886.5405	1052	165.45
1015.4416	2887.6686	1053.9	165.15
1015.5579	2888.7962	1051.85	164.3
1015.6741	2889.923	1049.5	164.35
1015.7903	2891.0493	1048.95	163.2
1015.9065	2892.1748	1053.9	165.5
1016.0226	2893.2997	1051.95	163.3
1016.1387	2894.424	1049.75	163.85
1016.2547	2895.5476	1052.05	164.4
1016.3707	2896.6706	1052.45	164.9
1016.4866	2897.7929	1048.25	160.9
1016.6025	2898.9145	1046.05	158.4
1016.7184	2900.0355	1046.6	159.1
1016.8342	2901.1559	1048.9	161.8
1016.95	2902.2756	1044.65	158.3
1017.0658	2903.3946	1049.2	160.75
1017.1815	2904.513	1048.95	158.5
1017.2971	2905.6308	1043.5	156.2
1017.4127	2906.7479	1045.7	157.5
1017.5283	2907.8643	1043.05	156.6
1017.6439	2908.9801	1040.65	152.85
1017.7594	2910.0953	1042.35	155.95
1017.8748	2911.2098	1045.9	155.25
1017.9902	2912.3236	1051.3	155.7
1018.1056	2913.4368	1041.95	150.95
1018.2209	2914.5494	1040.6	153.1
1018.3362	2915.6613	1046.8	154.1
1018.4515	2916.7725	1040.25	150.1
1018.5667	2917.8831	1034.85	146.95
1018.6819	2918.9931	1037.05	148.2
1018.797	2920.1024	1033.75	146.3
1018.9121	2921.211	1031.15	143.45
1019.0271	2922.319	1027.1	139.45
1019.1421	2923.4264	1026.25	141.05
1019.2571	2924.5331	1022.15	137.3
1019.372	2925.6391	1025.05	137.75
1019.4869	2926.7445	1026	140
1019.6017	2927.8493	1024.25	136.95
1019.7165	2928.9534	1030.45	143.2
1019.8313	2930.0569	1032.4	141.6
1019.946	2931.1597	1031.05	140.95
1020.0606	2932.2619	1028.15	141.05
1020.1753	2933.3634	1028.45	142.35
1020.2899	2934.4643	1040.65	148.4
1020.4044	2935.5645	1040.6	148
1020.5189	2936.6641	1036.55	142.75
1020.6334	2937.763	1032.95	147.85
1020.7478	2938.8613	1030.1	144.45
1020.8622	2939.959	1040.1	148.55
1020.9765	2941.056	1026.95	139.5
1021.0908	2942.1523	1027.3	138.65
1021.2051	2943.248	1022.25	134.65
1021.3193	2944.3431	1013.3	124.9
1021.4334	2945.4375	1010.5	123.5
1021.5476	2946.5313	1006.15	120.5
1021.6617	2947.6244	994.35	106.8
1021.7757	2948.7169	991.15	103.65
1021.8897	2949.8087	984.2	98.3
1022.0037	2950.8999	977.85	90.55
1022.1176	2951.9904	974.9	88.35
1022.2315	2953.0803	970.95	85.3
1022.3453	2954.1696	969.25	81.05
1022.4591	2955.2582	966.25	79.65
1022.5728	2956.3462	961.2	74.15
1022.6865	2957.4335	963.4	74.95
1022.8002	2958.5202	965.6	77
1022.9138	2959.6062	963.15	74.6
1023.0274	2960.6916	958.65	74
1023.141	2961.7764	961.9	74.65
1023.2545	2962.8605	960.7	73.25
1023.3679	2963.9439	956.35	71.25
1023.4813	2965.0267	962.5	74.7
1023.5947	2966.1089	983.7	74.2
1023.708	2967.1905	954.95	68.25
1023.8213	2968.2714	955.65	69.05
1023.9346	2969.3516	955.45	69.95
1024.0478	2970.4312	963.25	67.25
1024.1609	2971.5102	958	70.95
1024.274	2972.5885	954.8	69.25
1024.3871	2973.6662	959.45	67.35
1024.5002	2974.7432	956.65	68.65
1024.6132	2975.8196	956.45	68.85
1024.7261	2976.8954	954.25	68
1024.839	2977.9705	956.6	70.85
1024.9519	2979.045	958.9	74.5
1025.0647	2980.1188	954.4	66.65
1025.1775	2981.192	958.2	72.25
1025.2902	2982.2645	955.3	68.75
1025.4029	2983.3364	954.75	68.35
1025.5156	2984.4077	952.85	66.4
1025.6282	2985.4783	957.1	62.65
1025.7407	2986.5483	946.8	59.9
1025.8532	2987.6177	946.3	59.75
1025.9657	2988.6864	945.8	58.05
1026.0782	2989.7545	944.35	55.75
1026.1906	2990.8219	939.9	53.9
1026.3029	2991.8887	941.45	52.9
1026.4152	2992.9548	937.85	49.55
1026.5275	2994.0204	936.15	51.25
1026.6397	2995.0852	934.1	47.6
1026.7519	2996.1495	930.8	42.15
1026.864	2997.2131	931.35	42.45
1026.9761	2998.276	927.8	41.8
1027.0882	2999.3383	924.6	37.8
1027.2002	3000.4	923.1	35.3
1027.3122	3001.4611	922.85	35.9
1027.4241	3002.5215	919.95	32.85
1027.536	3003.5812	919.45	32.3
1027.6478	3004.6404	918.65	30.55
1027.7596	3005.6989	918.25	29.55
1027.8714	3006.7567	915.6	29.15
1027.9831	3007.8139	945.05	29.1
1028.0947	3008.8705	915.9	29.4
1028.2064	3009.9264	934.2	32.2
1028.3179	3010.9818	914.35	24.9
1028.4295	3012.0364	914.9	25.65
1028.541	3013.0905	913.55	26.1
1028.6524	3014.1439	911.8	24.7
1028.7638	3015.1966	910.5	24.6
1028.8752	3016.2487	912.1	24.15
1028.9865	3017.3002	916.65	26.3
1029.0978	3018.3511	912.35	26.45
1029.209	3019.4013	912.15	26.25
1029.3202	3020.4509	912.3	26.6
1029.4314	3021.4998	911.75	23.95
1029.5425	3022.5481	911.15	26
1029.6535	3023.5958	911.6	22.6
1029.7645	3024.6428	912.6	22.8
1029.8755	3025.6892	910.35	23.85
1029.9864	3026.735	911.95	25.95
1030.0973	3027.7802	910.15	22.45
1030.2082	3028.8247	910.3	23.7
1030.319	3029.8685	911.9	24.55
1030.4297	3030.9118	911.3	22.95
1030.5404	3031.9544	911.15	26.4
1030.6511	3032.9963	912	25
1030.7617	3034.0376	910.4	24.65
1030.8723	3035.0783	913.2	21.75
1030.9829	3036.1184	913.05	26.5
1031.0934	3037.1578	909.75	22.25
1031.2038	3038.1966	912.25	25.05
1031.3142	3039.2348	907.25	23.5
1031.4246	3040.2723	919.2	22.75
1031.5349	3041.3092	911	25.1
1031.6452	3042.3455	909.7	22.15
1031.7554	3043.3811	910.9	24.75
1031.8656	3044.4161	910.15	22.4
1031.9758	3045.4505	908.95	24.9
1032.0859	3046.4842	911.85	23.75
1032.1959	3047.5173	910	23.15
1032.3059	3048.5498	910.75	21.85
1032.4159	3049.5816	909.95	23.4
1032.5258	3050.6128	912.25	24.45
1032.6357	3051.6434	909.95	20
1032.7455	3052.6734	910.65	22.75
1032.8553	3053.7027	909.5	21.35
1032.9651	3054.7314	909.8	22.4
1033.0748	3055.7594	909.9	25.2
1033.1845	3056.7868	912.45	25.75
1033.2941	3057.8136	910.1	24.6
1033.4037	3058.8398	908.45	22.45
1033.5132	3059.8653	912.95	24.6
1033.6227	3060.8902	911.1	23.75
1033.7321	3061.9145	912.7	26.5
1033.8415	3062.9381	911.05	23.2
1033.9509	3063.9612	925.35	24.65
1034.0602	3064.9835	912.5	27.05
1034.1694	3066.0053	914.05	25.7
1034.2787	3067.0264	912.1	26.1
1034.3878	3068.0469	913.6	24.9
1034.497	3069.0668	914.8	24.35
1034.6061	3070.086	912.65	25.8
1034.7151	3071.1046	913.95	23.9
1034.8241	3072.1226	912.25	24.4
1034.9331	3073.1399	911.6	25.4
1035.042	3074.1567	911	24.45
1035.1508	3075.1727	913.4	24.4
1035.2597	3076.1882	906.2	20
1035.3684	3077.203	909.65	22.2
1035.4772	3078.2173	911.45	24.5
1035.5859	3079.2308	911.15	21.4
1035.6945	3080.2438	910.35	21.3
1035.8031	3081.2561	907	19.8
1035.9117	3082.2678	905.65	19.95
1036.0202	3083.2789	908.55	21.4
1036.1286	3084.2893	907.75	22.3
1036.2371	3085.2991	907.85	21.45
1036.3454	3086.3083	909.3	16.2
1036.4538	3087.3169	907.9	19.75
1036.562	3088.3248	908.3	18.65
1036.6703	3089.3321	905.5	16.2
1036.7785	3090.3388	903.2	17.8
1036.8866	3091.3449	903.6	17.85
1036.9948	3092.3503	907.35	18.55
1037.1028	3093.3551	903.2	18.65
1037.2108	3094.3593	903.25	17.85
1037.3188	3095.3629	904.2	17.3
1037.4267	3096.3658	905.7	18
1037.5346	3097.3681	902.4	15.55
1037.6425	3098.3698	905.1	17.3
1037.7503	3099.3708	902.95	15.55
1037.858	3100.3713	903.5	18.9
1037.9657	3101.3711	903.45	15.45
1038.0734	3102.3702	1039.35	11.1
1038.181	3103.3688	903.75	13.65
1038.2886	3104.3667	899.65	14.4
1038.3961	3105.364	901.1	14.8
1038.5036	3106.3607	902.05	14.55
1038.611	3107.3568	903.4	14.9
1038.7184	3108.3522	901.3	14.1
1038.8257	3109.347	902.2	13.4
1038.933	3110.3412	906.1	16.15
1039.0403	3111.3348	901.5	15.9
1039.1475	3112.3277	902.05	16.05
1039.2547	3113.32	900.9	14.75
1039.3618	3114.3117	900.85	13.65
1039.4689	3115.3028	899.8	15.3
1039.5759	3116.2932	902.45	12.05
1039.6829	3117.2831	906.95	14.7
1039.7898	3118.2723	901.05	14.15
1039.8967	3119.2608	899.45	11.65
1040.0035	3120.2488	898.9	11.9
1040.1103	3121.2361	899.45	12.55
1040.2171	3122.2229	900.05	14.5
1040.3238	3123.209	900.3	11.9
1040.4305	3124.1944	897.8	9.6
1040.5371	3125.1793	901.05	12.8
1040.6437	3126.1635	898.75	13.5
1040.7502	3127.1471	899.2	13.1
1040.8567	3128.1301	899.45	13.05
1040.9631	3129.1125	900.9	15.6
1041.0695	3130.0942	897.75	10.45
1041.1759	3131.0753	905.6	8.6
1041.2822	3132.0558	901.05	13.05
1041.3884	3133.0357	897.05	8.55
1041.4946	3134.015	900.05	11.8
1041.6008	3134.9936	898.45	9.85
1041.7069	3135.9716	916.5	6.9
1041.813	3136.949	897.35	10.4
1041.919	3137.9258	916.8	13.6
1042.025	3138.902	904.65	11.6
1042.1309	3139.8775	896.4	9.6
1042.2368	3140.8524	897	10
1042.3427	3141.8267	898.35	9.65
1042.4485	3142.8004	896.7	8.35
1042.5542	3143.7735	901.65	8.1
1042.6599	3144.7459	898.6	10.2
1042.7656	3145.7178	894.6	5.45
1042.8712	3146.689	896.7	10
1042.9768	3147.6596	899.3	10.2
1043.0823	3148.6295	897.65	10
1043.1878	3149.5989	898.25	11.75
1043.2932	3150.5676	895.6	10.8
1043.3986	3151.5357	894.85	10.5
1043.5039	3152.5032	897.65	12.7
1043.6092	3153.4701	897.55	10
1043.7145	3154.4364	900.05	10.75
1043.8197	3155.402	895.9	9.8
1043.9248	3156.367	899.1	11.05
1044.03	3157.3315	935.45	10.45
1044.135	3158.2952	897.35	7.65
1044.24	3159.2584	895.7	7.8
1044.345	3160.221	896.5	10.1
1044.4499	3161.1829	895.55	10.3
1044.5548	3162.1442	896.15	8.9
1044.6596	3163.105	897.15	10.6
1044.7644	3164.065	894.55	6.95
1044.8692	3165.0245	898.9	11.15
1044.9739	3165.9834	894.35	8.2
1045.0785	3166.9416	895	7.45
1045.1831	3167.8993	895.6	8.55
1045.2877	3168.8563	896.15	6.15
1045.3922	3169.8127	894.2	7.75
1045.4966	3170.7684	896.1	9.7
1045.6011	3171.7236	897.5	9.25
1045.7054	3172.6782	896.75	9.05
1045.8098	3173.6321	897.95	9.7
1045.914	3174.5854	899.55	6.5
1046.0183	3175.5381	895.1	7.2
1046.1224	3176.4902	895.5	9.05
1046.2266	3177.4417	894	7.65
1046.3307	3178.3926	894.85	8.35
1046.4347	3179.3428	895.55	9.15
1046.5387	3180.2924	894.95	9
1046.6427	3181.2415	896.15	8.1
1046.7466	3182.1899	896.6	8.5
1046.8504	3183.1377	894.75	7.95
1046.9542	3184.0848	900.85	10.5
1047.058	3185.0314	894.45	8.2
1047.1617	3185.9773	895.15	10.1
1047.2654	3186.9227	896.45	9.45
1047.369	3187.8674	896.35	9.45
1047.4726	3188.8115	900.5	10.05
1047.5761	3189.755	894.7	10.1
1047.6796	3190.6979	893.65	7.6
1047.783	3191.6402	894.6	8.2
1047.8864	3192.5818	894.5	6.5
1047.9898	3193.5229	900.4	8.35
1048.0931	3194.4633	896.35	8.35
1048.1963	3195.4031	894.4	6.1
1048.2995	3196.3423	894.7	8.35
1048.4027	3197.2809	895.25	6.4
1048.5058	3198.2189	895.85	8.25
1048.6089	3199.1563	900.3	7.85
1048.7119	3200.0931	893.8	8.4
1048.8148	3201.0292	891.95	6.85
1048.9178	3201.9648	892.9	6.25
1049.0206	3202.8997	894.35	5
1049.1235	3203.834	894.85	8.6
1049.2262	3204.7677	892.5	5.7
1049.329	3205.7008	897.75	9.05
1049.4317	3206.6333	892.6	7.2
1049.5343	3207.5652	895.1	5.75
1049.6369	3208.4964	894.25	7.95
1049.7394	3209.4271	892.1	6.45
1049.8419	3210.3571	894.45	9.5
1049.9444	3211.2865	894.25	7.3
1050.0468	3212.2154	896.35	8.25
1050.1491	3213.1436	895.7	5.95
1050.2514	3214.0712	900.45	7.05
1050.3537	3214.9982	893.15	4.95
1050.4559	3215.9246	895.15	6.6
1050.5581	3216.8503	893.05	6.7
1050.6602	3217.7755	894.35	6.85
1050.7623	3218.7001	893.7	5.65
1050.8643	3219.624	893.45	5.8
1050.9663	3220.5473	893.85	6.4
1051.0682	3221.4701	896.05	7.65
1051.1701	3222.3922	893.85	6.05
1051.2719	3223.3137	891.7	4.65
1051.3737	3224.2346	892	4.45
1051.4754	3225.1549	892.8	6.5
1051.5771	3226.0746	891.95	4.65
1051.6788	3226.9937	894.85	6.85
1051.7804	3227.9121	892.9	7.15
1051.8819	3228.83	893.15	6.85
1051.9834	3229.7473	893.65	7.3
1052.0849	3230.6639	893.25	5.95
1052.1863	3231.5799	890.3	4.25
1052.2876	3232.4954	893.3	4.5
1052.3889	3233.4102	892.95	7.35
1052.4902	3234.3244	892.25	3.7
1052.5914	3235.238	893	7.1
1052.6926	3236.151	913.6	2.75
1052.7937	3237.0634	891.8	5.7
1052.8948	3237.9752	893.65	8
1052.9958	3238.8864	892.85	6.25
1053.0968	3239.797	891	3.25
1053.1977	3240.7069	893.65	7.15
1053.2986	3241.6163	893.85	6.6
1053.3994	3242.5251	892.1	4.9
1053.5002	3243.4332	892.05	5.35
1053.6009	3244.3408	893.2	7.95
1053.7016	3245.2477	893.45	7.1
1053.8022	3246.154	893.25	4
1053.9028	3247.0598	895.8	8.7
1054.0034	3247.9649	893.3	7.3
1054.1039	3248.8694	892.65	5.85
1054.2043	3249.7733	892.55	6.2
1054.3047	3250.6766	891.1	4.6
1054.4051	3251.5793	892.45	4
1054.5054	3252.4814	893.2	7.35
1054.6056	3253.3829	891.95	6.85
1054.7058	3254.2838	891.05	3.3
1054.806	3255.1841	889.7	3.85
1054.9061	3256.0838	892.2	5.5
1055.0061	3256.9829	891.35	5.3
1055.1062	3257.8814	894.5	4.65
1055.2061	3258.7792	893.65	4.55
1055.306	3259.6765	892.15	3.45
1055.4059	3260.5731	891.6	4.4
1055.5057	3261.4692	891.4	4.95
1055.6055	3262.3647	890.15	2
1055.7052	3263.2595	891.2	4.4
1055.8049	3264.1538	891.05	3.65
1055.9045	3265.0474	892.3	4.5
1056.0041	3265.9404	890.75	4.65
1056.1036	3266.8329	890.7	3.35
1056.2031	3267.7247	902.65	6.4
1056.3025	3268.616	890.35	4.1
1056.4019	3269.5066	891.6	3.6
1056.5013	3270.3966	895.15	7.5
1056.6005	3271.286	890.45	5.9
