Software Version:	3.9.2.0
Unit SN:	10000200
Spectrometer SN:	6960
Date:	3/14/2024 12:54:13 PM
Data Line Index:	25
Spectral Points:	2048
Integration time (ms):	125
Averages:	20
Delay (ms):	30000
Sequence Number:	1
Processing:	dark subtract
Laser Power (mW):	300
Laser Current (mA):	823
Laser Diode Temp (C):	25
Laser Case Temp (C):	27.8
System Temp (C):	27.8
Spectrometer Temp (C):	25.5
CCD Temp (C):	0.005
Secondary Temp (C):	20.006
Heatsink Temp (C):	23.623
CCDPCB Temp (C):	37.53
SecondaryPCB Temp (C):	34.773

Wavelength	RamanShift	Raw Counts	Dark Subtracted
787.061	30.1047	418.75	8.45
787.2016	32.3739	416.45	7.15
787.3422	34.6426	419.65	6.7
787.4828	36.9109	419.3	4.65
787.6235	39.1787	424.45	4.65
787.7642	41.4461	430.15	7.3
787.9049	43.7131	436.05	11.05
788.0456	45.9796	438.2	8.55
788.1863	48.2456	444.3	10.6
788.3271	50.5112	450.15	13.45
788.4679	52.7764	449.95	10.9
788.6087	55.0411	451.65	8.3
788.7496	57.3054	458.95	13.15
788.8904	59.5692	462.6	12.9
789.0313	61.8326	467.05	13.75
789.1722	64.0955	475.3	18.45
789.3132	66.3579	482.35	16.5
789.4541	68.6199	486.35	20.25
789.5951	70.8815	492.5	23.95
789.7361	73.1426	510.85	40.25
789.8771	75.4032	543.45	66.75
790.0181	77.6634	602.6	121.8
790.1592	79.9231	749.65	263.7
790.3003	82.1824	1053.55	562.25
790.4414	84.4412	1581.65	1083.65
790.5825	86.6995	2265.35	1750.75
790.7237	88.9574	2952.5	2428.95
790.8648	91.2148	3431.55	2901.3
791.006	93.4717	3672.45	3136.6
791.1472	95.7282	3730.1	3191.1
791.2885	97.9842	3739.4	3193.55
791.4297	100.2398	3723.6	3177.25
791.571	102.4949	3708.8	3158.8
791.7123	104.7495	3677.85	3121.85
791.8536	107.0036	3640.9	3085.9
791.9949	109.2573	3620.05	3068.45
792.1363	111.5105	3546.25	2989.55
792.2777	113.7632	3487.05	2932.95
792.4191	116.0154	3441.45	2873.5
792.5605	118.2672	3381.2	2820.7
792.7019	120.5185	3327.8	2765.65
792.8434	122.7693	3265.6	2701.65
792.9849	125.0197	3214.55	2646.2
793.1264	127.2696	3143.8	2575.25
793.2679	129.519	3127.35	2555.1
793.4094	131.7679	3113.15	2538.9
793.551	134.0163	3110.75	2529.85
793.6926	136.2642	3111.1	2527.45
793.8342	138.5117	3109.2	2524.05
793.9758	140.7587	3093.6	2505.85
794.1175	143.0052	3060.55	2473.25
794.2591	145.2512	3028.9	2438.75
794.4008	147.4967	2992.25	2401.4
794.5425	149.7417	2959	2362.9
794.6842	151.9863	2946.65	2352.2
794.826	154.2304	2949.2	2349.05
794.9677	156.4739	2934.6	2326.85
795.1095	158.717	2934.45	2329.7
795.2513	160.9596	2965.1	2352.85
795.3931	163.2017	2962.95	2353.25
795.535	165.4433	2966.65	2352.6
795.6768	167.6844	2955.2	2340.5
795.8187	169.925	2922.65	2302.1
795.9606	172.1651	2904.6	2280.6
796.1025	174.4047	2877.2	2251.6
796.2445	176.6439	2856	2229.25
796.3864	178.8825	2827.65	2196.95
796.5284	181.1206	2819.9	2185.1
796.6704	183.3582	2818.7	2179.85
796.8124	185.5954	2822.75	2180.95
796.9544	187.832	2819.8	2173.9
797.0965	190.0681	2806.2	2161.1
797.2386	192.3037	2808.15	2159.55
797.3806	194.5388	2812.7	2161.8
797.5228	196.7734	2815.95	2164
797.6649	199.0075	2837.65	2179.7
797.807	201.2411	2841.4	2181.4
797.9492	203.4742	2838.3	2176.9
798.0914	205.7068	2854.45	2189.8
798.2336	207.9389	2866.55	2204.05
798.3758	210.1704	2881.1	2218.3
798.518	212.4015	2887.7	2220.1
798.6603	214.632	2884.25	2216.5
798.8025	216.862	2878.85	2214.9
798.9448	219.0915	2873.1	2213.6
799.0871	221.3205	2881.6	2229.4
799.2294	223.549	2863.4	2217.15
799.3718	225.777	2868.95	2223.55
799.5141	228.0044	2866.75	2214.75
799.6565	230.2314	2852.1	2203.3
799.7989	232.4578	2828	2179.9
799.9413	234.6837	2825	2169.15
800.0837	236.909	2827.95	2172.65
800.2262	239.1339	2828.5	2147.8
800.3687	241.3582	2816.85	2151.55
800.5111	243.582	2827.2	2136.15
800.6536	245.8053	2835.45	2148.65
800.7961	248.0281	2825.55	2142.75
800.9387	250.2503	2828.25	2142.7
801.0812	252.472	2840.2	2150.4
801.2238	254.6932	2846.55	2154.9
801.3664	256.9139	2833.7	2138.9
801.509	259.134	2856.8	2159.05
801.6516	261.3536	2852.85	2154.9
801.7942	263.5727	2877.05	2178.8
801.9369	265.7912	2905.4	2205.75
802.0795	268.0092	2943.35	2245.3
802.2222	270.2267	2945.85	2245.05
802.3649	272.4436	2982.2	2282.1
802.5076	274.6601	2994.55	2285.7
802.6504	276.8759	3016.9	2312.6
802.7931	279.0913	3039.25	2331.55
802.9359	281.3061	3022.1	2314.45
803.0787	283.5204	3044.1	2330.65
803.2215	285.7341	3055.2	2342.55
803.3643	287.9473	3062.1	2343.4
803.5071	290.16	3061.35	2339.9
803.6499	292.3721	3032.3	2315.5
803.7928	294.5837	2993.6	2274.85
803.9357	296.7947	2984.6	2266.65
804.0786	299.0052	2966.7	2250.05
804.2215	301.2152	2959.8	2238.65
804.3644	303.4246	2940.7	2224.35
804.5074	305.6334	2918.2	2201.2
804.6503	307.8418	2908.8	2187.05
804.7933	310.0495	2905.25	2183.85
804.9363	312.2568	2862.65	2141.8
805.0793	314.4635	2831.25	2109.45
805.2223	316.6696	2799.7	2075.4
805.3653	318.8752	2770.35	2039.8
805.5084	321.0802	2746.95	2018.35
805.6514	323.2847	2741.7	2014.2
805.7945	325.4887	2738.05	2009.35
805.9376	327.692	2752.25	2022
806.0807	329.8949	2765.3	2036.2
806.2238	332.0972	2792.4	2061.15
806.367	334.2989	2816.8	2080.6
806.5101	336.5001	2801.65	2065.8
806.6533	338.7007	2787.55	2049.4
806.7965	340.9008	2758.8	2022.2
806.9397	343.1003	2705.5	1965.05
807.0829	345.2992	2687.55	1946.1
807.2261	347.4976	2654.1	1912.15
807.3693	349.6955	2640.2	1892.9
807.5126	351.8927	2635.1	1886.2
807.6559	354.0895	2612.7	1853.85
807.7991	356.2856	2606.25	1857.35
807.9424	358.4812	2590.25	1843.5
808.0857	360.6763	2588.6	1841.75
808.2291	362.8707	2578.85	1830.9
808.3724	365.0646	2581.2	1827.65
808.5158	367.258	2577.4	1822.85
808.6591	369.4508	2594.45	1836.75
808.8025	371.643	2603.85	1845.85
808.9459	373.8346	2620.25	1858.35
809.0893	376.0257	2634.25	1868.85
809.2327	378.2162	2657	1893.7
809.3762	380.4062	2648.65	1879.65
809.5196	382.5956	2628.95	1860.65
809.6631	384.7844	2611.8	1847.4
809.8066	386.9726	2579.55	1809.65
809.9501	389.1603	2544.25	1773.65
810.0936	391.3474	2566.2	1765.45
810.2371	393.5339	2545.3	1776.05
810.3806	395.7199	2544.25	1782.55
810.5241	397.9052	2540.4	1778.55
810.6677	400.09	2562.75	1800.75
810.8113	402.2743	2576.35	1813.9
810.9548	404.4579	2604.7	1844.6
811.0984	406.641	2623.05	1863.35
811.2421	408.8235	2676.65	1915.2
811.3857	411.0054	2688.9	1926.4
811.5293	413.1868	2765.2	1998.25
811.673	415.3675	2829.85	2063.75
811.8166	417.5477	2842.4	2072.45
811.9603	419.7273	2765.25	1992.7
812.104	421.9064	2683.9	1906.1
812.2477	424.0848	2626.1	1849.9
812.3914	426.2627	2583.45	1806.25
812.5351	428.4399	2546.45	1765.7
812.6788	430.6166	2511.8	1730.7
812.8226	432.7928	2468.65	1684.3
812.9663	434.9683	2437.2	1652.05
813.1101	437.1432	2425.85	1639.4
813.2539	439.3176	2410	1623.8
813.3977	441.4914	2387.4	1599.2
813.5415	443.6645	2386.5	1596.95
813.6853	445.8371	2402.5	1613.2
813.8291	448.0091	2383	1593.45
813.973	450.1806	2379.3	1590.2
814.1168	452.3514	2358.4	1565.05
814.2607	454.5216	2370.7	1570.6
814.4046	456.6913	2363.6	1570.7
814.5485	458.8603	2361.65	1568.85
814.6924	461.0288	2369.25	1576.9
814.8363	463.1967	2351.7	1557.2
814.9802	465.3639	2356.2	1559.75
815.1241	467.5306	2351.35	1555.2
815.2681	469.6967	2326.8	1531.35
815.412	471.8622	2339	1542.2
815.556	474.0271	2332.3	1537.9
815.7	476.1914	2319.4	1520.95
815.844	478.3551	2319.95	1522.15
815.988	480.5182	2318.2	1519.5
816.132	482.6807	2321	1521.7
816.276	484.8426	2328.45	1528.95
816.4201	487.0039	2352.65	1553.7
816.5641	489.1647	2384.25	1583
816.7082	491.3248	2390.8	1590.65
816.8522	493.4843	2419.25	1618.6
816.9963	495.6432	2419.75	1618.95
817.1404	497.8015	2387.7	1582.85
817.2845	499.9592	2362.5	1560.95
817.4286	502.1163	2326.65	1523
817.5727	504.2728	2298.25	1493.25
817.7168	506.4287	2291.2	1486.25
817.861	508.5839	2262.55	1458.4
818.0051	510.7386	2257.15	1453
818.1493	512.8927	2284.15	1469.7
818.2935	515.0461	2270.4	1463.55
818.4377	517.199	2267.65	1460.05
818.5818	519.3512	2294.5	1489
818.726	521.5029	2340.75	1524
818.8703	523.6539	2367.65	1559.35
819.0145	525.8043	2382.8	1570.85
819.1587	527.9541	2346.3	1534.7
819.303	530.1033	2296	1486.75
819.4472	532.2519	2280.15	1466.4
819.5915	534.3999	2250.85	1436.25
819.7357	536.5472	2233.8	1420.4
819.88	538.694	2239.35	1424.4
820.0243	540.8401	2244.25	1428.05
820.1686	542.9856	2263.8	1445.55
820.3129	545.1305	2266	1448.8
820.4572	547.2748	2275.75	1458.4
820.6016	549.4185	2283.25	1463.1
820.7459	551.5615	2282.05	1464.7
820.8902	553.704	2275.85	1456.7
821.0346	555.8458	2286.9	1469.2
821.1789	557.987	2297.8	1478.15
821.3233	560.1276	2325.05	1502
821.4677	562.2675	2361	1543.7
821.6121	564.4069	2404.65	1586.8
821.7565	566.5456	2410.15	1593.6
821.9009	568.6837	2400.1	1582.4
822.0453	570.8212	2348.05	1529.7
822.1897	572.958	2315.6	1496.3
822.3342	575.0942	2282.05	1464.7
822.4786	577.2299	2259.75	1439.6
822.6231	579.3648	2231.1	1408.85
822.7675	581.4992	2220.7	1401
822.912	583.6329	2225.35	1405.2
823.0565	585.766	2235.35	1416.7
823.201	587.8985	2248	1427.1
823.3454	590.0304	2285.85	1452.7
823.4899	592.1616	2296.5	1469.85
823.6345	594.2922	2284	1461.55
823.779	596.4222	2277.8	1454.25
823.9235	598.5515	2231.35	1404.9
824.068	600.6802	2194.55	1368.8
824.2126	602.8083	2168.2	1341.05
824.3571	604.9358	2154.9	1327.3
824.5017	607.0626	2148.25	1322.1
824.6462	609.1888	2157.1	1327.5
824.7908	611.3144	2169.7	1342.5
824.9354	613.4393	2180.7	1353.4
825.08	615.5636	2220.7	1391.8
825.2246	617.6873	2249.9	1421.3
825.3692	619.8103	2266.15	1437.3
825.5138	621.9327	2266.95	1435.95
825.6584	624.0544	2240.5	1413.1
825.803	626.1756	2200.15	1371.85
825.9477	628.2961	2166.3	1337.15
826.0923	630.4159	2157.5	1326.7
826.237	632.5351	2151.3	1321.5
826.3816	634.6537	2156.85	1325.2
826.5263	636.7716	2134.55	1299.1
826.6709	638.8889	2141.95	1308.55
826.8156	641.0056	2149.7	1315.65
826.9603	643.1216	2137.2	1301.7
827.105	645.237	2156.95	1320.25
827.2497	647.3518	2134.05	1300.1
827.3944	649.4659	2119.4	1285.05
827.5391	651.5793	2105	1270.45
827.6838	653.6922	2091.2	1255.6
827.8285	655.8043	2092.9	1257.6
827.9733	657.9159	2081.9	1245.85
828.118	660.0268	2071.75	1234.5
828.2627	662.137	2076.45	1240
828.4075	664.2466	2077.6	1237.2
828.5522	666.3556	2066.45	1228.75
828.697	668.4639	2065.45	1224.6
828.8418	670.5716	2058.2	1219
828.9865	672.6786	2057	1217.85
829.1313	674.785	2048.5	1208.45
829.2761	676.8907	2057.7	1217.9
829.4209	678.9958	2041.55	1203.45
829.5657	681.1002	2051.95	1210.25
829.7105	683.204	2047.05	1203.5
829.8553	685.3072	2040	1197.15
830.0001	687.4097	2032.55	1189.45
830.1449	689.5115	2043.1	1197
830.2898	691.6127	2037.3	1196
830.4346	693.7132	2037.5	1194.35
830.5794	695.8131	2032.8	1183.65
830.7243	697.9123	2040.9	1196.05
830.8691	700.0109	2038.3	1195.1
831.014	702.1089	2044.05	1199.2
831.1588	704.2061	2042.3	1200.55
831.3037	706.3028	2070.55	1222.7
831.4486	708.3987	2066.7	1221.45
831.5935	710.4941	2081.15	1235.35
831.7383	712.5887	2073.3	1228.45
831.8832	714.6827	2080.75	1234.2
832.0281	716.7761	2072.35	1227.1
832.173	718.8688	2073.2	1228.95
832.3179	720.9608	2069.1	1218.3
832.4628	723.0522	2088.5	1237.25
832.6077	725.1429	2099.45	1252.55
832.7527	727.233	2107.85	1260.45
832.8976	729.3224	2163.6	1314.3
833.0425	731.4112	2177.6	1328.15
833.1874	733.4993	2198.1	1345.65
833.3324	735.5867	2166.4	1315.45
833.4773	737.6735	2115.3	1263.55
833.6222	739.7596	2082.65	1233.8
833.7672	741.845	2084.3	1234
833.9122	743.9298	2072.3	1218.2
834.0571	746.014	2093.7	1244.65
834.2021	748.0974	2095.45	1240.4
834.347	750.1802	2097.15	1246.85
834.492	752.2624	2093.6	1244.25
834.637	754.3439	2077.1	1226.4
834.782	756.4247	2065.6	1206
834.9269	758.5048	2043.55	1189.8
835.0719	760.5843	2047.6	1196
835.2169	762.6631	2070.7	1216.1
835.3619	764.7413	2105.35	1252
835.5069	766.8188	2142.7	1287.55
835.6519	768.8956	2195.4	1341.6
835.7969	770.9718	2219.95	1368.25
835.9419	773.0473	2210.2	1358.05
836.0869	775.1221	2197.15	1345.15
836.232	777.1962	2182.65	1326.65
836.377	779.2697	2216.2	1360
836.522	781.3426	2283.7	1420.55
836.667	783.4147	2308.9	1452.05
836.8121	785.4862	2302.4	1449.6
836.9571	787.557	2241.8	1387.25
837.1021	789.6271	2167.85	1311.3
837.2472	791.6966	2092.75	1236.3
837.3922	793.7654	2032.8	1176.5
837.5373	795.8335	2000.55	1145.05
837.6823	797.901	1985.3	1127.8
837.8274	799.9678	1968.75	1111
837.9724	802.0339	1976.65	1123.45
838.1175	804.0993	1982.55	1116.7
838.2626	806.1641	1967.8	1110.9
838.4076	808.2282	1955.85	1100.95
838.5527	810.2916	1944.55	1083.4
838.6978	812.3544	1933	1077.85
838.8428	814.4164	1923.2	1069.45
838.9879	816.4778	1939.95	1082.05
839.133	818.5385	1941.9	1084
839.2781	820.5986	1943	1086.15
839.4232	822.658	1989.3	1131.8
839.5682	824.7166	2030.1	1172.05
839.7133	826.7747	2069.8	1211.3
839.8584	828.832	2124.3	1264.9
840.0035	830.8886	2151.05	1292.45
840.1486	832.9446	2175.35	1315.4
840.2937	834.9999	2148.3	1293.6
840.4388	837.0545	2105.9	1243.25
840.5839	839.1085	2052.7	1195.45
840.729	841.1618	2013.15	1149.2
840.8741	843.2143	1986.45	1126.6
841.0192	845.2662	1955.3	1095.25
841.1643	847.3175	1948.15	1090.5
841.3095	849.368	1936.2	1076.1
841.4546	851.4179	1943.95	1084.7
841.5997	853.467	1927.55	1067.75
841.7448	855.5155	1932.3	1073.7
841.8899	857.5633	1928.7	1068.45
842.0351	859.6105	1926.45	1066.45
842.1802	861.6569	1911.8	1051.6
842.3253	863.7027	1903.05	1043.25
842.4704	865.7478	1899.1	1039.15
842.6156	867.7922	1889.15	1026.1
842.7607	869.8359	1892.15	1031.05
842.9058	871.8789	1878.8	1015.75
843.0509	873.9212	1922.8	1026.9
843.1961	875.9629	1887.35	1025
843.3412	878.0039	1898.05	1033.55
843.4863	880.0441	1907.6	1044.7
843.6315	882.0837	1912.85	1049.55
843.7766	884.1226	1931.85	1068.65
843.9218	886.1609	1941.4	1080.25
844.0669	888.1984	1964.45	1103.1
844.212	890.2352	1985.75	1123.5
844.3572	892.2714	2002	1136
844.5023	894.3069	1993.2	1128.05
844.6475	896.3416	1957.55	1093.4
844.7926	898.3757	1924.25	1060.6
844.9377	900.4091	1904.1	1038.95
845.0829	902.4418	1919.75	1051.6
845.228	904.4739	1925.25	1060.15
845.3732	906.5052	1924.75	1059.4
845.5183	908.5358	1919.9	1055.15
845.6635	910.5658	1912.3	1047.35
845.8086	912.595	1879.45	1013.05
845.9538	914.6236	1869.55	1005.1
846.0989	916.6515	1847.5	984.95
846.2441	918.6786	1833.4	968.25
846.3892	920.7051	1827.4	960.6
846.5344	922.7309	1820.75	956
846.6795	924.756	1819.2	953.4
846.8246	926.7804	1833.3	966.2
846.9698	928.8041	1831.7	963.25
847.1149	930.8272	1843.4	978.15
847.2601	932.8495	1846.95	978.35
847.4052	934.8711	1841.6	973.15
847.5504	936.892	1850.6	981.65
847.6955	938.9123	1853.25	985.3
847.8407	940.9318	1866.7	998.8
847.9858	942.9506	1872.6	1004.8
848.131	944.9688	1876.4	1008.75
848.2761	946.9862	1857.05	990.4
848.4213	949.003	1832.1	963.55
848.5664	951.019	1812.95	944.95
848.7115	953.0344	1802.1	933.5
848.8567	955.0491	1798.4	928.45
849.0018	957.063	1797.65	929.05
849.147	959.0763	1792.3	924.55
849.2921	961.0888	1784.6	911.95
849.4373	963.1007	1790.65	923.2
849.5824	965.1119	1776.55	909.35
849.7275	967.1223	1773.05	904.85
849.8727	969.1321	1770.5	902.9
850.0178	971.1412	1764.65	897.2
850.1629	973.1495	1764.4	897.25
850.3081	975.1572	1791.4	880.3
850.4532	977.1641	1766.65	897.45
850.5983	979.1704	1752.25	882.75
850.7435	981.1759	1753.2	881.8
850.8886	983.1808	1756.85	885.2
851.0337	985.1849	1747.65	867.85
851.1788	987.1884	1749.35	876.6
851.324	989.1911	1751.45	881.2
851.4691	991.1932	1745.2	872.5
851.6142	993.1945	1746.15	877.65
851.7593	995.1951	1739.1	868.8
851.9045	997.1951	1744.5	867.25
852.0496	999.1943	1736.15	869.55
852.1947	1001.1928	1734.3	862.1
852.3398	1003.1906	1739	869.65
852.4849	1005.1877	1754.95	883.35
852.63	1007.1841	1756	886.35
852.7751	1009.1798	1763.65	893.05
852.9202	1011.1748	1757.15	885.8
853.0653	1013.1691	1748.55	877.5
853.2104	1015.1627	1724.9	854.15
853.3555	1017.1556	1705.25	834.1
853.5006	1019.1477	1687	815.55
853.6457	1021.1392	1679.35	810.3
853.7908	1023.1299	1673.8	803
853.9359	1025.12	1675	802.3
854.081	1027.1093	1671.3	801.1
854.2261	1029.0979	1685.7	815.7
854.3712	1031.0859	1693.45	824.6
854.5163	1033.0731	1696.1	821.65
854.6613	1035.0596	1687.45	816.4
854.8064	1037.0454	1685.8	812.85
854.9515	1039.0304	1671.25	798.75
855.0965	1041.0148	1661.15	789.05
855.2416	1042.9985	1646.3	774.2
855.3867	1044.9814	1639.3	767.25
855.5317	1046.9636	1635.75	760
855.6768	1048.9452	1641.45	771.65
855.8219	1050.926	1653	782.1
855.9669	1052.9061	1646.9	775
856.112	1054.8855	1656.4	781.85
856.257	1056.8642	1658.85	785.35
856.4021	1058.8421	1658.4	780.95
856.5471	1060.8194	1652.65	779.95
856.6921	1062.7959	1645.65	772.4
856.8372	1064.7717	1643.1	768
856.9822	1066.7469	1649.9	774.9
857.1272	1068.7213	1644.2	768.1
857.2723	1070.695	1654.75	781.45
857.4173	1072.6679	1665.3	791.1
857.5623	1074.6402	1667.05	793.85
857.7073	1076.6117	1680.05	801.55
857.8523	1078.5826	1667.25	793.35
857.9973	1080.5527	1641.45	765.15
858.1423	1082.5221	1625.1	751.25
858.2873	1084.4908	1599.4	725.2
858.4323	1086.4587	1593.85	716.7
858.5773	1088.426	1586.65	710.55
858.7223	1090.3925	1580	700.5
858.8673	1092.3584	1581.1	707
859.0123	1094.3235	1582.75	708.55
859.1573	1096.2879	1601.2	724.6
859.3022	1098.2515	1609.8	735.65
859.4472	1100.2145	1618.65	742.75
859.5922	1102.1767	1638.95	761.4
859.7371	1104.1382	1653.45	777.35
859.8821	1106.099	1688.5	810.35
860.027	1108.0591	1713.1	839.6
860.172	1110.0185	1736.1	858.85
860.3169	1111.9771	1758.3	883.95
860.4619	1113.9351	1782.75	907.15
860.6068	1115.8923	1824.15	947.7
860.7517	1117.8488	1841.3	964.65
860.8967	1119.8045	1805.25	930.4
861.0416	1121.7596	1752.5	875.45
861.1865	1123.7139	1683.75	809.05
861.3314	1125.6675	1655.9	780.25
861.4763	1127.6204	1649.5	773.2
861.6212	1129.5726	1665.9	786.85
861.7661	1131.524	1663.3	787.9
861.911	1133.4748	1634.25	757.35
862.0559	1135.4248	1602.15	723.85
862.2008	1137.3741	1571.45	696.05
862.3457	1139.3226	1555.5	679
862.4905	1141.2705	1550.1	673.75
862.6354	1143.2176	1556.55	672.9
862.7803	1145.164	1563.5	685.4
862.9251	1147.1097	1564.05	688.85
863.07	1149.0546	1549.5	670.35
863.2148	1150.9989	1535.5	659.1
863.3597	1152.9424	1523.85	645.95
863.5045	1154.8852	1505.45	628.45
863.6493	1156.8272	1500.65	624.45
863.7942	1158.7686	1513.55	630.35
863.939	1160.7092	1501.6	624.75
864.0838	1162.6491	1508.9	628.8
864.2286	1164.5883	1511.2	635.65
864.3734	1166.5267	1518.7	639.55
864.5182	1168.4644	1531.5	652.95
864.663	1170.4014	1549.55	668.55
864.8078	1172.3377	1566.6	689.8
864.9526	1174.2732	1597.15	719.55
865.0974	1176.2081	1645.75	768.1
865.2421	1178.1421	1719.8	838.95
865.3869	1180.0755	1766.5	889.8
865.5317	1182.0082	1809.4	931.8
865.6764	1183.9401	1794.2	915
865.8212	1185.8713	1731.15	852.95
865.9659	1187.8017	1661.35	783.6
866.1106	1189.7315	1603.5	724.75
866.2554	1191.6605	1586.75	681.8
866.4001	1193.5888	1534.05	656.45
866.5448	1195.5163	1519.3	640
866.6895	1197.4432	1501.45	623.9
866.8342	1199.3693	1495.85	618.4
866.9789	1201.2947	1494.8	610.1
867.1236	1203.2193	1478.05	600.65
867.2683	1205.1432	1471	591.55
867.413	1207.0664	1479.25	602.05
867.5576	1208.9889	1479.85	598.45
867.7023	1210.9106	1476.1	596.1
867.847	1212.8316	1473.9	598.2
867.9916	1214.7519	1483.15	594.75
868.1363	1216.6715	1485.45	609.95
868.2809	1218.5903	1486	606.65
868.4255	1220.5084	1494.45	615.75
868.5701	1222.4257	1510.6	632.3
868.7148	1224.3424	1509.75	630.6
868.8594	1226.2583	1526.3	640.35
869.004	1228.1735	1536.8	657.25
869.1486	1230.0879	1551	670.1
869.2932	1232.0016	1569.4	689.55
869.4377	1233.9146	1589.85	707.65
869.5823	1235.8269	1600.15	720.4
869.7269	1237.7384	1595.55	715.3
869.8715	1239.6492	1590.25	711.65
870.016	1241.5592	1604.1	723.95
870.1606	1243.4686	1634.8	756.2
870.3051	1245.3772	1667.5	789.45
870.4496	1247.285	1718.85	838.6
870.5941	1249.1922	1759	880.8
870.7387	1251.0986	1807.35	929.1
870.8832	1253.0042	1839.75	959.15
871.0277	1254.9092	1875.75	995.6
871.1722	1256.8134	1918.7	1039.7
871.3167	1258.7169	1956.85	1076
871.4611	1260.6196	1982.9	1102.5
871.6056	1262.5216	1996.85	1115
871.7501	1264.4229	1976.25	1098.9
871.8945	1266.3234	1953.65	1072.8
872.039	1268.2232	1930.4	1049.35
872.1834	1270.1223	1905.8	1024.2
872.3278	1272.0207	1883.95	1003.75
872.4723	1273.9183	1873.8	987.55
872.6167	1275.8151	1867.1	987.25
872.7611	1277.7113	1885.95	1004.15
872.9055	1279.6067	1936.75	1057.7
873.0499	1281.5014	2017.95	1135.5
873.1943	1283.3953	2125.95	1241.75
873.3386	1285.2885	2215.85	1335.95
873.483	1287.181	2281.4	1399.75
873.6274	1289.0727	2302.05	1423.05
873.7717	1290.9637	2290.9	1411
873.9161	1292.854	2232.3	1354.45
874.0604	1294.7435	2160.9	1280.15
874.2047	1296.6323	2109.1	1228.5
874.349	1298.5204	2053.1	1169.55
874.4933	1300.4077	2015.95	1134.05
874.6376	1302.2943	1973.8	1091.6
874.7819	1304.1802	1971.55	1091.3
874.9262	1306.0653	1947.35	1064.65
875.0705	1307.9497	1934.65	1053.55
875.2147	1309.8333	1915	1036
875.359	1311.7162	1897.7	1019.5
875.5032	1313.5984	1887.5	1003.35
875.6475	1315.4798	1872.75	979.2
875.7917	1317.3605	1868.45	982.8
875.9359	1319.2405	1855.95	974.25
876.0801	1321.1197	1849.3	965
876.2243	1322.9982	1823.8	937.1
876.3685	1324.876	1774.5	892.2
876.5127	1326.753	1723.45	843.45
876.6569	1328.6293	1677.35	794.35
876.801	1330.5048	1634.2	750.85
876.9452	1332.3796	1589.75	709.75
877.0893	1334.2537	1597.05	688.15
877.2335	1336.127	1539.85	658.4
877.3776	1337.9996	1521.55	640.2
877.5217	1339.8714	1517.5	636
877.6658	1341.7426	1539.55	614.1
877.8099	1343.6129	1501.8	619.15
877.954	1345.4826	1491.1	610.1
878.0981	1347.3515	1475.75	591.8
878.2422	1349.2196	1476.65	597
878.3862	1351.087	1470.1	586.8
878.5303	1352.9537	1470.35	588.05
878.6743	1354.8197	1467.45	585.6
878.8184	1356.6849	1472.8	590.45
878.9624	1358.5493	1480.8	598.5
879.1064	1360.4131	1488.8	607.65
879.2504	1362.276	1515.25	634.85
879.3944	1364.1383	1530.35	648.6
879.5384	1365.9998	1542.25	654.25
879.6823	1367.8606	1531.1	649.4
879.8263	1369.7206	1524.65	643.45
879.9702	1371.5799	1523.85	639.7
880.1142	1373.4384	1520.05	638.45
880.2581	1375.2962	1502.5	618.6
880.402	1377.1533	1473	591.75
880.5459	1379.0096	1443.6	562.25
880.6898	1380.8652	1427.05	545.2
880.8337	1382.7201	1411.6	530.55
880.9776	1384.5742	1393.2	511.35
881.1215	1386.4275	1389.15	507.4
881.2653	1388.2802	1371.15	492.15
881.4092	1390.132	1370.9	489.25
881.553	1391.9832	1369.7	486.9
881.6968	1393.8336	1352.4	469.05
881.8406	1395.6832	1360.15	476
881.9844	1397.5322	1347.2	467.8
882.1282	1399.3803	1340	453
882.272	1401.2278	1336.65	451.8
882.4158	1403.0745	1327.85	444.6
882.5595	1404.9204	1325.9	443.15
882.7033	1406.7656	1324.05	442.7
882.847	1408.6101	1319.8	438.2
882.9908	1410.4538	1314.95	433.4
883.1345	1412.2968	1319.6	437.25
883.2782	1414.139	1321.3	438.45
883.4219	1415.9805	1322.5	440.5
883.5656	1417.8213	1331.25	441.55
883.7092	1419.6613	1336.35	454.75
883.8529	1421.5006	1346.05	463.65
883.9965	1423.3391	1367.15	482.05
884.1402	1425.1769	1394.45	511.6
884.2838	1427.0139	1428.65	545.95
884.4274	1428.8502	1484.05	600.25
884.571	1430.6858	1505.35	622.65
884.7146	1432.5206	1527.7	645.05
884.8582	1434.3547	1521.3	638.1
885.0018	1436.188	1509	627.75
885.1453	1438.0206	1494.7	610.65
885.2889	1439.8524	1487.05	603.95
885.4324	1441.6835	1493.9	610.15
885.5759	1443.5139	1500.05	615.3
885.7194	1445.3435	1496.4	614.95
885.8629	1447.1724	1496.9	614.05
886.0064	1449.0005	1489.7	604.9
886.1499	1450.8279	1486.85	602.05
886.2933	1452.6545	1474.8	592.4
886.4368	1454.4804	1481.45	600
886.5802	1456.3056	1483.45	591.85
886.7237	1458.13	1460.6	576.35
886.8671	1459.9536	1453.45	570.6
887.0105	1461.7766	1429.1	545.7
887.1539	1463.5987	1412.1	527.45
887.2972	1465.4202	1389.65	505.35
887.4406	1467.2409	1375.2	492.05
887.584	1469.0608	1351.3	469.25
887.7273	1470.88	1339	456.25
887.8706	1472.6984	1320.5	437.25
888.0139	1474.5161	1312.9	427.35
888.1572	1476.3331	1303.9	420.1
888.3005	1478.1493	1292.85	409.95
888.4438	1479.9648	1293.55	409.6
888.5871	1481.7795	1290.35	407.9
888.7303	1483.5935	1289.55	406.5
888.8736	1485.4067	1295.05	412.05
889.0168	1487.2192	1298.75	416.3
889.16	1489.031	1297.9	413.05
889.3032	1490.842	1282.55	400.3
889.4464	1492.6522	1283.95	401.45
889.5896	1494.4618	1288.85	404.6
889.7327	1496.2705	1281.15	397.3
889.8759	1498.0785	1281	397.4
890.019	1499.8858	1275.45	391.65
890.1622	1501.6924	1271.25	387.05
890.3053	1503.4981	1267.8	385.25
890.4484	1505.3032	1273.05	392.4
890.5914	1507.1075	1259.4	376.9
890.7345	1508.911	1254.1	372.4
890.8776	1510.7138	1258.45	375.2
891.0206	1512.5159	1248.75	364.55
891.1637	1514.3172	1245.4	362.05
891.3067	1516.1178	1241.8	359.2
891.4497	1517.9176	1244.4	358.6
891.5927	1519.7166	1234.3	350.35
891.7357	1521.515	1234.6	344.25
891.8786	1523.3126	1232.95	349.4
892.0216	1525.1094	1227.15	342.05
892.1645	1526.9055	1219.8	339.5
892.3074	1528.7008	1222.8	337.75
892.4503	1530.4954	1225.2	337.55
892.5932	1532.2893	1213.1	333.45
892.7361	1534.0824	1221.3	330.15
892.879	1535.8747	1213.9	330.6
893.0218	1537.6663	1209.15	323.8
893.1647	1539.4572	1206.9	320.9
893.3075	1541.2473	1214.2	328.4
893.4503	1543.0367	1214.6	333.15
893.5931	1544.8253	1212.65	324.15
893.7359	1546.6132	1213	328.05
893.8787	1548.4003	1220.15	326.45
894.0214	1550.1867	1224.35	333.2
894.1642	1551.9723	1219.4	329.55
894.3069	1553.7572	1224.3	340.8
894.4496	1555.5414	1235.55	350.9
894.5923	1557.3247	1244.8	359
894.735	1559.1074	1261.6	380.8
894.8777	1560.8893	1280.4	397.85
895.0204	1562.6705	1298.85	415.95
895.163	1564.4509	1311.45	425.6
895.3056	1566.2305	1311.95	430
895.4482	1568.0094	1317.9	435.15
895.5908	1569.7876	1309.65	427.05
895.7334	1571.565	1309.55	425.7
895.876	1573.3417	1302.1	418.25
896.0186	1575.1176	1309.2	424.55
896.1611	1576.8928	1317.3	432.85
896.3036	1578.6672	1322.6	439.55
896.4461	1580.4409	1340.15	456.35
896.5886	1582.2138	1349.85	463.9
896.7311	1583.986	1367.5	482.55
896.8736	1585.7575	1387.7	505.75
897.0161	1587.5282	1399.1	515.85
897.1585	1589.2981	1406.65	522.65
897.3009	1591.0673	1416.25	531.95
897.4433	1592.8358	1418.05	534.5
897.5857	1594.6035	1421.3	534.85
897.7281	1596.3704	1412.25	527.2
897.8705	1598.1366	1402	518.25
898.0128	1599.9021	1391.7	506.9
898.1551	1601.6668	1383.15	495.9
898.2975	1603.4308	1374.8	490.05
898.4398	1605.194	1373.85	483.85
898.5821	1606.9564	1385.35	500.4
898.7243	1608.7182	1409.4	520.8
898.8666	1610.4791	1438.8	554.15
899.0088	1612.2394	1490.65	607.95
899.1511	1613.9988	1537.45	655.3
899.2933	1615.7576	1569.75	685.45
899.4355	1617.5156	1592.05	702.9
899.5776	1619.2728	1564.15	680.75
899.7198	1621.0293	1520.1	637.55
899.862	1622.785	1470.4	579.8
900.0041	1624.54	1410.45	522.45
900.1462	1626.2942	1352.6	466.4
900.2883	1628.0477	1322.3	436.2
900.4304	1629.8005	1277.1	389.85
900.5725	1631.5525	1243.3	358.2
900.7145	1633.3037	1220.7	334.85
900.8566	1635.0542	1206.85	319.95
900.9986	1636.804	1186.7	302.9
901.1406	1638.553	1234.15	285.3
901.2826	1640.3013	1164.75	279.15
901.4245	1642.0488	1154.7	270.15
901.5665	1643.7955	1150.1	267.65
901.7085	1645.5416	1144.8	260.4
901.8504	1647.2868	1139.6	255.65
901.9923	1649.0313	1133.65	251.05
902.1342	1650.7751	1136.35	247.55
902.2761	1652.5181	1124.3	240.25
902.4179	1654.2604	1125.8	240.45
902.5598	1656.0019	1130.3	247.25
902.7016	1657.7427	1135	250.3
902.8434	1659.4828	1145.55	262.35
902.9852	1661.222	1158.6	274.35
903.127	1662.9606	1172.65	289.45
903.2687	1664.6984	1180.4	295.55
903.4105	1666.4354	1188.35	302.8
903.5522	1668.1717	1172.95	287.65
903.6939	1669.9072	1154.9	271.55
903.8356	1671.642	1141.5	254.15
903.9773	1673.3761	1115.05	232
904.119	1675.1094	1104.8	222.65
904.2606	1676.8419	1093.8	210.05
904.4022	1678.5737	1084.85	200.65
904.5439	1680.3048	1081.25	196.05
904.6855	1682.0351	1083.5	201.1
904.827	1683.7646	1082.2	195.05
904.9686	1685.4934	1078.2	194.3
905.1101	1687.2215	1074.1	189.3
905.2517	1688.9488	1073.2	190.25
905.3932	1690.6754	1068.45	185.5
905.5347	1692.4012	1071.25	187.7
905.6761	1694.1263	1067.25	184.35
905.8176	1695.8506	1066.4	180.45
905.9591	1697.5742	1059.95	177.2
906.1005	1699.297	1060.65	176.3
906.2419	1701.0191	1054	170.35
906.3833	1702.7404	1058.1	174.85
906.5246	1704.461	1058.95	172.7
906.666	1706.1808	1056.45	170.6
906.8073	1707.8999	1056.85	172.3
906.9487	1709.6182	1053.6	168.35
907.09	1711.3358	1054.75	169.5
907.2313	1713.0527	1053.25	170.2
907.3725	1714.7688	1056	166.95
907.5138	1716.4841	1055.65	169.25
907.655	1718.1987	1054.8	164.3
907.7962	1719.9126	1046.5	163.6
907.9374	1721.6257	1050.25	162
908.0786	1723.338	1052.7	167.5
908.2198	1725.0496	1051.15	164.75
908.3609	1726.7605	1046.9	163.1
908.502	1728.4706	1042.1	156.65
908.6431	1730.18	1045.45	159.15
908.7842	1731.8886	1042.35	158.3
908.9253	1733.5964	1045.6	155.65
909.0664	1735.3036	1047.1	158.7
909.2074	1737.0099	1042.2	156.7
909.3484	1738.7156	1043.15	158.6
909.4894	1740.4204	1045.25	158.95
909.6304	1742.1246	1041.75	155.25
909.7714	1743.8279	1040.95	154.6
909.9123	1745.5306	1043.45	157.2
910.0532	1747.2325	1043.65	158.15
910.1941	1748.9336	1040.3	156.25
910.335	1750.634	1043.15	158.45
910.4759	1752.3336	1039.1	155.9
910.6168	1754.0325	1037.25	154.7
910.7576	1755.7307	1037.5	151.6
910.8984	1757.4281	1039.3	153.7
911.0392	1759.1247	1046.1	152.3
911.18	1760.8206	1043.45	152.85
911.3208	1762.5158	1044.45	156.45
911.4615	1764.2102	1038.1	153.9
911.6022	1765.9039	1035	149.7
911.7429	1767.5968	1037.4	152.85
911.8836	1769.289	1038.85	155.75
912.0243	1770.9804	1034.25	149.25
912.1649	1772.6711	1032.3	147.85
912.3056	1774.361	1035.35	148.4
912.4462	1776.0502	1038.95	152.3
912.5868	1777.7386	1036.9	147.85
912.7274	1779.4263	1033.05	147.2
912.8679	1781.1132	1037.85	153.2
913.0084	1782.7994	1034.05	149.35
913.149	1784.4849	1033.9	150.3
913.2895	1786.1696	1054.5	151.15
913.4299	1787.8535	1029.65	145.85
913.5704	1789.5367	1030.2	143.65
913.7108	1791.2192	1034.6	149.75
913.8513	1792.9009	1047.6	148.2
913.9917	1794.5818	1031.95	147.85
914.132	1796.2621	1024.05	139.5
914.2724	1797.9415	1031.55	146.95
914.4128	1799.6202	1026.45	142.15
914.5531	1801.2982	1028.15	143.75
914.6934	1802.9755	1032.05	147.25
914.8337	1804.6519	1028.1	144.05
914.9739	1806.3277	1024.75	141.8
915.1142	1808.0027	1023.85	138.5
915.2544	1809.6769	1028.75	142.8
915.3946	1811.3504	1024.2	137
915.5348	1813.0231	1028.25	142.7
915.675	1814.6951	1025.9	140.85
915.8151	1816.3664	1026.5	140.95
915.9553	1818.0369	1026.85	140.75
916.0954	1819.7067	1020.9	135.95
916.2355	1821.3757	1024.1	136.55
916.3755	1823.044	1023.65	139.2
916.5156	1824.7115	1022.7	137.1
916.6556	1826.3783	1016.05	132.8
916.7956	1828.0443	1021.7	138.8
916.9356	1829.7096	1020.6	134.4
917.0756	1831.3741	1022.05	132.85
917.2155	1833.0379	1017.55	134.2
917.3555	1834.701	1021.85	133.25
917.4954	1836.3633	1020.95	135.85
917.6353	1838.0248	1020.15	134.35
917.7751	1839.6856	1021.3	136.15
917.915	1841.3457	1018.6	135.4
918.0548	1843.005	1017.85	133.2
918.1946	1844.6636	1017.85	134.9
918.3344	1846.3214	1016.9	131.95
918.4742	1847.9785	1013.95	129.2
918.6139	1849.6349	1015.9	128.6
918.7537	1851.2904	1024.95	131.6
918.8934	1852.9453	1016.95	133.45
919.0331	1854.5994	1015.65	128.7
919.1727	1856.2528	1020.7	132.8
919.3124	1857.9054	1013.55	129.05
919.452	1859.5572	1016.65	131.5
919.5916	1861.2083	1013.5	127.35
919.7312	1862.8587	1013.7	129.75
919.8708	1864.5084	1017	132.3
920.0103	1866.1572	1013.95	130.05
920.1498	1867.8054	1011.25	126.2
920.2893	1869.4528	1010.9	127.8
920.4288	1871.0994	1010.8	126.7
920.5683	1872.7453	1011.2	126.9
920.7077	1874.3905	1030.75	130
920.8471	1876.0349	1006.8	121.7
920.9865	1877.6786	1009.5	123.65
921.1259	1879.3215	1010.05	123.95
921.2653	1880.9637	1012.55	125.7
921.4046	1882.6051	1010.65	125.3
921.5439	1884.2458	1013.5	126.55
921.6832	1885.8858	1011.5	126.35
921.8225	1887.525	1009.15	121.85
921.9617	1889.1634	1005.3	122.45
922.101	1890.8011	1008	123.9
922.2402	1892.4381	1008.9	125.05
922.3794	1894.0743	1010.35	125.9
922.5185	1895.7098	1005.85	121.4
922.6577	1897.3446	1006.8	121.95
922.7968	1898.9786	1014.55	126.45
922.9359	1900.6118	1007.6	123.5
923.075	1902.2443	1006.9	118.65
923.214	1903.8761	1005.25	121.2
923.3531	1905.5071	1001.65	115.8
923.4921	1907.1374	1003.3	116.65
923.6311	1908.7669	1003.1	119.35
923.77	1910.3957	1003.4	120.35
923.909	1912.0237	1003.75	118.95
924.0479	1913.651	1001.55	117.75
924.1868	1915.2776	1000.7	116.8
924.3257	1916.9034	1002.2	120.4
924.4646	1918.5285	1001.45	117.45
924.6034	1920.1528	1002.8	116.65
924.7422	1921.7764	1001.35	117.9
924.881	1923.3992	1003.15	119.9
925.0198	1925.0213	997.55	112.75
925.1586	1926.6427	997.15	113.6
925.2973	1928.2633	1105.9	114.85
925.436	1929.8832	999.7	113.5
925.5747	1931.5023	998.1	113.6
925.7134	1933.1207	998.75	112.25
925.852	1934.7383	998.4	115.05
925.9906	1936.3552	1002.35	117.7
926.1292	1937.9714	997.45	113
926.2678	1939.5868	1000.15	115.05
926.4064	1941.2015	999.7	113
926.5449	1942.8154	998.35	112.5
926.6834	1944.4286	999.05	112.65
926.8219	1946.041	1020.05	112
926.9604	1947.6528	1003	113.2
927.0988	1949.2637	996.5	111.5
927.2372	1950.8739	996.8	112.2
927.3756	1952.4834	996.15	110.5
927.514	1954.0921	997.6	114.1
927.6523	1955.7001	996.75	105.85
927.7907	1957.3074	993.3	107.35
927.929	1958.9139	992.75	107.1
928.0673	1960.5197	996.85	109.6
928.2055	1962.1247	995.4	112.05
928.3438	1963.729	992.8	109.35
928.482	1965.3325	1017	108.25
928.6202	1966.9353	994.75	108.95
928.7584	1968.5374	994.05	108.9
928.8965	1970.1387	988	102.75
929.0346	1971.7393	993.4	107.05
929.1727	1973.3392	991.15	106.5
929.3108	1974.9383	990.35	104
929.4489	1976.5366	987.55	102.45
929.5869	1978.1342	993.35	106.55
929.7249	1979.7311	993.75	108
929.8629	1981.3273	988.5	104.15
930.0009	1982.9227	992.05	104.05
930.1388	1984.5173	990.45	106.15
930.2767	1986.1112	989.1	103.5
930.4146	1987.7044	988.15	103.75
930.5525	1989.2968	992.6	106.45
930.6904	1990.8885	991.25	103.9
930.8282	1992.4795	989.75	102.4
930.966	1994.0697	988.6	102.75
931.1038	1995.6592	987	102.4
931.2415	1997.2479	988.5	104.25
931.3793	1998.8359	985.6	100.55
931.517	2000.4232	986.8	103.05
931.6547	2002.0097	985.75	101.5
931.7923	2003.5955	986.15	98.9
931.93	2005.1805	992.25	104.9
932.0676	2006.7648	985.35	100.05
932.2052	2008.3484	985.9	100.5
932.3427	2009.9312	988.1	99.4
932.4803	2011.5133	987.9	102.95
932.6178	2013.0946	986.95	101.65
932.7553	2014.6752	987	102.45
932.8928	2016.2551	986.85	101.15
933.0302	2017.8342	989.1	104.75
933.1676	2019.4126	985.5	101.05
933.305	2020.9902	986.05	100.55
933.4424	2022.5672	987.8	100.95
933.5798	2024.1433	993.25	102.3
933.7171	2025.7188	985.05	101.9
933.8544	2027.2935	989.9	103
933.9917	2028.8674	986.4	102.75
934.129	2030.4406	985.75	100.6
934.2662	2032.0131	984.8	101.15
934.4034	2033.5849	993.5	103.25
934.5406	2035.1559	984.05	98.75
934.6778	2036.7261	985.75	98.6
934.8149	2038.2957	983.35	96.9
934.952	2039.8645	984.8	99.75
935.0891	2041.4325	985.6	96.8
935.2262	2042.9998	984.15	98.6
935.3632	2044.5664	987.45	100.5
935.5002	2046.1323	984.35	101.7
935.6372	2047.6974	984	99.3
935.7742	2049.2617	980.9	96.55
935.9111	2050.8254	1017.85	100.45
936.048	2052.3883	989.35	102.1
936.1849	2053.9504	982.8	97.3
936.3218	2055.5118	983.4	96.2
936.4586	2057.0725	986.5	98.55
936.5955	2058.6325	984.75	98.25
936.7323	2060.1917	982.75	98.65
936.869	2061.7502	986.1	97.55
937.0058	2063.3079	982.65	98.55
937.1425	2064.8649	991.1	103.55
937.2792	2066.4212	985.45	98.85
937.4159	2067.9767	985.55	100.65
937.5525	2069.5315	980.4	95.8
937.6891	2071.0856	982.55	97.55
937.8257	2072.6389	982.75	96.95
937.9623	2074.1915	978.35	92.35
938.0989	2075.7433	983.65	95.7
938.2354	2077.2945	981.5	99.05
938.3719	2078.8448	982.55	98.6
938.5084	2080.3945	982.85	98.35
938.6448	2081.9434	981.25	97.05
938.7812	2083.4916	982.2	97.45
938.9176	2085.039	985.7	99.1
939.054	2086.5857	982.2	95.45
939.1903	2088.1317	984.65	99.6
939.3267	2089.677	983.05	98.35
939.463	2091.2215	978.9	94.25
939.5992	2092.7652	981.9	96.3
939.7355	2094.3083	981.3	96.55
939.8717	2095.8506	980.4	96.75
940.0079	2097.3921	979.6	93.85
940.1441	2098.933	984.75	100.15
940.2802	2100.4731	978.75	95.75
940.4163	2102.0124	998.85	96.05
940.5524	2103.5511	981.4	99
940.6885	2105.089	982.95	99.4
940.8245	2106.6261	981.3	96.65
940.9606	2108.1626	980.4	94.75
941.0965	2109.6983	1007.55	90.9
941.2325	2111.2332	982.45	97.6
941.3684	2112.7675	984.1	101.45
941.5044	2114.301	981.4	96.2
941.6403	2115.8337	983.6	97.05
941.7761	2117.3657	980.2	95.7
941.912	2118.897	980.8	95.15
942.0478	2120.4276	984.6	91.6
942.1835	2121.9575	981.45	96.4
942.3193	2123.4866	996.55	97.25
942.455	2125.0149	983.75	97.25
942.5907	2126.5426	980.3	95.8
942.7264	2128.0695	985	94.45
942.8621	2129.5956	979.95	96.4
942.9977	2131.1211	987.55	98.9
943.1333	2132.6458	981.5	97.9
943.2689	2134.1698	978.75	93.1
943.4044	2135.693	982.6	95.05
943.54	2137.2155	983.35	95.55
943.6755	2138.7373	975.9	90.8
943.8109	2140.2584	979.9	94.95
943.9464	2141.7787	990.35	100.5
944.0818	2143.2983	978	93.1
944.2172	2144.8171	976.5	93.45
944.3526	2146.3353	980.3	95.2
944.4879	2147.8527	977.85	93.9
944.6232	2149.3693	977.5	93.05
944.7585	2150.8853	979.9	93.2
944.8938	2152.4005	982.15	96.9
945.029	2153.9149	980.1	94.5
945.1642	2155.4287	978.6	94.4
945.2994	2156.9417	978.1	92.25
945.4346	2158.454	981.25	96.1
945.5697	2159.9655	977.65	91.8
945.7048	2161.4764	978.15	91.75
945.8399	2162.9865	980.2	92.85
945.9749	2164.4958	978.15	91.2
946.1099	2166.0045	980.15	90.2
946.2449	2167.5124	978.95	93.5
946.3799	2169.0195	980.3	96.5
946.5148	2170.526	979.9	95.05
946.6498	2172.0317	975.1	89.6
946.7846	2173.5367	975.75	89.7
946.9195	2175.0409	978.3	93.35
947.0543	2176.5445	973.85	89.8
947.1891	2178.0473	974.55	89.25
947.3239	2179.5494	979.55	91.4
947.4587	2181.0507	976.35	89.8
947.5934	2182.5513	974.75	89
947.7281	2184.0512	978.5	93.35
947.8628	2185.5504	974.45	87.65
947.9974	2187.0488	975.05	92.2
948.132	2188.5465	975.5	91.5
948.2666	2190.0435	974.9	89.45
948.4012	2191.5397	975.6	91.55
948.5357	2193.0353	974.05	91
948.6702	2194.5301	976.1	90.9
948.8047	2196.0241	975.15	90.3
948.9392	2197.5175	973.2	88.45
949.0736	2199.0101	978.8	91.3
949.208	2200.502	974.5	89.45
949.3424	2201.9931	971.4	87.65
949.4767	2203.4835	973.5	85.75
949.611	2204.9733	979.95	88.5
949.7453	2206.4622	973.45	89.45
949.8796	2207.9505	975.6	87.7
950.0138	2209.438	972.3	86.65
950.148	2210.9248	976.1	89.3
950.2822	2212.4109	973.45	87.2
950.4164	2213.8962	975.9	88.25
950.5505	2215.3809	974	87.55
950.6846	2216.8648	970.95	86
950.8186	2218.3479	975.45	88.55
950.9527	2219.8304	970.35	84.2
951.0867	2221.3121	974.9	88.65
951.2207	2222.7931	969.75	84.55
951.3546	2224.2733	970.1	83.3
951.4886	2225.7529	972.05	85.3
951.6225	2227.2317	975.7	85.9
951.7563	2228.7098	972.85	90.4
951.8902	2230.1872	970.75	85.25
952.024	2231.6638	970.55	83.95
952.1578	2233.1397	978.75	89.3
952.2916	2234.6149	968.9	84.35
952.4253	2236.0894	969.95	85.8
952.559	2237.5632	978.1	82.5
952.6927	2239.0362	969.5	83.35
952.8263	2240.5085	968.65	82.4
952.9599	2241.9801	971.95	86.35
953.0935	2243.4509	969.25	82.75
953.2271	2244.921	965.75	80.55
953.3606	2246.3904	968.45	80.65
953.4941	2247.8591	968.15	84.05
953.6276	2249.3271	962.15	76.4
953.7611	2250.7943	968.7	84.5
953.8945	2252.2608	968.2	83.4
954.0279	2253.7266	968.4	85.7
954.1612	2255.1917	964.75	79.45
954.2946	2256.656	967	79.7
954.4279	2258.1197	961.3	78.05
954.5612	2259.5826	965.1	78.4
954.6944	2261.0447	967	82
954.8276	2262.5062	968.8	81.55
954.9608	2263.9669	968.85	82.95
955.094	2265.4269	963.35	79.45
955.2271	2266.8862	965.85	80.95
955.3602	2268.3448	965.55	80.05
955.4933	2269.8026	965.85	80.3
955.6264	2271.2598	964.75	80.7
955.7594	2272.7162	966.9	84.25
955.8924	2274.1719	960.7	74.45
956.0253	2275.6268	960.65	76.45
956.1583	2277.0811	964.65	80.4
956.2912	2278.5346	961.55	78.65
956.4241	2279.9874	964.15	80.65
956.5569	2281.4395	962.9	79.1
956.6897	2282.8908	970.2	79.1
956.8225	2284.3414	965.65	80.45
956.9553	2285.7914	960.5	75.5
957.088	2287.2406	965.05	80.05
957.2207	2288.689	962.25	76.65
957.3534	2290.1368	960.85	75.6
957.486	2291.5838	965.45	79.3
957.6186	2293.0302	960.55	73.05
957.7512	2294.4758	960.85	76.85
957.8838	2295.9206	964.8	79.2
958.0163	2297.3648	959.25	73.4
958.1488	2298.8082	963.8	78.25
958.2813	2300.251	958.65	73.3
958.4137	2301.693	964.75	78.35
958.5461	2303.1343	958.95	72.6
958.6785	2304.5748	956.95	73.5
958.8108	2306.0147	960.85	75.6
958.9432	2307.4538	960.7	71.4
959.0754	2308.8922	960.2	76.05
959.2077	2310.3299	959.4	73.1
959.3399	2311.7669	957.4	72.6
959.4721	2313.2031	960.6	75.75
959.6043	2314.6387	962.7	75.45
959.7365	2316.0735	958	73.55
959.8686	2317.5076	957.8	73.15
960.0006	2318.941	958.35	73.4
960.1327	2320.3737	959.45	76
960.2647	2321.8056	964.25	75.8
960.3967	2323.2369	959.55	74.9
960.5287	2324.6674	965.25	74.9
960.6606	2326.0972	964.2	78.3
960.7925	2327.5263	965.8	83.15
960.9244	2328.9547	967.85	82.8
961.0562	2330.3823	965.15	82.05
961.1881	2331.8092	965.1	77.2
961.3198	2333.2355	957.1	71.6
961.4516	2334.661	956.55	70.55
961.5833	2336.0858	958.15	70.15
961.715	2337.5098	954.1	69.8
961.8467	2338.9332	956.1	70.05
961.9783	2340.3558	959.6	70.65
962.1099	2341.7778	954.95	70.25
962.2415	2343.199	959.1	70.55
962.373	2344.6195	953.35	70.25
962.5045	2346.0393	952.15	67.1
962.636	2347.4583	953.35	68
962.7675	2348.8767	954.35	70.8
962.8989	2350.2943	954.35	68.85
963.0303	2351.7113	953.9	67
963.1617	2353.1275	954	68.55
963.293	2354.543	960.05	67
963.4243	2355.9578	954.3	68.1
963.5556	2357.3718	950.1	63.5
963.6868	2358.7852	955.25	67
963.818	2360.1978	953	67.6
963.9492	2361.6098	952.45	69.15
964.0803	2363.021	953.15	63.4
964.2114	2364.4315	951.75	67
964.3425	2365.8413	954.95	69.1
964.4736	2367.2504	950.55	68.35
964.6046	2368.6587	951.5	65.55
964.7356	2370.0664	949.8	65.3
964.8666	2371.4733	953.15	67.9
964.9975	2372.8795	949.75	64.05
965.1284	2374.285	951.85	68.35
965.2593	2375.6899	950.15	65.3
965.3901	2377.0939	952.05	69.05
965.5209	2378.4973	953.65	68.25
965.6517	2379.9	951.7	66.7
965.7825	2381.3019	949.35	63.6
965.9132	2382.7032	949.95	64.85
966.0439	2384.1037	949.75	68.3
966.1745	2385.5035	949.95	66.45
966.3051	2386.9027	949.35	64.05
966.4357	2388.3011	952.75	65.5
966.5663	2389.6987	949.65	64.55
966.6968	2391.0957	945.8	60.2
966.8273	2392.492	948.95	64.1
966.9578	2393.8876	946.7	61.75
967.0882	2395.2824	950.05	66.7
967.2186	2396.6765	948.5	64.3
967.349	2398.07	947.65	63.3
967.4793	2399.4627	947.7	61.8
967.6097	2400.8547	946.45	61.55
967.7399	2402.246	950.2	58.1
967.8702	2403.6366	950.65	64.5
968.0004	2405.0265	944.9	58.3
968.1306	2406.4156	950.65	60.6
968.2607	2407.8041	946.7	56.85
968.3909	2409.1918	945.65	58.2
968.521	2410.5789	946.4	61.1
968.651	2411.9652	945.55	58.75
968.781	2413.3508	945.1	61.2
968.911	2414.7358	945.2	58.45
969.041	2416.12	945.6	59.8
969.1709	2417.5035	945.65	61.3
969.3008	2418.8863	944.3	57.4
969.4307	2420.2684	944.3	61.05
969.5606	2421.6497	941.7	54.4
969.6904	2423.0304	943.65	58.5
969.8201	2424.4104	944.5	58.4
969.9499	2425.7896	951.8	60.05
970.0796	2427.1682	943.1	59.3
970.2093	2428.546	945.6	59.5
970.3389	2429.9232	944.75	57.6
970.4685	2431.2996	940.55	54.75
970.5981	2432.6753	941.45	57.7
970.7277	2434.0503	940.6	54.85
970.8572	2435.4246	942.2	58.15
970.9867	2436.7982	943.75	53
971.1161	2438.1711	941.1	57.9
971.2456	2439.5433	940.3	54.1
971.375	2440.9148	947.45	56.5
971.5043	2442.2856	940.2	54.25
971.6336	2443.6557	942.9	57.4
971.7629	2445.025	939.15	54.6
971.8922	2446.3937	939.65	53.25
972.0214	2447.7617	941.2	55.7
972.1506	2449.1289	939.75	55.55
972.2798	2450.4955	945.45	57.6
972.4089	2451.8613	940.7	57.35
972.538	2453.2265	940.8	54.4
972.6671	2454.5909	938.8	54.3
972.7961	2455.9546	937.3	52.05
972.9251	2457.3177	938.8	54.6
973.0541	2458.68	939.25	52.85
973.1831	2460.0416	938.55	52.2
973.312	2461.4025	942.3	54.6
973.4408	2462.7627	950.3	53.05
973.5697	2464.1222	937.35	51.25
973.6985	2465.4811	937.5	50.9
973.8273	2466.8392	936.9	51.3
973.956	2468.1966	941.85	52.75
974.0847	2469.5533	940.2	51.2
974.2134	2470.9093	938.75	51.9
974.3421	2472.2645	941.2	55.6
974.4707	2473.6191	935.75	50.8
974.5993	2474.973	937.25	52.95
974.7278	2476.3262	938.1	50.85
974.8563	2477.6787	936.85	51.15
974.9848	2479.0305	937.45	53.45
975.1132	2480.3816	936.65	49.85
975.2417	2481.7319	935.25	49.2
975.37	2483.0816	939.15	50.3
975.4984	2484.4306	939.35	54.9
975.6267	2485.7789	939	52.85
975.755	2487.1264	939.85	53.9
975.8833	2488.4733	935.7	52.5
976.0115	2489.8195	955.2	53.15
976.1397	2491.165	941.6	51.85
976.2678	2492.5097	936	49.15
976.3959	2493.8538	935.65	53
976.524	2495.1972	935.5	49.25
976.6521	2496.5398	935.6	50.05
976.7801	2497.8818	937.7	51.6
976.9081	2499.2231	936.4	51.45
977.036	2500.5637	937.85	50
977.164	2501.9035	937.3	51.9
977.2918	2503.2427	936.3	47.1
977.4197	2504.5812	934.25	47.55
977.5475	2505.919	936.55	48.6
977.6753	2507.256	935.2	49.35
977.8031	2508.5924	933.25	47.1
977.9308	2509.9281	938.75	47.15
978.0585	2511.2631	936.6	52.45
978.1861	2512.5974	933.4	48.75
978.3137	2513.9309	936.4	50.6
978.4413	2515.2638	960.45	47.05
978.5689	2516.596	934.25	48.8
978.6964	2517.9275	932.85	46.9
978.8239	2519.2583	935.2	49.4
978.9513	2520.5884	933.25	46.35
979.0788	2521.9178	934.35	50
979.2062	2523.2465	930.4	46.9
979.3335	2524.5745	931.25	47.9
979.4608	2525.9018	933.3	48.3
979.5881	2527.2284	930.95	47.7
979.7154	2528.5543	928.2	44.05
979.8426	2529.8796	932.35	46.1
979.9698	2531.2041	931.2	47.25
980.0969	2532.5279	930.5	47.15
980.224	2533.851	933.75	48.55
980.3511	2535.1735	933.15	48.35
980.4781	2536.4952	930.25	44.85
980.6052	2537.8163	930.8	45
980.7321	2539.1366	929.2	44.95
980.8591	2540.4562	932.85	46.3
980.986	2541.7752	929.8	45.35
981.1129	2543.0935	931.2	45.7
981.2397	2544.411	931.55	45.45
981.3665	2545.7279	932.15	48
981.4933	2547.0441	929.9	45.3
981.62	2548.3596	935.6	47.5
981.7467	2549.6744	931.55	45.75
981.8734	2550.9885	933.95	45.3
982.0001	2552.3019	927.9	41.65
982.1267	2553.6146	931.1	46
982.2532	2554.9266	929.45	44.35
982.3798	2556.2379	926.8	41.15
982.5063	2557.5485	925.8	40.65
982.6327	2558.8585	936	44.45
982.7592	2560.1677	932.3	45
982.8856	2561.4762	932	47.3
983.0119	2562.7841	930.9	43.8
983.1383	2564.0913	927.85	42.7
983.2646	2565.3977	927.7	44.1
983.3908	2566.7035	928	41.9
983.517	2568.0086	926.75	40.45
983.6432	2569.313	928.85	43.75
983.7694	2570.6167	930.75	40.8
983.8955	2571.9197	927.1	44.4
984.0216	2573.222	929.35	40.8
984.1476	2574.5236	928.65	43.75
984.2737	2575.8246	931.05	42.1
984.3996	2577.1248	930.05	43.1
984.5256	2578.4244	924.7	39.2
984.6515	2579.7232	927.35	42.95
984.7774	2581.0214	958.05	41.85
984.9032	2582.3189	927.15	43.35
985.029	2583.6157	929.25	38.95
985.1548	2584.9118	928.4	43.25
985.2806	2586.2072	925.35	40.6
985.4063	2587.5019	926.8	43.25
985.5319	2588.7959	927.7	43.05
985.6576	2590.0893	928.8	43.4
985.7832	2591.3819	926.15	43.15
985.9087	2592.6739	925.15	40.1
986.0343	2593.9652	927.15	39.1
986.1597	2595.2557	926.85	42.65
986.2852	2596.5456	928	40.25
986.4106	2597.8348	925.8	41.4
986.536	2599.1234	926.2	42.65
986.6614	2600.4112	926.9	40.7
986.7867	2601.6983	929.2	41.55
986.912	2602.9848	926.5	40.7
987.0372	2604.2705	933.1	40.7
987.1624	2605.5556	925.7	39.05
987.2876	2606.84	925.05	39.65
987.4128	2608.1237	925.85	38.8
987.5379	2609.4067	923.7	38.5
987.6629	2610.689	933.8	39.7
987.788	2611.9707	928.15	39.6
987.913	2613.2516	928.95	40.25
988.0379	2614.5319	924.35	39.15
988.1629	2615.8115	925.95	40.5
988.2878	2617.0903	925.55	38.8
988.4126	2618.3685	923.55	37.05
988.5375	2619.6461	925.65	39.25
988.6622	2620.9229	923.4	39.35
988.787	2622.199	923.85	37.3
988.9117	2623.4745	923.25	38.6
989.0364	2624.7493	920.4	33.45
989.161	2626.0234	924.45	39.55
989.2857	2627.2968	922.05	37.5
989.4102	2628.5695	923.65	38.35
989.5348	2629.8415	921.95	38.25
989.6593	2631.1128	923.2	34.7
989.7837	2632.3835	921.4	36.15
989.9082	2633.6535	921.35	36.5
990.0326	2634.9228	922.35	37.15
990.1569	2636.1914	923.4	39.9
990.2812	2637.4593	927.8	35.25
990.4055	2638.7265	922.85	36.85
990.5298	2639.9931	921.75	36.5
990.654	2641.259	923.2	36.25
990.7782	2642.5242	922.4	34.75
990.9023	2643.7887	921.4	37.7
991.0264	2645.0525	922.6	36.7
991.1505	2646.3156	921.35	37.75
991.2745	2647.5781	920.5	37.85
991.3985	2648.8398	918.7	35.15
991.5225	2650.1009	958.4	35.7
991.6464	2651.3613	923.05	37.2
991.7703	2652.6211	920.05	34.85
991.8942	2653.8801	916.95	32.1
992.018	2655.1385	922.2	35.15
992.1418	2656.3961	919.85	34.1
992.2655	2657.6531	921.55	36.25
992.3892	2658.9094	919.9	34.6
992.5129	2660.1651	916.9	32.45
992.6366	2661.42	921.05	34.7
992.7602	2662.6743	921.45	36.7
992.8837	2663.9279	919.65	36.2
993.0073	2665.1808	919.35	34.6
993.1307	2666.433	920.65	34.2
993.2542	2667.6846	919.05	33
993.3776	2668.9354	924.55	37.2
993.501	2670.1856	920.5	35.2
993.6244	2671.4351	920.3	37.3
993.7477	2672.6839	920.05	31.45
993.8709	2673.9321	920.4	32.5
993.9942	2675.1795	919.05	34.1
994.1174	2676.4263	918.5	31.4
994.2405	2677.6724	920.4	36.15
994.3637	2678.9179	921.45	35.8
994.4868	2680.1626	917.1	32.5
994.6098	2681.4067	917.2	31.65
994.7328	2682.6501	920.05	34.75
994.8558	2683.8928	919.35	35.15
994.9788	2685.1348	918.3	34.9
995.1017	2686.3761	918.9	33.05
995.2245	2687.6168	919.2	34.05
995.3474	2688.8568	917.4	34
995.4702	2690.0961	916.35	33.65
995.5929	2691.3348	918.4	32.9
995.7156	2692.5727	916.55	30.55
995.8383	2693.81	914.05	27.85
995.961	2695.0466	918.35	36.1
996.0836	2696.2826	919.85	33.35
996.2062	2697.5178	938.4	33.15
996.3287	2698.7524	919.3	34.8
996.4512	2699.9863	920.6	32.85
996.5737	2701.2195	915	31.75
996.6961	2702.452	918.05	30.45
996.8185	2703.6839	920.1	33.65
996.9408	2704.9151	915.15	32.4
997.0631	2706.1456	914.8	29.75
997.1854	2707.3755	919.6	35.45
997.3077	2708.6046	919.1	31.55
997.4299	2709.8331	919.2	32.85
997.552	2711.0609	920.3	35.95
997.6742	2712.2881	920.65	34.6
997.7963	2713.5145	921.45	34.55
997.9183	2714.7403	917.85	33.05
998.0403	2715.9654	919.25	33.05
998.1623	2717.1899	932.75	33.65
998.2842	2718.4136	918.25	32.9
998.4062	2719.6367	917.4	32.05
998.528	2720.8591	929.45	36.95
998.6498	2722.0809	921.15	34.65
998.7716	2723.3019	923.5	35.35
998.8934	2724.5223	921.15	36.5
999.0151	2725.7421	925.7	37.7
999.1368	2726.9611	922.55	33.65
999.2584	2728.1795	921.75	33.35
999.38	2729.3972	921.25	35.05
999.5016	2730.6142	930.15	33.95
999.6231	2731.8306	919.2	34.55
999.7446	2733.0462	918.7	32.55
999.8661	2734.2612	922.85	33.6
999.9875	2735.4756	919.85	34.4
1000.1089	2736.6892	917.75	31.8
1000.2302	2737.9022	913.6	30.5
1000.3515	2739.1145	916.5	32.8
1000.4728	2740.3262	922.35	29.8
1000.594	2741.5372	915.15	29.45
1000.7152	2742.7475	914.35	28
1000.8363	2743.9571	915.2	28.55
1000.9575	2745.1661	918.05	27.65
1001.0785	2746.3744	914.35	30.55
1001.1996	2747.582	914.25	27.2
1001.3206	2748.7889	914.9	27.65
1001.4415	2749.9952	912.45	27.55
1001.5625	2751.2008	914	29.1
1001.6833	2752.4057	915.6	29.3
1001.8042	2753.61	915.75	29
1001.925	2754.8136	915.5	28.85
1002.0458	2756.0165	913.4	27.6
1002.1665	2757.2188	911.05	26.75
1002.2872	2758.4204	911.5	26.7
1002.4078	2759.6213	914.3	26.2
1002.5285	2760.8215	916.65	26.7
1002.649	2762.0211	915.3	27.95
1002.7696	2763.22	914.95	27.5
1002.8901	2764.4182	912.45	24.25
1003.0106	2765.6158	913.5	28.85
1003.131	2766.8127	911.35	24.75
1003.2514	2768.009	911.25	27.35
1003.3717	2769.2045	912.25	27.1
1003.492	2770.3994	912	23.35
1003.6123	2771.5936	913.05	26.65
1003.7325	2772.7872	909.25	24
1003.8527	2773.9801	912.9	25.1
1003.9729	2775.1723	927.15	24.2
1004.093	2776.3639	907.75	22.35
1004.2131	2777.5548	912.4	25.3
1004.3331	2778.745	911.15	23.7
1004.4531	2779.9346	912.05	25.55
1004.5731	2781.1235	910.35	24.15
1004.693	2782.3117	908.1	24.4
1004.8129	2783.4992	909.5	24.15
1004.9328	2784.6861	909.15	24
1005.0526	2785.8723	909.1	22.25
1005.1723	2787.0579	910.1	22
1005.2921	2788.2428	910.7	25.25
1005.4118	2789.427	907.85	23.15
1005.5314	2790.6106	910.35	24.4
1005.651	2791.7935	907.4	20.2
1005.7706	2792.9757	907.2	23.2
1005.8902	2794.1573	909.45	21.65
1006.0097	2795.3382	907	21.35
1006.1291	2796.5184	908.6	24.7
1006.2485	2797.698	910.8	24.55
1006.3679	2798.8769	909.55	25.85
1006.4873	2800.0551	911.75	25.2
1006.6066	2801.2327	912.2	24.15
1006.7258	2802.4096	908.65	23.5
1006.8451	2803.5859	909.6	24.35
1006.9642	2804.7615	912.4	26.15
1007.0834	2805.9364	910.3	26.65
1007.2025	2807.1106	912.45	28
1007.3216	2808.2842	911.45	27.55
1007.4406	2809.4572	912.2	27.25
1007.5596	2810.6294	912.85	26.65
1007.6785	2811.801	912.5	28.35
1007.7975	2812.972	915.1	30.9
1007.9163	2814.1423	913.4	28.9
1008.0352	2815.3119	915.4	27.15
1008.154	2816.4808	914.65	30.9
1008.2727	2817.6491	918.35	30.05
1008.3914	2818.8167	916.1	30.45
1008.5101	2819.9837	924.6	35.55
1008.6288	2821.15	923.85	40.05
1008.7474	2822.3157	926.8	42.55
1008.8659	2823.4807	927.25	40.7
1008.9844	2824.645	932.15	46.55
1009.1029	2825.8086	935.35	51.55
1009.2214	2826.9716	938	52.4
1009.3398	2828.134	940.8	56.7
1009.4581	2829.2957	945.7	60.85
1009.5764	2830.4567	947	63.1
1009.6947	2831.617	948.65	62.75
1009.813	2832.7767	949.2	63.85
1009.9312	2833.9358	952.35	68.25
1010.0493	2835.0941	951.05	63.9
1010.1675	2836.2519	948.55	64.25
1010.2855	2837.4089	949	63.55
1010.4036	2838.5653	945.05	61.3
1010.5216	2839.7211	942.25	57.95
1010.6396	2840.8761	944.1	56.45
1010.7575	2842.0306	939.35	56.25
1010.8754	2843.1843	939.8	56.35
1010.9932	2844.3374	940.15	55.4
1011.111	2845.4899	943.1	57.25
1011.2288	2846.6417	941.45	56.65
1011.3465	2847.7928	944.65	61
1011.4642	2848.9433	942.4	58
1011.5818	2850.0931	944.85	59.65
1011.6995	2851.2422	948.25	61.7
1011.817	2852.3907	945.15	58.75
1011.9345	2853.5385	950.05	63.3
1012.052	2854.6857	973	62.5
1012.1695	2855.8323	946.15	62.1
1012.2869	2856.9781	950.5	66.3
1012.4042	2858.1233	948.35	62.75
1012.5216	2859.2679	949.95	65.15
1012.6389	2860.4118	949.8	64.05
1012.7561	2861.555	959.1	67.7
1012.8733	2862.6976	958.7	72.8
1012.9905	2863.8395	958.2	71.7
1013.1076	2864.9808	956.2	70.45
1013.2247	2866.1214	957.15	73.55
1013.3417	2867.2614	959.05	73.2
1013.4587	2868.4007	962.3	75.6
1013.5757	2869.5393	961.4	75.3
1013.6926	2870.6773	965.15	78.55
1013.8095	2871.8146	966.3	79.3
1013.9263	2872.9513	966.4	76.45
1014.0431	2874.0874	959.9	76.2
1014.1599	2875.2227	965.65	81.15
1014.2766	2876.3574	965	81.5
1014.3933	2877.4915	966.3	81.4
1014.51	2878.6249	966.85	81.85
1014.6266	2879.7577	966.7	82.95
1014.7431	2880.8898	980.8	84.9
1014.8596	2882.0212	970.25	85.65
1014.9761	2883.152	969.25	83.05
1015.0925	2884.2821	968.05	84.9
1015.2089	2885.4116	970.95	86.85
1015.3253	2886.5405	973.65	88.75
1015.4416	2887.6686	976.2	87.35
1015.5579	2888.7962	973.1	88.35
1015.6741	2889.923	970.2	87.05
1015.7903	2891.0493	972.6	90
1015.9065	2892.1748	974.8	88.65
1016.0226	2893.2997	973.35	85.85
1016.1387	2894.424	968.4	83.9
1016.2547	2895.5476	971.35	86.4
1016.3707	2896.6706	973.45	89.6
1016.4866	2897.7929	974.95	88.5
1016.6025	2898.9145	973.25	86.8
1016.7184	2900.0355	973.7	89.25
1016.8342	2901.1559	975.45	89.15
1016.95	2902.2756	975.85	87.3
1017.0658	2903.3946	971.15	88.5
1017.1815	2904.513	972	83.8
1017.2971	2905.6308	971.3	89.55
1017.4127	2906.7479	971.7	84.3
1017.5283	2907.8643	967.85	81.5
1017.6439	2908.9801	969.1	82.35
1017.7594	2910.0953	972.8	87.8
1017.8748	2911.2098	973.6	84.8
1017.9902	2912.3236	980.6	88.2
1018.1056	2913.4368	972.7	84.75
1018.2209	2914.5494	970.85	84.8
1018.3362	2915.6613	972.85	80.4
1018.4515	2916.7725	970.65	82.75
1018.5667	2917.8831	970.5	84.85
1018.6819	2918.9931	963.45	75.85
1018.797	2920.1024	964.25	77.95
1018.9121	2921.211	960.9	74.05
1019.0271	2922.319	963.7	78.6
1019.1421	2923.4264	960.4	74.3
1019.2571	2924.5331	960.25	77.65
1019.372	2925.6391	960.1	75.95
1019.4869	2926.7445	957.4	73.65
1019.6017	2927.8493	962.25	77.55
1019.7165	2928.9534	964.6	77.3
1019.8313	2930.0569	962.5	76.05
1019.946	2931.1597	967.65	80.6
1020.0606	2932.2619	960	77.35
1020.1753	2933.3634	960.25	74.35
1020.2899	2934.4643	972.65	81.4
1020.4044	2935.5645	969.5	76.85
1020.5189	2936.6641	971.75	83.15
1020.6334	2937.763	962.95	79.15
1020.7478	2938.8613	966.4	81.6
1020.8622	2939.959	968.85	78.2
1020.9765	2941.056	963.05	77.2
1021.0908	2942.1523	966.35	80.35
1021.2051	2943.248	957.8	71.7
1021.3193	2944.3431	954.3	68.6
1021.4334	2945.4375	949.15	62.5
1021.5476	2946.5313	945.55	59.7
1021.6617	2947.6244	942.95	56.7
1021.7757	2948.7169	939.25	52.75
1021.8897	2949.8087	938.5	54
1022.0037	2950.8999	936.6	52.35
1022.1176	2951.9904	932.75	47.75
1022.2315	2953.0803	930.7	44.35
1022.3453	2954.1696	929.5	44.85
1022.4591	2955.2582	928.25	44.05
1022.5728	2956.3462	929	43.95
1022.6865	2957.4335	927.8	41.65
1022.8002	2958.5202	929.7	44.45
1022.9138	2959.6062	926.65	43.3
1023.0274	2960.6916	924.6	39.9
1023.141	2961.7764	925.25	37.6
1023.2545	2962.8605	925.65	40.45
1023.3679	2963.9439	924	39.1
1023.4813	2965.0267	925.75	38.5
1023.5947	2966.1089	949.45	43.25
1023.708	2967.1905	927.65	41.95
1023.8213	2968.2714	923.6	40.6
1023.9346	2969.3516	923.15	38.1
1024.0478	2970.4312	932.6	40.25
1024.1609	2971.5102	922.75	37.05
1024.274	2972.5885	923.6	39
1024.3871	2973.6662	928.25	37.5
1024.5002	2974.7432	926.35	41.65
1024.6132	2975.8196	926.75	41.5
1024.7261	2976.8954	923.55	38.4
1024.839	2977.9705	923.8	39.05
1024.9519	2979.045	922.7	37.95
1025.0647	2980.1188	925.05	41.3
1025.1775	2981.192	920.55	35.4
1025.2902	2982.2645	926.05	40.5
1025.4029	2983.3364	921.6	35.6
1025.5156	2984.4077	922.2	36.7
1025.6282	2985.4783	925.8	34.75
1025.7407	2986.5483	919.8	33
1025.8532	2987.6177	917	33.45
1025.9657	2988.6864	915.35	30.55
1026.0782	2989.7545	919.1	31.1
1026.1906	2990.8219	915.35	31.3
1026.3029	2991.8887	917.6	31.55
1026.4152	2992.9548	915.05	29.25
1026.5275	2994.0204	910.2	26.05
1026.6397	2995.0852	908.6	23.7
1026.7519	2996.1495	909.4	22.95
1026.864	2997.2131	908.7	22.1
1026.9761	2998.276	907.2	21.45
1027.0882	2999.3383	907.8	21.6
1027.2002	3000.4	906.5	19.75
1027.3122	3001.4611	905.1	22.35
1027.4241	3002.5215	904.05	17.45
1027.536	3003.5812	905.25	20.95
1027.6478	3004.6404	903.65	19.05
1027.7596	3005.6989	905.4	18.9
1027.8714	3006.7567	902.15	19.8
1027.9831	3007.8139	935.1	18.25
1028.0947	3008.8705	902.6	16.2
1028.2064	3009.9264	916.45	14.4
1028.3179	3010.9818	901.75	15.7
1028.4295	3012.0364	900.1	14.8
1028.541	3013.0905	899.25	14.7
1028.6524	3014.1439	900.45	15.45
1028.7638	3015.1966	900.5	15.6
1028.8752	3016.2487	899.45	12.9
1028.9865	3017.3002	906.7	14.45
1029.0978	3018.3511	900.9	16.5
1029.209	3019.4013	900.15	15.75
1029.3202	3020.4509	899.3	14.85
1029.4314	3021.4998	899.65	14.9
1029.5425	3022.5481	899.35	14.8
1029.6535	3023.5958	897.75	13.85
1029.7645	3024.6428	901.1	15.05
1029.8755	3025.6892	899.5	15.6
1029.9864	3026.735	900.8	15.6
1030.0973	3027.7802	900.3	15.5
1030.2082	3028.8247	899.65	15.3
1030.319	3029.8685	899.15	12.95
1030.4297	3030.9118	899.3	13.1
1030.5404	3031.9544	899.05	15
1030.6511	3032.9963	897.55	11.95
1030.7617	3034.0376	897.7	14.75
1030.8723	3035.0783	902.85	16.65
1030.9829	3036.1184	899.3	13.6
1031.0934	3037.1578	898.2	13.6
1031.2038	3038.1966	901.1	11.65
1031.3142	3039.2348	897.45	13.35
1031.4246	3040.2723	907.2	13.7
1031.5349	3041.3092	899.35	16.1
1031.6452	3042.3455	899.05	15.15
1031.7554	3043.3811	900.1	12.9
1031.8656	3044.4161	897.45	12.85
1031.9758	3045.4505	899.2	15.2
1032.0859	3046.4842	900.1	15.45
1032.1959	3047.5173	899.3	16.5
1032.3059	3048.5498	899.7	13.05
1032.4159	3049.5816	899.75	15.05
1032.5258	3050.6128	900.05	11.9
1032.6357	3051.6434	900.6	12.4
1032.7455	3052.6734	901.5	16.35
1032.8553	3053.7027	898.2	14.25
1032.9651	3054.7314	898.55	13.8
1033.0748	3055.7594	899.5	13.5
1033.1845	3056.7868	900.05	12.5
1033.2941	3057.8136	899.65	16.2
1033.4037	3058.8398	898.9	14
1033.5132	3059.8653	898.4	12.85
1033.6227	3060.8902	899.2	14.6
1033.7321	3061.9145	899.75	13.35
1033.8415	3062.9381	898.1	12.65
1033.9509	3063.9612	915.4	15.05
1034.0602	3064.9835	901.4	17.25
1034.1694	3066.0053	902.7	17.2
1034.2787	3067.0264	898.3	13.9
1034.3878	3068.0469	900.15	14.45
1034.497	3069.0668	904	17.45
1034.6061	3070.086	896.9	10.75
1034.7151	3071.1046	904.05	17
1034.8241	3072.1226	899.7	12.15
1034.9331	3073.1399	898.3	14.4
1035.042	3074.1567	898.75	13.8
1035.1508	3075.1727	901.55	16.7
1035.2597	3076.1882	898.35	11.5
1035.3684	3077.203	896.6	11
1035.4772	3078.2173	897.55	10.1
1035.5859	3079.2308	900.7	12.45
1035.6945	3080.2438	899.8	10.75
1035.8031	3081.2561	896.35	10.95
1035.9117	3082.2678	896.8	10.7
1036.0202	3083.2789	897.7	13.45
1036.1286	3084.2893	897.4	13
1036.2371	3085.2991	896.8	10.1
1036.3454	3086.3083	900.95	11.1
1036.4538	3087.3169	897.4	10.5
1036.562	3088.3248	898.35	12.05
1036.6703	3089.3321	896.4	10.9
1036.7785	3090.3388	896.05	12
1036.8866	3091.3449	896	10.2
1036.9948	3092.3503	899.4	12.15
1037.1028	3093.3551	893.8	10.65
1037.2108	3094.3593	894.9	10.75
1037.3188	3095.3629	894.2	10.35
1037.4267	3096.3658	896.5	9.15
1037.5346	3097.3681	895.6	11.1
1037.6425	3098.3698	895.9	9
1037.7503	3099.3708	895.15	10.85
1037.858	3100.3713	895.2	10.75
1037.9657	3101.3711	896.3	9.75
1038.0734	3102.3702	1034.75	8.65
1038.181	3103.3688	896.6	8.55
1038.2886	3104.3667	895.85	12.8
1038.3961	3105.364	893	9.7
1038.5036	3106.3607	897.8	10.95
1038.611	3107.3568	897.6	14.5
1038.7184	3108.3522	893.25	7.05
1038.8257	3109.347	895.2	9.55
1038.933	3110.3412	896.05	7.45
1039.0403	3111.3348	892.25	8.25
1039.1475	3112.3277	893.2	7.6
1039.2547	3113.32	892.3	7.75
1039.3618	3114.3117	894.7	8.65
1039.4689	3115.3028	893.3	9.35
1039.5759	3116.2932	895.6	7.8
1039.6829	3117.2831	900.1	8.35
1039.7898	3118.2723	893.2	8.25
1039.8967	3119.2608	892	7.95
1040.0035	3120.2488	896.15	11.2
1040.1103	3121.2361	893.05	9.55
1040.2171	3122.2229	892.95	6.6
1040.3238	3123.209	891.55	5.15
1040.4305	3124.1944	891.05	5.65
1040.5371	3125.1793	893.75	7.55
1040.6437	3126.1635	893.6	10.4
1040.7502	3127.1471	893.45	9.3
1040.8567	3128.1301	893.2	6.65
1040.9631	3129.1125	892.7	8.25
1041.0695	3130.0942	890.6	4.7
1041.1759	3131.0753	899.05	7.15
1041.2822	3132.0558	895.35	9.15
1041.3884	3133.0357	891.35	6.15
1041.4946	3134.015	893.4	7.9
1041.6008	3134.9936	894.45	6.9
1041.7069	3135.9716	913.65	7.05
1041.813	3136.949	893.95	8.9
1041.919	3137.9258	909.75	6.1
1042.025	3138.902	897.3	7.5
1042.1309	3139.8775	890.25	6.4
1042.2368	3140.8524	891.45	5.4
1042.3427	3141.8267	892.75	6.2
1042.4485	3142.8004	893.05	8.6
1042.5542	3143.7735	898.05	7.7
1042.6599	3144.7459	895.55	7.45
1042.7656	3145.7178	892.15	6.05
1042.8712	3146.689	889.75	4.7
1042.9768	3147.6596	892.35	6.05
1043.0823	3148.6295	892.15	6
1043.1878	3149.5989	892.3	6.8
1043.2932	3150.5676	890.1	5.35
1043.3986	3151.5357	890.7	5.65
1043.5039	3152.5032	890.9	8.45
1043.6092	3153.4701	890.15	3.05
1043.7145	3154.4364	893.7	6.65
1043.8197	3155.402	891.5	6.5
1043.9248	3156.367	892	4.5
1044.03	3157.3315	911.95	8.7
1044.135	3158.2952	891.5	5.75
1044.24	3159.2584	890.95	7.3
1044.345	3160.221	891.4	5.8
1044.4499	3161.1829	889.85	4.45
1044.5548	3162.1442	891	6.65
1044.6596	3163.105	889.95	5.85
1044.7644	3164.065	891.9	7.7
1044.8692	3165.0245	893.3	8.1
1044.9739	3165.9834	889	3.75
1045.0785	3166.9416	891.35	5.35
1045.1831	3167.8993	890.05	4.5
1045.2877	3168.8563	891.35	8.2
1045.3922	3169.8127	890.35	4.95
1045.4966	3170.7684	891.35	4.75
1045.6011	3171.7236	892.35	5.9
1045.7054	3172.6782	890.4	4.25
1045.8098	3173.6321	891.55	5.3
1045.914	3174.5854	895.2	4.05
1046.0183	3175.5381	890.35	4.1
1046.1224	3176.4902	890.75	6.85
1046.2266	3177.4417	890.65	5.15
1046.3307	3178.3926	889.05	4.65
1046.4347	3179.3428	888.25	2.75
1046.5387	3180.2924	889.45	4.85
1046.6427	3181.2415	890.6	7
1046.7466	3182.1899	891.6	5
1046.8504	3183.1377	890	5.6
1046.9542	3184.0848	895.2	7.05
1047.058	3185.0314	891.6	7.95
1047.1617	3185.9773	892.85	8
1047.2654	3186.9227	891.75	5.45
1047.369	3187.8674	890.55	6.3
1047.4726	3188.8115	894.35	5.15
1047.5761	3189.755	889.35	4
1047.6796	3190.6979	890.4	4.4
1047.783	3191.6402	889.75	6.6
1047.8864	3192.5818	889.35	3.45
1047.9898	3193.5229	904.7	8.1
1048.0931	3194.4633	890.5	5.05
1048.1963	3195.4031	889.4	5.1
1048.2995	3196.3423	892.6	10.6
1048.4027	3197.2809	889.65	2.15
1048.5058	3198.2189	890.95	6.4
1048.6089	3199.1563	904.85	3.75
1048.7119	3200.0931	889.4	4
1048.8148	3201.0292	889.05	5.35
1048.9178	3201.9648	891.9	6.4
1049.0206	3202.8997	893.4	3.9
1049.1235	3203.834	889.95	6.1
1049.2262	3204.7677	887.25	3.65
1049.329	3205.7008	891.75	5.5
1049.4317	3206.6333	888.5	5.5
1049.5343	3207.5652	889.2	1.9
1049.6369	3208.4964	888.15	3.85
1049.7394	3209.4271	890.1	7.1
1049.8419	3210.3571	887.95	2.9
1049.9444	3211.2865	889.55	2.5
1050.0468	3212.2154	891.15	6.25
1050.1491	3213.1436	891.25	3.75
1050.2514	3214.0712	896.2	4.45
1050.3537	3214.9982	890.75	5.25
1050.4559	3215.9246	888.75	2.9
1050.5581	3216.8503	889.15	5.55
1050.6602	3217.7755	890.65	5.4
1050.7623	3218.7001	888	3.65
1050.8643	3219.624	888.6	3.25
1050.9663	3220.5473	887.3	0.8
1051.0682	3221.4701	892.1	6.1
1051.1701	3222.3922	892	4.55
1051.2719	3223.3137	889.65	2.85
1051.3737	3224.2346	890.55	5.65
1051.4754	3225.1549	887.9	3.25
1051.5771	3226.0746	888	4.4
1051.6788	3226.9937	887.7	2.95
1051.7804	3227.9121	888.3	1.45
1051.8819	3228.83	888.75	5.05
1051.9834	3229.7473	890.05	2.95
1052.0849	3230.6639	891	4.95
1052.1863	3231.5799	891.25	7.2
1052.2876	3232.4954	890	4.55
1052.3889	3233.4102	889.65	5.1
1052.4902	3234.3244	889.9	4.3
1052.5914	3235.238	889.1	3.5
1052.6926	3236.151	911.35	2.4
1052.7937	3237.0634	887.1	2.45
1052.8948	3237.9752	889.2	4.55
1052.9958	3238.8864	888.1	2.7
1053.0968	3239.797	888.55	2.2
1053.1977	3240.7069	891	7.6
1053.2986	3241.6163	890.45	3.4
1053.3994	3242.5251	888.55	4.15
1053.5002	3243.4332	887.1	2.65
1053.6009	3244.3408	889.55	3.85
1053.7016	3245.2477	887.65	1.7
1053.8022	3246.154	889.45	3.6
1053.9028	3247.0598	890.8	5.7
1054.0034	3247.9649	889	6.1
1054.1039	3248.8694	891.2	5.8
1054.2043	3249.7733	887.25	3.55
1054.3047	3250.6766	887.35	1.5
1054.4051	3251.5793	889.2	3.35
1054.5054	3252.4814	891.45	6.75
1054.6056	3253.3829	888.95	2.2
1054.7058	3254.2838	889.75	6.65
1054.806	3255.1841	887.65	2.75
1054.9061	3256.0838	889	4.25
1055.0061	3256.9829	887.75	3.85
1055.1062	3257.8814	892.2	5.1
1055.2061	3258.7792	890.95	5.35
1055.306	3259.6765	889.7	3.5
1055.4059	3260.5731	887.5	2.2
1055.5057	3261.4692	889.3	2.95
1055.6055	3262.3647	891.3	5.65
1055.7052	3263.2595	888.7	4.15
1055.8049	3264.1538	888.45	4.7
1055.9045	3265.0474	889.35	4.75
1056.0041	3265.9404	889.55	5.2
1056.1036	3266.8329	887.8	3.15
1056.2031	3267.7247	899.1	5.3
1056.3025	3268.616	887.5	0.6
1056.4019	3269.5066	888.35	1.7
1056.5013	3270.3966	890.9	2.4
1056.6005	3271.286	886.9	3.15
