Software Version:	3.9.2.0
Unit SN:	10000200
Spectrometer SN:	6960
Date:	3/6/2024 10:17:31 AM
Data Line Index:	25
Spectral Points:	2048
Integration time (ms):	125
Averages:	20
Delay (ms):	30
Sequence Number:	1
Processing:	dark subtract
Laser Power (mW):	300
Laser Current (mA):	826
Laser Diode Temp (C):	25.1
Laser Case Temp (C):	25.2
System Temp (C):	24.9
Spectrometer Temp (C):	22.5
CCD Temp (C):	-0.003
Secondary Temp (C):	20.006
Heatsink Temp (C):	20.068
CCDPCB Temp (C):	32.961
SecondaryPCB Temp (C):	26.114

Wavelength	RamanShift	Raw Counts	Dark Subtracted
787.061	30.1047	1095.7	686.3
787.2016	32.3739	1114.55	706.4
787.3422	34.6426	1153.65	746.1
787.4828	36.9109	1201.45	790.05
787.6235	39.1787	1249.95	835.55
787.7642	41.4461	1309.85	889.85
787.9049	43.7131	1372.35	949
788.0456	45.9796	1432.65	1007.1
788.1863	48.2456	1493.75	1065.4
788.3271	50.5112	1555.95	1123.9
788.4679	52.7764	1622	1185.35
788.6087	55.0411	1701.55	1261.8
788.7496	57.3054	1780.55	1335.95
788.8904	59.5692	1866.5	1418.65
789.0313	61.8326	1954.25	1504.3
789.1722	64.0955	2055.85	1602.5
789.3132	66.3579	2169.2	1710.8
789.4541	68.6199	2312.6	1852.4
789.5951	70.8815	2566.1	2100.45
789.7361	73.1426	3103.9	2634.8
789.8771	75.4032	4467.2	3994.85
790.0181	77.6634	7981.3	7502.7
790.1592	79.9231	17424.7	16939.65
790.3003	82.1824	54880.55	54383.45
790.4414	84.4412	65535	65018.6
790.5825	86.6995	65535	64994
790.7237	88.9574	65535	64967.3
790.8648	91.2148	65535	64951.35
791.006	93.4717	65535	64942.2
791.1472	95.7282	65535	64938.8
791.2885	97.9842	65535	64939.05
791.4297	100.2398	65535	64933.1
791.571	102.4949	65535	64928.5
791.7123	104.7495	65535	64923.05
791.8536	107.0036	65535	64927.55
791.9949	109.2573	65535	64925.25
792.1363	111.5105	65535	64920.8
792.2777	113.7632	65535	64920.9
792.4191	116.0154	65535	64908.9
792.5605	118.2672	65535	64915.9
792.7019	120.5185	65535	64918.25
792.8434	122.7693	65535	64913.25
792.9849	125.0197	65535	64906.75
793.1264	127.2696	65535	64902.5
793.2679	129.519	65535	64899.05
793.4094	131.7679	65535	64898.2
793.551	134.0163	65535	64895.45
793.6926	136.2642	65535	64893.9
793.8342	138.5117	65535	64882.9
793.9758	140.7587	65535	64885.2
794.1175	143.0052	65535	64886.45
794.2591	145.2512	65535	64886.05
794.4008	147.4967	65535	64884.55
794.5425	149.7417	65535	64880.15
794.6842	151.9863	65535	64875.2
794.826	154.2304	65535	64874.65
794.9677	156.4739	65535	64868.75
795.1095	158.717	65535	64871.15
795.2513	160.9596	65535	64864.15
795.3931	163.2017	65535	64860.4
795.535	165.4433	65535	64860.5
795.6768	167.6844	65535	64858.6
795.8187	169.925	65535	64855.85
795.9606	172.1651	65535	64853
796.1025	174.4047	65535	64848.15
796.2445	176.6439	65535	64844.4
796.3864	178.8825	65535	64847.15
796.5284	181.1206	65535	64838.35
796.6704	183.3582	65535	64836.85
796.8124	185.5954	65535	64836.85
796.9544	187.832	65535	64831.4
797.0965	190.0681	65535	64830.95
797.2386	192.3037	65535	64824.3
797.3806	194.5388	65535	64823.35
797.5228	196.7734	65535	64820.25
797.6649	199.0075	65535	64823.6
797.807	201.2411	65535	64819.15
797.9492	203.4742	65535	64820.45
798.0914	205.7068	65535	64813.8
798.2336	207.9389	65535	64808.2
798.3758	210.1704	65535	64814.8
798.518	212.4015	65535	64819.15
798.6603	214.632	65535	64826.9
798.8025	216.862	65535	64836.85
798.9448	219.0915	65535	64830.9
799.0871	221.3205	65535	64829.15
799.2294	223.549	65535	64834.8
799.3718	225.777	65535	64831.05
799.5141	228.0044	65535	64827.25
799.6565	230.2314	65535	64825.4
799.7989	232.4578	65535	64821.2
799.9413	234.6837	65535	64813.2
800.0837	236.909	65535	64813.15
800.2262	239.1339	65535	64788.2
800.3687	241.3582	65535	64804.65
800.5111	243.582	65535	64772.15
800.6536	245.8053	65535	64784.3
800.7961	248.0281	65535	64788.4
800.9387	250.2503	65535	64786.55
801.0812	252.472	65535	64784.5
801.2238	254.6932	65535	64786.9
801.3664	256.9139	65535	64784.35
801.509	259.134	65535	64775.65
801.6516	261.3536	65535	64781.85
801.7942	263.5727	65535	64778.35
801.9369	265.7912	65535	64782
802.0795	268.0092	65535	64777.6
802.2222	270.2267	65535	64777.9
802.3649	272.4436	65535	64779.9
802.5076	274.6601	65535	64767.25
802.6504	276.8759	65535	64770.6
802.7931	279.0913	65535	64769.95
802.9359	281.3061	65535	64771.85
803.0787	283.5204	65535	64769.25
803.2215	285.7341	65535	64765.25
803.3643	287.9473	65535	64749.95
803.5071	290.16	65535	64758.85
803.6499	292.3721	65535	64765.6
803.7928	294.5837	65535	64762.2
803.9357	296.7947	65535	64764.65
804.0786	299.0052	65535	64763.4
804.2215	301.2152	65535	64758.8
804.3644	303.4246	65535	64763.05
804.5074	305.6334	65535	64764.25
804.6503	307.8418	65535	64761.05
804.7933	310.0495	65535	64760.9
804.9363	312.2568	65535	64760.1
805.0793	314.4635	65535	64755
805.2223	316.6696	65535	64753.9
805.3653	318.8752	65535	64747.55
805.5084	321.0802	65535	64751.9
805.6514	323.2847	65535	64749.5
805.7945	325.4887	65535	64750.1
805.9376	327.692	65535	64749.25
806.0807	329.8949	65535	64746.45
806.2238	332.0972	65535	64744.75
806.367	334.2989	65535	64743.95
806.5101	336.5001	65535	64742.75
806.6533	338.7007	65535	64743.85
806.7965	340.9008	65535	64740.4
806.9397	343.1003	65535	64738.5
807.0829	345.2992	65535	64735.05
807.2261	347.4976	65535	64735.8
807.3693	349.6955	65535	64731.35
807.5126	351.8927	65535	64734.95
807.6559	354.0895	65535	64721.2
807.7991	356.2856	65535	64728.8
807.9424	358.4812	65535	64733.6
808.0857	360.6763	65535	64724.25
808.2291	362.8707	65535	64725.7
808.3724	365.0646	65535	64723.95
808.5158	367.258	65535	64723.15
808.6591	369.4508	65535	64721.4
808.8025	371.643	65535	64719.1
808.9459	373.8346	65535	64718.65
809.0893	376.0257	65535	64713.8
809.2327	378.2162	65535	64716.5
809.3762	380.4062	65535	64714.6
809.5196	382.5956	65535	64715.65
809.6631	384.7844	65535	64717.7
809.8066	386.9726	65535	64719.25
809.9501	389.1603	65535	64724.05
810.0936	391.3474	65535	64682.65
810.2371	393.5339	65535	64720.2
810.3806	395.7199	65535	64724.5
810.5241	397.9052	65535	64725.3
810.6677	400.09	65535	64722.25
810.8113	402.2743	65535	64722.1
810.9548	404.4579	65535	64720.15
811.0984	406.641	65535	64719.9
811.2421	408.8235	65535	64715.2
811.3857	411.0054	65535	64713.85
811.5293	413.1868	65535	64712.8
811.673	415.3675	65535	64705.75
811.8166	417.5477	65535	64709.85
811.9603	419.7273	65535	64704.55
812.104	421.9064	65535	64700.35
812.2477	424.0848	65535	64703.05
812.3914	426.2627	65535	64700.9
812.5351	428.4399	65535	64703.7
812.6788	430.6166	65535	64696.75
812.8226	432.7928	65535	64699.1
812.9663	434.9683	65535	64696.65
813.1101	437.1432	65535	64695.05
813.2539	439.3176	65535	64696.9
813.3977	441.4914	65535	64697.3
813.5415	443.6645	65535	64697.15
813.6853	445.8371	65535	64700.35
813.8291	448.0091	65535	64698.85
813.973	450.1806	65535	64696.35
814.1168	452.3514	65535	64693.15
814.2607	454.5216	65535	64682.9
814.4046	456.6913	65535	64694.15
814.5485	458.8603	65535	64693.35
814.6924	461.0288	65535	64693.95
814.8363	463.1967	65535	64694.1
814.9802	465.3639	65535	64691.7
815.1241	467.5306	65535	64693.95
815.2681	469.6967	65535	64691.05
815.412	471.8622	65535	64695.6
815.556	474.0271	65535	64691.05
815.7	476.1914	65535	64689.25
815.844	478.3551	65535	64691.45
815.988	480.5182	65535	64687.8
816.132	482.6807	65535	64691.7
816.276	484.8426	65535	64691
816.4201	487.0039	65535	64689.9
816.5641	489.1647	65535	64685.25
816.7082	491.3248	65535	64690.8
816.8522	493.4843	65535	64689.1
816.9963	495.6432	65535	64684.25
817.1404	497.8015	65535	64680.9
817.2845	499.9592	65535	64684.2
817.4286	502.1163	65535	64681.8
817.5727	504.2728	65535	64681.7
817.7168	506.4287	65535	64684.85
817.861	508.5839	65535	64682.4
818.0051	510.7386	65535	64685.1
818.1493	512.8927	65535	64679.65
818.2935	515.0461	65535	64680.6
818.4377	517.199	65535	64683
818.5818	519.3512	65535	64679.65
818.726	521.5029	65535	64674.8
818.8703	523.6539	65535	64676.3
819.0145	525.8043	65535	64678.25
819.1587	527.9541	65535	64675.55
819.303	530.1033	65535	64678.4
819.4472	532.2519	65535	64677.2
819.5915	534.3999	65535	64672.85
819.7357	536.5472	65535	64677.85
819.88	538.694	65535	64678.45
820.0243	540.8401	65535	64672.7
820.1686	542.9856	65535	64672.9
820.3129	545.1305	65535	64670.6
820.4572	547.2748	65535	64673.35
820.6016	549.4185	65535	64673.8
820.7459	551.5615	65535	64670.6
820.8902	553.704	65535	64672.7
821.0346	555.8458	65535	64672.2
821.1789	557.987	65535	64675.25
821.3233	560.1276	65535	64669.05
821.4677	562.2675	65535	64671.4
821.6121	564.4069	65535	64671.75
821.7565	566.5456	65535	64670.7
821.9009	568.6837	65535	64672.1
822.0453	570.8212	65535	64674.75
822.1897	572.958	65535	64666.3
822.3342	575.0942	65535	64672.9
822.4786	577.2299	65535	64664.5
822.6231	579.3648	65535	64671.45
822.7675	581.4992	65535	64671.35
822.912	583.6329	65535	64671.45
823.0565	585.766	65535	64672.55
823.201	587.8985	65535	64669.7
823.3454	590.0304	65535	64642.6
823.4899	592.1616	65535	64666.1
823.6345	594.2922	65535	64666.3
823.779	596.4222	65535	64662.85
823.9235	598.5515	65535	64663.65
824.068	600.6802	65535	64665.6
824.2126	602.8083	65535	64667
824.3571	604.9358	65535	64663.6
824.5017	607.0626	65535	64664.55
824.6462	609.1888	65535	64664.6
824.7908	611.3144	65535	64664.25
824.9354	613.4393	65535	64664.3
825.08	615.5636	65535	64664.75
825.2246	617.6873	65535	64663.65
825.3692	619.8103	65535	64661.9
825.5138	621.9327	65535	64659.45
825.6584	624.0544	65535	64663.95
825.803	626.1756	65535	64664.3
825.9477	628.2961	65535	64662.05
826.0923	630.4159	65535	64660.15
826.237	632.5351	65535	64660.3
826.3816	634.6537	65535	64660.75
826.5263	636.7716	65535	64657.8
826.6709	638.8889	65535	64660.65
826.8156	641.0056	65535	64658.35
826.9603	643.1216	65535	64656.2
827.105	645.237	65535	64659.25
827.2497	647.3518	65535	64662.6
827.3944	649.4659	65535	64659.7
827.5391	651.5793	65535	64658.25
827.6838	653.6922	65535	64659.05
827.8285	655.8043	65535	64658.8
827.9733	657.9159	65535	64654.25
828.118	660.0268	65535	64656
828.2627	662.137	65535	64654.75
828.4075	664.2466	65535	64652.55
828.5522	666.3556	65535	64653.75
828.697	668.4639	65535	64654.3
828.8418	670.5716	65535	64658.35
828.9865	672.6786	65535	64654.3
829.1313	674.785	65535	64649.2
829.2761	676.8907	65535	64653.9
829.4209	678.9958	65535	64655.5
829.5657	681.1002	65535	64652.35
829.7105	683.204	65535	64649.1
829.8553	685.3072	65535	64652.95
830.0001	687.4097	65535	64652.9
830.1449	689.5115	65535	64654.25
830.2898	691.6127	65535	64653.55
830.4346	693.7132	65535	64652.5
830.5794	695.8131	65535	64627.05
830.7243	697.9123	65535	64648.5
830.8691	700.0109	65535	64651.85
831.014	702.1089	65535	64649.6
831.1588	704.2061	65535	64652.35
831.3037	706.3028	65535	64648.35
831.4486	708.3987	65535	64650.65
831.5935	710.4941	65535	64651
831.7383	712.5887	65535	64648.95
831.8832	714.6827	65535	64643.85
832.0281	716.7761	65535	64651.45
832.173	718.8688	65535	64649.45
832.3179	720.9608	65535	64647.05
832.4628	723.0522	65535	64644.3
832.6077	725.1429	65535	64648.65
832.7527	727.233	65535	64647.15
832.8976	729.3224	65535	64647.6
833.0425	731.4112	65535	64646.8
833.1874	733.4993	65535	64645.35
833.3324	735.5867	65535	64645.2
833.4773	737.6735	65535	64645
833.6222	739.7596	65535	64646.15
833.7672	741.845	65535	64643.95
833.9122	743.9298	65535	64643.15
834.0571	746.014	65535	64646.75
834.2021	748.0974	65535	64644.85
834.347	750.1802	65535	64648.3
834.492	752.2624	65535	64647.25
834.637	754.3439	65535	64647.25
834.782	756.4247	65535	64635.85
834.9269	758.5048	65535	64644.9
835.0719	760.5843	65535	64642.7
835.2169	762.6631	65535	64646.4
835.3619	764.7413	65535	64648.05
835.5069	766.8188	65535	64643.7
835.6519	768.8956	65535	64643.9
835.7969	770.9718	65535	64648.4
835.9419	773.0473	65535	64648.35
836.0869	775.1221	65535	64644.1
836.232	777.1962	65535	64643.25
836.377	779.2697	65535	64643.3
836.522	781.3426	65535	64621
836.667	783.4147	65535	64640.45
836.8121	785.4862	65535	64644.7
836.9571	787.557	65535	64643.65
837.1021	789.6271	65535	64641.85
837.2472	791.6966	65535	64644.5
837.3922	793.7654	65535	64643.35
837.5373	795.8335	65535	64645.75
837.6823	797.901	65535	64645.85
837.8274	799.9678	65535	64642.65
837.9724	802.0339	65535	64642
838.1175	804.0993	65535	64632.5
838.2626	806.1641	65535	64640.5
838.4076	808.2282	65535	64642.3
838.5527	810.2916	65535	64640.4
838.6978	812.3544	65535	64643.45
838.8428	814.4164	65535	64644.65
838.9879	816.4778	65535	64639.35
839.133	818.5385	65535	64643.45
839.2781	820.5986	65535	64642.65
839.4232	822.658	65535	64641.2
839.5682	824.7166	65535	64643.3
839.7133	826.7747	65535	64641.2
839.8584	828.832	65535	64643.5
840.0035	830.8886	65535	64639.55
840.1486	832.9446	65535	64638.15
840.2937	834.9999	65535	64642.85
840.4388	837.0545	65535	64638.2
840.5839	839.1085	65535	64637.95
840.729	841.1618	65535	64636.1
840.8741	843.2143	65535	64639.6
841.0192	845.2662	65535	64641.65
841.1643	847.3175	65535	64641.4
841.3095	849.368	65535	64640.65
841.4546	851.4179	65535	64642.05
841.5997	853.467	65535	64641.05
841.7448	855.5155	65535	64638.45
841.8899	857.5633	65535	64639.45
842.0351	859.6105	65535	64638.75
842.1802	861.6569	65535	64639.1
842.3253	863.7027	65535	64637.4
842.4704	865.7478	65535	64637.75
842.6156	867.7922	65535	64640.35
842.7607	869.8359	65535	64636.1
842.9058	871.8789	65535	64638.2
843.0509	873.9212	65535	64607.95
843.1961	875.9629	65535	64638.1
843.3412	878.0039	65535	64639.55
843.4863	880.0441	65535	64639.35
843.6315	882.0837	65535	64636.45
843.7766	884.1226	65535	64638.7
843.9218	886.1609	65535	64642.6
844.0669	888.1984	65535	64638.65
844.212	890.2352	65535	64642.1
844.3572	892.2714	65535	64637.75
844.5023	894.3069	65535	64638.05
844.6475	896.3416	65535	64640.1
844.7926	898.3757	65535	64637.85
844.9377	900.4091	65535	64637.95
845.0829	902.4418	65535	64634.65
845.228	904.4739	65535	64634.9
845.3732	906.5052	65535	64638.25
845.5183	908.5358	65535	64638.7
845.6635	910.5658	65535	64633.4
845.8086	912.595	65535	64636.35
845.9538	914.6236	65535	64638.8
846.0989	916.6515	65535	64637.2
846.2441	918.6786	65535	64638.5
846.3892	920.7051	65535	64636.7
846.5344	922.7309	65535	64635.95
846.6795	924.756	65535	64637.8
846.8246	926.7804	65535	64635.95
846.9698	928.8041	65535	64637.95
847.1149	930.8272	65535	64637.6
847.2601	932.8495	65535	64633.75
847.4052	934.8711	65535	64638.9
847.5504	936.892	65535	64636.7
847.6955	938.9123	65535	64634.55
847.8407	940.9318	65535	64636.55
847.9858	942.9506	65535	64635.45
848.131	944.9688	65535	64636
848.2761	946.9862	65535	64634
848.4213	949.003	65535	64635.35
848.5664	951.019	65535	64636.85
848.7115	953.0344	65535	64636.65
848.8567	955.0491	65535	64636.8
849.0018	957.063	65535	64636.35
849.147	959.0763	65535	64636.4
849.2921	961.0888	65535	64631.8
849.4373	963.1007	65535	64635.2
849.5824	965.1119	65535	64636.95
849.7275	967.1223	65535	64639.05
849.8727	969.1321	65535	64640.45
850.0178	971.1412	65535	64638
850.1629	973.1495	65535	64637.15
850.3081	975.1572	65535	64604.4
850.4532	977.1641	65535	64635.5
850.5983	979.1704	65535	64636.55
850.7435	981.1759	65535	64632.3
850.8886	983.1808	65535	64635.35
851.0337	985.1849	65535	64624
851.1788	987.1884	65535	64633.3
851.324	989.1911	65535	64632.9
851.4691	991.1932	65535	64635.9
851.6142	993.1945	65535	64634.6
851.7593	995.1951	65535	64637
851.9045	997.1951	65535	64631.4
852.0496	999.1943	65535	64635.6
852.1947	1001.1928	65535	64636.65
852.3398	1003.1906	65535	64634.65
852.4849	1005.1877	65535	64634.8
852.63	1007.1841	65535	64635.35
852.7751	1009.1798	65535	64635.6
852.9202	1011.1748	65535	64637.45
853.0653	1013.1691	65535	64636.55
853.2104	1015.1627	65535	64636.05
853.3555	1017.1556	65535	64635.6
853.5006	1019.1477	65535	64636.35
853.6457	1021.1392	65535	64637.5
853.7908	1023.1299	65535	64638.15
853.9359	1025.12	65535	64634.8
854.081	1027.1093	65535	64640.25
854.2261	1029.0979	65535	64638.6
854.3712	1031.0859	65535	64638.25
854.5163	1033.0731	65535	64638.55
854.6613	1035.0596	65535	64637
854.8064	1037.0454	65535	64636.8
854.9515	1039.0304	65535	64634.1
855.0965	1041.0148	65535	64635.4
855.2416	1042.9985	65535	64632.45
855.3867	1044.9814	65535	64638.9
855.5317	1046.9636	65535	64636.15
855.6768	1048.9452	65535	64635.5
855.8219	1050.926	65535	64638.3
855.9669	1052.9061	65535	64638.15
856.112	1054.8855	65535	64635.85
856.257	1056.8642	65535	64636.5
856.4021	1058.8421	65535	64633.75
856.5471	1060.8194	65535	64635.5
856.6921	1062.7959	65535	64635.4
856.8372	1064.7717	65535	64633.95
856.9822	1066.7469	65535	64634.25
857.1272	1068.7213	65535	64633
857.2723	1070.695	65535	64636.15
857.4173	1072.6679	65535	64635
857.5623	1074.6402	65535	64636
857.7073	1076.6117	65535	64630.85
857.8523	1078.5826	65535	64635.95
857.9973	1080.5527	65535	64632
858.1423	1082.5221	65535	64636.45
858.2873	1084.4908	65535	64636
858.4323	1086.4587	65535	64635
858.5773	1088.426	65535	64633.65
858.7223	1090.3925	65535	64634.35
858.8673	1092.3584	65535	64636.1
859.0123	1094.3235	65535	64638.1
859.1573	1096.2879	65535	64637.1
859.3022	1098.2515	65535	64637.7
859.4472	1100.2145	65535	64637.7
859.5922	1102.1767	65535	64634.7
859.7371	1104.1382	65535	64635.45
859.8821	1106.099	65535	64636.8
860.027	1108.0591	65535	64635.55
860.172	1110.0185	65535	64634.45
860.3169	1111.9771	65535	64636.85
860.4619	1113.9351	65535	64635.95
860.6068	1115.8923	65535	64634.2
860.7517	1117.8488	65535	64635.2
860.8967	1119.8045	65535	64636.4
861.0416	1121.7596	65535	64635.85
861.1865	1123.7139	65535	64639.3
861.3314	1125.6675	65535	64635
861.4763	1127.6204	65535	64636.5
861.6212	1129.5726	65535	64634.65
861.7661	1131.524	65535	64634.8
861.911	1133.4748	65535	64636.7
862.0559	1135.4248	65535	64636.2
862.2008	1137.3741	65535	64636.2
862.3457	1139.3226	65535	64634.7
862.4905	1141.2705	65535	64637.6
862.6354	1143.2176	65535	64631.15
862.7803	1145.164	65535	64633.45
862.9251	1147.1097	65535	64635.1
863.07	1149.0546	65535	64635.9
863.2148	1150.9989	65535	64637.55
863.3597	1152.9424	65535	64636.3
863.5045	1154.8852	65535	64637.15
863.6493	1156.8272	65535	64636.65
863.7942	1158.7686	65535	64627.9
863.939	1160.7092	65535	64633.75
864.0838	1162.6491	65535	64633.3
864.2286	1164.5883	65535	64637.05
864.3734	1166.5267	65535	64636.75
864.5182	1168.4644	65535	64638.5
864.663	1170.4014	65535	64631.55
864.8078	1172.3377	65535	64637.35
864.9526	1174.2732	65535	64638.95
865.0974	1176.2081	65535	64637.4
865.2421	1178.1421	65535	64632.05
865.3869	1180.0755	65535	64639.05
865.5317	1182.0082	65535	64638.7
865.6764	1183.9401	65535	64637.15
865.8212	1185.8713	65535	64635.6
865.9659	1187.8017	65535	64637.8
866.1106	1189.7315	65535	64640.65
866.2554	1191.6605	65535	64612
866.4001	1193.5888	65535	64636.95
866.5448	1195.5163	65535	64638.25
866.6895	1197.4432	65535	64635.6
866.8342	1199.3693	65535	64637.05
866.9789	1201.2947	65535	64634.85
867.1236	1203.2193	65535	64636.4
867.2683	1205.1432	65535	64635.95
867.413	1207.0664	65535	64637
867.5576	1208.9889	65535	64634.7
867.7023	1210.9106	65535	64636.75
867.847	1212.8316	65535	64639.55
867.9916	1214.7519	65535	64627.35
868.1363	1216.6715	65535	64638.2
868.2809	1218.5903	65535	64637.15
868.4255	1220.5084	65535	64636.8
868.5701	1222.4257	65535	64637.2
868.7148	1224.3424	65535	64637.6
868.8594	1226.2583	65535	64631.85
869.004	1228.1735	65535	64636.3
869.1486	1230.0879	65535	64637.8
869.2932	1232.0016	65535	64639.5
869.4377	1233.9146	65535	64636.1
869.5823	1235.8269	65535	64636
869.7269	1237.7384	65535	64636.7
869.8715	1239.6492	65535	64636.1
870.016	1241.5592	65535	64639.65
870.1606	1243.4686	65535	64637.2
870.3051	1245.3772	65535	64639.7
870.4496	1247.285	65535	64638.55
870.5941	1249.1922	65535	64640.65
870.7387	1251.0986	65535	64639.25
870.8832	1253.0042	65535	64636.7
871.0277	1254.9092	65535	64636.95
871.1722	1256.8134	65535	64638.4
871.3167	1258.7169	65535	64634.05
871.4611	1260.6196	65535	64638.8
871.6056	1262.5216	65535	64635.85
871.7501	1264.4229	65535	64637.6
871.8945	1266.3234	65535	64638
872.039	1268.2232	65535	64635.95
872.1834	1270.1223	65535	64635.8
872.3278	1272.0207	65535	64638.65
872.4723	1273.9183	65535	64632
872.6167	1275.8151	65535	64638.4
872.7611	1277.7113	65535	64635.5
872.9055	1279.6067	65535	64637.55
873.0499	1281.5014	65535	64634.55
873.1943	1283.3953	65535	64637
873.3386	1285.2885	65535	64639.2
873.483	1287.181	65535	64636.05
873.6274	1289.0727	65535	64638.05
873.7717	1290.9637	65535	64638.35
873.9161	1292.854	65535	64637.4
874.0604	1294.7435	65535	64637.05
874.2047	1296.6323	65535	64636.7
874.349	1298.5204	65535	64635.3
874.4933	1300.4077	65535	64637.65
874.6376	1302.2943	65535	64638.1
874.7819	1304.1802	65535	64638.2
874.9262	1306.0653	65535	64633.2
875.0705	1307.9497	65535	64635.7
875.2147	1309.8333	65535	64638.45
875.359	1311.7162	65535	64638
875.5032	1313.5984	65535	64634.05
875.6475	1315.4798	65535	64621.25
875.7917	1317.3605	65535	64618.7
875.9359	1319.2405	65535	64636.55
876.0801	1321.1197	65535	64634.55
876.2243	1322.9982	65535	64632.95
876.3685	1324.876	65535	64638.15
876.5127	1326.753	65535	64637.45
876.6569	1328.6293	65535	64636.1
876.801	1330.5048	65535	64635.1
876.9452	1332.3796	65535	64638
877.0893	1334.2537	65535	64609.35
877.2335	1336.127	65535	64637.2
877.3776	1337.9996	65535	64638.15
877.5217	1339.8714	65535	64636.45
877.6658	1341.7426	65535	64591.65
877.8099	1343.6129	65535	64635.9
877.954	1345.4826	65535	64638.95
878.0981	1347.3515	65535	64635.15
878.2422	1349.2196	65535	64636.95
878.3862	1351.087	65535	64638.55
878.5303	1352.9537	65535	64638.1
878.6743	1354.8197	65535	64636.65
878.8184	1356.6849	65535	64637.55
878.9624	1358.5493	65535	64635.3
879.1064	1360.4131	65535	64638.45
879.2504	1362.276	65535	64637.95
879.3944	1364.1383	65535	64638.3
879.5384	1365.9998	65535	64631.35
879.6823	1367.8606	65535	64636.9
879.8263	1369.7206	65535	64634.45
879.9702	1371.5799	65535	64636.85
880.1142	1373.4384	65535	64636.35
880.2581	1375.2962	65535	64635.95
880.402	1377.1533	65535	64639.35
880.5459	1379.0096	65535	64639.2
880.6898	1380.8652	65535	64640.1
880.8337	1382.7201	65535	64639.4
880.9776	1384.5742	65535	64636.75
881.1215	1386.4275	65535	64636.8
881.2653	1388.2802	65535	64637.15
881.4092	1390.132	65535	64637.3
881.553	1391.9832	65535	64636.85
881.6968	1393.8336	65535	64634.4
881.8406	1395.6832	65535	64634.65
881.9844	1397.5322	65535	64637.15
882.1282	1399.3803	65535	64633.05
882.272	1401.2278	65535	64637.9
882.4158	1403.0745	65535	64639.95
882.5595	1404.9204	65535	64638.35
882.7033	1406.7656	65535	64638.5
882.847	1408.6101	65535	64639.05
882.9908	1410.4538	65535	64638.75
883.1345	1412.2968	65535	64638.3
883.2782	1414.139	65535	64638.25
883.4219	1415.9805	65535	64637.7
883.5656	1417.8213	65535	64631.6
883.7092	1419.6613	65535	64639
883.8529	1421.5006	65535	64637.65
883.9965	1423.3391	65535	64638.35
884.1402	1425.1769	65535	64640
884.2838	1427.0139	65535	64636.5
884.4274	1428.8502	65535	64637.9
884.571	1430.6858	65535	64637.85
884.7146	1432.5206	65535	64638.05
884.8582	1434.3547	65535	64636.3
885.0018	1436.188	65535	64639
885.1453	1438.0206	65535	64639.7
885.2889	1439.8524	65535	64638.15
885.4324	1441.6835	65535	64638.85
885.5759	1443.5139	65535	64634.85
885.7194	1445.3435	65535	64641
885.8629	1447.1724	65535	64639.25
886.0064	1449.0005	65535	64638.1
886.1499	1450.8279	65535	64636.8
886.2933	1452.6545	65535	64636.25
886.4368	1454.4804	65535	64638.45
886.5802	1456.3056	65535	64631.3
886.7237	1458.13	65535	64638.7
886.8671	1459.9536	65535	64638.25
887.0105	1461.7766	65535	64639.9
887.1539	1463.5987	65535	64637
887.2972	1465.4202	65535	64637.95
887.4406	1467.2409	65535	64639.05
887.584	1469.0608	65535	64637.25
887.7273	1470.88	65535	64638.05
887.8706	1472.6984	65535	64639.45
888.0139	1474.5161	65535	64635.45
888.1572	1476.3331	65535	64640.4
888.3005	1478.1493	65535	64637.4
888.4438	1479.9648	65535	64640.3
888.5871	1481.7795	65535	64637.7
888.7303	1483.5935	65535	64639.2
888.8736	1485.4067	65535	64637
889.0168	1487.2192	65535	64639.3
889.16	1489.031	65535	64639.25
889.3032	1490.842	65535	64638.2
889.4464	1492.6522	65535	64639.05
889.5896	1494.4618	65535	64638.5
889.7327	1496.2705	65535	64640.55
889.8759	1498.0785	65535	64637.7
890.019	1499.8858	65535	64637.2
890.1622	1501.6924	65535	64638.75
890.3053	1503.4981	65535	64639.7
890.4484	1505.3032	65535	64638.1
890.5914	1507.1075	65535	64641
890.7345	1508.911	65535	64639.75
890.8776	1510.7138	65535	64640.45
891.0206	1512.5159	65535	64638.7
891.1637	1514.3172	65535	64640.15
891.3067	1516.1178	65535	64639.85
891.4497	1517.9176	65535	64638.6
891.5927	1519.7166	65535	64638.65
891.7357	1521.515	65535	64633.1
891.8786	1523.3126	65535	64637.95
892.0216	1525.1094	65535	64635.75
892.1645	1526.9055	65535	64640.35
892.3074	1528.7008	65535	64638.8
892.4503	1530.4954	65535	64637.4
892.5932	1532.2893	65535	64641.55
892.7361	1534.0824	65535	64637.2
892.879	1535.8747	65535	64639.65
893.0218	1537.6663	65535	64640.25
893.1647	1539.4572	65535	64638
893.3075	1541.2473	65535	64639.15
893.4503	1543.0367	65535	64642
893.5931	1544.8253	65535	64635.2
893.7359	1546.6132	65535	64638.35
893.8787	1548.4003	65535	64631.75
894.0214	1550.1867	65535	64631.55
894.1642	1551.9723	65535	64636
894.3069	1553.7572	65535	64641.9
894.4496	1555.5414	65535	64640.6
894.5923	1557.3247	65535	64642.2
894.735	1559.1074	65535	64641.6
894.8777	1560.8893	65535	64642.25
895.0204	1562.6705	65535	64641.85
895.163	1564.4509	65535	64639.75
895.3056	1566.2305	65535	64642.9
895.4482	1568.0094	65535	64643.1
895.5908	1569.7876	65535	64641.85
895.7334	1571.565	65535	64639.65
895.876	1573.3417	65535	64640.6
896.0186	1575.1176	65535	64642.85
896.1611	1576.8928	65535	64643.35
896.3036	1578.6672	65535	64641.45
896.4461	1580.4409	65535	64643.25
896.5886	1582.2138	65535	64640.05
896.7311	1583.986	65535	64640.95
896.8736	1585.7575	65535	64644.45
897.0161	1587.5282	65535	64644.45
897.1585	1589.2981	65535	64644.7
897.3009	1591.0673	65535	64643.65
897.4433	1592.8358	65535	64645.45
897.5857	1594.6035	65535	64639.15
897.7281	1596.3704	65535	64641.1
897.8705	1598.1366	65532.1	64639.45
898.0128	1599.9021	65527.4	64637.2
898.1551	1601.6668	65535	64640.9
898.2975	1603.4308	65533.75	64639.7
898.4398	1605.194	65532.85	64636.1
898.5821	1606.9564	65519.9	64627.3
898.7243	1608.7182	65524.4	64630.5
898.8666	1610.4791	65521.6	64631.05
899.0088	1612.2394	65531.15	64643.65
899.1511	1613.9988	65519.55	64628.3
899.2933	1615.7576	65527.75	64637.35
899.4355	1617.5156	65526.65	64628.3
899.5776	1619.2728	65535	64642.15
899.7198	1621.0293	65520.3	64629.2
899.862	1622.785	65517.3	64621.75
900.0041	1624.54	65519.1	64626.35
900.1462	1626.2942	65495.65	64604.05
900.2883	1628.0477	65468.05	64575.65
900.4304	1629.8005	65428.35	64534.4
900.5725	1631.5525	65488.85	64599.2
900.7145	1633.3037	65417	64525.45
900.8566	1635.0542	65413.85	64521.7
900.9986	1636.804	65448.8	64557.35
901.1406	1638.553	65376.85	64405.5
901.2826	1640.3013	65404.65	64511.25
901.4245	1642.0488	65364.15	64470.25
901.5665	1643.7955	65408.15	64519.1
901.7085	1645.5416	65372.6	64481.15
901.8504	1647.2868	65345.45	64457.85
901.9923	1649.0313	65390.6	64501.1
902.1342	1650.7751	65365.25	64471
902.2761	1652.5181	65333.15	64441.35
902.4179	1654.2604	65328.9	64437.85
902.5598	1656.0019	65352.55	64462
902.7016	1657.7427	65327.3	64435.3
902.8434	1659.4828	65361.45	64472
902.9852	1661.222	65321.45	64428.85
903.127	1662.9606	65362.1	64470.6
903.2687	1664.6984	65306.65	64415.3
903.4105	1666.4354	65327.65	64435.4
903.5522	1668.1717	65287.65	64395.6
903.6939	1669.9072	65239.85	64348.45
903.8356	1671.642	65232.2	64340.65
903.9773	1673.3761	65218.1	64327.65
904.119	1675.1094	65209.45	64317.7
904.2606	1676.8419	65171.9	64281.95
904.4022	1678.5737	65188	64298.05
904.5439	1680.3048	65161.2	64271.1
904.6855	1682.0351	65152.7	64263.15
904.827	1683.7646	65135	64239.75
904.9686	1685.4934	65143.15	64253.7
905.1101	1687.2215	65025.65	64135.95
905.2517	1688.9488	65119.6	64229.3
905.3932	1690.6754	64881.65	63990.9
905.5347	1692.4012	65042.6	64151.5
905.6761	1694.1263	65052.9	64164.7
905.8176	1695.8506	64933.55	64043.15
905.9591	1697.5742	64964.6	64074
906.1005	1699.297	64931.95	64041.45
906.2419	1701.0191	64963.55	64074.65
906.3833	1702.7404	64793.35	63904.7
906.5246	1704.461	64719.25	63826.15
906.666	1706.1808	64840.8	63948.6
906.8073	1707.8999	64759.65	63867.95
906.9487	1709.6182	64710.35	63821.9
907.09	1711.3358	64704.55	63815.35
907.2313	1713.0527	64682.4	63794.1
907.3725	1714.7688	64692.5	63798.95
907.5138	1716.4841	64497.3	63605.75
907.655	1718.1987	64567	63672.25
907.7962	1719.9126	64512.2	63623.45
907.9374	1721.6257	64571.7	63680.4
908.0786	1723.338	64557.4	63667.55
908.2198	1725.0496	64277.3	63387.45
908.3609	1726.7605	64352.7	63462.6
908.502	1728.4706	64229.95	63338.85
908.6431	1730.18	64367.25	63474.05
908.7842	1731.8886	64217.7	63329
908.9253	1733.5964	64128.65	63233.2
909.0664	1735.3036	64296.65	63404.65
909.2074	1737.0099	64185.5	63296.25
909.3484	1738.7156	64015.25	63127.9
909.4894	1740.4204	63993.1	63101.75
909.6304	1742.1246	64073.3	63181.55
909.7714	1743.8279	64085.05	63197.55
909.9123	1745.5306	64032.1	63142.65
910.0532	1747.2325	63645.1	62755.05
910.1941	1748.9336	63670.05	62782.55
910.335	1750.634	63766.55	62875.9
910.4759	1752.3336	63875.1	62987.05
910.6168	1754.0325	63581.25	62693.05
910.7576	1755.7307	63827.85	62939.9
910.8984	1757.4281	63447.35	62558.5
911.0392	1759.1247	63744.35	62846.65
911.18	1760.8206	63292.95	62399.05
911.3208	1762.5158	63353.55	62459.55
911.4615	1764.2102	63472.05	62584.8
911.6022	1765.9039	63362.9	62473.95
911.7429	1767.5968	63293.3	62405.45
911.8836	1769.289	63223	62334.25
912.0243	1770.9804	63289.65	62399.75
912.1649	1772.6711	63167.5	62278.6
912.3056	1774.361	63131.8	62242.4
912.4462	1776.0502	63124.6	62235.2
912.5868	1777.7386	62733.75	61843.95
912.7274	1779.4263	62937.65	62049.25
912.8679	1781.1132	62942.75	62054.4
913.0084	1782.7994	62906.1	62015
913.149	1784.4849	62901.6	62014.05
913.2895	1786.1696	62402.65	61507.25
913.4299	1787.8535	62717.05	61827.85
913.5704	1789.5367	62747.75	61858.25
913.7108	1791.2192	62457.05	61568
913.8513	1792.9009	62229.55	61310.7
913.9917	1794.5818	62487.85	61596.6
914.132	1796.2621	62203.1	61316.1
914.2724	1797.9415	62221.2	61331.15
914.4128	1799.6202	62148.35	61259.05
914.5531	1801.2982	62181.9	61292.4
914.6934	1802.9755	61856.8	60966.05
914.8337	1804.6519	61724.55	60835.05
914.9739	1806.3277	62247.9	61359.3
915.1142	1808.0027	61391.65	60503.65
915.2544	1809.6769	61710.3	60823.05
915.3946	1811.3504	61777.6	60887.75
915.5348	1813.0231	61149.75	60259.55
915.675	1814.6951	61524.65	60634.85
915.8151	1816.3664	61293.75	60402.9
915.9553	1818.0369	61339	60449.55
916.0954	1819.7067	61155.55	60267.1
916.2355	1821.3757	61470.55	60580.2
916.3755	1823.044	60965.1	60077.15
916.5156	1824.7115	60689.15	59800.4
916.6556	1826.3783	60834.25	59946.35
916.7956	1828.0443	60911.75	60025.35
916.9356	1829.7096	60685.6	59796
917.0756	1831.3741	60243.15	59352.3
917.2155	1833.0379	60485.2	59596.75
917.3555	1834.701	60503.9	59612.9
917.4954	1836.3633	60200.7	59311
917.6353	1838.0248	60360.8	59470.9
917.7751	1839.6856	60199.4	59311.35
917.915	1841.3457	59922.2	59034.3
918.0548	1843.005	60283.7	59396.65
918.1946	1844.6636	59997	59110.15
918.3344	1846.3214	59445.85	58556.7
918.4742	1847.9785	59631.9	58743.2
918.6139	1849.6349	59603.3	58712.05
918.7537	1851.2904	59919.7	59021.15
918.8934	1852.9453	59277.05	58387.5
919.0331	1854.5994	59564.85	58675.7
919.1727	1856.2528	59537.75	58644.2
919.3124	1857.9054	59115.3	58227
919.452	1859.5572	58935.15	58047.9
919.5916	1861.2083	59185.2	58296.1
919.7312	1862.8587	59573.1	58682.8
919.8708	1864.5084	58295.45	57405.7
920.0103	1866.1572	58889.45	58003
920.1498	1867.8054	58282.3	57393.1
920.2893	1869.4528	58624.65	57735.9
920.4288	1871.0994	58118.6	57229.75
920.5683	1872.7453	57981.45	57091.15
920.7077	1874.3905	58354.95	57458.25
920.8471	1876.0349	57837.85	56947.45
920.9865	1877.6786	58180.2	57290.7
921.1259	1879.3215	57663.7	56777.1
921.2653	1880.9637	58183.3	57293.55
921.4046	1882.6051	57593.3	56705.4
921.5439	1884.2458	57381.15	56488.8
921.6832	1885.8858	57087	56198.1
921.8225	1887.525	57356.8	56466.75
921.9617	1889.1634	57169.4	56281
922.101	1890.8011	56902.25	56015.2
922.2402	1892.4381	56199.45	55311.5
922.3794	1894.0743	56938.05	56051.1
922.5185	1895.7098	56531.35	55644.2
922.6577	1897.3446	56162.55	55274.6
922.7968	1898.9786	56296.75	55403.9
922.9359	1900.6118	55973.05	55085.3
923.075	1902.2443	55662	54772.75
923.214	1903.8761	56093.85	55207.05
923.3531	1905.5071	55661.15	54771.7
923.4921	1907.1374	54764.2	53877
923.6311	1908.7669	55125.1	54235.45
923.77	1910.3957	55470.2	54581.25
923.909	1912.0237	54739.9	53852.25
924.0479	1913.651	54421.45	53533.15
924.1868	1915.2776	54257.95	53371.85
924.3257	1916.9034	54289.75	53403.6
924.4646	1918.5285	53929.5	53043.65
924.6034	1920.1528	54003.35	53114.15
924.7422	1921.7764	53757.4	52869.6
924.881	1923.3992	53658.05	52770.65
925.0198	1925.0213	53297.6	52409.35
925.1586	1926.6427	52769.75	51883.55
925.2973	1928.2633	53039.45	52070.6
925.436	1929.8832	52885.5	51995.3
925.5747	1931.5023	52631.2	51742.5
925.7134	1933.1207	52135.05	51247.1
925.852	1934.7383	52439.6	51550.85
925.9906	1936.3552	52051.1	51163.35
926.1292	1937.9714	52008.25	51119.85
926.2678	1939.5868	51970.65	51081.15
926.4064	1941.2015	51426.4	50537.6
926.5449	1942.8154	51050.35	50161.6
926.6834	1944.4286	51136.7	50249.35
926.8219	1946.041	51126.5	50219
926.9604	1947.6528	50784.2	49890.7
927.0988	1949.2637	50565.25	49676.55
927.2372	1950.8739	50281.2	49392.95
927.3756	1952.4834	50336.35	49449.45
927.514	1954.0921	50207.15	49319.2
927.6523	1955.7001	49876.15	48983.65
927.7907	1957.3074	49977	49090.05
927.929	1958.9139	49498.55	48611.9
928.0673	1960.5197	49565.45	48676.3
928.2055	1962.1247	49293.1	48405.15
928.3438	1963.729	49010.45	48123.3
928.482	1965.3325	48834.95	47922.95
928.6202	1966.9353	48900.8	48013.2
928.7584	1968.5374	48499.3	47611.95
928.8965	1970.1387	48371.65	47486.15
929.0346	1971.7393	48383.75	47496.9
929.1727	1973.3392	48137.85	47249.65
929.3108	1974.9383	47841.45	46954.85
929.4489	1976.5366	47638.3	46753.25
929.5869	1978.1342	47629.35	46740.55
929.7249	1979.7311	47504.05	46614.95
929.8629	1981.3273	47348.3	46460.9
930.0009	1982.9227	47136.6	46249
930.1388	1984.5173	47137.3	46250.25
930.2767	1986.1112	46821.05	45933.65
930.4146	1987.7044	46893	46006.8
930.5525	1989.2968	46427.7	45539.75
930.6904	1990.8885	46495	45603.45
930.8282	1992.4795	46312.8	45421.35
930.966	1994.0697	46203.3	45316.5
931.1038	1995.6592	46059.45	45172.2
931.2415	1997.2479	45852.25	44966.1
931.3793	1998.8359	45782.25	44894.5
931.517	2000.4232	45593.35	44705.8
931.6547	2002.0097	45470.9	44586.7
931.7923	2003.5955	45236.8	44348.95
931.93	2005.1805	45161.8	44273.05
932.0676	2006.7648	45075.8	44188.65
932.2052	2008.3484	44917.95	44029.8
932.3427	2009.9312	44913.3	44026.3
932.4803	2011.5133	44724.15	43837.75
932.6178	2013.0946	44571.55	43685.2
932.7553	2014.6752	44448.8	43565.1
932.8928	2016.2551	44340.95	43453.15
933.0302	2017.8342	44194.1	43309.75
933.1676	2019.4126	43928.3	43042.2
933.305	2020.9902	43782.55	42897.35
933.4424	2022.5672	43702.45	42815.45
933.5798	2024.1433	43659.7	42768.3
933.7171	2025.7188	43458.7	42574.85
933.8544	2027.2935	43313.9	42426.15
933.9917	2028.8674	43107.2	42221.5
934.129	2030.4406	43024.1	42139.2
934.2662	2032.0131	42810.55	41923.1
934.4034	2033.5849	42620.6	41726
934.5406	2035.1559	42606	41718.8
934.6778	2036.7261	42545.15	41659.15
934.8149	2038.2957	42366	41478.25
934.952	2039.8645	42256.5	41369.85
935.0891	2041.4325	42296.4	41406.95
935.2262	2042.9998	42106.45	41220.3
935.3632	2044.5664	41895.45	41008.55
935.5002	2046.1323	41831.4	40944.4
935.6372	2047.6974	41694.05	40806.6
935.7742	2049.2617	41561.7	40675.95
935.9111	2050.8254	41608.7	40718.25
936.048	2052.3883	41342.55	40454.2
936.1849	2053.9504	41275.35	40390.3
936.3218	2055.5118	41136.85	40248.4
936.4586	2057.0725	40894.2	40004.15
936.5955	2058.6325	40891.05	40006.2
936.7323	2060.1917	40755.15	39870.8
936.869	2061.7502	40617.75	39727.35
937.0058	2063.3079	40459.7	39573
937.1425	2064.8649	40348.1	39457.8
937.2792	2066.4212	40244.8	39356.4
937.4159	2067.9767	40148.75	39260.85
937.5525	2069.5315	39971.35	39085.5
937.6891	2071.0856	39742.55	38855
937.8257	2072.6389	39652.9	38766.5
937.9623	2074.1915	39440.55	38555.15
938.0989	2075.7433	39249.65	38359.95
938.2354	2077.2945	39194.6	38309
938.3719	2078.8448	39046	38159.75
938.5084	2080.3945	38896.6	38009.45
938.6448	2081.9434	38922	38035.25
938.7812	2083.4916	38768.6	37881.2
938.9176	2085.039	38610.05	37721.85
939.054	2086.5857	38523.6	37633.5
939.1903	2088.1317	38479.1	37591.35
939.3267	2089.677	38362.2	37473.9
939.463	2091.2215	38221.5	37335.25
939.5992	2092.7652	38094.3	37205.2
939.7355	2094.3083	38027.7	37140.65
939.8717	2095.8506	37938.9	37052.35
940.0079	2097.3921	37889.05	37003.25
940.1441	2098.933	37773.7	36886.6
940.2802	2100.4731	37648	36761.85
940.4163	2102.0124	37577.6	36682.15
940.5524	2103.5511	37468.4	36581.2
940.6885	2105.089	37434.9	36549.4
940.8245	2106.6261	37291.75	36404.4
940.9606	2108.1626	37177.45	36288.55
941.0965	2109.6983	37150.2	36234.95
941.2325	2111.2332	37013.6	36123.6
941.3684	2112.7675	36900.7	36013.2
941.5044	2114.301	36755.5	35867.1
941.6403	2115.8337	36743.25	35855.85
941.7761	2117.3657	36600.8	35713.55
941.912	2118.897	36522	35632.75
942.0478	2120.4276	36389.8	35497.95
942.1835	2121.9575	36205.45	35316.95
942.3193	2123.4866	36250.05	35347.3
942.455	2125.0149	36081	35191.35
942.5907	2126.5426	35906.15	35019.95
942.7264	2128.0695	35823.4	34933.8
942.8621	2129.5956	35746.4	34860.75
942.9977	2131.1211	35654.7	34763.9
943.1333	2132.6458	35555.3	34668
943.2689	2134.1698	35477.15	34590.2
943.4044	2135.693	35383.25	34493.65
943.54	2137.2155	35301.45	34413.2
943.6755	2138.7373	35184.85	34298.65
943.8109	2140.2584	35096.85	34212.05
943.9464	2141.7787	35009	34117.5
944.0818	2143.2983	34799.5	33915.3
944.2172	2144.8171	34629.3	33744.75
944.3526	2146.3353	34558.8	33670
944.4879	2147.8527	34414.1	33529.3
944.6232	2149.3693	34381.2	33493.95
944.7585	2150.8853	34208	33320.3
944.8938	2152.4005	34071.75	33186.5
945.029	2153.9149	34084.95	33196.35
945.1642	2155.4287	33932.85	33046
945.2994	2156.9417	33855.75	32968.15
945.4346	2158.454	33731.75	32842.7
945.5697	2159.9655	33671.15	32785.05
945.7048	2161.4764	33600.7	32713.25
945.8399	2162.9865	33468.1	32581.25
945.9749	2164.4958	33395.75	32508.7
946.1099	2166.0045	33202.85	32313
946.2449	2167.5124	33169.35	32282.45
946.3799	2169.0195	33096.5	32209.6
946.5148	2170.526	33022.4	32135.5
946.6498	2172.0317	32871.7	31985.05
946.7846	2173.5367	32810.1	31922.55
946.9195	2175.0409	32724	31838.8
947.0543	2176.5445	32698.95	31812.35
947.1891	2178.0473	32592.85	31707.5
947.3239	2179.5494	32413.2	31521.7
947.4587	2181.0507	32283	31395.2
947.5934	2182.5513	32215.5	31329.05
947.7281	2184.0512	32090.05	31202.35
947.8628	2185.5504	31986.9	31100.75
947.9974	2187.0488	31836	30951
948.132	2188.5465	31730.8	30843.45
948.2666	2190.0435	31596.3	30711.1
948.4012	2191.5397	31512.5	30625.55
948.5357	2193.0353	31441.95	30557.3
948.6702	2194.5301	31234.1	30345.15
948.8047	2196.0241	31132.3	30243.55
948.9392	2197.5175	31090.55	30204.4
949.0736	2199.0101	30918.8	30027.1
949.208	2200.502	30790.25	29905.55
949.3424	2201.9931	30690.3	29802.8
949.4767	2203.4835	30599.95	29715.15
949.611	2204.9733	30529.1	29636.9
949.7453	2206.4622	30456.15	29572.2
949.8796	2207.9505	30355.25	29464.8
950.0138	2209.438	30139	29253.8
950.148	2210.9248	30073.4	29185.3
950.2822	2212.4109	29967	29081.9
950.4164	2213.8962	29894	29005.75
950.5505	2215.3809	29840.25	28950.15
950.6846	2216.8648	29772	28885.85
950.8186	2218.3479	29654.15	28763.75
950.9527	2219.8304	29522.35	28631.45
951.0867	2221.3121	29395.45	28504.7
951.2207	2222.7931	29307.35	28422.25
951.3546	2224.2733	29208.4	28320.75
951.4886	2225.7529	29076.95	28187.65
951.6225	2227.2317	28995	28105.85
951.7563	2228.7098	29002.4	28115.1
951.8902	2230.1872	28750.4	27862.75
952.024	2231.6638	28779.15	27891.9
952.1578	2233.1397	28651.1	27757.1
952.2916	2234.6149	28585.5	27697.9
952.4253	2236.0894	28437.2	27551.5
952.559	2237.5632	28436.7	27548.7
952.6927	2239.0362	28255.7	27369.1
952.8263	2240.5085	28176.4	27289.8
952.9599	2241.9801	28086.15	27198.95
953.0935	2243.4509	27985.25	27100.35
953.2271	2244.921	27878.15	26989.8
953.3606	2246.3904	27760.65	26870.7
953.4941	2247.8591	27676.8	26790
953.6276	2249.3271	27592.35	26705.25
953.7611	2250.7943	27475.4	26587.4
953.8945	2252.2608	27373.85	26486.75
954.0279	2253.7266	27327.95	26443.05
954.1612	2255.1917	27231.4	26344.7
954.2946	2256.656	27119	26229.6
954.4279	2258.1197	27079.25	26193.95
954.5612	2259.5826	26979.4	26089.8
954.6944	2261.0447	26929.1	26039.95
954.8276	2262.5062	26773.45	25884.5
954.9608	2263.9669	26752.05	25864.55
955.094	2265.4269	26705.45	25818.5
955.2271	2266.8862	26598.9	25713.6
955.3602	2268.3448	26548.55	25659.95
955.4933	2269.8026	26443.05	25557.95
955.6264	2271.2598	26385.8	25498.65
955.7594	2272.7162	26259.95	25373.4
955.8924	2274.1719	26202.2	25315.3
956.0253	2275.6268	26161.3	25275.05
956.1583	2277.0811	26123.35	25235
956.2912	2278.5346	26026.35	25142.35
956.4241	2279.9874	25947.95	25063.6
956.5569	2281.4395	25917.8	25032.1
956.6897	2282.8908	25739.25	24846.55
956.8225	2284.3414	25742.75	24852.05
956.9553	2285.7914	25652.55	24765.15
957.088	2287.2406	25521.7	24633.45
957.2207	2288.689	25477.95	24590.85
957.3534	2290.1368	25392.35	24505.5
957.486	2291.5838	25326.95	24436.25
957.6186	2293.0302	25255.8	24368.2
957.7512	2294.4758	25135.85	24248.5
957.8838	2295.9206	25017.8	24127.3
958.0163	2297.3648	24939.65	24053.6
958.1488	2298.8082	24946.5	24059.1
958.2813	2300.251	24864.85	23977.6
958.4137	2301.693	24721.9	23833.2
958.5461	2303.1343	24737.05	23849.15
958.6785	2304.5748	24647.25	23760.85
958.8108	2306.0147	24515.9	23627.25
958.9432	2307.4538	24499.65	23609.2
959.0754	2308.8922	24413.15	23529.6
959.2077	2310.3299	24315.95	23430.3
959.3399	2311.7669	24226.05	23340.95
959.4721	2313.2031	24143.4	23255.7
959.6043	2314.6387	24044.6	23158.7
959.7365	2316.0735	23947.55	23061.55
959.8686	2317.5076	23919.5	23031.1
960.0006	2318.941	23858.8	22971.6
960.1327	2320.3737	23765.35	22877.65
960.2647	2321.8056	23691.45	22804.1
960.3967	2323.2369	23598.35	22709.6
960.5287	2324.6674	23577.8	22689.4
960.6606	2326.0972	23449.05	22560.95
960.7925	2327.5263	23340.2	22455.05
960.9244	2328.9547	23317.65	22429.95
961.0562	2330.3823	23241.7	22354.75
961.1881	2331.8092	23237.05	22346.6
961.3198	2333.2355	23127.85	22243.15
961.4516	2334.661	23076.95	22187.9
961.5833	2336.0858	23030.3	22143.05
961.715	2337.5098	22957.5	22071.5
961.8467	2338.9332	22902.75	22015.15
961.9783	2340.3558	22808.65	21917.25
962.1099	2341.7778	22702.55	21815.75
962.2415	2343.199	22625.5	21737.6
962.373	2344.6195	22545.6	21660
962.5045	2346.0393	22533.8	21649.1
962.636	2347.4583	22469.45	21580.75
962.7675	2348.8767	22367.25	21479.9
962.8989	2350.2943	22278.9	21391.55
963.0303	2351.7113	22247.3	21360.1
963.1617	2353.1275	22170.35	21283.75
963.293	2354.543	22116.05	21219.7
963.4243	2355.9578	22043.4	21157.2
963.5556	2357.3718	21882.75	20996.95
963.6868	2358.7852	21793.65	20904
963.818	2360.1978	21748.65	20862.3
963.9492	2361.6098	21706.25	20821.5
964.0803	2363.021	21596.05	20706.65
964.2114	2364.4315	21601.25	20715.8
964.3425	2365.8413	21504.25	20616.35
964.4736	2367.2504	21377.3	20491.2
964.6046	2368.6587	21313.05	20426.55
964.7356	2370.0664	21229.4	20344.35
964.8666	2371.4733	21204.95	20317.95
964.9975	2372.8795	21098.4	20213.45
965.1284	2374.285	21022.7	20136.15
965.2593	2375.6899	20938.35	20054.6
965.3901	2377.0939	20827.95	19941.55
965.5209	2378.4973	20746.6	19859.75
965.6517	2379.9	20697.85	19809.9
965.7825	2381.3019	20624.3	19737.1
965.9132	2382.7032	20565.85	19682.15
966.0439	2384.1037	20519.75	19634.95
966.1745	2385.5035	20410.95	19526.95
966.3051	2386.9027	20355.65	19470
966.4357	2388.3011	20332.05	19442.1
966.5663	2389.6987	20260.2	19374.1
966.6968	2391.0957	20166.65	19281.85
966.8273	2392.492	20078.55	19194.5
966.9578	2393.8876	19959.15	19074.25
967.0882	2395.2824	19873.05	18986.2
967.2186	2396.6765	19826.75	18943.5
967.349	2398.07	19732.1	18847.3
967.4793	2399.4627	19707.15	18819.1
967.6097	2400.8547	19677.9	18791.95
967.7399	2402.246	19575.05	18682.15
967.8702	2403.6366	19439.05	18552.8
968.0004	2405.0265	19369.75	18486.1
968.1306	2406.4156	19294.1	18403.1
968.2607	2407.8041	19208.65	18320.3
968.3909	2409.1918	19155.8	18266
968.521	2410.5789	19078.25	18190.75
968.651	2411.9652	18988.2	18098.8
968.781	2413.3508	18931.35	18044.35
968.911	2414.7358	18809.1	17923.15
969.041	2416.12	18791.55	17905.7
969.1709	2417.5035	18751.95	17867.05
969.3008	2418.8863	18683.7	17797.9
969.4307	2420.2684	18614.15	17728.05
969.5606	2421.6497	18519.9	17633.65
969.6904	2423.0304	18394.7	17509.55
969.8201	2424.4104	18372.35	17485.65
969.9499	2425.7896	18280.95	17392.4
970.0796	2427.1682	18254.35	17369.25
970.2093	2428.546	18210.15	17323.55
970.3389	2429.9232	18193.95	17306.15
970.4685	2431.2996	18109.05	17222.55
970.5981	2432.6753	18033.05	17149.15
970.7277	2434.0503	18021.85	17136.15
970.8572	2435.4246	17896.95	17012.3
970.9867	2436.7982	17859.7	16971.2
971.1161	2438.1711	17822	16936.4
971.2456	2439.5433	17767.6	16881.5
971.375	2440.9148	17669	16775.05
971.5043	2442.2856	17599.3	16712.05
971.6336	2443.6557	17547.25	16658.9
971.7629	2445.025	17478.55	16590.8
971.8922	2446.3937	17445.5	16559.7
972.0214	2447.7617	17375.4	16489.3
972.1506	2449.1289	17349.4	16462.9
972.2798	2450.4955	17282.55	16394.15
972.4089	2451.8613	17237.45	16351.15
972.538	2453.2265	17181	16295.05
972.6671	2454.5909	17141.1	16252.85
972.7961	2455.9546	17085.75	16199.9
972.9251	2457.3177	17015.05	16129
973.0541	2458.68	16969.95	16082
973.1831	2460.0416	16953.95	16067.1
973.312	2461.4025	16884.4	15997.6
973.4408	2462.7627	16823.75	15927.15
973.5697	2464.1222	16770.65	15884.3
973.6985	2465.4811	16739.25	15853.55
973.8273	2466.8392	16669.1	15783.05
973.956	2468.1966	16594.7	15706.15
974.0847	2469.5533	16606.05	15716.7
974.2134	2470.9093	16551.25	15664.3
974.3421	2472.2645	16488.85	15600.8
974.4707	2473.6191	16429.6	15542.3
974.5993	2474.973	16353.9	15468.2
974.7278	2476.3262	16320.85	15433.25
974.8563	2477.6787	16240.85	15355.35
974.9848	2479.0305	16152.8	15265.9
975.1132	2480.3816	16102.3	15215.45
975.2417	2481.7319	16003.95	15118.35
975.37	2483.0816	15952.8	15064.65
975.4984	2484.4306	15912.3	15024
975.6267	2485.7789	15838.4	14953.15
975.755	2487.1264	15806.85	14919.15
975.8833	2488.4733	15709.75	14823.2
976.0115	2489.8195	15699.85	14805.9
976.1397	2491.165	15617.85	14728.3
976.2678	2492.5097	15564.7	14675.7
976.3959	2493.8538	15473.1	14586.15
976.524	2495.1972	15391.35	14506.9
976.6521	2496.5398	15346.3	14458.65
976.7801	2497.8818	15311.35	14424.35
976.9081	2499.2231	15250.4	14364.15
977.036	2500.5637	15177.85	14287.7
977.164	2501.9035	15153.5	14265.2
977.2918	2503.2427	15122.1	14231.35
977.4197	2504.5812	15059.4	14173.95
977.5475	2505.919	15024.6	14136.4
977.6753	2507.256	14953.35	14067.35
977.8031	2508.5924	14911.25	14025.1
977.9308	2509.9281	14863.9	13970.55
978.0585	2511.2631	14790.65	13904.45
978.1861	2512.5974	14788.35	13903.45
978.3137	2513.9309	14724.2	13838.05
978.4413	2515.2638	14658.1	13741.9
978.5689	2516.596	14619.9	13733.35
978.6964	2517.9275	14517.1	13630
978.8239	2519.2583	14490.8	13605.6
978.9513	2520.5884	14398.35	13511.4
979.0788	2521.9178	14390.05	13504.05
979.2062	2523.2465	14338.15	13451.35
979.3335	2524.5745	14280.9	13396.45
979.4608	2525.9018	14238.55	13352.4
979.5881	2527.2284	14197	13310.85
979.7154	2528.5543	14163.05	13279.3
979.8426	2529.8796	14106.95	13221.25
979.9698	2531.2041	14086.05	13199.3
980.0969	2532.5279	14064.3	13179.6
980.224	2533.851	14024.4	13138.35
980.3511	2535.1735	13963.45	13077.8
980.4781	2536.4952	13928.7	13041.85
980.6052	2537.8163	13900.95	13014.95
980.7321	2539.1366	13829.9	12944.75
980.8591	2540.4562	13794.9	12908.75
980.986	2541.7752	13786	12901.75
981.1129	2543.0935	13706.95	12820.8
981.2397	2544.411	13702.9	12817.25
981.3665	2545.7279	13692.65	12808.35
981.4933	2547.0441	13679.7	12793.75
981.62	2548.3596	13641.95	12755.85
981.7467	2549.6744	13604.3	12719.45
981.8734	2550.9885	13530.3	12636.6
982.0001	2552.3019	13477	12591.2
982.1267	2553.6146	13470.6	12583.5
982.2532	2554.9266	13407.65	12522.7
982.3798	2556.2379	13372.15	12483.3
982.5063	2557.5485	13358.5	12474.05
982.6327	2558.8585	13317.5	12426.05
982.7592	2560.1677	13279.45	12389.2
982.8856	2561.4762	13230.4	12344.8
983.0119	2562.7841	13212.15	12322.75
983.1383	2564.0913	13198.6	12313.65
983.2646	2565.3977	13179.5	12293.85
983.3908	2566.7035	13137.35	12249.4
983.517	2568.0086	13098.85	12211.65
983.6432	2569.313	13075.35	12188.05
983.7694	2570.6167	13063.5	12172.8
983.8955	2571.9197	13000.8	12115.4
984.0216	2573.222	13013.95	12124.8
984.1476	2574.5236	12962.55	12076.65
984.2737	2575.8246	12903.05	12014.75
984.3996	2577.1248	12887.45	11999.6
984.5256	2578.4244	12868.55	11981.7
984.6515	2579.7232	12829.2	11944.4
984.7774	2581.0214	12826.7	11916.75
984.9032	2582.3189	12757.9	11873.75
985.029	2583.6157	12740.45	11849.3
985.1548	2584.9118	12716.85	11831.8
985.2806	2586.2072	12664.05	11779.5
985.4063	2587.5019	12607.65	11721.65
985.5319	2588.7959	12583.8	11698.05
985.6576	2590.0893	12569.45	11681.7
985.7832	2591.3819	12533.55	11648.7
985.9087	2592.6739	12479.4	11594.5
986.0343	2593.9652	12459.85	11572.8
986.1597	2595.2557	12424.2	11538.3
986.2852	2596.5456	12353.35	11464.3
986.4106	2597.8348	12288.55	11403.1
986.536	2599.1234	12237.55	11352.45
986.6614	2600.4112	12191.55	11305
986.7867	2601.6983	12187.65	11298.75
986.912	2602.9848	12093.05	11204.65
987.0372	2604.2705	12056.8	11163.3
987.1624	2605.5556	12068.05	11181.75
987.2876	2606.84	11999.7	11113.9
987.4128	2608.1237	11942.4	11054.25
987.5379	2609.4067	11901.55	11016.45
987.6629	2610.689	11865.95	10973
987.788	2611.9707	11806.75	10916.25
987.913	2613.2516	11745.7	10855.2
988.0379	2614.5319	11712.25	10828.15
988.1629	2615.8115	11662.2	10776.15
988.2878	2617.0903	11614.8	10728.75
988.4126	2618.3685	11581.8	10696
988.5375	2619.6461	11537.35	10651.05
988.6622	2620.9229	11517.75	10631
988.787	2622.199	11474.5	10588
988.9117	2623.4745	11437.4	10550.25
989.0364	2624.7493	11397	10511.75
989.161	2626.0234	11360.3	10475.4
989.2857	2627.2968	11319.1	10432.95
989.4102	2628.5695	11264.5	10378.05
989.5348	2629.8415	11218.1	10332.9
989.6593	2631.1128	11140	10253.45
989.7837	2632.3835	11089.1	10202.8
989.9082	2633.6535	11046.55	10160.65
990.0326	2634.9228	11019.65	10135
990.1569	2636.1914	11001.55	10116.05
990.2812	2637.4593	10952.15	10059.75
990.4055	2638.7265	10928.35	10042.2
990.5298	2639.9931	10870.7	9983.6
990.654	2641.259	10850.7	9964.85
990.7782	2642.5242	10815.65	9927.45
990.9023	2643.7887	10804.7	9918.15
991.0264	2645.0525	10774.2	9888.75
991.1505	2646.3156	10731.3	9844.5
991.2745	2647.5781	10653.5	9768.15
991.3985	2648.8398	10623.5	9737.15
991.5225	2650.1009	10632.95	9708.7
991.6464	2651.3613	10572.8	9687.9
991.7703	2652.6211	10554.95	9668.9
991.8942	2653.8801	10507.3	9622.9
992.018	2655.1385	10463.55	9575.95
992.1418	2656.3961	10430	9546
992.2655	2657.6531	10430.9	9544.7
992.3892	2658.9094	10405.6	9518.65
992.5129	2660.1651	10334.45	9447.75
992.6366	2661.42	10328.75	9441.85
992.7602	2662.6743	10309.65	9423.35
992.8837	2663.9279	10316.4	9431.65
993.0073	2665.1808	10259.4	9373.9
993.1307	2666.433	10223.25	9336.8
993.2542	2667.6846	10198.6	9314.7
993.3776	2668.9354	10144.55	9255.4
993.501	2670.1856	10095.35	9208.75
993.6244	2671.4351	10116.1	9232.8
993.7477	2672.6839	10078.6	9190.1
993.8709	2673.9321	10038.55	9151.95
993.9942	2675.1795	10008.35	9123.25
994.1174	2676.4263	9966.05	9079.4
994.2405	2677.6724	9944.3	9061.35
994.3637	2678.9179	9928.75	9042.45
994.4868	2680.1626	9889.85	9004.75
994.6098	2681.4067	9861.5	8975.85
994.7328	2682.6501	9815.3	8928.55
994.8558	2683.8928	9786.05	8901.55
994.9788	2685.1348	9767.8	8883.7
995.1017	2686.3761	9715.55	8832.7
995.2245	2687.6168	9685.8	8799.25
995.3474	2688.8568	9634.2	8749.6
995.4702	2690.0961	9614	8729.2
995.5929	2691.3348	9574.05	8688.05
995.7156	2692.5727	9554.1	8667.65
995.8383	2693.81	9499.35	8614.4
995.961	2695.0466	9499.6	8613.75
996.0836	2696.2826	9461.3	8573.8
996.2062	2697.5178	9427.8	8538.65
996.3287	2698.7524	9424.4	8537.7
996.4512	2699.9863	9399.2	8509.3
996.5737	2701.2195	9347.3	8463.1
996.6961	2702.452	9334.7	8448.1
996.8185	2703.6839	9299.35	8414.25
996.9408	2704.9151	9269.65	8385.3
997.0631	2706.1456	9209.75	8323.45
997.1854	2707.3755	9206.2	8318.9
997.3077	2708.6046	9160.75	8273.55
997.4299	2709.8331	9147.1	8261.45
997.552	2711.0609	9108.7	8222.85
997.6742	2712.2881	9107.9	8223.05
997.7963	2713.5145	9078.6	8189.75
997.9183	2714.7403	9056.1	8171.05
998.0403	2715.9654	8997.95	8112.5
998.1623	2717.1899	8968	8080.35
998.2842	2718.4136	8964	8078.95
998.4062	2719.6367	8946.6	8059.95
998.528	2720.8591	8914.9	8023.15
998.6498	2722.0809	8858.85	7971.85
998.7716	2723.3019	8849.3	7961.5
998.8934	2724.5223	8815.2	7929.25
999.0151	2725.7421	8809.8	7922.8
999.1368	2726.9611	8765.95	7878.15
999.2584	2728.1795	8761.3	7870.15
999.38	2729.3972	8704.85	7819.45
999.5016	2730.6142	8677.85	7786.2
999.6231	2731.8306	8596.2	7710.55
999.7446	2733.0462	8575.8	7689.1
999.8661	2734.2612	8533.85	7642.5
999.9875	2735.4756	8475.35	7589.1
1000.1089	2736.6892	8448.4	7562.15
1000.2302	2737.9022	8391.4	7507.1
1000.3515	2739.1145	8347.95	7461.65
1000.4728	2740.3262	8317.05	7423.4
1000.594	2741.5372	8270.55	7384.5
1000.7152	2742.7475	8242.1	7356.8
1000.8363	2743.9571	8225.45	7339.6
1000.9575	2745.1661	8198.3	7307.75
1001.0785	2746.3744	8153.35	7268.65
1001.1996	2747.582	8112.85	7227.6
1001.3206	2748.7889	8080.1	7193.45
1001.4415	2749.9952	8062.2	7176.55
1001.5625	2751.2008	8025.45	7138
1001.6833	2752.4057	8008.75	7120.3
1001.8042	2753.61	7976.7	7090.2
1001.925	2754.8136	7943.75	7056.75
1002.0458	2756.0165	7931.2	7045.75
1002.1665	2757.2188	7902	7018.65
1002.2872	2758.4204	7877.7	6992.15
1002.4078	2759.6213	7844.55	6958.4
1002.5285	2760.8215	7838.3	6948.45
1002.649	2762.0211	7800.9	6915.65
1002.7696	2763.22	7735.05	6846.15
1002.8901	2764.4182	7746.95	6860.7
1003.0106	2765.6158	7705.8	6820.1
1003.131	2766.8127	7683.65	6797.15
1003.2514	2768.009	7631	6745.55
1003.3717	2769.2045	7613.3	6725.6
1003.492	2770.3994	7606.05	6718.2
1003.6123	2771.5936	7571.25	6684.65
1003.7325	2772.7872	7522.2	6637.95
1003.8527	2773.9801	7501.05	6614.7
1003.9729	2775.1723	7494.75	6594
1004.093	2776.3639	7449.65	6567
1004.2131	2777.5548	7416.2	6528.7
1004.3331	2778.745	7399.95	6512.15
1004.4531	2779.9346	7382.95	6497.8
1004.5731	2781.1235	7370.4	6483.9
1004.693	2782.3117	7346.1	6461.7
1004.8129	2783.4992	7309.6	6424.5
1004.9328	2784.6861	7287.15	6400.65
1005.0526	2785.8723	7278.85	6391.7
1005.1723	2787.0579	7257.9	6371.05
1005.2921	2788.2428	7220.8	6336.3
1005.4118	2789.427	7215.25	6328.75
1005.5314	2790.6106	7185.9	6301.35
1005.651	2791.7935	7168.4	6282.65
1005.7706	2792.9757	7126.95	6243.1
1005.8902	2794.1573	7118.65	6231.4
1006.0097	2795.3382	7094.2	6208.1
1006.1291	2796.5184	7069.3	6186
1006.2485	2797.698	7053.8	6167.8
1006.3679	2798.8769	7059.45	6175.35
1006.4873	2800.0551	7033.8	6146.5
1006.6066	2801.2327	7020.9	6130.65
1006.7258	2802.4096	6989.1	6104.7
1006.8451	2803.5859	6971.1	6085.2
1006.9642	2804.7615	6969.95	6083.2
1007.0834	2805.9364	6972.2	6087.15
1007.2025	2807.1106	6940.6	6058.25
1007.3216	2808.2842	6953.6	6067.05
1007.4406	2809.4572	6952.95	6067.05
1007.5596	2810.6294	6965.2	6078.75
1007.6785	2811.801	6959.9	6076.4
1007.7975	2812.972	6993.25	6107.8
1007.9163	2814.1423	6988.65	6104.65
1008.0352	2815.3119	7025.45	6139.55
1008.154	2816.4808	7033.1	6149.75
1008.2727	2817.6491	7031.5	6145.35
1008.3914	2818.8167	7063.85	6179.6
1008.5101	2819.9837	7093.1	6202.6
1008.6288	2821.15	7134.7	6248.45
1008.7474	2822.3157	7145.15	6259.65
1008.8659	2823.4807	7157.15	6272.3
1008.9844	2824.645	7206.3	6321.7
1009.1029	2825.8086	7216.55	6332.8
1009.2214	2826.9716	7246.65	6362.3
1009.3398	2828.134	7278.1	6392.9
1009.4581	2829.2957	7313.1	6428.7
1009.5764	2830.4567	7328.95	6447
1009.6947	2831.617	7313.7	6428.9
1009.813	2832.7767	7324.9	6441.55
1009.9312	2833.9358	7309.6	6427.25
1010.0493	2835.0941	7273.9	6385.65
1010.1675	2836.2519	7240.6	6354.9
1010.2855	2837.4089	7240.4	6355.1
1010.4036	2838.5653	7202.95	6316.8
1010.5216	2839.7211	7179.45	6294.9
1010.6396	2840.8761	7157	6271.2
1010.7575	2842.0306	7152.4	6268.9
1010.8754	2843.1843	7157.8	6273.7
1010.9932	2844.3374	7177.8	6292.1
1011.111	2845.4899	7190.45	6303.2
1011.2288	2846.6417	7232	6346.65
1011.3465	2847.7928	7272.1	6388.1
1011.4642	2848.9433	7304.65	6417.4
1011.5818	2850.0931	7335.3	6449.2
1011.6995	2851.2422	7387.2	6502.45
1011.817	2852.3907	7419.9	6533.15
1011.9345	2853.5385	7450.35	6564.85
1012.052	2854.6857	7486.3	6591.7
1012.1695	2855.8323	7485.95	6602.7
1012.2869	2856.9781	7518.45	6633.75
1012.4042	2858.1233	7536.85	6650.15
1012.5216	2859.2679	7541.5	6656.95
1012.6389	2860.4118	7553.2	6667.35
1012.7561	2861.555	7615.45	6726.55
1012.8733	2862.6976	7621.7	6735.1
1012.9905	2863.8395	7621.85	6738.2
1013.1076	2864.9808	7620.05	6735.65
1013.2247	2866.1214	7619.9	6734.05
1013.3417	2867.2614	7616.45	6728.95
1013.4587	2868.4007	7623.95	6737.95
1013.5757	2869.5393	7616.4	6728.3
1013.6926	2870.6773	7581.2	6693.6
1013.8095	2871.8146	7576.3	6689
1013.9263	2872.9513	7534.2	6645.95
1014.0431	2874.0874	7516.4	6632.25
1014.1599	2875.2227	7510.45	6625.9
1014.2766	2876.3574	7460.4	6574
1014.3933	2877.4915	7417.25	6534.55
1014.51	2878.6249	7362.65	6478.35
1014.6266	2879.7577	7315.9	6430.4
1014.7431	2880.8898	7293.75	6399.2
1014.8596	2882.0212	7272.55	6390.5
1014.9761	2883.152	7221.3	6334.5
1015.0925	2884.2821	7197.8	6315.05
1015.2089	2885.4116	7176.1	6294.8
1015.3253	2886.5405	7168.2	6283.7
1015.4416	2887.6686	7162.75	6272.75
1015.5579	2888.7962	7124.05	6238.7
1015.6741	2889.923	7108.35	6225.75
1015.7903	2891.0493	7097.5	6214.05
1015.9065	2892.1748	7090.75	6206.4
1016.0226	2893.2997	7073.95	6187.75
1016.1387	2894.424	7074.4	6192.25
1016.2547	2895.5476	7070.4	6185.15
1016.3707	2896.6706	7061.65	6176.7
1016.4866	2897.7929	7061.9	6176.35
1016.6025	2898.9145	7081.7	6196.25
1016.7184	2900.0355	7059.65	6173.45
1016.8342	2901.1559	7082.5	6195.7
1016.95	2902.2756	7094	6209.6
1017.0658	2903.3946	7084.15	6199.2
1017.1815	2904.513	7072.15	6185.05
1017.2971	2905.6308	7100.3	6216.25
1017.4127	2906.7479	7085	6198.25
1017.5283	2907.8643	7107.9	6221.65
1017.6439	2908.9801	7095.35	6211.15
1017.7594	2910.0953	7065.6	6179.95
1017.8748	2911.2098	7036.2	6149.65
1017.9902	2912.3236	7032.75	6138.9
1018.1056	2913.4368	6985.75	6097.9
1018.2209	2914.5494	6973.4	6088.8
1018.3362	2915.6613	6928.3	6039.6
1018.4515	2916.7725	6894.5	6007.05
1018.5667	2917.8831	6883.55	5997.8
1018.6819	2918.9931	6800.35	5913.65
1018.797	2920.1024	6750.05	5864.3
1018.9121	2921.211	6739.05	5852.7
1019.0271	2922.319	6718.6	5834.95
1019.1421	2923.4264	6698.95	5812.95
1019.2571	2924.5331	6670.3	5787.35
1019.372	2925.6391	6640.75	5755.45
1019.4869	2926.7445	6620.3	5736.55
1019.6017	2927.8493	6616.8	5730
1019.7165	2928.9534	6581.75	5696.75
1019.8313	2930.0569	6574.3	5686
1019.946	2931.1597	6566.5	5683.65
1020.0606	2932.2619	6561.9	5676.95
1020.1753	2933.3634	6543.05	5657.95
1020.2899	2934.4643	6542.8	5651.85
1020.4044	2935.5645	6507.4	5615.85
1020.5189	2936.6641	6471.45	5583.15
1020.6334	2937.763	6444.5	5561.45
1020.7478	2938.8613	6387.9	5501.15
1020.8622	2939.959	6328.35	5438.45
1020.9765	2941.056	6263.3	5378.8
1021.0908	2942.1523	6184.35	5297.6
1021.2051	2943.248	6128.35	5242.55
1021.3193	2944.3431	6001	5116.25
1021.4334	2945.4375	5920.5	5034.95
1021.5476	2946.5313	5827.45	4944.7
1021.6617	2947.6244	5726	4839.3
1021.7757	2948.7169	5624.25	4740
1021.8897	2949.8087	5559.65	4674.05
1022.0037	2950.8999	5441.6	4555.9
1022.1176	2951.9904	5362.25	4476.85
1022.2315	2953.0803	5279.25	4396.4
1022.3453	2954.1696	5229.85	4346.05
1022.4591	2955.2582	5161.95	4279.15
1022.5728	2956.3462	5111.55	4225.7
1022.6865	2957.4335	5061.55	4177.05
1022.8002	2958.5202	4999.8	4115.3
1022.9138	2959.6062	4972.4	4087.85
1023.0274	2960.6916	4934.7	4050.35
1023.141	2961.7764	4896.85	4010.9
1023.2545	2962.8605	4894.85	4009.15
1023.3679	2963.9439	4863.35	3978.1
1023.4813	2965.0267	4830.55	3946.35
1023.5947	2966.1089	4829.45	3921.9
1023.708	2967.1905	4794.35	3908.55
1023.8213	2968.2714	4762.8	3877.15
1023.9346	2969.3516	4760.05	3874.95
1024.0478	2970.4312	4735.6	3842.75
1024.1609	2971.5102	4705.9	3819.85
1024.274	2972.5885	4712.2	3828.1
1024.3871	2973.6662	4720.35	3830.9
1024.5002	2974.7432	4696.45	3812.5
1024.6132	2975.8196	4680.1	3794.55
1024.7261	2976.8954	4662.9	3779.6
1024.839	2977.9705	4628.75	3744.2
1024.9519	2979.045	4622.7	3736.1
1025.0647	2980.1188	4612.55	3726.9
1025.1775	2981.192	4557.55	3673.6
1025.2902	2982.2645	4529.5	3646.3
1025.4029	2983.3364	4491	3606.85
1025.5156	2984.4077	4475.85	3590.8
1025.6282	2985.4783	4436.55	3546.55
1025.7407	2986.5483	4404.05	3520.8
1025.8532	2987.6177	4360	3475.15
1025.9657	2988.6864	4319.3	3434.5
1026.0782	2989.7545	4278.9	3393.4
1026.1906	2990.8219	4248.75	3364.4
1026.3029	2991.8887	4211.95	3326.8
1026.4152	2992.9548	4188.05	3302.05
1026.5275	2994.0204	4148.75	3264.85
1026.6397	2995.0852	4102.95	3220.55
1026.7519	2996.1495	4059.6	3174.75
1026.864	2997.2131	4023.9	3140.15
1026.9761	2998.276	3994.2	3109.45
1027.0882	2999.3383	3972.8	3087.65
1027.2002	3000.4	3938.6	3052.95
1027.3122	3001.4611	3912.7	3028.6
1027.4241	3002.5215	3905.8	3023.5
1027.536	3003.5812	3872.5	2987.3
1027.6478	3004.6404	3841.6	2958.85
1027.7596	3005.6989	3828.6	2940.85
1027.8714	3006.7567	3819.95	2936.7
1027.9831	3007.8139	3816.45	2903.9
1028.0947	3008.8705	3778.15	2894.1
1028.2064	3009.9264	3757.1	2867.4
1028.3179	3010.9818	3741.6	2857
1028.4295	3012.0364	3739	2853.15
1028.541	3013.0905	3719.75	2836
1028.6524	3014.1439	3704.05	2820.65
1028.7638	3015.1966	3690.3	2804.95
1028.8752	3016.2487	3672.4	2785.1
1028.9865	3017.3002	3667.25	2780.35
1029.0978	3018.3511	3645.45	2761.65
1029.209	3019.4013	3635	2750.1
1029.3202	3020.4509	3623.35	2738.25
1029.4314	3021.4998	3617.9	2733.4
1029.5425	3022.5481	3603.2	2719.35
1029.6535	3023.5958	3580.25	2696.9
1029.7645	3024.6428	3578.45	2693.95
1029.8755	3025.6892	3581.65	2698.25
1029.9864	3026.735	3556.15	2673.2
1030.0973	3027.7802	3543.15	2659.9
1030.2082	3028.8247	3528.1	2642.65
1030.319	3029.8685	3517.1	2632.85
1030.4297	3030.9118	3510.15	2624.25
1030.5404	3031.9544	3496.65	2614
1030.6511	3032.9963	3482.2	2597.95
1030.7617	3034.0376	3482.85	2597.65
1030.8723	3035.0783	3473.7	2587.9
1030.9829	3036.1184	3465.1	2579.4
1031.0934	3037.1578	3462.2	2578.85
1031.2038	3038.1966	3453.25	2567.8
1031.3142	3039.2348	3436.95	2556.15
1031.4246	3040.2723	3444.65	2552.25
1031.5349	3041.3092	3423.15	2538
1031.6452	3042.3455	3419.8	2533.9
1031.7554	3043.3811	3402.25	2515.85
1031.8656	3044.4161	3398.25	2513.35
1031.9758	3045.4505	3384.2	2500.6
1032.0859	3046.4842	3372.25	2486.3
1032.1959	3047.5173	3361.75	2478.8
1032.3059	3048.5498	3356	2470.55
1032.4159	3049.5816	3321.6	2437.5
1032.5258	3050.6128	3330.95	2446.25
1032.6357	3051.6434	3311.9	2427.55
1032.7455	3052.6734	3295.4	2408.1
1032.8553	3053.7027	3297.85	2413.9
1032.9651	3054.7314	3269.8	2385.45
1033.0748	3055.7594	3257.3	2373.3
1033.1845	3056.7868	3264.45	2378.85
1033.2941	3057.8136	3240.6	2357.6
1033.4037	3058.8398	3237.35	2354.25
1033.5132	3059.8653	3216	2333.35
1033.6227	3060.8902	3207.8	2323.4
1033.7321	3061.9145	3193.6	2309.1
1033.8415	3062.9381	3175	2290.25
1033.9509	3063.9612	3172.6	2272.75
1034.0602	3064.9835	3153.3	2268.4
1034.1694	3066.0053	3159.45	2271.95
1034.2787	3067.0264	3136	2250.85
1034.3878	3068.0469	3125.25	2240
1034.497	3069.0668	3125.9	2240.55
1034.6061	3070.086	3098.55	2216.45
1034.7151	3071.1046	3095.65	2213.75
1034.8241	3072.1226	3073.65	2187.65
1034.9331	3073.1399	3060.65	2176.25
1035.042	3074.1567	3042.1	2158
1035.1508	3075.1727	3040.3	2153.9
1035.2597	3076.1882	3021.05	2137.95
1035.3684	3077.203	3007.45	2120.95
1035.4772	3078.2173	2997	2112.05
1035.5859	3079.2308	2995.25	2107.5
1035.6945	3080.2438	2969.05	2082.4
1035.8031	3081.2561	2951.35	2068
1035.9117	3082.2678	2941.05	2057.1
1036.0202	3083.2789	2923.05	2038
1036.1286	3084.2893	2921.9	2036.85
1036.2371	3085.2991	2910.65	2024.8
1036.3454	3086.3083	2895.85	2007.65
1036.4538	3087.3169	2876.95	1992.85
1036.562	3088.3248	2866.4	1980.6
1036.6703	3089.3321	2860.9	1974.9
1036.7785	3090.3388	2844.45	1960.45
1036.8866	3091.3449	2839.2	1954.85
1036.9948	3092.3503	2828.45	1943.7
1037.1028	3093.3551	2816.2	1933.8
1037.2108	3094.3593	2807.85	1925.75
1037.3188	3095.3629	2795.65	1911.7
1037.4267	3096.3658	2794.45	1908.1
1037.5346	3097.3681	2781.7	1897.6
1037.6425	3098.3698	2766.45	1881.4
1037.7503	3099.3708	2750.85	1860.05
1037.858	3100.3713	2732.2	1848.35
1037.9657	3101.3711	2731.75	1848.15
1038.0734	3102.3702	2834.35	1805.9
1038.181	3103.3688	2728.65	1842.1
1038.2886	3104.3667	2696.1	1810.9
1038.3961	3105.364	2687.8	1806.45
1038.5036	3106.3607	2674.8	1789.05
1038.611	3107.3568	2663.9	1778.75
1038.7184	3108.3522	2649.1	1765.25
1038.8257	3109.347	2634	1748.85
1038.933	3110.3412	2630.15	1742.3
1039.0403	3111.3348	2621.4	1737.65
1039.1475	3112.3277	2602.55	1718.1
1039.2547	3113.32	2601.85	1718.15
1039.3618	3114.3117	2604.7	1721
1039.4689	3115.3028	2579.85	1694.6
1039.5759	3116.2932	2562.65	1676.6
1039.6829	3117.2831	2571.55	1680.85
1039.7898	3118.2723	2546.85	1661.55
1039.8967	3119.2608	2547.45	1662.45
1040.0035	3120.2488	2529.5	1645
1040.1103	3121.2361	2518.05	1633.4
1040.2171	3122.2229	2497.85	1612.5
1040.3238	3123.209	2501.25	1614.75
1040.4305	3124.1944	2491.95	1607.5
1040.5371	3125.1793	2492.3	1605.7
1040.6437	3126.1635	2472.45	1589.6
1040.7502	3127.1471	2458.6	1575.5
1040.8567	3128.1301	2459.6	1575.1
1040.9631	3129.1125	2439	1554.5
1041.0695	3130.0942	2443.6	1559.15
1041.1759	3131.0753	2449.45	1557.55
1041.2822	3132.0558	2430.4	1542.35
1041.3884	3133.0357	2427.3	1542.85
1041.4946	3134.015	2412.25	1526.9
1041.6008	3134.9936	2414.2	1527.25
1041.7069	3135.9716	2433.65	1527.25
1041.813	3136.949	2399.1	1514.95
1041.919	3137.9258	2391.05	1501.25
1042.025	3138.902	2389.75	1501.95
1042.1309	3139.8775	2383.2	1498.45
1042.2368	3140.8524	2381.15	1497.25
1042.3427	3141.8267	2362	1475.65
1042.4485	3142.8004	2360.05	1474.45
1042.5542	3143.7735	2367.35	1474.95
1042.6599	3144.7459	2353.15	1465.4
1042.7656	3145.7178	2344.8	1459.75
1042.8712	3146.689	2337.2	1450.95
1042.9768	3147.6596	2319.95	1432.4
1043.0823	3148.6295	2313.8	1429.1
1043.1878	3149.5989	2305.15	1424.45
1043.2932	3150.5676	2289.75	1405.75
1043.3986	3151.5357	2284.35	1400.15
1043.5039	3152.5032	2277.05	1395.25
1043.6092	3153.4701	2277.95	1394.05
1043.7145	3154.4364	2267.2	1380.6
1043.8197	3155.402	2261.55	1378.15
1043.9248	3156.367	2254	1366.7
1044.03	3157.3315	2271.2	1346.2
1044.135	3158.2952	2237.2	1353.85
1044.24	3159.2584	2234.1	1349.65
1044.345	3160.221	2223.95	1340.25
1044.4499	3161.1829	2218.9	1334.75
1044.5548	3162.1442	2192.85	1310.2
1044.6596	3163.105	2200.1	1316.3
1044.7644	3164.065	2179.25	1293.65
1044.8692	3165.0245	2189.25	1302.3
1044.9739	3165.9834	2182.9	1299.2
1045.0785	3166.9416	2174.45	1288.55
1045.1831	3167.8993	2164.95	1277.7
1045.2877	3168.8563	2158.65	1274
1045.3922	3169.8127	2134.65	1251.05
1045.4966	3170.7684	2143.95	1258.7
1045.6011	3171.7236	2132.45	1245.35
1045.7054	3172.6782	2135.3	1250.05
1045.8098	3173.6321	2117	1231.65
1045.914	3174.5854	2126.5	1236.4
1046.0183	3175.5381	2111.85	1226.05
1046.1224	3176.4902	2099.9	1214.95
1046.2266	3177.4417	2102	1217.65
1046.3307	3178.3926	2090.25	1207.55
1046.4347	3179.3428	2089.2	1206.5
1046.5387	3180.2924	2078.2	1193.1
1046.6427	3181.2415	2068.5	1185.1
1046.7466	3182.1899	2055.15	1168.8
1046.8504	3183.1377	2055.1	1170.1
1046.9542	3184.0848	2048.05	1159.55
1047.058	3185.0314	2042.7	1158.15
1047.1617	3185.9773	2035.55	1150.8
1047.2654	3186.9227	2019	1133.2
1047.369	3187.8674	2023.25	1137.3
1047.4726	3188.8115	2020.15	1130.75
1047.5761	3189.755	2021.95	1136.55
1047.6796	3190.6979	2000.3	1117.1
1047.783	3191.6402	2000.35	1117.55
1047.8864	3192.5818	1991.2	1106.55
1047.9898	3193.5229	2001.5	1100.3
1048.0931	3194.4633	1984.05	1098.9
1048.1963	3195.4031	1978.2	1092
1048.2995	3196.3423	1970.15	1085.85
1048.4027	3197.2809	1963.45	1079.6
1048.5058	3198.2189	1969.15	1084.35
1048.6089	3199.1563	1961.9	1063.25
1048.7119	3200.0931	1951.35	1067.05
1048.8148	3201.0292	1944.25	1061.45
1048.9178	3201.9648	1929.2	1047.3
1049.0206	3202.8997	1926.1	1039.3
1049.1235	3203.834	1930.5	1046.6
1049.2262	3204.7677	1927.65	1043.4
1049.329	3205.7008	1918.5	1031.8
1049.4317	3206.6333	1904.35	1021.9
1049.5343	3207.5652	1906.3	1017.35
1049.6369	3208.4964	1906.3	1022.1
1049.7394	3209.4271	1898.95	1015.15
1049.8419	3210.3571	1897	1012.35
1049.9444	3211.2865	1893.45	1009.3
1050.0468	3212.2154	1883.05	997.5
1050.1491	3213.1436	1884.6	998
1050.2514	3214.0712	1879.45	988.5
1050.3537	3214.9982	1873.5	989
1050.4559	3215.9246	1866.9	983.75
1050.5581	3216.8503	1860.25	976.4
1050.6602	3217.7755	1848.45	964.45
1050.7623	3218.7001	1843.8	959.9
1050.8643	3219.624	1847.3	962.8
1050.9663	3220.5473	1826.5	941.9
1051.0682	3221.4701	1832.7	945.6
1051.1701	3222.3922	1828.2	940.4
1051.2719	3223.3137	1818.4	935.15
1051.3737	3224.2346	1818.85	933.55
1051.4754	3225.1549	1813.15	930.3
1051.5771	3226.0746	1806.65	924.9
1051.6788	3226.9937	1803.15	918.15
1051.7804	3227.9121	1795.05	908.85
1051.8819	3228.83	1796.75	913.75
1051.9834	3229.7473	1800	913.7
1052.0849	3230.6639	1791.3	907.25
1052.1863	3231.5799	1777.5	893.5
1052.2876	3232.4954	1768.15	882.8
1052.3889	3233.4102	1759.35	877.1
1052.4902	3234.3244	1764.35	882.65
1052.5914	3235.238	1750.95	868.5
1052.6926	3236.151	1763.5	858.85
1052.7937	3237.0634	1742.1	858.5
1052.8948	3237.9752	1728.4	846.4
1052.9958	3238.8864	1737.4	852.05
1053.0968	3239.797	1734.8	851.15
1053.1977	3240.7069	1719.15	833.65
1053.2986	3241.6163	1720.55	835.15
1053.3994	3242.5251	1716.35	833.85
1053.5002	3243.4332	1705.55	821.6
1053.6009	3244.3408	1703.6	820.2
1053.7016	3245.2477	1695.55	811.8
1053.8022	3246.154	1703.2	818.25
1053.9028	3247.0598	1691.1	806.05
1054.0034	3247.9649	1681.15	795.25
1054.1039	3248.8694	1686.4	801.9
1054.2043	3249.7733	1677.95	792.75
1054.3047	3250.6766	1671.95	788.7
1054.4051	3251.5793	1670.9	785.7
1054.5054	3252.4814	1658.4	773.85
1054.6056	3253.3829	1661.35	778.4
1054.7058	3254.2838	1648.25	765.2
1054.806	3255.1841	1647.85	764.55
1054.9061	3256.0838	1640.95	757.4
1055.0061	3256.9829	1625.05	740.8
1055.1062	3257.8814	1625.55	738.9
1055.2061	3258.7792	1626.05	740.4
1055.306	3259.6765	1616.3	730.2
1055.4059	3260.5731	1598.75	714.3
1055.5057	3261.4692	1593.3	707.9
1055.6055	3262.3647	1584.9	699.95
1055.7052	3263.2595	1569.7	685.35
1055.8049	3264.1538	1569.15	684.75
1055.9045	3265.0474	1555.1	670.35
1056.0041	3265.9404	1549.55	667.1
1056.1036	3266.8329	1540.3	656.5
1056.2031	3267.7247	1532.05	636.65
1056.3025	3268.616	1512.55	628
1056.4019	3269.5066	1496.7	612.1
1056.5013	3270.3966	1478.85	592.65
1056.6005	3271.286	1459.55	576.05
