Software Version:	3.9.2.0
Unit SN:	10000200
Spectrometer SN:	6960
Date:	3/6/2024 10:07:29 AM
Data Line Index:	25
Spectral Points:	2048
Integration time (ms):	125
Averages:	20
Delay (ms):	30
Sequence Number:	1
Processing:	dark subtract
Laser Power (mW):	305
Laser Current (mA):	826
Laser Diode Temp (C):	25.1
Laser Case Temp (C):	24.8
System Temp (C):	24.6
Spectrometer Temp (C):	22.2
CCD Temp (C):	-0.003
Secondary Temp (C):	20.006
Heatsink Temp (C):	18.498
CCDPCB Temp (C):	31.094
SecondaryPCB Temp (C):	25.747

Wavelength	RamanShift	Raw Counts	Dark Subtracted
787.061	30.1047	790.45	383.25
787.2016	32.3739	808.8	402.05
787.3422	34.6426	825.9	416.7
787.4828	36.9109	855.2	446.35
787.6235	39.1787	890.7	475.45
787.7642	41.4461	925	507.1
787.9049	43.7131	960.05	540.2
788.0456	45.9796	992.1	568.7
788.1863	48.2456	1029.1	601.1
788.3271	50.5112	1067.5	634.7
788.4679	52.7764	1102.75	668.7
788.6087	55.0411	1140.95	702.1
788.7496	57.3054	1197.2	753.05
788.8904	59.5692	1251.8	806.9
789.0313	61.8326	1295.85	847.1
789.1722	64.0955	1355.65	904.85
789.3132	66.3579	1423.55	965.9
789.4541	68.6199	1506.4	1044.9
789.5951	70.8815	1666.85	1201.35
789.7361	73.1426	1988.85	1521.5
789.8771	75.4032	2814.85	2343.1
790.0181	77.6634	4930.15	4453.3
790.1592	79.9231	10278.05	9795.45
790.3003	82.1824	26501.15	26008.15
790.4414	84.4412	50536.4	50021.8
790.5825	86.6995	61331.25	60793.5
790.7237	88.9574	64254.75	63698.75
790.8648	91.2148	65162.95	64586.3
791.006	93.4717	65268.95	64687.3
791.1472	95.7282	65325.95	64740
791.2885	97.9842	65361.65	64770.75
791.4297	100.2398	65351.3	64758.15
791.571	102.4949	65369.4	64773.3
791.7123	104.7495	65359.1	64758.55
791.8536	107.0036	65348.3	64746.25
791.9949	109.2573	65383.4	64784.55
792.1363	111.5105	65363.75	64764.2
792.2777	113.7632	65365.75	64762.45
792.4191	116.0154	65388.75	64776
792.5605	118.2672	65422.1	64811.75
792.7019	120.5185	65419.15	64808.7
792.8434	122.7693	65429	64816.2
792.9849	125.0197	65383.4	64765.8
793.1264	127.2696	65467.05	64843.3
793.2679	129.519	65435.6	64811.55
793.4094	131.7679	65485.3	64855.35
793.551	134.0163	65411.35	64776.85
793.6926	136.2642	65447.3	64812.45
793.8342	138.5117	65495.1	64857
793.9758	140.7587	65478.3	64840.25
794.1175	143.0052	65467.3	64827.15
794.2591	145.2512	65426.7	64785.4
794.4008	147.4967	65472.7	64830.55
794.5425	149.7417	65477.5	64831.1
794.6842	151.9863	65477.45	64824.85
794.826	154.2304	65462.45	64809.55
794.9677	156.4739	65469.15	64810.05
795.1095	158.717	65515.9	64856.1
795.2513	160.9596	65488.7	64824.4
795.3931	163.2017	65442.4	64778.9
795.535	165.4433	65490	64822.25
795.6768	167.6844	65464.2	64794.5
795.8187	169.925	65483.3	64811.15
795.9606	172.1651	65459.5	64782.95
796.1025	174.4047	65495.05	64812.75
796.2445	176.6439	65478.5	64799.85
796.3864	178.8825	65459.35	64778.75
796.5284	181.1206	65519.35	64834.45
796.6704	183.3582	65503.05	64811.55
796.8124	185.5954	65498.4	64805.65
796.9544	187.832	65500	64803.2
797.0965	190.0681	65465.7	64768.4
797.2386	192.3037	65517.35	64814.1
797.3806	194.5388	65530.35	64822.85
797.5228	196.7734	65439.25	64730
797.6649	199.0075	65531.15	64823.05
797.807	201.2411	65517.75	64809.45
797.9492	203.4742	65533.75	64824.95
798.0914	205.7068	65526.6	64806.7
798.2336	207.9389	65527.5	64807.5
798.3758	210.1704	65523.35	64809.7
798.518	212.4015	65535	64836.15
798.6603	214.632	65525.25	64828.3
798.8025	216.862	65535	64840.05
798.9448	219.0915	65528.4	64829.3
799.0871	221.3205	65526.3	64822.8
799.2294	223.549	65535	64842.5
799.3718	225.777	65535	64835.65
799.5141	228.0044	65535	64832
799.6565	230.2314	65535	64830.7
799.7989	232.4578	65535	64827.65
799.9413	234.6837	65535	64816.55
800.0837	236.909	65535	64815.65
800.2262	239.1339	65532.75	64790.6
800.3687	241.3582	65535	64807.4
800.5111	243.582	65535	64775.55
800.6536	245.8053	65535	64789.8
800.7961	248.0281	65535	64792.3
800.9387	250.2503	65535	64788.35
801.0812	252.472	65535	64786.35
801.2238	254.6932	65535	64790.45
801.3664	256.9139	65535	64788.1
801.509	259.134	65535	64780.2
801.6516	261.3536	65535	64784.85
801.7942	263.5727	65535	64783.15
801.9369	265.7912	65535	64785.95
802.0795	268.0092	65535	64780.75
802.2222	270.2267	65535	64782.15
802.3649	272.4436	65535	64780.65
802.5076	274.6601	65535	64768
802.6504	276.8759	65535	64771.55
802.7931	279.0913	65535	64774.75
802.9359	281.3061	65535	64774.7
803.0787	283.5204	65535	64770.8
803.2215	285.7341	65535	64767.45
803.3643	287.9473	65535	64755.95
803.5071	290.16	65535	64762.15
803.6499	292.3721	65535	64772.65
803.7928	294.5837	65535	64765.7
803.9357	296.7947	65535	64765.65
804.0786	299.0052	65535	64767.15
804.2215	301.2152	65535	64761.75
804.3644	303.4246	65535	64767.7
804.5074	305.6334	65535	64764.05
804.6503	307.8418	65535	64761.6
804.7933	310.0495	65535	64756.55
804.9363	312.2568	65535	64758.65
805.0793	314.4635	65535	64757.35
805.2223	316.6696	65535	64754.2
805.3653	318.8752	65535	64745.65
805.5084	321.0802	65535	64757.5
805.6514	323.2847	65535	64751.35
805.7945	325.4887	65535	64752.95
805.9376	327.692	65535	64754.5
806.0807	329.8949	65535	64746.8
806.2238	332.0972	65535	64748.55
806.367	334.2989	65535	64743.7
806.5101	336.5001	65535	64743.6
806.6533	338.7007	65535	64741.35
806.7965	340.9008	65535	64741.45
806.9397	343.1003	65535	64741
807.0829	345.2992	65535	64740.05
807.2261	347.4976	65535	64736.05
807.3693	349.6955	65535	64734.1
807.5126	351.8927	65535	64730.2
807.6559	354.0895	65535	64721.15
807.7991	356.2856	65535	64730.1
807.9424	358.4812	65535	64731.55
808.0857	360.6763	65535	64727.95
808.2291	362.8707	65535	64726.2
808.3724	365.0646	65535	64724.6
808.5158	367.258	65535	64720
808.6591	369.4508	65535	64718.15
808.8025	371.643	65535	64717.15
808.9459	373.8346	65535	64718.9
809.0893	376.0257	65535	64713.25
809.2327	378.2162	65535	64715.1
809.3762	380.4062	65535	64716.15
809.5196	382.5956	65535	64716.4
809.6631	384.7844	65535	64720.8
809.8066	386.9726	65535	64722.6
809.9501	389.1603	65535	64719.45
810.0936	391.3474	65535	64684.35
810.2371	393.5339	65535	64720.6
810.3806	395.7199	65535	64725.5
810.5241	397.9052	65535	64725.85
810.6677	400.09	65535	64723.05
810.8113	402.2743	65535	64723.3
810.9548	404.4579	65535	64722.15
811.0984	406.641	65535	64718.2
811.2421	408.8235	65535	64720.4
811.3857	411.0054	65535	64717.05
811.5293	413.1868	65535	64712.15
811.673	415.3675	65535	64710.75
811.8166	417.5477	65535	64706.2
811.9603	419.7273	65535	64704.95
812.104	421.9064	65535	64700.05
812.2477	424.0848	65535	64705.15
812.3914	426.2627	65535	64704.4
812.5351	428.4399	65535	64704.45
812.6788	430.6166	65534.05	64700.1
812.8226	432.7928	65535	64696.1
812.9663	434.9683	65535	64701.1
813.1101	437.1432	65535	64696.4
813.2539	439.3176	65535	64702
813.3977	441.4914	65534.95	64704.85
813.5415	443.6645	65535	64702.6
813.6853	445.8371	65535	64699.75
813.8291	448.0091	65533.45	64699.4
813.973	450.1806	65529.7	64693.95
814.1168	452.3514	65534.25	64696.35
814.2607	454.5216	65522.55	64677.55
814.4046	456.6913	65534.7	64695.45
814.5485	458.8603	65535	64698.4
814.6924	461.0288	65523.15	64687.7
814.8363	463.1967	65534.7	64700.8
814.9802	465.3639	65531.05	64694
815.1241	467.5306	65495.7	64656.45
815.2681	469.6967	65525.7	64689.9
815.412	471.8622	65535	64699.9
815.556	474.0271	65523.3	64684.7
815.7	476.1914	65525.65	64682.5
815.844	478.3551	65527	64686.15
815.988	480.5182	65535	64696.35
816.132	482.6807	65520.7	64683.1
816.276	484.8426	65520.9	64687.8
816.4201	487.0039	65535	64696.95
816.5641	489.1647	65532.3	64688.1
816.7082	491.3248	65509.45	64663.8
816.8522	493.4843	65535	64691.05
816.9963	495.6432	65535	64692
817.1404	497.8015	65513	64663.15
817.2845	499.9592	65529.35	64680.3
817.4286	502.1163	65529	64678.45
817.5727	504.2728	65528.25	64680.8
817.7168	506.4287	65526.7	64685.35
817.861	508.5839	65522.15	64675.75
818.0051	510.7386	65529.6	64683.2
818.1493	512.8927	65527.5	64677.2
818.2935	515.0461	65527.45	64675.65
818.4377	517.199	65534.9	64683.9
818.5818	519.3512	65521.85	64666.55
818.726	521.5029	65527.25	64669.85
818.8703	523.6539	65526.25	64674.05
819.0145	525.8043	65501.7	64646.45
819.1587	527.9541	65523.8	64667.4
819.303	530.1033	65524.3	64670.7
819.4472	532.2519	65513.5	64657.2
819.5915	534.3999	65532.1	64671.5
819.7357	536.5472	65533.45	64674.1
819.88	538.694	65498.65	64643.5
820.0243	540.8401	65518.3	64658
820.1686	542.9856	65521.15	64656.9
820.3129	545.1305	65531.3	64664.2
820.4572	547.2748	65515.6	64646.35
820.6016	549.4185	65508.6	64641.3
820.7459	551.5615	65527.7	64660.25
820.8902	553.704	65522.75	64655.7
821.0346	555.8458	65507.7	64646.5
821.1789	557.987	65519.7	64655.6
821.3233	560.1276	65523.05	64656
821.4677	562.2675	65514.2	64647.25
821.6121	564.4069	65518.35	64653
821.7565	566.5456	65524.75	64663.05
821.9009	568.6837	65500.55	64638.45
822.0453	570.8212	65520.7	64660.35
822.1897	572.958	65464.2	64600.65
822.3342	575.0942	65518.45	64659.1
822.4786	577.2299	65490.8	64631.5
822.6231	579.3648	65467.55	64614.65
822.7675	581.4992	65461.45	64609.65
822.912	583.6329	65460.85	64609.9
823.0565	585.766	65462.25	64605.6
823.201	587.8985	65480.2	64624.4
823.3454	590.0304	65413.35	64526.15
823.4899	592.1616	65468.2	64594.55
823.6345	594.2922	65437.6	64571.85
823.779	596.4222	65397.6	64526.5
823.9235	598.5515	65416.2	64545.65
824.068	600.6802	65453.35	64582.75
824.2126	602.8083	65393.55	64522.3
824.3571	604.9358	65402.45	64531.45
824.5017	607.0626	65452.7	64578.7
824.6462	609.1888	65370.6	64493.85
824.7908	611.3144	65418	64540.65
824.9354	613.4393	65392.8	64518.7
825.08	615.5636	65353.65	64478.75
825.2246	617.6873	65396.9	64521.5
825.3692	619.8103	65343	64464.35
825.5138	621.9327	65405.35	64528.8
825.6584	624.0544	65409.1	64536.4
825.803	626.1756	65387.1	64514
825.9477	628.2961	65391.25	64514.8
826.0923	630.4159	65374	64498
826.237	632.5351	65349.85	64473.9
826.3816	634.6537	65435.9	64558.7
826.5263	636.7716	65342.85	64466.25
826.6709	638.8889	65363.25	64480.65
826.8156	641.0056	65354.15	64474.6
826.9603	643.1216	65362.8	64481.1
827.105	645.237	65389.8	64508.7
827.2497	647.3518	65338.15	64462.15
827.3944	649.4659	65349.25	64474.45
827.5391	651.5793	65358.65	64484.6
827.6838	653.6922	65377.95	64500.75
827.8285	655.8043	65307.4	64431.4
827.9733	657.9159	65389	64510.2
828.118	660.0268	65256.8	64381
828.2627	662.137	65338.5	64457.45
828.4075	664.2466	65339.85	64455.1
828.5522	666.3556	65309.95	64430.45
828.697	668.4639	65335.25	64453
828.8418	670.5716	65302.8	64423.95
828.9865	672.6786	65324	64440.8
829.1313	674.785	65293.8	64407.75
829.2761	676.8907	65293.15	64412.8
829.4209	678.9958	65314.55	64435.9
829.5657	681.1002	65323.35	64442.05
829.7105	683.204	65280.05	64387.4
829.8553	685.3072	65255.75	64366.35
830.0001	687.4097	65280.65	64394.3
830.1449	689.5115	65264.7	64377.9
830.2898	691.6127	65302.1	64415.1
830.4346	693.7132	65274.3	64391
830.5794	695.8131	65274.05	64365.9
830.7243	697.9123	65282.45	64391.75
830.8691	700.0109	65296.05	64405.8
831.014	702.1089	65236.35	64349.4
831.1588	704.2061	65254.65	64366.6
831.3037	706.3028	65269.35	64380.25
831.4486	708.3987	65271.4	64384.5
831.5935	710.4941	65248.6	64361.35
831.7383	712.5887	65270.25	64380.55
831.8832	714.6827	65235.95	64347
832.0281	716.7761	65259.85	64373.85
832.173	718.8688	65262.2	64373.5
832.3179	720.9608	65232.35	64343.1
832.4628	723.0522	65230.05	64332.85
832.6077	725.1429	65204.15	64311.15
832.7527	727.233	65291.8	64401.1
832.8976	729.3224	65182.3	64290.85
833.0425	731.4112	65221.05	64330.85
833.1874	733.4993	65212	64318.05
833.3324	735.5867	65216.9	64325.1
833.4773	737.6735	65199.7	64306.4
833.6222	739.7596	65178.25	64285.95
833.7672	741.845	65181.75	64291.85
833.9122	743.9298	65211.95	64318.15
834.0571	746.014	65176.5	64282.1
834.2021	748.0974	65147.65	64248.9
834.347	750.1802	65209.4	64312.75
834.492	752.2624	65133.05	64236.15
834.637	754.3439	65138.4	64242.65
834.782	756.4247	65138.75	64234.4
834.9269	758.5048	65132.5	64234
835.0719	760.5843	65125.15	64228.8
835.2169	762.6631	65134.85	64235.55
835.3619	764.7413	65115.45	64222.25
835.5069	766.8188	65123.75	64228.35
835.6519	768.8956	65129.7	64232.2
835.7969	770.9718	65119.6	64223.15
835.9419	773.0473	65099.2	64204.65
836.0869	775.1221	65087.95	64191.5
836.232	777.1962	65095.9	64198
836.377	779.2697	65063.3	64162.9
836.522	781.3426	65072.25	64158.4
836.667	783.4147	65069.8	64169.85
836.8121	785.4862	65048.45	64151.75
836.9571	787.557	65043.75	64147.15
837.1021	789.6271	65057.3	64162.25
837.2472	791.6966	65040.3	64144.5
837.3922	793.7654	65018.55	64119.25
837.5373	795.8335	65016.1	64118.5
837.6823	797.901	65020.2	64123.3
837.8274	799.9678	65010.65	64107.9
837.9724	802.0339	65014	64115.55
838.1175	804.0993	65012.7	64103.35
838.2626	806.1641	65002.2	64100
838.4076	808.2282	64992.3	64092.3
838.5527	810.2916	64985.8	64084.5
838.6978	812.3544	64992.25	64096.25
838.8428	814.4164	64977	64081.45
838.9879	816.4778	64979.05	64078.85
839.133	818.5385	64978.65	64078.75
839.2781	820.5986	64969.75	64067.05
839.4232	822.658	64967.85	64066.15
839.5682	824.7166	64965.3	64062.7
839.7133	826.7747	64951.15	64052.75
839.8584	828.832	64943.9	64042.55
840.0035	830.8886	64951.8	64046.3
840.1486	832.9446	64945.2	64043.45
840.2937	834.9999	64913.85	64015
840.4388	837.0545	64915.35	64009.25
840.5839	839.1085	64926.45	64023.85
840.729	841.1618	64925.4	64018.85
840.8741	843.2143	64899.25	63996.7
841.0192	845.2662	64890.35	63987.55
841.1643	847.3175	64895.85	63993.45
841.3095	849.368	64837.9	63937.85
841.4546	851.4179	64880.25	63980.6
841.5997	853.467	64855.85	63948.5
841.7448	855.5155	64877.55	63972.2
841.8899	857.5633	64835.25	63934.55
842.0351	859.6105	64805.8	63898.5
842.1802	861.6569	64834.9	63931.2
842.3253	863.7027	64781.35	63877.65
842.4704	865.7478	64816.2	63913
842.6156	867.7922	64787.45	63882.1
842.7607	869.8359	64800.25	63896.95
842.9058	871.8789	64708.85	63804.8
843.0509	873.9212	64760.95	63822.85
843.1961	875.9629	64755.1	63849.2
843.3412	878.0039	64744.1	63840.35
843.4863	880.0441	64697.5	63795.35
843.6315	882.0837	64705.8	63802.65
843.7766	884.1226	64707.5	63803.15
843.9218	886.1609	64697.95	63793.75
844.0669	888.1984	64669.8	63766.95
844.212	890.2352	64742.05	63836.45
844.3572	892.2714	64626.35	63717.5
844.5023	894.3069	64696.15	63793.5
844.6475	896.3416	64640.5	63730.95
844.7926	898.3757	64605.4	63697.3
844.9377	900.4091	64477.85	63569.65
845.0829	902.4418	64641.15	63724.95
845.228	904.4739	64553.3	63643.8
845.3732	906.5052	64557.7	63650.65
845.5183	908.5358	64506.1	63598.8
845.6635	910.5658	64468.8	63557.1
845.8086	912.595	64487.95	63580.85
845.9538	914.6236	64353.4	63444.95
846.0989	916.6515	64528.4	63621.6
846.2441	918.6786	64346.7	63438.5
846.3892	920.7051	64398.6	63489.25
846.5344	922.7309	64346.95	63438.5
846.6795	924.756	64367.25	63461.05
846.8246	926.7804	64310.6	63397.25
846.9698	928.8041	64204.15	63296.1
847.1149	930.8272	64276	63368.1
847.2601	932.8495	64279.5	63371.15
847.4052	934.8711	64189.45	63282.6
847.5504	936.892	64139.6	63229.55
847.6955	938.9123	64175.8	63266.45
847.8407	940.9318	64123.3	63213.7
847.9858	942.9506	64113.7	63206.2
848.131	944.9688	64127.8	63220.2
848.2761	946.9862	64020.05	63111.3
848.4213	949.003	64040.45	63130.8
848.5664	951.019	63945	63034.75
848.7115	953.0344	63963.75	63055.15
848.8567	955.0491	63930.2	63019.1
849.0018	957.063	63939.55	63029.8
849.147	959.0763	63944.9	63037.65
849.2921	961.0888	63872.85	62962.8
849.4373	963.1007	63927.95	63019.6
849.5824	965.1119	63928.25	63024.45
849.7275	967.1223	63854.4	62951.5
849.8727	969.1321	63908.15	63007.1
850.0178	971.1412	63819.3	62912.35
850.1629	973.1495	63803.1	62895
850.3081	975.1572	63808	62858.25
850.4532	977.1641	63793.5	62882.2
850.5983	979.1704	63736.8	62828.15
850.7435	981.1759	63752.45	62840.35
850.8886	983.1808	63706.35	62797.3
851.0337	985.1849	63703.7	62781.9
851.1788	987.1884	63710.6	62799
851.324	989.1911	63722.55	62810.7
851.4691	991.1932	63586.75	62675.8
851.6142	993.1945	63603.4	62694.75
851.7593	995.1951	63602.1	62693.5
851.9045	997.1951	63549.55	62632.9
852.0496	999.1943	63521.55	62612.05
852.1947	1001.1928	63508.9	62599.85
852.3398	1003.1906	63479.7	62571.35
852.4849	1005.1877	63396.75	62487.3
852.63	1007.1841	63371.1	62460.25
852.7751	1009.1798	63357.7	62449.5
852.9202	1011.1748	63353.85	62444.6
853.0653	1013.1691	63315.15	62403.7
853.2104	1015.1627	63058.75	62151.15
853.3555	1017.1556	63167.35	62260.75
853.5006	1019.1477	63187.3	62279.7
853.6457	1021.1392	63068.65	62161.95
853.7908	1023.1299	62863.85	61956.25
853.9359	1025.12	62995.55	62090.55
854.081	1027.1093	62888.35	61989.9
854.2261	1029.0979	62851.3	61956.25
854.3712	1031.0859	62834.4	61934.5
854.5163	1033.0731	62681.5	61778.6
854.6613	1035.0596	62733.6	61829.05
854.8064	1037.0454	62640.8	61731.3
854.9515	1039.0304	62607.95	61697.5
855.0965	1041.0148	62425.2	61516.45
855.2416	1042.9985	62461.15	61549.55
855.3867	1044.9814	62563.15	61654.65
855.5317	1046.9636	62368.6	61456.7
855.6768	1048.9452	62368.6	61459.5
855.8219	1050.926	62304.25	61395.2
855.9669	1052.9061	62318.7	61411.55
856.112	1054.8855	62315.15	61405.2
856.257	1056.8642	62226.35	61316.65
856.4021	1058.8421	62134.3	61220.7
856.5471	1060.8194	62138.6	61230.2
856.6921	1062.7959	61999.8	61088.75
856.8372	1064.7717	62125.85	61215.15
856.9822	1066.7469	62059.35	61148.85
857.1272	1068.7213	62059.85	61148.85
857.2723	1070.695	61956.8	61048.15
857.4173	1072.6679	61873.6	60963.45
857.5623	1074.6402	61952.65	61041.7
857.7073	1076.6117	61825.35	60907.9
857.8523	1078.5826	61793.6	60884.5
857.9973	1080.5527	61810	60898.05
858.1423	1082.5221	61700.85	60792.6
858.2873	1084.4908	61705.75	60798.8
858.4323	1086.4587	61620.95	60710.35
858.5773	1088.426	61593.2	60682.1
858.7223	1090.3925	61582.05	60667.2
858.8673	1092.3584	61571.15	60660.6
859.0123	1094.3235	61434.1	60527.45
859.1573	1096.2879	61382.1	60474.15
859.3022	1098.2515	61438.1	60526.75
859.4472	1100.2145	61377.7	60469.7
859.5922	1102.1767	61336.05	60425.55
859.7371	1104.1382	61371.25	60463.2
859.8821	1106.099	61303.85	60389.95
860.027	1108.0591	61258.75	60349.25
860.172	1110.0185	61082.7	60172.2
860.3169	1111.9771	61233.85	60325.2
860.4619	1113.9351	61174.25	60263.3
860.6068	1115.8923	61070.25	60161.75
860.7517	1117.8488	61007.6	60097.8
860.8967	1119.8045	60900.25	59989.35
861.0416	1121.7596	60918.55	60009.6
861.1865	1123.7139	60835.55	59925.5
861.3314	1125.6675	60813.9	59907
861.4763	1127.6204	60804.75	59896.3
861.6212	1129.5726	60700.95	59792.5
861.7661	1131.524	60745.95	59833.95
861.911	1133.4748	60724.95	59815.2
862.0559	1135.4248	60608.15	59699.3
862.2008	1137.3741	60614	59704.1
862.3457	1139.3226	60578.65	59669
862.4905	1141.2705	60569.25	59660.25
862.6354	1143.2176	60503.35	59588.5
862.7803	1145.164	60386.5	59474.55
862.9251	1147.1097	60428.05	59516.55
863.07	1149.0546	60387.5	59479.15
863.2148	1150.9989	60392.7	59482.1
863.3597	1152.9424	60275.2	59364.1
863.5045	1154.8852	60377.9	59468.1
863.6493	1156.8272	60274.75	59366.55
863.7942	1158.7686	60315.6	59397.25
863.939	1160.7092	60154.45	59246.05
864.0838	1162.6491	60150.75	59241.25
864.2286	1164.5883	60179.2	59269.6
864.3734	1166.5267	60081.3	59170.05
864.5182	1168.4644	60138.1	59227.65
864.663	1170.4014	60097.95	59180.15
864.8078	1172.3377	60132.6	59225.4
864.9526	1174.2732	60141.25	59232.75
865.0974	1176.2081	60070.6	59160.15
865.2421	1178.1421	60039.5	59126.25
865.3869	1180.0755	60130.2	59222.85
865.5317	1182.0082	60063.75	59155.15
865.6764	1183.9401	60058.65	59150.75
865.8212	1185.8713	59958.6	59051.95
865.9659	1187.8017	59948	59045.6
866.1106	1189.7315	59901.95	59006.1
866.2554	1191.6605	59815.15	58889.75
866.4001	1193.5888	59683.3	58781.95
866.5448	1195.5163	59557.35	58651.7
866.6895	1197.4432	59522.35	58616.05
866.8342	1199.3693	59536.75	58628.2
866.9789	1201.2947	59452	58535.1
867.1236	1203.2193	59453.45	58545.85
867.2683	1205.1432	59341.2	58432.6
867.413	1207.0664	59302.65	58393.6
867.5576	1208.9889	59265.15	58355.6
867.7023	1210.9106	59213.9	58304.85
867.847	1212.8316	59128.3	58222.1
867.9916	1214.7519	59135.05	58216.45
868.1363	1216.6715	59039.25	58134.2
868.2809	1218.5903	59032.65	58124.9
868.4255	1220.5084	58960.8	58055.15
868.5701	1222.4257	58990	58082.85
868.7148	1224.3424	58897.55	57991.6
868.8594	1226.2583	58846.8	57937.5
869.004	1228.1735	58875	57967.4
869.1486	1230.0879	58736.8	57829.7
869.2932	1232.0016	58793.5	57885.3
869.4377	1233.9146	58662.75	57753.25
869.5823	1235.8269	58656.5	57748
869.7269	1237.7384	58664.75	57756.4
869.8715	1239.6492	58571.85	57662.5
870.016	1241.5592	58538.55	57631.45
870.1606	1243.4686	58502.95	57594.55
870.3051	1245.3772	58471.7	57563.75
870.4496	1247.285	58472.25	57564
870.5941	1249.1922	58341.2	57433.15
870.7387	1251.0986	58393.1	57485.7
870.8832	1253.0042	58304.9	57400.05
871.0277	1254.9092	58362.5	57454.75
871.1722	1256.8134	58211.65	57306.8
871.3167	1258.7169	58294.9	57388.45
871.4611	1260.6196	58182.45	57274.2
871.6056	1262.5216	58184.9	57277.1
871.7501	1264.4229	58152.85	57248.15
871.8945	1266.3234	58211.3	57305.6
872.039	1268.2232	58183.2	57275.3
872.1834	1270.1223	58119.25	57213.75
872.3278	1272.0207	58079.2	57172.75
872.4723	1273.9183	58070.95	57157.05
872.6167	1275.8151	58020.85	57114.15
872.7611	1277.7113	58000.85	57093.1
872.9055	1279.6067	57912.5	57004.05
873.0499	1281.5014	57870.05	56961.15
873.1943	1283.3953	57934.35	57023.95
873.3386	1285.2885	57910.45	57001.8
873.483	1287.181	57930.65	57023.8
873.6274	1289.0727	57950.25	57043.3
873.7717	1290.9637	57784.4	56879.1
873.9161	1292.854	57955.9	57047.65
874.0604	1294.7435	57885.9	56979.5
874.2047	1296.6323	57893.75	56985.9
874.349	1298.5204	57798.85	56888.6
874.4933	1300.4077	57835.3	56925.05
874.6376	1302.2943	57716.95	56808.9
874.7819	1304.1802	57650.65	56743.15
874.9262	1306.0653	57559.85	56652
875.0705	1307.9497	57496.2	56588.35
875.2147	1309.8333	57491.7	56587.35
875.359	1311.7162	57392.65	56484.1
875.5032	1313.5984	57365.2	56455.5
875.6475	1315.4798	57252.1	56342.3
875.7917	1317.3605	57218.95	56295.45
875.9359	1319.2405	57202.2	56294
876.0801	1321.1197	57006.45	56100.05
876.2243	1322.9982	57046.5	56133.6
876.3685	1324.876	56978.95	56071.65
876.5127	1326.753	56843	55934.95
876.6569	1328.6293	57040.55	56132.2
876.801	1330.5048	56902.85	55993.95
876.9452	1332.3796	56765.95	55859.4
877.0893	1334.2537	56660.45	55728.1
877.2335	1336.127	56719.7	55812.15
877.3776	1337.9996	56591.8	55685.4
877.5217	1339.8714	56695.45	55789.05
877.6658	1341.7426	56378.5	55429.35
877.8099	1343.6129	56536.25	55625.7
877.954	1345.4826	56520.45	55611.85
878.0981	1347.3515	56297.35	55389.65
878.2422	1349.2196	56462.65	55553.15
878.3862	1351.087	56387.7	55479.25
878.5303	1352.9537	56331	55422.3
878.6743	1354.8197	56337.8	55431.3
878.8184	1356.6849	56331.6	55422.6
878.9624	1358.5493	56281.6	55375.45
879.1064	1360.4131	56180.05	55273.05
879.2504	1362.276	56313.7	55407.4
879.3944	1364.1383	56093.5	55183.2
879.5384	1365.9998	55968.7	55056.55
879.6823	1367.8606	56017.25	55107.85
879.8263	1369.7206	55877.8	54970.1
879.9702	1371.5799	55745.1	54835.3
880.1142	1373.4384	55608.7	54701.65
880.2581	1375.2962	55669.55	54761.65
880.402	1377.1533	55377.8	54470.65
880.5459	1379.0096	55199.9	54294.95
880.6898	1380.8652	55174.4	54267.95
880.8337	1382.7201	55025.15	54118.8
880.9776	1384.5742	54988.05	54082.25
881.1215	1386.4275	54622.8	53714.9
881.2653	1388.2802	54689.85	53783.8
881.4092	1390.132	54735.05	53828.2
881.553	1391.9832	54454.15	53542.6
881.6968	1393.8336	54287.55	53379.3
881.8406	1395.6832	54276.1	53364.15
881.9844	1397.5322	54327.05	53420.25
882.1282	1399.3803	54053.45	53142.7
882.272	1401.2278	53998.7	53090.9
882.4158	1403.0745	53925.65	53019.8
882.5595	1404.9204	53857.7	52952.45
882.7033	1406.7656	53827.55	52920.6
882.847	1408.6101	53607.1	52697.65
882.9908	1410.4538	53612.15	52707.1
883.1345	1412.2968	53623.8	52716.35
883.2782	1414.139	53393.95	52488.8
883.4219	1415.9805	53439.15	52535.95
883.5656	1417.8213	53307	52396.05
883.7092	1419.6613	53403.7	52499.25
883.8529	1421.5006	53270.85	52364.6
883.9965	1423.3391	53204.35	52296.3
884.1402	1425.1769	53201.6	52295.45
884.2838	1427.0139	53312.2	52405.6
884.4274	1428.8502	53299.65	52393.05
884.571	1430.6858	53290.4	52386.6
884.7146	1432.5206	53429.55	52524.15
884.8582	1434.3547	53284.5	52379.7
885.0018	1436.188	53147.15	52240.05
885.1453	1438.0206	53226.6	52318.2
885.2889	1439.8524	53128.3	52220.5
885.4324	1441.6835	53030.85	52123.85
885.5759	1443.5139	53038.4	52127.3
885.7194	1445.3435	52890.95	51987.6
885.8629	1447.1724	52948.1	52040.5
886.0064	1449.0005	52784.05	51879.7
886.1499	1450.8279	52775.05	51868.7
886.2933	1452.6545	52776.55	51872.2
886.4368	1454.4804	52735.4	51832.6
886.5802	1456.3056	52687.55	51777.85
886.7237	1458.13	52671.2	51768.8
886.8671	1459.9536	52701.85	51795.95
887.0105	1461.7766	52525.1	51619.7
887.1539	1463.5987	52340.3	51432.15
887.2972	1465.4202	52311.95	51407.35
887.4406	1467.2409	52190.1	51284
887.584	1469.0608	52109.75	51205.2
887.7273	1470.88	52007.65	51103.7
887.8706	1472.6984	51972.85	51069.3
888.0139	1474.5161	51812.45	50907.2
888.1572	1476.3331	51806.35	50902.7
888.3005	1478.1493	51684.8	50779.05
888.4438	1479.9648	51640.9	50735.3
888.5871	1481.7795	51624.05	50720.1
888.7303	1483.5935	51617.15	50711.8
888.8736	1485.4067	51506.5	50601.05
889.0168	1487.2192	51501.8	50599.35
889.16	1489.031	51440.8	50533.75
889.3032	1490.842	51376.2	50472.5
889.4464	1492.6522	51402.85	50499.4
889.5896	1494.4618	51276.75	50372.05
889.7327	1496.2705	51264.55	50360.8
889.8759	1498.0785	51153.25	50248.4
890.019	1499.8858	51149.95	50244.8
890.1622	1501.6924	51123.45	50221.2
890.3053	1503.4981	51012.85	50109
890.4484	1505.3032	51018.45	50114.55
890.5914	1507.1075	50914.05	50009.3
890.7345	1508.911	50901.9	49996.9
890.8776	1510.7138	50885.85	49980.65
891.0206	1512.5159	50854.75	49951.6
891.1637	1514.3172	50664.15	49761.65
891.3067	1516.1178	50609	49707.25
891.4497	1517.9176	50662	49754
891.5927	1519.7166	50555.7	49651.85
891.7357	1521.515	50475.7	49566.4
891.8786	1523.3126	50385	49478.5
892.0216	1525.1094	50378.25	49472.05
892.1645	1526.9055	50257.65	49355.95
892.3074	1528.7008	50201.7	49299.35
892.4503	1530.4954	50031.85	49126.9
892.5932	1532.2893	50113.55	49216.35
892.7361	1534.0824	49933.35	49030.5
892.879	1535.8747	49865.7	48964.6
893.0218	1537.6663	49920.9	49020.9
893.1647	1539.4572	49627	48723.75
893.3075	1541.2473	49663.2	48762.1
893.4503	1543.0367	49614.1	48714.4
893.5931	1544.8253	49535.85	48630.85
893.7359	1546.6132	49522.9	48619.55
893.8787	1548.4003	49406.35	48496.25
894.0214	1550.1867	49370.35	48459.85
894.1642	1551.9723	49320.75	48416.75
894.3069	1553.7572	49324.7	48422.6
894.4496	1555.5414	49317.1	48415.15
894.5923	1557.3247	49105.3	48204.25
894.735	1559.1074	49234.15	48337.95
894.8777	1560.8893	49135.2	48237.4
895.0204	1562.6705	49121.2	48223.7
895.163	1564.4509	48999.5	48102.95
895.3056	1566.2305	48980.6	48084.7
895.4482	1568.0094	49071.85	48177.8
895.5908	1569.7876	48995.35	48100.55
895.7334	1571.565	48858.75	47959.9
895.876	1573.3417	48886.85	47989.5
896.0186	1575.1176	48848.9	47951.3
896.1611	1576.8928	48774.45	47880.5
896.3036	1578.6672	48561.8	47670.15
896.4461	1580.4409	48597.5	47706.95
896.5886	1582.2138	48413.05	47517
896.7311	1583.986	48408.8	47512.35
896.8736	1585.7575	48288	47394.15
897.0161	1587.5282	48351.15	47457.95
897.1585	1589.2981	48368.05	47476.5
897.3009	1591.0673	48178.15	47283.45
897.4433	1592.8358	48098.9	47206.2
897.5857	1594.6035	48196.15	47298.15
897.7281	1596.3704	48197.55	47300.6
897.8705	1598.1366	47891.65	46995.6
898.0128	1599.9021	47778.55	46884.75
898.1551	1601.6668	47908.4	47013.2
898.2975	1603.4308	47801.4	46904.8
898.4398	1605.194	47823.95	46922.45
898.5821	1606.9564	47598.8	46708.5
898.7243	1608.7182	47714.25	46820.95
898.8666	1610.4791	47613.85	46724.55
899.0088	1612.2394	47734.05	46846
899.1511	1613.9988	47606.5	46716.05
899.2933	1615.7576	47779.95	46888.3
899.4355	1617.5156	47744.5	46844.5
899.5776	1619.2728	47940.8	47044.1
899.7198	1621.0293	47572.4	46678.45
899.862	1622.785	47467.35	46571.85
900.0041	1624.54	47429.7	46535.65
900.1462	1626.2942	47231.75	46339.45
900.2883	1628.0477	46866.45	45973.65
900.4304	1629.8005	46642.85	45747.85
900.5725	1631.5525	46737.4	45846.7
900.7145	1633.3037	46409.2	45516.3
900.8566	1635.0542	46307.9	45415.15
900.9986	1636.804	46335.2	45444.9
901.1406	1638.553	46035.9	45099.45
901.2826	1640.3013	46029.75	45139.45
901.4245	1642.0488	45840.2	44946.5
901.5665	1643.7955	45935.4	45046.5
901.7085	1645.5416	45797.8	44908.75
901.8504	1647.2868	45717.5	44827
901.9923	1649.0313	45842.05	44949.9
902.1342	1650.7751	45730.45	44835.75
902.2761	1652.5181	45609.7	44718.6
902.4179	1654.2604	45559.6	44668
902.5598	1656.0019	45635.3	44746.5
902.7016	1657.7427	45561.4	44672.65
902.8434	1659.4828	45744.1	44854.65
902.9852	1661.222	45601.45	44708.75
903.127	1662.9606	45635.1	44745.05
903.2687	1664.6984	45326.45	44434.2
903.4105	1666.4354	45295.05	44400.45
903.5522	1668.1717	44884.45	43990.6
903.6939	1669.9072	44546.1	43651.85
903.8356	1671.642	44436.8	43542.1
903.9773	1673.3761	44254.25	43362.9
904.119	1675.1094	44097.55	43205.45
904.2606	1676.8419	43856.15	42965.05
904.4022	1678.5737	43760.1	42866.75
904.5439	1680.3048	43566.2	42673.95
904.6855	1682.0351	43401.9	42510.6
904.827	1683.7646	43208.1	42313.65
904.9686	1685.4934	43200.8	42309.45
905.1101	1687.2215	42820.8	41928
905.2517	1688.9488	42947.3	42054.3
905.3932	1690.6754	42404.5	41515.2
905.5347	1692.4012	42591.3	41699.2
905.6761	1694.1263	42544.45	41654
905.8176	1695.8506	42345.1	41452.7
905.9591	1697.5742	42215.3	41327.8
906.1005	1699.297	42108.05	41217
906.2419	1701.0191	42013.75	41125.45
906.3833	1702.7404	41726.2	40839.15
906.5246	1704.461	41548.75	40656.25
906.666	1706.1808	41601.5	40710.15
906.8073	1707.8999	41482.05	40591.8
906.9487	1709.6182	41347.05	40459.85
907.09	1711.3358	41253.35	40367.8
907.2313	1713.0527	41153.9	40266.3
907.3725	1714.7688	41079.1	40185.75
907.5138	1716.4841	40749.15	39856.8
907.655	1718.1987	40830.3	39936.95
907.7962	1719.9126	40731.8	39844.75
907.9374	1721.6257	40697.7	39807
908.0786	1723.338	40659.7	39773.8
908.2198	1725.0496	40241.3	39353.8
908.3609	1726.7605	40276.4	39388.95
908.502	1728.4706	40110.9	39220.3
908.6431	1730.18	40103.7	39214.15
908.7842	1731.8886	39935.8	39049.75
908.9253	1733.5964	39809.1	38917.1
909.0664	1735.3036	39845.95	38956.6
909.2074	1737.0099	39744.7	38858.85
909.3484	1738.7156	39603.4	38716.2
909.4894	1740.4204	39492.6	38602.6
909.6304	1742.1246	39434.7	38544.9
909.7714	1743.8279	39422.35	38534.15
909.9123	1745.5306	39393.65	38505.1
910.0532	1747.2325	39077.8	38193.1
910.1941	1748.9336	39030.8	38143.05
910.335	1750.634	38971.1	38079.7
910.4759	1752.3336	39007.3	38120.2
910.6168	1754.0325	38847.75	37959.9
910.7576	1755.7307	38865.7	37979.75
910.8984	1757.4281	38747.7	37859.55
911.0392	1759.1247	38776.35	37879.35
911.18	1760.8206	38510.75	37616.9
911.3208	1762.5158	38498.45	37605
911.4615	1764.2102	38404.55	37518.05
911.6022	1765.9039	38338.4	37451.85
911.7429	1767.5968	38233	37346.9
911.8836	1769.289	38167.6	37282.15
912.0243	1770.9804	38135.6	37247.9
912.1649	1772.6711	38049.85	37160.4
912.3056	1774.361	37910.3	37019.35
912.4462	1776.0502	37903.95	37016.35
912.5868	1777.7386	37744.5	36851.65
912.7274	1779.4263	37747.25	36859.4
912.8679	1781.1132	37724.9	36837.7
913.0084	1782.7994	37613.15	36727.5
913.149	1784.4849	37554.55	36668.25
913.2895	1786.1696	37265.85	36373.65
913.4299	1787.8535	37332.95	36447.4
913.5704	1789.5367	37319.25	36434.9
913.7108	1791.2192	37178.6	36293.55
913.8513	1792.9009	36996.8	36079.4
913.9917	1794.5818	37013.6	36123.4
914.132	1796.2621	36832.75	35948.6
914.2724	1797.9415	36801.75	35913.8
914.4128	1799.6202	36752.9	35865.65
914.5531	1801.2982	36710.9	35820.9
914.6934	1802.9755	36550.75	35661.4
914.8337	1804.6519	36469.7	35580.7
914.9739	1806.3277	36475.3	35586.45
915.1142	1808.0027	36145.3	35260.75
915.2544	1809.6769	36207.85	35321.1
915.3946	1811.3504	36180.6	35294.8
915.5348	1813.0231	35961	35075.05
915.675	1814.6951	36066.35	35180.55
915.8151	1816.3664	36009.45	35121.55
915.9553	1818.0369	35918.55	35031.75
916.0954	1819.7067	35738.7	34851.85
916.2355	1821.3757	35802.45	34913.55
916.3755	1823.044	35617.65	34731.6
916.5156	1824.7115	35460.35	34572.05
916.6556	1826.3783	35422.8	34535.55
916.7956	1828.0443	35353.75	34468.45
916.9356	1829.7096	35282.65	34391.7
917.0756	1831.3741	35136.8	34246.8
917.2155	1833.0379	35136.3	34251
917.3555	1834.701	35043.9	34157.05
917.4954	1836.3633	34878.85	33994.1
917.6353	1838.0248	34897.9	34011.2
917.7751	1839.6856	34803.35	33918.7
917.915	1841.3457	34699.35	33814.3
918.0548	1843.005	34723.85	33836
918.1946	1844.6636	34613.45	33728
918.3344	1846.3214	34436.4	33548.15
918.4742	1847.9785	34459.4	33573.45
918.6139	1849.6349	34325.1	33435.65
918.7537	1851.2904	34375.95	33480.45
918.8934	1852.9453	34159.9	33271.6
919.0331	1854.5994	34109.65	33219
919.1727	1856.2528	34152.65	33259.6
919.3124	1857.9054	33946.75	33058.7
919.452	1859.5572	33913.9	33028.7
919.5916	1861.2083	33907.4	33019.9
919.7312	1862.8587	33957.65	33070.3
919.8708	1864.5084	33655.85	32765.8
920.0103	1866.1572	33727.8	32840.4
920.1498	1867.8054	33523.65	32635.3
920.2893	1869.4528	33554.5	32666.7
920.4288	1871.0994	33401.9	32513.6
920.5683	1872.7453	33353.75	32465.25
920.7077	1874.3905	33332.65	32437.15
920.8471	1876.0349	33175.85	32289.7
920.9865	1877.6786	33244.75	32354.8
921.1259	1879.3215	33114.35	32227.7
921.2653	1880.9637	33119.85	32233.8
921.4046	1882.6051	32962.7	32075.75
921.5439	1884.2458	32861.35	31973.3
921.6832	1885.8858	32710.5	31821.35
921.8225	1887.525	32722.65	31833.5
921.9617	1889.1634	32566.05	31677.65
922.101	1890.8011	32469.65	31581.6
922.2402	1892.4381	32304.25	31416.85
922.3794	1894.0743	32418.5	31532
922.5185	1895.7098	32267.2	31378.7
922.6577	1897.3446	32185.6	31296.7
922.7968	1898.9786	32155.05	31265.25
922.9359	1900.6118	32057.15	31171.8
923.075	1902.2443	31906.4	31015.8
923.214	1903.8761	31880.55	30993.95
923.3531	1905.5071	31690.95	30801.65
923.4921	1907.1374	31536	30649.6
923.6311	1908.7669	31556.6	30671.3
923.77	1910.3957	31499.8	30611.35
923.909	1912.0237	31260.8	30373.55
924.0479	1913.651	31211.1	30324
924.1868	1915.2776	31162.45	30278.4
924.3257	1916.9034	31034.15	30149.25
924.4646	1918.5285	30912.35	30028.9
924.6034	1920.1528	30783.05	29897.7
924.7422	1921.7764	30735.75	29850.35
924.881	1923.3992	30637.55	29749.9
925.0198	1925.0213	30486.7	29600.15
925.1586	1926.6427	30317.7	29431.4
925.2973	1928.2633	30430.95	29334.75
925.436	1929.8832	30231.35	29341.05
925.5747	1931.5023	30051.85	29164.85
925.7134	1933.1207	29971.7	29084
925.852	1934.7383	29954.25	29069.4
925.9906	1936.3552	29789.35	28904.75
926.1292	1937.9714	29716.35	28830.7
926.2678	1939.5868	29618.4	28730.65
926.4064	1941.2015	29488.45	28602.2
926.5449	1942.8154	29398.35	28510.55
926.6834	1944.4286	29267.3	28380.25
926.8219	1946.041	29194.75	28285.35
926.9604	1947.6528	29073.75	28180.35
927.0988	1949.2637	28987.6	28100.05
927.2372	1950.8739	28857.65	27972.65
927.3756	1952.4834	28842.15	27956.6
927.514	1954.0921	28725.2	27839.05
927.6523	1955.7001	28627.85	27737.05
927.7907	1957.3074	28570.95	27687.35
927.929	1958.9139	28424.55	27541.25
928.0673	1960.5197	28373.05	27487.3
928.2055	1962.1247	28229.5	27345.8
928.3438	1963.729	28100.7	27216.25
928.482	1965.3325	28034.95	27127.3
928.6202	1966.9353	27915.2	27032.1
928.7584	1968.5374	27870.2	26985.1
928.8965	1970.1387	27781.6	26896.2
929.0346	1971.7393	27667.45	26782.25
929.1727	1973.3392	27565.3	26679.6
929.3108	1974.9383	27471.95	26588.45
929.4489	1976.5366	27337.25	26452.4
929.5869	1978.1342	27344.6	26460.95
929.7249	1979.7311	27243.45	26360.2
929.8629	1981.3273	27159.5	26275.5
930.0009	1982.9227	27095.2	26212
930.1388	1984.5173	26995.95	26111.6
930.2767	1986.1112	26879.85	25997.65
930.4146	1987.7044	26843.2	25960.25
930.5525	1989.2968	26724	25839.2
930.6904	1990.8885	26705.2	25817.7
930.8282	1992.4795	26663.3	25780.5
930.966	1994.0697	26532.85	25651.1
931.1038	1995.6592	26430.35	25547.95
931.2415	1997.2479	26365.6	25483
931.3793	1998.8359	26284.5	25402.3
931.517	2000.4232	26151.3	25267.65
931.6547	2002.0097	26094.5	25213.7
931.7923	2003.5955	26008.15	25125.8
931.93	2005.1805	25978.25	25094.4
932.0676	2006.7648	25873.4	24991.6
932.2052	2008.3484	25813.95	24930.95
932.3427	2009.9312	25824.35	24942.3
932.4803	2011.5133	25714.2	24834.8
932.6178	2013.0946	25615	24733.15
932.7553	2014.6752	25535.8	24656.6
932.8928	2016.2551	25482.1	24601.2
933.0302	2017.8342	25345.3	24464.05
933.1676	2019.4126	25261.1	24381.7
933.305	2020.9902	25221.7	24340.4
933.4424	2022.5672	25149.65	24267.35
933.5798	2024.1433	25067.15	24182.15
933.7171	2025.7188	24979.2	24102.1
933.8544	2027.2935	24921.15	24038
933.9917	2028.8674	24811.15	23931.55
934.129	2030.4406	24748.55	23870.6
934.2662	2032.0131	24623.95	23744.55
934.4034	2033.5849	24575.6	23692.1
934.5406	2035.1559	24530.8	23650.45
934.6778	2036.7261	24511.05	23630.5
934.8149	2038.2957	24404.1	23522.3
934.952	2039.8645	24347.7	23466.25
935.0891	2041.4325	24380.1	23494.7
935.2262	2042.9998	24216.75	23336.75
935.3632	2044.5664	24161.15	23276.7
935.5002	2046.1323	24140.95	23260.75
935.6372	2047.6974	24030.15	23149.2
935.7742	2049.2617	23965.05	23085.75
935.9111	2050.8254	23917	23033.4
936.048	2052.3883	23874.6	22993.3
936.1849	2053.9504	23775.6	22893.6
936.3218	2055.5118	23728.95	22845.05
936.4586	2057.0725	23601.4	22717.8
936.5955	2058.6325	23602.6	22720.4
936.7323	2060.1917	23471.85	22591.05
936.869	2061.7502	23464.5	22580.85
937.0058	2063.3079	23358.3	22478.3
937.1425	2064.8649	23253.15	22371.05
937.2792	2066.4212	23219.65	22335.65
937.4159	2067.9767	23155.5	22275.1
937.5525	2069.5315	23079.2	22197.25
937.6891	2071.0856	22959.2	22078.2
937.8257	2072.6389	22893.3	22011.35
937.9623	2074.1915	22772.25	21894.85
938.0989	2075.7433	22657.45	21773.15
938.2354	2077.2945	22646.8	21766.5
938.3719	2078.8448	22563.6	21683.6
938.5084	2080.3945	22485.85	21605.4
938.6448	2081.9434	22467.2	21587.15
938.7812	2083.4916	22403.35	21521.1
938.9176	2085.039	22303.05	21418.75
939.054	2086.5857	22261.15	21374.85
939.1903	2088.1317	22235.05	21350.5
939.3267	2089.677	22169.35	21284.95
939.463	2091.2215	22095	21210.3
939.5992	2092.7652	22009.55	21123.15
939.7355	2094.3083	21969.8	21085
939.8717	2095.8506	21954	21071
940.0079	2097.3921	21914.05	21032.2
940.1441	2098.933	21833.7	20951.95
940.2802	2100.4731	21751.25	20868.85
940.4163	2102.0124	21725.8	20827.35
940.5524	2103.5511	21667.7	20783.8
940.6885	2105.089	21624.6	20740.2
940.8245	2106.6261	21576.65	20695.8
940.9606	2108.1626	21510.75	20625.6
941.0965	2109.6983	21516	20604.65
941.2325	2111.2332	21408.95	20526.65
941.3684	2112.7675	21366.15	20481.65
941.5044	2114.301	21282.65	20398
941.6403	2115.8337	21268.05	20384.5
941.7761	2117.3657	21186.7	20303.8
941.912	2118.897	21139.4	20255.6
942.0478	2120.4276	21069.05	20178.8
942.1835	2121.9575	20969.1	20085
942.3193	2123.4866	20969.3	20072.9
942.455	2125.0149	20919.3	20031.95
942.5907	2126.5426	20819.25	19937.25
942.7264	2128.0695	20790.25	19904
942.8621	2129.5956	20739.1	19858.85
942.9977	2131.1211	20655.85	19768.9
943.1333	2132.6458	20610.45	19726.15
943.2689	2134.1698	20559.95	19673.75
943.4044	2135.693	20533.35	19647.1
943.54	2137.2155	20499.35	19611.2
943.6755	2138.7373	20414.25	19532.2
943.8109	2140.2584	20357.65	19475.2
943.9464	2141.7787	20285.1	19396.85
944.0818	2143.2983	20148.95	19269.6
944.2172	2144.8171	20089.15	19208.15
944.3526	2146.3353	20043.05	19159.9
944.4879	2147.8527	19951.15	19070.15
944.6232	2149.3693	19947	19063.35
944.7585	2150.8853	19884.55	18999.75
944.8938	2152.4005	19759.75	18874.65
945.029	2153.9149	19742.3	18857.95
945.1642	2155.4287	19646.25	18762.55
945.2994	2156.9417	19624.35	18739.35
945.4346	2158.454	19610.75	18724.95
945.5697	2159.9655	19517.4	18635.35
945.7048	2161.4764	19500.5	18617.65
945.8399	2162.9865	19441.9	18560.95
945.9749	2164.4958	19385.3	18501
946.1099	2166.0045	19323	18438.35
946.2449	2167.5124	19260.4	18376.15
946.3799	2169.0195	19248.1	18366.95
946.5148	2170.526	19218.1	18333.15
946.6498	2172.0317	19137.3	18254.4
946.7846	2173.5367	19075.75	18192
946.9195	2175.0409	19022.45	18140.45
947.0543	2176.5445	19008.15	18125.75
947.1891	2178.0473	18933.1	18050.65
947.3239	2179.5494	18847.8	17962.6
947.4587	2181.0507	18769.7	17885.85
947.5934	2182.5513	18710.5	17828.85
947.7281	2184.0512	18664.9	17780.15
947.8628	2185.5504	18627.4	17744.05
947.9974	2187.0488	18528.9	17647
948.132	2188.5465	18441.5	17558.65
948.2666	2190.0435	18426.45	17545.8
948.4012	2191.5397	18365.75	17484.1
948.5357	2193.0353	18304.9	17421.65
948.6702	2194.5301	18203.85	17318.95
948.8047	2196.0241	18136.3	17251.05
948.9392	2197.5175	18101.15	17217.75
949.0736	2199.0101	18034.6	17144.7
949.208	2200.502	17967.85	17085.45
949.3424	2201.9931	17904.2	17020.6
949.4767	2203.4835	17872.7	16988.75
949.611	2204.9733	17802.25	16917.45
949.7453	2206.4622	17770.7	16887.45
949.8796	2207.9505	17676.7	16793.2
950.0138	2209.438	17594.55	16714.5
950.148	2210.9248	17570.75	16688.2
950.2822	2212.4109	17497	16614.55
950.4164	2213.8962	17436	16548.25
950.5505	2215.3809	17389.9	16504.25
950.6846	2216.8648	17331.65	16446.05
950.8186	2218.3479	17289.9	16400.05
950.9527	2219.8304	17266	16379.75
951.0867	2221.3121	17188.45	16299.65
951.2207	2222.7931	17154.65	16269.7
951.3546	2224.2733	17069.05	16187.75
951.4886	2225.7529	17022	16135.75
951.6225	2227.2317	16937.9	16051.95
951.7563	2228.7098	16951	16068.8
951.8902	2230.1872	16805.55	15924.3
952.024	2231.6638	16813.55	15931.4
952.1578	2233.1397	16718.4	15828.95
952.2916	2234.6149	16693.05	15811.4
952.4253	2236.0894	16598	15714.65
952.559	2237.5632	16565.35	15671.7
952.6927	2239.0362	16517.8	15634.7
952.8263	2240.5085	16453	15569.35
952.9599	2241.9801	16403.35	15516.45
953.0935	2243.4509	16346.5	15461.65
953.2271	2244.921	16266	15382.6
953.3606	2246.3904	16236.5	15350.5
953.4941	2247.8591	16169.75	15287.35
953.6276	2249.3271	16148.45	15264.5
953.7611	2250.7943	16101.85	15215.9
953.8945	2252.2608	16015.25	15133.05
954.0279	2253.7266	16014.85	15131.5
954.1612	2255.1917	15964.7	15081.85
954.2946	2256.656	15895.25	15011.55
954.4279	2258.1197	15832.2	14948.65
954.5612	2259.5826	15811.05	14927.15
954.6944	2261.0447	15786.95	14904.45
954.8276	2262.5062	15697.95	14810.2
954.9608	2263.9669	15677.2	14792.1
955.094	2265.4269	15637.95	14753.7
955.2271	2266.8862	15587	14703.1
955.3602	2268.3448	15562	14677.85
955.4933	2269.8026	15526.95	14643.55
955.6264	2271.2598	15466.45	14583.7
955.7594	2272.7162	15411.55	14529.8
955.8924	2274.1719	15363.35	14479
956.0253	2275.6268	15300.65	14416.9
956.1583	2277.0811	15279.95	14394.85
956.2912	2278.5346	15257.6	14375.2
956.4241	2279.9874	15229.6	14346.7
956.5569	2281.4395	15178.95	14295.3
956.6897	2282.8908	15104.95	14217
956.8225	2284.3414	15108.6	14223.75
956.9553	2285.7914	15036.45	14155.3
957.088	2287.2406	14967.3	14080.7
957.2207	2288.689	14963.8	14078.5
957.3534	2290.1368	14889.3	14003.15
957.486	2291.5838	14885.05	13995.2
957.6186	2293.0302	14804.05	13918.1
957.7512	2294.4758	14737.2	13852.05
957.8838	2295.9206	14684.6	13797.05
958.0163	2297.3648	14642.45	13759.1
958.1488	2298.8082	14648.35	13761.7
958.2813	2300.251	14611.2	13725.4
958.4137	2301.693	14538.65	13651
958.5461	2303.1343	14530.05	13644.35
958.6785	2304.5748	14466.05	13583
958.8108	2306.0147	14375.4	13491.15
958.9432	2307.4538	14378.8	13496
959.0754	2308.8922	14336.4	13456.7
959.2077	2310.3299	14297.2	13415.75
959.3399	2311.7669	14240.9	13360.8
959.4721	2313.2031	14202.65	13316.65
959.6043	2314.6387	14134.35	13249.3
959.7365	2316.0735	14120.6	13237.2
959.8686	2317.5076	14084	13200.3
960.0006	2318.941	14061.35	13176.3
960.1327	2320.3737	14009.1	13123.9
960.2647	2321.8056	13941.5	13052.9
960.3967	2323.2369	13911.35	13027.35
960.5287	2324.6674	13881.9	12996.3
960.6606	2326.0972	13836.55	12951.5
960.7925	2327.5263	13805.15	12922.9
960.9244	2328.9547	13734.9	12847.65
961.0562	2330.3823	13695.3	12809
961.1881	2331.8092	13687.35	12798
961.3198	2333.2355	13646.85	12761.8
961.4516	2334.661	13602.6	12718.55
961.5833	2336.0858	13594.95	12707.85
961.715	2337.5098	13527.55	12642
961.8467	2338.9332	13501.45	12616.2
961.9783	2340.3558	13461.5	12573.4
962.1099	2341.7778	13375.6	12492.7
962.2415	2343.199	13329.25	12443.1
962.373	2344.6195	13322.45	12439.85
962.5045	2346.0393	13265.5	12382.05
962.636	2347.4583	13242.95	12357.8
962.7675	2348.8767	13192.4	12307.5
962.8989	2350.2943	13137.1	12251.25
963.0303	2351.7113	13146.95	12260.35
963.1617	2353.1275	13109.15	12221.85
963.293	2354.543	13076.2	12180.85
963.4243	2355.9578	13011.65	12125.4
963.5556	2357.3718	12934.9	12051.75
963.6868	2358.7852	12884.95	11999.35
963.818	2360.1978	12851.35	11966.5
963.9492	2361.6098	12835.1	11952.2
964.0803	2363.021	12773.45	11883.6
964.2114	2364.4315	12739.45	11855.85
964.3425	2365.8413	12727.15	11838.2
964.4736	2367.2504	12671.9	11789.75
964.6046	2368.6587	12575.85	11692.2
964.7356	2370.0664	12531.55	11648.1
964.8666	2371.4733	12509.3	11625.45
964.9975	2372.8795	12474.75	11590.6
965.1284	2374.285	12426	11540.95
965.2593	2375.6899	12366.75	11481.75
965.3901	2377.0939	12315.05	11431.4
965.5209	2378.4973	12286.5	11403.7
965.6517	2379.9	12247.9	11364.95
965.7825	2381.3019	12229.9	11347.55
965.9132	2382.7032	12178.95	11295.95
966.0439	2384.1037	12152.35	11273.35
966.1745	2385.5035	12115.15	11230.15
966.3051	2386.9027	12072.65	11192.25
966.4357	2388.3011	12022.8	11134.65
966.5663	2389.6987	11961.65	11079.5
966.6968	2391.0957	11964.15	11081.2
966.8273	2392.492	11926.6	11042.95
966.9578	2393.8876	11839	10954.2
967.0882	2395.2824	11823.4	10941.25
967.2186	2396.6765	11770.95	10888.15
967.349	2398.07	11711.3	10826.75
967.4793	2399.4627	11726	10841.6
967.6097	2400.8547	11653.15	10768.95
967.7399	2402.246	11627.85	10737.4
967.8702	2403.6366	11565.9	10683
968.0004	2405.0265	11503.15	10622.1
968.1306	2406.4156	11440.85	10553.3
968.2607	2407.8041	11443.15	10556.9
968.3909	2409.1918	11379.95	10492.5
968.521	2410.5789	11344	10458.95
968.651	2411.9652	11289.3	10402.45
968.781	2413.3508	11262.15	10377.15
968.911	2414.7358	11206.1	10321.25
969.041	2416.12	11174.95	10291.55
969.1709	2417.5035	11138.7	10254.35
969.3008	2418.8863	11070.15	10186.15
969.4307	2420.2684	11074.8	10191.1
969.5606	2421.6497	11006.75	10121.85
969.6904	2423.0304	10964.8	10080.4
969.8201	2424.4104	10922.2	10035.2
969.9499	2425.7896	10898.9	10014.3
970.0796	2427.1682	10834.9	9951.55
970.2093	2428.546	10838.75	9953.3
970.3389	2429.9232	10812.6	9926.8
970.4685	2431.2996	10787.75	9904.3
970.5981	2432.6753	10750.6	9867
970.7277	2434.0503	10714.65	9831.2
970.8572	2435.4246	10677.1	9792
970.9867	2436.7982	10620.75	9734.7
971.1161	2438.1711	10599.5	9714.2
971.2456	2439.5433	10585.1	9700.45
971.375	2440.9148	10521.65	9633.55
971.5043	2442.2856	10495	9611.95
971.6336	2443.6557	10487.15	9601.3
971.7629	2445.025	10400.9	9517
971.8922	2446.3937	10362.7	9479
972.0214	2447.7617	10349.5	9464.7
972.1506	2449.1289	10329.15	9445.1
972.2798	2450.4955	10302.65	9415.5
972.4089	2451.8613	10275.45	9393.25
972.538	2453.2265	10249.55	9364.95
972.6671	2454.5909	10239.1	9353.55
972.7961	2455.9546	10191.55	9309.4
972.9251	2457.3177	10163.35	9278.8
973.0541	2458.68	10124.7	9239.85
973.1831	2460.0416	10112.25	9229.6
973.312	2461.4025	10086.15	9200.8
973.4408	2462.7627	10060.95	9165.9
973.5697	2464.1222	10030.45	9150.4
973.6985	2465.4811	10001.7	9116.85
973.8273	2466.8392	9957.4	9073.9
973.956	2468.1966	9914.65	9029.25
974.0847	2469.5533	9933.35	9046.9
974.2134	2470.9093	9909.45	9025.6
974.3421	2472.2645	9820.65	8934.65
974.4707	2473.6191	9798.4	8915.35
974.5993	2474.973	9768.6	8883.25
974.7278	2476.3262	9748.6	8861.9
974.8563	2477.6787	9729.85	8847.6
974.9848	2479.0305	9666.9	8781.1
975.1132	2480.3816	9620.25	8734.5
975.2417	2481.7319	9588.65	8704.4
975.37	2483.0816	9576.55	8691.85
975.4984	2484.4306	9538.5	8656.45
975.6267	2485.7789	9510.9	8628
975.755	2487.1264	9457.1	8570.95
975.8833	2488.4733	9416.95	8537
976.0115	2489.8195	9374.55	8482.75
976.1397	2491.165	9348.35	8464.45
976.2678	2492.5097	9336.95	8452.35
976.3959	2493.8538	9313.1	8429.4
976.524	2495.1972	9253.65	8370.05
976.6521	2496.5398	9217.35	8330.45
976.7801	2497.8818	9208.45	8321.7
976.9081	2499.2231	9159.5	8278.05
977.036	2500.5637	9125.9	8239.95
977.164	2501.9035	9127.45	8243.35
977.2918	2503.2427	9086.6	8198.35
977.4197	2504.5812	9046.75	8163.65
977.5475	2505.919	9033.95	8146.75
977.6753	2507.256	9016.25	8131
977.8031	2508.5924	8955.2	8073.1
977.9308	2509.9281	8940.3	8049.15
978.0585	2511.2631	8895.95	8015.35
978.1861	2512.5974	8878.55	7996.5
978.3137	2513.9309	8846.5	7962.1
978.4413	2515.2638	8843.75	7933.25
978.5689	2516.596	8797	7912.05
978.6964	2517.9275	8741.95	7856.65
978.8239	2519.2583	8717	7832.65
978.9513	2520.5884	8700.65	7814.25
979.0788	2521.9178	8677.65	7794.15
979.2062	2523.2465	8660.5	7777
979.3335	2524.5745	8575.65	7691.6
979.4608	2525.9018	8557.65	7675.45
979.5881	2527.2284	8551.15	7668.75
979.7154	2528.5543	8527.4	7646.25
979.8426	2529.8796	8507.9	7624.45
979.9698	2531.2041	8495.55	7611.75
980.0969	2532.5279	8466.1	7583.7
980.224	2533.851	8447.8	7563
980.3511	2535.1735	8428.35	7545.05
980.4781	2536.4952	8407.05	7523.75
980.6052	2537.8163	8384.2	7501.85
980.7321	2539.1366	8368.75	7486.35
980.8591	2540.4562	8348.05	7461.1
980.986	2541.7752	8332.35	7450.5
981.1129	2543.0935	8326.4	7441
981.2397	2544.411	8303.95	7417.2
981.3665	2545.7279	8280.9	7397.9
981.4933	2547.0441	8270.75	7385.95
981.62	2548.3596	8248.65	7362
981.7467	2549.6744	8214.85	7330.5
981.8734	2550.9885	8173.7	7282.3
982.0001	2552.3019	8149.75	7265.9
982.1267	2553.6146	8119.85	7235.5
982.2532	2554.9266	8111.35	7228.35
982.3798	2556.2379	8076.55	7191.8
982.5063	2557.5485	8085.45	7200.2
982.6327	2558.8585	8059.65	7170.6
982.7592	2560.1677	8061.55	7172.4
982.8856	2561.4762	8031.95	7147.9
983.0119	2562.7841	8015.5	7128.75
983.1383	2564.0913	7995.65	7111.75
983.2646	2565.3977	7977.9	7095.05
983.3908	2566.7035	7955.05	7070.55
983.517	2568.0086	7928.9	7042.85
983.6432	2569.313	7935.55	7050.2
983.7694	2570.6167	7911.95	7022.7
983.8955	2571.9197	7863.3	6977.9
984.0216	2573.222	7863.6	6975.85
984.1476	2574.5236	7858.25	6973.3
984.2737	2575.8246	7833.6	6946.4
984.3996	2577.1248	7835	6949.2
984.5256	2578.4244	7809.9	6925.85
984.6515	2579.7232	7776.9	6893.35
984.7774	2581.0214	7785.4	6877.5
984.9032	2582.3189	7740.95	6858.65
985.029	2583.6157	7736.55	6849.65
985.1548	2584.9118	7720.6	6835.9
985.2806	2586.2072	7691.15	6808.6
985.4063	2587.5019	7658.95	6774.75
985.5319	2588.7959	7646.05	6762.5
985.6576	2590.0893	7632.95	6746.2
985.7832	2591.3819	7607.1	6723.45
985.9087	2592.6739	7569.9	6687.65
986.0343	2593.9652	7566.75	6681.15
986.1597	2595.2557	7527.8	6644.5
986.2852	2596.5456	7501.55	6615.6
986.4106	2597.8348	7464.65	6582.35
986.536	2599.1234	7444.65	6560.25
986.6614	2600.4112	7413.35	6530.35
986.7867	2601.6983	7417.1	6528.65
986.912	2602.9848	7390.65	6507.3
987.0372	2604.2705	7355.4	6465.05
987.1624	2605.5556	7333.15	6448.7
987.2876	2606.84	7311.8	6428.75
987.4128	2608.1237	7269.25	6385.85
987.5379	2609.4067	7256.15	6372.35
987.6629	2610.689	7216.65	6325.05
987.788	2611.9707	7204.3	6317.55
987.913	2613.2516	7177.1	6289.3
988.0379	2614.5319	7132	6248.3
988.1629	2615.8115	7123.05	6238.4
988.2878	2617.0903	7086.95	6203.4
988.4126	2618.3685	7060	6176.5
988.5375	2619.6461	7059.85	6174.05
988.6622	2620.9229	7012.05	6129.8
988.787	2622.199	7002.3	6120.5
988.9117	2623.4745	6995.15	6112.15
989.0364	2624.7493	6968.25	6088.35
989.161	2626.0234	6941.5	6058.35
989.2857	2627.2968	6900.65	6016.15
989.4102	2628.5695	6863.7	5977.8
989.5348	2629.8415	6860.45	5976.75
989.6593	2631.1128	6829.5	5945.4
989.7837	2632.3835	6806.35	5923.4
989.9082	2633.6535	6779.95	5897.15
990.0326	2634.9228	6752.6	5869.65
990.1569	2636.1914	6728.05	5844.25
990.2812	2637.4593	6734.7	5845.9
990.4055	2638.7265	6703.75	5820.3
990.5298	2639.9931	6675.75	5793.05
990.654	2641.259	6656.65	5770.95
990.7782	2642.5242	6640.5	5755.65
990.9023	2643.7887	6603.7	5721.2
991.0264	2645.0525	6583.7	5701.6
991.1505	2646.3156	6572.75	5688.35
991.2745	2647.5781	6567.4	5685.8
991.3985	2648.8398	6532.8	5648.15
991.5225	2650.1009	6499.25	5608.1
991.6464	2651.3613	6484.95	5602.1
991.7703	2652.6211	6483	5599.55
991.8942	2653.8801	6454.7	5571.85
992.018	2655.1385	6454.7	5568.75
992.1418	2656.3961	6409.4	5528.9
992.2655	2657.6531	6421.3	5538.65
992.3892	2658.9094	6389.05	5508.5
992.5129	2660.1651	6382.35	5499.6
992.6366	2661.42	6349	5464.15
992.7602	2662.6743	6339.5	5457.2
992.8837	2663.9279	6327.8	5446.2
993.0073	2665.1808	6305.75	5421.45
993.1307	2666.433	6294.1	5408.85
993.2542	2667.6846	6269.7	5385.45
993.3776	2668.9354	6271.4	5384.3
993.501	2670.1856	6228.3	5343.55
993.6244	2671.4351	6246.65	5365.2
993.7477	2672.6839	6222.9	5339.6
993.8709	2673.9321	6203.9	5319.25
993.9942	2675.1795	6165.05	5281.7
994.1174	2676.4263	6147.25	5264.7
994.2405	2677.6724	6123.65	5241.4
994.3637	2678.9179	6124.55	5240.2
994.4868	2680.1626	6098.5	5217.6
994.6098	2681.4067	6100.05	5216.9
994.7328	2682.6501	6074.7	5190.65
994.8558	2683.8928	6071.5	5188.2
994.9788	2685.1348	6035.55	5152.95
995.1017	2686.3761	5995.9	5113
995.2245	2687.6168	5987.75	5103.55
995.3474	2688.8568	5986.2	5104.35
995.4702	2690.0961	5940.5	5057
995.5929	2691.3348	5927.5	5044.7
995.7156	2692.5727	5911.75	5027.4
995.8383	2693.81	5893.9	5011.3
995.961	2695.0466	5879.3	4997.35
996.0836	2696.2826	5868.55	4981.7
996.2062	2697.5178	5858.75	4975.3
996.3287	2698.7524	5824.4	4941.95
996.4512	2699.9863	5833.3	4948.45
996.5737	2701.2195	5791.2	4909.5
996.6961	2702.452	5780.6	4894.15
996.8185	2703.6839	5758.45	4872.6
996.9408	2704.9151	5771.25	4889.75
997.0631	2706.1456	5735.05	4852.65
997.1854	2707.3755	5712.95	4830.45
997.3077	2708.6046	5700.65	4815.25
997.4299	2709.8331	5679.4	4794.8
997.552	2711.0609	5664.8	4780.3
997.6742	2712.2881	5653.95	4772.7
997.7963	2713.5145	5661.95	4774.4
997.9183	2714.7403	5621.65	4737.95
998.0403	2715.9654	5588.65	4703.75
998.1623	2717.1899	5575.1	4689.95
998.2842	2718.4136	5578.2	4695.4
998.4062	2719.6367	5570.1	4686.15
998.528	2720.8591	5561.65	4670.5
998.6498	2722.0809	5530.6	4646.75
998.7716	2723.3019	5528.55	4643.3
998.8934	2724.5223	5517.95	4636.05
999.0151	2725.7421	5511.25	4626.35
999.1368	2726.9611	5479.1	4595.5
999.2584	2728.1795	5460.8	4572.8
999.38	2729.3972	5431.4	4548.2
999.5016	2730.6142	5408.5	4516.4
999.6231	2731.8306	5389.4	4508.6
999.7446	2733.0462	5368.05	4481.5
999.8661	2734.2612	5340.05	4452.8
999.9875	2735.4756	5302.5	4417.45
1000.1089	2736.6892	5258.55	4375.45
1000.2302	2737.9022	5249.15	4368
1000.3515	2739.1145	5232.9	4349.7
1000.4728	2740.3262	5228.5	4337.15
1000.594	2741.5372	5179.2	4297.45
1000.7152	2742.7475	5157.05	4272.45
1000.8363	2743.9571	5163.35	4279
1000.9575	2745.1661	5132.25	4241.95
1001.0785	2746.3744	5103.8	4220.7
1001.1996	2747.582	5086.85	4204.45
1001.3206	2748.7889	5062.6	4178.8
1001.4415	2749.9952	5046.15	4163.5
1001.5625	2751.2008	5028.95	4144.7
1001.6833	2752.4057	5014.05	4130.35
1001.8042	2753.61	5004.45	4121.45
1001.925	2754.8136	4990.25	4106.8
1002.0458	2756.0165	4968.2	4085.65
1002.1665	2757.2188	4966.2	4083.95
1002.2872	2758.4204	4955.35	4073.05
1002.4078	2759.6213	4919.35	4034.95
1002.5285	2760.8215	4922.7	4037.7
1002.649	2762.0211	4899.3	4015.65
1002.7696	2763.22	4881.35	3995.3
1002.8901	2764.4182	4849.25	3967.3
1003.0106	2765.6158	4844.6	3964.75
1003.131	2766.8127	4823.55	3939.7
1003.2514	2768.009	4829.25	3945.4
1003.3717	2769.2045	4814.05	3932.25
1003.492	2770.3994	4796.25	3910.6
1003.6123	2771.5936	4778.25	3894.45
1003.7325	2772.7872	4749	3868.2
1003.8527	2773.9801	4734.05	3849.25
1003.9729	2775.1723	4733.55	3833.2
1004.093	2776.3639	4724.25	3843.6
1004.2131	2777.5548	4696.5	3813.6
1004.3331	2778.745	4687.3	3806.25
1004.4531	2779.9346	4654.15	3773.45
1004.5731	2781.1235	4662.85	3778.9
1004.693	2782.3117	4642.25	3761.15
1004.8129	2783.4992	4638.65	3758.5
1004.9328	2784.6861	4617.65	3734.7
1005.0526	2785.8723	4608.2	3725.8
1005.1723	2787.0579	4593.8	3709.15
1005.2921	2788.2428	4586.65	3704.65
1005.4118	2789.427	4556.05	3674.85
1005.5314	2790.6106	4548.75	3666.75
1005.651	2791.7935	4533.1	3651.25
1005.7706	2792.9757	4523.25	3641.25
1005.8902	2794.1573	4512.35	3627.8
1006.0097	2795.3382	4491.05	3609.15
1006.1291	2796.5184	4467.15	3586.35
1006.2485	2797.698	4485.5	3601.55
1006.3679	2798.8769	4468.5	3585.75
1006.4873	2800.0551	4464.55	3582.3
1006.6066	2801.2327	4438.8	3554.45
1006.7258	2802.4096	4450.1	3569.65
1006.8451	2803.5859	4451.2	3567.2
1006.9642	2804.7615	4427.9	3544.9
1007.0834	2805.9364	4414.6	3533.45
1007.2025	2807.1106	4425.9	3546.1
1007.3216	2808.2842	4422.5	3539.9
1007.4406	2809.4572	4439.95	3557.8
1007.5596	2810.6294	4439.3	3557.35
1007.6785	2811.801	4444.15	3563.55
1007.7975	2812.972	4448.1	3567.7
1007.9163	2814.1423	4456.45	3575.05
1008.0352	2815.3119	4466.45	3586.25
1008.154	2816.4808	4492.85	3611.95
1008.2727	2817.6491	4490.55	3608.95
1008.3914	2818.8167	4510.35	3629.25
1008.5101	2819.9837	4539.8	3653.65
1008.6288	2821.15	4555.3	3673.9
1008.7474	2822.3157	4573	3692.25
1008.8659	2823.4807	4610.7	3729.4
1008.9844	2824.645	4615.8	3733.65
1009.1029	2825.8086	4638.15	3757.05
1009.2214	2826.9716	4642.8	3759.65
1009.3398	2828.134	4672.1	3790.1
1009.4581	2829.2957	4693.65	3811.9
1009.5764	2830.4567	4694.35	3813.4
1009.6947	2831.617	4698.8	3816.4
1009.813	2832.7767	4689.55	3807.45
1009.9312	2833.9358	4682.55	3801.75
1010.0493	2835.0941	4694.55	3810.5
1010.1675	2836.2519	4662.7	3781.45
1010.2855	2837.4089	4638.45	3756.45
1010.4036	2838.5653	4627.85	3747.55
1010.5216	2839.7211	4613.2	3733.3
1010.6396	2840.8761	4586.65	3705.5
1010.7575	2842.0306	4586.05	3705.85
1010.8754	2843.1843	4583.65	3703.35
1010.9932	2844.3374	4617.25	3735.75
1011.111	2845.4899	4628.05	3744.7
1011.2288	2846.6417	4635.7	3754.55
1011.3465	2847.7928	4675.4	3795.8
1011.4642	2848.9433	4698.75	3818.9
1011.5818	2850.0931	4726	3843.55
1011.6995	2851.2422	4736.75	3853.65
1011.817	2852.3907	4776.25	3896.05
1011.9345	2853.5385	4796.15	3913.85
1012.052	2854.6857	4808.5	3918.8
1012.1695	2855.8323	4824.05	3943.65
1012.2869	2856.9781	4835.4	3954.35
1012.4042	2858.1233	4839.6	3959.3
1012.5216	2859.2679	4855.75	3975.95
1012.6389	2860.4118	4882.35	4000
1012.7561	2861.555	4892.05	4004.5
1012.8733	2862.6976	4909.6	4028.65
1012.9905	2863.8395	4926.1	4047.2
1013.1076	2864.9808	4919	4038.25
1013.2247	2866.1214	4918.65	4038.95
1013.3417	2867.2614	4926.15	4044.75
1013.4587	2868.4007	4930.4	4046.2
1013.5757	2869.5393	4916.4	4035
1013.6926	2870.6773	4918.55	4033.75
1013.8095	2871.8146	4911.05	4026.25
1013.9263	2872.9513	4904.4	4020.95
1014.0431	2874.0874	4866.5	3986.05
1014.1599	2875.2227	4865.85	3984.7
1014.2766	2876.3574	4833.35	3951.3
1014.3933	2877.4915	4799.6	3918.25
1014.51	2878.6249	4780.9	3901.6
1014.6266	2879.7577	4756.65	3872.85
1014.7431	2880.8898	4733.65	3841.55
1014.8596	2882.0212	4714.7	3835.15
1014.9761	2883.152	4696.1	3813.15
1015.0925	2884.2821	4679	3799
1015.2089	2885.4116	4641.75	3760.85
1015.3253	2886.5405	4646.2	3766.3
1015.4416	2887.6686	4657.95	3775.6
1015.5579	2888.7962	4629.2	3750.3
1015.6741	2889.923	4620.4	3740.95
1015.7903	2891.0493	4622.75	3743
1015.9065	2892.1748	4599.65	3719.6
1016.0226	2893.2997	4602.25	3718.5
1016.1387	2894.424	4607.3	3726.6
1016.2547	2895.5476	4600.6	3721.35
1016.3707	2896.6706	4597.4	3717.3
1016.4866	2897.7929	4599.25	3719.4
1016.6025	2898.9145	4597.75	3714.95
1016.7184	2900.0355	4607.25	3726.1
1016.8342	2901.1559	4628.55	3746.3
1016.95	2902.2756	4629.65	3748.6
1017.0658	2903.3946	4632.6	3752.75
1017.1815	2904.513	4615.55	3731.1
1017.2971	2905.6308	4616.3	3736.6
1017.4127	2906.7479	4629.4	3749.4
1017.5283	2907.8643	4650.6	3767.3
1017.6439	2908.9801	4631.05	3752.2
1017.7594	2910.0953	4623.8	3742.4
1017.8748	2911.2098	4610.6	3727.25
1017.9902	2912.3236	4593.6	3705.3
1018.1056	2913.4368	4568.45	3685.25
1018.2209	2914.5494	4551	3670.05
1018.3362	2915.6613	4535.7	3646.85
1018.4515	2916.7725	4522.4	3637.2
1018.5667	2917.8831	4511.25	3631.25
1018.6819	2918.9931	4450.95	3567.3
1018.797	2920.1024	4418.05	3537.85
1018.9121	2921.211	4398.2	3517.95
1019.0271	2922.319	4405.5	3525.15
1019.1421	2923.4264	4383.6	3504.55
1019.2571	2924.5331	4369.05	3489
1019.372	2925.6391	4341.9	3459.95
1019.4869	2926.7445	4352.3	3473.05
1019.6017	2927.8493	4337.05	3455.95
1019.7165	2928.9534	4336.15	3455.15
1019.8313	2930.0569	4315.1	3430.6
1019.946	2931.1597	4318.1	3436.4
1020.0606	2932.2619	4300.2	3419.65
1020.1753	2933.3634	4317.15	3437.45
1020.2899	2934.4643	4320.2	3432.45
1020.4044	2935.5645	4303.6	3417.25
1020.5189	2936.6641	4280.8	3395.85
1020.6334	2937.763	4246.15	3367.25
1020.7478	2938.8613	4214.1	3333.05
1020.8622	2939.959	4178	3292.55
1020.9765	2941.056	4113.25	3233.95
1021.0908	2942.1523	4078.35	3197.65
1021.2051	2943.248	4031.05	3149.35
1021.3193	2944.3431	3973.95	3094.75
1021.4334	2945.4375	3904.35	3024.6
1021.5476	2946.5313	3868.2	2991
1021.6617	2947.6244	3795.2	2914.45
1021.7757	2948.7169	3730.1	2848.45
1021.8897	2949.8087	3663.7	2781.95
1022.0037	2950.8999	3605.9	2725.45
1022.1176	2951.9904	3557.2	2674.5
1022.2315	2953.0803	3533.7	2651.95
1022.3453	2954.1696	3462.05	2581.6
1022.4591	2955.2582	3423.95	2543.3
1022.5728	2956.3462	3396.3	2516.45
1022.6865	2957.4335	3369.55	2489.25
1022.8002	2958.5202	3347.4	2463.45
1022.9138	2959.6062	3325.35	2444.6
1023.0274	2960.6916	3300.8	2422.65
1023.141	2961.7764	3268.2	2387.2
1023.2545	2962.8605	3253.8	2369.45
1023.3679	2963.9439	3239.7	2358.35
1023.4813	2965.0267	3226.3	2344.85
1023.5947	2966.1089	3242.4	2337.1
1023.708	2967.1905	3207.85	2329.15
1023.8213	2968.2714	3199.65	2318.15
1023.9346	2969.3516	3187.4	2307.55
1024.0478	2970.4312	3190.8	2303.85
1024.1609	2971.5102	3175.85	2295.7
1024.274	2972.5885	3167.35	2286.95
1024.3871	2973.6662	3160.35	2273.1
1024.5002	2974.7432	3155.55	2273.85
1024.6132	2975.8196	3134.8	2252.5
1024.7261	2976.8954	3142	2262.85
1024.839	2977.9705	3128.1	2248.85
1024.9519	2979.045	3113.95	2234.15
1025.0647	2980.1188	3093.15	2214.2
1025.1775	2981.192	3065.05	2185.3
1025.2902	2982.2645	3062.55	2179.2
1025.4029	2983.3364	3041.25	2160
1025.5156	2984.4077	3022.85	2144.15
1025.6282	2985.4783	2999.25	2113.1
1025.7407	2986.5483	2967.1	2087.15
1025.8532	2987.6177	2948.4	2070.65
1025.9657	2988.6864	2939.4	2059.85
1026.0782	2989.7545	2902.2	2021.1
1026.1906	2990.8219	2877.85	1997.2
1026.3029	2991.8887	2852.6	1970.3
1026.4152	2992.9548	2837.7	1956.35
1026.5275	2994.0204	2794.7	1916.2
1026.6397	2995.0852	2801.55	1922.6
1026.7519	2996.1495	2770.05	1889.55
1026.864	2997.2131	2744.5	1865.8
1026.9761	2998.276	2730	1849.5
1027.0882	2999.3383	2702.75	1822.65
1027.2002	3000.4	2678.6	1795.85
1027.3122	3001.4611	2678.35	1798.7
1027.4241	3002.5215	2657.5	1778.9
1027.536	3003.5812	2646.7	1766.85
1027.6478	3004.6404	2616.75	1738.3
1027.7596	3005.6989	2605.9	1722
1027.8714	3006.7567	2604.5	1726.4
1027.9831	3007.8139	2615.45	1704.25
1028.0947	3008.8705	2580.35	1700.8
1028.2064	3009.9264	2578.45	1697.1
1028.3179	3010.9818	2553.7	1671.2
1028.4295	3012.0364	2550.5	1668.25
1028.541	3013.0905	2548.05	1666.4
1028.6524	3014.1439	2529.45	1649
1028.7638	3015.1966	2519.55	1640.05
1028.8752	3016.2487	2523.5	1642.65
1028.9865	3017.3002	2504.4	1621.6
1029.0978	3018.3511	2498.95	1623.35
1029.209	3019.4013	2497.95	1619.6
1029.3202	3020.4509	2498.6	1618.55
1029.4314	3021.4998	2493.85	1612.7
1029.5425	3022.5481	2485	1602.55
1029.6535	3023.5958	2479.7	1599.05
1029.7645	3024.6428	2457.4	1578
1029.8755	3025.6892	2460.4	1581.6
1029.9864	3026.735	2457.9	1577.65
1030.0973	3027.7802	2459.9	1581.35
1030.2082	3028.8247	2433.65	1553.9
1030.319	3029.8685	2427.55	1548.65
1030.4297	3030.9118	2431.95	1549.3
1030.5404	3031.9544	2411.85	1533.35
1030.6511	3032.9963	2410.15	1530.95
1030.7617	3034.0376	2414.5	1536.35
1030.8723	3035.0783	2412.25	1531.1
1030.9829	3036.1184	2411.2	1529.05
1031.0934	3037.1578	2405.35	1528.6
1031.2038	3038.1966	2399.3	1519.2
1031.3142	3039.2348	2383.1	1505.45
1031.4246	3040.2723	2383.1	1493.05
1031.5349	3041.3092	2376.05	1495.4
1031.6452	3042.3455	2372.65	1493.2
1031.7554	3043.3811	2368.9	1488.55
1031.8656	3044.4161	2352.95	1471.9
1031.9758	3045.4505	2348.3	1469.6
1032.0859	3046.4842	2334.4	1453.05
1032.1959	3047.5173	2333.25	1456.7
1032.3059	3048.5498	2333.55	1454.3
1032.4159	3049.5816	2323.8	1445.05
1032.5258	3050.6128	2322.15	1442.5
1032.6357	3051.6434	2302.25	1420
1032.7455	3052.6734	2300.75	1421.85
1032.8553	3053.7027	2293.65	1414.3
1032.9651	3054.7314	2298.65	1420.05
1033.0748	3055.7594	2287	1408.5
1033.1845	3056.7868	2273.9	1392.35
1033.2941	3057.8136	2270.85	1391.55
1033.4037	3058.8398	2262	1384.9
1033.5132	3059.8653	2258.35	1378.8
1033.6227	3060.8902	2247.05	1368.7
1033.7321	3061.9145	2237.65	1357.15
1033.8415	3062.9381	2233.4	1353.45
1033.9509	3063.9612	2236.9	1344.9
1034.0602	3064.9835	2221.9	1342.3
1034.1694	3066.0053	2216.5	1333.95
1034.2787	3067.0264	2207.45	1327.25
1034.3878	3068.0469	2206.4	1324.8
1034.497	3069.0668	2201.8	1319.15
1034.6061	3070.086	2180	1299.65
1034.7151	3071.1046	2183.25	1303.55
1034.8241	3072.1226	2173.1	1291.55
1034.9331	3073.1399	2173.95	1295.2
1035.042	3074.1567	2156.95	1276.4
1035.1508	3075.1727	2144	1262.8
1035.2597	3076.1882	2136.9	1258.2
1035.3684	3077.203	2137.65	1258.1
1035.4772	3078.2173	2127.15	1245.8
1035.5859	3079.2308	2105.05	1222.7
1035.6945	3080.2438	2100.6	1220.4
1035.8031	3081.2561	2091.15	1212.8
1035.9117	3082.2678	2089.25	1209.8
1036.0202	3083.2789	2073.6	1195.45
1036.1286	3084.2893	2073.15	1194.3
1036.2371	3085.2991	2067.85	1188.1
1036.3454	3086.3083	2069.3	1186.55
1036.4538	3087.3169	2057.55	1178.2
1036.562	3088.3248	2053.1	1173.2
1036.6703	3089.3321	2033.15	1151.35
1036.7785	3090.3388	2038.45	1158.7
1036.8866	3091.3449	2015.8	1137.85
1036.9948	3092.3503	2020.2	1140.05
1037.1028	3093.3551	2009.3	1131.7
1037.2108	3094.3593	2004	1125.55
1037.3188	3095.3629	2005.35	1127.2
1037.4267	3096.3658	2003.05	1121.1
1037.5346	3097.3681	1988	1108.7
1037.6425	3098.3698	1992.4	1112.7
1037.7503	3099.3708	1974.3	1087.7
1037.858	3100.3713	1970.45	1094.15
1037.9657	3101.3711	1958.6	1078.35
1038.0734	3102.3702	2076.05	1060.35
1038.181	3103.3688	1955.2	1072.65
1038.2886	3104.3667	1929.45	1052.85
1038.3961	3105.364	1934.6	1055.5
1038.5036	3106.3607	1926.65	1045.25
1038.611	3107.3568	1920.1	1041.7
1038.7184	3108.3522	1918.5	1039.25
1038.8257	3109.347	1913.85	1033.9
1038.933	3110.3412	1908.35	1022.9
1039.0403	3111.3348	1897.8	1020.35
1039.1475	3112.3277	1888.35	1008.6
1039.2547	3113.32	1889.05	1012.55
1039.3618	3114.3117	1882.15	1001.9
1039.4689	3115.3028	1862.95	981.35
1039.5759	3116.2932	1874.15	994.1
1039.6829	3117.2831	1870.3	986
1039.7898	3118.2723	1854	974.1
1039.8967	3119.2608	1843	962.8
1040.0035	3120.2488	1852.4	974.7
1040.1103	3121.2361	1844.1	966.65
1040.2171	3122.2229	1830.7	953.1
1040.3238	3123.209	1832.9	952.25
1040.4305	3124.1944	1823	945.45
1040.5371	3125.1793	1818.65	937.7
1040.6437	3126.1635	1809.5	931.35
1040.7502	3127.1471	1793.55	916.95
1040.8567	3128.1301	1811.95	933.55
1040.9631	3129.1125	1795.1	916.25
1041.0695	3130.0942	1800.7	922
1041.1759	3131.0753	1806.65	919.25
1041.2822	3132.0558	1792.4	910.75
1041.3884	3133.0357	1788.55	907.05
1041.4946	3134.015	1774.55	892.85
1041.6008	3134.9936	1774.1	894.85
1041.7069	3135.9716	1789.85	890.15
1041.813	3136.949	1762.75	883
1041.919	3137.9258	1760.75	874.45
1042.025	3138.902	1760.9	876.25
1042.1309	3139.8775	1756.15	877.25
1042.2368	3140.8524	1750.95	869.65
1042.3427	3141.8267	1742	861.3
1042.4485	3142.8004	1744.25	864.35
1042.5542	3143.7735	1744.6	859.7
1042.6599	3144.7459	1738.35	859.7
1042.7656	3145.7178	1734.7	855.3
1042.8712	3146.689	1723.2	847.45
1042.9768	3147.6596	1719.2	836.9
1043.0823	3148.6295	1727.6	848.55
1043.1878	3149.5989	1705.55	824.65
1043.2932	3150.5676	1707.55	829.55
1043.3986	3151.5357	1704.25	826.05
1043.5039	3152.5032	1700.85	822.6
1043.6092	3153.4701	1693.85	815.7
1043.7145	3154.4364	1689.65	810.2
1043.8197	3155.402	1681.75	803.65
1043.9248	3156.367	1674.2	794.7
1044.03	3157.3315	1712.35	795.65
1044.135	3158.2952	1672.05	792.6
1044.24	3159.2584	1662.8	786.15
1044.345	3160.221	1655.8	775.5
1044.4499	3161.1829	1661.55	781.85
1044.5548	3162.1442	1655.2	775.05
1044.6596	3163.105	1651.35	772.25
1044.7644	3164.065	1646.4	768.45
1044.8692	3165.0245	1645.15	763.9
1044.9739	3165.9834	1639.35	760
1045.0785	3166.9416	1632.05	753.05
1045.1831	3167.8993	1635.95	756.75
1045.2877	3168.8563	1629.8	751.15
1045.3922	3169.8127	1622.7	743.25
1045.4966	3170.7684	1613.3	736.3
1045.6011	3171.7236	1614.3	733.65
1045.7054	3172.6782	1606.95	728.75
1045.8098	3173.6321	1605.3	725.7
1045.914	3174.5854	1596.25	712.5
1046.0183	3175.5381	1591.9	713.15
1046.1224	3176.4902	1590.7	712.9
1046.2266	3177.4417	1582.25	704.3
1046.3307	3178.3926	1578.25	698.1
1046.4347	3179.3428	1581.15	701.2
1046.5387	3180.2924	1568.9	689.7
1046.6427	3181.2415	1580.75	701.45
1046.7466	3182.1899	1573.25	692
1046.8504	3183.1377	1565.6	689.15
1046.9542	3184.0848	1570.95	686.7
1047.058	3185.0314	1557.3	678.8
1047.1617	3185.9773	1559.7	679.75
1047.2654	3186.9227	1550.4	670.75
1047.369	3187.8674	1543.1	664.2
1047.4726	3188.8115	1543.4	657.95
1047.5761	3189.755	1543.95	664.05
1047.6796	3190.6979	1542.65	666.7
1047.783	3191.6402	1533.45	655.25
1047.8864	3192.5818	1526.2	648.2
1047.9898	3193.5229	1547.3	653.5
1048.0931	3194.4633	1519.15	640.6
1048.1963	3195.4031	1526.65	645.7
1048.2995	3196.3423	1514.15	634.05
1048.4027	3197.2809	1509.3	631.45
1048.5058	3198.2189	1512.4	634.6
1048.6089	3199.1563	1521.45	625.2
1048.7119	3200.0931	1500.2	622.15
1048.8148	3201.0292	1494.2	615.3
1048.9178	3201.9648	1497.7	620.1
1049.0206	3202.8997	1492.75	611
1049.1235	3203.834	1486.6	607.4
1049.2262	3204.7677	1485.65	606.55
1049.329	3205.7008	1485	604
1049.4317	3206.6333	1482.25	604.4
1049.5343	3207.5652	1477.2	594.8
1049.6369	3208.4964	1479.4	601.55
1049.7394	3209.4271	1473.2	595.35
1049.8419	3210.3571	1462.6	585.15
1049.9444	3211.2865	1461.65	582.15
1050.0468	3212.2154	1468.25	587.4
1050.1491	3213.1436	1465.2	583.45
1050.2514	3214.0712	1459.45	575.6
1050.3537	3214.9982	1455	575.95
1050.4559	3215.9246	1447.75	568.8
1050.5581	3216.8503	1450.8	573.3
1050.6602	3217.7755	1444.85	568
1050.7623	3218.7001	1436.1	558.25
1050.8643	3219.624	1440.75	561.1
1050.9663	3220.5473	1434.8	557.3
1051.0682	3221.4701	1437.95	560.6
1051.1701	3222.3922	1430.05	547.5
1051.2719	3223.3137	1424.3	547.75
1051.3737	3224.2346	1433.2	554.4
1051.4754	3225.1549	1424.2	547.1
1051.5771	3226.0746	1420.15	541.85
1051.6788	3226.9937	1419.4	538.45
1051.7804	3227.9121	1406.05	529.5
1051.8819	3228.83	1407	528.45
1051.9834	3229.7473	1405.2	525.8
1052.0849	3230.6639	1408.55	528.6
1052.1863	3231.5799	1404.15	525.25
1052.2876	3232.4954	1393.7	514.55
1052.3889	3233.4102	1390.35	511.45
1052.4902	3234.3244	1389.65	510.05
1052.5914	3235.238	1392.35	514.15
1052.6926	3236.151	1408.1	506.55
1052.7937	3237.0634	1387.8	511.55
1052.8948	3237.9752	1376.2	496.7
1052.9958	3238.8864	1382.75	504.6
1053.0968	3239.797	1374.35	495.2
1053.1977	3240.7069	1375.5	496.7
1053.2986	3241.6163	1372.15	491.55
1053.3994	3242.5251	1363.35	485.5
1053.5002	3243.4332	1364.15	485.7
1053.6009	3244.3408	1364.2	486.05
1053.7016	3245.2477	1353.85	475.55
1053.8022	3246.154	1354.15	474.3
1053.9028	3247.0598	1359.05	478.65
1054.0034	3247.9649	1345.95	466.25
1054.1039	3248.8694	1346.5	468.3
1054.2043	3249.7733	1343.4	464.35
1054.3047	3250.6766	1337.25	457.1
1054.4051	3251.5793	1338.1	458.5
1054.5054	3252.4814	1332.15	452
1054.6056	3253.3829	1331.35	453.95
1054.7058	3254.2838	1325.25	446.7
1054.806	3255.1841	1325.7	447.65
1054.9061	3256.0838	1318.35	440.75
1055.0061	3256.9829	1314.45	435.9
1055.1062	3257.8814	1311	430.95
1055.2061	3258.7792	1313.75	431.95
1055.306	3259.6765	1305.4	427.15
1055.4059	3260.5731	1301.1	423.85
1055.5057	3261.4692	1297.4	417.3
1055.6055	3262.3647	1287.75	408.9
1055.7052	3263.2595	1281.05	404.1
1055.8049	3264.1538	1275.6	398.1
1055.9045	3265.0474	1275.8	397.6
1056.0041	3265.9404	1271	391.3
1056.1036	3266.8329	1260.05	381.9
1056.2031	3267.7247	1259.15	370.7
1056.3025	3268.616	1244.9	366.7
1056.4019	3269.5066	1239.3	360.6
1056.5013	3270.3966	1230.85	350.05
1056.6005	3271.286	1214.35	336.95
