Software Version:	3.9.2.0
Unit SN:	10000200
Spectrometer SN:	6960
Date:	3/6/2024 10:26:04 AM
Data Line Index:	25
Spectral Points:	2048
Integration time (ms):	125
Averages:	20
Delay (ms):	30
Sequence Number:	1
Processing:	dark subtract
Laser Power (mW):	300
Laser Current (mA):	825
Laser Diode Temp (C):	25
Laser Case Temp (C):	25.9
System Temp (C):	25.7
Spectrometer Temp (C):	23.1
CCD Temp (C):	-0.008
Secondary Temp (C):	20.006
Heatsink Temp (C):	21.212
CCDPCB Temp (C):	34.94
SecondaryPCB Temp (C):	28.437

Wavelength	RamanShift	Raw Counts	Dark Subtracted
787.061	30.1047	1094.8	683.9
787.2016	32.3739	1125.65	715.6
787.3422	34.6426	1170	758.7
787.4828	36.9109	1223.3	810.55
787.6235	39.1787	1275.15	858.9
787.7642	41.4461	1330	908.9
787.9049	43.7131	1392	969.8
788.0456	45.9796	1449.7	1022.8
788.1863	48.2456	1504.55	1074.8
788.3271	50.5112	1579.1	1145.65
788.4679	52.7764	1643.35	1207.05
788.6087	55.0411	1719.6	1278.75
788.7496	57.3054	1798.65	1350.5
788.8904	59.5692	1889.45	1440.6
789.0313	61.8326	1975.65	1525.1
789.1722	64.0955	2066.05	1608.9
789.3132	66.3579	2192.35	1731
789.4541	68.6199	2349.2	1886.45
789.5951	70.8815	2596.8	2130.25
789.7361	73.1426	3105.55	2634.85
789.8771	75.4032	4427.95	3951.6
790.0181	77.6634	7844.6	7363.4
790.1592	79.9231	16841.7	16353.75
790.3003	82.1824	53467.45	52969.85
790.4414	84.4412	65535	65017.15
790.5825	86.6995	65535	64991.5
790.7237	88.9574	65535	64966.35
790.8648	91.2148	65535	64950.25
791.006	93.4717	65535	64939
791.1472	95.7282	65535	64934.6
791.2885	97.9842	65535	64931.7
791.4297	100.2398	65535	64926.9
791.571	102.4949	65535	64923.5
791.7123	104.7495	65535	64916.75
791.8536	107.0036	65535	64918.4
791.9949	109.2573	65535	64918.5
792.1363	111.5105	65535	64915.1
792.2777	113.7632	65535	64917.5
792.4191	116.0154	65535	64904.45
792.5605	118.2672	65535	64911.1
792.7019	120.5185	65535	64912.4
792.8434	122.7693	65535	64907.8
792.9849	125.0197	65535	64900
793.1264	127.2696	65535	64895.75
793.2679	129.519	65535	64893.35
793.4094	131.7679	65535	64890.6
793.551	134.0163	65535	64892.15
793.6926	136.2642	65535	64886.7
793.8342	138.5117	65535	64877.5
793.9758	140.7587	65535	64886.9
794.1175	143.0052	65535	64880.7
794.2591	145.2512	65535	64883.35
794.4008	147.4967	65535	64878.6
794.5425	149.7417	65535	64876.65
794.6842	151.9863	65535	64869.2
794.826	154.2304	65535	64868.55
794.9677	156.4739	65535	64864.85
795.1095	158.717	65535	64862.6
795.2513	160.9596	65535	64857.4
795.3931	163.2017	65535	64855.55
795.535	165.4433	65535	64854.5
795.6768	167.6844	65535	64851.45
795.8187	169.925	65535	64850.35
795.9606	172.1651	65535	64847.1
796.1025	174.4047	65535	64844.85
796.2445	176.6439	65535	64844.55
796.3864	178.8825	65535	64839.25
796.5284	181.1206	65535	64835.55
796.6704	183.3582	65535	64832.9
796.8124	185.5954	65535	64831.9
796.9544	187.832	65535	64826.25
797.0965	190.0681	65535	64822.8
797.2386	192.3037	65535	64818.85
797.3806	194.5388	65535	64815.6
797.5228	196.7734	65535	64817
797.6649	199.0075	65535	64812.8
797.807	201.2411	65535	64811.6
797.9492	203.4742	65535	64812.7
798.0914	205.7068	65535	64808.5
798.2336	207.9389	65535	64809.75
798.3758	210.1704	65535	64803.85
798.518	212.4015	65535	64815.6
798.6603	214.632	65535	64825.6
798.8025	216.862	65535	64829.45
798.9448	219.0915	65535	64828.4
799.0871	221.3205	65535	64823.15
799.2294	223.549	65535	64828.6
799.3718	225.777	65535	64829.65
799.5141	228.0044	65535	64824.55
799.6565	230.2314	65535	64822.4
799.7989	232.4578	65535	64818.95
799.9413	234.6837	65535	64810.05
800.0837	236.909	65535	64808.85
800.2262	239.1339	65535	64785.8
800.3687	241.3582	65535	64795.8
800.5111	243.582	65535	64770.05
800.6536	245.8053	65535	64783.65
800.7961	248.0281	65535	64786.4
800.9387	250.2503	65535	64780.5
801.0812	252.472	65535	64781.2
801.2238	254.6932	65535	64779.85
801.3664	256.9139	65535	64779.85
801.509	259.134	65535	64775
801.6516	261.3536	65535	64777.4
801.7942	263.5727	65535	64775.15
801.9369	265.7912	65535	64775.2
802.0795	268.0092	65535	64772.5
802.2222	270.2267	65535	64775.4
802.3649	272.4436	65535	64773.15
802.5076	274.6601	65535	64761.6
802.6504	276.8759	65535	64765.65
802.7931	279.0913	65535	64764.25
802.9359	281.3061	65535	64766.35
803.0787	283.5204	65535	64762.2
803.2215	285.7341	65535	64758.95
803.3643	287.9473	65535	64744.2
803.5071	290.16	65535	64755.3
803.6499	292.3721	65535	64761.95
803.7928	294.5837	65535	64758.35
803.9357	296.7947	65535	64761.4
804.0786	299.0052	65535	64758.5
804.2215	301.2152	65535	64759
804.3644	303.4246	65535	64762.8
804.5074	305.6334	65535	64758.2
804.6503	307.8418	65535	64757.85
804.7933	310.0495	65535	64755.2
804.9363	312.2568	65535	64755.85
805.0793	314.4635	65535	64751.15
805.2223	316.6696	65535	64751.1
805.3653	318.8752	65535	64741.6
805.5084	321.0802	65535	64749.2
805.6514	323.2847	65535	64748.85
805.7945	325.4887	65535	64746
805.9376	327.692	65535	64742.55
806.0807	329.8949	65535	64744.25
806.2238	332.0972	65535	64744.25
806.367	334.2989	65535	64740.4
806.5101	336.5001	65535	64740.4
806.6533	338.7007	65535	64741.6
806.7965	340.9008	65535	64735.85
806.9397	343.1003	65535	64736.55
807.0829	345.2992	65535	64732.5
807.2261	347.4976	65535	64732.35
807.3693	349.6955	65535	64730.65
807.5126	351.8927	65535	64728.6
807.6559	354.0895	65535	64717.95
807.7991	356.2856	65535	64726.2
807.9424	358.4812	65535	64729.3
808.0857	360.6763	65535	64726.85
808.2291	362.8707	65535	64729.65
808.3724	365.0646	65535	64720.95
808.5158	367.258	65535	64718.95
808.6591	369.4508	65535	64717.5
808.8025	371.643	65535	64720.45
808.9459	373.8346	65535	64715.55
809.0893	376.0257	65535	64708.15
809.2327	378.2162	65535	64715.2
809.3762	380.4062	65535	64711.1
809.5196	382.5956	65535	64710.25
809.6631	384.7844	65535	64716.1
809.8066	386.9726	65535	64714.4
809.9501	389.1603	65535	64722.55
810.0936	391.3474	65535	64677.85
810.2371	393.5339	65535	64719.1
810.3806	395.7199	65535	64721.3
810.5241	397.9052	65535	64724.6
810.6677	400.09	65535	64721.4
810.8113	402.2743	65535	64718.15
810.9548	404.4579	65535	64719.5
811.0984	406.641	65535	64716.7
811.2421	408.8235	65535	64714.1
811.3857	411.0054	65535	64710.6
811.5293	413.1868	65535	64708.7
811.673	415.3675	65535	64704.8
811.8166	417.5477	65535	64708.05
811.9603	419.7273	65535	64702.45
812.104	421.9064	65535	64693.9
812.2477	424.0848	65535	64703.5
812.3914	426.2627	65535	64701.3
812.5351	428.4399	65535	64700.1
812.6788	430.6166	65535	64693
812.8226	432.7928	65535	64697.7
812.9663	434.9683	65535	64695.4
813.1101	437.1432	65535	64691.2
813.2539	439.3176	65535	64695.2
813.3977	441.4914	65535	64695.7
813.5415	443.6645	65535	64694.05
813.6853	445.8371	65535	64697.1
813.8291	448.0091	65535	64695.6
813.973	450.1806	65535	64693.3
814.1168	452.3514	65535	64691.3
814.2607	454.5216	65535	64686.45
814.4046	456.6913	65535	64689.25
814.5485	458.8603	65535	64690.25
814.6924	461.0288	65535	64693.05
814.8363	463.1967	65535	64693.9
814.9802	465.3639	65535	64697.25
815.1241	467.5306	65535	64689.8
815.2681	469.6967	65535	64691.15
815.412	471.8622	65535	64688.4
815.556	474.0271	65535	64689.4
815.7	476.1914	65535	64687.45
815.844	478.3551	65535	64689
815.988	480.5182	65535	64687
816.132	482.6807	65535	64685.35
816.276	484.8426	65535	64689.15
816.4201	487.0039	65535	64687.45
816.5641	489.1647	65535	64688.05
816.7082	491.3248	65535	64686.1
816.8522	493.4843	65535	64685.3
816.9963	495.6432	65535	64681.25
817.1404	497.8015	65535	64682
817.2845	499.9592	65535	64683
817.4286	502.1163	65535	64682.75
817.5727	504.2728	65535	64680.8
817.7168	506.4287	65535	64678.55
817.861	508.5839	65535	64682.35
818.0051	510.7386	65535	64682.85
818.1493	512.8927	65535	64681.2
818.2935	515.0461	65535	64681.85
818.4377	517.199	65535	64677.45
818.5818	519.3512	65535	64678.5
818.726	521.5029	65535	64672
818.8703	523.6539	65535	64678.5
819.0145	525.8043	65535	64675.6
819.1587	527.9541	65535	64672.85
819.303	530.1033	65535	64674.6
819.4472	532.2519	65535	64674.65
819.5915	534.3999	65535	64673.15
819.7357	536.5472	65535	64672.2
819.88	538.694	65535	64675.3
820.0243	540.8401	65535	64673.2
820.1686	542.9856	65535	64668
820.3129	545.1305	65535	64671.9
820.4572	547.2748	65535	64669.55
820.6016	549.4185	65535	64669
820.7459	551.5615	65535	64669.5
820.8902	553.704	65535	64671.5
821.0346	555.8458	65535	64672.65
821.1789	557.987	65535	64672.8
821.3233	560.1276	65535	64669.65
821.4677	562.2675	65535	64673.45
821.6121	564.4069	65535	64671.4
821.7565	566.5456	65535	64673.2
821.9009	568.6837	65535	64669.25
822.0453	570.8212	65535	64675
822.1897	572.958	65535	64671.4
822.3342	575.0942	65535	64669.35
822.4786	577.2299	65535	64670.3
822.6231	579.3648	65535	64669.5
822.7675	581.4992	65535	64669.25
822.912	583.6329	65535	64669.1
823.0565	585.766	65535	64669.65
823.201	587.8985	65535	64669.6
823.3454	590.0304	65535	64642.55
823.4899	592.1616	65535	64665.65
823.6345	594.2922	65535	64665.45
823.779	596.4222	65535	64662.9
823.9235	598.5515	65535	64664.5
824.068	600.6802	65535	64664.45
824.2126	602.8083	65535	64663.35
824.3571	604.9358	65535	64663.55
824.5017	607.0626	65535	64666.95
824.6462	609.1888	65535	64661.75
824.7908	611.3144	65535	64661.9
824.9354	613.4393	65535	64663.35
825.08	615.5636	65535	64662.9
825.2246	617.6873	65535	64660.2
825.3692	619.8103	65535	64660.35
825.5138	621.9327	65535	64659.5
825.6584	624.0544	65535	64661.8
825.803	626.1756	65535	64659.6
825.9477	628.2961	65535	64659.55
826.0923	630.4159	65535	64660.05
826.237	632.5351	65535	64660.9
826.3816	634.6537	65535	64663.45
826.5263	636.7716	65535	64659.05
826.6709	638.8889	65535	64657
826.8156	641.0056	65535	64659.15
826.9603	643.1216	65535	64656.6
827.105	645.237	65535	64654.85
827.2497	647.3518	65535	64657.4
827.3944	649.4659	65535	64660.25
827.5391	651.5793	65535	64656.1
827.6838	653.6922	65535	64659.6
827.8285	655.8043	65535	64655.3
827.9733	657.9159	65535	64654.35
828.118	660.0268	65535	64654.6
828.2627	662.137	65535	64656.8
828.4075	664.2466	65535	64655.8
828.5522	666.3556	65535	64656.05
828.697	668.4639	65535	64654.45
828.8418	670.5716	65535	64654.4
828.9865	672.6786	65535	64652.35
829.1313	674.785	65535	64653.8
829.2761	676.8907	65535	64655
829.4209	678.9958	65535	64654.4
829.5657	681.1002	65535	64650.95
829.7105	683.204	65535	64648.1
829.8553	685.3072	65535	64651.15
830.0001	687.4097	65535	64654
830.1449	689.5115	65535	64653.15
830.2898	691.6127	65535	64652.55
830.4346	693.7132	65535	64650.9
830.5794	695.8131	65535	64643.45
830.7243	697.9123	65535	64650
830.8691	700.0109	65535	64649.25
831.014	702.1089	65535	64651
831.1588	704.2061	65535	64651.45
831.3037	706.3028	65535	64648.3
831.4486	708.3987	65535	64649.4
831.5935	710.4941	65535	64649.15
831.7383	712.5887	65535	64649.25
831.8832	714.6827	65535	64645.7
832.0281	716.7761	65535	64652.35
832.173	718.8688	65535	64649.95
832.3179	720.9608	65535	64643.2
832.4628	723.0522	65535	64647.75
832.6077	725.1429	65535	64645.9
832.7527	727.233	65535	64646.25
832.8976	729.3224	65535	64648.2
833.0425	731.4112	65535	64644.95
833.1874	733.4993	65535	64644.05
833.3324	735.5867	65535	64648.8
833.4773	737.6735	65535	64648.3
833.6222	739.7596	65535	64647.2
833.7672	741.845	65535	64645.95
833.9122	743.9298	65535	64644
834.0571	746.014	65535	64648.65
834.2021	748.0974	65535	64645.65
834.347	750.1802	65535	64645.85
834.492	752.2624	65535	64644.75
834.637	754.3439	65535	64648
834.782	756.4247	65535	64636.95
834.9269	758.5048	65535	64647.75
835.0719	760.5843	65535	64643.7
835.2169	762.6631	65535	64644.4
835.3619	764.7413	65535	64645.45
835.5069	766.8188	65535	64643.95
835.6519	768.8956	65535	64642.95
835.7969	770.9718	65535	64644.65
835.9419	773.0473	65535	64642.8
836.0869	775.1221	65535	64645.35
836.232	777.1962	65535	64644.2
836.377	779.2697	65535	64642.35
836.522	781.3426	65535	64629.2
836.667	783.4147	65535	64642.1
836.8121	785.4862	65535	64647.1
836.9571	787.557	65535	64643.5
837.1021	789.6271	65535	64644.2
837.2472	791.6966	65535	64643.1
837.3922	793.7654	65535	64641.05
837.5373	795.8335	65535	64646.7
837.6823	797.901	65535	64643.6
837.8274	799.9678	65535	64640.9
837.9724	802.0339	65535	64646.3
838.1175	804.0993	65535	64633.9
838.2626	806.1641	65535	64643.1
838.4076	808.2282	65535	64642.25
838.5527	810.2916	65535	64639.75
838.6978	812.3544	65535	64644.35
838.8428	814.4164	65535	64640.75
838.9879	816.4778	65535	64642.8
839.133	818.5385	65535	64644.75
839.2781	820.5986	65535	64640.7
839.4232	822.658	65535	64641
839.5682	824.7166	65535	64642.5
839.7133	826.7747	65535	64642.05
839.8584	828.832	65535	64641.85
840.0035	830.8886	65535	64642.35
840.1486	832.9446	65535	64640.75
840.2937	834.9999	65535	64643.3
840.4388	837.0545	65535	64637.1
840.5839	839.1085	65535	64641.35
840.729	841.1618	65535	64636.7
840.8741	843.2143	65535	64642.55
841.0192	845.2662	65535	64641.9
841.1643	847.3175	65535	64644.1
841.3095	849.368	65535	64639.25
841.4546	851.4179	65535	64640.35
841.5997	853.467	65535	64643.75
841.7448	855.5155	65535	64640.35
841.8899	857.5633	65535	64642.1
842.0351	859.6105	65535	64640.35
842.1802	861.6569	65535	64641.1
842.3253	863.7027	65535	64640.2
842.4704	865.7478	65535	64638.6
842.6156	867.7922	65535	64641.8
842.7607	869.8359	65535	64637.6
842.9058	871.8789	65535	64638.45
843.0509	873.9212	65535	64607.6
843.1961	875.9629	65535	64640.45
843.3412	878.0039	65535	64638.5
843.4863	880.0441	65535	64641.95
843.6315	882.0837	65535	64641.8
843.7766	884.1226	65535	64637.45
843.9218	886.1609	65535	64639.9
844.0669	888.1984	65535	64640.9
844.212	890.2352	65535	64641.95
844.3572	892.2714	65535	64635.6
844.5023	894.3069	65535	64636.8
844.6475	896.3416	65535	64639.65
844.7926	898.3757	65535	64637.45
844.9377	900.4091	65535	64641.5
845.0829	902.4418	65535	64634.7
845.228	904.4739	65535	64635.25
845.3732	906.5052	65535	64639.5
845.5183	908.5358	65535	64638.55
845.6635	910.5658	65535	64633.55
845.8086	912.595	65535	64638.1
845.9538	914.6236	65535	64638.85
846.0989	916.6515	65535	64639.5
846.2441	918.6786	65535	64637.7
846.3892	920.7051	65535	64634.85
846.5344	922.7309	65535	64636.85
846.6795	924.756	65535	64637.7
846.8246	926.7804	65535	64633.7
846.9698	928.8041	65535	64636.75
847.1149	930.8272	65535	64636.6
847.2601	932.8495	65535	64636.25
847.4052	934.8711	65535	64637.25
847.5504	936.892	65535	64638.6
847.6955	938.9123	65535	64633.45
847.8407	940.9318	65535	64637.75
847.9858	942.9506	65535	64636.5
848.131	944.9688	65535	64637.35
848.2761	946.9862	65535	64636.95
848.4213	949.003	65535	64636.45
848.5664	951.019	65535	64635.25
848.7115	953.0344	65535	64636.95
848.8567	955.0491	65535	64636.6
849.0018	957.063	65535	64638.95
849.147	959.0763	65535	64639.05
849.2921	961.0888	65535	64635.15
849.4373	963.1007	65535	64637.7
849.5824	965.1119	65535	64638.85
849.7275	967.1223	65535	64638.25
849.8727	969.1321	65535	64638
850.0178	971.1412	65535	64636.2
850.1629	973.1495	65535	64637.2
850.3081	975.1572	65535	64603.9
850.4532	977.1641	65535	64637.3
850.5983	979.1704	65535	64638.35
850.7435	981.1759	65535	64634.95
850.8886	983.1808	65535	64634.45
851.0337	985.1849	65535	64625.2
851.1788	987.1884	65535	64635.85
851.324	989.1911	65535	64635.1
851.4691	991.1932	65535	64634.15
851.6142	993.1945	65535	64635.8
851.7593	995.1951	65535	64636.8
851.9045	997.1951	65535	64631.85
852.0496	999.1943	65535	64636.35
852.1947	1001.1928	65535	64636.1
852.3398	1003.1906	65535	64636.7
852.4849	1005.1877	65535	64635.9
852.63	1007.1841	65535	64636.1
852.7751	1009.1798	65535	64638.25
852.9202	1011.1748	65535	64636.85
853.0653	1013.1691	65535	64636.95
853.2104	1015.1627	65535	64636.85
853.3555	1017.1556	65535	64638.95
853.5006	1019.1477	65535	64634
853.6457	1021.1392	65535	64638
853.7908	1023.1299	65535	64634.25
853.9359	1025.12	65535	64637.75
854.081	1027.1093	65535	64640.65
854.2261	1029.0979	65535	64640.85
854.3712	1031.0859	65535	64639.3
854.5163	1033.0731	65535	64634.65
854.6613	1035.0596	65535	64639.45
854.8064	1037.0454	65535	64636.45
854.9515	1039.0304	65535	64637.35
855.0965	1041.0148	65535	64637.55
855.2416	1042.9985	65535	64634.95
855.3867	1044.9814	65535	64635
855.5317	1046.9636	65535	64634.2
855.6768	1048.9452	65535	64638.35
855.8219	1050.926	65535	64637.5
855.9669	1052.9061	65535	64638.15
856.112	1054.8855	65535	64636.2
856.257	1056.8642	65535	64636.5
856.4021	1058.8421	65535	64634.2
856.5471	1060.8194	65535	64636.8
856.6921	1062.7959	65535	64638.4
856.8372	1064.7717	65535	64634.4
856.9822	1066.7469	65535	64637.25
857.1272	1068.7213	65535	64634.35
857.2723	1070.695	65535	64637.6
857.4173	1072.6679	65535	64638.4
857.5623	1074.6402	65535	64636.95
857.7073	1076.6117	65535	64631.75
857.8523	1078.5826	65535	64635.05
857.9973	1080.5527	65535	64633.85
858.1423	1082.5221	65535	64636.25
858.2873	1084.4908	65535	64638.15
858.4323	1086.4587	65535	64634.45
858.5773	1088.426	65535	64637.1
858.7223	1090.3925	65535	64632.05
858.8673	1092.3584	65535	64636.9
859.0123	1094.3235	65535	64638.3
859.1573	1096.2879	65535	64635.55
859.3022	1098.2515	65535	64636.7
859.4472	1100.2145	65535	64638.85
859.5922	1102.1767	65535	64633.15
859.7371	1104.1382	65535	64636.6
859.8821	1106.099	65535	64635.35
860.027	1108.0591	65535	64638.55
860.172	1110.0185	65535	64636.6
860.3169	1111.9771	65535	64639
860.4619	1113.9351	65535	64637.85
860.6068	1115.8923	65535	64637.35
860.7517	1117.8488	65535	64636.65
860.8967	1119.8045	65535	64638.8
861.0416	1121.7596	65535	64638.45
861.1865	1123.7139	65535	64637.3
861.3314	1125.6675	65535	64637.15
861.4763	1127.6204	65535	64636.25
861.6212	1129.5726	65535	64634.8
861.7661	1131.524	65535	64638.4
861.911	1133.4748	65535	64635.65
862.0559	1135.4248	65535	64635.9
862.2008	1137.3741	65535	64636.45
862.3457	1139.3226	65535	64636.55
862.4905	1141.2705	65535	64636.35
862.6354	1143.2176	65535	64632.1
862.7803	1145.164	65535	64635.4
862.9251	1147.1097	65535	64636.45
863.07	1149.0546	65535	64634.9
863.2148	1150.9989	65535	64637.4
863.3597	1152.9424	65535	64635.85
863.5045	1154.8852	65535	64635.95
863.6493	1156.8272	65535	64638.5
863.7942	1158.7686	65535	64629.8
863.939	1160.7092	65535	64635.35
864.0838	1162.6491	65535	64633.45
864.2286	1164.5883	65535	64636.25
864.3734	1166.5267	65535	64636.4
864.5182	1168.4644	65535	64636.15
864.663	1170.4014	65535	64631.7
864.8078	1172.3377	65535	64635.95
864.9526	1174.2732	65535	64637.3
865.0974	1176.2081	65535	64638.9
865.2421	1178.1421	65535	64632.25
865.3869	1180.0755	65535	64636.95
865.5317	1182.0082	65535	64638.7
865.6764	1183.9401	65535	64636.6
865.8212	1185.8713	65535	64638.05
865.9659	1187.8017	65535	64637.25
866.1106	1189.7315	65535	64638.9
866.2554	1191.6605	65535	64608.3
866.4001	1193.5888	65535	64637.4
866.5448	1195.5163	65535	64638.9
866.6895	1197.4432	65535	64635.3
866.8342	1199.3693	65535	64637.7
866.9789	1201.2947	65535	64638.1
867.1236	1203.2193	65535	64637.35
867.2683	1205.1432	65535	64637.4
867.413	1207.0664	65535	64638.7
867.5576	1208.9889	65535	64633.75
867.7023	1210.9106	65535	64640
867.847	1212.8316	65535	64638.15
867.9916	1214.7519	65535	64627.6
868.1363	1216.6715	65535	64637.8
868.2809	1218.5903	65535	64636.75
868.4255	1220.5084	65535	64639.35
868.5701	1222.4257	65535	64638.6
868.7148	1224.3424	65535	64637.55
868.8594	1226.2583	65535	64631.3
869.004	1228.1735	65535	64636.35
869.1486	1230.0879	65535	64636.9
869.2932	1232.0016	65535	64638.5
869.4377	1233.9146	65535	64636.15
869.5823	1235.8269	65535	64640.4
869.7269	1237.7384	65535	64637.1
869.8715	1239.6492	65535	64638.45
870.016	1241.5592	65535	64636.7
870.1606	1243.4686	65535	64636.6
870.3051	1245.3772	65535	64636.95
870.4496	1247.285	65535	64637.65
870.5941	1249.1922	65535	64637.65
870.7387	1251.0986	65535	64638.55
870.8832	1253.0042	65535	64638.7
871.0277	1254.9092	65535	64639.4
871.1722	1256.8134	65535	64639.75
871.3167	1258.7169	65535	64637.95
871.4611	1260.6196	65535	64636.65
871.6056	1262.5216	65535	64634.4
871.7501	1264.4229	65535	64638
871.8945	1266.3234	65535	64638
872.039	1268.2232	65535	64638.95
872.1834	1270.1223	65535	64635.3
872.3278	1272.0207	65535	64639.2
872.4723	1273.9183	65535	64631.4
872.6167	1275.8151	65535	64637.1
872.7611	1277.7113	65535	64637.05
872.9055	1279.6067	65535	64638.9
873.0499	1281.5014	65535	64636.35
873.1943	1283.3953	65535	64636.15
873.3386	1285.2885	65535	64637.75
873.483	1287.181	65535	64635.7
873.6274	1289.0727	65535	64638.3
873.7717	1290.9637	65535	64636.8
873.9161	1292.854	65535	64637.35
874.0604	1294.7435	65535	64637.05
874.2047	1296.6323	65535	64636.95
874.349	1298.5204	65535	64635.85
874.4933	1300.4077	65535	64636.4
874.6376	1302.2943	65535	64637.1
874.7819	1304.1802	65535	64639.5
874.9262	1306.0653	65535	64636.5
875.0705	1307.9497	65535	64638.9
875.2147	1309.8333	65535	64638.7
875.359	1311.7162	65535	64639.4
875.5032	1313.5984	65535	64635.25
875.6475	1315.4798	65535	64634.3
875.7917	1317.3605	65535	64622.45
875.9359	1319.2405	65535	64636.95
876.0801	1321.1197	65535	64636.45
876.2243	1322.9982	65535	64632.75
876.3685	1324.876	65535	64639.65
876.5127	1326.753	65535	64638.5
876.6569	1328.6293	65535	64637.1
876.801	1330.5048	65535	64635.3
876.9452	1332.3796	65535	64638.3
877.0893	1334.2537	65535	64612.15
877.2335	1336.127	65535	64638.3
877.3776	1337.9996	65535	64637.4
877.5217	1339.8714	65535	64639.1
877.6658	1341.7426	65535	64594.4
877.8099	1343.6129	65535	64634.65
877.954	1345.4826	65535	64634.15
878.0981	1347.3515	65535	64635.75
878.2422	1349.2196	65535	64634.3
878.3862	1351.087	65535	64636
878.5303	1352.9537	65535	64635.35
878.6743	1354.8197	65535	64638
878.8184	1356.6849	65535	64636.25
878.9624	1358.5493	65535	64637.9
879.1064	1360.4131	65535	64638.7
879.2504	1362.276	65535	64637.65
879.3944	1364.1383	65535	64638.9
879.5384	1365.9998	65535	64630.55
879.6823	1367.8606	65535	64636.2
879.8263	1369.7206	65535	64638.3
879.9702	1371.5799	65535	64634.25
880.1142	1373.4384	65535	64637.6
880.2581	1375.2962	65535	64634.75
880.402	1377.1533	65535	64638.45
880.5459	1379.0096	65535	64637.65
880.6898	1380.8652	65535	64638.35
880.8337	1382.7201	65535	64638.8
880.9776	1384.5742	65535	64634.4
881.1215	1386.4275	65535	64636.85
881.2653	1388.2802	65535	64639.45
881.4092	1390.132	65535	64635.35
881.553	1391.9832	65535	64635.45
881.6968	1393.8336	65535	64636.75
881.8406	1395.6832	65535	64636.65
881.9844	1397.5322	65535	64637.9
882.1282	1399.3803	65535	64631.2
882.272	1401.2278	65535	64638.45
882.4158	1403.0745	65535	64637.7
882.5595	1404.9204	65535	64638.35
882.7033	1406.7656	65535	64638
882.847	1408.6101	65535	64635.45
882.9908	1410.4538	65535	64639.3
883.1345	1412.2968	65535	64638.25
883.2782	1414.139	65535	64637.65
883.4219	1415.9805	65535	64639.5
883.5656	1417.8213	65535	64628.05
883.7092	1419.6613	65535	64639.65
883.8529	1421.5006	65535	64635.5
883.9965	1423.3391	65535	64636.1
884.1402	1425.1769	65535	64639.45
884.2838	1427.0139	65535	64638.3
884.4274	1428.8502	65535	64636
884.571	1430.6858	65535	64639.35
884.7146	1432.5206	65535	64637.05
884.8582	1434.3547	65535	64637.15
885.0018	1436.188	65535	64638.1
885.1453	1438.0206	65535	64636.7
885.2889	1439.8524	65535	64636.8
885.4324	1441.6835	65535	64636.75
885.5759	1443.5139	65535	64634.9
885.7194	1445.3435	65535	64636.25
885.8629	1447.1724	65535	64640.35
886.0064	1449.0005	65535	64640.35
886.1499	1450.8279	65535	64638.65
886.2933	1452.6545	65535	64639.3
886.4368	1454.4804	65535	64639.85
886.5802	1456.3056	65535	64629.2
886.7237	1458.13	65535	64639.55
886.8671	1459.9536	65535	64636.95
887.0105	1461.7766	65535	64639.55
887.1539	1463.5987	65535	64638.55
887.2972	1465.4202	65535	64638.95
887.4406	1467.2409	65535	64639.2
887.584	1469.0608	65535	64638.8
887.7273	1470.88	65535	64636.4
887.8706	1472.6984	65535	64640.45
888.0139	1474.5161	65535	64637.85
888.1572	1476.3331	65535	64640.25
888.3005	1478.1493	65535	64637.55
888.4438	1479.9648	65535	64638.25
888.5871	1481.7795	65535	64639.9
888.7303	1483.5935	65535	64638.5
888.8736	1485.4067	65535	64638.5
889.0168	1487.2192	65535	64637.25
889.16	1489.031	65535	64636.4
889.3032	1490.842	65535	64639.1
889.4464	1492.6522	65535	64638.7
889.5896	1494.4618	65535	64635.35
889.7327	1496.2705	65535	64636.55
889.8759	1498.0785	65535	64638.3
890.019	1499.8858	65535	64639.55
890.1622	1501.6924	65535	64641.05
890.3053	1503.4981	65535	64640.5
890.4484	1505.3032	65535	64639.75
890.5914	1507.1075	65535	64638.6
890.7345	1508.911	65535	64640
890.8776	1510.7138	65535	64639.05
891.0206	1512.5159	65535	64639.9
891.1637	1514.3172	65535	64638.65
891.3067	1516.1178	65535	64637.5
891.4497	1517.9176	65535	64637.4
891.5927	1519.7166	65535	64638.7
891.7357	1521.515	65535	64631.55
891.8786	1523.3126	65535	64637
892.0216	1525.1094	65535	64637.5
892.1645	1526.9055	65535	64637.85
892.3074	1528.7008	65535	64641.9
892.4503	1530.4954	65535	64637.65
892.5932	1532.2893	65535	64640.35
892.7361	1534.0824	65535	64632.7
892.879	1535.8747	65535	64641.45
893.0218	1537.6663	65535	64639.8
893.1647	1539.4572	65535	64639.1
893.3075	1541.2473	65535	64639.8
893.4503	1543.0367	65535	64641.6
893.5931	1544.8253	65535	64634.2
893.7359	1546.6132	65535	64635.45
893.8787	1548.4003	65535	64630.6
894.0214	1550.1867	65535	64630.55
894.1642	1551.9723	65535	64636.75
894.3069	1553.7572	65535	64642.4
894.4496	1555.5414	65535	64640.5
894.5923	1557.3247	65535	64638.5
894.735	1559.1074	65535	64641.85
894.8777	1560.8893	65535	64640.45
895.0204	1562.6705	65535	64640.4
895.163	1564.4509	65535	64639.25
895.3056	1566.2305	65535	64641
895.4482	1568.0094	65535	64641.85
895.5908	1569.7876	65535	64642.7
895.7334	1571.565	65535	64640
895.876	1573.3417	65535	64641.45
896.0186	1575.1176	65535	64641.85
896.1611	1576.8928	65535	64641.75
896.3036	1578.6672	65535	64640.75
896.4461	1580.4409	65535	64643.55
896.5886	1582.2138	65535	64637.8
896.7311	1583.986	65535	64641.8
896.8736	1585.7575	65535	64641.8
897.0161	1587.5282	65535	64642.85
897.1585	1589.2981	65535	64643.75
897.3009	1591.0673	65535	64642
897.4433	1592.8358	65535	64641.4
897.5857	1594.6035	65535	64638.35
897.7281	1596.3704	65535	64639.85
897.8705	1598.1366	65535	64640.4
898.0128	1599.9021	65535	64640.7
898.1551	1601.6668	65535	64639.55
898.2975	1603.4308	65535	64640.65
898.4398	1605.194	65535	64638.15
898.5821	1606.9564	65535	64643.7
898.7243	1608.7182	65535	64639.8
898.8666	1610.4791	65535	64640.2
899.0088	1612.2394	65535	64644.9
899.1511	1613.9988	65535	64643.95
899.2933	1615.7576	65535	64641.3
899.4355	1617.5156	65535	64636.85
899.5776	1619.2728	65535	64641.55
899.7198	1621.0293	65535	64644.4
899.862	1622.785	65535	64637.4
900.0041	1624.54	65535	64640.3
900.1462	1626.2942	65535	64642.35
900.2883	1628.0477	65535	64639.7
900.4304	1629.8005	65535	64639.7
900.5725	1631.5525	65535	64641.35
900.7145	1633.3037	65535	64642.85
900.8566	1635.0542	65535	64644.35
900.9986	1636.804	65535	64641.5
901.1406	1638.553	65535	64552.3
901.2826	1640.3013	65535	64640.8
901.4245	1642.0488	65535	64641.3
901.5665	1643.7955	65535	64642.8
901.7085	1645.5416	65535	64642.95
901.8504	1647.2868	65535	64645.5
901.9923	1649.0313	65535	64644.75
902.1342	1650.7751	65535	64638.65
902.2761	1652.5181	65535	64644.55
902.4179	1654.2604	65535	64641.65
902.5598	1656.0019	65535	64645.65
902.7016	1657.7427	65535	64645.45
902.8434	1659.4828	65535	64642.9
902.9852	1661.222	65535	64642.35
903.127	1662.9606	65535	64642.6
903.2687	1664.6984	65535	64643.15
903.4105	1666.4354	65535	64641.7
903.5522	1668.1717	65534.95	64642.55
903.6939	1669.9072	65513.55	64623.5
903.8356	1671.642	65518.05	64623.95
903.9773	1673.3761	65513.55	64620.2
904.119	1675.1094	65492.95	64602.1
904.2606	1676.8419	65441.95	64550.4
904.4022	1678.5737	65482.4	64591.05
904.5439	1680.3048	65452.4	64560.45
904.6855	1682.0351	65433.95	64543.3
904.827	1683.7646	65419	64524.15
904.9686	1685.4934	65438.5	64545.9
905.1101	1687.2215	65343.25	64451.95
905.2517	1688.9488	65421.85	64530.3
905.3932	1690.6754	65250.15	64361.15
905.5347	1692.4012	65349.95	64460.95
905.6761	1694.1263	65370.75	64479.55
905.8176	1695.8506	65303.95	64412.35
905.9591	1697.5742	65318.1	64425.5
906.1005	1699.297	65287	64396.95
906.2419	1701.0191	65299.9	64408.4
906.3833	1702.7404	65173.35	64280.85
906.5246	1704.461	65123.2	64230.9
906.666	1706.1808	65251.8	64359.45
906.8073	1707.8999	65161.3	64270.45
906.9487	1709.6182	65155.6	64265.4
907.09	1711.3358	65137.55	64246.9
907.2313	1713.0527	65118.8	64230.4
907.3725	1714.7688	65134.2	64238.1
907.5138	1716.4841	64932.4	64038.75
907.655	1718.1987	65006.9	64111.8
907.7962	1719.9126	64969.45	64079.1
907.9374	1721.6257	65046.4	64153.25
908.0786	1723.338	65037.15	64144.95
908.2198	1725.0496	64798.45	63908.4
908.3609	1726.7605	64829.9	63938.3
908.502	1728.4706	64742.8	63850.05
908.6431	1730.18	64856.1	63963.1
908.7842	1731.8886	64700.8	63811.3
908.9253	1733.5964	64627.55	63733
909.0664	1735.3036	64811.2	63919.75
909.2074	1737.0099	64683.9	63792.25
909.3484	1738.7156	64554.6	63664.05
909.4894	1740.4204	64499.45	63606.55
909.6304	1742.1246	64565.35	63671.75
909.7714	1743.8279	64597.65	63708.3
909.9123	1745.5306	64585.6	63693.65
910.0532	1747.2325	64134.55	63242.8
910.1941	1748.9336	64140.7	63252.55
910.335	1750.634	64306.6	63413.7
910.4759	1752.3336	64419.85	63528.75
910.6168	1754.0325	64076.3	63186.8
910.7576	1755.7307	64408.15	63516.95
910.8984	1757.4281	63955.65	63067.6
911.0392	1759.1247	64278.2	63378.85
911.18	1760.8206	63801.35	62906.2
911.3208	1762.5158	63882.1	62985.85
911.4615	1764.2102	63968.9	63079.5
911.6022	1765.9039	63873.15	62982.2
911.7429	1767.5968	63772.2	62883.1
911.8836	1769.289	63704.2	62814.4
912.0243	1770.9804	63819.65	62928.1
912.1649	1772.6711	63701.55	62810.75
912.3056	1774.361	63607.2	62716.15
912.4462	1776.0502	63618.1	62726.5
912.5868	1777.7386	63104.55	62210.35
912.7274	1779.4263	63484.95	62591.75
912.8679	1781.1132	63446.6	62555.95
913.0084	1782.7994	63337.95	62446.75
913.149	1784.4849	63334.8	62445.3
913.2895	1786.1696	62675.3	61779.25
913.4299	1787.8535	63100.1	62210.9
913.5704	1789.5367	63189.7	62298.85
913.7108	1791.2192	62785.8	61897.35
913.8513	1792.9009	62513.65	61594.75
913.9917	1794.5818	62839.3	61947.75
914.132	1796.2621	62492.2	61602.75
914.2724	1797.9415	62569.65	61679.85
914.4128	1799.6202	62513.2	61625.05
914.5531	1801.2982	62484.95	61595.75
914.6934	1802.9755	62046.5	61156.05
914.8337	1804.6519	61886.25	60995.9
914.9739	1806.3277	62525.3	61635.95
915.1142	1808.0027	61478.55	60589.6
915.2544	1809.6769	61870.05	60979.05
915.3946	1811.3504	61978.3	61087.7
915.5348	1813.0231	61149.6	60259.45
915.675	1814.6951	61675.2	60785.45
915.8151	1816.3664	61332.65	60441.95
915.9553	1818.0369	61368.3	60477.45
916.0954	1819.7067	61095.1	60203.95
916.2355	1821.3757	61632.9	60741.8
916.3755	1823.044	60891.45	60002.2
916.5156	1824.7115	60452.3	59562
916.6556	1826.3783	60762.6	59872.95
916.7956	1828.0443	60795.6	59906.6
916.9356	1829.7096	60491.5	59600.05
917.0756	1831.3741	59809.15	58915.95
917.2155	1833.0379	60241.65	59349.85
917.3555	1834.701	60207.4	59315.3
917.4954	1836.3633	59701.35	58810.75
917.6353	1838.0248	60045.1	59154.15
917.7751	1839.6856	59824.25	58933.15
917.915	1841.3457	59328.95	58440.8
918.0548	1843.005	59967.5	59078.05
918.1946	1844.6636	59497.75	58610
918.3344	1846.3214	58722.55	57832.55
918.4742	1847.9785	58983.15	58093.1
918.6139	1849.6349	58914.6	58020.75
918.7537	1851.2904	59519.3	58619.45
918.8934	1852.9453	58652.35	57764.05
919.0331	1854.5994	58997.45	58104.9
919.1727	1856.2528	58919.7	58026.45
919.3124	1857.9054	58388.7	57499.25
919.452	1859.5572	58167.6	57278.7
919.5916	1861.2083	58444.45	57555.55
919.7312	1862.8587	58924.85	58036.2
919.8708	1864.5084	57407.8	56517.75
920.0103	1866.1572	58112.4	57224.25
920.1498	1867.8054	57330.2	56439.55
920.2893	1869.4528	57774.75	56884.4
920.4288	1871.0994	57132.45	56243.2
920.5683	1872.7453	57030.35	56140.05
920.7077	1874.3905	57394.85	56499.45
920.8471	1876.0349	56760.65	55869.1
920.9865	1877.6786	57245.8	56354.8
921.1259	1879.3215	56608.95	55720.4
921.2653	1880.9637	57187.65	56295.6
921.4046	1882.6051	56585.6	55696.65
921.5439	1884.2458	56300.9	55408.1
921.6832	1885.8858	56010.1	55119.5
921.8225	1887.525	56242.95	55354.2
921.9617	1889.1634	56064.4	55174.1
922.101	1890.8011	55832.45	54945.1
922.2402	1892.4381	55162.1	54273.45
922.3794	1894.0743	55843.05	54954.25
922.5185	1895.7098	55404	54515.85
922.6577	1897.3446	54977.85	54085.35
922.7968	1898.9786	55157.6	54262.7
922.9359	1900.6118	54840.95	53952.45
923.075	1902.2443	54501.85	53611.1
923.214	1903.8761	54836.65	53946.9
923.3531	1905.5071	54422.6	53533.1
923.4921	1907.1374	53650.55	52760.15
923.6311	1908.7669	54003.75	53115
923.77	1910.3957	54242.1	53351.45
923.909	1912.0237	53676.75	52787.9
924.0479	1913.651	53385.35	52494.35
924.1868	1915.2776	53177.1	52289
924.3257	1916.9034	53141.6	52254.4
924.4646	1918.5285	52843.85	51957.25
924.6034	1920.1528	52861.4	51972.25
924.7422	1921.7764	52691.3	51802.35
924.881	1923.3992	52529.95	51640.9
925.0198	1925.0213	52194.75	51306.05
925.1586	1926.6427	51752.15	50864.15
925.2973	1928.2633	51951.5	50981
925.436	1929.8832	51681.95	50790.15
925.5747	1931.5023	51493.2	50603.8
925.7134	1933.1207	51119.6	50231.45
925.852	1934.7383	51307	50415.5
925.9906	1936.3552	50990.5	50102.3
926.1292	1937.9714	50921.3	50032.55
926.2678	1939.5868	50827.75	49937.3
926.4064	1941.2015	50375.55	49484
926.5449	1942.8154	50086.2	49197
926.6834	1944.4286	50073.5	49184.8
926.8219	1946.041	50027.5	49119.5
926.9604	1947.6528	49687.45	48792.35
927.0988	1949.2637	49477.65	48590.15
927.2372	1950.8739	49267.9	48377.55
927.3756	1952.4834	49305.1	48414.55
927.514	1954.0921	49145.6	48256.65
927.6523	1955.7001	48802.85	47908.8
927.7907	1957.3074	48834.05	47945.7
927.929	1958.9139	48497.9	47609.15
928.0673	1960.5197	48416.8	47526.3
928.2055	1962.1247	48269.7	47378.5
928.3438	1963.729	48047	47159.35
928.482	1965.3325	47827	46915.7
928.6202	1966.9353	47798.5	46909.95
928.7584	1968.5374	47517.85	46628.25
928.8965	1970.1387	47303.55	46414.2
929.0346	1971.7393	47239.75	46349.5
929.1727	1973.3392	47113.05	46223.8
929.3108	1974.9383	46834.8	45944.95
929.4489	1976.5366	46663.5	45774.2
929.5869	1978.1342	46650.7	45761.7
929.7249	1979.7311	46472.1	45580.75
929.8629	1981.3273	46348.5	45462
930.0009	1982.9227	46169.3	45277.8
930.1388	1984.5173	46026.55	45138.05
930.2767	1986.1112	45813.45	44925.6
930.4146	1987.7044	45828.05	44940.85
930.5525	1989.2968	45532.5	44642.6
930.6904	1990.8885	45441.1	44546.6
930.8282	1992.4795	45302.75	44410.55
930.966	1994.0697	45166.4	44278.4
931.1038	1995.6592	45010.95	44121.5
931.2415	1997.2479	44893.9	44007.5
931.3793	1998.8359	44790.15	43898.85
931.517	2000.4232	44611.55	43723.05
931.6547	2002.0097	44429.85	43541.85
931.7923	2003.5955	44146.55	43256.75
931.93	2005.1805	44122.5	43230.85
932.0676	2006.7648	44071.25	43181.45
932.2052	2008.3484	43939.65	43049.15
932.3427	2009.9312	43889.7	42999.25
932.4803	2011.5133	43658.05	42768.45
932.6178	2013.0946	43616	42728
932.7553	2014.6752	43508.2	42622.9
932.8928	2016.2551	43346.85	42455.95
933.0302	2017.8342	43148.75	42261.7
933.1676	2019.4126	43000.25	42111.6
933.305	2020.9902	42818.65	41932.85
933.4424	2022.5672	42776.4	41887.35
933.5798	2024.1433	42677.25	41780.75
933.7171	2025.7188	42482.55	41593.85
933.8544	2027.2935	42349.55	41460.2
933.9917	2028.8674	42159.5	41272.8
934.129	2030.4406	42086.9	41199.45
934.2662	2032.0131	41899.6	41011.85
934.4034	2033.5849	41772.05	40880.85
934.5406	2035.1559	41674.7	40786.7
934.6778	2036.7261	41576	40687.75
934.8149	2038.2957	41489.4	40600.55
934.952	2039.8645	41367.8	40479.8
935.0891	2041.4325	41384.05	40493.3
935.2262	2042.9998	41210.65	40320.8
935.3632	2044.5664	41050	40160.1
935.5002	2046.1323	40911.05	40023.35
935.6372	2047.6974	40794.6	39906.1
935.7742	2049.2617	40678.05	39790.45
935.9111	2050.8254	40685.25	39794.05
936.048	2052.3883	40545.4	39655.55
936.1849	2053.9504	40417.7	39529.2
936.3218	2055.5118	40227.9	39339.1
936.4586	2057.0725	40078.3	39185.2
936.5955	2058.6325	40020.65	39132.15
936.7323	2060.1917	39819.55	38931.2
936.869	2061.7502	39791.9	38901.45
937.0058	2063.3079	39595.45	38708.25
937.1425	2064.8649	39453.55	38563.2
937.2792	2066.4212	39437.05	38547.85
937.4159	2067.9767	39246.75	38359.6
937.5525	2069.5315	39107.3	38220.75
937.6891	2071.0856	38940	38050.65
937.8257	2072.6389	38809.75	37921.35
937.9623	2074.1915	38601.4	37713.1
938.0989	2075.7433	38414.85	37525.75
938.2354	2077.2945	38343.25	37458.95
938.3719	2078.8448	38229.2	37340.1
938.5084	2080.3945	38081.85	37194.05
938.6448	2081.9434	38017.45	37130.05
938.7812	2083.4916	37919.95	37031.45
938.9176	2085.039	37756.85	36867.4
939.054	2086.5857	37673.75	36782.4
939.1903	2088.1317	37661.2	36771.95
939.3267	2089.677	37469.4	36580.95
939.463	2091.2215	37377.65	36490.1
939.5992	2092.7652	37246.45	36355.05
939.7355	2094.3083	37173.25	36283
939.8717	2095.8506	37070.4	36182.25
940.0079	2097.3921	37058.25	36170.5
940.1441	2098.933	36903.4	36013.7
940.2802	2100.4731	36790.25	35904.4
940.4163	2102.0124	36779.8	35873.35
940.5524	2103.5511	36608.05	35718.7
940.6885	2105.089	36576.9	35686.9
940.8245	2106.6261	36434.25	35545.2
940.9606	2108.1626	36318.35	35429.45
941.0965	2109.6983	36291.6	35375.1
941.2325	2111.2332	36187.9	35299
941.3684	2112.7675	36046.7	35157.05
941.5044	2114.301	35967.8	35075.8
941.6403	2115.8337	35906.1	35017.25
941.7761	2117.3657	35802.15	34915.25
941.912	2118.897	35740	34851.1
942.0478	2120.4276	35562.85	34668.2
942.1835	2121.9575	35397.1	34507.55
942.3193	2123.4866	35378	34475.2
942.455	2125.0149	35278.45	34387.7
942.5907	2126.5426	35084.75	34195.75
942.7264	2128.0695	34999.65	34108.8
942.8621	2129.5956	34935.15	34048.35
942.9977	2131.1211	34839.9	33947.5
943.1333	2132.6458	34734.7	33845.2
943.2689	2134.1698	34673.15	33783.75
943.4044	2135.693	34573.9	33683.1
943.54	2137.2155	34494.2	33601.1
943.6755	2138.7373	34444.55	33555.55
943.8109	2140.2584	34291.85	33404.5
943.9464	2141.7787	34144.85	33249.7
944.0818	2143.2983	34024.35	33137.15
944.2172	2144.8171	33828.4	32941.45
944.3526	2146.3353	33778.1	32887.35
944.4879	2147.8527	33601.65	32714.5
944.6232	2149.3693	33584.3	32694.4
944.7585	2150.8853	33473.8	32584.9
944.8938	2152.4005	33311.3	32420.85
945.029	2153.9149	33289.5	32400.4
945.1642	2155.4287	33152	32264.35
945.2994	2156.9417	33032.65	32145.3
945.4346	2158.454	32946.95	32057.05
945.5697	2159.9655	32878.85	31989
945.7048	2161.4764	32850.1	31961.5
945.8399	2162.9865	32736.95	31848.7
945.9749	2164.4958	32643.4	31752.3
946.1099	2166.0045	32512.6	31622
946.2449	2167.5124	32479.9	31592.2
946.3799	2169.0195	32349.95	31462.3
946.5148	2170.526	32307.4	31418.8
946.6498	2172.0317	32208.35	31320.1
946.7846	2173.5367	32086	31197.35
946.9195	2175.0409	32002.5	31114.15
947.0543	2176.5445	31968.25	31080.55
947.1891	2178.0473	31843.15	30953.6
947.3239	2179.5494	31660.55	30768.3
947.4587	2181.0507	31555.15	30665.3
947.5934	2182.5513	31467.45	30579.3
947.7281	2184.0512	31417.6	30528.2
947.8628	2185.5504	31333.15	30445.95
947.9974	2187.0488	31141.45	30256.05
948.132	2188.5465	31056.95	30167.1
948.2666	2190.0435	30878.5	29988.9
948.4012	2191.5397	30807.8	29918.7
948.5357	2193.0353	30721.15	29833.1
948.6702	2194.5301	30538.15	29647.5
948.8047	2196.0241	30436.9	29547.05
948.9392	2197.5175	30386.6	29497.95
949.0736	2199.0101	30289.6	29397.35
949.208	2200.502	30127.45	29240.6
949.3424	2201.9931	29993.9	29107.45
949.4767	2203.4835	29859.75	28969.45
949.611	2204.9733	29822.55	28929.25
949.7453	2206.4622	29757.05	28870.7
949.8796	2207.9505	29618.3	28726
950.0138	2209.438	29492.85	28606.1
950.148	2210.9248	29400.15	28511.95
950.2822	2212.4109	29319.85	28432.95
950.4164	2213.8962	29208.75	28318.5
950.5505	2215.3809	29073.1	28183.75
950.6846	2216.8648	29051.65	28161.7
950.8186	2218.3479	28938.85	28045.6
950.9527	2219.8304	28834.1	27943.2
951.0867	2221.3121	28713.35	27824.15
951.2207	2222.7931	28616.15	27728.8
951.3546	2224.2733	28553.65	27666.1
951.4886	2225.7529	28440.25	27552.35
951.6225	2227.2317	28348.85	27458.6
951.7563	2228.7098	28262.35	27374.05
951.8902	2230.1872	28170.4	27283.4
952.024	2231.6638	28109.25	27219.2
952.1578	2233.1397	27965.75	27071.8
952.2916	2234.6149	27920.5	27033.9
952.4253	2236.0894	27782.85	26893.75
952.559	2237.5632	27708.5	26817.6
952.6927	2239.0362	27648.7	26761.15
952.8263	2240.5085	27533.9	26644.2
952.9599	2241.9801	27399.05	26509.45
953.0935	2243.4509	27330.6	26443
953.2271	2244.921	27238.1	26350.55
953.3606	2246.3904	27115.9	26225.85
953.4941	2247.8591	27035.75	26148.55
953.6276	2249.3271	26943.45	26055.15
953.7611	2250.7943	26836	25947.35
953.8945	2252.2608	26774.95	25886.7
954.0279	2253.7266	26695.95	25805.4
954.1612	2255.1917	26619.9	25731.75
954.2946	2256.656	26546.55	25657.7
954.4279	2258.1197	26436.7	25547.3
954.5612	2259.5826	26366.95	25476.8
954.6944	2261.0447	26320.55	25429.5
954.8276	2262.5062	26190	25296.7
954.9608	2263.9669	26133.6	25242.6
955.094	2265.4269	26111.85	25225.1
955.2271	2266.8862	25952.65	25064.15
955.3602	2268.3448	25946.25	25057.5
955.4933	2269.8026	25878.15	24988.45
955.6264	2271.2598	25783.45	24896.3
955.7594	2272.7162	25663.9	24775.45
955.8924	2274.1719	25618.85	24729.25
956.0253	2275.6268	25491	24604
956.1583	2277.0811	25499.05	24611.05
956.2912	2278.5346	25410.9	24523.5
956.4241	2279.9874	25327.15	24437.2
956.5569	2281.4395	25271.05	24383.65
956.6897	2282.8908	25157.2	24263.9
956.8225	2284.3414	25133.25	24243.7
956.9553	2285.7914	25037.6	24150.65
957.088	2287.2406	24932.7	24042.15
957.2207	2288.689	24914.9	24025.3
957.3534	2290.1368	24813.55	23925.55
957.486	2291.5838	24706.35	23813.3
957.6186	2293.0302	24628.55	23738.25
957.7512	2294.4758	24518.45	23628.6
957.8838	2295.9206	24413.2	23523
958.0163	2297.3648	24358.35	23470.35
958.1488	2298.8082	24324.9	23435.9
958.2813	2300.251	24297.1	23408.6
958.4137	2301.693	24176.55	23284.35
958.5461	2303.1343	24151.75	23263.2
958.6785	2304.5748	24024.3	23138.1
958.8108	2306.0147	23951.8	23064.25
958.9432	2307.4538	23897.3	23007.95
959.0754	2308.8922	23818.15	22931.8
959.2077	2310.3299	23767.1	22878.45
959.3399	2311.7669	23652.3	22766.75
959.4721	2313.2031	23596.5	22707.8
959.6043	2314.6387	23461.85	22572.6
959.7365	2316.0735	23431.25	22541.55
959.8686	2317.5076	23383.9	22494
960.0006	2318.941	23274.7	22385.1
960.1327	2320.3737	23200.6	22312.6
960.2647	2321.8056	23123.15	22232.1
960.3967	2323.2369	23054.2	22165.8
960.5287	2324.6674	22984.15	22093.25
960.6606	2326.0972	22882.3	21994.35
960.7925	2327.5263	22806.3	21918.8
960.9244	2328.9547	22757	21867.15
961.0562	2330.3823	22665.6	21776.5
961.1881	2331.8092	22671.3	21778.85
961.3198	2333.2355	22539	21650.55
961.4516	2334.661	22513.6	21625.8
961.5833	2336.0858	22439.75	21548.35
961.715	2337.5098	22400.3	21512.5
961.8467	2338.9332	22353.05	21463.25
961.9783	2340.3558	22289.4	21398.7
962.1099	2341.7778	22176.95	21288.05
962.2415	2343.199	22077.95	21186.9
962.373	2344.6195	22021.4	21134.75
962.5045	2346.0393	21990.1	21100.1
962.636	2347.4583	21946.8	21058.3
962.7675	2348.8767	21851.7	20961.7
962.8989	2350.2943	21756.85	20866.6
963.0303	2351.7113	21742.05	20852.05
963.1617	2353.1275	21665.9	20777.15
963.293	2354.543	21584.5	20690.8
963.4243	2355.9578	21506.8	20618.6
963.5556	2357.3718	21358.5	20471.05
963.6868	2358.7852	21264.95	20374.6
963.818	2360.1978	21187.2	20297.5
963.9492	2361.6098	21175.85	20287.75
964.0803	2363.021	21095.6	20202.8
964.2114	2364.4315	21044.4	20155.4
964.3425	2365.8413	20978.05	20088.8
964.4736	2367.2504	20920.65	20033.4
964.6046	2368.6587	20784.3	19895.5
964.7356	2370.0664	20735.65	19847.6
964.8666	2371.4733	20658.05	19769.8
964.9975	2372.8795	20600.35	19713.55
965.1284	2374.285	20510.6	19621.9
965.2593	2375.6899	20385.45	19498.95
965.3901	2377.0939	20283.95	19396.85
965.5209	2378.4973	20244.15	19356.1
965.6517	2379.9	20202.45	19312.9
965.7825	2381.3019	20117.2	19228.35
965.9132	2382.7032	20010.8	19123.25
966.0439	2384.1037	19988.65	19103.1
966.1745	2385.5035	19939.35	19050.15
966.3051	2386.9027	19856.85	18971.05
966.4357	2388.3011	19791.9	18901.95
966.5663	2389.6987	19758.85	18868.95
966.6968	2391.0957	19648.2	18760.6
966.8273	2392.492	19558.3	18671.85
966.9578	2393.8876	19451.35	18564.75
967.0882	2395.2824	19386.15	18497.25
967.2186	2396.6765	19331.1	18445.75
967.349	2398.07	19231.2	18345.15
967.4793	2399.4627	19212.4	18322.6
967.6097	2400.8547	19142.95	18255.1
967.7399	2402.246	19043.1	18149.95
967.8702	2403.6366	18960.45	18072.45
968.0004	2405.0265	18872.2	17984.75
968.1306	2406.4156	18822.75	17929.7
968.2607	2407.8041	18715.8	17822.45
968.3909	2409.1918	18655.4	17765.4
968.521	2410.5789	18537.2	17649.5
968.651	2411.9652	18478.9	17588.85
968.781	2413.3508	18450.4	17561.9
968.911	2414.7358	18362.85	17474
969.041	2416.12	18297.1	17413.2
969.1709	2417.5035	18239.75	17352.45
969.3008	2418.8863	18178.75	17290.65
969.4307	2420.2684	18150.5	17261.35
969.5606	2421.6497	18016.45	17127.1
969.6904	2423.0304	17922.15	17035.2
969.8201	2424.4104	17882.9	16995.8
969.9499	2425.7896	17838.05	16947.85
970.0796	2427.1682	17774.15	16887.25
970.2093	2428.546	17727.35	16838.4
970.3389	2429.9232	17680.35	16792.05
970.4685	2431.2996	17648.9	16761.15
970.5981	2432.6753	17594.2	16705.35
970.7277	2434.0503	17556.85	16669.8
970.8572	2435.4246	17476.65	16589.25
970.9867	2436.7982	17388	16497.9
971.1161	2438.1711	17354.35	16467.5
971.2456	2439.5433	17270.2	16382.55
971.375	2440.9148	17197.9	16305.05
971.5043	2442.2856	17143.95	16257.05
971.6336	2443.6557	17086.15	16199.05
971.7629	2445.025	17018.05	16129.7
971.8922	2446.3937	16983.6	16094.65
972.0214	2447.7617	16885.2	15997.15
972.1506	2449.1289	16901.3	16012.05
972.2798	2450.4955	16839.75	15949.45
972.4089	2451.8613	16745.35	15857.15
972.538	2453.2265	16737.95	15851.5
972.6671	2454.5909	16707.7	15819.25
972.7961	2455.9546	16665	15777.4
972.9251	2457.3177	16544.6	15658.6
973.0541	2458.68	16534.6	15644.1
973.1831	2460.0416	16506.65	15617.7
973.312	2461.4025	16475.65	15587.55
973.4408	2462.7627	16431	15532.8
973.5697	2464.1222	16368.7	15482.55
973.6985	2465.4811	16327.35	15437.5
973.8273	2466.8392	16250.9	15365.35
973.956	2468.1966	16199.55	15309
974.0847	2469.5533	16170.4	15279.8
974.2134	2470.9093	16093.25	15203.55
974.3421	2472.2645	16063.85	15173.65
974.4707	2473.6191	16013	15125.1
974.5993	2474.973	15927.8	15041.25
974.7278	2476.3262	15872.2	14982.8
974.8563	2477.6787	15819.4	14932.65
974.9848	2479.0305	15727.4	14839.4
975.1132	2480.3816	15683.65	14794.7
975.2417	2481.7319	15631.25	14743.7
975.37	2483.0816	15553.4	14664.35
975.4984	2484.4306	15558.1	14668.45
975.6267	2485.7789	15451.25	14563.85
975.755	2487.1264	15396.5	14509
975.8833	2488.4733	15343.4	14457.25
976.0115	2489.8195	15274.1	14378.9
976.1397	2491.165	15218.25	14328.1
976.2678	2492.5097	15180.45	14288.85
976.3959	2493.8538	15077.3	14190.15
976.524	2495.1972	15017.55	14130.2
976.6521	2496.5398	14943.25	14053.75
976.7801	2497.8818	14940.75	14050.8
976.9081	2499.2231	14837.45	13949.35
977.036	2500.5637	14826.45	13936.6
977.164	2501.9035	14761.95	13873.05
977.2918	2503.2427	14723.55	13830.65
977.4197	2504.5812	14678.55	13792.05
977.5475	2505.919	14625.9	13735.1
977.6753	2507.256	14600.1	13711.1
977.8031	2508.5924	14527.7	13641.25
977.9308	2509.9281	14490.95	13598.9
978.0585	2511.2631	14408.2	13519.25
978.1861	2512.5974	14381.3	13493.05
978.3137	2513.9309	14316.35	13427.15
978.4413	2515.2638	14284.35	13371.65
978.5689	2516.596	14255.85	13367.7
978.6964	2517.9275	14149.8	13262
978.8239	2519.2583	14115.35	13226
978.9513	2520.5884	14043.2	13154.3
979.0788	2521.9178	14026.55	13138.2
979.2062	2523.2465	13989.15	13101.85
979.3335	2524.5745	13911	13022.8
979.4608	2525.9018	13823.05	12934.6
979.5881	2527.2284	13833.45	12946.6
979.7154	2528.5543	13817.05	12930.8
979.8426	2529.8796	13733.7	12845.4
979.9698	2531.2041	13727.4	12840.5
980.0969	2532.5279	13690.95	12805.7
980.224	2533.851	13653.85	12765.15
980.3511	2535.1735	13631.5	12744
980.4781	2536.4952	13562.15	12675.65
980.6052	2537.8163	13535.45	12646.3
980.7321	2539.1366	13498.8	12610.25
980.8591	2540.4562	13466.15	12577.8
980.986	2541.7752	13423.6	12535.4
981.1129	2543.0935	13408.95	12521.35
981.2397	2544.411	13364.85	12474.35
981.3665	2545.7279	13326.75	12440.5
981.4933	2547.0441	13265.75	12379.6
981.62	2548.3596	13281.05	12390.8
981.7467	2549.6744	13227.95	12340.35
981.8734	2550.9885	13186.8	12291.8
982.0001	2552.3019	13141.2	12253.8
982.1267	2553.6146	13100.05	12212.15
982.2532	2554.9266	13070.15	12182.9
982.3798	2556.2379	13018.15	12128.05
982.5063	2557.5485	13003.65	12117.8
982.6327	2558.8585	12946	12051.55
982.7592	2560.1677	12922.95	12030.85
982.8856	2561.4762	12883.3	11992.95
983.0119	2562.7841	12878.25	11988.4
983.1383	2564.0913	12844	11959.15
983.2646	2565.3977	12823.75	11935.25
983.3908	2566.7035	12755.9	11867.75
983.517	2568.0086	12734.3	11845.05
983.6432	2569.313	12725.25	11836.55
983.7694	2570.6167	12683.9	11793.9
983.8955	2571.9197	12672.35	11786.1
984.0216	2573.222	12619.2	11727
984.1476	2574.5236	12593.8	11706.35
984.2737	2575.8246	12547.65	11657.7
984.3996	2577.1248	12541.05	11652.45
984.5256	2578.4244	12513.1	11625.55
984.6515	2579.7232	12491.85	11603.75
984.7774	2581.0214	12491.05	11580.55
984.9032	2582.3189	12431	11542.8
985.029	2583.6157	12405.95	11513.3
985.1548	2584.9118	12394.3	11506.65
985.2806	2586.2072	12337.55	11449.35
985.4063	2587.5019	12304.25	11420
985.5319	2588.7959	12268.5	11378.1
985.6576	2590.0893	12234.4	11343.45
985.7832	2591.3819	12205.8	11320.8
985.9087	2592.6739	12146.8	11260.15
986.0343	2593.9652	12095.8	11206.7
986.1597	2595.2557	12073.7	11187.25
986.2852	2596.5456	12003.95	11113.2
986.4106	2597.8348	11962.2	11075.8
986.536	2599.1234	11916.1	11029.6
986.6614	2600.4112	11873.95	10985.75
986.7867	2601.6983	11863.6	10971.9
986.912	2602.9848	11814.6	10925.8
987.0372	2604.2705	11781.35	10889
987.1624	2605.5556	11752.55	10863.15
987.2876	2606.84	11693.1	10804.6
987.4128	2608.1237	11616.3	10729.35
987.5379	2609.4067	11574.65	10686.35
987.6629	2610.689	11550	10654.75
987.788	2611.9707	11504.1	10610.55
987.913	2613.2516	11480.6	10588.6
988.0379	2614.5319	11405.55	10519.5
988.1629	2615.8115	11363.95	10475.85
988.2878	2617.0903	11309	10420.15
988.4126	2618.3685	11277.9	10388.85
988.5375	2619.6461	11228.5	10340.55
988.6622	2620.9229	11220.3	10332.9
988.787	2622.199	11169.6	10281.6
988.9117	2623.4745	11118.65	10231.45
989.0364	2624.7493	11093.2	10208.65
989.161	2626.0234	11065.4	10177.8
989.2857	2627.2968	11015.35	10127.45
989.4102	2628.5695	10964.3	10074.5
989.5348	2629.8415	10899.85	10012.5
989.6593	2631.1128	10883.5	9994.6
989.7837	2632.3835	10839.9	9951.65
989.9082	2633.6535	10778.6	9892.25
990.0326	2634.9228	10755.75	9868.6
990.1569	2636.1914	10727.7	9840.45
990.2812	2637.4593	10675.45	9782.95
990.4055	2638.7265	10644.75	9755.65
990.5298	2639.9931	10609.3	9719.75
990.654	2641.259	10595.75	9707.4
990.7782	2642.5242	10557.05	9668.5
990.9023	2643.7887	10544.4	9654.35
991.0264	2645.0525	10499.2	9610.15
991.1505	2646.3156	10452.65	9565.15
991.2745	2647.5781	10409.55	9521.6
991.3985	2648.8398	10364.45	9476.7
991.5225	2650.1009	10381.7	9455.25
991.6464	2651.3613	10310.05	9420.1
991.7703	2652.6211	10261.05	9373.9
991.8942	2653.8801	10230.8	9345.5
992.018	2655.1385	10219.55	9330.05
992.1418	2656.3961	10166.7	9276.65
992.2655	2657.6531	10165.65	9276.85
992.3892	2658.9094	10146.95	9257.85
992.5129	2660.1651	10084.45	9198.15
992.6366	2661.42	10057.45	9170.05
992.7602	2662.6743	10055.4	9167.05
992.8837	2663.9279	10031.5	9144.9
993.0073	2665.1808	10031.5	9143.1
993.1307	2666.433	9940.85	9051.9
993.2542	2667.6846	9933.55	9047.25
993.3776	2668.9354	9902.05	9011.2
993.501	2670.1856	9878.2	8989.25
993.6244	2671.4351	9847.45	8961.05
993.7477	2672.6839	9836.95	8948.75
993.8709	2673.9321	9811.1	8924.05
993.9942	2675.1795	9770.5	8881.4
994.1174	2676.4263	9713.5	8826.2
994.2405	2677.6724	9698.9	8813
994.3637	2678.9179	9656.8	8770.25
994.4868	2680.1626	9654.7	8766.6
994.6098	2681.4067	9639.5	8752.8
994.7328	2682.6501	9600.9	8712.85
994.8558	2683.8928	9572.55	8683.95
994.9788	2685.1348	9508.25	8621.45
995.1017	2686.3761	9463.9	8577.55
995.2245	2687.6168	9444.65	8559.1
995.3474	2688.8568	9421.9	8533.75
995.4702	2690.0961	9372.55	8485.9
995.5929	2691.3348	9359.25	8472.65
995.7156	2692.5727	9303.1	8415.8
995.8383	2693.81	9272.35	8387
995.961	2695.0466	9239.85	8354.75
996.0836	2696.2826	9238.7	8348.8
996.2062	2697.5178	9216.85	8326.3
996.3287	2698.7524	9198.4	8308.9
996.4512	2699.9863	9144.2	8255.5
996.5737	2701.2195	9118	8231.25
996.6961	2702.452	9094.25	8205.2
996.8185	2703.6839	9077.05	8188.25
996.9408	2704.9151	9038.4	8151.4
997.0631	2706.1456	8994.5	8106.15
997.1854	2707.3755	8963.3	8073.3
997.3077	2708.6046	8936.75	8047.25
997.4299	2709.8331	8912.65	8025.85
997.552	2711.0609	8902.35	8015.6
997.6742	2712.2881	8878.7	7991.75
997.7963	2713.5145	8860.9	7972.35
997.9183	2714.7403	8819.75	7933.45
998.0403	2715.9654	8787.8	7897.6
998.1623	2717.1899	8786.5	7885.35
998.2842	2718.4136	8762.1	7875.7
998.4062	2719.6367	8741.45	7855.15
998.528	2720.8591	8703.3	7809.8
998.6498	2722.0809	8663.4	7774.1
998.7716	2723.3019	8653.25	7762.75
998.8934	2724.5223	8615.6	7724.55
999.0151	2725.7421	8615.25	7727.45
999.1368	2726.9611	8581.1	7691.85
999.2584	2728.1795	8535.55	7644.05
999.38	2729.3972	8523	7634.95
999.5016	2730.6142	8495.2	7599.1
999.6231	2731.8306	8437.25	7547.45
999.7446	2733.0462	8396	7507.35
999.8661	2734.2612	8324.2	7434.3
999.9875	2735.4756	8301.45	7411.7
1000.1089	2736.6892	8251.65	7363.45
1000.2302	2737.9022	8209.65	7322.95
1000.3515	2739.1145	8157.15	7269.8
1000.4728	2740.3262	8132.3	7236.1
1000.594	2741.5372	8064.9	7176.5
1000.7152	2742.7475	8030.95	7144.65
1000.8363	2743.9571	8030.55	7140.8
1000.9575	2745.1661	8008.05	7117.9
1001.0785	2746.3744	7976.35	7089.25
1001.1996	2747.582	7948.1	7061.15
1001.3206	2748.7889	7884.3	6996.05
1001.4415	2749.9952	7858.65	6972.2
1001.5625	2751.2008	7825.85	6936.65
1001.6833	2752.4057	7811.85	6920.8
1001.8042	2753.61	7773.8	6886.95
1001.925	2754.8136	7751.9	6861.1
1002.0458	2756.0165	7709.9	6821.95
1002.1665	2757.2188	7686.55	6797.2
1002.2872	2758.4204	7675.25	6787.75
1002.4078	2759.6213	7629.7	6740.5
1002.5285	2760.8215	7635.25	6743.5
1002.649	2762.0211	7573.9	6686.25
1002.7696	2763.22	7574	6685.35
1002.8901	2764.4182	7550.5	6662.4
1003.0106	2765.6158	7525.55	6637.75
1003.131	2766.8127	7508.15	6619.9
1003.2514	2768.009	7481.7	6593.85
1003.3717	2769.2045	7448.85	6561.4
1003.492	2770.3994	7426.95	6536.4
1003.6123	2771.5936	7402.1	6513.7
1003.7325	2772.7872	7379.75	6494
1003.8527	2773.9801	7335.15	6445.3
1003.9729	2775.1723	7328.65	6425
1004.093	2776.3639	7284	6397
1004.2131	2777.5548	7264.35	6375.85
1004.3331	2778.745	7219.35	6331.65
1004.4531	2779.9346	7203.95	6317.5
1004.5731	2781.1235	7213.15	6323.6
1004.693	2782.3117	7174.85	6289.35
1004.8129	2783.4992	7140.2	6253.2
1004.9328	2784.6861	7130.15	6241.4
1005.0526	2785.8723	7108.45	6221.25
1005.1723	2787.0579	7105.6	6217.45
1005.2921	2788.2428	7062.35	6175.05
1005.4118	2789.427	7035.4	6147.45
1005.5314	2790.6106	7007.3	6119.05
1005.651	2791.7935	6995.3	6106.45
1005.7706	2792.9757	6996.2	6108.85
1005.8902	2794.1573	6957.55	6069.45
1006.0097	2795.3382	6940.3	6053
1006.1291	2796.5184	6945.6	6059.75
1006.2485	2797.698	6944.1	6055.5
1006.3679	2798.8769	6923.5	6037.05
1006.4873	2800.0551	6898.75	6011.15
1006.6066	2801.2327	6875.25	5987.85
1006.7258	2802.4096	6861.3	5973.6
1006.8451	2803.5859	6861.85	5974
1006.9642	2804.7615	6842.45	5954.2
1007.0834	2805.9364	6831.75	5945.45
1007.2025	2807.1106	6833.1	5945.6
1007.3216	2808.2842	6839.35	5951.3
1007.4406	2809.4572	6828.85	5941.45
1007.5596	2810.6294	6858.6	5971.3
1007.6785	2811.801	6891.95	6006.25
1007.7975	2812.972	6890.15	6004.05
1007.9163	2814.1423	6887.45	6000.9
1008.0352	2815.3119	6929.5	6041.65
1008.154	2816.4808	6957.3	6070.8
1008.2727	2817.6491	6981.85	6093.55
1008.3914	2818.8167	7017	6129.05
1008.5101	2819.9837	7023	6132.2
1008.6288	2821.15	7050.4	6163
1008.7474	2822.3157	7083	6197.65
1008.8659	2823.4807	7100	6211.7
1008.9844	2824.645	7138.05	6249.3
1009.1029	2825.8086	7157.7	6271.65
1009.2214	2826.9716	7209.95	6323.25
1009.3398	2828.134	7245.4	6358.2
1009.4581	2829.2957	7246.75	6358.6
1009.5764	2830.4567	7265.3	6377.8
1009.6947	2831.617	7269.5	6380.45
1009.813	2832.7767	7284.05	6396.8
1009.9312	2833.9358	7250.65	6363.75
1010.0493	2835.0941	7224.05	6335.45
1010.1675	2836.2519	7194.5	6308.1
1010.2855	2837.4089	7165	6278.5
1010.4036	2838.5653	7146.65	6260.3
1010.5216	2839.7211	7142.6	6259.25
1010.6396	2840.8761	7137	6250.3
1010.7575	2842.0306	7131	6244.95
1010.8754	2843.1843	7154.25	6265.15
1010.9932	2844.3374	7172.65	6286.75
1011.111	2845.4899	7186.5	6298.15
1011.2288	2846.6417	7246.95	6360.8
1011.3465	2847.7928	7300.3	6414.7
1011.4642	2848.9433	7318.35	6429.7
1011.5818	2850.0931	7397.75	6512.05
1011.6995	2851.2422	7437.35	6547.65
1011.817	2852.3907	7467.8	6579.05
1011.9345	2853.5385	7522.2	6634
1012.052	2854.6857	7546.85	6649.3
1012.1695	2855.8323	7568.35	6683.45
1012.2869	2856.9781	7587.25	6701.75
1012.4042	2858.1233	7599.35	6712.45
1012.5216	2859.2679	7621.25	6734.9
1012.6389	2860.4118	7658.3	6769.1
1012.7561	2861.555	7705.75	6815.15
1012.8733	2862.6976	7713.45	6825.3
1012.9905	2863.8395	7719.75	6832.45
1013.1076	2864.9808	7727.65	6840
1013.2247	2866.1214	7709.15	6823.25
1013.3417	2867.2614	7713.85	6828.3
1013.4587	2868.4007	7712.7	6825.05
1013.5757	2869.5393	7685.5	6797.6
1013.6926	2870.6773	7690.95	6800.6
1013.8095	2871.8146	7711.2	6822.1
1013.9263	2872.9513	7670.9	6780.05
1014.0431	2874.0874	7641.55	6754.6
1014.1599	2875.2227	7618.95	6730.4
1014.2766	2876.3574	7567.5	6679.4
1014.3933	2877.4915	7536.9	6651.2
1014.51	2878.6249	7499.45	6613.55
1014.6266	2879.7577	7456.9	6568.6
1014.7431	2880.8898	7426.5	6531.1
1014.8596	2882.0212	7390.35	6503.35
1014.9761	2883.152	7353.4	6466.65
1015.0925	2884.2821	7308	6422.7
1015.2089	2885.4116	7278.4	6392.1
1015.3253	2886.5405	7252.65	6366.6
1015.4416	2887.6686	7238.7	6348.2
1015.5579	2888.7962	7231.45	6344.7
1015.6741	2889.923	7230.2	6342.3
1015.7903	2891.0493	7224.55	6338.3
1015.9065	2892.1748	7190.9	6304.3
1016.0226	2893.2997	7191	6302.95
1016.1387	2894.424	7179.7	6293.85
1016.2547	2895.5476	7169.95	6283.85
1016.3707	2896.6706	7190.5	6304.65
1016.4866	2897.7929	7199.55	6313.25
1016.6025	2898.9145	7185.75	6297.45
1016.7184	2900.0355	7210.6	6322.7
1016.8342	2901.1559	7213.45	6323.9
1016.95	2902.2756	7217.2	6330.3
1017.0658	2903.3946	7234.15	6345.65
1017.1815	2904.513	7232.6	6342.8
1017.2971	2905.6308	7244.35	6359.4
1017.4127	2906.7479	7249.65	6362.4
1017.5283	2907.8643	7254.55	6365.3
1017.6439	2908.9801	7231.65	6346.55
1017.7594	2910.0953	7244.85	6358.35
1017.8748	2911.2098	7221.1	6329.3
1017.9902	2912.3236	7182.7	6286.2
1018.1056	2913.4368	7176.4	6286.25
1018.2209	2914.5494	7130.3	6242.65
1018.3362	2915.6613	7089.6	6196.95
1018.4515	2916.7725	7037.4	6148.5
1018.5667	2917.8831	7007.6	6119.7
1018.6819	2918.9931	6965.25	6074.65
1018.797	2920.1024	6926.7	6037.95
1018.9121	2921.211	6914.25	6026.7
1019.0271	2922.319	6877.45	5990.3
1019.1421	2923.4264	6847.4	5960.25
1019.2571	2924.5331	6814.7	5927.4
1019.372	2925.6391	6784	5898.05
1019.4869	2926.7445	6771.8	5885.65
1019.6017	2927.8493	6765.35	5877.4
1019.7165	2928.9534	6751.25	5862.25
1019.8313	2930.0569	6735.35	5846.15
1019.946	2931.1597	6723.45	5834.05
1020.0606	2932.2619	6702.45	5813.65
1020.1753	2933.3634	6682.8	5795.15
1020.2899	2934.4643	6673.9	5779.3
1020.4044	2935.5645	6666.6	5772.4
1020.5189	2936.6641	6602.95	5709.1
1020.6334	2937.763	6537.2	5651.95
1020.7478	2938.8613	6503.5	5617.2
1020.8622	2939.959	6431.7	5539.7
1020.9765	2941.056	6351.35	5463.85
1021.0908	2942.1523	6274.85	5387.5
1021.2051	2943.248	6191	5301.7
1021.3193	2944.3431	6080.55	5193.6
1021.4334	2945.4375	5981.3	5094.75
1021.5476	2946.5313	5865.35	4980.15
1021.6617	2947.6244	5749.5	4860.65
1021.7757	2948.7169	5649.85	4761.35
1021.8897	2949.8087	5569.6	4680.9
1022.0037	2950.8999	5456.9	4569.8
1022.1176	2951.9904	5364.6	4476.75
1022.2315	2953.0803	5284.6	4396.3
1022.3453	2954.1696	5218.15	4332.05
1022.4591	2955.2582	5156.7	4273.05
1022.5728	2956.3462	5087.45	4200.3
1022.6865	2957.4335	5042.8	4154.4
1022.8002	2958.5202	4984.65	4096.2
1022.9138	2959.6062	4970.05	4080.8
1023.0274	2960.6916	4944.05	4059.8
1023.141	2961.7764	4904.4	4015.65
1023.2545	2962.8605	4858.3	3970.3
1023.3679	2963.9439	4828.95	3943.85
1023.4813	2965.0267	4805.5	3918.6
1023.5947	2966.1089	4814.05	3903
1023.708	2967.1905	4767.65	3881.2
1023.8213	2968.2714	4740.2	3854.6
1023.9346	2969.3516	4738.4	3851.95
1024.0478	2970.4312	4726.4	3830.55
1024.1609	2971.5102	4700.55	3813.9
1024.274	2972.5885	4694.6	3808.1
1024.3871	2973.6662	4695.25	3803.35
1024.5002	2974.7432	4672.75	3786.4
1024.6132	2975.8196	4649.35	3762.3
1024.7261	2976.8954	4629.8	3744.75
1024.839	2977.9705	4623.25	3735.3
1024.9519	2979.045	4612.15	3726.9
1025.0647	2980.1188	4564.9	3679
1025.1775	2981.192	4544.35	3660.8
1025.2902	2982.2645	4497.25	3610.7
1025.4029	2983.3364	4469.2	3582.25
1025.5156	2984.4077	4437.9	3550.15
1025.6282	2985.4783	4406.7	3513.15
1025.7407	2986.5483	4356.75	3470.8
1025.8532	2987.6177	4332	3445.7
1025.9657	2988.6864	4281.9	3395.4
1026.0782	2989.7545	4239.4	3351.55
1026.1906	2990.8219	4197.05	3310.6
1026.3029	2991.8887	4156	3267.65
1026.4152	2992.9548	4114.75	3227.6
1026.5275	2994.0204	4084.8	3198.2
1026.6397	2995.0852	4035.6	3150.9
1026.7519	2996.1495	4015.4	3126.95
1026.864	2997.2131	3961.6	3073.1
1026.9761	2998.276	3943	3056.25
1027.0882	2999.3383	3926.6	3039.15
1027.2002	3000.4	3896.35	3007.8
1027.3122	3001.4611	3860.65	2973.95
1027.4241	3002.5215	3822.3	2935.2
1027.536	3003.5812	3820.75	2933.1
1027.6478	3004.6404	3797.95	2910.15
1027.7596	3005.6989	3765.95	2878.25
1027.8714	3006.7567	3745.6	2858.15
1027.9831	3007.8139	3737.25	2829.45
1028.0947	3008.8705	3712.2	2824.25
1028.2064	3009.9264	3716.4	2827.35
1028.3179	3010.9818	3696.9	2810.15
1028.4295	3012.0364	3670.5	2781.95
1028.541	3013.0905	3649.8	2764.1
1028.6524	3014.1439	3645.55	2758.1
1028.7638	3015.1966	3631.2	2747.7
1028.8752	3016.2487	3624.65	2738.85
1028.9865	3017.3002	3616.75	2724.75
1029.0978	3018.3511	3596.25	2710.15
1029.209	3019.4013	3593	2704.45
1029.3202	3020.4509	3582.25	2697.7
1029.4314	3021.4998	3565.65	2678.5
1029.5425	3022.5481	3562.55	2675.45
1029.6535	3023.5958	3561.6	2674.35
1029.7645	3024.6428	3541.3	2653.45
1029.8755	3025.6892	3524.25	2637.25
1029.9864	3026.735	3514.95	2628.95
1030.0973	3027.7802	3503.7	2617.65
1030.2082	3028.8247	3495.9	2609.65
1030.319	3029.8685	3491.05	2603.75
1030.4297	3030.9118	3477.1	2590.6
1030.5404	3031.9544	3481.35	2595.5
1030.6511	3032.9963	3459.5	2573.05
1030.7617	3034.0376	3452.15	2565.45
1030.8723	3035.0783	3445.05	2554.65
1030.9829	3036.1184	3442.9	2553.6
1031.0934	3037.1578	3434.95	2548.45
1031.2038	3038.1966	3443.6	2556.05
1031.3142	3039.2348	3421.75	2536.9
1031.4246	3040.2723	3413.85	2517.25
1031.5349	3041.3092	3392.9	2507.35
1031.6452	3042.3455	3384.4	2497.95
1031.7554	3043.3811	3382.95	2497.3
1031.8656	3044.4161	3355.6	2468
1031.9758	3045.4505	3349.85	2464.75
1032.0859	3046.4842	3351.25	2464.5
1032.1959	3047.5173	3333.4	2447.1
1032.3059	3048.5498	3311.35	2423.9
1032.4159	3049.5816	3289.85	2402.75
1032.5258	3050.6128	3305.3	2417.15
1032.6357	3051.6434	3278.7	2388.9
1032.7455	3052.6734	3276.8	2388.05
1032.8553	3053.7027	3258.25	2371.85
1032.9651	3054.7314	3251.45	2366.05
1033.0748	3055.7594	3231.55	2346.4
1033.1845	3056.7868	3219.25	2332.65
1033.2941	3057.8136	3210.55	2323.6
1033.4037	3058.8398	3176.25	2290.4
1033.5132	3059.8653	3180.6	2292.6
1033.6227	3060.8902	3162.2	2277.05
1033.7321	3061.9145	3147.05	2259.7
1033.8415	3062.9381	3142.6	2256.9
1033.9509	3063.9612	3145.75	2241.9
1034.0602	3064.9835	3105.9	2218.9
1034.1694	3066.0053	3099.6	2212.15
1034.2787	3067.0264	3093.1	2205.6
1034.3878	3068.0469	3092	2205.55
1034.497	3069.0668	3068	2178.35
1034.6061	3070.086	3054.85	2168.75
1034.7151	3071.1046	3050.2	2162.35
1034.8241	3072.1226	3021.25	2134.45
1034.9331	3073.1399	3010.4	2123
1035.042	3074.1567	3004.05	2117
1035.1508	3075.1727	2970.5	2081.15
1035.2597	3076.1882	2965.45	2079.2
1035.3684	3077.203	2956.15	2069.9
1035.4772	3078.2173	2940.55	2052.3
1035.5859	3079.2308	2934.25	2045.85
1035.6945	3080.2438	2917.5	2028.7
1035.8031	3081.2561	2906.05	2019.7
1035.9117	3082.2678	2891.75	2006.7
1036.0202	3083.2789	2872	1984.8
1036.1286	3084.2893	2850.55	1963.9
1036.2371	3085.2991	2833.6	1946.95
1036.3454	3086.3083	2841.95	1949.6
1036.4538	3087.3169	2828.5	1940.9
1036.562	3088.3248	2810.25	1921.5
1036.6703	3089.3321	2792.35	1905.2
1036.7785	3090.3388	2781.7	1894.95
1036.8866	3091.3449	2782.65	1896.3
1036.9948	3092.3503	2772.25	1885.2
1037.1028	3093.3551	2760.55	1875.65
1037.2108	3094.3593	2737.8	1852.3
1037.3188	3095.3629	2739.45	1853.75
1037.4267	3096.3658	2729.15	1841.55
1037.5346	3097.3681	2713.75	1826.45
1037.6425	3098.3698	2702.85	1815.4
1037.7503	3099.3708	2689.45	1795.6
1037.858	3100.3713	2675.55	1788.35
1037.9657	3101.3711	2673.65	1787.75
1038.0734	3102.3702	2785.5	1758.15
1038.181	3103.3688	2677.25	1789.4
1038.2886	3104.3667	2640	1754.2
1038.3961	3105.364	2626	1740.75
1038.5036	3106.3607	2610.95	1721.65
1038.611	3107.3568	2610.4	1723.6
1038.7184	3108.3522	2593.15	1707.05
1038.8257	3109.347	2585.85	1699.7
1038.933	3110.3412	2582.05	1690.75
1039.0403	3111.3348	2566.5	1680.55
1039.1475	3112.3277	2558.15	1671.5
1039.2547	3113.32	2542.25	1657.35
1039.3618	3114.3117	2536.35	1648.65
1039.4689	3115.3028	2530.8	1642.25
1039.5759	3116.2932	2505.85	1618.1
1039.6829	3117.2831	2506.1	1615.15
1039.7898	3118.2723	2493.8	1607.35
1039.8967	3119.2608	2480.2	1594.75
1040.0035	3120.2488	2475.95	1589.9
1040.1103	3121.2361	2461.9	1575.5
1040.2171	3122.2229	2465.95	1578.5
1040.3238	3123.209	2450.15	1564.3
1040.4305	3124.1944	2443.05	1557.85
1040.5371	3125.1793	2439.6	1551.1
1040.6437	3126.1635	2430.25	1546.05
1040.7502	3127.1471	2411.2	1526.45
1040.8567	3128.1301	2413.35	1528
1040.9631	3129.1125	2405.35	1518.25
1041.0695	3130.0942	2403.8	1515.65
1041.1759	3131.0753	2401.4	1505.7
1041.2822	3132.0558	2389.6	1500.05
1041.3884	3133.0357	2378.3	1492.1
1041.4946	3134.015	2371.35	1483.75
1041.6008	3134.9936	2364	1476.1
1041.7069	3135.9716	2373.4	1465.8
1041.813	3136.949	2353.5	1466.95
1041.919	3137.9258	2350.75	1457.6
1042.025	3138.902	2349.4	1457.3
1042.1309	3139.8775	2331.55	1444.9
1042.2368	3140.8524	2322.7	1435.25
1042.3427	3141.8267	2324.35	1437.7
1042.4485	3142.8004	2312.55	1426.75
1042.5542	3143.7735	2311.9	1421.15
1042.6599	3144.7459	2303.7	1413.45
1042.7656	3145.7178	2300.65	1414.1
1042.8712	3146.689	2285.8	1397.8
1042.9768	3147.6596	2285.6	1397.55
1043.0823	3148.6295	2268.7	1382.8
1043.1878	3149.5989	2262.6	1377.15
1043.2932	3150.5676	2259.45	1373.15
1043.3986	3151.5357	2238.75	1354.85
1043.5039	3152.5032	2244.05	1358.5
1043.6092	3153.4701	2230.1	1343.8
1043.7145	3154.4364	2223.5	1335.05
1043.8197	3155.402	2217.75	1331.8
1043.9248	3156.367	2208	1320.7
1044.03	3157.3315	2236.85	1306.7
1044.135	3158.2952	2200.85	1311.85
1044.24	3159.2584	2178.75	1291.1
1044.345	3160.221	2170.65	1281.6
1044.4499	3161.1829	2176	1291.95
1044.5548	3162.1442	2156.35	1269.7
1044.6596	3163.105	2154.3	1268.1
1044.7644	3164.065	2140.15	1252.3
1044.8692	3165.0245	2135.45	1246.4
1044.9739	3165.9834	2119.55	1231.6
1045.0785	3166.9416	2125.75	1240.05
1045.1831	3167.8993	2112.6	1225.3
1045.2877	3168.8563	2107.3	1219
1045.3922	3169.8127	2103.55	1215.9
1045.4966	3170.7684	2101.1	1215.65
1045.6011	3171.7236	2092.15	1205.85
1045.7054	3172.6782	2086.65	1199.2
1045.8098	3173.6321	2075.05	1189.1
1045.914	3174.5854	2077.55	1186.6
1046.0183	3175.5381	2069	1181.55
1046.1224	3176.4902	2052.7	1166.1
1046.2266	3177.4417	2055.1	1169.35
1046.3307	3178.3926	2052.45	1166.7
1046.4347	3179.3428	2039.45	1152.1
1046.5387	3180.2924	2034.3	1147.9
1046.6427	3181.2415	2029.7	1143.25
1046.7466	3182.1899	2021	1133.85
1046.8504	3183.1377	2018.85	1133.1
1046.9542	3184.0848	2013.8	1124.7
1047.058	3185.0314	2001.05	1114.25
1047.1617	3185.9773	1985.4	1098.45
1047.2654	3186.9227	1981.5	1095.8
1047.369	3187.8674	1987.85	1101.05
1047.4726	3188.8115	1980.25	1089.7
1047.5761	3189.755	1970.1	1083
1047.6796	3190.6979	1958.3	1072.45
1047.783	3191.6402	1968.3	1083.5
1047.8864	3192.5818	1959.15	1075.35
1047.9898	3193.5229	1976.15	1066.7
1048.0931	3194.4633	1946.05	1059.35
1048.1963	3195.4031	1939.25	1051.95
1048.2995	3196.3423	1932.3	1047.6
1048.4027	3197.2809	1926.9	1039.4
1048.5058	3198.2189	1925.5	1037.95
1048.6089	3199.1563	1927.35	1034.35
1048.7119	3200.0931	1916.7	1030.8
1048.8148	3201.0292	1912.35	1028.15
1048.9178	3201.9648	1914.95	1029.4
1049.0206	3202.8997	1901.25	1011.3
1049.1235	3203.834	1894.5	1007.7
1049.2262	3204.7677	1890.35	1003.75
1049.329	3205.7008	1888.25	999.65
1049.4317	3206.6333	1881.8	997.05
1049.5343	3207.5652	1877.85	988.85
1049.6369	3208.4964	1874.75	989.05
1049.7394	3209.4271	1855.45	968.75
1049.8419	3210.3571	1860.7	975.3
1049.9444	3211.2865	1861.05	975.55
1050.0468	3212.2154	1852.35	966.55
1050.1491	3213.1436	1845.55	956.85
1050.2514	3214.0712	1851.3	958.2
1050.3537	3214.9982	1833.7	946.9
1050.4559	3215.9246	1830.35	942.85
1050.5581	3216.8503	1828.2	942.95
1050.6602	3217.7755	1821.4	935.35
1050.7623	3218.7001	1817.75	932.4
1050.8643	3219.624	1812.4	925.1
1050.9663	3220.5473	1807.75	920.8
1051.0682	3221.4701	1801.5	914.5
1051.1701	3222.3922	1807.35	919.5
1051.2719	3223.3137	1792	906.35
1051.3737	3224.2346	1784.7	897.6
1051.4754	3225.1549	1785.35	898.9
1051.5771	3226.0746	1783.15	897.45
1051.6788	3226.9937	1776.6	889.65
1051.7804	3227.9121	1770	886.05
1051.8819	3228.83	1767.75	883
1051.9834	3229.7473	1761	875.35
1052.0849	3230.6639	1745.25	858.2
1052.1863	3231.5799	1755.25	868.05
1052.2876	3232.4954	1747.55	859.3
1052.3889	3233.4102	1741.3	856.8
1052.4902	3234.3244	1736.25	849.5
1052.5914	3235.238	1726.45	841.4
1052.6926	3236.151	1730.3	820.65
1052.7937	3237.0634	1717.3	831.7
1052.8948	3237.9752	1714.3	829.75
1052.9958	3238.8864	1710.75	823.65
1053.0968	3239.797	1699.15	813.05
1053.1977	3240.7069	1694.85	808.15
1053.2986	3241.6163	1693	804.65
1053.3994	3242.5251	1687.55	801.4
1053.5002	3243.4332	1679.2	794.7
1053.6009	3244.3408	1677.15	788.9
1053.7016	3245.2477	1681.3	795.35
1053.8022	3246.154	1674.45	785.65
1053.9028	3247.0598	1668.05	778.45
1054.0034	3247.9649	1665.1	782
1054.1039	3248.8694	1649.3	762.2
1054.2043	3249.7733	1655.6	769.9
1054.3047	3250.6766	1640.5	753.45
1054.4051	3251.5793	1648.4	761.2
1054.5054	3252.4814	1640.55	754.55
1054.6056	3253.3829	1637.2	750.5
1054.7058	3254.2838	1622.65	737.5
1054.806	3255.1841	1622.6	736.4
1054.9061	3256.0838	1617.4	731.3
1055.0061	3256.9829	1606.6	721.75
1055.1062	3257.8814	1601.1	712.05
1055.2061	3258.7792	1594.25	706.2
1055.306	3259.6765	1590.35	704.2
1055.4059	3260.5731	1586.75	699.15
1055.5057	3261.4692	1572	685.45
1055.6055	3262.3647	1565.65	677.9
1055.7052	3263.2595	1562.15	676.5
1055.8049	3264.1538	1540.55	653.9
1055.9045	3265.0474	1530.55	644.15
1056.0041	3265.9404	1525	640.7
1056.1036	3266.8329	1521.9	636.1
1056.2031	3267.7247	1511.2	614.55
1056.3025	3268.616	1495.7	610
1056.4019	3269.5066	1475.7	590
1056.5013	3270.3966	1467.1	577.7
1056.6005	3271.286	1442.35	557.3
