Software Version:	3.9.2.0
Unit SN:	10000200
Spectrometer SN:	6960
Date:	3/6/2024 9:50:23 AM
Data Line Index:	25
Spectral Points:	2048
Integration time (ms):	125
Averages:	20
Delay (ms):	30
Sequence Number:	1
Processing:	dark subtract
Laser Power (mW):	305
Laser Current (mA):	823
Laser Diode Temp (C):	25.1
Laser Case Temp (C):	24.3
System Temp (C):	24.1
Spectrometer Temp (C):	21.8
CCD Temp (C):	-0.008
Secondary Temp (C):	20.004
Heatsink Temp (C):	18.255
CCDPCB Temp (C):	30.793
SecondaryPCB Temp (C):	25.991

Wavelength	RamanShift	Raw Counts	Dark Subtracted
787.061	30.1047	445.2	36.35
787.2016	32.3739	445.55	38.55
787.3422	34.6426	451.05	44.65
787.4828	36.9109	452.5	45.6
787.6235	39.1787	457.25	45.05
787.7642	41.4461	466	48.7
787.9049	43.7131	473.9	54.1
788.0456	45.9796	479.8	56.8
788.1863	48.2456	487.65	60.2
788.3271	50.5112	495.95	65.8
788.4679	52.7764	499.05	66
788.6087	55.0411	508.25	71.35
788.7496	57.3054	518.65	78.05
788.8904	59.5692	521.35	77.3
789.0313	61.8326	530.7	84.4
789.1722	64.0955	538.8	87.85
789.3132	66.3579	552.85	97.05
789.4541	68.6199	564.45	106.9
789.5951	70.8815	591.05	127.75
789.7361	73.1426	632.35	164.75
789.8771	75.4032	745.8	274.7
790.0181	77.6634	1001.95	529
790.1592	79.9231	1628.9	1151.85
790.3003	82.1824	2946.75	2462.3
790.4414	84.4412	5260.8	4763.65
790.5825	86.6995	8380	7868.45
790.7237	88.9574	11489.45	10967.75
790.8648	91.2148	13797.55	13268.75
791.006	93.4717	15078	14542.2
791.1472	95.7282	15616.85	15079.85
791.2885	97.9842	15927.8	15386.7
791.4297	100.2398	16027.65	15483.8
791.571	102.4949	16081.05	15532.9
791.7123	104.7495	16084.4	15534.8
791.8536	107.0036	16035.5	15482.25
791.9949	109.2573	16046.7	15494.1
792.1363	111.5105	16063.95	15512.2
792.2777	113.7632	16043.6	15489.55
792.4191	116.0154	16067.5	15503.45
792.5605	118.2672	16114.9	15554.9
792.7019	120.5185	16104.35	15540.7
792.8434	122.7693	16135.55	15571.25
792.9849	125.0197	16175.25	15605
793.1264	127.2696	16143.3	15570.55
793.2679	129.519	16226.95	15649.7
793.4094	131.7679	16237.55	15656.9
793.551	134.0163	16266.05	15684.2
793.6926	136.2642	16320.9	15735.9
793.8342	138.5117	16321.6	15735.1
793.9758	140.7587	16327.05	15738.05
794.1175	143.0052	16359.5	15768.25
794.2591	145.2512	16323.4	15730.75
794.4008	147.4967	16295.3	15701.95
794.5425	149.7417	16290.6	15691.9
794.6842	151.9863	16289.7	15688.3
794.826	154.2304	16331.75	15724.6
794.9677	156.4739	16289.2	15679.25
795.1095	158.717	16326.4	15719.65
795.2513	160.9596	16326.6	15711.3
795.3931	163.2017	16339.95	15724.85
795.535	165.4433	16343.6	15724.9
795.6768	167.6844	16351.6	15731.55
795.8187	169.925	16359.9	15737
795.9606	172.1651	16306.2	15681.1
796.1025	174.4047	16314.4	15682.25
796.2445	176.6439	16309.2	15677.1
796.3864	178.8825	16293.35	15657.3
796.5284	181.1206	16342.45	15702.7
796.6704	183.3582	16338	15694.05
796.8124	185.5954	16352.35	15707.3
796.9544	187.832	16364.65	15715.9
797.0965	190.0681	16382.7	15729.95
797.2386	192.3037	16430.55	15774
797.3806	194.5388	16452.8	15791.85
797.5228	196.7734	16488.55	15829.55
797.6649	199.0075	16528.3	15866.4
797.807	201.2411	16586.6	15920.7
797.9492	203.4742	16632.75	15968.75
798.0914	205.7068	16725.55	16056.7
798.2336	207.9389	16698.55	16027.4
798.3758	210.1704	16753	16086.25
798.518	212.4015	16720.55	16067.65
798.6603	214.632	16748.1	16099
798.8025	216.862	16772.15	16126.65
798.9448	219.0915	16800.55	16150.35
799.0871	221.3205	16828.75	16178.6
799.2294	223.549	16837.1	16192
799.3718	225.777	16868.6	16222.55
799.5141	228.0044	16908.2	16253.75
799.6565	230.2314	16948.35	16292.65
799.7989	232.4578	16942.5	16280.95
799.9413	234.6837	16963.3	16294.75
800.0837	236.909	17011.6	16343.75
800.2262	239.1339	17021.4	16327.75
800.3687	241.3582	17036.65	16356.65
800.5111	243.582	17036.15	16323.6
800.6536	245.8053	17028.95	16330.45
800.7961	248.0281	17035.35	16344.9
800.9387	250.2503	17055.35	16355.4
801.0812	252.472	17071	16372.35
801.2238	254.6932	17102.1	16404.75
801.3664	256.9139	17070.1	16371
801.509	259.134	17102.45	16397.85
801.6516	261.3536	17135.05	16432.9
801.7942	263.5727	17158.05	16452.65
801.9369	265.7912	17121.95	16417.3
802.0795	268.0092	17188.95	16485.7
802.2222	270.2267	17239	16530.75
802.3649	272.4436	17278.25	16574.75
802.5076	274.6601	17255.3	16536.2
802.6504	276.8759	17233.6	16521
802.7931	279.0913	17276.8	16563.85
802.9359	281.3061	17264.3	16548.3
803.0787	283.5204	17308.4	16587.55
803.2215	285.7341	17358.1	16637.15
803.3643	287.9473	17372.55	16640.3
803.5071	290.16	17368.1	16644.25
803.6499	292.3721	17348.6	16626.4
803.7928	294.5837	17319.3	16600.35
803.9357	296.7947	17323.05	16600.9
804.0786	299.0052	17304	16583.35
804.2215	301.2152	17250.15	16526.3
804.3644	303.4246	17262	16542.75
804.5074	305.6334	17254.2	16532.75
804.6503	307.8418	17240.7	16515.05
804.7933	310.0495	17226.1	16498.75
804.9363	312.2568	17197.45	16469.8
805.0793	314.4635	17123.05	16394.1
805.2223	316.6696	17114.95	16380.1
805.3653	318.8752	17025	16281.45
805.5084	321.0802	17003.4	16267.9
805.6514	323.2847	17014.3	16273.45
805.7945	325.4887	17032.35	16293.55
805.9376	327.692	16985.65	16247.3
806.0807	329.8949	17032.7	16293
806.2238	332.0972	17068.05	16326.7
806.367	334.2989	17096.55	16352.8
806.5101	336.5001	17070.95	16326.2
806.6533	338.7007	17050.7	16305.85
806.7965	340.9008	17078	16332.9
806.9397	343.1003	17016.6	16268.3
807.0829	345.2992	17034.95	16283.2
807.2261	347.4976	17002	16248.35
807.3693	349.6955	16986.35	16233.7
807.5126	351.8927	17010.15	16255.25
807.6559	354.0895	16948.25	16179.05
807.7991	356.2856	16995.35	16237.3
807.9424	358.4812	16939.3	16181
808.0857	360.6763	16958.7	16198.25
808.2291	362.8707	16931.75	16169.75
808.3724	365.0646	16964.8	16199
808.5158	367.258	16916.75	16150.8
808.6591	369.4508	16890.75	16118.95
808.8025	371.643	16916	16147.75
808.9459	373.8346	16876.4	16105.2
809.0893	376.0257	16890.1	16111.1
809.2327	378.2162	16836.35	16060.8
809.3762	380.4062	16882.95	16110.1
809.5196	382.5956	16817.55	16047.1
809.6631	384.7844	16791.85	16024.45
809.8066	386.9726	16738.55	15975.9
809.9501	389.1603	16666.8	15903.1
810.0936	391.3474	16704.3	15906.25
810.2371	393.5339	16686	15917.2
810.3806	395.7199	16644.4	15878.9
810.5241	397.9052	16646.1	15880.55
810.6677	400.09	16622.9	15852.9
810.8113	402.2743	16650.6	15881.6
810.9548	404.4579	16622.55	15850.7
811.0984	406.641	16676.2	15904.5
811.2421	408.8235	16693.3	15920.35
811.3857	411.0054	16737.8	15958.7
811.5293	413.1868	16828.65	16051.85
811.673	415.3675	16849.25	16066.85
811.8166	417.5477	16875.4	16090.45
811.9603	419.7273	16773.8	15985.45
812.104	421.9064	16659.8	15864.65
812.2477	424.0848	16581.35	15794.6
812.3914	426.2627	16550.5	15761.45
812.5351	428.4399	16530	15742.3
812.6788	430.6166	16429.45	15635.15
812.8226	432.7928	16382.55	15587.55
812.9663	434.9683	16316.5	15526.4
813.1101	437.1432	16285.2	15487.9
813.2539	439.3176	16243.7	15449.35
813.3977	441.4914	16190.3	15398.15
813.5415	443.6645	16177	15382.25
813.6853	445.8371	16102.55	15307.6
813.8291	448.0091	16046.65	15249.8
813.973	450.1806	15993.75	15198.1
814.1168	452.3514	15948.15	15152
814.2607	454.5216	15968.35	15161.95
814.4046	456.6913	15860.8	15059.9
814.5485	458.8603	15871.4	15074.15
814.6924	461.0288	15893.65	15096.45
814.8363	463.1967	15851.7	15056.95
814.9802	465.3639	15893.2	15093.1
815.1241	467.5306	15849.55	15046.85
815.2681	469.6967	15803.3	15003.8
815.412	471.8622	15723.15	14921.55
815.556	474.0271	15740.45	14942.3
815.7	476.1914	15720.35	14916.35
815.844	478.3551	15719.15	14915.8
815.988	480.5182	15716.95	14914.3
816.132	482.6807	15716.5	14914.05
816.276	484.8426	15734.75	14934.7
816.4201	487.0039	15779.7	14978.8
816.5641	489.1647	15773.65	14970.5
816.7082	491.3248	15833.8	15027.1
816.8522	493.4843	15822.55	15017.8
816.9963	495.6432	15799.55	14992.05
817.1404	497.8015	15748.4	14935.3
817.2845	499.9592	15738.45	14928.7
817.4286	502.1163	15706	14895.05
817.5727	504.2728	15663.1	14851.5
817.7168	506.4287	15691.1	14882.75
817.861	508.5839	15643.6	14837.65
818.0051	510.7386	15641.8	14830.9
818.1493	512.8927	15638.4	14821.9
818.2935	515.0461	15650.45	14836.7
818.4377	517.199	15603.95	14788.65
818.5818	519.3512	15622	14805.45
818.726	521.5029	15620.7	14799
818.8703	523.6539	15654.25	14838.7
819.0145	525.8043	15642.1	14825.3
819.1587	527.9541	15584.6	14765.25
819.303	530.1033	15524.3	14704.35
819.4472	532.2519	15507.95	14688.85
819.5915	534.3999	15487.4	14664.15
819.7357	536.5472	15456.5	14637.3
819.88	538.694	15463.85	14644.65
820.0243	540.8401	15456.75	14635.45
820.1686	542.9856	15467.3	14643.55
820.3129	545.1305	15447.95	14623.1
820.4572	547.2748	15473.65	14644.4
820.6016	549.4185	15436.35	14608.4
820.7459	551.5615	15426.45	14600.2
820.8902	553.704	15435.05	14608.5
821.0346	555.8458	15392.35	14567.15
821.1789	557.987	15406.65	14584.7
821.3233	560.1276	15410.15	14584.5
821.4677	562.2675	15417.5	14592.9
821.6121	564.4069	15403.3	14577.85
821.7565	566.5456	15398.65	14572.5
821.9009	568.6837	15402.5	14576.05
822.0453	570.8212	15335.15	14511.1
822.1897	572.958	15278	14449.75
822.3342	575.0942	15264.4	14441.05
822.4786	577.2299	15190	14365.6
822.6231	579.3648	15108.25	14283.45
822.7675	581.4992	15056.05	14231.25
822.912	583.6329	15031.95	14207.55
823.0565	585.766	14998.1	14174.4
823.201	587.8985	15000.3	14176.45
823.3454	590.0304	14974.2	14132.2
823.4899	592.1616	14973.7	14141
823.6345	594.2922	14922.65	14090.6
823.779	596.4222	14865.85	14029.45
823.9235	598.5515	14819.85	13984.3
824.068	600.6802	14759.9	13928.6
824.2126	602.8083	14692.75	13859.4
824.3571	604.9358	14717.5	13883.3
824.5017	607.0626	14653.3	13820.3
824.6462	609.1888	14645.2	13806.8
824.7908	611.3144	14644.1	13805.5
824.9354	613.4393	14587	13750.5
825.08	615.5636	14639.35	13800.95
825.2246	617.6873	14620	13783.9
825.3692	619.8103	14625.9	13787.1
825.5138	621.9327	14635.85	13795.7
825.6584	624.0544	14620	13780.85
825.803	626.1756	14533	13693
825.9477	628.2961	14526.15	13687.25
826.0923	630.4159	14512.5	13672.95
826.237	632.5351	14511	13668.5
826.3816	634.6537	14462.3	13619.35
826.5263	636.7716	14473.35	13629.95
826.6709	638.8889	14440.7	13597.25
826.8156	641.0056	14447.55	13604.45
826.9603	643.1216	14436.7	13590.45
827.105	645.237	14453.55	13608.05
827.2497	647.3518	14365.2	13521.95
827.3944	649.4659	14386.3	13543.4
827.5391	651.5793	14339.2	13497.45
827.6838	653.6922	14303.3	13463.65
827.8285	655.8043	14289.85	13451
827.9733	657.9159	14305.7	13462.4
828.118	660.0268	14261.25	13416.95
828.2627	662.137	14214.75	13367.55
828.4075	664.2466	14233.7	13383.65
828.5522	666.3556	14188.55	13340.6
828.697	668.4639	14166.05	13317.6
828.8418	670.5716	14181	13335.85
828.9865	672.6786	14174.85	13326.55
829.1313	674.785	14097.3	13246.35
829.2761	676.8907	14066.15	13217
829.4209	678.9958	14079.3	13230.75
829.5657	681.1002	14014.45	13164.4
829.7105	683.204	14007.75	13152.95
829.8553	685.3072	13953.1	13101.35
830.0001	687.4097	13961.5	13112.7
830.1449	689.5115	13942.5	13088.5
830.2898	691.6127	13955.2	13106.75
830.4346	693.7132	13943.2	13090.9
830.5794	695.8131	13931.75	13070.9
830.7243	697.9123	13890.3	13036.85
830.8691	700.0109	13894.05	13039.25
831.014	702.1089	13882.15	13029.15
831.1588	704.2061	13879.15	13024.85
831.3037	706.3028	13895.05	13038.5
831.4486	708.3987	13876.4	13022.95
831.5935	710.4941	13844.05	12989.8
831.7383	712.5887	13845.05	12991.8
831.8832	714.6827	13834.45	12976.85
832.0281	716.7761	13805.75	12951.25
832.173	718.8688	13814	12958.1
832.3179	720.9608	13809.25	12945.4
832.4628	723.0522	13784.95	12923.9
832.6077	725.1429	13751.45	12893.65
832.7527	727.233	13782.65	12924.35
832.8976	729.3224	13797.45	12940.75
833.0425	731.4112	13778.1	12920.35
833.1874	733.4993	13747.4	12887.6
833.3324	735.5867	13716.45	12856.2
833.4773	737.6735	13670.05	12811.25
833.6222	739.7596	13660.5	12800
833.7672	741.845	13602.05	12742.4
833.9122	743.9298	13587.85	12726.45
834.0571	746.014	13576.55	12719
834.2021	748.0974	13573.5	12710.75
834.347	750.1802	13499.85	12636.75
834.492	752.2624	13467	12606.75
834.637	754.3439	13404.4	12540.5
834.782	756.4247	13371.8	12502.95
834.9269	758.5048	13338.55	12477.2
835.0719	760.5843	13306.1	12443.75
835.2169	762.6631	13304.65	12440.65
835.3619	764.7413	13281.35	12420.05
835.5069	766.8188	13297.3	12433.4
835.6519	768.8956	13266.2	12400.3
835.7969	770.9718	13322.8	12458.9
835.9419	773.0473	13266.3	12402.9
836.0869	775.1221	13241.4	12380.6
836.232	777.1962	13209.55	12345.55
836.377	779.2697	13187.2	12320.15
836.522	781.3426	13208.2	12322.25
836.667	783.4147	13199.85	12334.1
836.8121	785.4862	13174.85	12312
836.9571	787.557	13144.4	12280.35
837.1021	789.6271	13061.1	12194.3
837.2472	791.6966	12973.9	12107.85
837.3922	793.7654	12897.2	12030.8
837.5373	795.8335	12891.25	12025.2
837.6823	797.901	12860.65	11995.75
837.8274	799.9678	12812.55	11946
837.9724	802.0339	12779.45	11915.1
838.1175	804.0993	12786.6	11908.9
838.2626	806.1641	12734.55	11867.75
838.4076	808.2282	12716.55	11847.15
838.5527	810.2916	12714.4	11846.1
838.6978	812.3544	12701.1	11835.2
838.8428	814.4164	12627	11761.4
838.9879	816.4778	12679.25	11809.15
839.133	818.5385	12619.15	11753.7
839.2781	820.5986	12637.55	11771.1
839.4232	822.658	12649.8	11778.4
839.5682	824.7166	12617.8	11748.45
839.7133	826.7747	12694.9	11827.75
839.8584	828.832	12681.05	11811.45
840.0035	830.8886	12641.55	11770.4
840.1486	832.9446	12655	11784.7
840.2937	834.9999	12626.15	11759.55
840.4388	837.0545	12568.5	11692.1
840.5839	839.1085	12537.4	11668.5
840.729	841.1618	12516.45	11642.65
840.8741	843.2143	12448.35	11576.05
841.0192	845.2662	12406.65	11538.1
841.1643	847.3175	12387.15	11519.8
841.3095	849.368	12344.2	11473
841.4546	851.4179	12319.55	11450.2
841.5997	853.467	12279.45	11409.5
841.7448	855.5155	12287.9	11416.35
841.8899	857.5633	12260.35	11388.3
842.0351	859.6105	12228.45	11355.15
842.1802	861.6569	12191.5	11318.85
842.3253	863.7027	12198.2	11327.05
842.4704	865.7478	12172.85	11300.5
842.6156	867.7922	12160.7	11289.55
842.7607	869.8359	12117.65	11244.45
842.9058	871.8789	12092.65	11219.95
843.0509	873.9212	12116.55	11210.2
843.1961	875.9629	12067.85	11195.3
843.3412	878.0039	12068.75	11192.15
843.4863	880.0441	12057.1	11183.6
843.6315	882.0837	12060	11186.75
843.7766	884.1226	12042.25	11169.75
843.9218	886.1609	12069	11195.95
844.0669	888.1984	12086.55	11212.05
844.212	890.2352	12128.6	11252.8
844.3572	892.2714	12082.4	11204.3
844.5023	894.3069	12077.05	11198.05
844.6475	896.3416	12003.15	11128.2
844.7926	898.3757	11990.3	11114.4
844.9377	900.4091	11970.1	11092.8
845.0829	902.4418	11941.2	11061.35
845.228	904.4739	11896.6	11019.15
845.3732	906.5052	11917.55	11040
845.5183	908.5358	11881	11005
845.6635	910.5658	11865.3	10987.85
845.8086	912.595	11817.6	10941.85
845.9538	914.6236	11761.45	10884.15
846.0989	916.6515	11732.7	10857.5
846.2441	918.6786	11735	10855.6
846.3892	920.7051	11709.25	10830
846.5344	922.7309	11705.6	10828.65
846.6795	924.756	11654.15	10777.4
846.8246	926.7804	11665.9	10785.25
846.9698	928.8041	11602.2	10722.4
847.1149	930.8272	11599.35	10720.85
847.2601	932.8495	11564.85	10684.2
847.4052	934.8711	11548	10670.7
847.5504	936.892	11498.8	10619.55
847.6955	938.9123	11454.85	10576.45
847.8407	940.9318	11470.65	10593.6
847.9858	942.9506	11457.95	10579
848.131	944.9688	11423.5	10544.35
848.2761	946.9862	11389.75	10511.85
848.4213	949.003	11322.55	10445.4
848.5664	951.019	11263.35	10382.35
848.7115	953.0344	11249.05	10368.95
848.8567	955.0491	11230.3	10349.1
849.0018	957.063	11214	10335.2
849.147	959.0763	11226.25	10346.8
849.2921	961.0888	11176.95	10296.95
849.4373	963.1007	11194.75	10314.75
849.5824	965.1119	11173.35	10295.45
849.7275	967.1223	11151.1	10274.45
849.8727	969.1321	11105.5	10229.75
850.0178	971.1412	11107.3	10228.4
850.1629	973.1495	11089.15	10212.6
850.3081	975.1572	11091.7	10165.75
850.4532	977.1641	11066.35	10187
850.5983	979.1704	10999.8	10118.95
850.7435	981.1759	10987.8	10104.95
850.8886	983.1808	10972.9	10091.6
851.0337	985.1849	10974.85	10079.95
851.1788	987.1884	10930.55	10045.35
851.324	989.1911	10899	10016.25
851.4691	991.1932	10870.3	9989.55
851.6142	993.1945	10848.6	9968.4
851.7593	995.1951	10792.5	9911.65
851.9045	997.1951	10791.7	9905.2
852.0496	999.1943	10759.8	9878.35
852.1947	1001.1928	10696	9813.05
852.3398	1003.1906	10655.4	9773
852.4849	1005.1877	10676.75	9793.65
852.63	1007.1841	10633.9	9750.55
852.7751	1009.1798	10627.8	9745.8
852.9202	1011.1748	10571	9689.05
853.0653	1013.1691	10564.1	9682.45
853.2104	1015.1627	10495.6	9611.15
853.3555	1017.1556	10398.3	9518.6
853.5006	1019.1477	10402.4	9518.8
853.6457	1021.1392	10318.8	9437.75
853.7908	1023.1299	10301.85	9420.15
853.9359	1025.12	10248	9365.6
854.081	1027.1093	10206.65	9329.25
854.2261	1029.0979	10201.05	9326.85
854.3712	1031.0859	10163.2	9286.8
854.5163	1033.0731	10158.65	9279.25
854.6613	1035.0596	10142.35	9262.9
854.8064	1037.0454	10078.6	9198.85
854.9515	1039.0304	10047.65	9165.3
855.0965	1041.0148	10014.15	9132.8
855.2416	1042.9985	9972.7	9086.85
855.3867	1044.9814	9967.15	9085.15
855.5317	1046.9636	9935.85	9050.85
855.6768	1048.9452	9895	9013.45
855.8219	1050.926	9898.45	9016.55
855.9669	1052.9061	9866.45	8984.25
856.112	1054.8855	9831.7	8948
856.257	1056.8642	9822.4	8939
856.4021	1058.8421	9803.45	8919.55
856.5471	1060.8194	9768.75	8885.2
856.6921	1062.7959	9752.45	8868.95
856.8372	1064.7717	9733.8	8850.65
856.9822	1066.7469	9714.1	8828.25
857.1272	1068.7213	9725.6	8839.15
857.2723	1070.695	9710.4	8828
857.4173	1072.6679	9668.55	8783.8
857.5623	1074.6402	9666.5	8784.9
857.7073	1076.6117	9672	8784.5
857.8523	1078.5826	9641.95	8758.05
857.9973	1080.5527	9610.45	8724.8
858.1423	1082.5221	9567.3	8684.2
858.2873	1084.4908	9551.1	8668.8
858.4323	1086.4587	9493.25	8608.3
858.5773	1088.426	9483.05	8597.55
858.7223	1090.3925	9436.5	8546.75
858.8673	1092.3584	9447.05	8563.6
859.0123	1094.3235	9419.95	8537.65
859.1573	1096.2879	9370.25	8484.35
859.3022	1098.2515	9375.75	8492.4
859.4472	1100.2145	9400.25	8514.6
859.5922	1102.1767	9366.65	8477.25
859.7371	1104.1382	9364.85	8479.65
859.8821	1106.099	9367.95	8480.45
860.027	1108.0591	9361.6	8476.85
860.172	1110.0185	9366.05	8479.55
860.3169	1111.9771	9370.05	8487.45
860.4619	1113.9351	9345.15	8458.8
860.6068	1115.8923	9364.5	8479.25
860.7517	1117.8488	9359.9	8469.9
860.8967	1119.8045	9288.85	8405.1
861.0416	1121.7596	9257	8372.35
861.1865	1123.7139	9170.55	8285.95
861.3314	1125.6675	9144	8259.6
861.4763	1127.6204	9132.85	8249.65
861.6212	1129.5726	9104.65	8218.95
861.7661	1131.524	9095.6	8211.5
861.911	1133.4748	9048.55	8163.3
862.0559	1135.4248	9026	8141.85
862.2008	1137.3741	8973.25	8087.95
862.3457	1139.3226	8954.15	8067.5
862.4905	1141.2705	8953.5	8067.7
862.6354	1143.2176	8896.9	8005.15
862.7803	1145.164	8928.5	8040.5
862.9251	1147.1097	8897	8009.9
863.07	1149.0546	8876.4	7987.25
863.2148	1150.9989	8837.25	7949.3
863.3597	1152.9424	8834.1	7947.4
863.5045	1154.8852	8821.85	7934.85
863.6493	1156.8272	8788	7901.45
863.7942	1158.7686	8797	7902.85
863.939	1160.7092	8759.85	7871.3
864.0838	1162.6491	8730.1	7840.15
864.2286	1164.5883	8726	7840.3
864.3734	1166.5267	8716.3	7829.15
864.5182	1168.4644	8734.25	7847.55
864.663	1170.4014	8742.2	7850.65
864.8078	1172.3377	8745.35	7858.95
864.9526	1174.2732	8738.95	7855
865.0974	1176.2081	8798.95	7909.8
865.2421	1178.1421	8814	7923
865.3869	1180.0755	8865.75	7980.5
865.5317	1182.0082	8843.75	7958.75
865.6764	1183.9401	8841.05	7954.75
865.8212	1185.8713	8777.4	7891.8
865.9659	1187.8017	8689.25	7805.55
866.1106	1189.7315	8651.05	7769.9
866.2554	1191.6605	8551.5	7670.1
866.4001	1193.5888	8533.65	7648.15
866.5448	1195.5163	8483.25	7600.4
866.6895	1197.4432	8452.1	7564.5
866.8342	1199.3693	8393.8	7508.6
866.9789	1201.2947	8382.8	7488.35
867.1236	1203.2193	8341.9	7452.35
867.2683	1205.1432	8331.3	7444.2
867.413	1207.0664	8297.2	7411.75
867.5576	1208.9889	8279.2	7389.85
867.7023	1210.9106	8255.85	7367.85
867.847	1212.8316	8202.95	7314.3
867.9916	1214.7519	8222.35	7325.7
868.1363	1216.6715	8180.2	7294.5
868.2809	1218.5903	8184.55	7299.6
868.4255	1220.5084	8148.2	7262.65
868.5701	1222.4257	8172.1	7288.15
868.7148	1224.3424	8138.2	7253.45
868.8594	1226.2583	8129.35	7238.45
869.004	1228.1735	8134.15	7246.8
869.1486	1230.0879	8117.25	7227.9
869.2932	1232.0016	8092.05	7204.6
869.4377	1233.9146	8111.35	7222
869.5823	1235.8269	8070.35	7184.8
869.7269	1237.7384	8104.3	7218.25
869.8715	1239.6492	8076.2	7189.55
870.016	1241.5592	8069.8	7183.6
870.1606	1243.4686	8048.6	7164.6
870.3051	1245.3772	8074.5	7188.85
870.4496	1247.285	8100.95	7211.45
870.5941	1249.1922	8128.7	7241.55
870.7387	1251.0986	8158.6	7271
870.8832	1253.0042	8161.75	7274.1
871.0277	1254.9092	8186.5	7298.2
871.1722	1256.8134	8218.65	7331.6
871.3167	1258.7169	8235.55	7348.9
871.4611	1260.6196	8232.25	7345.15
871.6056	1262.5216	8245.8	7356.65
871.7501	1264.4229	8213.45	7325.8
871.8945	1266.3234	8190.9	7305
872.039	1268.2232	8146.3	7258.75
872.1834	1270.1223	8119.15	7231.25
872.3278	1272.0207	8083.6	7196.7
872.4723	1273.9183	8069.45	7175.35
872.6167	1275.8151	8070.7	7183.2
872.7611	1277.7113	8054.05	7165.45
872.9055	1279.6067	8062.55	7174.2
873.0499	1281.5014	8144.05	7254.3
873.1943	1283.3953	8197.75	7306.6
873.3386	1285.2885	8291.1	7402.25
873.483	1287.181	8325.4	7436.45
873.6274	1289.0727	8373.15	7486.2
873.7717	1290.9637	8339.75	7451.95
873.9161	1292.854	8304.95	7419.15
874.0604	1294.7435	8229.45	7341.6
874.2047	1296.6323	8170.95	7281.6
874.349	1298.5204	8128.15	7233.75
874.4933	1300.4077	8077.4	7188.7
874.6376	1302.2943	8043.15	7155.45
874.7819	1304.1802	8036.1	7152.45
874.9262	1306.0653	7994.05	7107.45
875.0705	1307.9497	7970.65	7083.05
875.2147	1309.8333	7936.95	7047.2
875.359	1311.7162	7914.3	7027.35
875.5032	1313.5984	7883.35	6992.9
875.6475	1315.4798	7871.85	6982
875.7917	1317.3605	7867.75	6961.2
875.9359	1319.2405	7835.75	6943.4
876.0801	1321.1197	7791.9	6903
876.2243	1322.9982	7761.25	6867.95
876.3685	1324.876	7727.35	6840.5
876.5127	1326.753	7659.6	6771.6
876.6569	1328.6293	7642.8	6752.65
876.801	1330.5048	7602.7	6712.5
876.9452	1332.3796	7536.75	6648.5
877.0893	1334.2537	7537.55	6624.8
877.2335	1336.127	7484.1	6595.35
877.3776	1337.9996	7471	6582.6
877.5217	1339.8714	7431.65	6545.15
877.6658	1341.7426	7429.95	6497.3
877.8099	1343.6129	7392.95	6503.5
877.954	1345.4826	7372.5	6484.85
878.0981	1347.3515	7391.4	6498.85
878.2422	1349.2196	7356.8	6466.85
878.3862	1351.087	7337.35	6448.1
878.5303	1352.9537	7339.15	6448.3
878.6743	1354.8197	7362.65	6473.9
878.8184	1356.6849	7341.35	6450.9
878.9624	1358.5493	7342.75	6454.95
879.1064	1360.4131	7311.45	6423.05
879.2504	1362.276	7322.9	6435.9
879.3944	1364.1383	7311.9	6423.25
879.5384	1365.9998	7310.5	6416.05
879.6823	1367.8606	7304.4	6414.35
879.8263	1369.7206	7283.25	6394.5
879.9702	1371.5799	7259.9	6366.9
880.1142	1373.4384	7234.75	6345.55
880.2581	1375.2962	7212.55	6321.9
880.402	1377.1533	7163.25	6275.85
880.5459	1379.0096	7120.65	6231.25
880.6898	1380.8652	7086.3	6198.8
880.8337	1382.7201	7060	6173.95
880.9776	1384.5742	7008	6119.25
881.1215	1386.4275	6960.95	6072.95
881.2653	1388.2802	6933.05	6047
881.4092	1390.132	6921.05	6030.9
881.553	1391.9832	6902.7	6013.2
881.6968	1393.8336	6861.5	5972.45
881.8406	1395.6832	6866.9	5979.8
881.9844	1397.5322	6830.55	5943.2
882.1282	1399.3803	6791.2	5896.1
882.272	1401.2278	6757.7	5869.4
882.4158	1403.0745	6763.6	5875.25
882.5595	1404.9204	6710.15	5821.8
882.7033	1406.7656	6709.8	5818.9
882.847	1408.6101	6681.5	5791.85
882.9908	1410.4538	6681.1	5792.8
883.1345	1412.2968	6650.35	5761.25
883.2782	1414.139	6618.5	5733
883.4219	1415.9805	6622.9	5734.45
883.5656	1417.8213	6606	5708.55
883.7092	1419.6613	6597.25	5709.25
883.8529	1421.5006	6588.25	5698.65
883.9965	1423.3391	6601.6	5713.2
884.1402	1425.1769	6582.55	5690.3
884.2838	1427.0139	6621.4	5733.95
884.4274	1428.8502	6639	5749.15
884.571	1430.6858	6649.45	5759.45
884.7146	1432.5206	6651.1	5763.4
884.8582	1434.3547	6652	5763.9
885.0018	1436.188	6613.3	5726
885.1453	1438.0206	6613.1	5724.7
885.2889	1439.8524	6586.6	5697.1
885.4324	1441.6835	6577.1	5688.4
885.5759	1443.5139	6570.95	5679
885.7194	1445.3435	6557.6	5668.9
885.8629	1447.1724	6544.35	5655.9
886.0064	1449.0005	6543.8	5655.65
886.1499	1450.8279	6535.4	5645
886.2933	1452.6545	6518.05	5629.75
886.4368	1454.4804	6495.55	5605.45
886.5802	1456.3056	6492.4	5598.25
886.7237	1458.13	6466.75	5578.1
886.8671	1459.9536	6459.3	5570.6
887.0105	1461.7766	6447.25	5558.3
887.1539	1463.5987	6387.15	5496.85
887.2972	1465.4202	6366.25	5478.5
887.4406	1467.2409	6321.2	5431
887.584	1469.0608	6306.25	5418
887.7273	1470.88	6273.5	5385.45
887.8706	1472.6984	6247.1	5359.7
888.0139	1474.5161	6227.85	5334.95
888.1572	1476.3331	6208.3	5318.8
888.3005	1478.1493	6175.75	5286.25
888.4438	1479.9648	6174.95	5284.9
888.5871	1481.7795	6177.75	5289.25
888.7303	1483.5935	6154.35	5265.25
888.8736	1485.4067	6144.7	5254.8
889.0168	1487.2192	6160.55	5273.05
889.16	1489.031	6139.85	5248.8
889.3032	1490.842	6106.25	5218.15
889.4464	1492.6522	6103.6	5215.05
889.5896	1494.4618	6077.25	5185.7
889.7327	1496.2705	6082.75	5194.3
889.8759	1498.0785	6065.55	5174.95
890.019	1499.8858	6061.7	5171.7
890.1622	1501.6924	6023.85	5136.8
890.3053	1503.4981	6009.8	5121.5
890.4484	1505.3032	5987.1	5099.8
890.5914	1507.1075	5990.4	5102.05
890.7345	1508.911	5977.75	5090.9
890.8776	1510.7138	5955.75	5067.25
891.0206	1512.5159	5926.15	5038.8
891.1637	1514.3172	5895.95	5005.45
891.3067	1516.1178	5868.05	4981.35
891.4497	1517.9176	5889.05	4996.85
891.5927	1519.7166	5845.7	4960.05
891.7357	1521.515	5835.55	4942.55
891.8786	1523.3126	5817.4	4927.75
892.0216	1525.1094	5817.15	4928.05
892.1645	1526.9055	5783.2	4895.1
892.3074	1528.7008	5759.75	4871.25
892.4503	1530.4954	5732.8	4842.65
892.5932	1532.2893	5717.45	4830.45
892.7361	1534.0824	5688.5	4795.6
892.879	1535.8747	5667.15	4780.35
893.0218	1537.6663	5666.7	4780.4
893.1647	1539.4572	5624.8	4738.5
893.3075	1541.2473	5636.15	4747.8
893.4503	1543.0367	5624.2	4737.4
893.5931	1544.8253	5579.8	4688.35
893.7359	1546.6132	5574.35	4684.5
893.8787	1548.4003	5559.7	4661.95
894.0214	1550.1867	5550.5	4655
894.1642	1551.9723	5537.95	4647.15
894.3069	1553.7572	5534.55	4646.4
894.4496	1555.5414	5533.25	4644.1
894.5923	1557.3247	5525.2	4639.7
894.735	1559.1074	5500.85	4615
894.8777	1560.8893	5489.95	4605.85
895.0204	1562.6705	5521.85	4635.25
895.163	1564.4509	5519.25	4633.75
895.3056	1566.2305	5485.05	4601.85
895.4482	1568.0094	5509.75	4624.65
895.5908	1569.7876	5477.55	4590.15
895.7334	1571.565	5461.65	4575.2
895.876	1573.3417	5456.2	4568.8
896.0186	1575.1176	5435.55	4549.8
896.1611	1576.8928	5428.3	4542.15
896.3036	1578.6672	5425.35	4542.45
896.4461	1580.4409	5421.95	4540.15
896.5886	1582.2138	5406	4517.9
896.7311	1583.986	5413.3	4526.1
896.8736	1585.7575	5434.9	4551.3
897.0161	1587.5282	5432.45	4550.3
897.1585	1589.2981	5422.9	4540.25
897.3009	1591.0673	5409.15	4524.9
897.4433	1592.8358	5397.35	4512.8
897.5857	1594.6035	5395.35	4507.95
897.7281	1596.3704	5379.7	4493.55
897.8705	1598.1366	5362.05	4477.95
898.0128	1599.9021	5332.95	4447.75
898.1551	1601.6668	5297.65	4410.05
898.2975	1603.4308	5267.45	4379.1
898.4398	1605.194	5258.45	4369
898.5821	1606.9564	5257.6	4375.6
898.7243	1608.7182	5279.05	4393
898.8666	1610.4791	5289.05	4409
899.0088	1612.2394	5341.65	4461.65
899.1511	1613.9988	5361.1	4478.25
899.2933	1615.7576	5383.45	4500.85
899.4355	1617.5156	5408.15	4516.7
899.5776	1619.2728	5376.65	4492.55
899.7198	1621.0293	5324.75	4440.35
899.862	1622.785	5236.9	4348.45
900.0041	1624.54	5154.15	4268.2
900.1462	1626.2942	5076.75	4191.85
900.2883	1628.0477	5023.35	4137.55
900.4304	1629.8005	4977.1	4090.2
900.5725	1631.5525	4932.45	4049.7
900.7145	1633.3037	4882.05	4000.3
900.8566	1635.0542	4834.15	3950.25
900.9986	1636.804	4821.4	3938.55
901.1406	1638.553	4849.55	3882.95
901.2826	1640.3013	4765.7	3882.25
901.4245	1642.0488	4733.5	3850.7
901.5665	1643.7955	4701.8	3819.1
901.7085	1645.5416	4677.4	3793.4
901.8504	1647.2868	4669.9	3787.5
901.9923	1649.0313	4661.3	3778.15
902.1342	1650.7751	4636.35	3750.1
902.2761	1652.5181	4625.9	3743.2
902.4179	1654.2604	4608.3	3726.45
902.5598	1656.0019	4591.2	3708.25
902.7016	1657.7427	4581.9	3697.65
902.8434	1659.4828	4596.15	3714
902.9852	1661.222	4600.6	3717.15
903.127	1662.9606	4583.65	3699.9
903.2687	1664.6984	4589.6	3704.35
903.4105	1666.4354	4589.15	3702.95
903.5522	1668.1717	4565.4	3680.35
903.6939	1669.9072	4517.25	3633.1
903.8356	1671.642	4487.3	3600.2
903.9773	1673.3761	4466.9	3583.65
904.119	1675.1094	4429.05	3546
904.2606	1676.8419	4400.8	3516.5
904.4022	1678.5737	4383.4	3498.8
904.5439	1680.3048	4353.45	3468.3
904.6855	1682.0351	4343.4	3461.15
904.827	1683.7646	4313.8	3428.15
904.9686	1685.4934	4307.65	3424.05
905.1101	1687.2215	4277.85	3390.6
905.2517	1688.9488	4255.7	3372.5
905.3932	1690.6754	4225.9	3343.6
905.5347	1692.4012	4242.4	3357.45
905.6761	1694.1263	4223.7	3340.45
905.8176	1695.8506	4209.15	3323.25
905.9591	1697.5742	4188.5	3305.05
906.1005	1699.297	4166.65	3287.95
906.2419	1701.0191	4147	3266.05
906.3833	1702.7404	4134.85	3253.4
906.5246	1704.461	4114	3230.6
906.666	1706.1808	4096.1	3211.3
906.8073	1707.8999	4094.8	3212.3
906.9487	1709.6182	4062.5	3180
907.09	1711.3358	4048.2	3166.15
907.2313	1713.0527	4056.55	3175.4
907.3725	1714.7688	4050.7	3163.3
907.5138	1716.4841	4027.4	3141.8
907.655	1718.1987	4021	3133.1
907.7962	1719.9126	4011.7	3130.65
907.9374	1721.6257	3995.55	3111.9
908.0786	1723.338	4002.75	3119.35
908.2198	1725.0496	3978.3	3093.35
908.3609	1726.7605	3966.2	3084
908.502	1728.4706	3968.75	3087.45
908.6431	1730.18	3947.45	3063.9
908.7842	1731.8886	3950.1	3068.75
908.9253	1733.5964	3950.2	3062.3
909.0664	1735.3036	3948.65	3063.6
909.2074	1737.0099	3937.2	3055.75
909.3484	1738.7156	3928.6	3047.8
909.4894	1740.4204	3903.35	3016.35
909.6304	1742.1246	3912.3	3029.1
909.7714	1743.8279	3910	3027.9
909.9123	1745.5306	3910.55	3030.5
910.0532	1747.2325	3905.25	3024.85
910.1941	1748.9336	3873.75	2991.25
910.335	1750.634	3875.85	2992.35
910.4759	1752.3336	3883.2	3002.1
910.6168	1754.0325	3877.5	2999
910.7576	1755.7307	3867.4	2983.2
910.8984	1757.4281	3867.05	2984.45
911.0392	1759.1247	3858.8	2967.85
911.18	1760.8206	3862.05	2977.15
911.3208	1762.5158	3834.45	2946.35
911.4615	1764.2102	3848.55	2967.4
911.6022	1765.9039	3840.2	2958.45
911.7429	1767.5968	3819.9	2938.8
911.8836	1769.289	3820.3	2939.9
912.0243	1770.9804	3815.05	2930
912.1649	1772.6711	3803.65	2918.95
912.3056	1774.361	3795.7	2910.75
912.4462	1776.0502	3796.35	2912.6
912.5868	1777.7386	3796.6	2911.5
912.7274	1779.4263	3771.75	2888.25
912.8679	1781.1132	3781.55	2900.65
913.0084	1782.7994	3757	2871.8
913.149	1784.4849	3753.85	2872.95
913.2895	1786.1696	3760.95	2859.05
913.4299	1787.8535	3727	2846.95
913.5704	1789.5367	3733	2853.9
913.7108	1791.2192	3723.15	2840.75
913.8513	1792.9009	3737.55	2824.25
913.9917	1794.5818	3719.2	2836.35
914.132	1796.2621	3703.9	2823.15
914.2724	1797.9415	3699.55	2817.6
914.4128	1799.6202	3678.15	2795.7
914.5531	1801.2982	3676.7	2792.1
914.6934	1802.9755	3675.45	2792.7
914.8337	1804.6519	3658.7	2774.8
914.9739	1806.3277	3647	2766.8
915.1142	1808.0027	3638.9	2758.05
915.2544	1809.6769	3638.25	2758.35
915.3946	1811.3504	3640.55	2758.85
915.5348	1813.0231	3627.2	2745.9
915.675	1814.6951	3634.45	2754.6
915.8151	1816.3664	3626.2	2741.75
915.9553	1818.0369	3616.3	2733.45
916.0954	1819.7067	3606	2723.65
916.2355	1821.3757	3593.9	2708.3
916.3755	1823.044	3598.45	2714.8
916.5156	1824.7115	3577.7	2693.55
916.6556	1826.3783	3558.05	2677.65
916.7956	1828.0443	3547.55	2666.9
916.9356	1829.7096	3551.4	2667
917.0756	1831.3741	3563.4	2679.85
917.2155	1833.0379	3550.15	2668.7
917.3555	1834.701	3528.45	2644.3
917.4954	1836.3633	3539.95	2657
917.6353	1838.0248	3537.7	2653.25
917.7751	1839.6856	3517.1	2636.2
917.915	1841.3457	3526	2645.25
918.0548	1843.005	3511.7	2628.15
918.1946	1844.6636	3494.1	2613.5
918.3344	1846.3214	3493.65	2611.9
918.4742	1847.9785	3498.3	2618.65
918.6139	1849.6349	3473.7	2588.4
918.7537	1851.2904	3492.4	2598.15
918.8934	1852.9453	3481.85	2599.8
919.0331	1854.5994	3466	2580.7
919.1727	1856.2528	3468.15	2581.15
919.3124	1857.9054	3455.8	2573.8
919.452	1859.5572	3459	2577.35
919.5916	1861.2083	3458.75	2575
919.7312	1862.8587	3436.95	2553.95
919.8708	1864.5084	3446.7	2564.15
920.0103	1866.1572	3418.05	2537.05
920.1498	1867.8054	3433.75	2549.9
920.2893	1869.4528	3405.95	2523.7
920.4288	1871.0994	3409.4	2527.25
920.5683	1872.7453	3397.15	2512.7
920.7077	1874.3905	3387.7	2496.2
920.8471	1876.0349	3390.05	2505.35
920.9865	1877.6786	3385.15	2502.55
921.1259	1879.3215	3376.8	2494.1
921.2653	1880.9637	3382.15	2499.45
921.4046	1882.6051	3379.45	2498.35
921.5439	1884.2458	3369.4	2485
921.6832	1885.8858	3366.3	2483.4
921.8225	1887.525	3350.35	2466.7
921.9617	1889.1634	3334.2	2451.25
922.101	1890.8011	3327	2443.7
922.2402	1892.4381	3315.2	2432.85
922.3794	1894.0743	3312.85	2429.7
922.5185	1895.7098	3319.75	2436.75
922.6577	1897.3446	3306.75	2422.4
922.7968	1898.9786	3312	2422.8
922.9359	1900.6118	3322.75	2441.3
923.075	1902.2443	3291.25	2408.75
923.214	1903.8761	3286.35	2403.3
923.3531	1905.5071	3282.55	2399.5
923.4921	1907.1374	3267.85	2386.1
923.6311	1908.7669	3258.9	2376.1
923.77	1910.3957	3255.55	2372.65
923.909	1912.0237	3238.3	2355.25
924.0479	1913.651	3237.45	2350.65
924.1868	1915.2776	3233.6	2353.6
924.3257	1916.9034	3230.5	2349.2
924.4646	1918.5285	3208.8	2327.25
924.6034	1920.1528	3201.7	2319
924.7422	1921.7764	3207	2325.7
924.881	1923.3992	3191.3	2309
925.0198	1925.0213	3168.4	2286.2
925.1586	1926.6427	3172.4	2290.25
925.2973	1928.2633	3379.3	2252.6
925.436	1929.8832	3193.35	2304.9
925.5747	1931.5023	3154.35	2271.45
925.7134	1933.1207	3133.75	2249.15
925.852	1934.7383	3138.8	2256.3
925.9906	1936.3552	3137.1	2257.85
926.1292	1937.9714	3124.45	2244
926.2678	1939.5868	3111.8	2227.35
926.4064	1941.2015	3112.05	2228.4
926.5449	1942.8154	3105.9	2222.9
926.6834	1944.4286	3088.75	2205.95
926.8219	1946.041	3094.35	2190.2
926.9604	1947.6528	3077.5	2189.5
927.0988	1949.2637	3080.35	2198.7
927.2372	1950.8739	3071.5	2188.8
927.3756	1952.4834	3061.25	2178.15
927.514	1954.0921	3073.1	2189.9
927.6523	1955.7001	3048.5	2163.5
927.7907	1957.3074	3055.2	2173.25
927.929	1958.9139	3030.45	2152.05
928.0673	1960.5197	3040.85	2158.65
928.2055	1962.1247	3032.4	2150.8
928.3438	1963.729	3027.3	2146.15
928.482	1965.3325	3041.25	2135.8
928.6202	1966.9353	3011.8	2131.65
928.7584	1968.5374	2998.2	2115.4
928.8965	1970.1387	2996.65	2115.65
929.0346	1971.7393	2992.45	2110.8
929.1727	1973.3392	2981.8	2101
929.3108	1974.9383	2975.6	2094.75
929.4489	1976.5366	2965.7	2086.4
929.5869	1978.1342	2962.4	2079.05
929.7249	1979.7311	2962.15	2079.05
929.8629	1981.3273	2958.45	2077.25
930.0009	1982.9227	2950.85	2068.75
930.1388	1984.5173	2935.15	2054.2
930.2767	1986.1112	2937.85	2056.65
930.4146	1987.7044	2940.1	2061.55
930.5525	1989.2968	2929.25	2045.7
930.6904	1990.8885	2918.2	2033.75
930.8282	1992.4795	2919.25	2038.35
930.966	1994.0697	2912.8	2033.8
931.1038	1995.6592	2900.15	2022.55
931.2415	1997.2479	2905.8	2024.65
931.3793	1998.8359	2901.8	2020.75
931.517	2000.4232	2888.55	2009.75
931.6547	2002.0097	2887.9	2008.8
931.7923	2003.5955	2885.25	2006.05
931.93	2005.1805	2874.7	1993.35
932.0676	2006.7648	2875.5	1995.75
932.2052	2008.3484	2877.5	1996
932.3427	2009.9312	2872.25	1987.2
932.4803	2011.5133	2859.3	1982.4
932.6178	2013.0946	2847.45	1969.4
932.7553	2014.6752	2854.15	1975.35
932.8928	2016.2551	2858.3	1977.15
933.0302	2017.8342	2847.05	1968.5
933.1676	2019.4126	2834.95	1956.85
933.305	2020.9902	2819.95	1941.55
933.4424	2022.5672	2824.65	1942.3
933.5798	2024.1433	2823.55	1939.45
933.7171	2025.7188	2822.35	1946.35
933.8544	2027.2935	2813.1	1933.2
933.9917	2028.8674	2808	1927.1
934.129	2030.4406	2805.65	1928.6
934.2662	2032.0131	2802.2	1924.95
934.4034	2033.5849	2796.95	1914.75
934.5406	2035.1559	2787.5	1908.45
934.6778	2036.7261	2789.05	1909.5
934.8149	2038.2957	2785.4	1904.8
934.952	2039.8645	2784.9	1906
935.0891	2041.4325	2783.1	1900.85
935.2262	2042.9998	2777.2	1899.2
935.3632	2044.5664	2782.75	1904.2
935.5002	2046.1323	2775.7	1895.65
935.6372	2047.6974	2757.75	1879.1
935.7742	2049.2617	2766.75	1887.1
935.9111	2050.8254	2770.7	1889.4
936.048	2052.3883	2762.9	1884.7
936.1849	2053.9504	2753.45	1872.5
936.3218	2055.5118	2748.85	1868.4
936.4586	2057.0725	2757.4	1874.65
936.5955	2058.6325	2747.45	1868.65
936.7323	2060.1917	2734.25	1856.65
936.869	2061.7502	2737.2	1854.35
937.0058	2063.3079	2725.85	1849.6
937.1425	2064.8649	2729.35	1847.5
937.2792	2066.4212	2725.6	1845.4
937.4159	2067.9767	2725.1	1849.2
937.5525	2069.5315	2705.5	1825.8
937.6891	2071.0856	2703.85	1825.2
937.8257	2072.6389	2707.95	1826.1
937.9623	2074.1915	2704.9	1827.5
938.0989	2075.7433	2698.4	1818.5
938.2354	2077.2945	2694.2	1814.3
938.3719	2078.8448	2688.4	1810.7
938.5084	2080.3945	2689	1810.05
938.6448	2081.9434	2676.35	1797.15
938.7812	2083.4916	2671.25	1792.5
938.9176	2085.039	2670.45	1786.1
939.054	2086.5857	2674.1	1793.5
939.1903	2088.1317	2667.4	1786.05
939.3267	2089.677	2662.75	1783.55
939.463	2091.2215	2657.25	1775.8
939.5992	2092.7652	2651.6	1767.9
939.7355	2094.3083	2646.1	1764.05
939.8717	2095.8506	2651.8	1773.55
940.0079	2097.3921	2642.65	1762.75
940.1441	2098.933	2642.6	1762.65
940.2802	2100.4731	2645.9	1765.5
940.4163	2102.0124	2658.6	1761.35
940.5524	2103.5511	2634.7	1754.7
940.6885	2105.089	2627.35	1746.75
940.8245	2106.6261	2643.7	1762.45
940.9606	2108.1626	2634.95	1753.55
941.0965	2109.6983	2659.75	1752.9
941.2325	2111.2332	2622.1	1741.8
941.3684	2112.7675	2617.55	1736.95
941.5044	2114.301	2616.25	1734.35
941.6403	2115.8337	2622.25	1741.7
941.7761	2117.3657	2628.9	1750.2
941.912	2118.897	2613.3	1734.3
942.0478	2120.4276	2628.5	1739.7
942.1835	2121.9575	2603.2	1723.2
942.3193	2123.4866	2623.55	1728.45
942.455	2125.0149	2614.6	1732.15
942.5907	2126.5426	2589.45	1709.45
942.7264	2128.0695	2588.4	1705.7
942.8621	2129.5956	2580.75	1702.7
942.9977	2131.1211	2587.3	1701.8
943.1333	2132.6458	2579.45	1699.65
943.2689	2134.1698	2577.3	1695.65
943.4044	2135.693	2575.05	1691.45
943.54	2137.2155	2572.05	1688.3
943.6755	2138.7373	2557.8	1678.4
943.8109	2140.2584	2559.35	1681.2
943.9464	2141.7787	2573.75	1689.7
944.0818	2143.2983	2561	1682.75
944.2172	2144.8171	2544.55	1667.65
944.3526	2146.3353	2534.15	1651.35
944.4879	2147.8527	2524.65	1646.4
944.6232	2149.3693	2537.5	1657.2
944.7585	2150.8853	2531.1	1649.8
944.8938	2152.4005	2523.4	1642.6
945.029	2153.9149	2529.2	1648.7
945.1642	2155.4287	2525.25	1645.5
945.2994	2156.9417	2513.8	1634.5
945.4346	2158.454	2518.8	1634.65
945.5697	2159.9655	2508.55	1630.45
945.7048	2161.4764	2513.2	1632.55
945.8399	2162.9865	2502.5	1622.1
945.9749	2164.4958	2506.85	1625.15
946.1099	2166.0045	2497.15	1616.5
946.2449	2167.5124	2494.4	1614.8
946.3799	2169.0195	2495.2	1616.2
946.5148	2170.526	2483.2	1603.9
946.6498	2172.0317	2481.15	1600.4
946.7846	2173.5367	2483.55	1603.9
946.9195	2175.0409	2477.7	1597.95
947.0543	2176.5445	2482	1603.05
947.1891	2178.0473	2475.8	1594.95
947.3239	2179.5494	2473.35	1588.4
947.4587	2181.0507	2455.55	1575.35
947.5934	2182.5513	2458.8	1580.35
947.7281	2184.0512	2456.4	1574.65
947.8628	2185.5504	2445.95	1565.15
947.9974	2187.0488	2428.2	1550.95
948.132	2188.5465	2436.8	1556.8
948.2666	2190.0435	2432.8	1552.7
948.4012	2191.5397	2430.2	1549.25
948.5357	2193.0353	2422.1	1541.7
948.6702	2194.5301	2419	1536.6
948.8047	2196.0241	2399.35	1519.05
948.9392	2197.5175	2405.35	1525.45
949.0736	2199.0101	2395.05	1511.5
949.208	2200.502	2385.55	1506.75
949.3424	2201.9931	2381.45	1503.65
949.4767	2203.4835	2389.5	1509.5
949.611	2204.9733	2381.85	1495.95
949.7453	2206.4622	2383.45	1505.7
949.8796	2207.9505	2361.25	1478.1
950.0138	2209.438	2372.6	1494.85
950.148	2210.9248	2365.6	1485.75
950.2822	2212.4109	2368.3	1490.35
950.4164	2213.8962	2374	1489.35
950.5505	2215.3809	2359.15	1477.55
950.6846	2216.8648	2339.1	1457.15
950.8186	2218.3479	2346.35	1460.65
950.9527	2219.8304	2344.15	1460.95
951.0867	2221.3121	2346.85	1463.7
951.2207	2222.7931	2331.3	1450.2
951.3546	2224.2733	2319.55	1438.6
951.4886	2225.7529	2326.95	1445.9
951.6225	2227.2317	2315.5	1433
951.7563	2228.7098	2306.5	1430.65
951.8902	2230.1872	2303	1423.35
952.024	2231.6638	2299.4	1422.55
952.1578	2233.1397	2304.85	1420.3
952.2916	2234.6149	2297.2	1417.35
952.4253	2236.0894	2286.4	1406.45
952.559	2237.5632	2295.6	1406.6
952.6927	2239.0362	2285.55	1406.65
952.8263	2240.5085	2277.85	1398.5
952.9599	2241.9801	2255.85	1374.75
953.0935	2243.4509	2270.45	1391.05
953.2271	2244.921	2262.1	1380.6
953.3606	2246.3904	2256.8	1373.3
953.4941	2247.8591	2251.6	1370.95
953.6276	2249.3271	2251.85	1370.05
953.7611	2250.7943	2249.85	1371.15
953.8945	2252.2608	2233.15	1352.05
954.0279	2253.7266	2232.2	1352.95
954.1612	2255.1917	2227.8	1348.3
954.2946	2256.656	2228.75	1348.95
954.4279	2258.1197	2215.9	1338.55
954.5612	2259.5826	2236.75	1355.6
954.6944	2261.0447	2219.2	1339.2
954.8276	2262.5062	2210.1	1327.8
954.9608	2263.9669	2214.75	1333.05
955.094	2265.4269	2212.4	1334.4
955.2271	2266.8862	2208.25	1327.4
955.3602	2268.3448	2201.3	1322.85
955.4933	2269.8026	2203.55	1323.6
955.6264	2271.2598	2194.05	1314.2
955.7594	2272.7162	2191.4	1313.8
955.8924	2274.1719	2186.8	1306.05
956.0253	2275.6268	2181.05	1301.6
956.1583	2277.0811	2186.95	1304.3
956.2912	2278.5346	2176.25	1298.35
956.4241	2279.9874	2176.4	1295.8
956.5569	2281.4395	2174.9	1296.25
956.6897	2282.8908	2168.55	1282.9
956.8225	2284.3414	2174.9	1292
956.9553	2285.7914	2153.5	1274.1
957.088	2287.2406	2156.95	1274
957.2207	2288.689	2144.3	1266.85
957.3534	2290.1368	2145.75	1264.2
957.486	2291.5838	2148.25	1266.35
957.6186	2293.0302	2141.25	1258.6
957.7512	2294.4758	2139.95	1259.65
957.8838	2295.9206	2134.55	1252.9
958.0163	2297.3648	2128.15	1248.5
958.1488	2298.8082	2119.6	1239.55
958.2813	2300.251	2118.55	1238.35
958.4137	2301.693	2124.05	1240.5
958.5461	2303.1343	2113.1	1234.4
958.6785	2304.5748	2108.75	1229
958.8108	2306.0147	2109.35	1229.2
958.9432	2307.4538	2105.45	1223.55
959.0754	2308.8922	2103.45	1226.45
959.2077	2310.3299	2099.7	1219.85
959.3399	2311.7669	2086.95	1206.7
959.4721	2313.2031	2085.3	1206.8
959.6043	2314.6387	2090.7	1209.95
959.7365	2316.0735	2079.3	1200.05
959.8686	2317.5076	2077.95	1196.9
960.0006	2318.941	2074.8	1194.8
960.1327	2320.3737	2075.55	1194.4
960.2647	2321.8056	2068.1	1187.85
960.3967	2323.2369	2054.85	1172.95
960.5287	2324.6674	2066.05	1183.8
960.6606	2326.0972	2065.25	1183.65
960.7925	2327.5263	2056.35	1177.1
960.9244	2328.9547	2054.9	1172.3
961.0562	2330.3823	2054.45	1173.2
961.1881	2331.8092	2048.95	1165.1
961.3198	2333.2355	2031.35	1150.85
961.4516	2334.661	2039.65	1160.1
961.5833	2336.0858	2028.35	1145.7
961.715	2337.5098	2039.35	1157.45
961.8467	2338.9332	2035.8	1156
961.9783	2340.3558	2017.3	1132.5
962.1099	2341.7778	2012.3	1131.1
962.2415	2343.199	2014.4	1131.2
962.373	2344.6195	1994.1	1114.4
962.5045	2346.0393	2000.75	1121.55
962.636	2347.4583	2003.9	1122.25
962.7675	2348.8767	1994.85	1112.65
962.8989	2350.2943	1995.25	1114.3
963.0303	2351.7113	1998.35	1115.95
963.1617	2353.1275	1987.25	1106.05
963.293	2354.543	1995.3	1106.3
963.4243	2355.9578	1980.55	1098.7
963.5556	2357.3718	1984.9	1102.7
963.6868	2358.7852	1966.65	1083.35
963.818	2360.1978	1964.65	1082.9
963.9492	2361.6098	1961	1080.35
964.0803	2363.021	1958.7	1075.2
964.2114	2364.4315	1944.15	1062.7
964.3425	2365.8413	1958.7	1076.5
964.4736	2367.2504	1938.1	1058.45
964.6046	2368.6587	1940.8	1060.4
964.7356	2370.0664	1932.75	1052.5
964.8666	2371.4733	1936.7	1055.25
964.9975	2372.8795	1933.85	1053.6
965.1284	2374.285	1930.95	1049.7
965.2593	2375.6899	1918.65	1036.2
965.3901	2377.0939	1910.7	1029.95
965.5209	2378.4973	1909.1	1030.2
965.6517	2379.9	1902.9	1019.85
965.7825	2381.3019	1896.15	1017.15
965.9132	2382.7032	1897.85	1017.15
966.0439	2384.1037	1890.7	1012.35
966.1745	2385.5035	1887.55	1005.85
966.3051	2386.9027	1877.65	997.65
966.4357	2388.3011	1881.15	996.6
966.5663	2389.6987	1883.5	1002.35
966.6968	2391.0957	1872.2	991.3
966.8273	2392.492	1864.1	981.45
966.9578	2393.8876	1859.3	975.75
967.0882	2395.2824	1852.4	971.55
967.2186	2396.6765	1850.5	968.6
967.349	2398.07	1840.9	958.75
967.4793	2399.4627	1853.5	970.2
967.6097	2400.8547	1851.45	969.55
967.7399	2402.246	1849.85	962.2
967.8702	2403.6366	1836.5	954.15
968.0004	2405.0265	1831.45	951.1
968.1306	2406.4156	1828.9	943.2
968.2607	2407.8041	1817.4	931.8
968.3909	2409.1918	1820.95	937.3
968.521	2410.5789	1808.7	924.6
968.651	2411.9652	1820.45	936.8
968.781	2413.3508	1811.6	929.95
968.911	2414.7358	1800.95	917.3
969.041	2416.12	1804.4	922.35
969.1709	2417.5035	1795.3	913.95
969.3008	2418.8863	1797.9	916.4
969.4307	2420.2684	1797.85	916.65
969.5606	2421.6497	1783.05	900.45
969.6904	2423.0304	1779.3	898
969.8201	2424.4104	1784.95	903.5
969.9499	2425.7896	1774.95	890.55
970.0796	2427.1682	1774.55	893.05
970.2093	2428.546	1762.1	879.7
970.3389	2429.9232	1775.4	891.55
970.4685	2431.2996	1772.55	889.75
970.5981	2432.6753	1759.75	878.45
970.7277	2434.0503	1752.35	870.9
970.8572	2435.4246	1750.95	869.95
970.9867	2436.7982	1758.2	872.6
971.1161	2438.1711	1752.55	872.35
971.2456	2439.5433	1758.8	874.85
971.375	2440.9148	1755.25	867.55
971.5043	2442.2856	1735.65	856.5
971.6336	2443.6557	1740.6	858.45
971.7629	2445.025	1726.85	845.55
971.8922	2446.3937	1735.6	851.85
972.0214	2447.7617	1728.35	845.4
972.1506	2449.1289	1722.2	840.95
972.2798	2450.4955	1731	847.8
972.4089	2451.8613	1723.65	843.4
972.538	2453.2265	1717.75	834.35
972.6671	2454.5909	1720.5	838.3
972.7961	2455.9546	1717.05	836.35
972.9251	2457.3177	1712.85	831.55
973.0541	2458.68	1708.85	826.75
973.1831	2460.0416	1701.5	820.85
973.312	2461.4025	1706.55	825.1
973.4408	2462.7627	1723.95	830.7
973.5697	2464.1222	1706.45	826.05
973.6985	2465.4811	1699.5	814.6
973.8273	2466.8392	1694.05	813.5
973.956	2468.1966	1693.4	809.65
974.0847	2469.5533	1687.7	804.05
974.2134	2470.9093	1699.8	819.25
974.3421	2472.2645	1695.65	812.45
974.4707	2473.6191	1683.85	804.25
974.5993	2474.973	1676.65	793.3
974.7278	2476.3262	1671.35	786.9
974.8563	2477.6787	1671.35	789.9
974.9848	2479.0305	1675.95	794.6
975.1132	2480.3816	1664.2	780.5
975.2417	2481.7319	1666.3	785.7
975.37	2483.0816	1657.5	775
975.4984	2484.4306	1658.25	775.9
975.6267	2485.7789	1651.6	772.35
975.755	2487.1264	1655.2	771.5
975.8833	2488.4733	1651.75	772.55
976.0115	2489.8195	1653.15	763.65
976.1397	2491.165	1647.45	762.95
976.2678	2492.5097	1639.55	756.5
976.3959	2493.8538	1634.75	753.45
976.524	2495.1972	1637.85	758
976.6521	2496.5398	1630.1	747.9
976.7801	2497.8818	1636.65	752.85
976.9081	2499.2231	1617.85	736.8
977.036	2500.5637	1619.55	737.45
977.164	2501.9035	1620.5	738.65
977.2918	2503.2427	1629.9	746.4
977.4197	2504.5812	1615.6	735.5
977.5475	2505.919	1621.1	735.6
977.6753	2507.256	1614.95	733.35
977.8031	2508.5924	1607.1	726.85
977.9308	2509.9281	1614.45	729.2
978.0585	2511.2631	1593.6	710.85
978.1861	2512.5974	1599.6	721.4
978.3137	2513.9309	1594.8	711.6
978.4413	2515.2638	1624.15	714.25
978.5689	2516.596	1593.95	712.8
978.6964	2517.9275	1584.4	700.95
978.8239	2519.2583	1592.2	711.8
978.9513	2520.5884	1585.1	700.3
979.0788	2521.9178	1578.85	700.55
979.2062	2523.2465	1576.05	696.3
979.3335	2524.5745	1578.4	696.7
979.4608	2525.9018	1577	693.8
979.5881	2527.2284	1564.6	683.75
979.7154	2528.5543	1565.7	687.2
979.8426	2529.8796	1565.3	684.45
979.9698	2531.2041	1561.7	680.5
980.0969	2532.5279	1560.7	680.8
980.224	2533.851	1554.85	673.75
980.3511	2535.1735	1551.15	670.95
980.4781	2536.4952	1558	675.8
980.6052	2537.8163	1553.85	669.65
980.7321	2539.1366	1556.15	676.15
980.8591	2540.4562	1546.35	664.4
980.986	2541.7752	1548.7	668.5
981.1129	2543.0935	1543.45	663.05
981.2397	2544.411	1544.1	661.6
981.3665	2545.7279	1542.6	661.75
981.4933	2547.0441	1544	663.1
981.62	2548.3596	1534.55	648.7
981.7467	2549.6744	1542.6	661.6
981.8734	2550.9885	1541.1	651
982.0001	2552.3019	1523.95	646.25
982.1267	2553.6146	1538.6	658.15
982.2532	2554.9266	1521.6	638.7
982.3798	2556.2379	1526.8	643.1
982.5063	2557.5485	1517.7	639.1
982.6327	2558.8585	1530.3	642.65
982.7592	2560.1677	1525.05	640.4
982.8856	2561.4762	1516	633.15
983.0119	2562.7841	1519.85	637.1
983.1383	2564.0913	1514.3	633.95
983.2646	2565.3977	1516.35	634.3
983.3908	2566.7035	1512.4	630.5
983.517	2568.0086	1510.1	626.35
983.6432	2569.313	1514.55	635
983.7694	2570.6167	1515.6	628.5
983.8955	2571.9197	1509.6	629.1
984.0216	2573.222	1507.4	622.2
984.1476	2574.5236	1505.25	624
984.2737	2575.8246	1502.9	617.5
984.3996	2577.1248	1501.6	615.55
984.5256	2578.4244	1498.05	615.65
984.6515	2579.7232	1488.55	607.05
984.7774	2581.0214	1516.55	608.3
984.9032	2582.3189	1488.1	607.85
985.029	2583.6157	1499.75	614.05
985.1548	2584.9118	1494.3	612.85
985.2806	2586.2072	1479.7	597.8
985.4063	2587.5019	1482.1	603.6
985.5319	2588.7959	1481.8	601
985.6576	2590.0893	1483.25	600.4
985.7832	2591.3819	1478.15	599
985.9087	2592.6739	1481.05	598.3
986.0343	2593.9652	1476.15	594.45
986.1597	2595.2557	1473	591.3
986.2852	2596.5456	1463.2	580.15
986.4106	2597.8348	1461.95	581.95
986.536	2599.1234	1461.65	581.4
986.6614	2600.4112	1459	576.3
986.7867	2601.6983	1465.6	580.35
986.912	2602.9848	1459.6	577.65
987.0372	2604.2705	1454.3	564.55
987.1624	2605.5556	1455.35	574.95
987.2876	2606.84	1448.15	568.05
987.4128	2608.1237	1451	567.65
987.5379	2609.4067	1438.75	556.75
987.6629	2610.689	1457.65	568.2
987.788	2611.9707	1441.2	558.65
987.913	2613.2516	1442.7	557.45
988.0379	2614.5319	1435.5	554.6
988.1629	2615.8115	1430.2	549.45
988.2878	2617.0903	1425.95	543.1
988.4126	2618.3685	1433.25	552.5
988.5375	2619.6461	1423.05	540.4
988.6622	2620.9229	1417.8	537.2
988.787	2622.199	1427.35	545.85
988.9117	2623.4745	1421.6	539
989.0364	2624.7493	1418.7	540.45
989.161	2626.0234	1410.9	531.7
989.2857	2627.2968	1407.1	524.95
989.4102	2628.5695	1407.25	527
989.5348	2629.8415	1405	524.1
989.6593	2631.1128	1398.8	516.05
989.7837	2632.3835	1401.25	521.15
989.9082	2633.6535	1393.25	511.4
990.0326	2634.9228	1394.3	516.75
990.1569	2636.1914	1385.05	504.2
990.2812	2637.4593	1394.85	508.7
990.4055	2638.7265	1396.6	513.45
990.5298	2639.9931	1384.3	502.55
990.654	2641.259	1386.75	504.3
990.7782	2642.5242	1381.25	499.1
990.9023	2643.7887	1381.4	500.5
991.0264	2645.0525	1385.6	505.2
991.1505	2646.3156	1377.55	496.1
991.2745	2647.5781	1365.9	485.15
991.3985	2648.8398	1376.4	496.8
991.5225	2650.1009	1381.5	491
991.6464	2651.3613	1371.75	489.65
991.7703	2652.6211	1366.55	485.4
991.8942	2653.8801	1368.75	489.25
992.018	2655.1385	1374.9	491.15
992.1418	2656.3961	1363.35	482.8
992.2655	2657.6531	1360.6	480.9
992.3892	2658.9094	1366.15	483.65
992.5129	2660.1651	1357.2	478.6
992.6366	2661.42	1359.2	476.8
992.7602	2662.6743	1357.2	474.1
992.8837	2663.9279	1354.9	476.65
993.0073	2665.1808	1354.55	471.85
993.1307	2666.433	1349.8	469
993.2542	2667.6846	1346.6	465.7
993.3776	2668.9354	1354.35	470.4
993.501	2670.1856	1344.95	464.5
993.6244	2671.4351	1344	462.7
993.7477	2672.6839	1344.75	461.4
993.8709	2673.9321	1347.85	465.3
993.9942	2675.1795	1337.45	457
994.1174	2676.4263	1338	457.55
994.2405	2677.6724	1333.75	453.35
994.3637	2678.9179	1340.75	458.6
994.4868	2680.1626	1331.85	451.6
994.6098	2681.4067	1331.55	448.3
994.7328	2682.6501	1331.5	451.05
994.8558	2683.8928	1328.8	449.65
994.9788	2685.1348	1321.35	441.1
995.1017	2686.3761	1323.15	442.1
995.2245	2687.6168	1317.35	434.95
995.3474	2688.8568	1321.15	440.45
995.4702	2690.0961	1316.65	437.2
995.5929	2691.3348	1318.6	437.1
995.7156	2692.5727	1310.65	431.35
995.8383	2693.81	1308.5	428
995.961	2695.0466	1303.15	424.3
996.0836	2696.2826	1316.05	433.2
996.2062	2697.5178	1310	426.6
996.3287	2698.7524	1314.45	433.05
996.4512	2699.9863	1307.05	424.7
996.5737	2701.2195	1299.25	422.25
996.6961	2702.452	1305.35	422.5
996.8185	2703.6839	1298.05	415.75
996.9408	2704.9151	1300.45	421.45
997.0631	2706.1456	1296.7	415.85
997.1854	2707.3755	1294.85	411.85
997.3077	2708.6046	1298.3	415.8
997.4299	2709.8331	1292.6	410
997.552	2711.0609	1287	407.35
997.6742	2712.2881	1296.6	414.3
997.7963	2713.5145	1291.95	407.05
997.9183	2714.7403	1283.8	403.6
998.0403	2715.9654	1285	403.3
998.1623	2717.1899	1294.85	402.3
998.2842	2718.4136	1282.85	404.45
998.4062	2719.6367	1280.2	397.9
998.528	2720.8591	1282.1	396.05
998.6498	2722.0809	1282.45	401.9
998.7716	2723.3019	1279.45	395.5
998.8934	2724.5223	1277.65	396.5
999.0151	2725.7421	1268.65	384.95
999.1368	2726.9611	1273.9	392.15
999.2584	2728.1795	1279.75	394.45
999.38	2729.3972	1263.15	384
999.5016	2730.6142	1280.65	385.55
999.6231	2731.8306	1264.65	383.3
999.7446	2733.0462	1267.65	386.55
999.8661	2734.2612	1266	381.4
999.9875	2735.4756	1261.95	380.65
1000.1089	2736.6892	1248.8	368.95
1000.2302	2737.9022	1253.55	374
1000.3515	2739.1145	1252.3	373.5
1000.4728	2740.3262	1254	366.25
1000.594	2741.5372	1241.5	361.55
1000.7152	2742.7475	1244.1	365.8
1000.8363	2743.9571	1245.85	364.25
1000.9575	2745.1661	1242.3	357.5
1001.0785	2746.3744	1242.6	361.85
1001.1996	2747.582	1239.5	360.15
1001.3206	2748.7889	1236.9	352.95
1001.4415	2749.9952	1233.35	353.1
1001.5625	2751.2008	1234.6	354.5
1001.6833	2752.4057	1233.45	352.8
1001.8042	2753.61	1233.9	352.7
1001.925	2754.8136	1231.25	348.25
1002.0458	2756.0165	1228.7	350.1
1002.1665	2757.2188	1222.75	341.4
1002.2872	2758.4204	1224.75	343.85
1002.4078	2759.6213	1222.75	340.05
1002.5285	2760.8215	1229.1	343.6
1002.649	2762.0211	1218.95	336.75
1002.7696	2763.22	1224	339.5
1002.8901	2764.4182	1217.7	335.45
1003.0106	2765.6158	1212.15	330.9
1003.131	2766.8127	1213.45	333.6
1003.2514	2768.009	1220.5	339.3
1003.3717	2769.2045	1208.65	328.35
1003.492	2770.3994	1213.8	330.25
1003.6123	2771.5936	1210.7	330.2
1003.7325	2772.7872	1201.05	320.4
1003.8527	2773.9801	1203.55	319.95
1003.9729	2775.1723	1224.15	327.1
1004.093	2776.3639	1201.2	322.4
1004.2131	2777.5548	1206.9	326.5
1004.3331	2778.745	1201.15	318.35
1004.4531	2779.9346	1196.6	315.6
1004.5731	2781.1235	1198.95	318.8
1004.693	2782.3117	1193.2	314
1004.8129	2783.4992	1196.15	315.5
1004.9328	2784.6861	1195.85	315.45
1005.0526	2785.8723	1195.5	313.75
1005.1723	2787.0579	1194.6	314
1005.2921	2788.2428	1189.9	309.45
1005.4118	2789.427	1185.35	305.9
1005.5314	2790.6106	1188.75	307.45
1005.651	2791.7935	1189.35	307.6
1005.7706	2792.9757	1181.5	302.7
1005.8902	2794.1573	1187.3	304.35
1006.0097	2795.3382	1181	300.45
1006.1291	2796.5184	1176.15	297.3
1006.2485	2797.698	1180.7	299.35
1006.3679	2798.8769	1185	304.7
1006.4873	2800.0551	1179.6	301.05
1006.6066	2801.2327	1181.35	298.25
1006.7258	2802.4096	1169.9	292.05
1006.8451	2803.5859	1171.55	290.15
1006.9642	2804.7615	1171.9	290.4
1007.0834	2805.9364	1169.2	289.85
1007.2025	2807.1106	1166.25	288
1007.3216	2808.2842	1169.2	288.35
1007.4406	2809.4572	1170.75	291.1
1007.5596	2810.6294	1172.55	291.65
1007.6785	2811.801	1170.6	289.3
1007.7975	2812.972	1167.1	287.4
1007.9163	2814.1423	1162.85	281.9
1008.0352	2815.3119	1164.85	283.7
1008.154	2816.4808	1169.75	290.05
1008.2727	2817.6491	1173.85	294
1008.3914	2818.8167	1170.5	292.45
1008.5101	2819.9837	1175.85	290.95
1008.6288	2821.15	1177.55	296.7
1008.7474	2822.3157	1171.05	291.75
1008.8659	2823.4807	1181.95	302.85
1008.9844	2824.645	1178.5	296.25
1009.1029	2825.8086	1187.5	307.55
1009.2214	2826.9716	1181.1	302.55
1009.3398	2828.134	1196.2	317.7
1009.4581	2829.2957	1195.9	316.65
1009.5764	2830.4567	1196.9	318.3
1009.6947	2831.617	1200.95	321.35
1009.813	2832.7767	1199.85	321.35
1009.9312	2833.9358	1200.1	321.2
1010.0493	2835.0941	1196.85	316.35
1010.1675	2836.2519	1195.5	316.4
1010.2855	2837.4089	1191.8	309.35
1010.4036	2838.5653	1191.75	312.2
1010.5216	2839.7211	1187.1	308.55
1010.6396	2840.8761	1187.3	306.05
1010.7575	2842.0306	1180.6	300.55
1010.8754	2843.1843	1186.1	306.75
1010.9932	2844.3374	1183	303.7
1011.111	2845.4899	1184.45	304.6
1011.2288	2846.6417	1183.5	303.55
1011.3465	2847.7928	1174.1	294.55
1011.4642	2848.9433	1184.1	305.25
1011.5818	2850.0931	1184.75	306.15
1011.6995	2851.2422	1189.8	306.95
1011.817	2852.3907	1182.7	301.9
1011.9345	2853.5385	1181.85	299.3
1012.052	2854.6857	1191.65	301.35
1012.1695	2855.8323	1181.05	304.35
1012.2869	2856.9781	1179.1	300.7
1012.4042	2858.1233	1186.3	308.55
1012.5216	2859.2679	1183.8	302.8
1012.6389	2860.4118	1182.2	302.05
1012.7561	2861.555	1194.7	311
1012.8733	2862.6976	1192.8	312.75
1012.9905	2863.8395	1190.25	311.3
1013.1076	2864.9808	1184.1	303.95
1013.2247	2866.1214	1189.55	310.15
1013.3417	2867.2614	1185	303.75
1013.4587	2868.4007	1184.25	302.95
1013.5757	2869.5393	1191.2	309.05
1013.6926	2870.6773	1191.7	310.55
1013.8095	2871.8146	1193.1	310.7
1013.9263	2872.9513	1190.95	309.7
1014.0431	2874.0874	1189.65	307.75
1014.1599	2875.2227	1188.25	308.55
1014.2766	2876.3574	1185.85	307.3
1014.3933	2877.4915	1187.15	308.1
1014.51	2878.6249	1187.4	308.85
1014.6266	2879.7577	1187.15	306.5
1014.7431	2880.8898	1198.45	308.45
1014.8596	2882.0212	1187.75	309.2
1014.9761	2883.152	1185.8	306.45
1015.0925	2884.2821	1186.6	307.6
1015.2089	2885.4116	1184.95	305.05
1015.3253	2886.5405	1189.35	312.3
1015.4416	2887.6686	1193.85	310.85
1015.5579	2888.7962	1186.7	308.55
1015.6741	2889.923	1183.6	305.3
1015.7903	2891.0493	1187.55	310
1015.9065	2892.1748	1185.35	305.05
1016.0226	2893.2997	1183.05	304.1
1016.1387	2894.424	1177.9	298.25
1016.2547	2895.5476	1180	301.55
1016.3707	2896.6706	1174.5	294.7
1016.4866	2897.7929	1183.7	305.75
1016.6025	2898.9145	1181.75	301.8
1016.7184	2900.0355	1180.95	300.75
1016.8342	2901.1559	1183	302.85
1016.95	2902.2756	1178.8	299.8
1017.0658	2903.3946	1173.3	294.25
1017.1815	2904.513	1177.95	295.3
1017.2971	2905.6308	1170.7	292.1
1017.4127	2906.7479	1171.25	291.05
1017.5283	2907.8643	1174.15	296.3
1017.6439	2908.9801	1170.1	289
1017.7594	2910.0953	1168.35	288.7
1017.8748	2911.2098	1171.6	289.65
1017.9902	2912.3236	1170.2	281.95
1018.1056	2913.4368	1166.75	282.25
1018.2209	2914.5494	1165.15	284.65
1018.3362	2915.6613	1164.85	277.4
1018.4515	2916.7725	1164.05	282.9
1018.5667	2917.8831	1161.15	281.2
1018.6819	2918.9931	1156.1	275.05
1018.797	2920.1024	1154.95	272.3
1018.9121	2921.211	1153.45	275.45
1019.0271	2922.319	1148.8	269.55
1019.1421	2923.4264	1148.4	269.35
1019.2571	2924.5331	1142.65	263.85
1019.372	2925.6391	1148.9	271.6
1019.4869	2926.7445	1139.3	261.7
1019.6017	2927.8493	1146.75	264.85
1019.7165	2928.9534	1149.25	270.8
1019.8313	2930.0569	1146.25	262.95
1019.946	2931.1597	1149	268.85
1020.0606	2932.2619	1146.15	268.3
1020.1753	2933.3634	1140.4	261.4
1020.2899	2934.4643	1155.5	270.3
1020.4044	2935.5645	1148.05	262.2
1020.5189	2936.6641	1151.7	269.25
1020.6334	2937.763	1142.75	264.6
1020.7478	2938.8613	1140.9	262.85
1020.8622	2939.959	1147.2	262.55
1020.9765	2941.056	1135.3	257.65
1021.0908	2942.1523	1140.55	259.75
1021.2051	2943.248	1131.65	251.6
1021.3193	2944.3431	1119.45	238.85
1021.4334	2945.4375	1118.95	238.85
1021.5476	2946.5313	1117.95	240.6
1021.6617	2947.6244	1113.05	234.65
1021.7757	2948.7169	1099.15	221
1021.8897	2949.8087	1102.45	222.4
1022.0037	2950.8999	1094.35	214.9
1022.1176	2951.9904	1090.05	212.7
1022.2315	2953.0803	1091.85	212.1
1022.3453	2954.1696	1087.4	209.15
1022.4591	2955.2582	1083.3	205.8
1022.5728	2956.3462	1079	198.65
1022.6865	2957.4335	1077.35	198.25
1022.8002	2958.5202	1079.8	196.8
1022.9138	2959.6062	1078.2	199.95
1023.0274	2960.6916	1073.85	193.85
1023.141	2961.7764	1073.6	194.25
1023.2545	2962.8605	1076.55	197.2
1023.3679	2963.9439	1076.05	196.95
1023.4813	2965.0267	1078.8	198.85
1023.5947	2966.1089	1093.9	191.55
1023.708	2967.1905	1068.7	190.05
1023.8213	2968.2714	1065.85	186.8
1023.9346	2969.3516	1066.3	188
1024.0478	2970.4312	1073.7	186.9
1024.1609	2971.5102	1067.25	190.25
1024.274	2972.5885	1067.8	189.5
1024.3871	2973.6662	1070.25	186.15
1024.5002	2974.7432	1066.7	189.9
1024.6132	2975.8196	1063.1	183.3
1024.7261	2976.8954	1059.4	180.65
1024.839	2977.9705	1063.65	183.5
1024.9519	2979.045	1061.65	184.4
1025.0647	2980.1188	1059.05	178.2
1025.1775	2981.192	1058.65	180.9
1025.2902	2982.2645	1063.7	184.85
1025.4029	2983.3364	1060.85	180.75
1025.5156	2984.4077	1056.05	175.35
1025.6282	2985.4783	1057.1	171.95
1025.7407	2986.5483	1051.15	172.65
1025.8532	2987.6177	1049.65	169.15
1025.9657	2988.6864	1047.85	168.1
1026.0782	2989.7545	1050.95	171.1
1026.1906	2990.8219	1042.25	164.55
1026.3029	2991.8887	1047.65	167.15
1026.4152	2992.9548	1037.25	157.85
1026.5275	2994.0204	1038.35	159.85
1026.6397	2995.0852	1034.5	158.1
1026.7519	2996.1495	1036.6	155.5
1026.864	2997.2131	1034.05	154.35
1026.9761	2998.276	1028.35	150.15
1027.0882	2999.3383	1028	148.75
1027.2002	3000.4	1030.8	152.15
1027.3122	3001.4611	1027.85	149.5
1027.4241	3002.5215	1024.1	143.6
1027.536	3003.5812	1021.25	143.85
1027.6478	3004.6404	1021.75	143.65
1027.7596	3005.6989	1019.7	137.95
1027.8714	3006.7567	1017.85	139.15
1027.9831	3007.8139	1043.5	140.7
1028.0947	3008.8705	1019.95	141.45
1028.2064	3009.9264	1020.85	137
1028.3179	3010.9818	1017.5	139.65
1028.4295	3012.0364	1015	135.75
1028.541	3013.0905	1014.15	134.55
1028.6524	3014.1439	1013.85	134.1
1028.7638	3015.1966	1015.25	137.6
1028.8752	3016.2487	1011.85	133.5
1028.9865	3017.3002	1016.2	131.35
1029.0978	3018.3511	1009.5	131.9
1029.209	3019.4013	1011.5	134
1029.3202	3020.4509	1008.75	130.85
1029.4314	3021.4998	1010.2	131.6
1029.5425	3022.5481	1008.15	129.85
1029.6535	3023.5958	1009.3	129.6
1029.7645	3024.6428	1009.65	127.65
1029.8755	3025.6892	1009.1	130
1029.9864	3026.735	1004.9	125.05
1030.0973	3027.7802	1005.5	125.85
1030.2082	3028.8247	1004.7	126.65
1030.319	3029.8685	1002.95	124.55
1030.4297	3030.9118	999.75	118.1
1030.5404	3031.9544	1003.95	125.45
1030.6511	3032.9963	999	121.3
1030.7617	3034.0376	1002.2	124.8
1030.8723	3035.0783	1004.1	122.85
1030.9829	3036.1184	1003.05	123.05
1031.0934	3037.1578	1000.55	121.15
1031.2038	3038.1966	1002.5	123.55
1031.3142	3039.2348	1002.6	125.35
1031.4246	3040.2723	1008.5	119.8
1031.5349	3041.3092	996.8	119.05
1031.6452	3042.3455	998.9	118.9
1031.7554	3043.3811	999.35	120.05
1031.8656	3044.4161	997.65	116.2
1031.9758	3045.4505	997.25	120.55
1032.0859	3046.4842	996.6	117.35
1032.1959	3047.5173	995.9	118
1032.3059	3048.5498	996.65	116.6
1032.4159	3049.5816	992.95	114.2
1032.5258	3050.6128	998.6	118.4
1032.6357	3051.6434	995.2	115.45
1032.7455	3052.6734	997.25	116
1032.8553	3053.7027	992.25	112.15
1032.9651	3054.7314	994.3	116.3
1033.0748	3055.7594	996.15	117.2
1033.1845	3056.7868	993.85	114.25
1033.2941	3057.8136	992.15	111.75
1033.4037	3058.8398	992.45	114.1
1033.5132	3059.8653	990.7	112.05
1033.6227	3060.8902	992.6	113.25
1033.7321	3061.9145	989.75	111.05
1033.8415	3062.9381	989.55	109.95
1033.9509	3063.9612	1008.25	111.1
1034.0602	3064.9835	994.15	117.8
1034.1694	3066.0053	991.55	111.6
1034.2787	3067.0264	991.45	114.25
1034.3878	3068.0469	988.95	109.3
1034.497	3069.0668	991.45	110.65
1034.6061	3070.086	988.75	111.95
1034.7151	3071.1046	993.6	114.25
1034.8241	3072.1226	989.25	110.1
1034.9331	3073.1399	983.15	104.3
1035.042	3074.1567	985.95	104.75
1035.1508	3075.1727	991.3	112.65
1035.2597	3076.1882	984.9	105.95
1035.3684	3077.203	981.7	102.9
1035.4772	3078.2173	984.95	106.95
1035.5859	3079.2308	984.15	101.65
1035.6945	3080.2438	985.05	103.3
1035.8031	3081.2561	982.75	105.65
1035.9117	3082.2678	979.85	102
1036.0202	3083.2789	978.3	100.55
1036.1286	3084.2893	976.5	96.95
1036.2371	3085.2991	975.75	95.55
1036.3454	3086.3083	987.9	106.15
1036.4538	3087.3169	979.2	97.7
1036.562	3088.3248	978.45	99.3
1036.6703	3089.3321	979.2	98.6
1036.7785	3090.3388	976.05	96.95
1036.8866	3091.3449	979.7	101.7
1036.9948	3092.3503	981.25	101.35
1037.1028	3093.3551	974.05	97.1
1037.2108	3094.3593	972.8	95.25
1037.3188	3095.3629	968.65	91.55
1037.4267	3096.3658	972.45	92.7
1037.5346	3097.3681	970.25	92.65
1037.6425	3098.3698	973.1	91.75
1037.7503	3099.3708	981.25	96.8
1037.858	3100.3713	969.95	93.05
1037.9657	3101.3711	971.45	92.9
1038.0734	3102.3702	1107.05	88.55
1038.181	3103.3688	971.8	89.55
1038.2886	3104.3667	970.15	92.25
1038.3961	3105.364	966.65	89.85
1038.5036	3106.3607	970.25	91.6
1038.611	3107.3568	970.2	89.35
1038.7184	3108.3522	966.75	87.8
1038.8257	3109.347	966.5	86.75
1038.933	3110.3412	967.85	87.05
1039.0403	3111.3348	964.7	86.7
1039.1475	3112.3277	963.45	85.65
1039.2547	3113.32	962.55	86.35
1039.3618	3114.3117	963.3	83.9
1039.4689	3115.3028	964.9	87
1039.5759	3116.2932	968.2	88.35
1039.6829	3117.2831	968	85.6
1039.7898	3118.2723	960.25	80.5
1039.8967	3119.2608	960.6	82.95
1040.0035	3120.2488	961.7	81.2
1040.1103	3121.2361	960.3	81.9
1040.2171	3122.2229	957	79.8
1040.3238	3123.209	957.15	76.3
1040.4305	3124.1944	958.3	82.2
1040.5371	3125.1793	959.5	78.15
1040.6437	3126.1635	956.4	76.8
1040.7502	3127.1471	957.95	80.1
1040.8567	3128.1301	957.35	78.7
1040.9631	3129.1125	956.9	79.55
1041.0695	3130.0942	955.05	76.3
1041.1759	3131.0753	962.65	76.25
1041.2822	3132.0558	958.1	75.6
1041.3884	3133.0357	952.6	75.05
1041.4946	3134.015	955.75	76.35
1041.6008	3134.9936	955.65	76.7
1041.7069	3135.9716	975.95	75.8
1041.813	3136.949	954.8	75.15
1041.919	3137.9258	958.45	75.55
1042.025	3138.902	957.95	74.9
1042.1309	3139.8775	950.5	71.95
1042.2368	3140.8524	954.65	74.3
1042.3427	3141.8267	951.55	71.75
1042.4485	3142.8004	950.75	70.3
1042.5542	3143.7735	957.6	72.8
1042.6599	3144.7459	956.7	75.95
1042.7656	3145.7178	949.7	69.9
1042.8712	3146.689	948.35	70.8
1042.9768	3147.6596	951.9	71
1043.0823	3148.6295	947.1	67.7
1043.1878	3149.5989	949.05	69.3
1043.2932	3150.5676	944.95	68.8
1043.3986	3151.5357	944.6	66.9
1043.5039	3152.5032	946.55	70.45
1043.6092	3153.4701	947.3	69.8
1043.7145	3154.4364	948	67
1043.8197	3155.402	945.8	68.35
1043.9248	3156.367	944.05	64.45
1044.03	3157.3315	983	67.85
1044.135	3158.2952	946.5	69.4
1044.24	3159.2584	945	66.5
1044.345	3160.221	945.5	66.5
1044.4499	3161.1829	944.75	65.6
1044.5548	3162.1442	946.8	71.5
1044.6596	3163.105	942.3	60.75
1044.7644	3164.065	947	68.45
1044.8692	3165.0245	942.4	60.15
1044.9739	3165.9834	941.5	65.1
1045.0785	3166.9416	939.15	62.9
1045.1831	3167.8993	942.1	63.95
1045.2877	3168.8563	942.15	63.9
1045.3922	3169.8127	940.25	61.75
1045.4966	3170.7684	940.7	61.9
1045.6011	3171.7236	940.3	60.55
1045.7054	3172.6782	941.35	62.35
1045.8098	3173.6321	938.55	58.4
1045.914	3174.5854	943.75	60.9
1046.0183	3175.5381	940.75	62.35
1046.1224	3176.4902	939.1	61.9
1046.2266	3177.4417	937	59.9
1046.3307	3178.3926	937.2	58.8
1046.4347	3179.3428	937.85	61.15
1046.5387	3180.2924	935.25	56.65
1046.6427	3181.2415	937.85	59.8
1046.7466	3182.1899	936.6	55.8
1046.8504	3183.1377	935	57.05
1046.9542	3184.0848	936.95	55.2
1047.058	3185.0314	936.3	56.85
1047.1617	3185.9773	938	60.85
1047.2654	3186.9227	934.45	54.65
1047.369	3187.8674	934.65	55.5
1047.4726	3188.8115	938.15	54.9
1047.5761	3189.755	933.8	54.65
1047.6796	3190.6979	934.1	57.35
1047.783	3191.6402	933.25	53.45
1047.8864	3192.5818	934.65	56.2
1047.9898	3193.5229	948	52.15
1048.0931	3194.4633	932	53.35
1048.1963	3195.4031	932.25	52.25
1048.2995	3196.3423	928.85	49.6
1048.4027	3197.2809	932.3	54.05
1048.5058	3198.2189	931.05	51.1
1048.6089	3199.1563	947.45	49.45
1048.7119	3200.0931	929.75	52.95
1048.8148	3201.0292	932.65	54.6
1048.9178	3201.9648	929.1	50.25
1049.0206	3202.8997	933.65	52.15
1049.1235	3203.834	927.75	49.95
1049.2262	3204.7677	931.15	51.5
1049.329	3205.7008	932.85	52.3
1049.4317	3206.6333	931.1	52.8
1049.5343	3207.5652	928.95	47.25
1049.6369	3208.4964	929.15	51.7
1049.7394	3209.4271	926.15	49.45
1049.8419	3210.3571	928.6	49.85
1049.9444	3211.2865	927.15	47.6
1050.0468	3212.2154	929.35	50.55
1050.1491	3213.1436	933.2	52.15
1050.2514	3214.0712	937	50.95
1050.3537	3214.9982	926.6	48.15
1050.4559	3215.9246	929.35	49.5
1050.5581	3216.8503	924.45	46.85
1050.6602	3217.7755	927.15	47.05
1050.7623	3218.7001	924.85	46.9
1050.8643	3219.624	925.65	48.3
1050.9663	3220.5473	924.1	44.5
1051.0682	3221.4701	926.15	46.9
1051.1701	3222.3922	926.85	46.5
1051.2719	3223.3137	922.7	44.55
1051.3737	3224.2346	924.9	47.25
1051.4754	3225.1549	922.75	44
1051.5771	3226.0746	923.15	46.75
1051.6788	3226.9937	924.4	45.8
1051.7804	3227.9121	922.85	45.35
1051.8819	3228.83	920.65	42.7
1051.9834	3229.7473	921.4	40.8
1052.0849	3230.6639	923.5	44.15
1052.1863	3231.5799	922.35	44.55
1052.2876	3232.4954	922.35	42.45
1052.3889	3233.4102	921.5	43.05
1052.4902	3234.3244	922.8	44.5
1052.5914	3235.238	921.25	44.3
1052.6926	3236.151	946.4	44.25
1052.7937	3237.0634	921.85	45.5
1052.8948	3237.9752	918.9	40.4
1052.9958	3238.8864	921.35	44.65
1053.0968	3239.797	921.3	42.05
1053.1977	3240.7069	919.95	39.4
1053.2986	3241.6163	925.9	45.5
1053.3994	3242.5251	918.7	41
1053.5002	3243.4332	920.45	43.3
1053.6009	3244.3408	919	40.7
1053.7016	3245.2477	920.3	42.55
1053.8022	3246.154	918.2	37.45
1053.9028	3247.0598	918.35	38.6
1054.0034	3247.9649	919.05	41.9
1054.1039	3248.8694	918.15	38.8
1054.2043	3249.7733	917.1	39.75
1054.3047	3250.6766	918.35	40.65
1054.4051	3251.5793	919	40.5
1054.5054	3252.4814	915.75	37.65
1054.6056	3253.3829	916.8	37.35
1054.7058	3254.2838	915.85	38.8
1054.806	3255.1841	915.8	37.15
1054.9061	3256.0838	914.55	34.7
1055.0061	3256.9829	914.2	38.7
1055.1062	3257.8814	915.65	35.7
1055.2061	3258.7792	916.75	36.85
1055.306	3259.6765	916.85	36.15
1055.4059	3260.5731	911.3	33.65
1055.5057	3261.4692	913.05	34.2
1055.6055	3262.3647	913.35	33.95
1055.7052	3263.2595	913.55	35.45
1055.8049	3264.1538	909.85	32.2
1055.9045	3265.0474	910.45	33
1056.0041	3265.9404	911.9	34.8
1056.1036	3266.8329	910.1	33.05
1056.2031	3267.7247	921.9	35.55
1056.3025	3268.616	909	30.9
1056.4019	3269.5066	908.75	29.15
1056.5013	3270.3966	909.6	28.6
1056.6005	3271.286	906.4	29.3
