Software Version:	3.9.2.0
Unit SN:	10000200
Spectrometer SN:	6960
Date:	3/6/2024 9:32:15 AM
Data Line Index:	25
Spectral Points:	2048
Integration time (ms):	125
Averages:	20
Delay (ms):	30
Sequence Number:	1
Processing:	dark subtract
Laser Power (mW):	305
Laser Current (mA):	824
Laser Diode Temp (C):	25.1
Laser Case Temp (C):	23.6
System Temp (C):	23.4
Spectrometer Temp (C):	21
CCD Temp (C):	-0.008
Secondary Temp (C):	20.01
Heatsink Temp (C):	17.641
CCDPCB Temp (C):	30.149
SecondaryPCB Temp (C):	25.347

Wavelength	RamanShift	Raw Counts	Dark Subtracted
787.061	30.1047	519.05	112.2
787.2016	32.3739	522.85	116.5
787.3422	34.6426	533.7	127.9
787.4828	36.9109	541.5	132.85
787.6235	39.1787	556.45	144.3
787.7642	41.4461	567.15	152.25
787.9049	43.7131	585.65	166.65
788.0456	45.9796	599.35	177.3
788.1863	48.2456	607.1	180.1
788.3271	50.5112	619.9	188.6
788.4679	52.7764	633	199.6
788.6087	55.0411	649.55	211.9
788.7496	57.3054	667.95	224.2
788.8904	59.5692	681.55	238
789.0313	61.8326	703.65	257.3
789.1722	64.0955	722.8	273.45
789.3132	66.3579	746.8	292.65
789.4541	68.6199	780.35	322.7
789.5951	70.8815	834.6	373.65
789.7361	73.1426	951.75	486
789.8771	75.4032	1241.5	771.25
790.0181	77.6634	1972.85	1501.8
790.1592	79.9231	3713.95	3239.15
790.3003	82.1824	7561.7	7082.05
790.4414	84.4412	14310.55	13819.9
790.5825	86.6995	23430.35	22931.25
790.7237	88.9574	32191.45	31683
790.8648	91.2148	38443.5	37930.05
791.006	93.4717	41690.05	41172.35
791.1472	95.7282	43038.6	42518.3
791.2885	97.9842	43726.15	43204.65
791.4297	100.2398	44085.6	43563.85
791.571	102.4949	43884.8	43359.7
791.7123	104.7495	44261.6	43731.55
791.8536	107.0036	44018.8	43486.2
791.9949	109.2573	44539.1	44010.3
792.1363	111.5105	44029.75	43496.1
792.2777	113.7632	44524	43987.05
792.4191	116.0154	44584.3	44038.05
792.5605	118.2672	44895.2	44355.1
792.7019	120.5185	44891.8	44349.85
792.8434	122.7693	44954.5	44408.95
792.9849	125.0197	44865.75	44313.4
793.1264	127.2696	45381.65	44827.7
793.2679	129.519	45575.2	45018
793.4094	131.7679	45938.7	45382.45
793.551	134.0163	44997	44435.75
793.6926	136.2642	45469.1	44905.45
793.8342	138.5117	45997.5	45431.1
793.9758	140.7587	45907.5	45338.9
794.1175	143.0052	46033.55	45465.1
794.2591	145.2512	45612.85	45040.6
794.4008	147.4967	46172.2	45600.1
794.5425	149.7417	45950.05	45374.25
794.6842	151.9863	46101.2	45519.9
794.826	154.2304	45601.4	45016.3
794.9677	156.4739	45959.45	45367.75
795.1095	158.717	46254.65	45664.4
795.2513	160.9596	46208.85	45614.05
795.3931	163.2017	45805.7	45210
795.535	165.4433	46364.75	45763.95
795.6768	167.6844	46076.2	45475.7
795.8187	169.925	46381.2	45776.6
795.9606	172.1651	46289.5	45681.3
796.1025	174.4047	46143.5	45528.45
796.2445	176.6439	46295.75	45680.55
796.3864	178.8825	46405.55	45789.25
796.5284	181.1206	46602.4	45982.8
796.6704	183.3582	46676.3	46052.9
796.8124	185.5954	46282.3	45656.25
796.9544	187.832	46595.75	45965.75
797.0965	190.0681	46465	45832.65
797.2386	192.3037	46898.75	46261.1
797.3806	194.5388	47414.35	46775.1
797.5228	196.7734	46433.05	45794.1
797.6649	199.0075	47192.3	46553.85
797.807	201.2411	47222.75	46582.4
797.9492	203.4742	47616.7	46969.65
798.0914	205.7068	47725.85	47075.4
798.2336	207.9389	47794.45	47148.5
798.3758	210.1704	47731.4	47091.55
798.518	212.4015	48221.85	47589.95
798.6603	214.632	47507.85	46880.15
798.8025	216.862	48099.65	47474.95
798.9448	219.0915	48226.85	47598.7
799.0871	221.3205	47902.5	47272.05
799.2294	223.549	48346.9	47721.95
799.3718	225.777	48408.9	47778.2
799.5141	228.0044	48489.2	47851.55
799.6565	230.2314	48552.1	47912.5
799.7989	232.4578	48528.7	47885.75
799.9413	234.6837	48547.45	47894.75
800.0837	236.909	49370.4	48717.55
800.2262	239.1339	48314.7	47639.2
800.3687	241.3582	48786.2	48125.2
800.5111	243.582	48774.95	48083.1
800.6536	245.8053	48965.35	48286.4
800.7961	248.0281	48923.7	48248.1
800.9387	250.2503	49172.15	48495.65
801.0812	252.472	48977.75	48299.2
801.2238	254.6932	49044.1	48365.6
801.3664	256.9139	49018.25	48336.65
801.509	259.134	49807.35	49123.6
801.6516	261.3536	48728.15	48046.5
801.7942	263.5727	49548.15	48863.4
801.9369	265.7912	49201.85	48518.8
802.0795	268.0092	49332.65	48647.25
802.2222	270.2267	49313.7	48625.85
802.3649	272.4436	49246.15	48558.6
802.5076	274.6601	49484.85	48785.5
802.6504	276.8759	49575.15	48879.95
802.7931	279.0913	49683.05	48988.95
802.9359	281.3061	49528.25	48833.45
803.0787	283.5204	49763.5	49066.35
803.2215	285.7341	49671.05	48970.2
803.3643	287.9473	50145.6	49433.3
803.5071	290.16	49722.5	49017.25
803.6499	292.3721	50342.35	49644.6
803.7928	294.5837	49486.95	48786.35
803.9357	296.7947	49365.45	48662.55
804.0786	299.0052	49836.45	49134.6
804.2215	301.2152	49550.9	48845.1
804.3644	303.4246	50005.45	49303.45
804.5074	305.6334	49879.7	49176.95
804.6503	307.8418	49450	48742.6
804.7933	310.0495	49711.75	49004.95
804.9363	312.2568	49542.1	48834.85
805.0793	314.4635	49446.6	48735.4
805.2223	316.6696	49527.55	48814.4
805.3653	318.8752	49805	49082.3
805.5084	321.0802	48938.05	48224.5
805.6514	323.2847	49197.55	48480.5
805.7945	325.4887	49337.9	48620.55
805.9376	327.692	49069.75	48350.3
806.0807	329.8949	49380.3	48662.05
806.2238	332.0972	49299.5	48576.35
806.367	334.2989	49498.55	48773.45
806.5101	336.5001	49754.55	49031.45
806.6533	338.7007	49204.2	48478.25
806.7965	340.9008	49505.15	48776.85
806.9397	343.1003	49445	48714.8
807.0829	345.2992	49667.3	48935.2
807.2261	347.4976	49349.6	48618
807.3693	349.6955	49461	48724.4
807.5126	351.8927	49321.05	48582.15
807.6559	354.0895	49425.15	48676.4
807.7991	356.2856	49400.95	48662.25
807.9424	358.4812	49565.65	48824.4
808.0857	360.6763	49306	48563.65
808.2291	362.8707	49314.45	48572.25
808.3724	365.0646	49328.5	48580.9
808.5158	367.258	49328.15	48579.8
808.6591	369.4508	49093.7	48343.35
808.8025	371.643	49401.9	48652.35
808.9459	373.8346	49259.3	48505.7
809.0893	376.0257	49216.4	48459.6
809.2327	378.2162	49062.5	48308.7
809.3762	380.4062	48948.1	48193
809.5196	382.5956	48948.5	48192.8
809.6631	384.7844	49068.45	48321.25
809.8066	386.9726	48981.8	48232.7
809.9501	389.1603	49053.3	48306.45
810.0936	391.3474	48685.05	47886.65
810.2371	393.5339	48980.95	48231.9
810.3806	395.7199	48541.3	47796.45
810.5241	397.9052	48569	47821.6
810.6677	400.09	48610.8	47858.8
810.8113	402.2743	48733.05	47983.3
810.9548	404.4579	48699.7	47947.35
811.0984	406.641	48593.05	47839.15
811.2421	408.8235	48835.5	48080.05
811.3857	411.0054	48749.75	47990.4
811.5293	413.1868	48802.2	48039.8
811.673	415.3675	48804.45	48039.25
811.8166	417.5477	48835.3	48067
811.9603	419.7273	48724.7	47955.2
812.104	421.9064	48530.35	47752.6
812.2477	424.0848	48448.05	47677.65
812.3914	426.2627	48410.55	47639.15
812.5351	428.4399	48149.7	47377.1
812.6788	430.6166	48009.25	47231.6
812.8226	432.7928	48042.75	47265.95
812.9663	434.9683	47817.45	47040.85
813.1101	437.1432	47838.6	47059.05
813.2539	439.3176	47800.65	47023.1
813.3977	441.4914	47510.6	46734
813.5415	443.6645	47531.85	46753.35
813.6853	445.8371	47356.65	46578.6
813.8291	448.0091	47152.7	46374.2
813.973	450.1806	47064.25	46284.85
814.1168	452.3514	46921.85	46140.95
814.2607	454.5216	46916.75	46126.55
814.4046	456.6913	46740.5	45955.95
814.5485	458.8603	46829.25	46046.9
814.6924	461.0288	46767.75	45984.55
814.8363	463.1967	46708.4	45925.5
814.9802	465.3639	46818.35	46032.4
815.1241	467.5306	46558.75	45773.15
815.2681	469.6967	46463.4	45678.6
815.412	471.8622	46395.65	45609.55
815.556	474.0271	46400.65	45614.85
815.7	476.1914	46423.3	45633
815.844	478.3551	46299.4	45511.55
815.988	480.5182	46477	45689.65
816.132	482.6807	46401.8	45610.75
816.276	484.8426	46467.9	45681.8
816.4201	487.0039	46591.05	45802.3
816.5641	489.1647	46583.55	45791.55
816.7082	491.3248	46561.75	45770.5
816.8522	493.4843	46599.35	45808.65
816.9963	495.6432	46530.5	45737.95
817.1404	497.8015	46336.2	45541.9
817.2845	499.9592	46430.25	45633.95
817.4286	502.1163	46322.1	45525.8
817.5727	504.2728	46185.65	45387.5
817.7168	506.4287	46276.3	45483.35
817.861	508.5839	46042.65	45247.45
818.0051	510.7386	46050.2	45255.3
818.1493	512.8927	46122.85	45317.45
818.2935	515.0461	46138.2	45336.2
818.4377	517.199	46084.2	45282.95
818.5818	519.3512	46091.6	45290.6
818.726	521.5029	46020.1	45213.1
818.8703	523.6539	46041.05	45240.15
819.0145	525.8043	45958.15	45153.65
819.1587	527.9541	45963.8	45156.4
819.303	530.1033	45837.65	45033.15
819.4472	532.2519	45753.05	44947.25
819.5915	534.3999	45675.55	44868.5
819.7357	536.5472	45662.25	44854.55
819.88	538.694	45601.05	44793.8
820.0243	540.8401	45700.85	44893.4
820.1686	542.9856	45671.9	44861.65
820.3129	545.1305	45626.05	44811.5
820.4572	547.2748	45682.6	44873.95
820.6016	549.4185	45630.85	44818.35
820.7459	551.5615	45547.3	44736.5
820.8902	553.704	45565.5	44754.65
821.0346	555.8458	45412.75	44603.9
821.1789	557.987	45455.6	44650.5
821.3233	560.1276	45433.85	44622.3
821.4677	562.2675	45511.25	44701.9
821.6121	564.4069	45443.75	44632.8
821.7565	566.5456	45395.85	44585.35
821.9009	568.6837	45381.55	44571.5
822.0453	570.8212	45156.1	44343.6
822.1897	572.958	45022.1	44207.15
822.3342	575.0942	44951.25	44140.15
822.4786	577.2299	44748.95	43935.45
822.6231	579.3648	44668.4	43854.1
822.7675	581.4992	44508.1	43693
822.912	583.6329	44327.8	43515.95
823.0565	585.766	44269.55	43454.2
823.201	587.8985	44257.45	43443.95
823.3454	590.0304	44060.5	43232.6
823.4899	592.1616	44062.3	43241.75
823.6345	594.2922	44033.65	43213.35
823.779	596.4222	43849.85	43030.15
823.9235	598.5515	43780.75	42959.95
824.068	600.6802	43656	42834
824.2126	602.8083	43404.9	42586.95
824.3571	604.9358	43421.95	42603.5
824.5017	607.0626	43302.9	42481.55
824.6462	609.1888	43285.3	42461.2
824.7908	611.3144	43262.85	42437.95
824.9354	613.4393	43114.05	42291.4
825.08	615.5636	43140.5	42315.15
825.2246	617.6873	43173.3	42349.9
825.3692	619.8103	43224.25	42397.75
825.5138	621.9327	43111.05	42284.5
825.6584	624.0544	43052.2	42227.9
825.803	626.1756	42971.1	42145.4
825.9477	628.2961	42871.5	42045.7
826.0923	630.4159	42733.95	41907.15
826.237	632.5351	42776.4	41948.45
826.3816	634.6537	42741.3	41913.45
826.5263	636.7716	42614.95	41784.35
826.6709	638.8889	42629.85	41798.55
826.8156	641.0056	42703.95	41874.8
826.9603	643.1216	42589.35	41759.95
827.105	645.237	42690.2	41858.55
827.2497	647.3518	42576.4	41747.75
827.3944	649.4659	42551.6	41721.85
827.5391	651.5793	42433.75	41603.15
827.6838	653.6922	42323.1	41493.7
827.8285	655.8043	42280.85	41451.75
827.9733	657.9159	42298.85	41464.95
828.118	660.0268	42091.1	41257.9
828.2627	662.137	42048.8	41216.7
828.4075	664.2466	42081.15	41246.5
828.5522	666.3556	41989.2	41157.9
828.697	668.4639	41845.7	41009.45
828.8418	670.5716	41889.8	41056.65
828.9865	672.6786	41877.15	41040.6
829.1313	674.785	41714.2	40876.55
829.2761	676.8907	41597.05	40759.8
829.4209	678.9958	41566.6	40732.15
829.5657	681.1002	41427.15	40590
829.7105	683.204	41406.1	40564.6
829.8553	685.3072	41327.5	40486.9
830.0001	687.4097	41304	40466.7
830.1449	689.5115	41267.5	40426.25
830.2898	691.6127	41228.55	40392.65
830.4346	693.7132	41119.85	40279.15
830.5794	695.8131	41201.65	40345.4
830.7243	697.9123	41123.35	40283.45
830.8691	700.0109	41058.65	40217.65
831.014	702.1089	41028.55	40188.05
831.1588	704.2061	40945.05	40105.15
831.3037	706.3028	40980	40135.2
831.4486	708.3987	40879.7	40037.75
831.5935	710.4941	40830.5	39987.25
831.7383	712.5887	40815.5	39970.7
831.8832	714.6827	40791.95	39945.35
832.0281	716.7761	40784.75	39944.25
832.173	718.8688	40711	39869.05
832.3179	720.9608	40631.6	39785.4
832.4628	723.0522	40676.25	39828.75
832.6077	725.1429	40560.45	39715.75
832.7527	727.233	40547.7	39701.7
832.8976	729.3224	40611.55	39768.1
833.0425	731.4112	40493.1	39647.05
833.1874	733.4993	40417.7	39569.65
833.3324	735.5867	40280.25	39434.95
833.4773	737.6735	40203.8	39356.3
833.6222	739.7596	40070.95	39223.5
833.7672	741.845	39954.9	39105.75
833.9122	743.9298	39850.65	39000.5
834.0571	746.014	39793.9	38948.3
834.2021	748.0974	39793.3	38944.35
834.347	750.1802	39635.25	38786.4
834.492	752.2624	39509.05	38659.35
834.637	754.3439	39409.05	38556.75
834.782	756.4247	39281.4	38422.3
834.9269	758.5048	39136.45	38287.75
835.0719	760.5843	39100.5	38250.2
835.2169	762.6631	39015.5	38165.75
835.3619	764.7413	38929.45	38081.7
835.5069	766.8188	38985.1	38135.1
835.6519	768.8956	38901.45	38048.65
835.7969	770.9718	38996.75	38147.75
835.9419	773.0473	38784.05	37933.8
836.0869	775.1221	38724.2	37874.15
836.232	777.1962	38527.7	37676.85
836.377	779.2697	38528.1	37676.85
836.522	781.3426	38469.6	37597.45
836.667	783.4147	38456.5	37603.7
836.8121	785.4862	38459.1	37609.75
836.9571	787.557	38300.25	37447.85
837.1021	789.6271	38148.6	37293.45
837.2472	791.6966	37978.9	37125.55
837.3922	793.7654	37796.95	36941.95
837.5373	795.8335	37794.6	36939.3
837.6823	797.901	37640.65	36790.1
837.8274	799.9678	37646.05	36791.6
837.9724	802.0339	37500.5	36648.45
838.1175	804.0993	37527.4	36662.55
838.2626	806.1641	37367.7	36511.15
838.4076	808.2282	37280.65	36426.75
838.5527	810.2916	37310.4	36452.95
838.6978	812.3544	37228.95	36375.15
838.8428	814.4164	37135.65	36280.7
838.9879	816.4778	37163.3	36306.3
839.133	818.5385	37001.75	36148.25
839.2781	820.5986	37044.6	36189.55
839.4232	822.658	37050.8	36192.35
839.5682	824.7166	36937.2	36080.65
839.7133	826.7747	37060.2	36206.35
839.8584	828.832	36971.85	36115.2
840.0035	830.8886	36875.3	36017.4
840.1486	832.9446	36870.75	36014.8
840.2937	834.9999	36700.5	35843.35
840.4388	837.0545	36667.05	35805.15
840.5839	839.1085	36570.3	35709.85
840.729	841.1618	36469.65	35607.3
840.8741	843.2143	36359.4	35500.4
841.0192	845.2662	36157.15	35298.6
841.1643	847.3175	36159.85	35303.25
841.3095	849.368	36067.55	35208.85
841.4546	851.4179	36039.75	35181.75
841.5997	853.467	35870.8	35011.3
841.7448	855.5155	35850.3	34991.6
841.8899	857.5633	35744.7	34885.15
842.0351	859.6105	35667.95	34808.4
842.1802	861.6569	35602.1	34741.65
842.3253	863.7027	35563.45	34704.75
842.4704	865.7478	35536.6	34675.3
842.6156	867.7922	35505.15	34644.2
842.7607	869.8359	35400.3	34537.95
842.9058	871.8789	35328.4	34463.95
843.0509	873.9212	35290.8	34398.95
843.1961	875.9629	35190.05	34329.05
843.3412	878.0039	35203.65	34339.1
843.4863	880.0441	35129.35	34268.45
843.6315	882.0837	35146.6	34285.65
843.7766	884.1226	35094.15	34229.25
843.9218	886.1609	35074.1	34214.7
844.0669	888.1984	35106.95	34245.3
844.212	890.2352	35178.65	34319.5
844.3572	892.2714	35090.85	34225.45
844.5023	894.3069	35069.1	34204.05
844.6475	896.3416	34873.55	34008.55
844.7926	898.3757	34832.6	33969.25
844.9377	900.4091	34758.85	33897.1
845.0829	902.4418	34718.05	33848.4
845.228	904.4739	34579.9	33713.65
845.3732	906.5052	34533.15	33668.8
845.5183	908.5358	34520.45	33659.55
845.6635	910.5658	34418.65	33552.3
845.8086	912.595	34351.5	33486
845.9538	914.6236	34188.15	33321.95
846.0989	916.6515	34168.15	33304.25
846.2441	918.6786	34075	33210.1
846.3892	920.7051	34038.75	33173.05
846.5344	922.7309	34070.65	33203.25
846.6795	924.756	33851.25	32983.65
846.8246	926.7804	33917.85	33050.7
846.9698	928.8041	33612.6	32744
847.1149	930.8272	33690.45	32821.85
847.2601	932.8495	33483.75	32616.15
847.4052	934.8711	33447.65	32579.9
847.5504	936.892	33355.4	32488.85
847.6955	938.9123	33265.1	32397.75
847.8407	940.9318	33240.3	32375.1
847.9858	942.9506	33106.55	32237.2
848.131	944.9688	33008.1	32140.7
848.2761	946.9862	32917.4	32051.1
848.4213	949.003	32713	31845.85
848.5664	951.019	32634.25	31766.9
848.7115	953.0344	32515.55	31647.25
848.8567	955.0491	32452.7	31584.1
849.0018	957.063	32457.55	31591.5
849.147	959.0763	32518.65	31653.4
849.2921	961.0888	32318.3	31448.95
849.4373	963.1007	32309.1	31442.75
849.5824	965.1119	32299.95	31432.45
849.7275	967.1223	32183.5	31314.7
849.8727	969.1321	32190.15	31323.25
850.0178	971.1412	32144.55	31277.25
850.1629	973.1495	32038.9	31171.45
850.3081	975.1572	31973.55	31061.3
850.4532	977.1641	31968.65	31100.15
850.5983	979.1704	31843.4	30974.4
850.7435	981.1759	31764.25	30891.6
850.8886	983.1808	31733.15	30863.05
851.0337	985.1849	31634.35	30761.85
851.1788	987.1884	31548.45	30675.6
851.324	989.1911	31501	30630.9
851.4691	991.1932	31438.05	30567.55
851.6142	993.1945	31240.8	30374.1
851.7593	995.1951	31144.75	30274.85
851.9045	997.1951	31112.35	30235.75
852.0496	999.1943	31028.05	30156.8
852.1947	1001.1928	30878.5	30006
852.3398	1003.1906	30769.4	29900.45
852.4849	1005.1877	30727.75	29856.1
852.63	1007.1841	30637.65	29767.95
852.7751	1009.1798	30524.8	29653.85
852.9202	1011.1748	30413.75	29542.35
853.0653	1013.1691	30307.45	29435.65
853.2104	1015.1627	30151.65	29279.05
853.3555	1017.1556	29943.25	29073.55
853.5006	1019.1477	29881.95	29010.15
853.6457	1021.1392	29688.65	28818.4
853.7908	1023.1299	29638.4	28769.3
853.9359	1025.12	29483.7	28612.75
854.081	1027.1093	29376.95	28507.7
854.2261	1029.0979	29291.15	28423.45
854.3712	1031.0859	29141.5	28273.05
854.5163	1033.0731	29184.1	28313.1
854.6613	1035.0596	29015.9	28143.55
854.8064	1037.0454	28857.95	27984.5
854.9515	1039.0304	28848.45	27975.15
855.0965	1041.0148	28692.15	27819.1
855.2416	1042.9985	28588.6	27713.6
855.3867	1044.9814	28557.9	27684.85
855.5317	1046.9636	28428.1	27554.7
855.6768	1048.9452	28340.9	27469.35
855.8219	1050.926	28288	27416.7
855.9669	1052.9061	28227.6	27356.1
856.112	1054.8855	28131.55	27260.25
856.257	1056.8642	28133.95	27261
856.4021	1058.8421	28088.45	27210.35
856.5471	1060.8194	28013.55	27138.8
856.6921	1062.7959	27938.45	27064.05
856.8372	1064.7717	27864.1	26990.05
856.9822	1066.7469	27840.45	26963.9
857.1272	1068.7213	27710.8	26834.7
857.2723	1070.695	27715.75	26840.1
857.4173	1072.6679	27563.25	26687.75
857.5623	1074.6402	27560.7	26685.4
857.7073	1076.6117	27554.8	26675.75
857.8523	1078.5826	27521.55	26648.35
857.9973	1080.5527	27410.65	26534.8
858.1423	1082.5221	27351.95	26477.9
858.2873	1084.4908	27255.75	26381.55
858.4323	1086.4587	27160	26283.1
858.5773	1088.426	27090.65	26214.7
858.7223	1090.3925	26973.9	26094.45
858.8673	1092.3584	26941.05	26065.55
859.0123	1094.3235	26813.05	25940.3
859.1573	1096.2879	26756.05	25881.35
859.3022	1098.2515	26728.05	25852.15
859.4472	1100.2145	26745.6	25871.3
859.5922	1102.1767	26661.85	25784.6
859.7371	1104.1382	26655.45	25778.9
859.8821	1106.099	26597.4	25721.55
860.027	1108.0591	26540.8	25667.6
860.172	1110.0185	26536.4	25657.2
860.3169	1111.9771	26562	25685.9
860.4619	1113.9351	26455.35	25578.8
860.6068	1115.8923	26419.7	25545.25
860.7517	1117.8488	26433.45	25554.9
860.8967	1119.8045	26258.65	25382.75
861.0416	1121.7596	26183	25303.9
861.1865	1123.7139	25986.6	25113.35
861.3314	1125.6675	25871.8	24994.8
861.4763	1127.6204	25890.3	25015.05
861.6212	1129.5726	25843.4	24963.4
861.7661	1131.524	25786.15	24909.05
861.911	1133.4748	25720.85	24843.1
862.0559	1135.4248	25584.25	24705.3
862.2008	1137.3741	25475.55	24600.6
862.3457	1139.3226	25422.95	24545.05
862.4905	1141.2705	25403.75	24528.9
862.6354	1143.2176	25287.55	24404.35
862.7803	1145.164	25259.85	24384.5
862.9251	1147.1097	25266.45	24391.35
863.07	1149.0546	25180.05	24301.25
863.2148	1150.9989	25154.35	24277.8
863.3597	1152.9424	25164.1	24285.85
863.5045	1154.8852	25038.25	24160.9
863.6493	1156.8272	25007.3	24132.25
863.7942	1158.7686	25050.7	24167.25
863.939	1160.7092	24893.1	24015.4
864.0838	1162.6491	24791.9	23913.9
864.2286	1164.5883	24813.05	23935.2
864.3734	1166.5267	24778.7	23902.8
864.5182	1168.4644	24737.2	23859.85
864.663	1170.4014	24748.05	23865.8
864.8078	1172.3377	24760.15	23883.15
864.9526	1174.2732	24731	23855.4
865.0974	1176.2081	24815.65	23937.95
865.2421	1178.1421	24805.4	23925.2
865.3869	1180.0755	24843.7	23969.05
865.5317	1182.0082	24833.45	23954.45
865.6764	1183.9401	24814.15	23935.25
865.8212	1185.8713	24663.4	23786.65
865.9659	1187.8017	24518.25	23639.35
866.1106	1189.7315	24446.55	23573.75
866.2554	1191.6605	24190.1	23313.85
866.4001	1193.5888	24091.05	23213.85
866.5448	1195.5163	23993.85	23114.95
866.6895	1197.4432	23927.5	23047.1
866.8342	1199.3693	23807.7	22928.8
866.9789	1201.2947	23712.8	22832.85
867.1236	1203.2193	23632.25	22753.05
867.2683	1205.1432	23589.6	22711.5
867.413	1207.0664	23536.6	22658.3
867.5576	1208.9889	23457.65	22575.25
867.7023	1210.9106	23360.15	22481.9
867.847	1212.8316	23250.2	22368.95
867.9916	1214.7519	23244.35	22356.35
868.1363	1216.6715	23125.3	22248.65
868.2809	1218.5903	23114.9	22236.1
868.4255	1220.5084	23074.7	22194.8
868.5701	1222.4257	23069.65	22191.1
868.7148	1224.3424	23010.8	22132.7
868.8594	1226.2583	22934.05	22052.05
869.004	1228.1735	22909.75	22029.85
869.1486	1230.0879	22837	21958.65
869.2932	1232.0016	22828.45	21949.1
869.4377	1233.9146	22787.4	21905.3
869.5823	1235.8269	22685.75	21807.95
869.7269	1237.7384	22699.55	21818.2
869.8715	1239.6492	22619.3	21741.9
870.016	1241.5592	22626.75	21744.8
870.1606	1243.4686	22560.7	21682
870.3051	1245.3772	22616.75	21736.7
870.4496	1247.285	22583.5	21703.85
870.5941	1249.1922	22606.25	21726.4
870.7387	1251.0986	22624.85	21747.15
870.8832	1253.0042	22538.4	21657.85
871.0277	1254.9092	22619.9	21741.1
871.1722	1256.8134	22617.7	21739.1
871.3167	1258.7169	22738.4	21859.55
871.4611	1260.6196	22718.1	21838.9
871.6056	1262.5216	22743.1	21859.75
871.7501	1264.4229	22660.8	21784.15
871.8945	1266.3234	22661.3	21779.45
872.039	1268.2232	22530.75	21650.1
872.1834	1270.1223	22425.2	21544.8
872.3278	1272.0207	22381.75	21501.1
872.4723	1273.9183	22353.35	21467.2
872.6167	1275.8151	22238.05	21360.9
872.7611	1277.7113	22284.9	21404.65
872.9055	1279.6067	22290.65	21410.95
873.0499	1281.5014	22344.1	21459.05
873.1943	1283.3953	22479.35	21598.35
873.3386	1285.2885	22640.3	21760.75
873.483	1287.181	22746.5	21866.3
873.6274	1289.0727	22827.3	21945.95
873.7717	1290.9637	22717	21835.25
873.9161	1292.854	22633.6	21753.7
874.0604	1294.7435	22467.75	21587.35
874.2047	1296.6323	22307.65	21425.7
874.349	1298.5204	22202.9	21319.9
874.4933	1300.4077	22086.2	21203.7
874.6376	1302.2943	22005.1	21124.95
874.7819	1304.1802	22023.65	21141.2
874.9262	1306.0653	21950	21066.95
875.0705	1307.9497	21814.2	20934.55
875.2147	1309.8333	21832.4	20952.4
875.359	1311.7162	21812.65	20932.95
875.5032	1313.5984	21747.8	20864.95
875.6475	1315.4798	21661.9	20779.2
875.7917	1317.3605	21578	20692.15
875.9359	1319.2405	21587.4	20705.6
876.0801	1321.1197	21599.55	20717.6
876.2243	1322.9982	21488.45	20602.75
876.3685	1324.876	21493.7	20612.45
876.5127	1326.753	21345.65	20464.45
876.6569	1328.6293	21255	20372.55
876.801	1330.5048	21143.7	20260.2
876.9452	1332.3796	21057.7	20179.5
877.0893	1334.2537	20987.4	20081.7
877.2335	1336.127	20847.1	19967.7
877.3776	1337.9996	20848	19966.85
877.5217	1339.8714	20751.15	19869.45
877.6658	1341.7426	20748.95	19825.9
877.8099	1343.6129	20679.2	19798
877.954	1345.4826	20576.65	19695.15
878.0981	1347.3515	20618.35	19735.3
878.2422	1349.2196	20538.75	19654.6
878.3862	1351.087	20528.8	19648
878.5303	1352.9537	20472.55	19589.55
878.6743	1354.8197	20484.6	19603.85
878.8184	1356.6849	20465.1	19584.35
878.9624	1358.5493	20425.5	19543.9
879.1064	1360.4131	20400.55	19520.05
879.2504	1362.276	20411.5	19530.8
879.3944	1364.1383	20388	19505.55
879.5384	1365.9998	20369	19481.7
879.6823	1367.8606	20301.55	19419.6
879.8263	1369.7206	20278.3	19395.6
879.9702	1371.5799	20220.5	19336.95
880.1142	1373.4384	20154.4	19271.6
880.2581	1375.2962	20135.15	19250.85
880.402	1377.1533	20002.75	19123.3
880.5459	1379.0096	19853.85	18972.2
880.6898	1380.8652	19785.9	18904.1
880.8337	1382.7201	19719.95	18837.6
880.9776	1384.5742	19594.9	18710.65
881.1215	1386.4275	19484.05	18602
881.2653	1388.2802	19413.35	18530.25
881.4092	1390.132	19325.5	18442.65
881.553	1391.9832	19307.45	18424.3
881.6968	1393.8336	19238.4	18355
881.8406	1395.6832	19194.7	18311.1
881.9844	1397.5322	19114.95	18231.85
882.1282	1399.3803	19048.5	18160.4
882.272	1401.2278	18964.55	18081.5
882.4158	1403.0745	18879.55	17997.7
882.5595	1404.9204	18800.95	17921.35
882.7033	1406.7656	18764.9	17884.2
882.847	1408.6101	18709.75	17826.9
882.9908	1410.4538	18609.1	17726
883.1345	1412.2968	18580.6	17696.55
883.2782	1414.139	18500.95	17617.05
883.4219	1415.9805	18505.45	17623.15
883.5656	1417.8213	18430.15	17528.8
883.7092	1419.6613	18370.7	17487.65
883.8529	1421.5006	18336.4	17452.3
883.9965	1423.3391	18323.85	17440.85
884.1402	1425.1769	18289.05	17404.65
884.2838	1427.0139	18309.35	17425.05
884.4274	1428.8502	18354.3	17470.55
884.571	1430.6858	18362.35	17482
884.7146	1432.5206	18313.8	17432.35
884.8582	1434.3547	18336.1	17453.1
885.0018	1436.188	18289.95	17407.4
885.1453	1438.0206	18304.2	17422.85
885.2889	1439.8524	18169.4	17286.7
885.4324	1441.6835	18169.6	17286.5
885.5759	1443.5139	18092.7	17206.8
885.7194	1445.3435	18062.8	17178.9
885.8629	1447.1724	18004.8	17122.05
886.0064	1449.0005	18021.35	17139.45
886.1499	1450.8279	17977	17092.85
886.2933	1452.6545	17949.25	17067.6
886.4368	1454.4804	17926.6	17045.6
886.5802	1456.3056	17920.5	17029.4
886.7237	1458.13	17846.1	16963.55
886.8671	1459.9536	17814.05	16928.85
887.0105	1461.7766	17773.8	16891.7
887.1539	1463.5987	17685.5	16800.45
887.2972	1465.4202	17619.85	16738.4
887.4406	1467.2409	17533.65	16650.45
887.584	1469.0608	17520.55	16637.55
887.7273	1470.88	17433.95	16551.15
887.8706	1472.6984	17411.05	16529.5
888.0139	1474.5161	17297.2	16410.1
888.1572	1476.3331	17270.25	16389.4
888.3005	1478.1493	17236.6	16355.25
888.4438	1479.9648	17239.05	16354.65
888.5871	1481.7795	17170.7	16288.4
888.7303	1483.5935	17144.15	16260.55
888.8736	1485.4067	17108.15	16223.8
889.0168	1487.2192	17081.15	16197
889.16	1489.031	17057.25	16170.25
889.3032	1490.842	17015.55	16133.55
889.4464	1492.6522	17012.5	16129.35
889.5896	1494.4618	16942.3	16058.9
889.7327	1496.2705	16926.25	16042.1
889.8759	1498.0785	16879.05	15995.3
890.019	1499.8858	16820.05	15935.5
890.1622	1501.6924	16775.65	15894.3
890.3053	1503.4981	16760.35	15876.6
890.4484	1505.3032	16715.55	15832
890.5914	1507.1075	16655.7	15773.2
890.7345	1508.911	16629.35	15745.55
890.8776	1510.7138	16580.1	15694.7
891.0206	1512.5159	16519.2	15634.15
891.1637	1514.3172	16468.7	15586.85
891.3067	1516.1178	16413.15	15530.5
891.4497	1517.9176	16400.4	15516.05
891.5927	1519.7166	16358.7	15477.6
891.7357	1521.515	16279.5	15390.8
891.8786	1523.3126	16209.35	15325
892.0216	1525.1094	16182.75	15298.4
892.1645	1526.9055	16133.9	15250.85
892.3074	1528.7008	16070.2	15187.85
892.4503	1530.4954	15946.8	15060.3
892.5932	1532.2893	15947.4	15066.15
892.7361	1534.0824	15841.1	14954.5
892.879	1535.8747	15839.8	14958
893.0218	1537.6663	15777.2	14893.2
893.1647	1539.4572	15716.6	14832.05
893.3075	1541.2473	15706.6	14821.8
893.4503	1543.0367	15623.65	14742.2
893.5931	1544.8253	15576.65	14688.95
893.7359	1546.6132	15558.8	14673.55
893.8787	1548.4003	15456.8	14564.3
894.0214	1550.1867	15448.4	14558.65
894.1642	1551.9723	15355.6	14467.7
894.3069	1553.7572	15368.35	14483.7
894.4496	1555.5414	15342.65	14457.9
894.5923	1557.3247	15320.3	14436
894.735	1559.1074	15319.2	14436.3
894.8777	1560.8893	15270.3	14387.1
895.0204	1562.6705	15281.8	14398.8
895.163	1564.4509	15253	14369.6
895.3056	1566.2305	15206.05	14324.75
895.4482	1568.0094	15218.4	14337.75
895.5908	1569.7876	15173.15	14290.4
895.7334	1571.565	15094.35	14211.25
895.876	1573.3417	15074.65	14193.15
896.0186	1575.1176	15057.3	14174.9
896.1611	1576.8928	15025.45	14143.15
896.3036	1578.6672	14939.6	14057.9
896.4461	1580.4409	14905.45	14025.7
896.5886	1582.2138	14895	14009.75
896.7311	1583.986	14888.25	14006.3
896.8736	1585.7575	14914.8	14033.25
897.0161	1587.5282	14872.5	13989.95
897.1585	1589.2981	14928.9	14048.05
897.3009	1591.0673	14863.4	13982.05
897.4433	1592.8358	14829.6	13948.7
897.5857	1594.6035	14784.9	13899.1
897.7281	1596.3704	14712.65	13827.95
897.8705	1598.1366	14659.55	13775.6
898.0128	1599.9021	14584.05	13704.4
898.1551	1601.6668	14484.35	13598.2
898.2975	1603.4308	14408.7	13524.85
898.4398	1605.194	14403.95	13516.15
898.5821	1606.9564	14308.85	13430.25
898.7243	1608.7182	14346.5	13461.55
898.8666	1610.4791	14350.55	13469.9
899.0088	1612.2394	14386.2	13504.5
899.1511	1613.9988	14440.6	13558.5
899.2933	1615.7576	14516.85	13634.5
899.4355	1617.5156	14526.3	13635.6
899.5776	1619.2728	14490.25	13608.95
899.7198	1621.0293	14372.05	13491.35
899.862	1622.785	14234.05	13347.25
900.0041	1624.54	14058.2	13172.5
900.1462	1626.2942	13932.9	13048.75
900.2883	1628.0477	13781.4	12897.05
900.4304	1629.8005	13645.1	12758.65
900.5725	1631.5525	13527.6	12645.6
900.7145	1633.3037	13441.85	12560.65
900.8566	1635.0542	13384.6	12502.85
900.9986	1636.804	13319.2	12436.3
901.1406	1638.553	13336.5	12367.55
901.2826	1640.3013	13177	12296.45
901.4245	1642.0488	13120.15	12239.2
901.5665	1643.7955	13075.6	12194.95
901.7085	1645.5416	13039.45	12157.65
901.8504	1647.2868	13007.5	12126.25
901.9923	1649.0313	12919.55	12038.4
902.1342	1650.7751	12934.35	12049.15
902.2761	1652.5181	12870.5	11989.6
902.4179	1654.2604	12795.65	11913.55
902.5598	1656.0019	12755.95	11876.2
902.7016	1657.7427	12755.25	11873.15
902.8434	1659.4828	12733.8	11849.75
902.9852	1661.222	12710.65	11828.6
903.127	1662.9606	12692.1	11810.4
903.2687	1664.6984	12703.35	11819.05
903.4105	1666.4354	12694.35	11808.55
903.5522	1668.1717	12645.1	11761.95
903.6939	1669.9072	12526.75	11644.7
903.8356	1671.642	12476.75	11591.15
903.9773	1673.3761	12417.85	11534.75
904.119	1675.1094	12331.6	11448.85
904.2606	1676.8419	12252.85	11369.1
904.4022	1678.5737	12192.75	11309.3
904.5439	1680.3048	12158.3	11273.5
904.6855	1682.0351	12078.35	11198.4
904.827	1683.7646	12026.35	11141.65
904.9686	1685.4934	11968.6	11088.05
905.1101	1687.2215	11910.25	11026.55
905.2517	1688.9488	11842.8	10961.6
905.3932	1690.6754	11802.5	10920.9
905.5347	1692.4012	11794.5	10912.1
905.6761	1694.1263	11738.2	10855.65
905.8176	1695.8506	11708.85	10826.25
905.9591	1697.5742	11628.4	10746.2
906.1005	1699.297	11574.8	10692.4
906.2419	1701.0191	11545.5	10664.1
906.3833	1702.7404	11513.9	10633.9
906.5246	1704.461	11446.3	10563.25
906.666	1706.1808	11409.15	10526.25
906.8073	1707.8999	11398.45	10512.85
906.9487	1709.6182	11340.7	10458.9
907.09	1711.3358	11301.1	10418.85
907.2313	1713.0527	11231.25	10352.5
907.3725	1714.7688	11212.4	10324.8
907.5138	1716.4841	11164.85	10279.8
907.655	1718.1987	11153.8	10266.5
907.7962	1719.9126	11117.75	10237.35
907.9374	1721.6257	11082.8	10198.75
908.0786	1723.338	11069.5	10188.4
908.2198	1725.0496	11001.55	10118.05
908.3609	1726.7605	10983.95	10103.05
908.502	1728.4706	10966.4	10083.15
908.6431	1730.18	10941.15	10056.25
908.7842	1731.8886	10921.25	10038.5
908.9253	1733.5964	10882.4	9981
909.0664	1735.3036	10841.25	9957.25
909.2074	1737.0099	10842.45	9960.2
909.3484	1738.7156	10830.95	9950.8
909.4894	1740.4204	10747.7	9862.8
909.6304	1742.1246	10770.45	9887.35
909.7714	1743.8279	10734.5	9852.75
909.9123	1745.5306	10744.9	9860.8
910.0532	1747.2325	10696.95	9815.1
910.1941	1748.9336	10685.05	9802.65
910.335	1750.634	10631.4	9746.85
910.4759	1752.3336	10601.35	9719.9
910.6168	1754.0325	10612.05	9731.25
910.7576	1755.7307	10585.25	9703.2
910.8984	1757.4281	10600.25	9718.6
911.0392	1759.1247	10567.25	9677.25
911.18	1760.8206	10567.25	9681
911.3208	1762.5158	10521.6	9634.65
911.4615	1764.2102	10479.95	9598.5
911.6022	1765.9039	10440.9	9561.1
911.7429	1767.5968	10457.2	9575.6
911.8836	1769.289	10435.4	9552.1
912.0243	1770.9804	10396.3	9513.3
912.1649	1772.6711	10388.4	9507.35
912.3056	1774.361	10344.65	9462.85
912.4462	1776.0502	10330.05	9447.15
912.5868	1777.7386	10309.9	9425.1
912.7274	1779.4263	10278.55	9395.8
912.8679	1781.1132	10270.2	9389.3
913.0084	1782.7994	10227.35	9344.9
913.149	1784.4849	10215.2	9333.6
913.2895	1786.1696	10193.2	9293.8
913.4299	1787.8535	10166.05	9285.4
913.5704	1789.5367	10118.3	9236.3
913.7108	1791.2192	10127.1	9245.4
913.8513	1792.9009	10072.7	9172.7
913.9917	1794.5818	10042.75	9160
914.132	1796.2621	10016.55	9136.35
914.2724	1797.9415	10020.35	9135.8
914.4128	1799.6202	9980.8	9100.15
914.5531	1801.2982	9963.6	9082.85
914.6934	1802.9755	9935.85	9052.15
914.8337	1804.6519	9953.9	9070.55
914.9739	1806.3277	9877.9	8996.1
915.1142	1808.0027	9838.85	8959.1
915.2544	1809.6769	9856.55	8975.9
915.3946	1811.3504	9802	8918.8
915.5348	1813.0231	9788.85	8908.1
915.675	1814.6951	9765.35	8884.2
915.8151	1816.3664	9777.4	8892.2
915.9553	1818.0369	9735.9	8854.35
916.0954	1819.7067	9692.05	8812.2
916.2355	1821.3757	9673	8786
916.3755	1823.044	9670.95	8788.65
916.5156	1824.7115	9635.15	8750.45
916.6556	1826.3783	9586.6	8704.1
916.7956	1828.0443	9584.55	8702.1
916.9356	1829.7096	9570.05	8686.35
917.0756	1831.3741	9561.45	8676.05
917.2155	1833.0379	9515	8635.05
917.3555	1834.701	9499.5	8616.2
917.4954	1836.3633	9503.4	8620.7
917.6353	1838.0248	9445.8	8561.35
917.7751	1839.6856	9464.4	8581.7
917.915	1841.3457	9456.55	8574.7
918.0548	1843.005	9422.55	8540.95
918.1946	1844.6636	9387	8506.15
918.3344	1846.3214	9358.55	8476
918.4742	1847.9785	9367.5	8484.6
918.6139	1849.6349	9325.45	8439.5
918.7537	1851.2904	9327.9	8434.55
918.8934	1852.9453	9282.45	8399.45
919.0331	1854.5994	9259	8375.15
919.1727	1856.2528	9255.95	8368.8
919.3124	1857.9054	9215.4	8333.7
919.452	1859.5572	9203.25	8322.45
919.5916	1861.2083	9179.3	8297.95
919.7312	1862.8587	9204.95	8324
919.8708	1864.5084	9166.4	8284.35
920.0103	1866.1572	9132.6	8248.65
920.1498	1867.8054	9081.3	8199.4
920.2893	1869.4528	9074.55	8191.9
920.4288	1871.0994	9038.75	8156.6
920.5683	1872.7453	9046.45	8163.2
920.7077	1874.3905	9053.4	8164.75
920.8471	1876.0349	9006.7	8123.45
920.9865	1877.6786	8975.65	8091.05
921.1259	1879.3215	8979.85	8097.25
921.2653	1880.9637	8942.85	8058.4
921.4046	1882.6051	8941.15	8057.65
921.5439	1884.2458	8918.95	8035.2
921.6832	1885.8858	8899.85	8017.65
921.8225	1887.525	8887	8004.7
921.9617	1889.1634	8852.95	7971.45
922.101	1890.8011	8811.85	7927.85
922.2402	1892.4381	8825.3	7942.75
922.3794	1894.0743	8803	7921.4
922.5185	1895.7098	8780.1	7899.1
922.6577	1897.3446	8776.55	7890.05
922.7968	1898.9786	8762.75	7877.2
922.9359	1900.6118	8719.25	7837.35
923.075	1902.2443	8672.45	7788.75
923.214	1903.8761	8689.15	7808
923.3531	1905.5071	8602.45	7720
923.4921	1907.1374	8590.45	7707.85
923.6311	1908.7669	8581.35	7699.7
923.77	1910.3957	8560.8	7678.3
923.909	1912.0237	8518.45	7636.25
924.0479	1913.651	8536.8	7653.25
924.1868	1915.2776	8486.75	7605.3
924.3257	1916.9034	8445.85	7565.85
924.4646	1918.5285	8447.85	7568.2
924.6034	1920.1528	8389.6	7507.85
924.7422	1921.7764	8392.05	7510.5
924.881	1923.3992	8381.3	7500.55
925.0198	1925.0213	8318.55	7437.6
925.1586	1926.6427	8266.15	7384.45
925.2973	1928.2633	8427.1	7340.4
925.436	1929.8832	8279.45	7393.4
925.5747	1931.5023	8207.4	7327.9
925.7134	1933.1207	8185.25	7304.35
925.852	1934.7383	8169.5	7286.4
925.9906	1936.3552	8147.05	7267
926.1292	1937.9714	8142.3	7259.1
926.2678	1939.5868	8117.2	7233.25
926.4064	1941.2015	8056.05	7175.2
926.5449	1942.8154	8032.8	7148.45
926.6834	1944.4286	7998.4	7117.6
926.8219	1946.041	7986.3	7080
926.9604	1947.6528	7945.5	7058.85
927.0988	1949.2637	7941.65	7060.3
927.2372	1950.8739	7922.2	7038.8
927.3756	1952.4834	7898.55	7016.1
927.514	1954.0921	7884.6	7000.6
927.6523	1955.7001	7861.1	6973.8
927.7907	1957.3074	7863.9	6984
927.929	1958.9139	7819.95	6937
928.0673	1960.5197	7787.9	6907
928.2055	1962.1247	7764.55	6882.2
928.3438	1963.729	7730.7	6851.75
928.482	1965.3325	7739.7	6833.95
928.6202	1966.9353	7719.65	6836.25
928.7584	1968.5374	7683.7	6801.4
928.8965	1970.1387	7663.55	6780.9
929.0346	1971.7393	7613.85	6733.4
929.1727	1973.3392	7615.75	6735.4
929.3108	1974.9383	7585.9	6703.95
929.4489	1976.5366	7556.5	6675.1
929.5869	1978.1342	7536.75	6655.1
929.7249	1979.7311	7540.75	6658.8
929.8629	1981.3273	7513.2	6631.45
930.0009	1982.9227	7500.75	6618.65
930.1388	1984.5173	7454.6	6574.5
930.2767	1986.1112	7446.35	6565.7
930.4146	1987.7044	7431	6551.65
930.5525	1989.2968	7402.95	6521.25
930.6904	1990.8885	7407.45	6522.4
930.8282	1992.4795	7400.95	6518.5
930.966	1994.0697	7371	6490.05
931.1038	1995.6592	7345.9	6464.65
931.2415	1997.2479	7339.65	6457.5
931.3793	1998.8359	7312.85	6431.55
931.517	2000.4232	7266.3	6385.2
931.6547	2002.0097	7262.3	6384.35
931.7923	2003.5955	7228.2	6347.35
931.93	2005.1805	7244.2	6362.9
932.0676	2006.7648	7207.7	6327.65
932.2052	2008.3484	7183.6	6301.75
932.3427	2009.9312	7201.35	6319.3
932.4803	2011.5133	7152.85	6272.75
932.6178	2013.0946	7146.25	6265.5
932.7553	2014.6752	7123.75	6244.05
932.8928	2016.2551	7116.7	6234.2
933.0302	2017.8342	7070.7	6190.35
933.1676	2019.4126	7055.2	6175.4
933.305	2020.9902	7032.85	6152.85
933.4424	2022.5672	7035.75	6155.7
933.5798	2024.1433	7034.3	6149.4
933.7171	2025.7188	7023.05	6146
933.8544	2027.2935	6999.9	6117
933.9917	2028.8674	6948.8	6068.25
934.129	2030.4406	6964.85	6085.4
934.2662	2032.0131	6925.35	6045.65
934.4034	2033.5849	6925.75	6040.3
934.5406	2035.1559	6900.5	6020.1
934.6778	2036.7261	6905.3	6024.4
934.8149	2038.2957	6890.05	6009.15
934.952	2039.8645	6858.7	5978.65
935.0891	2041.4325	6884.55	6000.95
935.2262	2042.9998	6831.6	5951.1
935.3632	2044.5664	6832.9	5950.35
935.5002	2046.1323	6806.45	5926.75
935.6372	2047.6974	6807.75	5926.2
935.7742	2049.2617	6773.2	5892.95
935.9111	2050.8254	6798.35	5896.25
936.048	2052.3883	6776.85	5895.3
936.1849	2053.9504	6760.8	5879.4
936.3218	2055.5118	6732.4	5851
936.4586	2057.0725	6712.25	5825.7
936.5955	2058.6325	6699.25	5818.8
936.7323	2060.1917	6674	5796
936.869	2061.7502	6663.1	5779.95
937.0058	2063.3079	6654.4	5774.2
937.1425	2064.8649	6626.2	5743.9
937.2792	2066.4212	6632.15	5750.75
937.4159	2067.9767	6635.85	5755.75
937.5525	2069.5315	6592.45	5710.95
937.6891	2071.0856	6572.6	5692.4
937.8257	2072.6389	6556.15	5674.2
937.9623	2074.1915	6545	5666.8
938.0989	2075.7433	6503.35	5621.05
938.2354	2077.2945	6492.4	5614.75
938.3719	2078.8448	6478.5	5597.7
938.5084	2080.3945	6470.75	5592.8
938.6448	2081.9434	6460	5580.9
938.7812	2083.4916	6435	5554.3
938.9176	2085.039	6418.55	5535.2
939.054	2086.5857	6432.3	5548.55
939.1903	2088.1317	6422.65	5542.1
939.3267	2089.677	6390.15	5507.25
939.463	2091.2215	6370.5	5489.95
939.5992	2092.7652	6382.05	5498.8
939.7355	2094.3083	6370.3	5490.9
939.8717	2095.8506	6356.6	5477.2
940.0079	2097.3921	6341.5	5463.05
940.1441	2098.933	6336.3	5455.75
940.2802	2100.4731	6326.15	5445.55
940.4163	2102.0124	6338.95	5441.25
940.5524	2103.5511	6311.9	5431.9
940.6885	2105.089	6307.95	5426.4
940.8245	2106.6261	6275.1	5394.95
940.9606	2108.1626	6269.8	5387.85
941.0965	2109.6983	6282.3	5373.75
941.2325	2111.2332	6261	5378.8
941.3684	2112.7675	6248.8	5368.85
941.5044	2114.301	6237.85	5355.15
941.6403	2115.8337	6223.4	5343.9
941.7761	2117.3657	6208.2	5327.5
941.912	2118.897	6191.55	5309.95
942.0478	2120.4276	6175.5	5288.7
942.1835	2121.9575	6159.25	5276.85
942.3193	2123.4866	6149.85	5265.2
942.455	2125.0149	6146.25	5263.65
942.5907	2126.5426	6118.55	5239.1
942.7264	2128.0695	6123.4	5238.75
942.8621	2129.5956	6089.55	5210.9
942.9977	2131.1211	6075.9	5190.45
943.1333	2132.6458	6075.65	5196.4
943.2689	2134.1698	6046.3	5166
943.4044	2135.693	6048.6	5165.65
943.54	2137.2155	6040.45	5159.35
943.6755	2138.7373	6015.05	5132.8
943.8109	2140.2584	6003.3	5122.65
943.9464	2141.7787	5995.4	5110.4
944.0818	2143.2983	5974.55	5095.05
944.2172	2144.8171	5952	5073.5
944.3526	2146.3353	5950.3	5066.55
944.4879	2147.8527	5924.7	5047.25
944.6232	2149.3693	5912.85	5032.05
944.7585	2150.8853	5910.45	5028.95
944.8938	2152.4005	5880.9	5002
945.029	2153.9149	5852.95	4972
945.1642	2155.4287	5850.65	4969.3
945.2994	2156.9417	5842.3	4958.8
945.4346	2158.454	5833.1	4950.3
945.5697	2159.9655	5815.25	4935.1
945.7048	2161.4764	5812.25	4930.75
945.8399	2162.9865	5815.65	4934.85
945.9749	2164.4958	5803.65	4922.55
946.1099	2166.0045	5787.75	4904.25
946.2449	2167.5124	5761.8	4881.5
946.3799	2169.0195	5750.5	4869.1
946.5148	2170.526	5754.4	4874.25
946.6498	2172.0317	5721.65	4841.15
946.7846	2173.5367	5704.5	4821.5
946.9195	2175.0409	5705.5	4825.35
947.0543	2176.5445	5691.4	4810.55
947.1891	2178.0473	5674.8	4793.25
947.3239	2179.5494	5657.6	4774.1
947.4587	2181.0507	5639.45	4759.9
947.5934	2182.5513	5618.6	4738.05
947.7281	2184.0512	5614.3	4735.4
947.8628	2185.5504	5595.2	4715.5
947.9974	2187.0488	5569.5	4691.3
948.132	2188.5465	5569.55	4689.7
948.2666	2190.0435	5539.75	4658.8
948.4012	2191.5397	5534.3	4653.6
948.5357	2193.0353	5522	4641.9
948.6702	2194.5301	5486.4	4604.35
948.8047	2196.0241	5475.6	4595.2
948.9392	2197.5175	5447.8	4566.55
949.0736	2199.0101	5469.8	4585.75
949.208	2200.502	5426.25	4547.45
949.3424	2201.9931	5420.1	4539.65
949.4767	2203.4835	5396.8	4513.4
949.611	2204.9733	5387.6	4501.45
949.7453	2206.4622	5386.75	4506.95
949.8796	2207.9505	5358.85	4473.75
950.0138	2209.438	5355.8	4476.6
950.148	2210.9248	5337.6	4454.35
950.2822	2212.4109	5313.65	4435.5
950.4164	2213.8962	5296.25	4412.95
950.5505	2215.3809	5284	4403.55
950.6846	2216.8648	5280.25	4400.3
950.8186	2218.3479	5258.55	4374.65
950.9527	2219.8304	5237.95	4353.4
951.0867	2221.3121	5216	4334.9
951.2207	2222.7931	5222.45	4344
951.3546	2224.2733	5187.75	4306.8
951.4886	2225.7529	5184.25	4303.65
951.6225	2227.2317	5180.3	4295.25
951.7563	2228.7098	5180.25	4301.85
951.8902	2230.1872	5147	4267.9
952.024	2231.6638	5140.5	4260.4
952.1578	2233.1397	5118.65	4233
952.2916	2234.6149	5097.55	4217.3
952.4253	2236.0894	5084.9	4205.9
952.559	2237.5632	5078.7	4196
952.6927	2239.0362	5052.6	4171.5
952.8263	2240.5085	5048.8	4169.25
952.9599	2241.9801	5027.7	4148.85
953.0935	2243.4509	5017.85	4137.65
953.2271	2244.921	5004	4123.4
953.3606	2246.3904	4981.95	4098.9
953.4941	2247.8591	4967.5	4087.95
953.6276	2249.3271	4971.85	4091.65
953.7611	2250.7943	4939.85	4059.6
953.8945	2252.2608	4920.35	4040.4
954.0279	2253.7266	4916.3	4036.9
954.1612	2255.1917	4896.85	4016.3
954.2946	2256.656	4897.5	4015.25
954.4279	2258.1197	4883.75	4002.55
954.5612	2259.5826	4863.95	3982.95
954.6944	2261.0447	4859.5	3978.2
954.8276	2262.5062	4843.5	3961.2
954.9608	2263.9669	4834.5	3951.95
955.094	2265.4269	4825.95	3947.35
955.2271	2266.8862	4811.8	3929.95
955.3602	2268.3448	4810.2	3928.75
955.4933	2269.8026	4815.3	3934.4
955.6264	2271.2598	4794.85	3913.05
955.7594	2272.7162	4784.5	3904.8
955.8924	2274.1719	4771.5	3890.25
956.0253	2275.6268	4755.15	3873.85
956.1583	2277.0811	4737.75	3856.95
956.2912	2278.5346	4735.9	3857.15
956.4241	2279.9874	4722.05	3843.25
956.5569	2281.4395	4728.1	3846.75
956.6897	2282.8908	4703.5	3816.7
956.8225	2284.3414	4690.85	3808.6
956.9553	2285.7914	4672.3	3791.75
957.088	2287.2406	4670.95	3786.6
957.2207	2288.689	4642.7	3762.45
957.3534	2290.1368	4628.1	3745.85
957.486	2291.5838	4618.25	3735.6
957.6186	2293.0302	4624.85	3742.75
957.7512	2294.4758	4591.75	3710.4
957.8838	2295.9206	4586.8	3703.05
958.0163	2297.3648	4560.7	3679.85
958.1488	2298.8082	4564	3683.9
958.2813	2300.251	4546.7	3667.6
958.4137	2301.693	4539.1	3657.4
958.5461	2303.1343	4531.5	3650.45
958.6785	2304.5748	4511.85	3630.85
958.8108	2306.0147	4504.6	3623.6
958.9432	2307.4538	4500.3	3616.1
959.0754	2308.8922	4487.45	3609.15
959.2077	2310.3299	4478.1	3597.1
959.3399	2311.7669	4470.1	3589.55
959.4721	2313.2031	4453.45	3573.05
959.6043	2314.6387	4441.25	3562.25
959.7365	2316.0735	4411.15	3530.05
959.8686	2317.5076	4419.75	3539.5
960.0006	2318.941	4406.55	3526.05
960.1327	2320.3737	4392.2	3509.7
960.2647	2321.8056	4381.85	3500.65
960.3967	2323.2369	4378.55	3496.8
960.5287	2324.6674	4353	3468.9
960.6606	2326.0972	4352.6	3471.5
960.7925	2327.5263	4337.6	3457.5
960.9244	2328.9547	4343.1	3464.8
961.0562	2330.3823	4321.4	3439.9
961.1881	2331.8092	4325.55	3442.35
961.3198	2333.2355	4288.35	3408.25
961.4516	2334.661	4306.55	3425.35
961.5833	2336.0858	4270.1	3387.85
961.715	2337.5098	4251.1	3371
961.8467	2338.9332	4253.45	3371.5
961.9783	2340.3558	4242.05	3357.35
962.1099	2341.7778	4223	3343.85
962.2415	2343.199	4214.65	3332.5
962.373	2344.6195	4198.25	3316.9
962.5045	2346.0393	4205.6	3325.9
962.636	2347.4583	4202.25	3321.2
962.7675	2348.8767	4179.9	3297.8
962.8989	2350.2943	4168.05	3287.1
963.0303	2351.7113	4163.65	3281.3
963.1617	2353.1275	4151.55	3270.8
963.293	2354.543	4147.25	3258.7
963.4243	2355.9578	4120.1	3238.35
963.5556	2357.3718	4118.45	3238.25
963.6868	2358.7852	4107.05	3225.3
963.818	2360.1978	4078.65	3195.85
963.9492	2361.6098	4065	3185.65
964.0803	2363.021	4065	3179.55
964.2114	2364.4315	4048.25	3168
964.3425	2365.8413	4063.75	3179.35
964.4736	2367.2504	4028.35	3150.85
964.6046	2368.6587	4020.25	3139.85
964.7356	2370.0664	4012.85	3130.05
964.8666	2371.4733	3998.15	3116.5
964.9975	2372.8795	4000.35	3119.65
965.1284	2374.285	3974.95	3092.15
965.2593	2375.6899	3945.75	3064.75
965.3901	2377.0939	3933	3051.95
965.5209	2378.4973	3932.85	3051.3
965.6517	2379.9	3920.1	3039.65
965.7825	2381.3019	3914.55	3031.95
965.9132	2382.7032	3898.9	3018
966.0439	2384.1037	3892.5	3012.8
966.1745	2385.5035	3880.8	2999.15
966.3051	2386.9027	3880.85	3002.15
966.4357	2388.3011	3861.3	2975.5
966.5663	2389.6987	3857.9	2979
966.6968	2391.0957	3842.9	2959.85
966.8273	2392.492	3826	2944.95
966.9578	2393.8876	3803.35	2920.75
967.0882	2395.2824	3796.4	2916.45
967.2186	2396.6765	3789.8	2910.45
967.349	2398.07	3774.9	2894.3
967.4793	2399.4627	3772	2890.75
967.6097	2400.8547	3761.8	2880.95
967.7399	2402.246	3748.1	2859.3
967.8702	2403.6366	3744.65	2862.5
968.0004	2405.0265	3710.35	2830.15
968.1306	2406.4156	3704.55	2817.45
968.2607	2407.8041	3681.5	2796.6
968.3909	2409.1918	3669.6	2784.65
968.521	2410.5789	3660.35	2777.8
968.651	2411.9652	3670.6	2787
968.781	2413.3508	3649.7	2767.3
968.911	2414.7358	3638.25	2754.75
969.041	2416.12	3621.8	2739.15
969.1709	2417.5035	3618.15	2737.4
969.3008	2418.8863	3599.3	2714.55
969.4307	2420.2684	3593	2712.35
969.5606	2421.6497	3578.8	2697.35
969.6904	2423.0304	3545.55	2664.15
969.8201	2424.4104	3551.75	2671.1
969.9499	2425.7896	3543.2	2660.3
970.0796	2427.1682	3522.45	2642.3
970.2093	2428.546	3536.65	2652.55
970.3389	2429.9232	3531.5	2649.2
970.4685	2431.2996	3510.1	2627.3
970.5981	2432.6753	3499.55	2618
970.7277	2434.0503	3498.65	2614.7
970.8572	2435.4246	3478.9	2597.45
970.9867	2436.7982	3487.85	2605.2
971.1161	2438.1711	3478.7	2599.05
971.2456	2439.5433	3458.85	2575.35
971.375	2440.9148	3444.25	2556.35
971.5043	2442.2856	3439.5	2559.5
971.6336	2443.6557	3414.4	2530
971.7629	2445.025	3411.8	2530.3
971.8922	2446.3937	3410.75	2530.05
972.0214	2447.7617	3395.65	2513.75
972.1506	2449.1289	3379.6	2498.35
972.2798	2450.4955	3376.6	2493.9
972.4089	2451.8613	3380.95	2501.85
972.538	2453.2265	3367.85	2485.2
972.6671	2454.5909	3351.4	2468.15
972.7961	2455.9546	3347.85	2467.45
972.9251	2457.3177	3342.6	2461.65
973.0541	2458.68	3333.15	2449.5
973.1831	2460.0416	3346.45	2466.1
973.312	2461.4025	3333.8	2449.85
973.4408	2462.7627	3333.2	2440.8
973.5697	2464.1222	3318.05	2435.95
973.6985	2465.4811	3300.9	2418.75
973.8273	2466.8392	3287.25	2405.3
973.956	2468.1966	3290.75	2405.7
974.0847	2469.5533	3284.9	2401.05
974.2134	2470.9093	3269.75	2387.2
974.3421	2472.2645	3259.05	2377.05
974.4707	2473.6191	3258.6	2379.25
974.5993	2474.973	3250.55	2368.85
974.7278	2476.3262	3235.5	2353.25
974.8563	2477.6787	3213.65	2332.6
974.9848	2479.0305	3201.75	2322.45
975.1132	2480.3816	3198.85	2316.5
975.2417	2481.7319	3194.8	2315.95
975.37	2483.0816	3187.35	2304.55
975.4984	2484.4306	3173.7	2291.15
975.6267	2485.7789	3154.45	2272.8
975.755	2487.1264	3157.45	2276.25
975.8833	2488.4733	3127.75	2247.75
976.0115	2489.8195	3140.5	2253
976.1397	2491.165	3132.25	2247.45
976.2678	2492.5097	3113.55	2230.55
976.3959	2493.8538	3113.5	2231.1
976.524	2495.1972	3098	2215.85
976.6521	2496.5398	3087.3	2202.8
976.7801	2497.8818	3084.55	2201.4
976.9081	2499.2231	3081.2	2200.2
977.036	2500.5637	3063.35	2178.45
977.164	2501.9035	3058.05	2177.9
977.2918	2503.2427	3047.45	2161.85
977.4197	2504.5812	3052.75	2172.5
977.5475	2505.919	3030.25	2146.5
977.6753	2507.256	3033.8	2152.6
977.8031	2508.5924	3009.25	2129.6
977.9308	2509.9281	3026.8	2140.2
978.0585	2511.2631	2999.5	2117.7
978.1861	2512.5974	3001.35	2118.25
978.3137	2513.9309	2990.7	2110.05
978.4413	2515.2638	3010.8	2101
978.5689	2516.596	2973.55	2093.75
978.6964	2517.9275	2960.25	2078.05
978.8239	2519.2583	2947.2	2064.55
978.9513	2520.5884	2957.65	2076.05
979.0788	2521.9178	2929.95	2048.7
979.2062	2523.2465	2925.25	2042.4
979.3335	2524.5745	2903.35	2024.75
979.4608	2525.9018	2916.45	2034.35
979.5881	2527.2284	2904.75	2023.8
979.7154	2528.5543	2895.55	2014.45
979.8426	2529.8796	2889.85	2009.5
979.9698	2531.2041	2885	2002.5
980.0969	2532.5279	2879.45	1997.65
980.224	2533.851	2886	2001.9
980.3511	2535.1735	2873.15	1993
980.4781	2536.4952	2853.85	1972.65
980.6052	2537.8163	2847.35	1964.85
980.7321	2539.1366	2852.15	1973.15
980.8591	2540.4562	2842.6	1958.2
980.986	2541.7752	2830.05	1951.3
981.1129	2543.0935	2836.15	1953.95
981.2397	2544.411	2827.75	1946
981.3665	2545.7279	2832.4	1950.2
981.4933	2547.0441	2823	1940.8
981.62	2548.3596	2821.6	1938.6
981.7467	2549.6744	2813.1	1931.65
981.8734	2550.9885	2804.75	1914.1
982.0001	2552.3019	2794.05	1912.85
982.1267	2553.6146	2794.8	1913.75
982.2532	2554.9266	2784.25	1902.85
982.3798	2556.2379	2772.95	1890.05
982.5063	2557.5485	2766.3	1886.1
982.6327	2558.8585	2777.2	1890.4
982.7592	2560.1677	2765.65	1879.15
982.8856	2561.4762	2765.8	1885.15
983.0119	2562.7841	2750.35	1865.5
983.1383	2564.0913	2746.65	1865.2
983.2646	2565.3977	2740.7	1859.65
983.3908	2566.7035	2726.7	1846.8
983.517	2568.0086	2731.35	1848.2
983.6432	2569.313	2718.5	1836.45
983.7694	2570.6167	2734.9	1850.9
983.8955	2571.9197	2710.55	1832.05
984.0216	2573.222	2706.95	1822.2
984.1476	2574.5236	2696.35	1815.2
984.2737	2575.8246	2690.6	1805.8
984.3996	2577.1248	2692.5	1808.15
984.5256	2578.4244	2683.25	1803.75
984.6515	2579.7232	2687.4	1804.9
984.7774	2581.0214	2695.7	1791.45
984.9032	2582.3189	2678.8	1800.45
985.029	2583.6157	2684.6	1798.1
985.1548	2584.9118	2666.2	1784.7
985.2806	2586.2072	2664.6	1784.2
985.4063	2587.5019	2654.95	1772.1
985.5319	2588.7959	2649.1	1766.55
985.6576	2590.0893	2655.55	1770.65
985.7832	2591.3819	2635.55	1757.65
985.9087	2592.6739	2625.4	1744.8
986.0343	2593.9652	2627.7	1744.5
986.1597	2595.2557	2621.85	1741.05
986.2852	2596.5456	2612.15	1728.65
986.4106	2597.8348	2594.45	1714.75
986.536	2599.1234	2585.05	1702.05
986.6614	2600.4112	2566.3	1686.2
986.7867	2601.6983	2573.95	1688.25
986.912	2602.9848	2572.3	1689.7
987.0372	2604.2705	2573.05	1684.9
987.1624	2605.5556	2562.85	1681.8
987.2876	2606.84	2543.25	1661.15
987.4128	2608.1237	2541.4	1659.8
987.5379	2609.4067	2525.2	1644
987.6629	2610.689	2524.9	1632.45
987.788	2611.9707	2518.4	1629.2
987.913	2613.2516	2519.25	1633.45
988.0379	2614.5319	2497	1617
988.1629	2615.8115	2498	1616.75
988.2878	2617.0903	2488.6	1604.8
988.4126	2618.3685	2480.35	1598.8
988.5375	2619.6461	2478.9	1598.2
988.6622	2620.9229	2466.2	1584.85
988.787	2622.199	2472.8	1591.1
988.9117	2623.4745	2454.3	1571.55
989.0364	2624.7493	2458.95	1577.85
989.161	2626.0234	2443.25	1561.75
989.2857	2627.2968	2427.75	1545.95
989.4102	2628.5695	2428.25	1544.8
989.5348	2629.8415	2421.55	1540.4
989.6593	2631.1128	2424.5	1540.9
989.7837	2632.3835	2399.3	1519.15
989.9082	2633.6535	2401.85	1519.55
990.0326	2634.9228	2395.95	1514.6
990.1569	2636.1914	2404.15	1521.25
990.2812	2637.4593	2389.25	1502
990.4055	2638.7265	2374.3	1492
990.5298	2639.9931	2365.45	1484.25
990.654	2641.259	2364.25	1480.9
990.7782	2642.5242	2364.5	1483.7
990.9023	2643.7887	2347.2	1467.5
991.0264	2645.0525	2351.05	1467.45
991.1505	2646.3156	2339	1458.95
991.2745	2647.5781	2332.75	1450.75
991.3985	2648.8398	2328	1447.8
991.5225	2650.1009	2329.65	1441.4
991.6464	2651.3613	2327.9	1444.7
991.7703	2652.6211	2314.2	1431.25
991.8942	2653.8801	2310.3	1429
992.018	2655.1385	2296.75	1413.75
992.1418	2656.3961	2304.85	1423.95
992.2655	2657.6531	2291.75	1411.4
992.3892	2658.9094	2298.85	1418.7
992.5129	2660.1651	2278.65	1400.05
992.6366	2661.42	2278.75	1397.75
992.7602	2662.6743	2278	1394.5
992.8837	2663.9279	2283.55	1401.7
993.0073	2665.1808	2274.95	1393.9
993.1307	2666.433	2269.25	1385.4
993.2542	2667.6846	2250.95	1369.5
993.3776	2668.9354	2261.45	1377
993.501	2670.1856	2242.65	1359.8
993.6244	2671.4351	2248.45	1366.9
993.7477	2672.6839	2247.65	1364.5
993.8709	2673.9321	2247.1	1367.65
993.9942	2675.1795	2241.25	1360.55
994.1174	2676.4263	2227.3	1347.2
994.2405	2677.6724	2221.3	1341.05
994.3637	2678.9179	2218.45	1336.05
994.4868	2680.1626	2200.4	1321
994.6098	2681.4067	2203.6	1321.3
994.7328	2682.6501	2203.15	1321.45
994.8558	2683.8928	2194.4	1311.85
994.9788	2685.1348	2176.7	1296.75
995.1017	2686.3761	2175.1	1294
995.2245	2687.6168	2166.7	1284
995.3474	2688.8568	2173.35	1293.25
995.4702	2690.0961	2162.1	1281.9
995.5929	2691.3348	2155.6	1274.75
995.7156	2692.5727	2160	1278.55
995.8383	2693.81	2160.65	1279.55
995.961	2695.0466	2144.85	1265.25
996.0836	2696.2826	2132.15	1249.1
996.2062	2697.5178	2144.45	1260.55
996.3287	2698.7524	2135.1	1254.4
996.4512	2699.9863	2140.25	1257.6
996.5737	2701.2195	2122.8	1241.45
996.6961	2702.452	2121.25	1240.25
996.8185	2703.6839	2101.5	1219.35
996.9408	2704.9151	2106.25	1225.9
997.0631	2706.1456	2102.95	1220.9
997.1854	2707.3755	2096.35	1212.85
997.3077	2708.6046	2102.15	1219.75
997.4299	2709.8331	2086.4	1205.2
997.552	2711.0609	2080.75	1200.15
997.6742	2712.2881	2083.05	1201.35
997.7963	2713.5145	2074.65	1190.4
997.9183	2714.7403	2079.2	1197.5
998.0403	2715.9654	2070.05	1188.95
998.1623	2717.1899	2073.75	1179.15
998.2842	2718.4136	2057.85	1177.3
998.4062	2719.6367	2053.75	1174.7
998.528	2720.8591	2060.75	1174.15
998.6498	2722.0809	2036.85	1156.4
998.7716	2723.3019	2047.75	1163.6
998.8934	2724.5223	2044.15	1160.9
999.0151	2725.7421	2033.5	1151.8
999.1368	2726.9611	2007.2	1123.75
999.2584	2728.1795	2022.7	1133.55
999.38	2729.3972	2018.95	1140.15
999.5016	2730.6142	2015.1	1122
999.6231	2731.8306	1991.6	1107.2
999.7446	2733.0462	1992.95	1111.2
999.8661	2734.2612	1993.35	1107.9
999.9875	2735.4756	1983.05	1100.65
1000.1089	2736.6892	1980.8	1099.85
1000.2302	2737.9022	1967.6	1085.9
1000.3515	2739.1145	1957.5	1075.2
1000.4728	2740.3262	1965.25	1075.85
1000.594	2741.5372	1955.05	1075
1000.7152	2742.7475	1947.4	1066.2
1000.8363	2743.9571	1955.2	1072.05
1000.9575	2745.1661	1954.3	1070.35
1001.0785	2746.3744	1936.5	1054.75
1001.1996	2747.582	1935.1	1055
1001.3206	2748.7889	1938.35	1055
1001.4415	2749.9952	1928.9	1048.35
1001.5625	2751.2008	1916.85	1034.8
1001.6833	2752.4057	1922.75	1039.6
1001.8042	2753.61	1909.75	1026.1
1001.925	2754.8136	1903.25	1022.15
1002.0458	2756.0165	1900.45	1021.5
1002.1665	2757.2188	1904.05	1022.25
1002.2872	2758.4204	1900.7	1018.95
1002.4078	2759.6213	1897.9	1016.4
1002.5285	2760.8215	1892.85	1007
1002.649	2762.0211	1882.7	999.05
1002.7696	2763.22	1877	993.3
1002.8901	2764.4182	1878.75	996.65
1003.0106	2765.6158	1871.15	990.6
1003.131	2766.8127	1859.65	978.15
1003.2514	2768.009	1861.5	980.75
1003.3717	2769.2045	1855.85	972.15
1003.492	2770.3994	1849.3	969.55
1003.6123	2771.5936	1850.2	969.5
1003.7325	2772.7872	1840.65	961.45
1003.8527	2773.9801	1834.7	951.45
1003.9729	2775.1723	1855.3	957.55
1004.093	2776.3639	1833.4	955.3
1004.2131	2777.5548	1830.95	947.75
1004.3331	2778.745	1832	950
1004.4531	2779.9346	1822.2	941.2
1004.5731	2781.1235	1811.45	930.25
1004.693	2782.3117	1817	937.3
1004.8129	2783.4992	1816.2	934.1
1004.9328	2784.6861	1809.05	928
1005.0526	2785.8723	1805.3	923.5
1005.1723	2787.0579	1792.55	911.85
1005.2921	2788.2428	1801.5	921.85
1005.4118	2789.427	1788.25	908.25
1005.5314	2790.6106	1785.45	904
1005.651	2791.7935	1782.25	899.65
1005.7706	2792.9757	1780.35	901.05
1005.8902	2794.1573	1765.35	882.7
1006.0097	2795.3382	1765.35	885.7
1006.1291	2796.5184	1761.35	880.9
1006.2485	2797.698	1754.8	872.9
1006.3679	2798.8769	1756.7	875.9
1006.4873	2800.0551	1760	877.05
1006.6066	2801.2327	1743.95	862.25
1006.7258	2802.4096	1740.25	859.4
1006.8451	2803.5859	1743.45	861.25
1006.9642	2804.7615	1741.15	860.3
1007.0834	2805.9364	1734.25	854
1007.2025	2807.1106	1728.75	849.25
1007.3216	2808.2842	1738.6	857.3
1007.4406	2809.4572	1723.15	843.7
1007.5596	2810.6294	1720.35	840.4
1007.6785	2811.801	1720.25	842.85
1007.7975	2812.972	1727.7	848.3
1007.9163	2814.1423	1718.05	836.4
1008.0352	2815.3119	1722	840.9
1008.154	2816.4808	1715.95	836.35
1008.2727	2817.6491	1728.35	837.85
1008.3914	2818.8167	1716.35	837.75
1008.5101	2819.9837	1723.7	836.8
1008.6288	2821.15	1717.2	834.4
1008.7474	2822.3157	1719.7	839
1008.8659	2823.4807	1725.45	842.1
1008.9844	2824.645	1738.5	857.7
1009.1029	2825.8086	1737.35	855.9
1009.2214	2826.9716	1742.7	864.5
1009.3398	2828.134	1754.15	873.1
1009.4581	2829.2957	1754.45	874.15
1009.5764	2830.4567	1755.45	876.55
1009.6947	2831.617	1757.5	875.85
1009.813	2832.7767	1757.05	877.7
1009.9312	2833.9358	1758.85	880.2
1010.0493	2835.0941	1750.8	868.85
1010.1675	2836.2519	1759.05	878.75
1010.2855	2837.4089	1742.8	859.5
1010.4036	2838.5653	1736.45	856.95
1010.5216	2839.7211	1724.5	846.2
1010.6396	2840.8761	1725	842.2
1010.7575	2842.0306	1720.2	843.1
1010.8754	2843.1843	1723.35	843.2
1010.9932	2844.3374	1714.5	836.05
1011.111	2845.4899	1716.95	837
1011.2288	2846.6417	1709.25	828.4
1011.3465	2847.7928	1711.4	829.95
1011.4642	2848.9433	1709.5	830
1011.5818	2850.0931	1710.95	831.4
1011.6995	2851.2422	1708	826.4
1011.817	2852.3907	1708.45	826.35
1011.9345	2853.5385	1709.35	828.95
1012.052	2854.6857	1721	830.7
1012.1695	2855.8323	1698.85	819.75
1012.2869	2856.9781	1698.25	819.6
1012.4042	2858.1233	1705.25	822.65
1012.5216	2859.2679	1705.65	826.25
1012.6389	2860.4118	1699.15	818.4
1012.7561	2861.555	1711.9	826.1
1012.8733	2862.6976	1699	819.4
1012.9905	2863.8395	1707.3	826.35
1013.1076	2864.9808	1703.2	823.75
1013.2247	2866.1214	1697.5	817.45
1013.3417	2867.2614	1700.05	819.85
1013.4587	2868.4007	1698.3	815.3
1013.5757	2869.5393	1702.95	818.75
1013.6926	2870.6773	1702.55	819.85
1013.8095	2871.8146	1703.6	819.85
1013.9263	2872.9513	1704.65	822.45
1014.0431	2874.0874	1698.6	818.85
1014.1599	2875.2227	1701.1	820.2
1014.2766	2876.3574	1689.25	807.85
1014.3933	2877.4915	1686.05	806.1
1014.51	2878.6249	1691.25	810.1
1014.6266	2879.7577	1697.05	815.35
1014.7431	2880.8898	1696.9	807.75
1014.8596	2882.0212	1688.95	809.95
1014.9761	2883.152	1683.15	801.85
1015.0925	2884.2821	1688.95	808.35
1015.2089	2885.4116	1679.2	801.1
1015.3253	2886.5405	1680.15	801.1
1015.4416	2887.6686	1683.8	801.7
1015.5579	2888.7962	1673.3	796.15
1015.6741	2889.923	1677.9	799.3
1015.7903	2891.0493	1667.7	791.65
1015.9065	2892.1748	1677.6	797.5
1016.0226	2893.2997	1659.3	778.45
1016.1387	2894.424	1661.95	784.55
1016.2547	2895.5476	1656.7	775.4
1016.3707	2896.6706	1665.25	785.45
1016.4866	2897.7929	1659.9	776.95
1016.6025	2898.9145	1650.25	768.9
1016.7184	2900.0355	1648.4	768
1016.8342	2901.1559	1643	760.75
1016.95	2902.2756	1642.35	763.05
1017.0658	2903.3946	1641.95	762
1017.1815	2904.513	1635.3	751.6
1017.2971	2905.6308	1627.35	747.75
1017.4127	2906.7479	1627.9	745.75
1017.5283	2907.8643	1627	746.75
1017.6439	2908.9801	1618.4	737.1
1017.7594	2910.0953	1628.15	745.6
1017.8748	2911.2098	1618.7	735.75
1017.9902	2912.3236	1616.5	727.85
1018.1056	2913.4368	1609.7	726.45
1018.2209	2914.5494	1610.05	729.65
1018.3362	2915.6613	1606.5	719
1018.4515	2916.7725	1604.15	721.45
1018.5667	2917.8831	1597.05	714.35
1018.6819	2918.9931	1591.95	709.4
1018.797	2920.1024	1587.75	705.55
1018.9121	2921.211	1579.3	698.3
1019.0271	2922.319	1579.2	696.65
1019.1421	2923.4264	1579.95	699.7
1019.2571	2924.5331	1567.4	688
1019.372	2925.6391	1560.85	681.05
1019.4869	2926.7445	1565.45	685.65
1019.6017	2927.8493	1571.15	691.25
1019.7165	2928.9534	1562.85	682.2
1019.8313	2930.0569	1563.25	679.65
1019.946	2931.1597	1564.4	683.3
1020.0606	2932.2619	1554.95	674.35
1020.1753	2933.3634	1557.2	676.85
1020.2899	2934.4643	1570.3	681.4
1020.4044	2935.5645	1570.55	684.55
1020.5189	2936.6641	1561.25	675.1
1020.6334	2937.763	1563.15	684.45
1020.7478	2938.8613	1555.3	676.3
1020.8622	2939.959	1549	665.2
1020.9765	2941.056	1549.85	672
1021.0908	2942.1523	1530.95	650
1021.2051	2943.248	1520.85	639.75
1021.3193	2944.3431	1516.6	635.55
1021.4334	2945.4375	1508.65	626.75
1021.5476	2946.5313	1496.6	616.2
1021.6617	2947.6244	1483.15	605.35
1021.7757	2948.7169	1483.95	602.95
1021.8897	2949.8087	1465.15	583.35
1022.0037	2950.8999	1462	581
1022.1176	2951.9904	1457.05	576.7
1022.2315	2953.0803	1445.9	565.8
1022.3453	2954.1696	1431.75	550.55
1022.4591	2955.2582	1431.05	552.7
1022.5728	2956.3462	1426.25	544.35
1022.6865	2957.4335	1423.05	543.65
1022.8002	2958.5202	1421.5	539.5
1022.9138	2959.6062	1413.8	534
1023.0274	2960.6916	1417.3	536.5
1023.141	2961.7764	1413.25	531.7
1023.2545	2962.8605	1412.95	530.85
1023.3679	2963.9439	1405.2	526.25
1023.4813	2965.0267	1400.5	518.65
1023.5947	2966.1089	1429.9	526.15
1023.708	2967.1905	1405.9	525.75
1023.8213	2968.2714	1397.6	517
1023.9346	2969.3516	1388.95	509.4
1024.0478	2970.4312	1396.25	508.35
1024.1609	2971.5102	1381.7	503.15
1024.274	2972.5885	1382.45	501.25
1024.3871	2973.6662	1388.85	503.05
1024.5002	2974.7432	1387.25	509.3
1024.6132	2975.8196	1380.35	498.9
1024.7261	2976.8954	1379	498.35
1024.839	2977.9705	1378.95	500.3
1024.9519	2979.045	1377.75	497.35
1025.0647	2980.1188	1375.7	496.1
1025.1775	2981.192	1368.95	490.7
1025.2902	2982.2645	1372.2	489.35
1025.4029	2983.3364	1363.35	483.65
1025.5156	2984.4077	1350.65	470.8
1025.6282	2985.4783	1356.5	471.6
1025.7407	2986.5483	1348.1	469.4
1025.8532	2987.6177	1348.2	469.15
1025.9657	2988.6864	1340.85	461.25
1026.0782	2989.7545	1346.25	464.75
1026.1906	2990.8219	1335.15	456.55
1026.3029	2991.8887	1331.5	450.05
1026.4152	2992.9548	1331.4	449.7
1026.5275	2994.0204	1319.9	440.55
1026.6397	2995.0852	1313.2	433.65
1026.7519	2996.1495	1314.45	431.1
1026.864	2997.2131	1311.3	431.45
1026.9761	2998.276	1306.2	427.2
1027.0882	2999.3383	1308.7	427.7
1027.2002	3000.4	1296.1	416.25
1027.3122	3001.4611	1290	409.7
1027.4241	3002.5215	1295.8	415.2
1027.536	3003.5812	1291.25	411
1027.6478	3004.6404	1287.25	409
1027.7596	3005.6989	1291.4	408.1
1027.8714	3006.7567	1285.3	406.35
1027.9831	3007.8139	1311.15	409.7
1028.0947	3008.8705	1279.35	399.55
1028.2064	3009.9264	1276.65	392.9
1028.3179	3010.9818	1271.05	388.85
1028.4295	3012.0364	1269.95	388.5
1028.541	3013.0905	1271.4	394.7
1028.6524	3014.1439	1266.6	386.8
1028.7638	3015.1966	1262.1	383.2
1028.8752	3016.2487	1264.2	383.55
1028.9865	3017.3002	1268.05	382.25
1029.0978	3018.3511	1262.25	384.25
1029.209	3019.4013	1264.7	382.7
1029.3202	3020.4509	1252.75	372.8
1029.4314	3021.4998	1259.6	377.95
1029.5425	3022.5481	1256.8	377.05
1029.6535	3023.5958	1241.35	362.6
1029.7645	3024.6428	1248.8	366.6
1029.8755	3025.6892	1249.35	371.75
1029.9864	3026.735	1249.05	365.45
1030.0973	3027.7802	1245.9	366.5
1030.2082	3028.8247	1241.45	362.9
1030.319	3029.8685	1244.05	360.35
1030.4297	3030.9118	1243.1	361.95
1030.5404	3031.9544	1239.2	358.7
1030.6511	3032.9963	1232.75	353.15
1030.7617	3034.0376	1235.85	356.95
1030.8723	3035.0783	1231.95	349.7
1030.9829	3036.1184	1236	354.5
1031.0934	3037.1578	1233.25	355.5
1031.2038	3038.1966	1225.85	344
1031.3142	3039.2348	1225.3	346.5
1031.4246	3040.2723	1238.95	347.7
1031.5349	3041.3092	1223.45	344.65
1031.6452	3042.3455	1223.65	343
1031.7554	3043.3811	1218.2	336.7
1031.8656	3044.4161	1214.1	334.9
1031.9758	3045.4505	1218.8	339.3
1032.0859	3046.4842	1223.05	341.75
1032.1959	3047.5173	1214.25	336.25
1032.3059	3048.5498	1211.15	331.2
1032.4159	3049.5816	1214.25	335.1
1032.5258	3050.6128	1215	332.45
1032.6357	3051.6434	1215.25	332.6
1032.7455	3052.6734	1214.55	333.5
1032.8553	3053.7027	1210.65	330.3
1032.9651	3054.7314	1210.75	330.65
1033.0748	3055.7594	1206.65	326.95
1033.1845	3056.7868	1204.6	322.25
1033.2941	3057.8136	1199.2	320.05
1033.4037	3058.8398	1201.25	322.35
1033.5132	3059.8653	1206.7	328.15
1033.6227	3060.8902	1200.4	320.7
1033.7321	3061.9145	1200.6	322.05
1033.8415	3062.9381	1202.3	323.25
1033.9509	3063.9612	1212.25	315.3
1034.0602	3064.9835	1198.75	320.55
1034.1694	3066.0053	1198.15	315.5
1034.2787	3067.0264	1189.2	308.7
1034.3878	3068.0469	1194.7	314.3
1034.497	3069.0668	1198.1	315.65
1034.6061	3070.086	1188.1	308.3
1034.7151	3071.1046	1193.75	315.15
1034.8241	3072.1226	1188.2	307.5
1034.9331	3073.1399	1191.3	314.4
1035.042	3074.1567	1180	297.45
1035.1508	3075.1727	1187.35	307.25
1035.2597	3076.1882	1177.15	294.95
1035.3684	3077.203	1183.25	304.45
1035.4772	3078.2173	1176.75	295.6
1035.5859	3079.2308	1181.75	298.25
1035.6945	3080.2438	1178	295.85
1035.8031	3081.2561	1175.4	295.55
1035.9117	3082.2678	1169.4	291.2
1036.0202	3083.2789	1168.15	290.25
1036.1286	3084.2893	1169.6	289.75
1036.2371	3085.2991	1168.45	288.8
1036.3454	3086.3083	1169.25	284.4
1036.4538	3087.3169	1161.1	278.8
1036.562	3088.3248	1165.4	284.45
1036.6703	3089.3321	1158.85	275.95
1036.7785	3090.3388	1165.45	288.4
1036.8866	3091.3449	1161.35	282.95
1036.9948	3092.3503	1164.45	280.5
1037.1028	3093.3551	1160.1	283.65
1037.2108	3094.3593	1155.65	275.5
1037.3188	3095.3629	1156.05	278.05
1037.4267	3096.3658	1154.35	272.3
1037.5346	3097.3681	1157.5	277.45
1037.6425	3098.3698	1152.5	270.8
1037.7503	3099.3708	1150.9	262.8
1037.858	3100.3713	1142.35	264.1
1037.9657	3101.3711	1151.75	272.55
1038.0734	3102.3702	1281.45	267.65
1038.181	3103.3688	1140.85	259.1
1038.2886	3104.3667	1138.35	260.55
1038.3961	3105.364	1132.95	253.15
1038.5036	3106.3607	1132.05	250.5
1038.611	3107.3568	1135.35	251.25
1038.7184	3108.3522	1135.7	256.7
1038.8257	3109.347	1136.2	255.7
1038.933	3110.3412	1138.05	253.2
1039.0403	3111.3348	1127.75	247.95
1039.1475	3112.3277	1126.6	246.05
1039.2547	3113.32	1126.7	249.8
1039.3618	3114.3117	1128.55	248.05
1039.4689	3115.3028	1121.95	241.55
1039.5759	3116.2932	1121.85	242.65
1039.6829	3117.2831	1125	237.1
1039.7898	3118.2723	1114.25	236.4
1039.8967	3119.2608	1114.3	233.45
1040.0035	3120.2488	1112.65	231.5
1040.1103	3121.2361	1115.35	235.5
1040.2171	3122.2229	1115	234.8
1040.3238	3123.209	1115.6	233.5
1040.4305	3124.1944	1106.45	227.85
1040.5371	3125.1793	1111.25	230
1040.6437	3126.1635	1106.8	226.4
1040.7502	3127.1471	1107.5	227.1
1040.8567	3128.1301	1102.55	223.4
1040.9631	3129.1125	1100.95	221.85
1041.0695	3130.0942	1100.95	221.8
1041.1759	3131.0753	1107.8	219.2
1041.2822	3132.0558	1105.6	220.7
1041.3884	3133.0357	1101.6	223.05
1041.4946	3134.015	1099.85	218.8
1041.6008	3134.9936	1096.85	215.7
1041.7069	3135.9716	1115.7	212.8
1041.813	3136.949	1097.6	217.6
1041.919	3137.9258	1099.2	214.55
1042.025	3138.902	1101.15	215.65
1042.1309	3139.8775	1094	215.65
1042.2368	3140.8524	1089.7	211.25
1042.3427	3141.8267	1096.1	214
1042.4485	3142.8004	1090.25	209.65
1042.5542	3143.7735	1095.45	208.95
1042.6599	3144.7459	1094.3	213.15
1042.7656	3145.7178	1090.15	210.05
1042.8712	3146.689	1088.75	209.3
1042.9768	3147.6596	1083.7	202
1043.0823	3148.6295	1085.15	204.2
1043.1878	3149.5989	1084.05	204.3
1043.2932	3150.5676	1078.25	200.85
1043.3986	3151.5357	1077.6	199.85
1043.5039	3152.5032	1080.55	200.9
1043.6092	3153.4701	1074.3	194.7
1043.7145	3154.4364	1082.15	200.4
1043.8197	3155.402	1077.05	196.55
1043.9248	3156.367	1073.25	190.6
1044.03	3157.3315	1112.1	195.4
1044.135	3158.2952	1077.85	200.15
1044.24	3159.2584	1072.15	193.75
1044.345	3160.221	1071.2	191
1044.4499	3161.1829	1069.8	187.8
1044.5548	3162.1442	1068.55	188.6
1044.6596	3163.105	1070.95	191.25
1044.7644	3164.065	1069.9	189.4
1044.8692	3165.0245	1075.55	192.8
1044.9739	3165.9834	1066.55	188.9
1045.0785	3166.9416	1065.05	186.55
1045.1831	3167.8993	1058.4	178.7
1045.2877	3168.8563	1064.65	184
1045.3922	3169.8127	1060.65	181.85
1045.4966	3170.7684	1060.15	180.3
1045.6011	3171.7236	1058.25	176.45
1045.7054	3172.6782	1062.1	184.3
1045.8098	3173.6321	1060.05	179.9
1045.914	3174.5854	1056.65	172.35
1046.0183	3175.5381	1057.75	176.75
1046.1224	3176.4902	1051.55	171.3
1046.2266	3177.4417	1053.05	173.85
1046.3307	3178.3926	1051.75	172.1
1046.4347	3179.3428	1049.15	170.3
1046.5387	3180.2924	1051.3	171.75
1046.6427	3181.2415	1052	172.8
1046.7466	3182.1899	1047.15	166.85
1046.8504	3183.1377	1047.6	169
1046.9542	3184.0848	1050	167.35
1047.058	3185.0314	1046.75	165.15
1047.1617	3185.9773	1045.65	165.25
1047.2654	3186.9227	1045.05	162.75
1047.369	3187.8674	1042.4	161.1
1047.4726	3188.8115	1043.8	160.4
1047.5761	3189.755	1043.55	164.6
1047.6796	3190.6979	1041.65	162.75
1047.783	3191.6402	1037.85	159.6
1047.8864	3192.5818	1036.05	156.9
1047.9898	3193.5229	1039.8	152.65
1048.0931	3194.4633	1039.55	160.65
1048.1963	3195.4031	1037.1	156.9
1048.2995	3196.3423	1038.1	157.45
1048.4027	3197.2809	1036.15	154
1048.5058	3198.2189	1034.3	154.2
1048.6089	3199.1563	1041.25	155.85
1048.7119	3200.0931	1028.55	151.35
1048.8148	3201.0292	1030.1	151.95
1048.9178	3201.9648	1030.55	149.8
1049.0206	3202.8997	1034.1	152.15
1049.1235	3203.834	1030.15	150.65
1049.2262	3204.7677	1032.15	153.9
1049.329	3205.7008	1028.9	146.85
1049.4317	3206.6333	1026.8	147.05
1049.5343	3207.5652	1025.1	143.7
1049.6369	3208.4964	1029.5	150.35
1049.7394	3209.4271	1023.35	144.25
1049.8419	3210.3571	1021.3	142.95
1049.9444	3211.2865	1020.8	141.35
1050.0468	3212.2154	1023.85	145.05
1050.1491	3213.1436	1024.85	142.7
1050.2514	3214.0712	1028.15	142.85
1050.3537	3214.9982	1025	144.55
1050.4559	3215.9246	1024.35	145
1050.5581	3216.8503	1018.3	140.05
1050.6602	3217.7755	1017.4	137.95
1050.7623	3218.7001	1016.2	138.4
1050.8643	3219.624	1017.05	137.65
1050.9663	3220.5473	1016.3	137.9
1051.0682	3221.4701	1017.8	137.35
1051.1701	3222.3922	1019.65	137.6
1051.2719	3223.3137	1015.25	135.05
1051.3737	3224.2346	1012.35	132.1
1051.4754	3225.1549	1013.3	133.35
1051.5771	3226.0746	1013.4	135.4
1051.6788	3226.9937	1010.05	129.3
1051.7804	3227.9121	1011.95	133.1
1051.8819	3228.83	1010.1	130.7
1051.9834	3229.7473	1009.35	130.8
1052.0849	3230.6639	1012.3	133.35
1052.1863	3231.5799	1008.5	131.55
1052.2876	3232.4954	1007.4	125.45
1052.3889	3233.4102	1008.1	130.1
1052.4902	3234.3244	1006	126.35
1052.5914	3235.238	1008.2	126.85
1052.6926	3236.151	1027.85	123.3
1052.7937	3237.0634	1000.75	121.3
1052.8948	3237.9752	1005.25	125.75
1052.9958	3238.8864	1003.9	123.7
1053.0968	3239.797	1000.4	120.05
1053.1977	3240.7069	1001.45	121.5
1053.2986	3241.6163	1002.8	119.8
1053.3994	3242.5251	999.75	122.15
1053.5002	3243.4332	997.15	118.5
1053.6009	3244.3408	994.35	113.9
1053.7016	3245.2477	994.35	115.15
1053.8022	3246.154	998.45	116.35
1053.9028	3247.0598	993.9	114.4
1054.0034	3247.9649	991.75	112.45
1054.1039	3248.8694	994	112.85
1054.2043	3249.7733	989.4	110.8
1054.3047	3250.6766	992.95	113.75
1054.4051	3251.5793	992.8	113
1054.5054	3252.4814	988.6	110.55
1054.6056	3253.3829	989.45	110.2
1054.7058	3254.2838	993.8	113.3
1054.806	3255.1841	988.85	110
1054.9061	3256.0838	988.05	106.55
1055.0061	3256.9829	987	110.25
1055.1062	3257.8814	987.5	105.45
1055.2061	3258.7792	989.15	108.65
1055.306	3259.6765	983.9	102.65
1055.4059	3260.5731	985.55	107.05
1055.5057	3261.4692	981.75	102.4
1055.6055	3262.3647	980.45	100.35
1055.7052	3263.2595	978.25	98.5
1055.8049	3264.1538	977.85	97.7
1055.9045	3265.0474	977.8	98.15
1056.0041	3265.9404	974.65	94.55
1056.1036	3266.8329	973.6	95.5
1056.2031	3267.7247	979.15	89.75
1056.3025	3268.616	967.25	88.6
1056.4019	3269.5066	967.35	88.05
1056.5013	3270.3966	965.5	83.15
1056.6005	3271.286	961	80.9
