Software Version:	3.9.2.0
Unit SN:	10000200
Spectrometer SN:	6960
Date:	3/6/2024 9:37:46 AM
Data Line Index:	25
Spectral Points:	2048
Integration time (ms):	125
Averages:	20
Delay (ms):	30
Sequence Number:	1
Processing:	dark subtract
Laser Power (mW):	295
Laser Current (mA):	824
Laser Diode Temp (C):	25
Laser Case Temp (C):	23.9
System Temp (C):	23.7
Spectrometer Temp (C):	21.4
CCD Temp (C):	-0.019
Secondary Temp (C):	20
Heatsink Temp (C):	17.172
CCDPCB Temp (C):	30.76
SecondaryPCB Temp (C):	25.78

Wavelength	RamanShift	Raw Counts	Dark Subtracted
787.061	30.1047	509.3	102.05
787.2016	32.3739	511.9	106.55
787.3422	34.6426	517.45	112.9
787.4828	36.9109	524.25	115.7
787.6235	39.1787	534.5	123.8
787.7642	41.4461	548.1	132.25
787.9049	43.7131	558.95	138.85
788.0456	45.9796	568.6	147.25
788.1863	48.2456	584.8	157.9
788.3271	50.5112	589.4	158.55
788.4679	52.7764	605.15	171.05
788.6087	55.0411	615.25	177.25
788.7496	57.3054	637.25	195.55
788.8904	59.5692	651.65	208.15
789.0313	61.8326	665.85	221.45
789.1722	64.0955	683.25	235.55
789.3132	66.3579	705.8	251.55
789.4541	68.6199	734	276.8
789.5951	70.8815	786.35	324.1
789.7361	73.1426	882.35	417.55
789.8771	75.4032	1132.7	663.7
790.0181	77.6634	1770.6	1298.6
790.1592	79.9231	3294.85	2821.05
790.3003	82.1824	6595.4	6117.45
790.4414	84.4412	12423.9	11937
790.5825	86.6995	20290.6	19795.3
790.7237	88.9574	27865.3	27364.15
790.8648	91.2148	33327.95	32823.55
791.006	93.4717	36060.95	35554.25
791.1472	95.7282	37276.5	36768.25
791.2885	97.9842	37843.95	37333.55
791.4297	100.2398	38122.65	37609.55
791.571	102.4949	38091.6	37574.8
791.7123	104.7495	38299.6	37780.1
791.8536	107.0036	38135.75	37613.3
791.9949	109.2573	38405.95	37884.95
792.1363	111.5105	38203.8	37679.95
792.2777	113.7632	38388.8	37863.1
792.4191	116.0154	38428.15	37891.5
792.5605	118.2672	38661.6	38131.25
792.7019	120.5185	38644.1	38114.3
792.8434	122.7693	38698.05	38165.5
792.9849	125.0197	38673.75	38134.7
793.1264	127.2696	38965.95	38423.65
793.2679	129.519	39133.35	38587.5
793.4094	131.7679	39329.2	38782.6
793.551	134.0163	38959.95	38408.95
793.6926	136.2642	39203.1	38649.25
793.8342	138.5117	39522.65	38963.7
793.9758	140.7587	39503.8	38945.1
794.1175	143.0052	39585.45	39023.4
794.2591	145.2512	39319.05	38756.6
794.4008	147.4967	39596.85	39031.8
794.5425	149.7417	39534.55	38968.5
794.6842	151.9863	39575.4	39006.15
794.826	154.2304	39410.05	38838.6
794.9677	156.4739	39584	39001.3
795.1095	158.717	39762.05	39181.2
795.2513	160.9596	39690.5	39104.85
795.3931	163.2017	39540.65	38951.6
795.535	165.4433	39887.6	39300.3
795.6768	167.6844	39777.05	39186.25
795.8187	169.925	39967	39371.85
795.9606	172.1651	39885.85	39287.35
796.1025	174.4047	39834.85	39233.7
796.2445	176.6439	39905.2	39301.25
796.3864	178.8825	39942.1	39334.75
796.5284	181.1206	40130	39518.4
796.6704	183.3582	40149.8	39535.3
796.8124	185.5954	40007.9	39392
796.9544	187.832	40182.3	39561.3
797.0965	190.0681	40143.95	39519.95
797.2386	192.3037	40434.25	39808.35
797.3806	194.5388	40732.85	40105.45
797.5228	196.7734	40250.95	39623.65
797.6649	199.0075	40816.95	40186.8
797.807	201.2411	40891.65	40261
797.9492	203.4742	41189.8	40556.55
798.0914	205.7068	41275.1	40634.5
798.2336	207.9389	41267.9	40627.1
798.3758	210.1704	41278.9	40648.25
798.518	212.4015	41540	40920.1
798.6603	214.632	41321.45	40703.8
798.8025	216.862	41678.05	41061
798.9448	219.0915	41677.4	41056.95
799.0871	221.3205	41623.2	41001.9
799.2294	223.549	41950.75	41334.6
799.3718	225.777	41997.05	41378.85
799.5141	228.0044	42097.1	41469.9
799.6565	230.2314	42125.65	41497.15
799.7989	232.4578	42074.4	41441.3
799.9413	234.6837	42148.2	41505.55
800.0837	236.909	42675.55	42031.35
800.2262	239.1339	42082.65	41414.35
800.3687	241.3582	42400.4	41749.1
800.5111	243.582	42417.25	41737.05
800.6536	245.8053	42533.65	41865.85
800.7961	248.0281	42518.7	41851.7
800.9387	250.2503	42706.6	42039.35
801.0812	252.472	42586.95	41919.45
801.2238	254.6932	42765.35	42097.55
801.3664	256.9139	42634.85	41964.2
801.509	259.134	43171.95	42495.4
801.6516	261.3536	42634.85	41962.4
801.7942	263.5727	43177.8	42502.55
801.9369	265.7912	42933.9	42258.6
802.0795	268.0092	43070.05	42396.35
802.2222	270.2267	43204	42527.9
802.3649	272.4436	43040.45	42361.8
802.5076	274.6601	43272.5	42582
802.6504	276.8759	43400	42714.45
802.7931	279.0913	43390.45	42704.75
802.9359	281.3061	43368.45	42680.3
803.0787	283.5204	43597.1	42910
803.2215	285.7341	43596.2	42904.9
803.3643	287.9473	43872.75	43171.2
803.5071	290.16	43660	42964.05
803.6499	292.3721	43858.1	43170.75
803.7928	294.5837	43514.3	42824.5
803.9357	296.7947	43337.05	42646.05
804.0786	299.0052	43711.8	43021.15
804.2215	301.2152	43455.95	42761.8
804.3644	303.4246	43765.8	43072.05
804.5074	305.6334	43762.75	43071.6
804.6503	307.8418	43493.1	42796.95
804.7933	310.0495	43578.65	42879.3
804.9363	312.2568	43454.65	42757.9
805.0793	314.4635	43370.85	42671.75
805.2223	316.6696	43433.65	42728.1
805.3653	318.8752	43507.55	42796.05
805.5084	321.0802	42988.45	42285.7
805.6514	323.2847	43177.35	42468.6
805.7945	325.4887	43153.35	42444.7
805.9376	327.692	43036.3	42327.2
806.0807	329.8949	43323.15	42614.95
806.2238	332.0972	43223.8	42512.7
806.367	334.2989	43379	42663.35
806.5101	336.5001	43609.75	42893.25
806.6533	338.7007	43229.65	42511.6
806.7965	340.9008	43441.7	42725.4
806.9397	343.1003	43373.85	42654.15
807.0829	345.2992	43536.7	42815.85
807.2261	347.4976	43279.5	42554.4
807.3693	349.6955	43313.75	42588.05
807.5126	351.8927	43262.75	42533.8
807.6559	354.0895	43330.3	42590.5
807.7991	356.2856	43333.65	42604.8
807.9424	358.4812	43458.45	42729.35
808.0857	360.6763	43228.9	42494.85
808.2291	362.8707	43375.35	42637.4
808.3724	365.0646	43260.25	42523
808.5158	367.258	43288.65	42548.1
808.6591	369.4508	43059.3	42316.85
808.8025	371.643	43346.15	42603.65
808.9459	373.8346	43238.9	42495.5
809.0893	376.0257	43267.55	42519.35
809.2327	378.2162	43168.2	42421.05
809.3762	380.4062	43022.25	42274.55
809.5196	382.5956	43033.05	42288.15
809.6631	384.7844	43058	42318
809.8066	386.9726	43071.75	42332.75
809.9501	389.1603	43072.75	42336.95
810.0936	391.3474	42824.55	42037.95
810.2371	393.5339	43022.25	42281.05
810.3806	395.7199	42652.95	41914.9
810.5241	397.9052	42750	42011.9
810.6677	400.09	42822.8	42082.25
810.8113	402.2743	42934	42192.4
810.9548	404.4579	42801.65	42059.15
811.0984	406.641	42775.2	42029.2
811.2421	408.8235	42947.75	42199.6
811.3857	411.0054	42962.9	42212.45
811.5293	413.1868	43075.3	42324.15
811.673	415.3675	43005	42247.65
811.8166	417.5477	43047.15	42287.65
811.9603	419.7273	42935.75	42174.3
812.104	421.9064	42768.3	41999.35
812.2477	424.0848	42706.5	41946.1
812.3914	426.2627	42718.15	41955.15
812.5351	428.4399	42406.5	41644.45
812.6788	430.6166	42161.55	41390.7
812.8226	432.7928	42285.65	41515.65
812.9663	434.9683	41996.05	41228.9
813.1101	437.1432	42031.15	41260.85
813.2539	439.3176	42063.55	41293.35
813.3977	441.4914	41701.8	40935.9
813.5415	443.6645	41745.3	40972.95
813.6853	445.8371	41651.65	40881.45
813.8291	448.0091	41441.8	40669.65
813.973	450.1806	41349.45	40576.65
814.1168	452.3514	41268.95	40494
814.2607	454.5216	41186.3	40403.55
814.4046	456.6913	41085.75	40308.95
814.5485	458.8603	41186.3	40410.15
814.6924	461.0288	41057.45	40284
814.8363	463.1967	41147.2	40371.15
814.9802	465.3639	41172.7	40395.75
815.1241	467.5306	40838.6	40060.55
815.2681	469.6967	40910.5	40132.95
815.412	471.8622	40901.75	40123.7
815.556	474.0271	40826.95	40050.65
815.7	476.1914	40792.55	40013.75
815.844	478.3551	40801.8	40024
815.988	480.5182	40927.75	40147.45
816.132	482.6807	40735.75	39955
816.276	484.8426	40800.15	40020.1
816.4201	487.0039	41009.25	40227.25
816.5641	489.1647	41002.9	40220.85
816.7082	491.3248	40905.3	40122.85
816.8522	493.4843	41054.05	40269.2
816.9963	495.6432	40983.65	40199.35
817.1404	497.8015	40691.7	39905.3
817.2845	499.9592	40813.5	40027.45
817.4286	502.1163	40731.05	39944.8
817.5727	504.2728	40640.2	39848.75
817.7168	506.4287	40699	39912
817.861	508.5839	40511.1	39720.95
818.0051	510.7386	40537.7	39749.45
818.1493	512.8927	40602.25	39804.9
818.2935	515.0461	40567.55	39774.55
818.4377	517.199	40610.6	39818.5
818.5818	519.3512	40595.95	39802.2
818.726	521.5029	40513.1	39713.65
818.8703	523.6539	40592.2	39797.45
819.0145	525.8043	40420.45	39623.5
819.1587	527.9541	40476.9	39677.95
819.303	530.1033	40343.2	39543.25
819.4472	532.2519	40152.7	39354.8
819.5915	534.3999	40198.75	39399.2
819.7357	536.5472	40281.7	39484.2
819.88	538.694	40053.9	39257.5
820.0243	540.8401	40196.9	39398.7
820.1686	542.9856	40185.9	39384.45
820.3129	545.1305	40135.55	39333.9
820.4572	547.2748	40111.55	39313.65
820.6016	549.4185	40087	39286.5
820.7459	551.5615	40129.45	39330.8
820.8902	553.704	40107.3	39307.6
821.0346	555.8458	39969.1	39169.95
821.1789	557.987	40010.5	39210.35
821.3233	560.1276	39997.2	39195.7
821.4677	562.2675	40024.8	39224.95
821.6121	564.4069	39974.85	39171.9
821.7565	566.5456	40015.9	39211.8
821.9009	568.6837	39924.9	39120.75
822.0453	570.8212	39791.05	38986
822.1897	572.958	39551.85	38746.45
822.3342	575.0942	39576.15	38770.5
822.4786	577.2299	39377.55	38569.4
822.6231	579.3648	39269.15	38460.8
822.7675	581.4992	39128.25	38321.4
822.912	583.6329	38963.45	38157.85
823.0565	585.766	38971.8	38165
823.201	587.8985	38999.65	38191.8
823.3454	590.0304	38790.85	37971.9
823.4899	592.1616	38844.55	38031.9
823.6345	594.2922	38752.6	37942.4
823.779	596.4222	38561.85	37749.4
823.9235	598.5515	38462.3	37647.6
824.068	600.6802	38373.65	37559.3
824.2126	602.8083	38097	37285.35
824.3571	604.9358	38128.45	37316.5
824.5017	607.0626	38045.45	37232.1
824.6462	609.1888	37992.45	37178.25
824.7908	611.3144	38032.85	37217.5
824.9354	613.4393	37913.45	37100.4
825.08	615.5636	37914.35	37098
825.2246	617.6873	37949.55	37135.15
825.3692	619.8103	38014.9	37196.55
825.5138	621.9327	37883.75	37063.5
825.6584	624.0544	37867.95	37053.7
825.803	626.1756	37775.35	36958
825.9477	628.2961	37674.25	36856.35
826.0923	630.4159	37574.95	36755.9
826.237	632.5351	37548.05	36729.8
826.3816	634.6537	37556.4	36740
826.5263	636.7716	37447.45	36624.75
826.6709	638.8889	37463.05	36641.6
826.8156	641.0056	37443.2	36622.35
826.9603	643.1216	37404.8	36581.2
827.105	645.237	37483.8	36661.25
827.2497	647.3518	37293.1	36472.3
827.3944	649.4659	37329.05	36507.85
827.5391	651.5793	37236.05	36415
827.6838	653.6922	37151.5	36329.2
827.8285	655.8043	37052.8	36231.4
827.9733	657.9159	37129.2	36304.9
828.118	660.0268	36902.25	36076.1
828.2627	662.137	36862.1	36038.1
828.4075	664.2466	36885.35	36056.85
828.5522	666.3556	36820.75	35993.55
828.697	668.4639	36738.8	35910.2
828.8418	670.5716	36737.4	35909.15
828.9865	672.6786	36711.05	35881.7
829.1313	674.785	36570.5	35741.35
829.2761	676.8907	36462.2	35634
829.4209	678.9958	36468.15	35641.65
829.5657	681.1002	36319.9	35491.45
829.7105	683.204	36290.8	35458.7
829.8553	685.3072	36248.9	35417.4
830.0001	687.4097	36146.75	35314.2
830.1449	689.5115	36184.05	35352.1
830.2898	691.6127	36179.3	35350.2
830.4346	693.7132	36037.65	35206.95
830.5794	695.8131	36060.65	35219.5
830.7243	697.9123	36103.45	35270.25
830.8691	700.0109	36013.85	35183.25
831.014	702.1089	35925.05	35094.8
831.1588	704.2061	35865.35	35034.25
831.3037	706.3028	35936.35	35102.4
831.4486	708.3987	35874.05	35040.6
831.5935	710.4941	35791.1	34959.85
831.7383	712.5887	35838.4	35003.2
831.8832	714.6827	35815.7	34974.9
832.0281	716.7761	35741.05	34906.65
832.173	718.8688	35733.3	34897.15
832.3179	720.9608	35637.5	34799.4
832.4628	723.0522	35682.9	34843.9
832.6077	725.1429	35576.15	34739.3
832.7527	727.233	35647.65	34810.4
832.8976	729.3224	35657.4	34820.8
833.0425	731.4112	35563.2	34725.55
833.1874	733.4993	35531.9	34689.5
833.3324	735.5867	35410	34570.65
833.4773	737.6735	35324.25	34482.5
833.6222	739.7596	35139.55	34299.9
833.7672	741.845	35076.4	34238.85
833.9122	743.9298	35031.65	34191.85
834.0571	746.014	34893.1	34054.45
834.2021	748.0974	34890.25	34049.15
834.347	750.1802	34732.25	33892
834.492	752.2624	34633.55	33795.7
834.637	754.3439	34518.4	33676.5
834.782	756.4247	34423.4	33574.05
834.9269	758.5048	34344.2	33505
835.0719	760.5843	34325.65	33484.65
835.2169	762.6631	34212.2	33372.25
835.3619	764.7413	34185.95	33345.6
835.5069	766.8188	34259.65	33416.45
835.6519	768.8956	34166	33321.9
835.7969	770.9718	34293.3	33450.5
835.9419	773.0473	34130.8	33289.4
836.0869	775.1221	34076.55	33233.6
836.232	777.1962	33952	33108.95
836.377	779.2697	33952.15	33107.5
836.522	781.3426	33957.75	33095.6
836.667	783.4147	33931.95	33087.35
836.8121	785.4862	33941.6	33098.55
836.9571	787.557	33776.85	32933
837.1021	789.6271	33622.95	32779.75
837.2472	791.6966	33463.7	32621.6
837.3922	793.7654	33266.25	32421.5
837.5373	795.8335	33148.6	32302.9
837.6823	797.901	33009.7	32164
837.8274	799.9678	32977.05	32129.5
837.9724	802.0339	32950.25	32106.65
838.1175	804.0993	32939.65	32084.1
838.2626	806.1641	32746.25	31898.55
838.4076	808.2282	32757	31909.75
838.5527	810.2916	32727.15	31879.1
838.6978	812.3544	32668.05	31822.95
838.8428	814.4164	32548.65	31702.3
838.9879	816.4778	32661.75	31813.55
839.133	818.5385	32503.85	31656.45
839.2781	820.5986	32544.15	31697.7
839.4232	822.658	32582.9	31733.25
839.5682	824.7166	32465.85	31617.2
839.7133	826.7747	32664.5	31819
839.8584	828.832	32614.3	31767.4
840.0035	830.8886	32526	31675.7
840.1486	832.9446	32547.85	31696.55
840.2937	834.9999	32439.9	31593.25
840.4388	837.0545	32371.55	31515.6
840.5839	839.1085	32194.5	31345
840.729	841.1618	32121.8	31269.75
840.8741	843.2143	31997.15	31146
841.0192	845.2662	31895.15	31043.35
841.1643	847.3175	31913.9	31062.75
841.3095	849.368	31760.1	30908.65
841.4546	851.4179	31704.5	30853.65
841.5997	853.467	31585.3	30733.15
841.7448	855.5155	31604.9	30752.35
841.8899	857.5633	31513.2	30662.7
842.0351	859.6105	31444.1	30592.45
842.1802	861.6569	31384.5	30531.7
842.3253	863.7027	31302.8	30449.65
842.4704	865.7478	31365.6	30514
842.6156	867.7922	31284.1	30432.45
842.7607	869.8359	31212.2	30358.3
842.9058	871.8789	31142.85	30289.4
843.0509	873.9212	31139.35	30252.4
843.1961	875.9629	31011.25	30158.2
843.3412	878.0039	31022.9	30168.5
843.4863	880.0441	31022.7	30169.45
843.6315	882.0837	30997.9	30143.8
843.7766	884.1226	30984.8	30128.4
843.9218	886.1609	30979	30125.75
844.0669	888.1984	31060.3	30206.75
844.212	890.2352	31134.8	30280
844.3572	892.2714	31060.25	30203.1
844.5023	894.3069	31019.05	30161.6
844.6475	896.3416	30818.85	29961.7
844.7926	898.3757	30797.7	29943.6
844.9377	900.4091	30702.8	29846.55
845.0829	902.4418	30695.65	29836.15
845.228	904.4739	30640.85	29783.6
845.3732	906.5052	30597.35	29741.5
845.5183	908.5358	30537.05	29681.9
845.6635	910.5658	30435.1	29576.15
845.8086	912.595	30346.5	29488.15
845.9538	914.6236	30241.9	29384.9
846.0989	916.6515	30208.25	29355.15
846.2441	918.6786	30075.45	29218.3
846.3892	920.7051	30091.05	29233.2
846.5344	922.7309	30079.4	29220.7
846.6795	924.756	29936.1	29078.1
846.8246	926.7804	29945.35	29086.15
846.9698	928.8041	29784.15	28923.65
847.1149	930.8272	29808.7	28951.85
847.2601	932.8495	29688.55	28830.35
847.4052	934.8711	29700.1	28841.55
847.5504	936.892	29597.7	28738.8
847.6955	938.9123	29479.35	28620.2
847.8407	940.9318	29460	28602.85
847.9858	942.9506	29370.75	28512.1
848.131	944.9688	29287.5	28429.95
848.2761	946.9862	29199.75	28339.2
848.4213	949.003	29067.35	28209.2
848.5664	951.019	28987.1	28127.3
848.7115	953.0344	28884.15	28022.2
848.8567	955.0491	28812.95	27953.35
849.0018	957.063	28828.7	27967.85
849.147	959.0763	28812.35	27952.75
849.2921	961.0888	28685.2	27821.5
849.4373	963.1007	28731.95	27871.1
849.5824	965.1119	28690.3	27830.9
849.7275	967.1223	28638.6	27776.35
849.8727	969.1321	28606.05	27748.2
850.0178	971.1412	28537.35	27678.25
850.1629	973.1495	28493.5	27631.05
850.3081	975.1572	28491.75	27582.55
850.4532	977.1641	28427.45	27567.45
850.5983	979.1704	28346.7	27484.2
850.7435	981.1759	28258.8	27395.9
850.8886	983.1808	28208.3	27345.6
851.0337	985.1849	28112.7	27244.75
851.1788	987.1884	28099.1	27233.3
851.324	989.1911	28054.05	27190.15
851.4691	991.1932	28039.55	27177.15
851.6142	993.1945	27867.7	27006.05
851.7593	995.1951	27778.75	26916.55
851.9045	997.1951	27782.05	26913.25
852.0496	999.1943	27665	26803.35
852.1947	1001.1928	27555.45	26693.4
852.3398	1003.1906	27442.55	26581.55
852.4849	1005.1877	27442.8	26578.15
852.63	1007.1841	27352	26489.05
852.7751	1009.1798	27258.4	26395.4
852.9202	1011.1748	27203	26339.55
853.0653	1013.1691	27090.35	26226.75
853.2104	1015.1627	26945.45	26081.6
853.3555	1017.1556	26771.45	25907.75
853.5006	1019.1477	26733.6	25869.8
853.6457	1021.1392	26580.95	25719.2
853.7908	1023.1299	26513.3	25649.65
853.9359	1025.12	26412.25	25547.35
854.081	1027.1093	26338.25	25475.3
854.2261	1029.0979	26261.35	25401.5
854.3712	1031.0859	26176.15	25315.5
854.5163	1033.0731	26158.05	25293.35
854.6613	1035.0596	26071.65	25208.75
854.8064	1037.0454	25944.5	25079.7
854.9515	1039.0304	25854.25	24987.55
855.0965	1041.0148	25750.6	24887.3
855.2416	1042.9985	25652.7	24786.95
855.3867	1044.9814	25654.05	24791.45
855.5317	1046.9636	25508.55	24641.2
855.6768	1048.9452	25442.6	24577.9
855.8219	1050.926	25462.9	24598.95
855.9669	1052.9061	25416.15	24551.2
856.112	1054.8855	25332.9	24466.7
856.257	1056.8642	25309	24443.2
856.4021	1058.8421	25261.85	24392.5
856.5471	1060.8194	25221.5	24354.1
856.6921	1062.7959	25146.9	24279.75
856.8372	1064.7717	25109.45	24242.4
856.9822	1066.7469	25048.2	24180.3
857.1272	1068.7213	25025.15	24156.7
857.2723	1070.695	25015.6	24149.8
857.4173	1072.6679	24944.85	24078.9
857.5623	1074.6402	24933.2	24064.05
857.7073	1076.6117	24955.7	24083.55
857.8523	1078.5826	24897.5	24028.65
857.9973	1080.5527	24811.45	23942.45
858.1423	1082.5221	24661	23791.85
858.2873	1084.4908	24592.75	23727.1
858.4323	1086.4587	24526.75	23658.4
858.5773	1088.426	24505.55	23638
858.7223	1090.3925	24362.8	23489.55
858.8673	1092.3584	24373.75	23506.85
859.0123	1094.3235	24291.65	23428.35
859.1573	1096.2879	24246.35	23378.1
859.3022	1098.2515	24252.7	23384.8
859.4472	1100.2145	24263.6	23398.1
859.5922	1102.1767	24211.75	23344.65
859.7371	1104.1382	24198.85	23328.3
859.8821	1106.099	24222.7	23353.45
860.027	1108.0591	24188.7	23320.65
860.172	1110.0185	24167.45	23297.1
860.3169	1111.9771	24200.85	23332.35
860.4619	1113.9351	24144.65	23277.55
860.6068	1115.8923	24157.95	23288.4
860.7517	1117.8488	24146.2	23274.7
860.8967	1119.8045	24019.4	23149.3
861.0416	1121.7596	23908.5	23040
861.1865	1123.7139	23709	22839.7
861.3314	1125.6675	23611.2	22742.5
861.4763	1127.6204	23644	22776.4
861.6212	1129.5726	23542.05	22671.7
861.7661	1131.524	23564.5	22697.25
861.911	1133.4748	23508.45	22640.05
862.0559	1135.4248	23366.25	22495.7
862.2008	1137.3741	23231.8	22363.35
862.3457	1139.3226	23154.6	22282.25
862.4905	1141.2705	23221.8	22351.8
862.6354	1143.2176	23041.4	22164.35
862.7803	1145.164	23046.3	22173.35
862.9251	1147.1097	23023.45	22153.35
863.07	1149.0546	22999.55	22129
863.2148	1150.9989	22955.65	22086.85
863.3597	1152.9424	22914.5	22045.45
863.5045	1154.8852	22861.4	21991.55
863.6493	1156.8272	22841.35	21970.6
863.7942	1158.7686	22840.15	21963.25
863.939	1160.7092	22751.25	21881
864.0838	1162.6491	22658.7	21786.2
864.2286	1164.5883	22672.2	21803.05
864.3734	1166.5267	22664.8	21791.35
864.5182	1168.4644	22664.25	21793
864.663	1170.4014	22663.05	21786.95
864.8078	1172.3377	22702	21830.4
864.9526	1174.2732	22691.9	21821.4
865.0974	1176.2081	22804.4	21934.65
865.2421	1178.1421	22912.3	22037.65
865.3869	1180.0755	22985.2	22113.3
865.5317	1182.0082	22998.95	22128
865.6764	1183.9401	22971.25	22099.95
865.8212	1185.8713	22810.9	21940.75
865.9659	1187.8017	22642.1	21771.05
866.1106	1189.7315	22474	21603.85
866.2554	1191.6605	22256.75	21386.75
866.4001	1193.5888	22119.95	21253.3
866.5448	1195.5163	22067.3	21195.65
866.6895	1197.4432	21964.9	21092.75
866.8342	1199.3693	21876.45	21004.45
866.9789	1201.2947	21804.7	20929.45
867.1236	1203.2193	21752.35	20881.25
867.2683	1205.1432	21710.35	20839.65
867.413	1207.0664	21634	20761.4
867.5576	1208.9889	21620.75	20747
867.7023	1210.9106	21496.85	20626.05
867.847	1212.8316	21460.6	20589.2
867.9916	1214.7519	21432.6	20551.15
868.1363	1216.6715	21357.9	20487.5
868.2809	1218.5903	21358.1	20486.7
868.4255	1220.5084	21313.05	20440
868.5701	1222.4257	21371.1	20500.1
868.7148	1224.3424	21295.6	20424.2
868.8594	1226.2583	21268.4	20389.1
869.004	1228.1735	21252.75	20379.95
869.1486	1230.0879	21144.25	20268.35
869.2932	1232.0016	21144.1	20273.1
869.4377	1233.9146	21149.3	20274.8
869.5823	1235.8269	21127.1	20252.9
869.7269	1237.7384	21129.75	20258.95
869.8715	1239.6492	21046.4	20174.35
870.016	1241.5592	21032.85	20159.8
870.1606	1243.4686	20999.95	20126.15
870.3051	1245.3772	21086.7	20215.05
870.4496	1247.285	21136.3	20263.7
870.5941	1249.1922	21184.95	20310.85
870.7387	1251.0986	21251.6	20379.1
870.8832	1253.0042	21205.6	20330.25
871.0277	1254.9092	21280.8	20407.95
871.1722	1256.8134	21322.4	20451.2
871.3167	1258.7169	21424.55	20552.55
871.4611	1260.6196	21432.5	20560.05
871.6056	1262.5216	21435.2	20558.85
871.7501	1264.4229	21397.05	20525.15
871.8945	1266.3234	21375.25	20501.15
872.039	1268.2232	21281.2	20408.15
872.1834	1270.1223	21169.6	20292.45
872.3278	1272.0207	21093.45	20221.85
872.4723	1273.9183	21022.85	20142.15
872.6167	1275.8151	20975.85	20102.4
872.7611	1277.7113	21024	20150.2
872.9055	1279.6067	21042.65	20168.4
873.0499	1281.5014	21171.7	20296.7
873.1943	1283.3953	21327.1	20451.25
873.3386	1285.2885	21593.25	20721.45
873.483	1287.181	21719.85	20846.25
873.6274	1289.0727	21788.1	20914.2
873.7717	1290.9637	21691.9	20817.25
873.9161	1292.854	21605.8	20731.35
874.0604	1294.7435	21391.45	20517
874.2047	1296.6323	21259.95	20386.6
874.349	1298.5204	21108.35	20228.3
874.4933	1300.4077	20993.25	20116.05
874.6376	1302.2943	20945.5	20070.7
874.7819	1304.1802	20867.25	19991.2
874.9262	1306.0653	20823.55	19946.95
875.0705	1307.9497	20767.55	19892.95
875.2147	1309.8333	20699.55	19826.2
875.359	1311.7162	20670.8	19796.15
875.5032	1313.5984	20597.75	19722.25
875.6475	1315.4798	20485.3	19608.45
875.7917	1317.3605	20469.2	19591.8
875.9359	1319.2405	20509.85	19631
876.0801	1321.1197	20425.7	19549.8
876.2243	1322.9982	20342.45	19461.95
876.3685	1324.876	20312.75	19439.55
876.5127	1326.753	20110.05	19235.1
876.6569	1328.6293	20033.1	19155.05
876.801	1330.5048	19929.8	19052.15
876.9452	1332.3796	19779.5	18904.8
877.0893	1334.2537	19729.35	18830.65
877.2335	1336.127	19611.75	18738.65
877.3776	1337.9996	19560.95	18685.75
877.5217	1339.8714	19526.25	18651.55
877.6658	1341.7426	19492.35	18573.6
877.8099	1343.6129	19406.15	18532.4
877.954	1345.4826	19341.65	18465.95
878.0981	1347.3515	19353.4	18474.45
878.2422	1349.2196	19270.1	18394.55
878.3862	1351.087	19275.7	18399.55
878.5303	1352.9537	19238.7	18363.8
878.6743	1354.8197	19222.9	18343.2
878.8184	1356.6849	19269	18394.3
878.9624	1358.5493	19194.75	18319.6
879.1064	1360.4131	19197.05	18322.4
879.2504	1362.276	19159.4	18283.3
879.3944	1364.1383	19238.85	18363.4
879.5384	1365.9998	19202.05	18322.55
879.6823	1367.8606	19101.8	18227
879.8263	1369.7206	19077.75	18200.95
879.9702	1371.5799	19012.5	18135.15
880.1142	1373.4384	18985.2	18109
880.2581	1375.2962	18933.8	18058.75
880.402	1377.1533	18789.1	17914.5
880.5459	1379.0096	18685.45	17809.25
880.6898	1380.8652	18621.65	17748
880.8337	1382.7201	18534.95	17660.25
880.9776	1384.5742	18427.25	17552.85
881.1215	1386.4275	18318.85	17441.4
881.2653	1388.2802	18258.25	17383.4
881.4092	1390.132	18182.05	17304.55
881.553	1391.9832	18175.35	17300.95
881.6968	1393.8336	18075.15	17200.3
881.8406	1395.6832	18047.45	17171.15
881.9844	1397.5322	17928.8	17053.4
882.1282	1399.3803	17910.05	17027.05
882.272	1401.2278	17834.05	16958
882.4158	1403.0745	17780.05	16903.55
882.5595	1404.9204	17704.3	16830.15
882.7033	1406.7656	17648.85	16773.45
882.847	1408.6101	17576.85	16700.05
882.9908	1410.4538	17518.15	16643.55
883.1345	1412.2968	17511.05	16634.15
883.2782	1414.139	17424.95	16550.65
883.4219	1415.9805	17461.95	16585.15
883.5656	1417.8213	17384.25	16485.4
883.7092	1419.6613	17357.65	16482.7
883.8529	1421.5006	17323.3	16446.5
883.9965	1423.3391	17336.65	16459.9
884.1402	1425.1769	17283.6	16405.4
884.2838	1427.0139	17374.8	16496.75
884.4274	1428.8502	17438.95	16560.7
884.571	1430.6858	17478.9	16604
884.7146	1432.5206	17442.05	16566.65
884.8582	1434.3547	17420.2	16542.2
885.0018	1436.188	17420.7	16543.8
885.1453	1438.0206	17375.5	16498.85
885.2889	1439.8524	17319.25	16442.4
885.4324	1441.6835	17268.45	16392.1
885.5759	1443.5139	17248.8	16370.65
885.7194	1445.3435	17184.5	16308.35
885.8629	1447.1724	17183.2	16308.15
886.0064	1449.0005	17189.1	16310.95
886.1499	1450.8279	17149.55	16272.15
886.2933	1452.6545	17125.45	16247.95
886.4368	1454.4804	17148.75	16274.1
886.5802	1456.3056	17044.65	16161.2
886.7237	1458.13	17006.5	16132.5
886.8671	1459.9536	16967.85	16090
887.0105	1461.7766	16932.35	16057.1
887.1539	1463.5987	16815.9	15936.5
887.2972	1465.4202	16748.15	15871.1
887.4406	1467.2409	16646.95	15769.05
887.584	1469.0608	16662.95	15784.9
887.7273	1470.88	16593.8	15715.1
887.8706	1472.6984	16482.35	15605.7
888.0139	1474.5161	16445.55	15565.2
888.1572	1476.3331	16391.5	15517.35
888.3005	1478.1493	16355.9	15477.1
888.4438	1479.9648	16301.15	15425.45
888.5871	1481.7795	16289.5	15413.5
888.7303	1483.5935	16319.15	15441.6
888.8736	1485.4067	16233.55	15355.85
889.0168	1487.2192	16237.45	15360.3
889.16	1489.031	16232.55	15353.8
889.3032	1490.842	16208.05	15332.9
889.4464	1492.6522	16176.45	15300.25
889.5896	1494.4618	16126.8	15246.45
889.7327	1496.2705	16108.1	15231.85
889.8759	1498.0785	16057.5	15180.05
890.019	1499.8858	16023.85	15146.45
890.1622	1501.6924	15983.25	15106.25
890.3053	1503.4981	15955.45	15077.15
890.4484	1505.3032	15920.2	15042.8
890.5914	1507.1075	15891.2	15013.3
890.7345	1508.911	15839.3	14964
890.8776	1510.7138	15791.4	14914.05
891.0206	1512.5159	15746.55	14868.85
891.1637	1514.3172	15711.85	14833.65
891.3067	1516.1178	15655.5	14778.85
891.4497	1517.9176	15624.5	14744.65
891.5927	1519.7166	15566.95	14691.2
891.7357	1521.515	15526.6	14643.75
891.8786	1523.3126	15495.75	14617.2
892.0216	1525.1094	15443.5	14563.75
892.1645	1526.9055	15377.85	14502.2
892.3074	1528.7008	15290.55	14413.55
892.4503	1530.4954	15238.4	14358.35
892.5932	1532.2893	15205.45	14329.4
892.7361	1534.0824	15126.55	14244.2
892.879	1535.8747	15120.35	14243.5
893.0218	1537.6663	15073.75	14195.9
893.1647	1539.4572	15016.35	14139.1
893.3075	1541.2473	14993.65	14116.75
893.4503	1543.0367	14962.95	14086.05
893.5931	1544.8253	14903.9	14020.6
893.7359	1546.6132	14862.9	13985.4
893.8787	1548.4003	14810.85	13924.55
894.0214	1550.1867	14809.8	13923.6
894.1642	1551.9723	14751.1	13869.2
894.3069	1553.7572	14733	13854.2
894.4496	1555.5414	14752.15	13874
894.5923	1557.3247	14743.15	13865.1
894.735	1559.1074	14748.65	13871.4
894.8777	1560.8893	14728.5	13851.55
895.0204	1562.6705	14709.65	13834.05
895.163	1564.4509	14721.75	13844.55
895.3056	1566.2305	14660.1	13785.5
895.4482	1568.0094	14695.65	13819.55
895.5908	1569.7876	14665.15	13788.95
895.7334	1571.565	14612.2	13734
895.876	1573.3417	14612.7	13735.9
896.0186	1575.1176	14568.05	13690.3
896.1611	1576.8928	14550.95	13673
896.3036	1578.6672	14471.7	13596.15
896.4461	1580.4409	14503.3	13629.8
896.5886	1582.2138	14490.2	13610.05
896.7311	1583.986	14493.35	13616.25
896.8736	1585.7575	14531.2	13653.7
897.0161	1587.5282	14513.35	13637
897.1585	1589.2981	14553.8	13677.25
897.3009	1591.0673	14496.35	13618.1
897.4433	1592.8358	14496.8	13620.85
897.5857	1594.6035	14432.5	13554.55
897.7281	1596.3704	14393.35	13517.15
897.8705	1598.1366	14316.05	13441.95
898.0128	1599.9021	14221.55	13344.85
898.1551	1601.6668	14148.85	13271.7
898.2975	1603.4308	14117.25	13239.85
898.4398	1605.194	14092.95	13211.6
898.5821	1606.9564	14059.9	13182.5
898.7243	1608.7182	14083.9	13204.8
898.8666	1610.4791	14136.65	13260.75
899.0088	1612.2394	14223	13344.6
899.1511	1613.9988	14291.85	13414.4
899.2933	1615.7576	14411.55	13534.05
899.4355	1617.5156	14415.7	13531.75
899.5776	1619.2728	14370.85	13494
899.7198	1621.0293	14266.1	13390.7
899.862	1622.785	14050.05	13167.3
900.0041	1624.54	13851.65	12971.45
900.1462	1626.2942	13692.95	12816.2
900.2883	1628.0477	13496.35	12616.6
900.4304	1629.8005	13364.15	12484
900.5725	1631.5525	13254.95	12377.65
900.7145	1633.3037	13169.35	12292.1
900.8566	1635.0542	13075	12198.8
900.9986	1636.804	12986.15	12106.9
901.1406	1638.553	13012.95	12048.55
901.2826	1640.3013	12856.55	11979.15
901.4245	1642.0488	12784.55	11906.3
901.5665	1643.7955	12725.8	11848.95
901.7085	1645.5416	12651.4	11775.05
901.8504	1647.2868	12628.7	11751.25
901.9923	1649.0313	12598.55	11720.7
902.1342	1650.7751	12557	11678.3
902.2761	1652.5181	12498.3	11621.5
902.4179	1654.2604	12469.55	11591.7
902.5598	1656.0019	12457.9	11581.2
902.7016	1657.7427	12416.6	11539.1
902.8434	1659.4828	12425.3	11548.65
902.9852	1661.222	12413.65	11535.4
903.127	1662.9606	12438.15	11562.65
903.2687	1664.6984	12447.2	11570.75
903.4105	1666.4354	12464.8	11588.35
903.5522	1668.1717	12390.6	11511.65
903.6939	1669.9072	12266.7	11391.55
903.8356	1671.642	12213.75	11332.85
903.9773	1673.3761	12122.3	11247.7
904.119	1675.1094	12042.25	11165.75
904.2606	1676.8419	11978.9	11102.95
904.4022	1678.5737	11893.45	11016.15
904.5439	1680.3048	11841.65	10963.15
904.6855	1682.0351	11791.95	10914.2
904.827	1683.7646	11705.9	10825.35
904.9686	1685.4934	11669.35	10792.65
905.1101	1687.2215	11635.45	10759.2
905.2517	1688.9488	11599.8	10723.35
905.3932	1690.6754	11537	10660.05
905.5347	1692.4012	11493.95	10616.25
905.6761	1694.1263	11445.7	10568.25
905.8176	1695.8506	11445.7	10566.9
905.9591	1697.5742	11407.7	10531.4
906.1005	1699.297	11355.7	10479.8
906.2419	1701.0191	11295.55	10418.3
906.3833	1702.7404	11252.3	10377.5
906.5246	1704.461	11156.3	10277.85
906.666	1706.1808	11173.8	10296.1
906.8073	1707.8999	11137.3	10258.4
906.9487	1709.6182	11105.75	10229.05
907.09	1711.3358	11062.3	10185.75
907.2313	1713.0527	11033.55	10156.6
907.3725	1714.7688	10987.6	10105
907.5138	1716.4841	10935.1	10057.45
907.655	1718.1987	10936.7	10057.3
907.7962	1719.9126	10888.55	10014.6
907.9374	1721.6257	10891.65	10011.2
908.0786	1723.338	10849.55	9968.4
908.2198	1725.0496	10788.9	9908.35
908.3609	1726.7605	10787.25	9908
908.502	1728.4706	10764.65	9885.75
908.6431	1730.18	10694.25	9814.85
908.7842	1731.8886	10681	9804.35
908.9253	1733.5964	10675.9	9776.55
909.0664	1735.3036	10666.05	9789.85
909.2074	1737.0099	10652.45	9776.05
909.3484	1738.7156	10630.1	9754.05
909.4894	1740.4204	10563.7	9683.7
909.6304	1742.1246	10584.25	9704.4
909.7714	1743.8279	10552.2	9673.85
909.9123	1745.5306	10514.2	9636.8
910.0532	1747.2325	10500.2	9623.15
910.1941	1748.9336	10476.4	9599.4
910.335	1750.634	10426.9	9548.8
910.4759	1752.3336	10421.7	9546.6
910.6168	1754.0325	10403.1	9525.85
910.7576	1755.7307	10385.1	9508.4
910.8984	1757.4281	10376.8	9498.75
911.0392	1759.1247	10374.95	9490.55
911.18	1760.8206	10374.45	9492.4
911.3208	1762.5158	10356.15	9474.7
911.4615	1764.2102	10326.25	9448.6
911.6022	1765.9039	10270.65	9392.55
911.7429	1767.5968	10263.45	9386.35
911.8836	1769.289	10252.65	9374.9
912.0243	1770.9804	10230.85	9354.65
912.1649	1772.6711	10225.8	9347.2
912.3056	1774.361	10180.15	9302.85
912.4462	1776.0502	10156.6	9277.9
912.5868	1777.7386	10131.75	9250.85
912.7274	1779.4263	10139.05	9259.8
912.8679	1781.1132	10111.05	9232.95
913.0084	1782.7994	10074.05	9196.3
913.149	1784.4849	10048.25	9172.5
913.2895	1786.1696	10031.55	9134.05
913.4299	1787.8535	10013.05	9136.75
913.5704	1789.5367	9994.55	9117.45
913.7108	1791.2192	9967.25	9088.55
913.8513	1792.9009	9944.6	9051
913.9917	1794.5818	9948	9068.65
914.132	1796.2621	9882.75	9006.15
914.2724	1797.9415	9854.6	8976.7
914.4128	1799.6202	9805.9	8927.9
914.5531	1801.2982	9831.25	8953.75
914.6934	1802.9755	9789.9	8911.3
914.8337	1804.6519	9786.7	8910.55
914.9739	1806.3277	9748.1	8871
915.1142	1808.0027	9716.3	8839.8
915.2544	1809.6769	9712.65	8833.65
915.3946	1811.3504	9663.35	8783.6
915.5348	1813.0231	9672.85	8795.05
915.675	1814.6951	9657.5	8778.85
915.8151	1816.3664	9667.6	8787.85
915.9553	1818.0369	9618.2	8739.9
916.0954	1819.7067	9592.95	8718.05
916.2355	1821.3757	9563.25	8684.15
916.3755	1823.044	9539.8	8663.25
916.5156	1824.7115	9532.1	8654.95
916.6556	1826.3783	9505.95	8629.45
916.7956	1828.0443	9473.9	8595.85
916.9356	1829.7096	9452.95	8575.1
917.0756	1831.3741	9451.4	8570.9
917.2155	1833.0379	9423.3	8545.65
917.3555	1834.701	9396.1	8518.3
917.4954	1836.3633	9387.05	8508.1
917.6353	1838.0248	9355.05	8476.2
917.7751	1839.6856	9337.6	8460.05
917.915	1841.3457	9326.85	8449.5
918.0548	1843.005	9307.4	8430.25
918.1946	1844.6636	9300.15	8422.4
918.3344	1846.3214	9264.9	8387.5
918.4742	1847.9785	9275.35	8399.1
918.6139	1849.6349	9260.55	8383.45
918.7537	1851.2904	9230.45	8345.5
918.8934	1852.9453	9194.95	8318.8
919.0331	1854.5994	9155.7	8277.85
919.1727	1856.2528	9167.45	8282.45
919.3124	1857.9054	9145.2	8267.4
919.452	1859.5572	9130.8	8251.5
919.5916	1861.2083	9103.25	8224.85
919.7312	1862.8587	9134.6	8258.6
919.8708	1864.5084	9105.15	8225.65
920.0103	1866.1572	9072.8	8196.55
920.1498	1867.8054	9031.1	8152.6
920.2893	1869.4528	8992.6	8115.45
920.4288	1871.0994	8993.85	8115.85
920.5683	1872.7453	8986	8107.2
920.7077	1874.3905	8950.35	8064.05
920.8471	1876.0349	8939.05	8060.8
920.9865	1877.6786	8944.25	8065.1
921.1259	1879.3215	8947.1	8069.1
921.2653	1880.9637	8896.25	8016.6
921.4046	1882.6051	8913.95	8037.1
921.5439	1884.2458	8860.8	7981.1
921.6832	1885.8858	8838.95	7960.9
921.8225	1887.525	8822.9	7942.5
921.9617	1889.1634	8788.05	7910.1
922.101	1890.8011	8773.15	7894.4
922.2402	1892.4381	8728.6	7851.1
922.3794	1894.0743	8725.9	7850.1
922.5185	1895.7098	8726.35	7849.05
922.6577	1897.3446	8703.5	7824.7
922.7968	1898.9786	8697.05	7813.85
922.9359	1900.6118	8667.1	7790
923.075	1902.2443	8605.95	7727.95
923.214	1903.8761	8611	7731.95
923.3531	1905.5071	8564.75	7686.1
923.4921	1907.1374	8548.65	7670.25
923.6311	1908.7669	8544.1	7666.65
923.77	1910.3957	8517.85	7641.6
923.909	1912.0237	8487	7609.55
924.0479	1913.651	8468.35	7590.05
924.1868	1915.2776	8438.05	7562.65
924.3257	1916.9034	8411.45	7534.7
924.4646	1918.5285	8401.45	7524.5
924.6034	1920.1528	8340.7	7463.55
924.7422	1921.7764	8353.35	7476.55
924.881	1923.3992	8305.2	7428.2
925.0198	1925.0213	8275.2	7398.1
925.1586	1926.6427	8240.05	7365.15
925.2973	1928.2633	8396.15	7309.35
925.436	1929.8832	8223.2	7342.75
925.5747	1931.5023	8188.35	7311.85
925.7134	1933.1207	8154.65	7276.85
925.852	1934.7383	8136.6	7257.6
925.9906	1936.3552	8110.15	7232.2
926.1292	1937.9714	8127.45	7250.4
926.2678	1939.5868	8084.6	7206.7
926.4064	1941.2015	8060.2	7180.4
926.5449	1942.8154	8039.3	7162.7
926.6834	1944.4286	7999.3	7122.5
926.8219	1946.041	7988.45	7088.4
926.9604	1947.6528	7942.05	7060.75
927.0988	1949.2637	7940.8	7062
927.2372	1950.8739	7889.5	7009.95
927.3756	1952.4834	7873.65	6995.05
927.514	1954.0921	7877.55	6999.75
927.6523	1955.7001	7833.85	6952.25
927.7907	1957.3074	7827.65	6951.15
927.929	1958.9139	7816.3	6937.1
928.0673	1960.5197	7777.6	6896.6
928.2055	1962.1247	7766.35	6888.3
928.3438	1963.729	7721.25	6846.35
928.482	1965.3325	7712.75	6809.85
928.6202	1966.9353	7679.95	6802.6
928.7584	1968.5374	7672.5	6793.3
928.8965	1970.1387	7646.2	6768.05
929.0346	1971.7393	7611.95	6732.6
929.1727	1973.3392	7617.85	6740.05
929.3108	1974.9383	7578.95	6702.4
929.4489	1976.5366	7553.7	6676.85
929.5869	1978.1342	7561.05	6682.85
929.7249	1979.7311	7512.95	6633.7
929.8629	1981.3273	7505.05	6626.25
930.0009	1982.9227	7493.7	6613.7
930.1388	1984.5173	7460.65	6585.6
930.2767	1986.1112	7443	6564.85
930.4146	1987.7044	7436.7	6560.95
930.5525	1989.2968	7410.25	6533.05
930.6904	1990.8885	7407.05	6527.15
930.8282	1992.4795	7373	6494.25
930.966	1994.0697	7369.4	6494.35
931.1038	1995.6592	7350.65	6473
931.2415	1997.2479	7321.05	6441.85
931.3793	1998.8359	7316.35	6439.5
931.517	2000.4232	7293.7	6416.8
931.6547	2002.0097	7286.5	6410.45
931.7923	2003.5955	7267.1	6389.2
931.93	2005.1805	7228.25	6349.6
932.0676	2006.7648	7219.85	6342.35
932.2052	2008.3484	7201.15	6321.4
932.3427	2009.9312	7183.35	6304.6
932.4803	2011.5133	7168	6291.55
932.6178	2013.0946	7145.25	6268.75
932.7553	2014.6752	7143.15	6266.3
932.8928	2016.2551	7147.85	6269.15
933.0302	2017.8342	7091.35	6213
933.1676	2019.4126	7067.95	6191.1
933.305	2020.9902	7061.35	6185.45
933.4424	2022.5672	7057.45	6177.6
933.5798	2024.1433	7053.55	6170.9
933.7171	2025.7188	7026.8	6151.3
933.8544	2027.2935	7010.25	6131.7
933.9917	2028.8674	6970.55	6094.75
934.129	2030.4406	6975.7	6100.5
934.2662	2032.0131	6926.45	6049.8
934.4034	2033.5849	6917.4	6036.15
934.5406	2035.1559	6915.15	6039.35
934.6778	2036.7261	6908.55	6030.5
934.8149	2038.2957	6892.6	6015.75
934.952	2039.8645	6864.15	5988
935.0891	2041.4325	6877.15	5996.25
935.2262	2042.9998	6861.35	5983.2
935.3632	2044.5664	6823.2	5945.55
935.5002	2046.1323	6823.95	5945.9
935.6372	2047.6974	6806	5931.95
935.7742	2049.2617	6802.6	5927.4
935.9111	2050.8254	6816.25	5918.5
936.048	2052.3883	6796.8	5918.1
936.1849	2053.9504	6770.7	5893.3
936.3218	2055.5118	6758.7	5880.35
936.4586	2057.0725	6717.75	5837.6
936.5955	2058.6325	6737.45	5860.25
936.7323	2060.1917	6702.05	5825.2
936.869	2061.7502	6700	5822.8
937.0058	2063.3079	6677.9	5802.75
937.1425	2064.8649	6663.6	5783.75
937.2792	2066.4212	6639.1	5760.85
937.4159	2067.9767	6646.7	5770.9
937.5525	2069.5315	6598.55	5721.65
937.6891	2071.0856	6582.75	5703.2
937.8257	2072.6389	6565.3	5686.6
937.9623	2074.1915	6555.9	5679.7
938.0989	2075.7433	6532.7	5655.5
938.2354	2077.2945	6517.15	5640.7
938.3719	2078.8448	6508.25	5633.7
938.5084	2080.3945	6484.65	5610.6
938.6448	2081.9434	6465.45	5586.75
938.7812	2083.4916	6459.5	5581.65
938.9176	2085.039	6425.1	5546.5
939.054	2086.5857	6438.2	5559.15
939.1903	2088.1317	6432.05	5555.75
939.3267	2089.677	6420.85	5545.65
939.463	2091.2215	6403.1	5528.35
939.5992	2092.7652	6397.75	5518
939.7355	2094.3083	6384.65	5508.55
939.8717	2095.8506	6378.6	5501.8
940.0079	2097.3921	6393	5516.7
940.1441	2098.933	6357.65	5480.95
940.2802	2100.4731	6342.55	5465.8
940.4163	2102.0124	6348.55	5453.3
940.5524	2103.5511	6319.85	5444.2
940.6885	2105.089	6306.15	5429.9
940.8245	2106.6261	6290.35	5413.9
940.9606	2108.1626	6287.1	5408.1
941.0965	2109.6983	6306.65	5400.05
941.2325	2111.2332	6268.05	5388.75
941.3684	2112.7675	6248.75	5370.8
941.5044	2114.301	6246.95	5369.85
941.6403	2115.8337	6237.35	5360.25
941.7761	2117.3657	6205.7	5329.1
941.912	2118.897	6210.45	5333.25
942.0478	2120.4276	6197.9	5315.15
942.1835	2121.9575	6158.25	5282.95
942.3193	2123.4866	6186.6	5308.15
942.455	2125.0149	6157.75	5279.35
942.5907	2126.5426	6131	5251.8
942.7264	2128.0695	6124.95	5244.55
942.8621	2129.5956	6121.85	5244.85
942.9977	2131.1211	6123.45	5241.05
943.1333	2132.6458	6082.2	5209.15
943.2689	2134.1698	6086.55	5210.75
943.4044	2135.693	6062.65	5183.4
943.54	2137.2155	6050.55	5172.6
943.6755	2138.7373	6031.25	5152.2
943.8109	2140.2584	6019.4	5143.5
943.9464	2141.7787	6017.3	5135.4
944.0818	2143.2983	5981.7	5106.15
944.2172	2144.8171	5955.4	5080.35
944.3526	2146.3353	5958.15	5079.9
944.4879	2147.8527	5930.15	5054.3
944.6232	2149.3693	5926.15	5048.85
944.7585	2150.8853	5899.75	5021.75
944.8938	2152.4005	5869.7	4993.25
945.029	2153.9149	5888.55	5012.35
945.1642	2155.4287	5865.8	4989.6
945.2994	2156.9417	5865.3	4989.05
945.4346	2158.454	5859	4979.05
945.5697	2159.9655	5825.05	4950.05
945.7048	2161.4764	5837.65	4961.05
945.8399	2162.9865	5799.55	4921.95
945.9749	2164.4958	5807.7	4928.1
946.1099	2166.0045	5788.65	4908.75
946.2449	2167.5124	5756.15	4880.9
946.3799	2169.0195	5743.9	4867
946.5148	2170.526	5770.95	4892.75
946.6498	2172.0317	5747.25	4870
946.7846	2173.5367	5717.85	4839.65
946.9195	2175.0409	5717.05	4842.15
947.0543	2176.5445	5730.45	4854.3
947.1891	2178.0473	5692.65	4814.65
947.3239	2179.5494	5701.3	4822.6
947.4587	2181.0507	5680.05	4803.25
947.5934	2182.5513	5649.75	4772.9
947.7281	2184.0512	5636.5	4758.05
947.8628	2185.5504	5628.05	4752
947.9974	2187.0488	5600.25	4724
948.132	2188.5465	5594.8	4715.3
948.2666	2190.0435	5579.25	4701.95
948.4012	2191.5397	5546.35	4669
948.5357	2193.0353	5527	4650.1
948.6702	2194.5301	5509	4630.75
948.8047	2196.0241	5509.9	4632.8
948.9392	2197.5175	5504.45	4628.75
949.0736	2199.0101	5476.7	4597.95
949.208	2200.502	5447.3	4570.95
949.3424	2201.9931	5437.65	4560.8
949.4767	2203.4835	5417.6	4539.65
949.611	2204.9733	5425.3	4542.8
949.7453	2206.4622	5395.35	4519.1
949.8796	2207.9505	5377.8	4496.4
950.0138	2209.438	5367.1	4491.25
950.148	2210.9248	5343.4	4466.6
950.2822	2212.4109	5333.8	4458.25
950.4164	2213.8962	5337.45	4458
950.5505	2215.3809	5331.75	4453.3
950.6846	2216.8648	5310.6	4434.15
950.8186	2218.3479	5301.5	4419.95
950.9527	2219.8304	5283.85	4406.75
951.0867	2221.3121	5256.3	4376.65
951.2207	2222.7931	5256.6	4380.3
951.3546	2224.2733	5217.15	4339.85
951.4886	2225.7529	5215.25	4335.95
951.6225	2227.2317	5193.35	4314.7
951.7563	2228.7098	5199.7	4325.2
951.8902	2230.1872	5161.3	4284.25
952.024	2231.6638	5152.8	4274.9
952.1578	2233.1397	5129.85	4246.2
952.2916	2234.6149	5133.65	4256.95
952.4253	2236.0894	5102.1	4222.65
952.559	2237.5632	5130.7	4250.9
952.6927	2239.0362	5089.9	4214.35
952.8263	2240.5085	5096.3	4217.95
952.9599	2241.9801	5064.05	4187.35
953.0935	2243.4509	5042	4166.35
953.2271	2244.921	5023.4	4145.55
953.3606	2246.3904	5033.1	4154.1
953.4941	2247.8591	5007.45	4131.15
953.6276	2249.3271	4982.75	4106
953.7611	2250.7943	4982.55	4106.1
953.8945	2252.2608	4955.7	4080.25
954.0279	2253.7266	4964.1	4088.15
954.1612	2255.1917	4935	4056.6
954.2946	2256.656	4921.15	4042.7
954.4279	2258.1197	4919.5	4043.95
954.5612	2259.5826	4910.25	4032.25
954.6944	2261.0447	4910.7	4032.65
954.8276	2262.5062	4870.8	3992.95
954.9608	2263.9669	4867.55	3988.55
955.094	2265.4269	4869.2	3992.75
955.2271	2266.8862	4847.55	3968.4
955.3602	2268.3448	4844.55	3967.95
955.4933	2269.8026	4822	3945.2
955.6264	2271.2598	4805.15	3927.7
955.7594	2272.7162	4799.95	3924.9
955.8924	2274.1719	4788.05	3910.9
956.0253	2275.6268	4788.05	3910.3
956.1583	2277.0811	4776.1	3897.1
956.2912	2278.5346	4763	3885.15
956.4241	2279.9874	4764.25	3887
956.5569	2281.4395	4751.5	3874.5
956.6897	2282.8908	4736.85	3854.25
956.8225	2284.3414	4731.8	3853.45
956.9553	2285.7914	4703.15	3826.6
957.088	2287.2406	4705.8	3828.7
957.2207	2288.689	4679.65	3802.2
957.3534	2290.1368	4672.55	3794.85
957.486	2291.5838	4681.55	3803.5
957.6186	2293.0302	4656.3	3776.7
957.7512	2294.4758	4636.9	3761
957.8838	2295.9206	4617.55	3738.7
958.0163	2297.3648	4602.2	3726.5
958.1488	2298.8082	4604.4	3726.4
958.2813	2300.251	4579.25	3702.2
958.4137	2301.693	4585.8	3708.3
958.5461	2303.1343	4565.75	3687.35
958.6785	2304.5748	4550.55	3673.3
958.8108	2306.0147	4548.95	3672.45
958.9432	2307.4538	4537.1	3656.8
959.0754	2308.8922	4519.95	3645.6
959.2077	2310.3299	4508.9	3632.65
959.3399	2311.7669	4491.65	3614.1
959.4721	2313.2031	4479.4	3603.1
959.6043	2314.6387	4470.75	3591.6
959.7365	2316.0735	4459.3	3581.55
959.8686	2317.5076	4455.55	3578.25
960.0006	2318.941	4448.75	3571.25
960.1327	2320.3737	4445.6	3568.3
960.2647	2321.8056	4439.2	3562.15
960.3967	2323.2369	4407.25	3530.45
960.5287	2324.6674	4404.35	3526.65
960.6606	2326.0972	4392.55	3514.15
960.7925	2327.5263	4379.3	3500.95
960.9244	2328.9547	4379	3502.65
961.0562	2330.3823	4354.6	3477.85
961.1881	2331.8092	4354.45	3473.9
961.3198	2333.2355	4335.2	3457.5
961.4516	2334.661	4320.85	3443
961.5833	2336.0858	4322.45	3442.7
961.715	2337.5098	4322.05	3444.75
961.8467	2338.9332	4299.9	3422.9
961.9783	2340.3558	4273.6	3394.05
962.1099	2341.7778	4270.4	3393.6
962.2415	2343.199	4260.65	3380.5
962.373	2344.6195	4242.05	3364.8
962.5045	2346.0393	4230.4	3354.05
962.636	2347.4583	4248.7	3371.5
962.7675	2348.8767	4214.5	3336.95
962.8989	2350.2943	4202.65	3322.2
963.0303	2351.7113	4200.7	3323.85
963.1617	2353.1275	4196.65	3319.15
963.293	2354.543	4186.1	3301.05
963.4243	2355.9578	4170.75	3291.75
963.5556	2357.3718	4142.65	3265.45
963.6868	2358.7852	4132.05	3252.7
963.818	2360.1978	4132.75	3253
963.9492	2361.6098	4121.8	3245.55
964.0803	2363.021	4100.5	3219.55
964.2114	2364.4315	4095.5	3219.75
964.3425	2365.8413	4110.55	3227.45
964.4736	2367.2504	4077.45	3200.9
964.6046	2368.6587	4054.7	3175.65
964.7356	2370.0664	4043.75	3165.2
964.8666	2371.4733	4045.85	3166.45
964.9975	2372.8795	4031.25	3152.75
965.1284	2374.285	4026.95	3146.8
965.2593	2375.6899	3986.95	3109.6
965.3901	2377.0939	3973.45	3098.05
965.5209	2378.4973	3969.75	3093.4
965.6517	2379.9	3960.9	3083.55
965.7825	2381.3019	3944.15	3065.35
965.9132	2382.7032	3925.75	3046.4
966.0439	2384.1037	3941.75	3067
966.1745	2385.5035	3924.8	3044.8
966.3051	2386.9027	3923.85	3046.9
966.4357	2388.3011	3911.5	3031.2
966.5663	2389.6987	3883	3004.5
966.6968	2391.0957	3888.25	3011.5
966.8273	2392.492	3866.05	2988.9
966.9578	2393.8876	3843.95	2966.15
967.0882	2395.2824	3832.5	2954.75
967.2186	2396.6765	3823.1	2946.5
967.349	2398.07	3798.4	2922.25
967.4793	2399.4627	3812.9	2934.45
967.6097	2400.8547	3798.6	2920.85
967.7399	2402.246	3778.05	2894.9
967.8702	2403.6366	3776.35	2900.1
968.0004	2405.0265	3752.65	2875.05
968.1306	2406.4156	3758.8	2878.4
968.2607	2407.8041	3730.75	2847.45
968.3909	2409.1918	3725.2	2846
968.521	2410.5789	3718.15	2838.6
968.651	2411.9652	3689.55	2808.25
968.781	2413.3508	3689.1	2811.65
968.911	2414.7358	3669.8	2793.75
969.041	2416.12	3656.85	2779.5
969.1709	2417.5035	3655.9	2777.1
969.3008	2418.8863	3640.85	2762.25
969.4307	2420.2684	3634.25	2759
969.5606	2421.6497	3608.95	2731.85
969.6904	2423.0304	3604	2726.8
969.8201	2424.4104	3593.15	2713.8
969.9499	2425.7896	3572.45	2692.8
970.0796	2427.1682	3575.95	2699
970.2093	2428.546	3570	2692.25
970.3389	2429.9232	3554.95	2676.1
970.4685	2431.2996	3549.85	2672.7
970.5981	2432.6753	3549.7	2672.9
970.7277	2434.0503	3537	2659.8
970.8572	2435.4246	3515.2	2638.5
970.9867	2436.7982	3519.15	2638.4
971.1161	2438.1711	3500.95	2622.75
971.2456	2439.5433	3494.35	2614.85
971.375	2440.9148	3498.85	2616.7
971.5043	2442.2856	3489.45	2612.25
971.6336	2443.6557	3467.3	2590.2
971.7629	2445.025	3452.3	2575.8
971.8922	2446.3937	3459.4	2581.65
972.0214	2447.7617	3438.95	2560.45
972.1506	2449.1289	3448.45	2570.6
972.2798	2450.4955	3441.35	2560.5
972.4089	2451.8613	3424.9	2548.65
972.538	2453.2265	3415.35	2539.15
972.6671	2454.5909	3418.9	2540.1
972.7961	2455.9546	3403.8	2526.6
972.9251	2457.3177	3386.15	2508.8
973.0541	2458.68	3389.25	2511.3
973.1831	2460.0416	3385.3	2508.15
973.312	2461.4025	3382.1	2502.8
973.4408	2462.7627	3383.25	2493.5
973.5697	2464.1222	3342.65	2466.35
973.6985	2465.4811	3336.35	2458.7
973.8273	2466.8392	3325.95	2449.85
973.956	2468.1966	3316.8	2438.3
974.0847	2469.5533	3335.4	2454.2
974.2134	2470.9093	3322.3	2444.3
974.3421	2472.2645	3298.5	2419.2
974.4707	2473.6191	3301.65	2424.55
974.5993	2474.973	3288.5	2413.9
974.7278	2476.3262	3277.75	2397.05
974.8563	2477.6787	3267.55	2390.2
974.9848	2479.0305	3259.2	2382.3
975.1132	2480.3816	3258	2379.85
975.2417	2481.7319	3232.6	2352.55
975.37	2483.0816	3232.6	2351.45
975.4984	2484.4306	3227.7	2348.75
975.6267	2485.7789	3213.85	2337
975.755	2487.1264	3215.7	2337.15
975.8833	2488.4733	3205.1	2328.35
976.0115	2489.8195	3200.2	2315.55
976.1397	2491.165	3177.05	2296.1
976.2678	2492.5097	3163.4	2283.85
976.3959	2493.8538	3171.5	2293.4
976.524	2495.1972	3144.75	2265.6
976.6521	2496.5398	3135.8	2257.25
976.7801	2497.8818	3124	2245.55
976.9081	2499.2231	3126.35	2247.3
977.036	2500.5637	3105.55	2226
977.164	2501.9035	3106.45	2228.05
977.2918	2503.2427	3110.45	2230
977.4197	2504.5812	3085.55	2210.3
977.5475	2505.919	3073.35	2193.8
977.6753	2507.256	3081.3	2203.25
977.8031	2508.5924	3068.6	2189.15
977.9308	2509.9281	3072.4	2189.2
978.0585	2511.2631	3060.65	2183.15
978.1861	2512.5974	3055.85	2178.8
978.3137	2513.9309	3046.65	2169.9
978.4413	2515.2638	3053.75	2148.5
978.5689	2516.596	3031.35	2154.35
978.6964	2517.9275	3008.45	2129.1
978.8239	2519.2583	3005.35	2126.55
978.9513	2520.5884	2994	2114.1
979.0788	2521.9178	2997.3	2120.45
979.2062	2523.2465	2987.2	2110.9
979.3335	2524.5745	2962.1	2084.4
979.4608	2525.9018	2960.65	2082.7
979.5881	2527.2284	2946.75	2070.5
979.7154	2528.5543	2957.45	2082.4
979.8426	2529.8796	2945.9	2068.3
979.9698	2531.2041	2937.45	2058.25
980.0969	2532.5279	2930.95	2054.2
980.224	2533.851	2922.7	2044.7
980.3511	2535.1735	2921.7	2043.7
980.4781	2536.4952	2906.35	2029.3
980.6052	2537.8163	2918.5	2040.5
980.7321	2539.1366	2888	2011.45
980.8591	2540.4562	2884.25	2004.05
980.986	2541.7752	2876.55	1999.75
981.1129	2543.0935	2885.55	2007.75
981.2397	2544.411	2882.85	2003.65
981.3665	2545.7279	2879.85	2004.25
981.4933	2547.0441	2860.5	1981.55
981.62	2548.3596	2872.3	1989.5
981.7467	2549.6744	2868.4	1991.1
981.8734	2550.9885	2849.85	1963.6
982.0001	2552.3019	2840.8	1964.85
982.1267	2553.6146	2832.25	1952.4
982.2532	2554.9266	2824.3	1944.65
982.3798	2556.2379	2827.5	1948.3
982.5063	2557.5485	2822.65	1944.8
982.6327	2558.8585	2831.05	1944.55
982.7592	2560.1677	2812.55	1932.25
982.8856	2561.4762	2815.5	1940
983.0119	2562.7841	2801.95	1921.35
983.1383	2564.0913	2791.05	1913.6
983.2646	2565.3977	2796.25	1918.55
983.3908	2566.7035	2790.6	1913.2
983.517	2568.0086	2779.8	1900.25
983.6432	2569.313	2779.85	1903.4
983.7694	2570.6167	2777.65	1895.2
983.8955	2571.9197	2764.15	1888.5
984.0216	2573.222	2770.05	1890.35
984.1476	2574.5236	2766.65	1888.9
984.2737	2575.8246	2758.2	1878.5
984.3996	2577.1248	2751	1870.2
984.5256	2578.4244	2744.6	1868.75
984.6515	2579.7232	2750.35	1874.15
984.7774	2581.0214	2764	1858.85
984.9032	2582.3189	2736.2	1859.7
985.029	2583.6157	2722.95	1839.15
985.1548	2584.9118	2716.8	1838
985.2806	2586.2072	2710.3	1833.4
985.4063	2587.5019	2703.75	1826.2
985.5319	2588.7959	2705	1827.15
985.6576	2590.0893	2695.35	1817.85
985.7832	2591.3819	2695.7	1819.7
985.9087	2592.6739	2677.65	1802.3
986.0343	2593.9652	2674.35	1795.45
986.1597	2595.2557	2668.9	1794.65
986.2852	2596.5456	2654.4	1775.05
986.4106	2597.8348	2662.15	1785.95
986.536	2599.1234	2648.1	1772.8
986.6614	2600.4112	2640.1	1762.55
986.7867	2601.6983	2626.15	1747.7
986.912	2602.9848	2626.75	1747.5
987.0372	2604.2705	2625.75	1741.45
987.1624	2605.5556	2614.1	1736.1
987.2876	2606.84	2609.9	1731.2
987.4128	2608.1237	2595.4	1715.7
987.5379	2609.4067	2597.75	1720
987.6629	2610.689	2588	1700
987.788	2611.9707	2589.35	1711.65
987.913	2613.2516	2567.65	1685.05
988.0379	2614.5319	2565.1	1688.4
988.1629	2615.8115	2547.1	1668.35
988.2878	2617.0903	2534.55	1654.8
988.4126	2618.3685	2538.15	1661.2
988.5375	2619.6461	2542.1	1664.15
988.6622	2620.9229	2533.85	1657.2
988.787	2622.199	2517.8	1639.05
988.9117	2623.4745	2511.3	1633
989.0364	2624.7493	2498.65	1620.5
989.161	2626.0234	2500.85	1624.5
989.2857	2627.2968	2499.6	1622.25
989.4102	2628.5695	2481.3	1604.15
989.5348	2629.8415	2478.4	1600.8
989.6593	2631.1128	2465.3	1586.65
989.7837	2632.3835	2463.3	1587.7
989.9082	2633.6535	2460.1	1583.85
990.0326	2634.9228	2447.1	1569.65
990.1569	2636.1914	2447.25	1569.35
990.2812	2637.4593	2446.25	1564.4
990.4055	2638.7265	2439.35	1560.9
990.5298	2639.9931	2421.65	1543.6
990.654	2641.259	2413.1	1534.1
990.7782	2642.5242	2417.2	1539.05
990.9023	2643.7887	2417.25	1539.3
991.0264	2645.0525	2414.95	1536.2
991.1505	2646.3156	2398.55	1519.2
991.2745	2647.5781	2397.15	1520.95
991.3985	2648.8398	2386.4	1510.7
991.5225	2650.1009	2376.05	1490.6
991.6464	2651.3613	2385.7	1508.45
991.7703	2652.6211	2375.05	1496.85
991.8942	2653.8801	2357.35	1478.7
992.018	2655.1385	2377.9	1496.95
992.1418	2656.3961	2362.95	1486.05
992.2655	2657.6531	2361.25	1484
992.3892	2658.9094	2349.7	1469.8
992.5129	2660.1651	2338.25	1460.4
992.6366	2661.42	2340	1461.45
992.7602	2662.6743	2332.2	1454.2
992.8837	2663.9279	2325.3	1449.25
993.0073	2665.1808	2322.3	1444.8
993.1307	2666.433	2321.2	1441.7
993.2542	2667.6846	2306.45	1429.25
993.3776	2668.9354	2305.85	1425.55
993.501	2670.1856	2298.25	1420.5
993.6244	2671.4351	2306.25	1426.8
993.7477	2672.6839	2290.45	1411.2
993.8709	2673.9321	2304.4	1427.35
993.9942	2675.1795	2289.5	1412.25
994.1174	2676.4263	2283.9	1407.65
994.2405	2677.6724	2274.25	1397.2
994.3637	2678.9179	2266.1	1389.35
994.4868	2680.1626	2259.4	1380.55
994.6098	2681.4067	2252.8	1374
994.7328	2682.6501	2256.25	1377.7
994.8558	2683.8928	2250.1	1371.8
994.9788	2685.1348	2246.1	1368.8
995.1017	2686.3761	2246.05	1371.35
995.2245	2687.6168	2231.05	1355.15
995.3474	2688.8568	2233.9	1357.85
995.4702	2690.0961	2223.5	1347.95
995.5929	2691.3348	2215.8	1337.55
995.7156	2692.5727	2212.55	1335.5
995.8383	2693.81	2201.5	1323.35
995.961	2695.0466	2199.9	1324.5
996.0836	2696.2826	2192.6	1312.45
996.2062	2697.5178	2202.55	1321.6
996.3287	2698.7524	2192.85	1317.1
996.4512	2699.9863	2184.95	1305.3
996.5737	2701.2195	2173.15	1298.6
996.6961	2702.452	2173.95	1295.85
996.8185	2703.6839	2168.45	1289.95
996.9408	2704.9151	2160.95	1285.2
997.0631	2706.1456	2162.15	1284.1
997.1854	2707.3755	2150.7	1271.35
997.3077	2708.6046	2154.35	1274.5
997.4299	2709.8331	2155.05	1276.3
997.552	2711.0609	2139.85	1262.05
997.6742	2712.2881	2144.05	1266.3
997.7963	2713.5145	2132.1	1252.35
997.9183	2714.7403	2119.55	1242.75
998.0403	2715.9654	2115.6	1238.7
998.1623	2717.1899	2129.35	1237.55
998.2842	2718.4136	2107.55	1229.55
998.4062	2719.6367	2111.2	1233.5
998.528	2720.8591	2106.3	1221.1
998.6498	2722.0809	2109.25	1232.45
998.7716	2723.3019	2103.85	1223.55
998.8934	2724.5223	2092.65	1214.2
999.0151	2725.7421	2088	1208.25
999.1368	2726.9611	2082.7	1203.5
999.2584	2728.1795	2085.1	1203.4
999.38	2729.3972	2069.1	1193.2
999.5016	2730.6142	2072.65	1181.05
999.6231	2731.8306	2056.7	1177.15
999.7446	2733.0462	2060.65	1178.45
999.8661	2734.2612	2049.7	1170.25
999.9875	2735.4756	2040.8	1161.5
1000.1089	2736.6892	2029.05	1150.8
1000.2302	2737.9022	2023.2	1146.6
1000.3515	2739.1145	2014.8	1139
1000.4728	2740.3262	2027.75	1145.15
1000.594	2741.5372	2011.8	1134.6
1000.7152	2742.7475	2015.65	1137.35
1000.8363	2743.9571	1995.6	1117.75
1000.9575	2745.1661	1990.85	1108.8
1001.0785	2746.3744	1992.7	1115.85
1001.1996	2747.582	1988.25	1111.55
1001.3206	2748.7889	1978.75	1100.1
1001.4415	2749.9952	1981.9	1105.25
1001.5625	2751.2008	1966.3	1088.25
1001.6833	2752.4057	1967.5	1088.3
1001.8042	2753.61	1968.3	1090.2
1001.925	2754.8136	1954.65	1075.7
1002.0458	2756.0165	1956.5	1079.45
1002.1665	2757.2188	1951.75	1074.5
1002.2872	2758.4204	1936.95	1059.6
1002.4078	2759.6213	1944.75	1065
1002.5285	2760.8215	1944.5	1063.95
1002.649	2762.0211	1928.85	1051.1
1002.7696	2763.22	1921.6	1041.55
1002.8901	2764.4182	1922	1043.1
1003.0106	2765.6158	1913.8	1035.05
1003.131	2766.8127	1911.25	1035.05
1003.2514	2768.009	1904.35	1026.85
1003.3717	2769.2045	1906.25	1029.3
1003.492	2770.3994	1903.2	1024.2
1003.6123	2771.5936	1896.35	1019.45
1003.7325	2772.7872	1888.15	1011.55
1003.8527	2773.9801	1890.4	1010.15
1003.9729	2775.1723	1902.6	1007.5
1004.093	2776.3639	1872	996.15
1004.2131	2777.5548	1886.45	1007.65
1004.3331	2778.745	1873.6	994.95
1004.4531	2779.9346	1872.2	994.65
1004.5731	2781.1235	1864.95	985.65
1004.693	2782.3117	1862.25	987.5
1004.8129	2783.4992	1850.2	971.45
1004.9328	2784.6861	1840.35	963.25
1005.0526	2785.8723	1859.6	981.7
1005.1723	2787.0579	1845.6	967.5
1005.2921	2788.2428	1841.3	963.95
1005.4118	2789.427	1825	949.25
1005.5314	2790.6106	1829.75	951.5
1005.651	2791.7935	1829.75	949.25
1005.7706	2792.9757	1819.45	942
1005.8902	2794.1573	1821.35	941.85
1006.0097	2795.3382	1812.95	936.7
1006.1291	2796.5184	1809.35	932.7
1006.2485	2797.698	1813.65	935.35
1006.3679	2798.8769	1801.2	923.7
1006.4873	2800.0551	1802.55	924.6
1006.6066	2801.2327	1801.05	920.8
1006.7258	2802.4096	1797.3	921.65
1006.8451	2803.5859	1787.75	909.6
1006.9642	2804.7615	1786.25	907.05
1007.0834	2805.9364	1789.85	912.8
1007.2025	2807.1106	1776.5	899.85
1007.3216	2808.2842	1781.2	901.9
1007.4406	2809.4572	1777.05	900.3
1007.5596	2810.6294	1774.55	897.8
1007.6785	2811.801	1766.4	890.2
1007.7975	2812.972	1765.65	890.5
1007.9163	2814.1423	1771.4	893.55
1008.0352	2815.3119	1769.25	891.75
1008.154	2816.4808	1765.2	889.4
1008.2727	2817.6491	1772.65	895.25
1008.3914	2818.8167	1772	898.15
1008.5101	2819.9837	1785.3	903.3
1008.6288	2821.15	1779.1	903.95
1008.7474	2822.3157	1784.2	907.5
1008.8659	2823.4807	1792.55	914.35
1008.9844	2824.645	1800.25	924.35
1009.1029	2825.8086	1806.75	928.25
1009.2214	2826.9716	1806.65	930.95
1009.3398	2828.134	1826.8	950.25
1009.4581	2829.2957	1824.85	949.5
1009.5764	2830.4567	1833.5	959
1009.6947	2831.617	1835.65	955.4
1009.813	2832.7767	1844.05	966.45
1009.9312	2833.9358	1835.1	959.45
1010.0493	2835.0941	1828.45	950.55
1010.1675	2836.2519	1832.65	957.1
1010.2855	2837.4089	1826.6	949.65
1010.4036	2838.5653	1801.95	923.9
1010.5216	2839.7211	1794.7	918.3
1010.6396	2840.8761	1793.4	913.95
1010.7575	2842.0306	1798.7	923.2
1010.8754	2843.1843	1781.5	904.05
1010.9932	2844.3374	1788.4	912.35
1011.111	2845.4899	1789.45	912.5
1011.2288	2846.6417	1793.05	915
1011.3465	2847.7928	1790.7	916.3
1011.4642	2848.9433	1793.35	916.6
1011.5818	2850.0931	1785.4	908.3
1011.6995	2851.2422	1789.25	910.85
1011.817	2852.3907	1790.4	912.8
1011.9345	2853.5385	1792.9	912.4
1012.052	2854.6857	1799.4	911.8
1012.1695	2855.8323	1793.05	919.1
1012.2869	2856.9781	1790.3	913.8
1012.4042	2858.1233	1783	907.1
1012.5216	2859.2679	1794.85	918.1
1012.6389	2860.4118	1790.55	917.7
1012.7561	2861.555	1796.35	913.35
1012.8733	2862.6976	1802.8	925.1
1012.9905	2863.8395	1798.8	921.4
1013.1076	2864.9808	1786.1	909.25
1013.2247	2866.1214	1790.6	912.75
1013.3417	2867.2614	1794.1	915.7
1013.4587	2868.4007	1788.8	909.8
1013.5757	2869.5393	1791.8	914.5
1013.6926	2870.6773	1795.05	915.35
1013.8095	2871.8146	1788.65	910
1013.9263	2872.9513	1790.55	912.95
1014.0431	2874.0874	1792.65	917.55
1014.1599	2875.2227	1789.65	912.1
1014.2766	2876.3574	1779.7	901.3
1014.3933	2877.4915	1785.3	908.2
1014.51	2878.6249	1781.3	904.2
1014.6266	2879.7577	1781.65	902.7
1014.7431	2880.8898	1785.2	899.8
1014.8596	2882.0212	1782.5	906.85
1014.9761	2883.152	1776.9	898.25
1015.0925	2884.2821	1782.65	905.95
1015.2089	2885.4116	1780.1	903.7
1015.3253	2886.5405	1780.55	903.85
1015.4416	2887.6686	1786.3	906.5
1015.5579	2888.7962	1769.5	895.1
1015.6741	2889.923	1769.7	893.85
1015.7903	2891.0493	1765.3	888.9
1015.9065	2892.1748	1758.65	881.1
1016.0226	2893.2997	1761	883.5
1016.1387	2894.424	1760.7	883.4
1016.2547	2895.5476	1756.05	880.4
1016.3707	2896.6706	1749.15	871.15
1016.4866	2897.7929	1740.9	863.15
1016.6025	2898.9145	1747.2	871.15
1016.7184	2900.0355	1742.1	866.05
1016.8342	2901.1559	1731.35	853.1
1016.95	2902.2756	1737.75	861.6
1017.0658	2903.3946	1739.4	864.35
1017.1815	2904.513	1739.15	857.6
1017.2971	2905.6308	1730.4	851.55
1017.4127	2906.7479	1726.1	848.6
1017.5283	2907.8643	1731.1	854.7
1017.6439	2908.9801	1723.55	846.85
1017.7594	2910.0953	1714.95	838.35
1017.8748	2911.2098	1720.8	839.4
1017.9902	2912.3236	1721.15	838.45
1018.1056	2913.4368	1711.3	832.2
1018.2209	2914.5494	1705.65	827.05
1018.3362	2915.6613	1706.7	823.85
1018.4515	2916.7725	1695.6	815.1
1018.5667	2917.8831	1690.05	811.5
1018.6819	2918.9931	1685.65	805.35
1018.797	2920.1024	1676.3	797.85
1018.9121	2921.211	1671.5	795.45
1019.0271	2922.319	1665.85	788.7
1019.1421	2923.4264	1659.5	783.45
1019.2571	2924.5331	1652.1	775.35
1019.372	2925.6391	1660.7	785.85
1019.4869	2926.7445	1654.05	777.25
1019.6017	2927.8493	1657.4	778.7
1019.7165	2928.9534	1653.75	776.2
1019.8313	2930.0569	1650.4	772.5
1019.946	2931.1597	1652.45	774.3
1020.0606	2932.2619	1643.3	767.7
1020.1753	2933.3634	1648.8	771.95
1020.2899	2934.4643	1653.45	771.55
1020.4044	2935.5645	1657.45	775.15
1020.5189	2936.6641	1653.05	769.6
1020.6334	2937.763	1639.15	764.45
1020.7478	2938.8613	1643	765.05
1020.8622	2939.959	1640.6	757.85
1020.9765	2941.056	1632.05	754.75
1021.0908	2942.1523	1627.85	749.1
1021.2051	2943.248	1609.95	731.8
1021.3193	2944.3431	1597.8	722.65
1021.4334	2945.4375	1582.75	706.05
1021.5476	2946.5313	1566.65	692.85
1021.6617	2947.6244	1560.2	683.3
1021.7757	2948.7169	1543.25	664.8
1021.8897	2949.8087	1535.1	657.05
1022.0037	2950.8999	1519.9	640.9
1022.1176	2951.9904	1507.7	632.05
1022.2315	2953.0803	1505.85	627.95
1022.3453	2954.1696	1489.7	612.4
1022.4591	2955.2582	1486.7	610.05
1022.5728	2956.3462	1475.75	601.05
1022.6865	2957.4335	1475.15	597.5
1022.8002	2958.5202	1472.9	592.55
1022.9138	2959.6062	1474.45	598.1
1023.0274	2960.6916	1458.05	581.8
1023.141	2961.7764	1464.75	585.55
1023.2545	2962.8605	1459.15	581.35
1023.3679	2963.9439	1464.5	588.4
1023.4813	2965.0267	1461.1	582.55
1023.5947	2966.1089	1473.4	571.8
1023.708	2967.1905	1462.9	586.55
1023.8213	2968.2714	1439	562
1023.9346	2969.3516	1446.3	567.55
1024.0478	2970.4312	1437.75	553.4
1024.1609	2971.5102	1443.4	566.7
1024.274	2972.5885	1433.7	557.35
1024.3871	2973.6662	1443.25	561.6
1024.5002	2974.7432	1431.65	554
1024.6132	2975.8196	1428.6	553.35
1024.7261	2976.8954	1432.3	554.25
1024.839	2977.9705	1430.85	555.6
1024.9519	2979.045	1422.65	546.9
1025.0647	2980.1188	1420.25	542.65
1025.1775	2981.192	1420.7	544.65
1025.2902	2982.2645	1419.85	541
1025.4029	2983.3364	1411	533.75
1025.5156	2984.4077	1411.15	532.15
1025.6282	2985.4783	1410.2	527
1025.7407	2986.5483	1399.7	522.2
1025.8532	2987.6177	1390.95	514.6
1025.9657	2988.6864	1394.05	517.5
1026.0782	2989.7545	1384.45	509.55
1026.1906	2990.8219	1378.95	501.25
1026.3029	2991.8887	1377.25	499.4
1026.4152	2992.9548	1370.95	493.25
1026.5275	2994.0204	1362.9	486.55
1026.6397	2995.0852	1350.85	476.15
1026.7519	2996.1495	1350.6	471.9
1026.864	2997.2131	1349.95	472.15
1026.9761	2998.276	1343.9	465.85
1027.0882	2999.3383	1332.8	454.6
1027.2002	3000.4	1332.1	453.55
1027.3122	3001.4611	1335.15	457.55
1027.4241	3002.5215	1319.7	443.05
1027.536	3003.5812	1322.15	447.45
1027.6478	3004.6404	1316.4	440.85
1027.7596	3005.6989	1313	434.3
1027.8714	3006.7567	1308.4	431.55
1027.9831	3007.8139	1331.8	432.2
1028.0947	3008.8705	1301.25	424.95
1028.2064	3009.9264	1308.7	429.2
1028.3179	3010.9818	1304.1	427.2
1028.4295	3012.0364	1301.7	423.9
1028.541	3013.0905	1299	420.95
1028.6524	3014.1439	1301.25	424.15
1028.7638	3015.1966	1295.8	419.95
1028.8752	3016.2487	1285.15	407.7
1028.9865	3017.3002	1296.6	416.6
1029.0978	3018.3511	1283.9	407.75
1029.209	3019.4013	1283.85	408.35
1029.3202	3020.4509	1281.2	402.55
1029.4314	3021.4998	1282.85	406.7
1029.5425	3022.5481	1282	406.35
1029.6535	3023.5958	1280.9	403.9
1029.7645	3024.6428	1277.3	400.25
1029.8755	3025.6892	1270	393.45
1029.9864	3026.735	1272.15	395.4
1030.0973	3027.7802	1274.1	398.75
1030.2082	3028.8247	1267.25	391.85
1030.319	3029.8685	1269.85	391.9
1030.4297	3030.9118	1263	383.4
1030.5404	3031.9544	1257.1	382.7
1030.6511	3032.9963	1263.6	386.75
1030.7617	3034.0376	1256.95	380.55
1030.8723	3035.0783	1260.15	380.15
1030.9829	3036.1184	1261.05	383.25
1031.0934	3037.1578	1257.9	381.15
1031.2038	3038.1966	1254.3	377.15
1031.3142	3039.2348	1248.65	371.95
1031.4246	3040.2723	1253.7	369.35
1031.5349	3041.3092	1247.45	370.65
1031.6452	3042.3455	1245.75	368.5
1031.7554	3043.3811	1242.2	363.95
1031.8656	3044.4161	1236.2	357.9
1031.9758	3045.4505	1237.85	364.55
1032.0859	3046.4842	1237.4	359.15
1032.1959	3047.5173	1241.15	367.7
1032.3059	3048.5498	1232.85	357.35
1032.4159	3049.5816	1234.95	358.9
1032.5258	3050.6128	1241.2	363.45
1032.6357	3051.6434	1235.9	357.3
1032.7455	3052.6734	1237.25	356.7
1032.8553	3053.7027	1233.85	356.3
1032.9651	3054.7314	1233.5	358.6
1033.0748	3055.7594	1232.75	356.25
1033.1845	3056.7868	1230.5	354.35
1033.2941	3057.8136	1229.75	353.2
1033.4037	3058.8398	1220.1	344.1
1033.5132	3059.8653	1224.95	349
1033.6227	3060.8902	1220.4	342.55
1033.7321	3061.9145	1226.25	349.2
1033.8415	3062.9381	1224.3	346.75
1033.9509	3063.9612	1234.1	342.45
1034.0602	3064.9835	1219.1	341.05
1034.1694	3066.0053	1221.95	343.45
1034.2787	3067.0264	1216	337.95
1034.3878	3068.0469	1220	342.15
1034.497	3069.0668	1219.85	341.5
1034.6061	3070.086	1214	337.45
1034.7151	3071.1046	1213.25	338.25
1034.8241	3072.1226	1214.8	337.85
1034.9331	3073.1399	1209.45	333.9
1035.042	3074.1567	1208.9	332.55
1035.1508	3075.1727	1210.2	332.45
1035.2597	3076.1882	1210.35	332.95
1035.3684	3077.203	1204.3	327.85
1035.4772	3078.2173	1200.8	320.8
1035.5859	3079.2308	1204.1	323.95
1035.6945	3080.2438	1196.45	316.35
1035.8031	3081.2561	1193.7	316.6
1035.9117	3082.2678	1193.8	316.2
1036.0202	3083.2789	1189.6	312.75
1036.1286	3084.2893	1188.1	312.6
1036.2371	3085.2991	1188.6	311.65
1036.3454	3086.3083	1187.85	306.05
1036.4538	3087.3169	1182.25	304.2
1036.562	3088.3248	1185	305.15
1036.6703	3089.3321	1183.5	307.1
1036.7785	3090.3388	1182.7	307.35
1036.8866	3091.3449	1182.6	303.1
1036.9948	3092.3503	1179	299.9
1037.1028	3093.3551	1176	301.2
1037.2108	3094.3593	1177.7	301.75
1037.3188	3095.3629	1167.3	292.55
1037.4267	3096.3658	1169.8	292.75
1037.5346	3097.3681	1168.85	293.7
1037.6425	3098.3698	1165.35	286.8
1037.7503	3099.3708	1168.45	286.35
1037.858	3100.3713	1159.45	282.2
1037.9657	3101.3711	1160.05	280.65
1038.0734	3102.3702	1293.35	281.65
1038.181	3103.3688	1160.4	280.5
1038.2886	3104.3667	1158.15	279.85
1038.3961	3105.364	1152.65	275.75
1038.5036	3106.3607	1153.1	275.45
1038.611	3107.3568	1151.15	271.9
1038.7184	3108.3522	1147.65	271.5
1038.8257	3109.347	1150.9	272.35
1038.933	3110.3412	1149.6	269.3
1039.0403	3111.3348	1142.1	267.1
1039.1475	3112.3277	1141.75	265.5
1039.2547	3113.32	1143.05	269.5
1039.3618	3114.3117	1137.6	261.1
1039.4689	3115.3028	1135.9	258.4
1039.5759	3116.2932	1138.4	259.75
1039.6829	3117.2831	1132	247.1
1039.7898	3118.2723	1133.75	257.95
1039.8967	3119.2608	1135.05	257.5
1040.0035	3120.2488	1130.4	253.3
1040.1103	3121.2361	1130.35	252.75
1040.2171	3122.2229	1124.25	247.3
1040.3238	3123.209	1130.15	253.05
1040.4305	3124.1944	1122.9	246.7
1040.5371	3125.1793	1122.15	243.85
1040.6437	3126.1635	1119.05	242.4
1040.7502	3127.1471	1118.8	243.6
1040.8567	3128.1301	1117.7	241.3
1040.9631	3129.1125	1115.9	239.45
1041.0695	3130.0942	1115.45	238.8
1041.1759	3131.0753	1124.1	237.2
1041.2822	3132.0558	1119.45	238.95
1041.3884	3133.0357	1108.4	231.05
1041.4946	3134.015	1118.65	239.3
1041.6008	3134.9936	1116.35	238.4
1041.7069	3135.9716	1131.35	236.45
1041.813	3136.949	1108.05	231.85
1041.919	3137.9258	1113.55	230.2
1042.025	3138.902	1113.85	231.4
1042.1309	3139.8775	1102.35	227.25
1042.2368	3140.8524	1102.45	225.35
1042.3427	3141.8267	1105.55	225.6
1042.4485	3142.8004	1103.55	227.85
1042.5542	3143.7735	1108.45	222.4
1042.6599	3144.7459	1105.6	226.9
1042.7656	3145.7178	1099.7	222.75
1042.8712	3146.689	1104.5	227.7
1042.9768	3147.6596	1100.7	221.8
1043.0823	3148.6295	1100.2	224.3
1043.1878	3149.5989	1094	217.6
1043.2932	3150.5676	1093.45	218.2
1043.3986	3151.5357	1093.7	217.55
1043.5039	3152.5032	1090.35	214.35
1043.6092	3153.4701	1090.35	213.1
1043.7145	3154.4364	1094.05	216.8
1043.8197	3155.402	1082.95	207.7
1043.9248	3156.367	1088	209.75
1044.03	3157.3315	1121.55	206.55
1044.135	3158.2952	1089.8	213.55
1044.24	3159.2584	1080.45	204.05
1044.345	3160.221	1081.9	206.9
1044.4499	3161.1829	1077.35	200.4
1044.5548	3162.1442	1078.05	202.5
1044.6596	3163.105	1080.35	202.7
1044.7644	3164.065	1074.95	198
1044.8692	3165.0245	1077.95	199.4
1044.9739	3165.9834	1073.15	198.7
1045.0785	3166.9416	1077.3	201.05
1045.1831	3167.8993	1072.55	196.6
1045.2877	3168.8563	1075.45	196.85
1045.3922	3169.8127	1070.25	195.1
1045.4966	3170.7684	1069.2	193.6
1045.6011	3171.7236	1069.3	193.15
1045.7054	3172.6782	1067.5	190.05
1045.8098	3173.6321	1066.3	189.3
1045.914	3174.5854	1069.5	188.9
1046.0183	3175.5381	1068.55	189.8
1046.1224	3176.4902	1062.3	187.15
1046.2266	3177.4417	1063.45	188.3
1046.3307	3178.3926	1063.8	188.05
1046.4347	3179.3428	1057.45	182.2
1046.5387	3180.2924	1058.35	181.95
1046.6427	3181.2415	1055.9	177.95
1046.7466	3182.1899	1060.8	181
1046.8504	3183.1377	1058.7	183.9
1046.9542	3184.0848	1058.3	179.6
1047.058	3185.0314	1054.95	177.7
1047.1617	3185.9773	1054.55	177.3
1047.2654	3186.9227	1054.5	176.15
1047.369	3187.8674	1051.45	173.45
1047.4726	3188.8115	1048.5	168
1047.5761	3189.755	1050.25	173.85
1047.6796	3190.6979	1049.65	174.45
1047.783	3191.6402	1047.35	170.6
1047.8864	3192.5818	1047.45	171.25
1047.9898	3193.5229	1048.95	166.75
1048.0931	3194.4633	1045.6	167.95
1048.1963	3195.4031	1045.2	167.85
1048.2995	3196.3423	1040.9	164.85
1048.4027	3197.2809	1042.25	164.9
1048.5058	3198.2189	1045.2	167.45
1048.6089	3199.1563	1052.35	169.35
1048.7119	3200.0931	1038.95	162.7
1048.8148	3201.0292	1035.65	160.3
1048.9178	3201.9648	1036.9	160.7
1049.0206	3202.8997	1043.45	163.8
1049.1235	3203.834	1037.85	160.75
1049.2262	3204.7677	1035.95	160.6
1049.329	3205.7008	1036.05	158.8
1049.4317	3206.6333	1035.95	159.8
1049.5343	3207.5652	1035	156.85
1049.6369	3208.4964	1032.95	156.35
1049.7394	3209.4271	1033.25	158.6
1049.8419	3210.3571	1029.35	152.05
1049.9444	3211.2865	1031.8	155.2
1050.0468	3212.2154	1031.7	151.8
1050.1491	3213.1436	1034.75	154.9
1050.2514	3214.0712	1034.2	151.85
1050.3537	3214.9982	1028.4	152.7
1050.4559	3215.9246	1028	149.6
1050.5581	3216.8503	1023.3	148.3
1050.6602	3217.7755	1023.4	146.25
1050.7623	3218.7001	1023.9	146.7
1050.8643	3219.624	1024.6	147.65
1050.9663	3220.5473	1023.5	146.65
1051.0682	3221.4701	1026.85	148.55
1051.1701	3222.3922	1023.2	144.55
1051.2719	3223.3137	1019.85	146.4
1051.3737	3224.2346	1020.45	144
1051.4754	3225.1549	1020.05	143.45
1051.5771	3226.0746	1016.75	140.35
1051.6788	3226.9937	1023.1	145.55
1051.7804	3227.9121	1017	141.8
1051.8819	3228.83	1012.35	137.55
1051.9834	3229.7473	1013	136.3
1052.0849	3230.6639	1014.5	138.5
1052.1863	3231.5799	1012	133.7
1052.2876	3232.4954	1011.75	135.2
1052.3889	3233.4102	1010.45	135.6
1052.4902	3234.3244	1015.35	137.7
1052.5914	3235.238	1009.55	134.3
1052.6926	3236.151	1030.35	128.65
1052.7937	3237.0634	1005.95	131.45
1052.8948	3237.9752	1006.55	130.15
1052.9958	3238.8864	1007.2	130.9
1053.0968	3239.797	1005.35	128.4
1053.1977	3240.7069	1007.85	131.4
1053.2986	3241.6163	1004.3	127.7
1053.3994	3242.5251	1004.15	130.2
1053.5002	3243.4332	1000.15	126.05
1053.6009	3244.3408	1003.65	126.2
1053.7016	3245.2477	999.6	123.5
1053.8022	3246.154	1003.85	125
1053.9028	3247.0598	1003.75	127.25
1054.0034	3247.9649	998.6	120.75
1054.1039	3248.8694	996.7	119.2
1054.2043	3249.7733	996.15	121.35
1054.3047	3250.6766	997.05	119.85
1054.4051	3251.5793	998.9	121.45
1054.5054	3252.4814	995.45	120.15
1054.6056	3253.3829	994.2	118.6
1054.7058	3254.2838	991.85	115.9
1054.806	3255.1841	989.75	113.2
1054.9061	3256.0838	991.2	116.5
1055.0061	3256.9829	991.25	115.25
1055.1062	3257.8814	993.45	114.4
1055.2061	3258.7792	988.15	107.75
1055.306	3259.6765	987.8	108.55
1055.4059	3260.5731	987.65	111.8
1055.5057	3261.4692	988.3	111.4
1055.6055	3262.3647	985.4	107.65
1055.7052	3263.2595	984	107.55
1055.8049	3264.1538	983.65	108.05
1055.9045	3265.0474	978.2	101.2
1056.0041	3265.9404	976.75	100
1056.1036	3266.8329	975.6	100.05
1056.2031	3267.7247	982.55	94.5
1056.3025	3268.616	971.2	93.1
1056.4019	3269.5066	969.7	95.05
1056.5013	3270.3966	969	90.45
1056.6005	3271.286	964.95	87.5
