Software Version:	3.9.2.0
Unit SN:	10000200
Spectrometer SN:	6960
Date:	3/6/2024 10:31:23 AM
Data Line Index:	25
Spectral Points:	2048
Integration time (ms):	125
Averages:	20
Delay (ms):	30
Sequence Number:	1
Processing:	dark subtract
Laser Power (mW):	300
Laser Current (mA):	825
Laser Diode Temp (C):	25.1
Laser Case Temp (C):	26.3
System Temp (C):	26.1
Spectrometer Temp (C):	23.5
CCD Temp (C):	-0.006
Secondary Temp (C):	20.007
Heatsink Temp (C):	21.497
CCDPCB Temp (C):	36.274
SecondaryPCB Temp (C):	30.004

Wavelength	RamanShift	Raw Counts	Dark Subtracted
787.061	30.1047	1129.75	718.35
787.2016	32.3739	1156.4	745.4
787.3422	34.6426	1199.1	787.6
787.4828	36.9109	1248.85	834.6
787.6235	39.1787	1296.8	878.15
787.7642	41.4461	1366.9	943.05
787.9049	43.7131	1428.35	1002.45
788.0456	45.9796	1488.3	1060.9
788.1863	48.2456	1557.65	1126.3
788.3271	50.5112	1630.95	1193.65
788.4679	52.7764	1691.1	1252.8
788.6087	55.0411	1773.55	1331.2
788.7496	57.3054	1865.05	1417.35
788.8904	59.5692	1946.35	1495.25
789.0313	61.8326	2050.4	1596.5
789.1722	64.0955	2151.45	1695.1
789.3132	66.3579	2287.15	1824.3
789.4541	68.6199	2418.9	1955.65
789.5951	70.8815	2665.8	2196.85
789.7361	73.1426	3198.25	2724.45
789.8771	75.4032	4545.1	4068.05
790.0181	77.6634	8001.9	7521.05
790.1592	79.9231	17175.1	16685.3
790.3003	82.1824	55210.35	54712.75
790.4414	84.4412	65535	65018.05
790.5825	86.6995	65535	64992.85
790.7237	88.9574	65535	64970.95
790.8648	91.2148	65535	64952.1
791.006	93.4717	65535	64941.95
791.1472	95.7282	65535	64936.4
791.2885	97.9842	65535	64935.1
791.4297	100.2398	65535	64928.05
791.571	102.4949	65535	64927
791.7123	104.7495	65535	64923.2
791.8536	107.0036	65535	64920.85
791.9949	109.2573	65535	64923.2
792.1363	111.5105	65535	64920.5
792.2777	113.7632	65535	64920.05
792.4191	116.0154	65535	64910.25
792.5605	118.2672	65535	64911.05
792.7019	120.5185	65535	64912.35
792.8434	122.7693	65535	64911.6
792.9849	125.0197	65535	64905.9
793.1264	127.2696	65535	64899.7
793.2679	129.519	65535	64898.6
793.4094	131.7679	65535	64898.2
793.551	134.0163	65535	64896
793.6926	136.2642	65535	64890.5
793.8342	138.5117	65535	64882.7
793.9758	140.7587	65535	64888.25
794.1175	143.0052	65535	64887.8
794.2591	145.2512	65535	64885.2
794.4008	147.4967	65535	64881.95
794.5425	149.7417	65535	64881.6
794.6842	151.9863	65535	64876.55
794.826	154.2304	65535	64873.7
794.9677	156.4739	65535	64868.25
795.1095	158.717	65535	64869.75
795.2513	160.9596	65535	64865.5
795.3931	163.2017	65535	64862.5
795.535	165.4433	65535	64859.7
795.6768	167.6844	65535	64855.5
795.8187	169.925	65535	64858.7
795.9606	172.1651	65535	64853.25
796.1025	174.4047	65535	64848.8
796.2445	176.6439	65535	64846.45
796.3864	178.8825	65535	64842.3
796.5284	181.1206	65535	64839.15
796.6704	183.3582	65535	64833.95
796.8124	185.5954	65535	64836.3
796.9544	187.832	65535	64832.65
797.0965	190.0681	65535	64829.2
797.2386	192.3037	65535	64826.25
797.3806	194.5388	65535	64823.05
797.5228	196.7734	65535	64820.8
797.6649	199.0075	65535	64818.35
797.807	201.2411	65535	64818.3
797.9492	203.4742	65535	64815.9
798.0914	205.7068	65535	64814.2
798.2336	207.9389	65535	64811.45
798.3758	210.1704	65535	64810.15
798.518	212.4015	65535	64815.95
798.6603	214.632	65535	64822.9
798.8025	216.862	65535	64830.35
798.9448	219.0915	65535	64831.3
799.0871	221.3205	65535	64828.45
799.2294	223.549	65535	64832.45
799.3718	225.777	65535	64832.65
799.5141	228.0044	65535	64824.7
799.6565	230.2314	65535	64828.3
799.7989	232.4578	65535	64823.2
799.9413	234.6837	65535	64815.35
800.0837	236.909	65535	64817.25
800.2262	239.1339	65535	64789.2
800.3687	241.3582	65535	64801.65
800.5111	243.582	65535	64772.55
800.6536	245.8053	65535	64787.3
800.7961	248.0281	65535	64791.7
800.9387	250.2503	65535	64783.45
801.0812	252.472	65535	64782.9
801.2238	254.6932	65535	64782.95
801.3664	256.9139	65535	64783.25
801.509	259.134	65535	64776.7
801.6516	261.3536	65535	64780.35
801.7942	263.5727	65535	64780.1
801.9369	265.7912	65535	64782.1
802.0795	268.0092	65535	64779.45
802.2222	270.2267	65535	64776.2
802.3649	272.4436	65535	64775.75
802.5076	274.6601	65535	64771.3
802.6504	276.8759	65535	64772.55
802.7931	279.0913	65535	64769.7
802.9359	281.3061	65535	64772.5
803.0787	283.5204	65535	64765.95
803.2215	285.7341	65535	64763.85
803.3643	287.9473	65535	64752.35
803.5071	290.16	65535	64757.75
803.6499	292.3721	65535	64764.65
803.7928	294.5837	65535	64762.6
803.9357	296.7947	65535	64760.75
804.0786	299.0052	65535	64762.7
804.2215	301.2152	65535	64762.5
804.3644	303.4246	65535	64763.15
804.5074	305.6334	65535	64762.05
804.6503	307.8418	65535	64759.25
804.7933	310.0495	65535	64757.6
804.9363	312.2568	65535	64756.6
805.0793	314.4635	65535	64754.75
805.2223	316.6696	65535	64753.7
805.3653	318.8752	65535	64747.95
805.5084	321.0802	65535	64750.55
805.6514	323.2847	65535	64753.3
805.7945	325.4887	65535	64752.4
805.9376	327.692	65535	64750.25
806.0807	329.8949	65535	64747.8
806.2238	332.0972	65535	64746.6
806.367	334.2989	65535	64740.8
806.5101	336.5001	65535	64745.25
806.6533	338.7007	65535	64741.8
806.7965	340.9008	65535	64739.45
806.9397	343.1003	65535	64742.75
807.0829	345.2992	65535	64738.75
807.2261	347.4976	65535	64738.3
807.3693	349.6955	65535	64732.8
807.5126	351.8927	65535	64733.25
807.6559	354.0895	65535	64725.15
807.7991	356.2856	65535	64728.25
807.9424	358.4812	65535	64733.25
808.0857	360.6763	65535	64726.7
808.2291	362.8707	65535	64729.65
808.3724	365.0646	65535	64723.55
808.5158	367.258	65535	64722.85
808.6591	369.4508	65535	64718.75
808.8025	371.643	65535	64719.85
808.9459	373.8346	65535	64718.6
809.0893	376.0257	65535	64713.25
809.2327	378.2162	65535	64714.45
809.3762	380.4062	65535	64710.75
809.5196	382.5956	65535	64716.6
809.6631	384.7844	65535	64717.9
809.8066	386.9726	65535	64716.85
809.9501	389.1603	65535	64719.9
810.0936	391.3474	65535	64678.55
810.2371	393.5339	65535	64719.15
810.3806	395.7199	65535	64723.7
810.5241	397.9052	65535	64726.05
810.6677	400.09	65535	64721.55
810.8113	402.2743	65535	64723.25
810.9548	404.4579	65535	64722.35
811.0984	406.641	65535	64720.4
811.2421	408.8235	65535	64715.65
811.3857	411.0054	65535	64716.15
811.5293	413.1868	65535	64715.95
811.673	415.3675	65535	64712.55
811.8166	417.5477	65535	64712.7
811.9603	419.7273	65535	64711.7
812.104	421.9064	65535	64702.25
812.2477	424.0848	65535	64702.9
812.3914	426.2627	65535	64704.65
812.5351	428.4399	65535	64701.25
812.6788	430.6166	65535	64701.65
812.8226	432.7928	65535	64700.75
812.9663	434.9683	65535	64698.4
813.1101	437.1432	65535	64698.4
813.2539	439.3176	65535	64697.75
813.3977	441.4914	65535	64699.95
813.5415	443.6645	65535	64700.1
813.6853	445.8371	65535	64698.2
813.8291	448.0091	65535	64699.3
813.973	450.1806	65535	64698.65
814.1168	452.3514	65535	64694.85
814.2607	454.5216	65535	64686.35
814.4046	456.6913	65535	64694.9
814.5485	458.8603	65535	64697.3
814.6924	461.0288	65535	64693.85
814.8363	463.1967	65535	64696.5
814.9802	465.3639	65535	64692.4
815.1241	467.5306	65535	64692.95
815.2681	469.6967	65535	64692.1
815.412	471.8622	65535	64693.5
815.556	474.0271	65535	64690.85
815.7	476.1914	65535	64690.5
815.844	478.3551	65535	64690.85
815.988	480.5182	65535	64691.35
816.132	482.6807	65535	64692.7
816.276	484.8426	65535	64693.65
816.4201	487.0039	65535	64687.6
816.5641	489.1647	65535	64689.95
816.7082	491.3248	65535	64687.85
816.8522	493.4843	65535	64686.4
816.9963	495.6432	65535	64689.6
817.1404	497.8015	65535	64685.75
817.2845	499.9592	65535	64683.75
817.4286	502.1163	65535	64686.45
817.5727	504.2728	65535	64685.25
817.7168	506.4287	65535	64684.25
817.861	508.5839	65535	64684.5
818.0051	510.7386	65535	64684.8
818.1493	512.8927	65535	64681.25
818.2935	515.0461	65535	64680.75
818.4377	517.199	65535	64682.6
818.5818	519.3512	65535	64682.95
818.726	521.5029	65535	64674.3
818.8703	523.6539	65535	64679.95
819.0145	525.8043	65535	64677.5
819.1587	527.9541	65535	64678.1
819.303	530.1033	65535	64678.8
819.4472	532.2519	65535	64677.3
819.5915	534.3999	65535	64672.5
819.7357	536.5472	65535	64678.35
819.88	538.694	65535	64678.6
820.0243	540.8401	65535	64674.25
820.1686	542.9856	65535	64669.65
820.3129	545.1305	65535	64675.45
820.4572	547.2748	65535	64670.7
820.6016	549.4185	65535	64670.4
820.7459	551.5615	65535	64669.8
820.8902	553.704	65535	64669.75
821.0346	555.8458	65535	64673.9
821.1789	557.987	65535	64676.05
821.3233	560.1276	65535	64671.35
821.4677	562.2675	65535	64672.6
821.6121	564.4069	65535	64676.05
821.7565	566.5456	65535	64675.6
821.9009	568.6837	65535	64670
822.0453	570.8212	65535	64672.5
822.1897	572.958	65535	64671.15
822.3342	575.0942	65535	64670.55
822.4786	577.2299	65535	64670.55
822.6231	579.3648	65535	64671.75
822.7675	581.4992	65535	64672.5
822.912	583.6329	65535	64672.65
823.0565	585.766	65535	64674.35
823.201	587.8985	65535	64674
823.3454	590.0304	65535	64645.15
823.4899	592.1616	65535	64668.4
823.6345	594.2922	65535	64665.85
823.779	596.4222	65535	64665.55
823.9235	598.5515	65535	64663.85
824.068	600.6802	65535	64668
824.2126	602.8083	65535	64669
824.3571	604.9358	65535	64669.15
824.5017	607.0626	65535	64666.85
824.6462	609.1888	65535	64661.75
824.7908	611.3144	65535	64664.85
824.9354	613.4393	65535	64665.6
825.08	615.5636	65535	64663.25
825.2246	617.6873	65535	64665.65
825.3692	619.8103	65535	64663.6
825.5138	621.9327	65535	64663
825.6584	624.0544	65535	64667.7
825.803	626.1756	65535	64663.5
825.9477	628.2961	65535	64664.8
826.0923	630.4159	65535	64662.65
826.237	632.5351	65535	64666
826.3816	634.6537	65535	64660
826.5263	636.7716	65535	64658.4
826.6709	638.8889	65535	64661.05
826.8156	641.0056	65535	64659.05
826.9603	643.1216	65535	64657.45
827.105	645.237	65535	64657.05
827.2497	647.3518	65535	64657.1
827.3944	649.4659	65535	64658.4
827.5391	651.5793	65535	64662.3
827.6838	653.6922	65535	64659.15
827.8285	655.8043	65535	64660.25
827.9733	657.9159	65535	64660.35
828.118	660.0268	65535	64655.05
828.2627	662.137	65535	64657.5
828.4075	664.2466	65535	64655.75
828.5522	666.3556	65535	64654.25
828.697	668.4639	65535	64657.5
828.8418	670.5716	65535	64658.8
828.9865	672.6786	65535	64655.15
829.1313	674.785	65535	64651.65
829.2761	676.8907	65535	64657.85
829.4209	678.9958	65535	64656.2
829.5657	681.1002	65535	64657
829.7105	683.204	65535	64651.2
829.8553	685.3072	65535	64653.25
830.0001	687.4097	65535	64653.95
830.1449	689.5115	65535	64652.2
830.2898	691.6127	65535	64655.6
830.4346	693.7132	65535	64653.85
830.5794	695.8131	65535	64647.2
830.7243	697.9123	65535	64650.15
830.8691	700.0109	65535	64653.5
831.014	702.1089	65535	64654.95
831.1588	704.2061	65535	64652.4
831.3037	706.3028	65535	64649.4
831.4486	708.3987	65535	64651.45
831.5935	710.4941	65535	64652.5
831.7383	712.5887	65535	64649.4
831.8832	714.6827	65535	64645.4
832.0281	716.7761	65535	64649.6
832.173	718.8688	65535	64649.8
832.3179	720.9608	65535	64649.8
832.4628	723.0522	65535	64645.7
832.6077	725.1429	65535	64648.7
832.7527	727.233	65535	64649.1
832.8976	729.3224	65535	64651.15
833.0425	731.4112	65535	64646.3
833.1874	733.4993	65535	64645.85
833.3324	735.5867	65535	64650.15
833.4773	737.6735	65535	64645.25
833.6222	739.7596	65535	64646.6
833.7672	741.845	65535	64647.65
833.9122	743.9298	65535	64646.6
834.0571	746.014	65535	64649.95
834.2021	748.0974	65535	64646.2
834.347	750.1802	65535	64646.55
834.492	752.2624	65535	64647.3
834.637	754.3439	65535	64644.2
834.782	756.4247	65535	64638.55
834.9269	758.5048	65535	64643.7
835.0719	760.5843	65535	64645.8
835.2169	762.6631	65535	64643.15
835.3619	764.7413	65535	64648.95
835.5069	766.8188	65535	64645
835.6519	768.8956	65535	64645.15
835.7969	770.9718	65535	64647.3
835.9419	773.0473	65535	64644.55
836.0869	775.1221	65535	64646.9
836.232	777.1962	65535	64645
836.377	779.2697	65535	64642.95
836.522	781.3426	65535	64628.25
836.667	783.4147	65535	64644.45
836.8121	785.4862	65535	64644.25
836.9571	787.557	65535	64642.95
837.1021	789.6271	65535	64643.7
837.2472	791.6966	65535	64645.85
837.3922	793.7654	65535	64645.15
837.5373	795.8335	65535	64646.6
837.6823	797.901	65535	64644.75
837.8274	799.9678	65535	64641.9
837.9724	802.0339	65535	64646.5
838.1175	804.0993	65535	64635.45
838.2626	806.1641	65535	64643.75
838.4076	808.2282	65535	64644
838.5527	810.2916	65535	64643.15
838.6978	812.3544	65535	64646.1
838.8428	814.4164	65535	64647.75
838.9879	816.4778	65535	64641.55
839.133	818.5385	65535	64644.5
839.2781	820.5986	65535	64643.15
839.4232	822.658	65535	64641.65
839.5682	824.7166	65535	64643.95
839.7133	826.7747	65535	64644.4
839.8584	828.832	65535	64641.05
840.0035	830.8886	65535	64639.35
840.1486	832.9446	65535	64641.2
840.2937	834.9999	65535	64645.55
840.4388	837.0545	65535	64637.35
840.5839	839.1085	65535	64640.9
840.729	841.1618	65535	64636.4
840.8741	843.2143	65535	64643.3
841.0192	845.2662	65535	64643.35
841.1643	847.3175	65535	64642.5
841.3095	849.368	65535	64643.05
841.4546	851.4179	65535	64640.7
841.5997	853.467	65535	64640.3
841.7448	855.5155	65535	64641.35
841.8899	857.5633	65535	64639.95
842.0351	859.6105	65535	64641.8
842.1802	861.6569	65535	64642
842.3253	863.7027	65535	64638.9
842.4704	865.7478	65535	64642.5
842.6156	867.7922	65535	64638.5
842.7607	869.8359	65535	64641.65
842.9058	871.8789	65535	64639.65
843.0509	873.9212	65535	64609.3
843.1961	875.9629	65535	64640.3
843.3412	878.0039	65535	64641.7
843.4863	880.0441	65535	64641.4
843.6315	882.0837	65535	64641.6
843.7766	884.1226	65535	64639.35
843.9218	886.1609	65535	64642.7
844.0669	888.1984	65535	64641.05
844.212	890.2352	65535	64640.6
844.3572	892.2714	65535	64634.8
844.5023	894.3069	65535	64636.95
844.6475	896.3416	65535	64641.45
844.7926	898.3757	65535	64638.65
844.9377	900.4091	65535	64641.75
845.0829	902.4418	65535	64636
845.228	904.4739	65535	64638.4
845.3732	906.5052	65535	64637.6
845.5183	908.5358	65535	64640.05
845.6635	910.5658	65535	64636.65
845.8086	912.595	65535	64641.5
845.9538	914.6236	65535	64639.85
846.0989	916.6515	65535	64643.15
846.2441	918.6786	65535	64639.2
846.3892	920.7051	65535	64638.1
846.5344	922.7309	65535	64638.65
846.6795	924.756	65535	64635.9
846.8246	926.7804	65535	64635.2
846.9698	928.8041	65535	64631.1
847.1149	930.8272	65535	64637.3
847.2601	932.8495	65535	64637.45
847.4052	934.8711	65535	64635.2
847.5504	936.892	65535	64638.05
847.6955	938.9123	65535	64636.35
847.8407	940.9318	65535	64636.9
847.9858	942.9506	65535	64640
848.131	944.9688	65535	64637.95
848.2761	946.9862	65535	64637.8
848.4213	949.003	65535	64637.8
848.5664	951.019	65535	64636.5
848.7115	953.0344	65535	64638.1
848.8567	955.0491	65535	64635.35
849.0018	957.063	65535	64637.7
849.147	959.0763	65535	64639.25
849.2921	961.0888	65535	64637.15
849.4373	963.1007	65535	64639
849.5824	965.1119	65535	64637.9
849.7275	967.1223	65535	64638.05
849.8727	969.1321	65535	64640.15
850.0178	971.1412	65535	64639.5
850.1629	973.1495	65535	64637.75
850.3081	975.1572	65535	64607.05
850.4532	977.1641	65535	64637.85
850.5983	979.1704	65535	64638.4
850.7435	981.1759	65535	64634.8
850.8886	983.1808	65535	64635.55
851.0337	985.1849	65535	64627.15
851.1788	987.1884	65535	64633.35
851.324	989.1911	65535	64636.05
851.4691	991.1932	65535	64636.3
851.6142	993.1945	65535	64637.15
851.7593	995.1951	65535	64636.3
851.9045	997.1951	65535	64633.1
852.0496	999.1943	65535	64638.1
852.1947	1001.1928	65535	64636
852.3398	1003.1906	65535	64635.35
852.4849	1005.1877	65535	64634.7
852.63	1007.1841	65535	64635
852.7751	1009.1798	65535	64635.15
852.9202	1011.1748	65535	64635.7
853.0653	1013.1691	65535	64635.75
853.2104	1015.1627	65535	64636.1
853.3555	1017.1556	65535	64636.35
853.5006	1019.1477	65535	64635.35
853.6457	1021.1392	65535	64638.9
853.7908	1023.1299	65535	64636.4
853.9359	1025.12	65535	64637.3
854.081	1027.1093	65535	64641.3
854.2261	1029.0979	65535	64640.8
854.3712	1031.0859	65535	64641.5
854.5163	1033.0731	65535	64637.55
854.6613	1035.0596	65535	64639.65
854.8064	1037.0454	65535	64639.25
854.9515	1039.0304	65535	64638.75
855.0965	1041.0148	65535	64637.95
855.2416	1042.9985	65535	64636.6
855.3867	1044.9814	65535	64638.65
855.5317	1046.9636	65535	64635.6
855.6768	1048.9452	65535	64639.5
855.8219	1050.926	65535	64638.35
855.9669	1052.9061	65535	64638.75
856.112	1054.8855	65535	64637.1
856.257	1056.8642	65535	64637.05
856.4021	1058.8421	65535	64635.8
856.5471	1060.8194	65535	64636.6
856.6921	1062.7959	65535	64635.4
856.8372	1064.7717	65535	64634.35
856.9822	1066.7469	65535	64635.6
857.1272	1068.7213	65535	64634
857.2723	1070.695	65535	64639.35
857.4173	1072.6679	65535	64637.75
857.5623	1074.6402	65535	64637.85
857.7073	1076.6117	65535	64631.85
857.8523	1078.5826	65535	64636.75
857.9973	1080.5527	65535	64633.6
858.1423	1082.5221	65535	64637.5
858.2873	1084.4908	65535	64635.9
858.4323	1086.4587	65535	64635.55
858.5773	1088.426	65535	64637
858.7223	1090.3925	65535	64632.95
858.8673	1092.3584	65535	64636.15
859.0123	1094.3235	65535	64637.8
859.1573	1096.2879	65535	64636.85
859.3022	1098.2515	65535	64639.65
859.4472	1100.2145	65535	64635.95
859.5922	1102.1767	65535	64637
859.7371	1104.1382	65535	64633.9
859.8821	1106.099	65535	64634.9
860.027	1108.0591	65535	64636.35
860.172	1110.0185	65535	64636.9
860.3169	1111.9771	65535	64636.7
860.4619	1113.9351	65535	64637.65
860.6068	1115.8923	65535	64637.35
860.7517	1117.8488	65535	64636.55
860.8967	1119.8045	65535	64635.45
861.0416	1121.7596	65535	64635.2
861.1865	1123.7139	65535	64637.6
861.3314	1125.6675	65535	64636.4
861.4763	1127.6204	65535	64636.25
861.6212	1129.5726	65535	64634.75
861.7661	1131.524	65535	64638.55
861.911	1133.4748	65535	64636.1
862.0559	1135.4248	65535	64634.05
862.2008	1137.3741	65535	64634.65
862.3457	1139.3226	65535	64634.95
862.4905	1141.2705	65535	64635.2
862.6354	1143.2176	65535	64629
862.7803	1145.164	65535	64631.35
862.9251	1147.1097	65535	64637.05
863.07	1149.0546	65535	64634.05
863.2148	1150.9989	65535	64638.8
863.3597	1152.9424	65535	64636.6
863.5045	1154.8852	65535	64636.05
863.6493	1156.8272	65535	64638.2
863.7942	1158.7686	65535	64628.75
863.939	1160.7092	65535	64635.85
864.0838	1162.6491	65535	64636.55
864.2286	1164.5883	65535	64637.45
864.3734	1166.5267	65535	64636.05
864.5182	1168.4644	65535	64635.2
864.663	1170.4014	65535	64633
864.8078	1172.3377	65535	64633.2
864.9526	1174.2732	65535	64635.5
865.0974	1176.2081	65535	64635.85
865.2421	1178.1421	65535	64633.15
865.3869	1180.0755	65535	64636.15
865.5317	1182.0082	65535	64636.15
865.6764	1183.9401	65535	64638.15
865.8212	1185.8713	65535	64637.35
865.9659	1187.8017	65535	64636.2
866.1106	1189.7315	65535	64637.85
866.2554	1191.6605	65535	64608.25
866.4001	1193.5888	65535	64637.65
866.5448	1195.5163	65535	64635.9
866.6895	1197.4432	65535	64635.9
866.8342	1199.3693	65535	64637.7
866.9789	1201.2947	65535	64633.95
867.1236	1203.2193	65535	64638.05
867.2683	1205.1432	65535	64638.05
867.413	1207.0664	65535	64637.7
867.5576	1208.9889	65535	64632.1
867.7023	1210.9106	65535	64636.9
867.847	1212.8316	65535	64638.85
867.9916	1214.7519	65535	64627.05
868.1363	1216.6715	65535	64639.1
868.2809	1218.5903	65535	64637.9
868.4255	1220.5084	65535	64638.05
868.5701	1222.4257	65535	64638.55
868.7148	1224.3424	65535	64639.35
868.8594	1226.2583	65535	64633.15
869.004	1228.1735	65535	64635.55
869.1486	1230.0879	65535	64636.9
869.2932	1232.0016	65535	64638.6
869.4377	1233.9146	65535	64635.55
869.5823	1235.8269	65535	64636.8
869.7269	1237.7384	65535	64636.6
869.8715	1239.6492	65535	64636.6
870.016	1241.5592	65535	64636.95
870.1606	1243.4686	65535	64638.7
870.3051	1245.3772	65535	64637.05
870.4496	1247.285	65535	64634.6
870.5941	1249.1922	65535	64635.35
870.7387	1251.0986	65535	64637.1
870.8832	1253.0042	65535	64635.6
871.0277	1254.9092	65535	64636.3
871.1722	1256.8134	65535	64636.55
871.3167	1258.7169	65535	64635.45
871.4611	1260.6196	65535	64639.15
871.6056	1262.5216	65535	64635.2
871.7501	1264.4229	65535	64638.5
871.8945	1266.3234	65535	64639.1
872.039	1268.2232	65535	64637.45
872.1834	1270.1223	65535	64636.15
872.3278	1272.0207	65535	64635.4
872.4723	1273.9183	65535	64630.2
872.6167	1275.8151	65535	64638.45
872.7611	1277.7113	65535	64636.9
872.9055	1279.6067	65535	64639.1
873.0499	1281.5014	65535	64636.7
873.1943	1283.3953	65535	64634.9
873.3386	1285.2885	65535	64637.25
873.483	1287.181	65535	64632.95
873.6274	1289.0727	65535	64638.75
873.7717	1290.9637	65535	64636.85
873.9161	1292.854	65535	64635.8
874.0604	1294.7435	65535	64637.8
874.2047	1296.6323	65535	64636.15
874.349	1298.5204	65535	64633.05
874.4933	1300.4077	65535	64637.1
874.6376	1302.2943	65535	64637.15
874.7819	1304.1802	65535	64638.95
874.9262	1306.0653	65535	64635.15
875.0705	1307.9497	65535	64633.7
875.2147	1309.8333	65535	64637.55
875.359	1311.7162	65535	64636.8
875.5032	1313.5984	65535	64634.35
875.6475	1315.4798	65535	64634.4
875.7917	1317.3605	65535	64621.35
875.9359	1319.2405	65535	64634.5
876.0801	1321.1197	65535	64635.05
876.2243	1322.9982	65535	64630.95
876.3685	1324.876	65535	64636.1
876.5127	1326.753	65535	64633.05
876.6569	1328.6293	65535	64634.7
876.801	1330.5048	65535	64635
876.9452	1332.3796	65535	64639.85
877.0893	1334.2537	65535	64614
877.2335	1336.127	65535	64637.15
877.3776	1337.9996	65535	64637
877.5217	1339.8714	65535	64635.95
877.6658	1341.7426	65535	64591.65
877.8099	1343.6129	65535	64637.85
877.954	1345.4826	65535	64638.35
878.0981	1347.3515	65535	64634.2
878.2422	1349.2196	65535	64635.7
878.3862	1351.087	65535	64636.35
878.5303	1352.9537	65535	64634.6
878.6743	1354.8197	65535	64638.3
878.8184	1356.6849	65535	64637
878.9624	1358.5493	65535	64636.55
879.1064	1360.4131	65535	64636.2
879.2504	1362.276	65535	64636.25
879.3944	1364.1383	65535	64635
879.5384	1365.9998	65535	64629
879.6823	1367.8606	65535	64634.4
879.8263	1369.7206	65535	64635.3
879.9702	1371.5799	65535	64636
880.1142	1373.4384	65535	64637.05
880.2581	1375.2962	65535	64632.85
880.402	1377.1533	65535	64636.35
880.5459	1379.0096	65535	64636.05
880.6898	1380.8652	65535	64635.8
880.8337	1382.7201	65535	64637.35
880.9776	1384.5742	65535	64637.25
881.1215	1386.4275	65535	64635.35
881.2653	1388.2802	65535	64636.7
881.4092	1390.132	65535	64638.05
881.553	1391.9832	65535	64636.65
881.6968	1393.8336	65535	64636.25
881.8406	1395.6832	65535	64635.5
881.9844	1397.5322	65535	64637.5
882.1282	1399.3803	65535	64631.9
882.272	1401.2278	65535	64636
882.4158	1403.0745	65535	64637.15
882.5595	1404.9204	65535	64640.1
882.7033	1406.7656	65535	64637.15
882.847	1408.6101	65535	64637.55
882.9908	1410.4538	65535	64636.9
883.1345	1412.2968	65535	64639.4
883.2782	1414.139	65535	64638.5
883.4219	1415.9805	65535	64638.5
883.5656	1417.8213	65535	64628.45
883.7092	1419.6613	65535	64638.8
883.8529	1421.5006	65535	64637.35
883.9965	1423.3391	65535	64634.65
884.1402	1425.1769	65535	64636.3
884.2838	1427.0139	65535	64634.8
884.4274	1428.8502	65535	64635.2
884.571	1430.6858	65535	64637.05
884.7146	1432.5206	65535	64638.4
884.8582	1434.3547	65535	64638.2
885.0018	1436.188	65535	64636.6
885.1453	1438.0206	65535	64637.65
885.2889	1439.8524	65535	64633.95
885.4324	1441.6835	65535	64635
885.5759	1443.5139	65535	64633.2
885.7194	1445.3435	65535	64638.35
885.8629	1447.1724	65535	64638.3
886.0064	1449.0005	65535	64638.45
886.1499	1450.8279	65535	64637.3
886.2933	1452.6545	65535	64638.85
886.4368	1454.4804	65535	64636.95
886.5802	1456.3056	65535	64629.1
886.7237	1458.13	65535	64638.85
886.8671	1459.9536	65535	64637.1
887.0105	1461.7766	65535	64638.3
887.1539	1463.5987	65535	64637.05
887.2972	1465.4202	65535	64637.8
887.4406	1467.2409	65535	64636.8
887.584	1469.0608	65535	64638.2
887.7273	1470.88	65535	64638
887.8706	1472.6984	65535	64639.05
888.0139	1474.5161	65535	64633.85
888.1572	1476.3331	65535	64638.05
888.3005	1478.1493	65535	64637.85
888.4438	1479.9648	65535	64638.3
888.5871	1481.7795	65535	64637.45
888.7303	1483.5935	65535	64637.75
888.8736	1485.4067	65535	64640.05
889.0168	1487.2192	65535	64637.45
889.16	1489.031	65535	64634.7
889.3032	1490.842	65535	64639.3
889.4464	1492.6522	65535	64638.15
889.5896	1494.4618	65535	64635.65
889.7327	1496.2705	65535	64639.75
889.8759	1498.0785	65535	64636.65
890.019	1499.8858	65535	64638.6
890.1622	1501.6924	65535	64638.95
890.3053	1503.4981	65535	64638.65
890.4484	1505.3032	65535	64638.6
890.5914	1507.1075	65535	64638.4
890.7345	1508.911	65535	64639.9
890.8776	1510.7138	65535	64636.7
891.0206	1512.5159	65535	64639.2
891.1637	1514.3172	65535	64638.9
891.3067	1516.1178	65535	64639.45
891.4497	1517.9176	65535	64637.85
891.5927	1519.7166	65535	64636.75
891.7357	1521.515	65535	64631.95
891.8786	1523.3126	65535	64639.55
892.0216	1525.1094	65535	64637
892.1645	1526.9055	65535	64638.85
892.3074	1528.7008	65535	64638.5
892.4503	1530.4954	65535	64633.2
892.5932	1532.2893	65535	64639.2
892.7361	1534.0824	65535	64633
892.879	1535.8747	65535	64636.95
893.0218	1537.6663	65535	64638.3
893.1647	1539.4572	65535	64638.45
893.3075	1541.2473	65535	64639.6
893.4503	1543.0367	65535	64638.7
893.5931	1544.8253	65535	64635.15
893.7359	1546.6132	65535	64633.75
893.8787	1548.4003	65535	64632.25
894.0214	1550.1867	65535	64632.05
894.1642	1551.9723	65535	64633.4
894.3069	1553.7572	65535	64639.5
894.4496	1555.5414	65535	64637.6
894.5923	1557.3247	65535	64639
894.735	1559.1074	65535	64641.2
894.8777	1560.8893	65535	64639.35
895.0204	1562.6705	65535	64640.4
895.163	1564.4509	65535	64638.1
895.3056	1566.2305	65535	64642.35
895.4482	1568.0094	65535	64642.2
895.5908	1569.7876	65535	64639.45
895.7334	1571.565	65535	64639.3
895.876	1573.3417	65535	64639.1
896.0186	1575.1176	65535	64638.1
896.1611	1576.8928	65535	64641.3
896.3036	1578.6672	65535	64642.85
896.4461	1580.4409	65535	64642.35
896.5886	1582.2138	65535	64638.2
896.7311	1583.986	65535	64639.85
896.8736	1585.7575	65535	64640.85
897.0161	1587.5282	65535	64643.55
897.1585	1589.2981	65535	64641.3
897.3009	1591.0673	65535	64640.55
897.4433	1592.8358	65535	64644.25
897.5857	1594.6035	65535	64638.85
897.7281	1596.3704	65535	64639.85
897.8705	1598.1366	65535	64642.5
898.0128	1599.9021	65535	64643
898.1551	1601.6668	65535	64639.6
898.2975	1603.4308	65535	64639.05
898.4398	1605.194	65535	64637
898.5821	1606.9564	65535	64640.7
898.7243	1608.7182	65535	64640.1
898.8666	1610.4791	65535	64643.4
899.0088	1612.2394	65535	64643.1
899.1511	1613.9988	65535	64643.25
899.2933	1615.7576	65535	64643.4
899.4355	1617.5156	65535	64635.35
899.5776	1619.2728	65535	64642
899.7198	1621.0293	65535	64641.55
899.862	1622.785	65535	64639.1
900.0041	1624.54	65535	64638.15
900.1462	1626.2942	65535	64641.55
900.2883	1628.0477	65535	64639.3
900.4304	1629.8005	65535	64639.65
900.5725	1631.5525	65535	64643.15
900.7145	1633.3037	65535	64643.35
900.8566	1635.0542	65535	64642
900.9986	1636.804	65535	64639.9
901.1406	1638.553	65535	64554.35
901.2826	1640.3013	65535	64640.65
901.4245	1642.0488	65535	64640.5
901.5665	1643.7955	65535	64643.1
901.7085	1645.5416	65535	64641.25
901.8504	1647.2868	65535	64642.5
901.9923	1649.0313	65535	64643.4
902.1342	1650.7751	65535	64638
902.2761	1652.5181	65535	64642.55
902.4179	1654.2604	65535	64640.75
902.5598	1656.0019	65535	64643.9
902.7016	1657.7427	65535	64642
902.8434	1659.4828	65535	64642.4
902.9852	1661.222	65535	64642.85
903.127	1662.9606	65535	64642.3
903.2687	1664.6984	65535	64641.25
903.4105	1666.4354	65535	64643.2
903.5522	1668.1717	65535	64640.9
903.6939	1669.9072	65522.05	64629.05
903.8356	1671.642	65524.6	64628.75
903.9773	1673.3761	65519.65	64626.85
904.119	1675.1094	65517.35	64625
904.2606	1676.8419	65446.3	64553.25
904.4022	1678.5737	65493.5	64601.65
904.5439	1680.3048	65458.9	64567.2
904.6855	1682.0351	65422.8	64531.4
904.827	1683.7646	65402	64506.65
904.9686	1685.4934	65442.85	64551.45
905.1101	1687.2215	65204.5	64309.85
905.2517	1688.9488	65401.4	64508.8
905.3932	1690.6754	64985.3	64093.55
905.5347	1692.4012	65229.65	64336.9
905.6761	1694.1263	65316.8	64422.6
905.8176	1695.8506	65084.9	64192.4
905.9591	1697.5742	65106.1	64214.3
906.1005	1699.297	65063.75	64172.45
906.2419	1701.0191	65132.3	64240.3
906.3833	1702.7404	64843.3	63951.95
906.5246	1704.461	64757.9	63863.9
906.666	1706.1808	64952	64058.55
906.8073	1707.8999	64848.45	63955.2
906.9487	1709.6182	64793.8	63902.4
907.09	1711.3358	64749.35	63858.9
907.2313	1713.0527	64734.3	63844.55
907.3725	1714.7688	64741.8	63844.3
907.5138	1716.4841	64452.3	63559.7
907.655	1718.1987	64579.4	63684.65
907.7962	1719.9126	64508.6	63616.75
907.9374	1721.6257	64584.2	63689.95
908.0786	1723.338	64597.95	63705.75
908.2198	1725.0496	64232.8	63342.15
908.3609	1726.7605	64256.5	63365.1
908.502	1728.4706	64153.75	63260.6
908.6431	1730.18	64276.95	63385.5
908.7842	1731.8886	64153.3	63261.3
908.9253	1733.5964	64051	63155
909.0664	1735.3036	64203.55	63312
909.2074	1737.0099	64059.1	63166.9
909.3484	1738.7156	63916.1	63028.7
909.4894	1740.4204	63880	62987.35
909.6304	1742.1246	63965.8	63070.9
909.7714	1743.8279	63985.55	63094.85
909.9123	1745.5306	63929.15	63038.15
910.0532	1747.2325	63553.4	62662.4
910.1941	1748.9336	63573.2	62679.15
910.335	1750.634	63672.75	62780
910.4759	1752.3336	63789.75	62898.75
910.6168	1754.0325	63486.95	62597.95
910.7576	1755.7307	63727.1	62836.55
910.8984	1757.4281	63349.4	62457.55
911.0392	1759.1247	63635.55	62734.5
911.18	1760.8206	63157.35	62261.35
911.3208	1762.5158	63255.65	62360.85
911.4615	1764.2102	63353.5	62462.45
911.6022	1765.9039	63245.15	62356.05
911.7429	1767.5968	63111.55	62221.4
911.8836	1769.289	63018.85	62127.75
912.0243	1770.9804	63171.75	62280.2
912.1649	1772.6711	63032.45	62140.35
912.3056	1774.361	62865.65	61975.05
912.4462	1776.0502	62884.65	61992.3
912.5868	1777.7386	62268.55	61372.6
912.7274	1779.4263	62696.45	61804.7
912.8679	1781.1132	62639.45	61748.7
913.0084	1782.7994	62533.4	61643
913.149	1784.4849	62547	61656.9
913.2895	1786.1696	61615.1	60718.5
913.4299	1787.8535	62207.4	61316.55
913.5704	1789.5367	62320.6	61430.1
913.7108	1791.2192	61716.25	60828
913.8513	1792.9009	61235.65	60313.4
913.9917	1794.5818	61798.35	60905.1
914.132	1796.2621	61269.45	60380
914.2724	1797.9415	61370.65	60480.05
914.4128	1799.6202	61280.25	60389.2
914.5531	1801.2982	61262.7	60371
914.6934	1802.9755	60558.55	59666.2
914.8337	1804.6519	60382.45	59492.5
914.9739	1806.3277	61334.35	60443.8
915.1142	1808.0027	59876.65	58987.6
915.2544	1809.6769	60410.95	59520.7
915.3946	1811.3504	60512.15	59620.4
915.5348	1813.0231	59411.55	58520.45
915.675	1814.6951	60144.45	59253.6
915.8151	1816.3664	59639.05	58747.15
915.9553	1818.0369	59663.65	58773.05
916.0954	1819.7067	59377.05	58487.25
916.2355	1821.3757	59992.8	59101.45
916.3755	1823.044	59125.8	58235.4
916.5156	1824.7115	58715.45	57823.65
916.6556	1826.3783	58964.65	58074.75
916.7956	1828.0443	58998.65	58109.15
916.9356	1829.7096	58640.45	57749
917.0756	1831.3741	58010.55	57119.6
917.2155	1833.0379	58380.45	57489.8
917.3555	1834.701	58312.45	57420.2
917.4954	1836.3633	57813.35	56922.1
917.6353	1838.0248	58068.2	57176.7
917.7751	1839.6856	57864.55	56975.85
917.915	1841.3457	57389.85	56499.6
918.0548	1843.005	57954.55	57064.1
918.1946	1844.6636	57517.95	56630.1
918.3344	1846.3214	56834.45	55943
918.4742	1847.9785	57028.1	56138.05
918.6139	1849.6349	56992.1	56099.4
918.7537	1851.2904	57466.15	56565.75
918.8934	1852.9453	56576.9	55686.35
919.0331	1854.5994	56843.15	55951.7
919.1727	1856.2528	56855	55960
919.3124	1857.9054	56327.5	55436.8
919.452	1859.5572	56048.35	55160.95
919.5916	1861.2083	56287.1	55396.45
919.7312	1862.8587	56860.75	55970.85
919.8708	1864.5084	55503.85	54611.75
920.0103	1866.1572	55998.4	55109.4
920.1498	1867.8054	55271.85	54381.5
920.2893	1869.4528	55733.75	54841.75
920.4288	1871.0994	55085.35	54196.35
920.5683	1872.7453	55114.85	54225.45
920.7077	1874.3905	55287.05	54391.4
920.8471	1876.0349	54716.2	53825.85
920.9865	1877.6786	55063.6	54172.75
921.1259	1879.3215	54608.05	53717.25
921.2653	1880.9637	55022.85	54130.35
921.4046	1882.6051	54582.95	53692.95
921.5439	1884.2458	54288.15	53395.6
921.6832	1885.8858	54047.55	53155.6
921.8225	1887.525	54179.6	53289.65
921.9617	1889.1634	54022.7	53132.3
922.101	1890.8011	53731.55	52840.95
922.2402	1892.4381	53265.45	52375.25
922.3794	1894.0743	53779.1	52889.15
922.5185	1895.7098	53376.25	52486.3
922.6577	1897.3446	53035.65	52144
922.7968	1898.9786	53154.7	52259.1
922.9359	1900.6118	52894	52006.4
923.075	1902.2443	52516.35	51624.85
923.214	1903.8761	52752.7	51864.7
923.3531	1905.5071	52361.7	51470.85
923.4921	1907.1374	51833.7	50944.4
923.6311	1908.7669	52037.4	51148.25
923.77	1910.3957	52246.05	51355.7
923.909	1912.0237	51625.5	50736
924.0479	1913.651	51403.9	50513.35
924.1868	1915.2776	51272.35	50384.05
924.3257	1916.9034	51172.9	50283.5
924.4646	1918.5285	50900.95	50011.85
924.6034	1920.1528	50823.75	49932.35
924.7422	1921.7764	50667.7	49777.45
924.881	1923.3992	50582.8	49691.8
925.0198	1925.0213	50180.3	49290.85
925.1586	1926.6427	49835.9	48946.65
925.2973	1928.2633	49944.15	48976.45
925.436	1929.8832	49723.4	48832.45
925.5747	1931.5023	49489.55	48598.25
925.7134	1933.1207	49255.65	48365.05
925.852	1934.7383	49352.65	48461.55
925.9906	1936.3552	48986.55	48096.9
926.1292	1937.9714	48942.75	48053.1
926.2678	1939.5868	48866.55	47974.1
926.4064	1941.2015	48403.85	47514.95
926.5449	1942.8154	48233.1	47343.05
926.6834	1944.4286	48121.85	47232.1
926.8219	1946.041	47972.1	47063.6
926.9604	1947.6528	47666.5	46770.5
927.0988	1949.2637	47533.8	46643.15
927.2372	1950.8739	47384.5	46493.95
927.3756	1952.4834	47348.95	46459.1
927.514	1954.0921	47188.45	46297.95
927.6523	1955.7001	46999.1	46104.8
927.7907	1957.3074	46897.7	46008.8
927.929	1958.9139	46625.5	45736.65
928.0673	1960.5197	46565.15	45676.25
928.2055	1962.1247	46347.1	45456.45
928.3438	1963.729	46115.85	45226.8
928.482	1965.3325	45963.1	45049.2
928.6202	1966.9353	45840.2	44951.55
928.7584	1968.5374	45649.7	44760.05
928.8965	1970.1387	45542.25	44652.7
929.0346	1971.7393	45338.05	44448.3
929.1727	1973.3392	45214.4	44325.55
929.3108	1974.9383	44991.5	44101.95
929.4489	1976.5366	44811.2	43920.95
929.5869	1978.1342	44777.25	43886.6
929.7249	1979.7311	44693	43801.95
929.8629	1981.3273	44515.85	43626.25
930.0009	1982.9227	44335	43442.5
930.1388	1984.5173	44176.85	43288.6
930.2767	1986.1112	44020.2	43131.6
930.4146	1987.7044	43952.65	43064.05
930.5525	1989.2968	43740.55	42849.6
930.6904	1990.8885	43656.4	42765.3
930.8282	1992.4795	43515.65	42624.3
930.966	1994.0697	43352.5	42463.95
931.1038	1995.6592	43233.15	42344.25
931.2415	1997.2479	43045.05	42157.8
931.3793	1998.8359	42993.1	42104.15
931.517	2000.4232	42783.35	41894.75
931.6547	2002.0097	42678.2	41789.2
931.7923	2003.5955	42464.5	41573.25
931.93	2005.1805	42364.45	41473.6
932.0676	2006.7648	42265.5	41377.35
932.2052	2008.3484	42143.05	41251.8
932.3427	2009.9312	42155.05	41263.3
932.4803	2011.5133	41939.75	41051.9
932.6178	2013.0946	41810.05	40921.6
932.7553	2014.6752	41672.8	40786.75
932.8928	2016.2551	41535.7	40645.55
933.0302	2017.8342	41374.25	40487.35
933.1676	2019.4126	41198.65	40312.4
933.305	2020.9902	41010.8	40123.95
933.4424	2022.5672	40998.75	40108.55
933.5798	2024.1433	40852.3	39955.8
933.7171	2025.7188	40743.7	39855.95
933.8544	2027.2935	40614	39725.45
933.9917	2028.8674	40464.25	39576.1
934.129	2030.4406	40330.9	39443.1
934.2662	2032.0131	40160.15	39273.55
934.4034	2033.5849	39996.45	39099.95
934.5406	2035.1559	39913	39023.6
934.6778	2036.7261	39884.5	38996.25
934.8149	2038.2957	39799.4	38909.4
934.952	2039.8645	39679.75	38789.95
935.0891	2041.4325	39677.9	38787.9
935.2262	2042.9998	39474.7	38587.25
935.3632	2044.5664	39371.35	38481.75
935.5002	2046.1323	39219.1	38331.75
935.6372	2047.6974	39077.65	38189.25
935.7742	2049.2617	39009.95	38120.65
935.9111	2050.8254	38977.3	38083.5
936.048	2052.3883	38896.3	38004.65
936.1849	2053.9504	38725.4	37835.25
936.3218	2055.5118	38606.9	37718.15
936.4586	2057.0725	38398.7	37507.35
936.5955	2058.6325	38330.6	37441.7
936.7323	2060.1917	38241.15	37352.6
936.869	2061.7502	38128.35	37236.75
937.0058	2063.3079	37944.9	37055.1
937.1425	2064.8649	37823.05	36931.1
937.2792	2066.4212	37727.4	36838.8
937.4159	2067.9767	37572.8	36683.7
937.5525	2069.5315	37410.8	36522.1
937.6891	2071.0856	37224.2	36334.1
937.8257	2072.6389	37108.1	36218.7
937.9623	2074.1915	36941.05	36054.6
938.0989	2075.7433	36763.2	35872.3
938.2354	2077.2945	36725.2	35837.1
938.3719	2078.8448	36532.3	35640.95
938.5084	2080.3945	36460.4	35573.15
938.6448	2081.9434	36418.9	35531.05
938.7812	2083.4916	36286.75	35395.7
938.9176	2085.039	36147.65	35257.05
939.054	2086.5857	36066.8	35175.7
939.1903	2088.1317	36026.65	35137.3
939.3267	2089.677	35896.2	35007.4
939.463	2091.2215	35770.5	34882.9
939.5992	2092.7652	35663.05	34771.7
939.7355	2094.3083	35540.35	34651.2
939.8717	2095.8506	35465.3	34578.05
940.0079	2097.3921	35503.8	34614.75
940.1441	2098.933	35333.65	34443.95
940.2802	2100.4731	35188	34301.2
940.4163	2102.0124	35138.95	34243.7
940.5524	2103.5511	35054.85	34167.95
940.6885	2105.089	35014.8	34123.75
940.8245	2106.6261	34878.75	33990.35
940.9606	2108.1626	34825.3	33935.3
941.0965	2109.6983	34721.8	33804.95
941.2325	2111.2332	34619.3	33730.1
941.3684	2112.7675	34500.4	33610.25
941.5044	2114.301	34413.9	33523.05
941.6403	2115.8337	34371.3	33480.9
941.7761	2117.3657	34237.4	33347.5
941.912	2118.897	34184.6	33296.6
942.0478	2120.4276	34052.4	33158.35
942.1835	2121.9575	33863.55	32973.85
942.3193	2123.4866	33901.1	32998
942.455	2125.0149	33774.6	32884.2
942.5907	2126.5426	33547.15	32658.65
942.7264	2128.0695	33472.45	32583.75
942.8621	2129.5956	33400.65	32513.75
942.9977	2131.1211	33348.1	32456.25
943.1333	2132.6458	33271.9	32383.05
943.2689	2134.1698	33131.25	32242.3
943.4044	2135.693	33003.15	32112.1
943.54	2137.2155	32945.45	32053.5
943.6755	2138.7373	32904.05	32016.05
943.8109	2140.2584	32727.75	31840.65
943.9464	2141.7787	32673.2	31778.8
944.0818	2143.2983	32517.55	31630.15
944.2172	2144.8171	32344.45	31457.25
944.3526	2146.3353	32296.25	31407.1
944.4879	2147.8527	32101.05	31212.15
944.6232	2149.3693	32144.15	31254.15
944.7585	2150.8853	31958.65	31068.3
944.8938	2152.4005	31790.95	30899.65
945.029	2153.9149	31768	30877.75
945.1642	2155.4287	31684.85	30795.6
945.2994	2156.9417	31605.7	30716.55
945.4346	2158.454	31525.35	30634.55
945.5697	2159.9655	31426.5	30536.3
945.7048	2161.4764	31388.7	30501.55
945.8399	2162.9865	31253.75	30365.5
945.9749	2164.4958	31175.85	30285.75
946.1099	2166.0045	31071.25	30180.6
946.2449	2167.5124	31001	30111.1
946.3799	2169.0195	30948.4	30058.95
946.5148	2170.526	30879.1	29991.7
946.6498	2172.0317	30742.15	29854.65
946.7846	2173.5367	30617.8	29729.65
946.9195	2175.0409	30565.15	29677.95
947.0543	2176.5445	30539.05	29649.3
947.1891	2178.0473	30433.35	29544.1
947.3239	2179.5494	30257.8	29364.65
947.4587	2181.0507	30147.6	29256.4
947.5934	2182.5513	30074.05	29184.8
947.7281	2184.0512	30019.5	29131.6
947.8628	2185.5504	29935.65	29047.5
947.9974	2187.0488	29681.9	28793.8
948.132	2188.5465	29660.6	28774.05
948.2666	2190.0435	29551.55	28661.95
948.4012	2191.5397	29446.85	28558.9
948.5357	2193.0353	29367.4	28479.05
948.6702	2194.5301	29186.9	28295.55
948.8047	2196.0241	29132.85	28243.35
948.9392	2197.5175	29082.5	28193.95
949.0736	2199.0101	28932.8	28042.6
949.208	2200.502	28743.9	27855.4
949.3424	2201.9931	28664.15	27775.9
949.4767	2203.4835	28581.95	27692.7
949.611	2204.9733	28470.6	27576.25
949.7453	2206.4622	28425.9	27536
949.8796	2207.9505	28314.2	27423.9
950.0138	2209.438	28172.45	27283.05
950.148	2210.9248	28081.55	27193.6
950.2822	2212.4109	27990.2	27102.6
950.4164	2213.8962	27862.25	26970.05
950.5505	2215.3809	27803.1	26913.45
950.6846	2216.8648	27735.65	26846.8
950.8186	2218.3479	27661.95	26768.4
950.9527	2219.8304	27534.65	26642.25
951.0867	2221.3121	27410.95	26519.55
951.2207	2222.7931	27341.35	26453.15
951.3546	2224.2733	27215	26325
951.4886	2225.7529	27133.6	26243.15
951.6225	2227.2317	27007.55	26115.5
951.7563	2228.7098	26999.4	26109.7
951.8902	2230.1872	26862.4	25975.1
952.024	2231.6638	26833.15	25943.05
952.1578	2233.1397	26664.35	25770.2
952.2916	2234.6149	26652.4	25764.75
952.4253	2236.0894	26544.6	25655.85
952.559	2237.5632	26513.65	25624.95
952.6927	2239.0362	26327.25	25438.35
952.8263	2240.5085	26285	25397.2
952.9599	2241.9801	26159.45	25268.95
953.0935	2243.4509	26104.95	25216.85
953.2271	2244.921	26030.55	25141.45
953.3606	2246.3904	25894.8	25004.3
953.4941	2247.8591	25826.6	24938.85
953.6276	2249.3271	25740.25	24850.8
953.7611	2250.7943	25633.95	24744.05
953.8945	2252.2608	25534.65	24648.15
954.0279	2253.7266	25462.85	24573
954.1612	2255.1917	25385.7	24497.5
954.2946	2256.656	25279.5	24390.05
954.4279	2258.1197	25183	24294.75
954.5612	2259.5826	25128.65	24240.65
954.6944	2261.0447	25103.95	24215.05
954.8276	2262.5062	24983.8	24093.95
954.9608	2263.9669	24941.25	24051.2
955.094	2265.4269	24866.2	23978.55
955.2271	2266.8862	24742.15	23853.3
955.3602	2268.3448	24738.5	23849.45
955.4933	2269.8026	24694.05	23804.05
955.6264	2271.2598	24612.35	23724.9
955.7594	2272.7162	24527.3	23640.7
955.8924	2274.1719	24401.5	23512.8
956.0253	2275.6268	24350	23462.75
956.1583	2277.0811	24315	23424.7
956.2912	2278.5346	24223.95	23335.35
956.4241	2279.9874	24141.8	23253.6
956.5569	2281.4395	24108.75	23219
956.6897	2282.8908	24045.3	23151.85
956.8225	2284.3414	23982.8	23089.5
956.9553	2285.7914	23851.95	22962.65
957.088	2287.2406	23769.3	22880.45
957.2207	2288.689	23705.1	22816.45
957.3534	2290.1368	23612.65	22725.2
957.486	2291.5838	23529.85	22639.75
957.6186	2293.0302	23506.9	22619.25
957.7512	2294.4758	23354.2	22465.65
957.8838	2295.9206	23270.2	22379.45
958.0163	2297.3648	23252.9	22362.4
958.1488	2298.8082	23239.25	22351.5
958.2813	2300.251	23152.15	22265.1
958.4137	2301.693	23025.65	22135.15
958.5461	2303.1343	23035.4	22145.4
958.6785	2304.5748	22914.85	22026.75
958.8108	2306.0147	22833.95	21944.25
958.9432	2307.4538	22738.15	21846.4
959.0754	2308.8922	22672.2	21784.75
959.2077	2310.3299	22633.65	21744.6
959.3399	2311.7669	22583.65	21695.55
959.4721	2313.2031	22426.3	21539.5
959.6043	2314.6387	22360.55	21471.6
959.7365	2316.0735	22292.45	21405
959.8686	2317.5076	22233.65	21343.9
960.0006	2318.941	22153.3	21265.1
960.1327	2320.3737	22103.45	21214.6
960.2647	2321.8056	22047.55	21156.45
960.3967	2323.2369	21995.6	21106
960.5287	2324.6674	21900.35	21008.2
960.6606	2326.0972	21792.6	20902.35
960.7925	2327.5263	21719.65	20831.85
960.9244	2328.9547	21680.75	20789.9
961.0562	2330.3823	21626.95	20736.6
961.1881	2331.8092	21580.55	20689.4
961.3198	2333.2355	21481.25	20590.95
961.4516	2334.661	21489.25	20599.5
961.5833	2336.0858	21395.95	20505.15
961.715	2337.5098	21326.8	20436.2
961.8467	2338.9332	21266	20376.1
961.9783	2340.3558	21170	20279.5
962.1099	2341.7778	21115.4	20227.15
962.2415	2343.199	21002.75	20111.5
962.373	2344.6195	20953.65	20064.05
962.5045	2346.0393	20901.35	20011.45
962.636	2347.4583	20888.4	19999.8
962.7675	2348.8767	20805.1	19915.75
962.8989	2350.2943	20743.55	19854
963.0303	2351.7113	20711	19821.8
963.1617	2353.1275	20610.1	19720.55
963.293	2354.543	20590.45	19692.05
963.4243	2355.9578	20480.55	19591.75
963.5556	2357.3718	20353.05	19464.85
963.6868	2358.7852	20261.3	19369.6
963.818	2360.1978	20203.75	19314.2
963.9492	2361.6098	20154.95	19265.45
964.0803	2363.021	20085.1	19194.65
964.2114	2364.4315	20003	19114.7
964.3425	2365.8413	19994.5	19105.4
964.4736	2367.2504	19882.5	18993.9
964.6046	2368.6587	19782.25	18894.65
964.7356	2370.0664	19705.2	18817.05
964.8666	2371.4733	19644.35	18757.5
964.9975	2372.8795	19562.2	18675.4
965.1284	2374.285	19441.5	18551.95
965.2593	2375.6899	19387.4	18497.5
965.3901	2377.0939	19300.85	18412.4
965.5209	2378.4973	19206.6	18317.4
965.6517	2379.9	19177.5	18290.3
965.7825	2381.3019	19114.2	18226.2
965.9132	2382.7032	19034	18145.7
966.0439	2384.1037	19028.1	18141.65
966.1745	2385.5035	18938.15	18051.15
966.3051	2386.9027	18837.25	17948.35
966.4357	2388.3011	18807.8	17917.65
966.5663	2389.6987	18752.55	17863.1
966.6968	2391.0957	18681.8	17793.85
966.8273	2392.492	18606.95	17720.5
966.9578	2393.8876	18489.65	17600.45
967.0882	2395.2824	18412.05	17524
967.2186	2396.6765	18349.5	17461.9
967.349	2398.07	18257.55	17371.15
967.4793	2399.4627	18266.2	17377.8
967.6097	2400.8547	18189.35	17301.75
967.7399	2402.246	18100.5	17206.85
967.8702	2403.6366	17976.45	17083
968.0004	2405.0265	17910.05	17023.75
968.1306	2406.4156	17870.6	16976.65
968.2607	2407.8041	17760.8	16869
968.3909	2409.1918	17706.85	16814.5
968.521	2410.5789	17643	16752.25
968.651	2411.9652	17583.15	16693.75
968.781	2413.3508	17517.9	16630.6
968.911	2414.7358	17454.85	16564.75
969.041	2416.12	17389.45	16501.1
969.1709	2417.5035	17325.65	16436.9
969.3008	2418.8863	17275.3	16385.2
969.4307	2420.2684	17228.1	16338.85
969.5606	2421.6497	17144.85	16256.25
969.6904	2423.0304	17042.55	16154.75
969.8201	2424.4104	17005.7	16117.25
969.9499	2425.7896	16946.45	16056.5
970.0796	2427.1682	16896.6	16009
970.2093	2428.546	16844.1	15954.75
970.3389	2429.9232	16815.35	15927.2
970.4685	2431.2996	16768.45	15882.25
970.5981	2432.6753	16699.75	15812.2
970.7277	2434.0503	16667.8	15778.9
970.8572	2435.4246	16572.75	15686.25
970.9867	2436.7982	16525.1	15634.55
971.1161	2438.1711	16483.65	15595.1
971.2456	2439.5433	16446.6	15555.95
971.375	2440.9148	16359.6	15465.6
971.5043	2442.2856	16247.95	15360.7
971.6336	2443.6557	16201.9	15312.8
971.7629	2445.025	16170	15280.7
971.8922	2446.3937	16117.35	15228.8
972.0214	2447.7617	16055.1	15165.85
972.1506	2449.1289	16050.65	15164.4
972.2798	2450.4955	15977.85	15085.05
972.4089	2451.8613	15927.85	15040.15
972.538	2453.2265	15904.6	15016.35
972.6671	2454.5909	15846.4	14957.95
972.7961	2455.9546	15820.75	14931.1
972.9251	2457.3177	15704.05	14815.25
973.0541	2458.68	15688.2	14798.9
973.1831	2460.0416	15673.6	14786.5
973.312	2461.4025	15631.3	14738.55
973.4408	2462.7627	15604.05	14703.8
973.5697	2464.1222	15497.25	14610.15
973.6985	2465.4811	15476.9	14587.75
973.8273	2466.8392	15417.85	14529.1
973.956	2468.1966	15380.1	14490.3
974.0847	2469.5533	15362.25	14472.25
974.2134	2470.9093	15305.05	14415.75
974.3421	2472.2645	15253	14361.3
974.4707	2473.6191	15188.7	14300.1
974.5993	2474.973	15126.2	14238.55
974.7278	2476.3262	15113.75	14226.15
974.8563	2477.6787	15023.55	14135.1
974.9848	2479.0305	14942.2	14055
975.1132	2480.3816	14906.2	14016.45
975.2417	2481.7319	14839.9	13951.7
975.37	2483.0816	14765.35	13873.4
975.4984	2484.4306	14727	13836.45
975.6267	2485.7789	14682.7	13792.8
975.755	2487.1264	14614.6	13724.2
975.8833	2488.4733	14560	13672.85
976.0115	2489.8195	14515.4	13609.1
976.1397	2491.165	14453.1	13562.6
976.2678	2492.5097	14389.1	13497.5
976.3959	2493.8538	14340.35	13452.1
976.524	2495.1972	14242.15	13353.5
976.6521	2496.5398	14196.05	13306.8
976.7801	2497.8818	14178.25	13287.5
976.9081	2499.2231	14110.9	13221.4
977.036	2500.5637	14061.5	13171.7
977.164	2501.9035	14009.55	13119.65
977.2918	2503.2427	13965.2	13072.65
977.4197	2504.5812	13931.15	13044.75
977.5475	2505.919	13895.4	13005.4
977.6753	2507.256	13854.7	12965.65
977.8031	2508.5924	13784.05	12895.1
977.9308	2509.9281	13742.05	12847.9
978.0585	2511.2631	13678.45	12790.3
978.1861	2512.5974	13655.1	12766.3
978.3137	2513.9309	13605	12716.3
978.4413	2515.2638	13572.9	12659.05
978.5689	2516.596	13536.6	12648.55
978.6964	2517.9275	13451.45	12563.05
978.8239	2519.2583	13412.25	12522.4
978.9513	2520.5884	13334.75	12443.6
979.0788	2521.9178	13297.8	12407.95
979.2062	2523.2465	13255.5	12367.55
979.3335	2524.5745	13203.75	12318.15
979.4608	2525.9018	13189.75	12302.3
979.5881	2527.2284	13121.35	12234.45
979.7154	2528.5543	13076.55	12188.25
979.8426	2529.8796	13022.55	12133.65
979.9698	2531.2041	13004.65	12114.65
980.0969	2532.5279	13028.7	12141.55
980.224	2533.851	12935.1	12043.95
980.3511	2535.1735	12889.05	12000.85
980.4781	2536.4952	12843.85	11955.15
980.6052	2537.8163	12850.45	11961.2
980.7321	2539.1366	12806.7	11918.4
980.8591	2540.4562	12761.05	11872
980.986	2541.7752	12759.45	11873.45
981.1129	2543.0935	12715.45	11824.75
981.2397	2544.411	12687.15	11797.25
981.3665	2545.7279	12648.1	11759.95
981.4933	2547.0441	12626.15	11738.85
981.62	2548.3596	12589.1	11698.4
981.7467	2549.6744	12569.6	11681.6
981.8734	2550.9885	12534.25	11636.85
982.0001	2552.3019	12470.85	11584.4
982.1267	2553.6146	12465.4	11573.55
982.2532	2554.9266	12390.05	11502.9
982.3798	2556.2379	12357.65	11467.2
982.5063	2557.5485	12345.3	11458.45
982.6327	2558.8585	12294.75	11401.35
982.7592	2560.1677	12255.25	11361.65
982.8856	2561.4762	12250.85	11360.9
983.0119	2562.7841	12212.2	11321.2
983.1383	2564.0913	12192.85	11307.1
983.2646	2565.3977	12166	11279.05
983.3908	2566.7035	12119.55	11231.35
983.517	2568.0086	12080	11190.1
983.6432	2569.313	12107.6	11217.55
983.7694	2570.6167	12045.3	11153.65
983.8955	2571.9197	11990.15	11103.75
984.0216	2573.222	11996.55	11104.15
984.1476	2574.5236	11997.55	11108.25
984.2737	2575.8246	11903.5	11011.85
984.3996	2577.1248	11885	10994.55
984.5256	2578.4244	11861.05	10973.05
984.6515	2579.7232	11884.2	10995.7
984.7774	2581.0214	11854.8	10940.6
984.9032	2582.3189	11788.55	10900.4
985.029	2583.6157	11772.95	10878.8
985.1548	2584.9118	11742.6	10854.85
985.2806	2586.2072	11700.4	10811.65
985.4063	2587.5019	11663.45	10776.75
985.5319	2588.7959	11618.45	10730.35
985.6576	2590.0893	11612.1	10723.3
985.7832	2591.3819	11579.2	10690.65
985.9087	2592.6739	11514.8	10627.35
986.0343	2593.9652	11500.35	10609.65
986.1597	2595.2557	11451.5	10564.3
986.2852	2596.5456	11420.9	10527.3
986.4106	2597.8348	11380.95	10494.85
986.536	2599.1234	11317.1	10429.5
986.6614	2600.4112	11284.5	10396.05
986.7867	2601.6983	11239.85	10350.05
986.912	2602.9848	11190.2	10300.3
987.0372	2604.2705	11151	10253.25
987.1624	2605.5556	11133.8	10241.15
987.2876	2606.84	11093.8	10207.2
987.4128	2608.1237	11041.3	10151.45
987.5379	2609.4067	11026	10139.2
987.6629	2610.689	10972.1	10077.2
987.788	2611.9707	10924.15	10031.25
987.913	2613.2516	10891.5	9997.95
988.0379	2614.5319	10829.2	9941.3
988.1629	2615.8115	10804.15	9914.2
988.2878	2617.0903	10746.9	9857.3
988.4126	2618.3685	10740.95	9851.7
988.5375	2619.6461	10683.6	9794.15
988.6622	2620.9229	10642.35	9755.6
988.787	2622.199	10607.6	9718.4
988.9117	2623.4745	10582.65	9694.6
989.0364	2624.7493	10510.65	9623.3
989.161	2626.0234	10494.2	9606.3
989.2857	2627.2968	10452.55	9564.75
989.4102	2628.5695	10422.4	9532.7
989.5348	2629.8415	10352.5	9463.5
989.6593	2631.1128	10315.3	9423.6
989.7837	2632.3835	10284	9395.3
989.9082	2633.6535	10230.7	9343.75
990.0326	2634.9228	10225.2	9337.15
990.1569	2636.1914	10165.95	9278.15
990.2812	2637.4593	10162.6	9273.85
990.4055	2638.7265	10116.35	9228.3
990.5298	2639.9931	10075.35	9187.75
990.654	2641.259	10058.55	9168.2
990.7782	2642.5242	10036.5	9147.5
990.9023	2643.7887	9973.55	9084.95
991.0264	2645.0525	9967.4	9080.15
991.1505	2646.3156	9898.5	9008.7
991.2745	2647.5781	9893.05	9005.1
991.3985	2648.8398	9845.85	8958.2
991.5225	2650.1009	9821.1	8925.1
991.6464	2651.3613	9772.85	8883.8
991.7703	2652.6211	9756.8	8869.1
991.8942	2653.8801	9713.55	8827.3
992.018	2655.1385	9703.8	8812.95
992.1418	2656.3961	9661.5	8774
992.2655	2657.6531	9639.6	8753
992.3892	2658.9094	9609.3	8721.1
992.5129	2660.1651	9584.85	8696.25
992.6366	2661.42	9564.65	8675.35
992.7602	2662.6743	9543.5	8655.4
992.8837	2663.9279	9521	8632.95
993.0073	2665.1808	9503	8612.75
993.1307	2666.433	9457.3	8567.75
993.2542	2667.6846	9427.1	8538.45
993.3776	2668.9354	9405.95	8514.25
993.501	2670.1856	9358.15	8467.15
993.6244	2671.4351	9355.4	8467.25
993.7477	2672.6839	9334.95	8445.95
993.8709	2673.9321	9318.45	8430.4
993.9942	2675.1795	9268.9	8380.95
994.1174	2676.4263	9261.45	8372.1
994.2405	2677.6724	9201.55	8315.25
994.3637	2678.9179	9171.3	8281.65
994.4868	2680.1626	9176.3	8287.95
994.6098	2681.4067	9138.85	8249.5
994.7328	2682.6501	9102.45	8212.9
994.8558	2683.8928	9087.55	8199.55
994.9788	2685.1348	9035.05	8149.55
995.1017	2686.3761	8991.05	8102.65
995.2245	2687.6168	8970.9	8084.25
995.3474	2688.8568	8930.25	8041.45
995.4702	2690.0961	8914.65	8026.4
995.5929	2691.3348	8886.9	7999.75
995.7156	2692.5727	8849.25	7960.7
995.8383	2693.81	8822.35	7935.8
995.961	2695.0466	8807.85	7920.2
996.0836	2696.2826	8779.35	7888.8
996.2062	2697.5178	8755.95	7865.35
996.3287	2698.7524	8723.95	7833.35
996.4512	2699.9863	8708	7817.85
996.5737	2701.2195	8661.7	7774.2
996.6961	2702.452	8638.3	7747.65
996.8185	2703.6839	8618.1	7729.45
996.9408	2704.9151	8593.05	7706
997.0631	2706.1456	8554.65	7666.5
997.1854	2707.3755	8524	7636.6
997.3077	2708.6046	8513.5	7623.25
997.4299	2709.8331	8483.75	7594.6
997.552	2711.0609	8477.45	7588.3
997.6742	2712.2881	8435.1	7546.95
997.7963	2713.5145	8412.2	7520.7
997.9183	2714.7403	8392.25	7504.6
998.0403	2715.9654	8351.9	7463.95
998.1623	2717.1899	8339.2	7434.7
998.2842	2718.4136	8333.2	7444.95
998.4062	2719.6367	8309.55	7421.6
998.528	2720.8591	8310.1	7414.85
998.6498	2722.0809	8239.85	7349.3
998.7716	2723.3019	8229.05	7338.45
998.8934	2724.5223	8194.95	7306.8
999.0151	2725.7421	8177	7287.6
999.1368	2726.9611	8170.6	7279
999.2584	2728.1795	8141.35	7247.75
999.38	2729.3972	8110.9	7221.8
999.5016	2730.6142	8068.45	7168.05
999.6231	2731.8306	8017.85	7129.05
999.7446	2733.0462	7960.35	7071.15
999.8661	2734.2612	7927.35	7034.55
999.9875	2735.4756	7888.55	6998.55
1000.1089	2736.6892	7845.7	6955.1
1000.2302	2737.9022	7810.9	6923.55
1000.3515	2739.1145	7772.4	6883.25
1000.4728	2740.3262	7736.25	6841.15
1000.594	2741.5372	7687.95	6799.35
1000.7152	2742.7475	7659.15	6772.2
1000.8363	2743.9571	7634.85	6745.4
1000.9575	2745.1661	7600.6	6708
1001.0785	2746.3744	7565.3	6677.25
1001.1996	2747.582	7534.95	6645
1001.3206	2748.7889	7515.2	6625.95
1001.4415	2749.9952	7486.65	6598.6
1001.5625	2751.2008	7431.15	6542.6
1001.6833	2752.4057	7434.75	6543.75
1001.8042	2753.61	7401.5	6511.75
1001.925	2754.8136	7383.95	6494.95
1002.0458	2756.0165	7347.9	6460.45
1002.1665	2757.2188	7309.1	6421.15
1002.2872	2758.4204	7297.7	6410.65
1002.4078	2759.6213	7273.35	6382.7
1002.5285	2760.8215	7262.45	6368.55
1002.649	2762.0211	7227	6335.85
1002.7696	2763.22	7177.2	6285.7
1002.8901	2764.4182	7169.8	6280.2
1003.0106	2765.6158	7140.1	6251.65
1003.131	2766.8127	7137.9	6249.15
1003.2514	2768.009	7098.6	6210.8
1003.3717	2769.2045	7070.1	6181.8
1003.492	2770.3994	7056.25	6165.45
1003.6123	2771.5936	7023.65	6135.4
1003.7325	2772.7872	6982.15	6095.8
1003.8527	2773.9801	6955.9	6066.25
1003.9729	2775.1723	6955.1	6050.75
1004.093	2776.3639	6910.15	6023.1
1004.2131	2777.5548	6883.2	5993.8
1004.3331	2778.745	6869.75	5980.3
1004.4531	2779.9346	6851.5	5964.75
1004.5731	2781.1235	6854.35	5964.05
1004.693	2782.3117	6803.35	5915.7
1004.8129	2783.4992	6804.15	5919.2
1004.9328	2784.6861	6784.2	5896.75
1005.0526	2785.8723	6760.2	5871.05
1005.1723	2787.0579	6751.1	5863.9
1005.2921	2788.2428	6724.4	5835.05
1005.4118	2789.427	6703.55	5813.85
1005.5314	2790.6106	6708.6	5821.65
1005.651	2791.7935	6679.1	5790.2
1005.7706	2792.9757	6643.9	5756.8
1005.8902	2794.1573	6620.9	5731.95
1006.0097	2795.3382	6613.75	5725.95
1006.1291	2796.5184	6599.5	5715.05
1006.2485	2797.698	6606.45	5716.5
1006.3679	2798.8769	6596.05	5709.45
1006.4873	2800.0551	6598.25	5711.2
1006.6066	2801.2327	6560.9	5668.55
1006.7258	2802.4096	6561.9	5673.2
1006.8451	2803.5859	6557.65	5668.65
1006.9642	2804.7615	6564.35	5675.6
1007.0834	2805.9364	6561.55	5674.75
1007.2025	2807.1106	6560.7	5673.55
1007.3216	2808.2842	6561.05	5671.95
1007.4406	2809.4572	6584.45	5696.9
1007.5596	2810.6294	6592.35	5702.7
1007.6785	2811.801	6620.55	5735
1007.7975	2812.972	6623.35	5737.1
1007.9163	2814.1423	6634.35	5745.25
1008.0352	2815.3119	6690.7	5802.3
1008.154	2816.4808	6718.75	5832.05
1008.2727	2817.6491	6739.45	5850.65
1008.3914	2818.8167	6759.1	5873.3
1008.5101	2819.9837	6797.85	5906.9
1008.6288	2821.15	6818	5930.8
1008.7474	2822.3157	6838.1	5951.6
1008.8659	2823.4807	6869.75	5981.85
1008.9844	2824.645	6913.3	6024.4
1009.1029	2825.8086	6943.5	6056
1009.2214	2826.9716	6943.65	6055.35
1009.3398	2828.134	6980.6	6091.35
1009.4581	2829.2957	7005.45	6116.7
1009.5764	2830.4567	7029.05	6141.25
1009.6947	2831.617	7023.65	6137.9
1009.813	2832.7767	6997.1	6110.1
1009.9312	2833.9358	7019.2	6132.3
1010.0493	2835.0941	6986.85	6097.15
1010.1675	2836.2519	6962.95	6078.15
1010.2855	2837.4089	6927.45	6037.8
1010.4036	2838.5653	6904.9	6016.25
1010.5216	2839.7211	6901.7	6014.8
1010.6396	2840.8761	6877.75	5985.45
1010.7575	2842.0306	6886.2	6000.1
1010.8754	2843.1843	6908.25	6019.75
1010.9932	2844.3374	6937.75	6050.2
1011.111	2845.4899	6957.15	6068.65
1011.2288	2846.6417	7033.3	6146
1011.3465	2847.7928	7086.6	6200.75
1011.4642	2848.9433	7145.05	6256.65
1011.5818	2850.0931	7194.75	6306.7
1011.6995	2851.2422	7261.25	6370.9
1011.817	2852.3907	7306.45	6417.55
1011.9345	2853.5385	7363.05	6473.65
1012.052	2854.6857	7387.2	6471.55
1012.1695	2855.8323	7409.6	6521.35
1012.2869	2856.9781	7431.1	6545.25
1012.4042	2858.1233	7439.7	6552.65
1012.5216	2859.2679	7498.6	6611.1
1012.6389	2860.4118	7527.6	6639.95
1012.7561	2861.555	7536.8	6644.75
1012.8733	2862.6976	7558.75	6668.15
1012.9905	2863.8395	7559.7	6670.5
1013.1076	2864.9808	7579.3	6692.8
1013.2247	2866.1214	7583.6	6695.9
1013.3417	2867.2614	7563.5	6677.6
1013.4587	2868.4007	7574.3	6684.3
1013.5757	2869.5393	7556.05	6665.15
1013.6926	2870.6773	7539.85	6649.3
1013.8095	2871.8146	7551.75	6661.65
1013.9263	2872.9513	7509.9	6620.1
1014.0431	2874.0874	7474.6	6588.15
1014.1599	2875.2227	7455.8	6566.5
1014.2766	2876.3574	7443.85	6557.3
1014.3933	2877.4915	7399.85	6514.2
1014.51	2878.6249	7337.2	6449.05
1014.6266	2879.7577	7295.65	6406.7
1014.7431	2880.8898	7260.15	6361.9
1014.8596	2882.0212	7266.3	6379.25
1014.9761	2883.152	7204.5	6317.6
1015.0925	2884.2821	7177.75	6292.4
1015.2089	2885.4116	7147.25	6258.6
1015.3253	2886.5405	7135.85	6247.4
1015.4416	2887.6686	7116.7	6226.6
1015.5579	2888.7962	7116.8	6232.55
1015.6741	2889.923	7083.65	6196.8
1015.7903	2891.0493	7092.15	6205.25
1015.9065	2892.1748	7086.7	6198.85
1016.0226	2893.2997	7067.6	6178.5
1016.1387	2894.424	7060.3	6174.45
1016.2547	2895.5476	7056.15	6167
1016.3707	2896.6706	7067.9	6179.85
1016.4866	2897.7929	7093.8	6205
1016.6025	2898.9145	7100.25	6211.85
1016.7184	2900.0355	7100.1	6211.2
1016.8342	2901.1559	7096.15	6205.55
1016.95	2902.2756	7104.2	6216.8
1017.0658	2903.3946	7143.85	6256
1017.1815	2904.513	7154.9	6263.6
1017.2971	2905.6308	7147.95	6260.15
1017.4127	2906.7479	7167	6280.95
1017.5283	2907.8643	7182.7	6293.95
1017.6439	2908.9801	7166	6277.8
1017.7594	2910.0953	7151.7	6263.4
1017.8748	2911.2098	7130.3	6240.05
1017.9902	2912.3236	7106.25	6210.25
1018.1056	2913.4368	7084.25	6193.8
1018.2209	2914.5494	7054.25	6165.35
1018.3362	2915.6613	7012.35	6119.05
1018.4515	2916.7725	6963	6074
1018.5667	2917.8831	6960.4	6073.1
1018.6819	2918.9931	6905.9	6016.65
1018.797	2920.1024	6863.25	5974.65
1018.9121	2921.211	6838.05	5949.4
1019.0271	2922.319	6791.2	5903.45
1019.1421	2923.4264	6748.4	5859.65
1019.2571	2924.5331	6728.35	5842.55
1019.372	2925.6391	6712.3	5825.2
1019.4869	2926.7445	6696.7	5811.3
1019.6017	2927.8493	6660.35	5773.1
1019.7165	2928.9534	6667.05	5777
1019.8313	2930.0569	6642.75	5751.75
1019.946	2931.1597	6629.1	5740.5
1020.0606	2932.2619	6602	5714.25
1020.1753	2933.3634	6593.75	5707.25
1020.2899	2934.4643	6584.3	5689.95
1020.4044	2935.5645	6512.3	5618.5
1020.5189	2936.6641	6488.5	5597.8
1020.6334	2937.763	6430.2	5543.5
1020.7478	2938.8613	6380.5	5492.05
1020.8622	2939.959	6334.15	5442.55
1020.9765	2941.056	6236.75	5348.75
1021.0908	2942.1523	6157.75	5268.6
1021.2051	2943.248	6059.1	5170.25
1021.3193	2944.3431	5962.35	5077.95
1021.4334	2945.4375	5854.95	4964.4
1021.5476	2946.5313	5749.45	4863.7
1021.6617	2947.6244	5628	4740.5
1021.7757	2948.7169	5524.85	4635.5
1021.8897	2949.8087	5423.4	4536.55
1022.0037	2950.8999	5307.55	4419.95
1022.1176	2951.9904	5224.25	4336.05
1022.2315	2953.0803	5155.6	4267.6
1022.3453	2954.1696	5098.1	4211.75
1022.4591	2955.2582	5016.55	4129.4
1022.5728	2956.3462	4948.9	4060.45
1022.6865	2957.4335	4900.5	4010.5
1022.8002	2958.5202	4843.25	3953.5
1022.9138	2959.6062	4815.15	3926.9
1023.0274	2960.6916	4789.15	3902.25
1023.141	2961.7764	4745.2	3856.2
1023.2545	2962.8605	4721.3	3834.4
1023.3679	2963.9439	4679.55	3792.7
1023.4813	2965.0267	4665.5	3777.25
1023.5947	2966.1089	4663.65	3753.2
1023.708	2967.1905	4624.95	3737.1
1023.8213	2968.2714	4605.5	3719.55
1023.9346	2969.3516	4579.8	3694.1
1024.0478	2970.4312	4580.35	3685.45
1024.1609	2971.5102	4562.2	3674.7
1024.274	2972.5885	4557.3	3671.05
1024.3871	2973.6662	4557.15	3665.45
1024.5002	2974.7432	4528.95	3640.65
1024.6132	2975.8196	4516	3628.8
1024.7261	2976.8954	4492.5	3606.1
1024.839	2977.9705	4448.45	3561.35
1024.9519	2979.045	4434.3	3547.95
1025.0647	2980.1188	4410.45	3526.15
1025.1775	2981.192	4382.6	3496.05
1025.2902	2982.2645	4351.05	3461.05
1025.4029	2983.3364	4326.15	3440.35
1025.5156	2984.4077	4291.5	3404.1
1025.6282	2985.4783	4264.45	3370.35
1025.7407	2986.5483	4206.45	3319.3
1025.8532	2987.6177	4174.4	3287.95
1025.9657	2988.6864	4150.2	3260.35
1026.0782	2989.7545	4088.75	3200.85
1026.1906	2990.8219	4045.45	3157.55
1026.3029	2991.8887	3990.75	3101.9
1026.4152	2992.9548	3968.3	3080.2
1026.5275	2994.0204	3929.7	3043.05
1026.6397	2995.0852	3876.9	2990.35
1026.7519	2996.1495	3850.1	2961.65
1026.864	2997.2131	3818.75	2931.35
1026.9761	2998.276	3783.4	2896.45
1027.0882	2999.3383	3755.85	2867.8
1027.2002	3000.4	3729.15	2841.3
1027.3122	3001.4611	3717.65	2830.85
1027.4241	3002.5215	3690.3	2803
1027.536	3003.5812	3664.4	2777.55
1027.6478	3004.6404	3637.9	2751.25
1027.7596	3005.6989	3639.15	2749.25
1027.8714	3006.7567	3617.15	2730.3
1027.9831	3007.8139	3608.05	2696.85
1028.0947	3008.8705	3571.85	2684.05
1028.2064	3009.9264	3571.85	2680.55
1028.3179	3010.9818	3552.45	2664.5
1028.4295	3012.0364	3526.65	2639.8
1028.541	3013.0905	3519.1	2630.8
1028.6524	3014.1439	3510.95	2623.85
1028.7638	3015.1966	3496.1	2608.4
1028.8752	3016.2487	3488.85	2602.85
1028.9865	3017.3002	3470.35	2578.45
1029.0978	3018.3511	3470.75	2584.3
1029.209	3019.4013	3458.65	2571.35
1029.3202	3020.4509	3453.35	2567.85
1029.4314	3021.4998	3451.7	2565.4
1029.5425	3022.5481	3434.45	2546.7
1029.6535	3023.5958	3427.3	2539.85
1029.7645	3024.6428	3420.7	2532.25
1029.8755	3025.6892	3408.8	2519.25
1029.9864	3026.735	3397.65	2508.9
1030.0973	3027.7802	3402.45	2514
1030.2082	3028.8247	3377.8	2489.45
1030.319	3029.8685	3375.05	2487.35
1030.4297	3030.9118	3365.4	2477.05
1030.5404	3031.9544	3348.75	2463.5
1030.6511	3032.9963	3351.1	2464.45
1030.7617	3034.0376	3349	2464
1030.8723	3035.0783	3343.9	2455.3
1030.9829	3036.1184	3338.95	2450.75
1031.0934	3037.1578	3335.45	2449.55
1031.2038	3038.1966	3326.15	2435
1031.3142	3039.2348	3311.3	2425.05
1031.4246	3040.2723	3304.55	2410.65
1031.5349	3041.3092	3282.2	2395.6
1031.6452	3042.3455	3279.45	2391.4
1031.7554	3043.3811	3268.4	2380.55
1031.8656	3044.4161	3268.9	2381.3
1031.9758	3045.4505	3246.2	2358.85
1032.0859	3046.4842	3236.6	2347.45
1032.1959	3047.5173	3241.95	2355.65
1032.3059	3048.5498	3204.05	2316.15
1032.4159	3049.5816	3199.75	2312.9
1032.5258	3050.6128	3186.25	2297.9
1032.6357	3051.6434	3179.6	2290.7
1032.7455	3052.6734	3160.25	2273
1032.8553	3053.7027	3151.55	2263.4
1032.9651	3054.7314	3132.05	2244.75
1033.0748	3055.7594	3111.35	2223.75
1033.1845	3056.7868	3105.65	2217.8
1033.2941	3057.8136	3092.7	2206.85
1033.4037	3058.8398	3083.9	2198.45
1033.5132	3059.8653	3066.9	2179.75
1033.6227	3060.8902	3057	2170.2
1033.7321	3061.9145	3046.3	2158.7
1033.8415	3062.9381	3033.6	2148.35
1033.9509	3063.9612	3031.75	2127.55
1034.0602	3064.9835	3008.85	2119.3
1034.1694	3066.0053	2996.85	2108.9
1034.2787	3067.0264	2996.2	2111.7
1034.3878	3068.0469	2962.25	2075
1034.497	3069.0668	2957.85	2068.75
1034.6061	3070.086	2950.75	2064.9
1034.7151	3071.1046	2937.95	2050.65
1034.8241	3072.1226	2925	2036.25
1034.9331	3073.1399	2896.85	2010.8
1035.042	3074.1567	2879.95	1993.7
1035.1508	3075.1727	2875.2	1986.05
1035.2597	3076.1882	2843.95	1956.9
1035.3684	3077.203	2832.3	1946.45
1035.4772	3078.2173	2821.65	1931.7
1035.5859	3079.2308	2824.85	1934.6
1035.6945	3080.2438	2807.7	1918.8
1035.8031	3081.2561	2773.2	1885.45
1035.9117	3082.2678	2766.7	1880.25
1036.0202	3083.2789	2761.9	1875.6
1036.1286	3084.2893	2735.25	1848.55
1036.2371	3085.2991	2731.4	1845.15
1036.3454	3086.3083	2734.4	1841.25
1036.4538	3087.3169	2714.9	1826.45
1036.562	3088.3248	2697.55	1809
1036.6703	3089.3321	2695.05	1806.65
1036.7785	3090.3388	2677	1789.6
1036.8866	3091.3449	2658.7	1772
1036.9948	3092.3503	2657.9	1769.2
1037.1028	3093.3551	2647.65	1762.3
1037.2108	3094.3593	2639.5	1754.5
1037.3188	3095.3629	2625.25	1738.45
1037.4267	3096.3658	2611.45	1724.4
1037.5346	3097.3681	2603.05	1715.85
1037.6425	3098.3698	2589.9	1702.1
1037.7503	3099.3708	2585.65	1692.8
1037.858	3100.3713	2579.05	1692.7
1037.9657	3101.3711	2563.25	1675
1038.0734	3102.3702	2662.8	1638.45
1038.181	3103.3688	2558.7	1669
1038.2886	3104.3667	2538.15	1650.85
1038.3961	3105.364	2535.3	1649.85
1038.5036	3106.3607	2507.5	1619.5
1038.611	3107.3568	2502.7	1615.9
1038.7184	3108.3522	2486.35	1599.55
1038.8257	3109.347	2478.75	1589.45
1038.933	3110.3412	2481.55	1590.85
1039.0403	3111.3348	2462.9	1574.55
1039.1475	3112.3277	2449.15	1563.8
1039.2547	3113.32	2433.15	1547.8
1039.3618	3114.3117	2434.45	1547.65
1039.4689	3115.3028	2426.6	1539.55
1039.5759	3116.2932	2410.5	1521.8
1039.6829	3117.2831	2412.15	1518.9
1039.7898	3118.2723	2391.85	1504.5
1039.8967	3119.2608	2387.3	1499.2
1040.0035	3120.2488	2383.2	1496.9
1040.1103	3121.2361	2366.7	1479
1040.2171	3122.2229	2367.2	1479.35
1040.3238	3123.209	2359.65	1472.15
1040.4305	3124.1944	2341.45	1454.9
1040.5371	3125.1793	2343.05	1454.2
1040.6437	3126.1635	2330.9	1442.75
1040.7502	3127.1471	2330.15	1442.55
1040.8567	3128.1301	2315.65	1429.2
1040.9631	3129.1125	2307.1	1421.1
1041.0695	3130.0942	2302.3	1416
1041.1759	3131.0753	2307.45	1412.05
1041.2822	3132.0558	2308.45	1418.6
1041.3884	3133.0357	2282.05	1393.85
1041.4946	3134.015	2279.45	1393.25
1041.6008	3134.9936	2274.15	1385.2
1041.7069	3135.9716	2290.8	1382.1
1041.813	3136.949	2264.5	1376
1041.919	3137.9258	2264.55	1372.75
1042.025	3138.902	2257	1365.45
1042.1309	3139.8775	2248.9	1364.15
1042.2368	3140.8524	2234.75	1350.05
1042.3427	3141.8267	2232.5	1343.4
1042.4485	3142.8004	2224.15	1336.65
1042.5542	3143.7735	2229.1	1336.6
1042.6599	3144.7459	2229.75	1338.65
1042.7656	3145.7178	2214.7	1328.4
1042.8712	3146.689	2205.35	1321.3
1042.9768	3147.6596	2198.55	1309.8
1043.0823	3148.6295	2182.25	1295.55
1043.1878	3149.5989	2179.6	1292.65
1043.2932	3150.5676	2167.4	1280.55
1043.3986	3151.5357	2172.95	1287.45
1043.5039	3152.5032	2162.3	1275.75
1043.6092	3153.4701	2143.2	1257.65
1043.7145	3154.4364	2149.3	1261.2
1043.8197	3155.402	2130.55	1245.7
1043.9248	3156.367	2138.15	1250.1
1044.03	3157.3315	2153.05	1222.75
1044.135	3158.2952	2119.1	1233.15
1044.24	3159.2584	2108.7	1223.85
1044.345	3160.221	2100.25	1212.25
1044.4499	3161.1829	2098.65	1212
1044.5548	3162.1442	2087.4	1200.15
1044.6596	3163.105	2077	1190.2
1044.7644	3164.065	2077.2	1189.85
1044.8692	3165.0245	2069.85	1179.75
1044.9739	3165.9834	2054	1167.15
1045.0785	3166.9416	2054.5	1169.2
1045.1831	3167.8993	2038.4	1150.7
1045.2877	3168.8563	2042.2	1154.35
1045.3922	3169.8127	2042	1156.3
1045.4966	3170.7684	2027.9	1142.95
1045.6011	3171.7236	2024.1	1135.95
1045.7054	3172.6782	2008.3	1122.5
1045.8098	3173.6321	2014.2	1126.75
1045.914	3174.5854	2011.85	1122.35
1046.0183	3175.5381	1995.7	1108.75
1046.1224	3176.4902	1991.7	1105.5
1046.2266	3177.4417	1988.2	1101.9
1046.3307	3178.3926	1982.35	1094.2
1046.4347	3179.3428	1971	1085.7
1046.5387	3180.2924	1958.65	1071.7
1046.6427	3181.2415	1958.8	1070.2
1046.7466	3182.1899	1958.35	1070.8
1046.8504	3183.1377	1942.5	1055.4
1046.9542	3184.0848	1932.75	1042.35
1047.058	3185.0314	1937.85	1053.05
1047.1617	3185.9773	1926.65	1038
1047.2654	3186.9227	1930.1	1043.35
1047.369	3187.8674	1924.65	1038.3
1047.4726	3188.8115	1918.7	1028.05
1047.5761	3189.755	1906.8	1020.6
1047.6796	3190.6979	1907.7	1018.65
1047.783	3191.6402	1896.15	1011.25
1047.8864	3192.5818	1888.45	1002.85
1047.9898	3193.5229	1908.85	999.1
1048.0931	3194.4633	1883.3	993.45
1048.1963	3195.4031	1883.45	996
1048.2995	3196.3423	1874.55	987.9
1048.4027	3197.2809	1860.6	974.75
1048.5058	3198.2189	1866.65	979.9
1048.6089	3199.1563	1861.1	967.25
1048.7119	3200.0931	1853.85	967.95
1048.8148	3201.0292	1848.65	963.15
1048.9178	3201.9648	1842.45	956
1049.0206	3202.8997	1839.95	949
1049.1235	3203.834	1828.65	943
1049.2262	3204.7677	1829.3	942.7
1049.329	3205.7008	1828.35	939.15
1049.4317	3206.6333	1808.85	924.7
1049.5343	3207.5652	1813.25	922.5
1049.6369	3208.4964	1804.75	917.3
1049.7394	3209.4271	1803.4	916.5
1049.8419	3210.3571	1803.55	917.6
1049.9444	3211.2865	1796.45	908.8
1050.0468	3212.2154	1794.4	908.35
1050.1491	3213.1436	1793	905
1050.2514	3214.0712	1787.85	895.15
1050.3537	3214.9982	1781.75	894.9
1050.4559	3215.9246	1778.75	891.3
1050.5581	3216.8503	1764.95	878.75
1050.6602	3217.7755	1776.2	888.85
1050.7623	3218.7001	1758	872.05
1050.8643	3219.624	1754.15	868.4
1050.9663	3220.5473	1753	867.6
1051.0682	3221.4701	1748.95	861.2
1051.1701	3222.3922	1741.3	854.25
1051.2719	3223.3137	1740.15	853.2
1051.3737	3224.2346	1737.05	850.25
1051.4754	3225.1549	1730.15	841.65
1051.5771	3226.0746	1716.6	829.9
1051.6788	3226.9937	1720.2	834.3
1051.7804	3227.9121	1705.5	821.25
1051.8819	3228.83	1713.7	826.15
1051.9834	3229.7473	1703.8	817.5
1052.0849	3230.6639	1698.65	814.8
1052.1863	3231.5799	1700.2	815.35
1052.2876	3232.4954	1692.85	803.7
1052.3889	3233.4102	1683.4	794.9
1052.4902	3234.3244	1682.85	795.15
1052.5914	3235.238	1682.25	797.35
1052.6926	3236.151	1697.25	786.85
1052.7937	3237.0634	1666.2	782.25
1052.8948	3237.9752	1668.2	781.9
1052.9958	3238.8864	1658.25	772.2
1053.0968	3239.797	1657.25	772.5
1053.1977	3240.7069	1644.65	758.45
1053.2986	3241.6163	1642.85	753.5
1053.3994	3242.5251	1641.3	755.6
1053.5002	3243.4332	1634	746.75
1053.6009	3244.3408	1627.45	741.1
1053.7016	3245.2477	1626.9	742.15
1053.8022	3246.154	1626.3	739.9
1053.9028	3247.0598	1614.4	727
1054.0034	3247.9649	1607.9	720.4
1054.1039	3248.8694	1609.05	723.9
1054.2043	3249.7733	1606.15	720.7
1054.3047	3250.6766	1599.9	714.4
1054.4051	3251.5793	1598.5	710.5
1054.5054	3252.4814	1596.4	708.15
1054.6056	3253.3829	1590.6	704.45
1054.7058	3254.2838	1579.4	692.2
1054.806	3255.1841	1575.8	689
1054.9061	3256.0838	1572.6	686.5
1055.0061	3256.9829	1575.2	690.5
1055.1062	3257.8814	1562.8	674.2
1055.2061	3258.7792	1557.5	668.65
1055.306	3259.6765	1545.05	656.85
1055.4059	3260.5731	1543.85	657.9
1055.5057	3261.4692	1531.9	645.1
1055.6055	3262.3647	1526.15	638.6
1055.7052	3263.2595	1512.7	624.65
1055.8049	3264.1538	1510.2	623.6
1055.9045	3265.0474	1499.15	613.4
1056.0041	3265.9404	1495.4	609.1
1056.1036	3266.8329	1474.4	588.6
1056.2031	3267.7247	1483.4	587.45
1056.3025	3268.616	1458.8	571.9
1056.4019	3269.5066	1442.25	557.85
1056.5013	3270.3966	1436.15	547.8
1056.6005	3271.286	1412.75	528.6
