Software Version:	3.9.2.0
Unit SN:	10000200
Spectrometer SN:	6960
Date:	3/6/2024 10:49:35 AM
Data Line Index:	25
Spectral Points:	2048
Integration time (ms):	125
Averages:	20
Delay (ms):	30
Sequence Number:	1
Processing:	dark subtract
Laser Power (mW):	300
Laser Current (mA):	821
Laser Diode Temp (C):	25
Laser Case Temp (C):	27.6
System Temp (C):	27.3
Spectrometer Temp (C):	24.7
CCD Temp (C):	0.007
Secondary Temp (C):	20.022
Heatsink Temp (C):	23.174
CCDPCB Temp (C):	36.829
SecondaryPCB Temp (C):	34.262

Wavelength	RamanShift	Raw Counts	Dark Subtracted
787.061	30.1047	1141.7	729.3
787.2016	32.3739	1174.85	765.6
787.3422	34.6426	1229.1	816.9
787.4828	36.9109	1279	866
787.6235	39.1787	1342.65	923.25
787.7642	41.4461	1398.95	976.9
787.9049	43.7131	1467.15	1041.8
788.0456	45.9796	1527	1096.4
788.1863	48.2456	1601.55	1167.75
788.3271	50.5112	1673.15	1236.25
788.4679	52.7764	1747.6	1308.45
788.6087	55.0411	1831.6	1388.2
788.7496	57.3054	1918.7	1470.75
788.8904	59.5692	2010.65	1559.15
789.0313	61.8326	2107.15	1652.55
789.1722	64.0955	2226.2	1767.05
789.3132	66.3579	2359.15	1893.3
789.4541	68.6199	2524.05	2056.15
789.5951	70.8815	2772.2	2304
789.7361	73.1426	3283	2808.4
789.8771	75.4032	4623.65	4143.65
790.0181	77.6634	8040.3	7554.55
790.1592	79.9231	17013.4	16524.15
790.3003	82.1824	56007.95	55510.15
790.4414	84.4412	65535	65018.7
790.5825	86.6995	65535	64996.65
790.7237	88.9574	65535	64976.4
790.8648	91.2148	65535	64959.9
791.006	93.4717	65535	64946.1
791.1472	95.7282	65535	64938.9
791.2885	97.9842	65535	64936.95
791.4297	100.2398	65535	64934.65
791.571	102.4949	65535	64932.3
791.7123	104.7495	65535	64930.9
791.8536	107.0036	65535	64927.2
791.9949	109.2573	65535	64929
792.1363	111.5105	65535	64926.5
792.2777	113.7632	65535	64923.05
792.4191	116.0154	65535	64913.65
792.5605	118.2672	65535	64918.9
792.7019	120.5185	65535	64916.65
792.8434	122.7693	65535	64916.9
792.9849	125.0197	65535	64911.8
793.1264	127.2696	65535	64907.45
793.2679	129.519	65535	64906.7
793.4094	131.7679	65535	64903.5
793.551	134.0163	65535	64902.95
793.6926	136.2642	65535	64895.75
793.8342	138.5117	65535	64888.6
793.9758	140.7587	65535	64893.15
794.1175	143.0052	65535	64891.4
794.2591	145.2512	65535	64891.2
794.4008	147.4967	65535	64890.8
794.5425	149.7417	65535	64886.3
794.6842	151.9863	65535	64883.45
794.826	154.2304	65535	64878.85
794.9677	156.4739	65535	64872.25
795.1095	158.717	65535	64873.25
795.2513	160.9596	65535	64870.35
795.3931	163.2017	65535	64867.3
795.535	165.4433	65535	64866.4
795.6768	167.6844	65535	64865.3
795.8187	169.925	65535	64862.4
795.9606	172.1651	65535	64858.85
796.1025	174.4047	65535	64854.7
796.2445	176.6439	65535	64852.25
796.3864	178.8825	65535	64849.65
796.5284	181.1206	65535	64843.8
796.6704	183.3582	65535	64844.65
796.8124	185.5954	65535	64843.6
796.9544	187.832	65535	64837.9
797.0965	190.0681	65535	64837.35
797.2386	192.3037	65535	64832.55
797.3806	194.5388	65535	64827.55
797.5228	196.7734	65535	64824.3
797.6649	199.0075	65535	64821.4
797.807	201.2411	65535	64821.9
797.9492	203.4742	65535	64817.9
798.0914	205.7068	65535	64817.7
798.2336	207.9389	65535	64817.55
798.3758	210.1704	65535	64813.5
798.518	212.4015	65535	64815.7
798.6603	214.632	65535	64817.75
798.8025	216.862	65535	64830.25
798.9448	219.0915	65535	64834.55
799.0871	221.3205	65535	64833.95
799.2294	223.549	65535	64834.45
799.3718	225.777	65535	64834.25
799.5141	228.0044	65535	64829.5
799.6565	230.2314	65535	64833.7
799.7989	232.4578	65535	64832.3
799.9413	234.6837	65535	64822.45
800.0837	236.909	65535	64820.85
800.2262	239.1339	65535	64795.7
800.3687	241.3582	65535	64813.05
800.5111	243.582	65535	64779.3
800.6536	245.8053	65535	64791.85
800.7961	248.0281	65535	64799.05
800.9387	250.2503	65535	64794.2
801.0812	252.472	65535	64788.1
801.2238	254.6932	65535	64785.25
801.3664	256.9139	65535	64782.45
801.509	259.134	65535	64781.7
801.6516	261.3536	65535	64788.45
801.7942	263.5727	65535	64784.35
801.9369	265.7912	65535	64784.85
802.0795	268.0092	65535	64785
802.2222	270.2267	65535	64780.15
802.3649	272.4436	65535	64783.2
802.5076	274.6601	65535	64771.25
802.6504	276.8759	65535	64774.35
802.7931	279.0913	65535	64774.75
802.9359	281.3061	65535	64773.85
803.0787	283.5204	65535	64768.65
803.2215	285.7341	65535	64766.1
803.3643	287.9473	65535	64755.9
803.5071	290.16	65535	64761.3
803.6499	292.3721	65535	64768.5
803.7928	294.5837	65535	64769.35
803.9357	296.7947	65535	64766.5
804.0786	299.0052	65535	64764.6
804.2215	301.2152	65535	64764.8
804.3644	303.4246	65535	64767.45
804.5074	305.6334	65535	64770.6
804.6503	307.8418	65535	64763.15
804.7933	310.0495	65535	64758.75
804.9363	312.2568	65535	64761.65
805.0793	314.4635	65535	64761.65
805.2223	316.6696	65535	64759.95
805.3653	318.8752	65535	64749.85
805.5084	321.0802	65535	64757.25
805.6514	323.2847	65535	64757.4
805.7945	325.4887	65535	64751.2
805.9376	327.692	65535	64754
806.0807	329.8949	65535	64752.35
806.2238	332.0972	65535	64748.65
806.367	334.2989	65535	64745.75
806.5101	336.5001	65535	64748.3
806.6533	338.7007	65535	64749.05
806.7965	340.9008	65535	64742.95
806.9397	343.1003	65535	64740.5
807.0829	345.2992	65535	64742.8
807.2261	347.4976	65535	64744.9
807.3693	349.6955	65535	64733.6
807.5126	351.8927	65535	64738.75
807.6559	354.0895	65535	64723.55
807.7991	356.2856	65535	64733.5
807.9424	358.4812	65535	64738
808.0857	360.6763	65535	64732
808.2291	362.8707	65535	64732.2
808.3724	365.0646	65535	64728.6
808.5158	367.258	65535	64728.5
808.6591	369.4508	65535	64723.55
808.8025	371.643	65535	64725.1
808.9459	373.8346	65535	64723.35
809.0893	376.0257	65535	64718.75
809.2327	378.2162	65535	64718.5
809.3762	380.4062	65535	64715.7
809.5196	382.5956	65535	64717.3
809.6631	384.7844	65535	64719.15
809.8066	386.9726	65535	64718.75
809.9501	389.1603	65535	64717.35
810.0936	391.3474	65535	64679.9
810.2371	393.5339	65535	64718.2
810.3806	395.7199	65535	64722.05
810.5241	397.9052	65535	64725.6
810.6677	400.09	65535	64722.15
810.8113	402.2743	65535	64722.45
810.9548	404.4579	65535	64725.95
811.0984	406.641	65535	64724.25
811.2421	408.8235	65535	64725.95
811.3857	411.0054	65535	64721.9
811.5293	413.1868	65535	64721.3
811.673	415.3675	65535	64716.8
811.8166	417.5477	65535	64716.35
811.9603	419.7273	65535	64712.3
812.104	421.9064	65535	64707.35
812.2477	424.0848	65535	64709.05
812.3914	426.2627	65535	64709.95
812.5351	428.4399	65535	64706.15
812.6788	430.6166	65535	64703.65
812.8226	432.7928	65535	64703.35
812.9663	434.9683	65535	64703.25
813.1101	437.1432	65535	64698.85
813.2539	439.3176	65535	64701.1
813.3977	441.4914	65535	64700.75
813.5415	443.6645	65535	64696.55
813.6853	445.8371	65535	64702.35
813.8291	448.0091	65535	64697
813.973	450.1806	65535	64700.7
814.1168	452.3514	65535	64699.15
814.2607	454.5216	65535	64690.45
814.4046	456.6913	65535	64697.1
814.5485	458.8603	65535	64694.35
814.6924	461.0288	65535	64698.15
814.8363	463.1967	65535	64697.45
814.9802	465.3639	65535	64698.45
815.1241	467.5306	65535	64694.35
815.2681	469.6967	65535	64693.95
815.412	471.8622	65535	64695.5
815.556	474.0271	65535	64693.35
815.7	476.1914	65535	64689.55
815.844	478.3551	65535	64694.05
815.988	480.5182	65535	64694.6
816.132	482.6807	65535	64691.45
816.276	484.8426	65535	64693.35
816.4201	487.0039	65535	64696.75
816.5641	489.1647	65535	64689.4
816.7082	491.3248	65535	64690.3
816.8522	493.4843	65535	64693.5
816.9963	495.6432	65535	64690.85
817.1404	497.8015	65535	64684.8
817.2845	499.9592	65535	64686.9
817.4286	502.1163	65535	64688.2
817.5727	504.2728	65535	64688.7
817.7168	506.4287	65535	64688
817.861	508.5839	65535	64687.95
818.0051	510.7386	65535	64685.7
818.1493	512.8927	65535	64682
818.2935	515.0461	65535	64684.55
818.4377	517.199	65535	64684.35
818.5818	519.3512	65535	64683.9
818.726	521.5029	65535	64675.2
818.8703	523.6539	65535	64682.95
819.0145	525.8043	65535	64680.55
819.1587	527.9541	65535	64676.5
819.303	530.1033	65535	64681.15
819.4472	532.2519	65535	64679.55
819.5915	534.3999	65535	64677.15
819.7357	536.5472	65535	64678.25
819.88	538.694	65535	64679.5
820.0243	540.8401	65535	64676.8
820.1686	542.9856	65535	64675.6
820.3129	545.1305	65535	64669.9
820.4572	547.2748	65535	64671.6
820.6016	549.4185	65535	64674.05
820.7459	551.5615	65535	64673.5
820.8902	553.704	65535	64672.4
821.0346	555.8458	65535	64673
821.1789	557.987	65535	64674
821.3233	560.1276	65535	64673.85
821.4677	562.2675	65535	64673.9
821.6121	564.4069	65535	64671
821.7565	566.5456	65535	64672.4
821.9009	568.6837	65535	64675.75
822.0453	570.8212	65535	64675.15
822.1897	572.958	65535	64672.85
822.3342	575.0942	65535	64675.45
822.4786	577.2299	65535	64676.05
822.6231	579.3648	65535	64677.5
822.7675	581.4992	65535	64681.75
822.912	583.6329	65535	64678.85
823.0565	585.766	65535	64677.55
823.201	587.8985	65535	64679.95
823.3454	590.0304	65535	64650.15
823.4899	592.1616	65535	64668.3
823.6345	594.2922	65535	64668.4
823.779	596.4222	65535	64669.85
823.9235	598.5515	65535	64666.9
824.068	600.6802	65535	64669.7
824.2126	602.8083	65535	64667.9
824.3571	604.9358	65535	64668.7
824.5017	607.0626	65535	64666.4
824.6462	609.1888	65535	64666.85
824.7908	611.3144	65535	64666.35
824.9354	613.4393	65535	64666.3
825.08	615.5636	65535	64665.6
825.2246	617.6873	65535	64664.35
825.3692	619.8103	65535	64664.2
825.5138	621.9327	65535	64665.6
825.6584	624.0544	65535	64664.35
825.803	626.1756	65535	64664.45
825.9477	628.2961	65535	64664
826.0923	630.4159	65535	64667.15
826.237	632.5351	65535	64662.95
826.3816	634.6537	65535	64664.6
826.5263	636.7716	65535	64662.8
826.6709	638.8889	65535	64659.35
826.8156	641.0056	65535	64658.75
826.9603	643.1216	65535	64657.6
827.105	645.237	65535	64660.1
827.2497	647.3518	65535	64660.6
827.3944	649.4659	65535	64664.55
827.5391	651.5793	65535	64659.15
827.6838	653.6922	65535	64664
827.8285	655.8043	65535	64658.75
827.9733	657.9159	65535	64661.85
828.118	660.0268	65535	64655.1
828.2627	662.137	65535	64659.65
828.4075	664.2466	65535	64656.8
828.5522	666.3556	65535	64659.3
828.697	668.4639	65535	64655
828.8418	670.5716	65535	64658.45
828.9865	672.6786	65535	64658.55
829.1313	674.785	65535	64657.3
829.2761	676.8907	65535	64656.85
829.4209	678.9958	65535	64657.8
829.5657	681.1002	65535	64655.8
829.7105	683.204	65535	64651.25
829.8553	685.3072	65535	64655.25
830.0001	687.4097	65535	64652.45
830.1449	689.5115	65535	64652.1
830.2898	691.6127	65535	64655.3
830.4346	693.7132	65535	64653.85
830.5794	695.8131	65535	64639.2
830.7243	697.9123	65535	64650.9
830.8691	700.0109	65535	64652.3
831.014	702.1089	65535	64657.7
831.1588	704.2061	65535	64654
831.3037	706.3028	65535	64652.9
831.4486	708.3987	65535	64654.35
831.5935	710.4941	65535	64654.9
831.7383	712.5887	65535	64650.75
831.8832	714.6827	65535	64650.4
832.0281	716.7761	65535	64653.3
832.173	718.8688	65535	64650.4
832.3179	720.9608	65535	64648.5
832.4628	723.0522	65535	64645.7
832.6077	725.1429	65535	64647.9
832.7527	727.233	65535	64648.3
832.8976	729.3224	65535	64648.7
833.0425	731.4112	65535	64648
833.1874	733.4993	65535	64646.6
833.3324	735.5867	65535	64648.6
833.4773	737.6735	65535	64649.15
833.6222	739.7596	65535	64650.25
833.7672	741.845	65535	64649.65
833.9122	743.9298	65535	64647
834.0571	746.014	65535	64648.1
834.2021	748.0974	65535	64644.25
834.347	750.1802	65535	64648.3
834.492	752.2624	65535	64647.1
834.637	754.3439	65535	64645.1
834.782	756.4247	65535	64636.7
834.9269	758.5048	65535	64646.45
835.0719	760.5843	65535	64648.35
835.2169	762.6631	65535	64648.1
835.3619	764.7413	65535	64648.65
835.5069	766.8188	65535	64643.5
835.6519	768.8956	65535	64644.5
835.7969	770.9718	65535	64642.9
835.9419	773.0473	65535	64649.1
836.0869	775.1221	65535	64647
836.232	777.1962	65535	64644.85
836.377	779.2697	65535	64642.65
836.522	781.3426	65535	64626.9
836.667	783.4147	65535	64644.2
836.8121	785.4862	65535	64646.95
836.9571	787.557	65535	64646.65
837.1021	789.6271	65535	64646.05
837.2472	791.6966	65535	64645.45
837.3922	793.7654	65535	64644.55
837.5373	795.8335	65535	64645.45
837.6823	797.901	65535	64646.45
837.8274	799.9678	65535	64643.1
837.9724	802.0339	65535	64642.6
838.1175	804.0993	65535	64633.05
838.2626	806.1641	65535	64645.85
838.4076	808.2282	65535	64647.65
838.5527	810.2916	65535	64641.05
838.6978	812.3544	65535	64645.1
838.8428	814.4164	65535	64643.5
838.9879	816.4778	65535	64642.2
839.133	818.5385	65535	64643.9
839.2781	820.5986	65535	64639.8
839.4232	822.658	65535	64641.5
839.5682	824.7166	65535	64646.75
839.7133	826.7747	65535	64644.35
839.8584	828.832	65535	64646.4
840.0035	830.8886	65535	64639.8
840.1486	832.9446	65535	64642.5
840.2937	834.9999	65535	64645.55
840.4388	837.0545	65535	64637.3
840.5839	839.1085	65535	64640.8
840.729	841.1618	65535	64640.15
840.8741	843.2143	65535	64643.25
841.0192	845.2662	65535	64641.4
841.1643	847.3175	65535	64645.9
841.3095	849.368	65535	64640.15
841.4546	851.4179	65535	64641.9
841.5997	853.467	65535	64642.55
841.7448	855.5155	65535	64641.75
841.8899	857.5633	65535	64641.1
842.0351	859.6105	65535	64641.8
842.1802	861.6569	65535	64642.9
842.3253	863.7027	65535	64641.15
842.4704	865.7478	65535	64640.45
842.6156	867.7922	65535	64639.2
842.7607	869.8359	65535	64642.85
842.9058	871.8789	65535	64638.8
843.0509	873.9212	65535	64610.15
843.1961	875.9629	65535	64641.3
843.3412	878.0039	65535	64639.85
843.4863	880.0441	65535	64641.65
843.6315	882.0837	65535	64635.4
843.7766	884.1226	65535	64636
843.9218	886.1609	65535	64641.7
844.0669	888.1984	65535	64641.5
844.212	890.2352	65535	64642.1
844.3572	892.2714	65535	64637.5
844.5023	894.3069	65535	64636.6
844.6475	896.3416	65535	64639.05
844.7926	898.3757	65535	64640.1
844.9377	900.4091	65535	64642.3
845.0829	902.4418	65535	64632.85
845.228	904.4739	65535	64635.65
845.3732	906.5052	65535	64638.75
845.5183	908.5358	65535	64640.1
845.6635	910.5658	65535	64634.2
845.8086	912.595	65535	64638.05
845.9538	914.6236	65535	64638.05
846.0989	916.6515	65535	64640.25
846.2441	918.6786	65535	64637.05
846.3892	920.7051	65535	64635.5
846.5344	922.7309	65535	64635.8
846.6795	924.756	65535	64636.3
846.8246	926.7804	65535	64635.4
846.9698	928.8041	65535	64634.5
847.1149	930.8272	65535	64638.65
847.2601	932.8495	65535	64636.25
847.4052	934.8711	65535	64638.9
847.5504	936.892	65535	64641.45
847.6955	938.9123	65535	64637.8
847.8407	940.9318	65535	64637.15
847.9858	942.9506	65535	64633.5
848.131	944.9688	65535	64636.15
848.2761	946.9862	65535	64635.8
848.4213	949.003	65535	64636.45
848.5664	951.019	65535	64636.05
848.7115	953.0344	65535	64634.5
848.8567	955.0491	65535	64635.65
849.0018	957.063	65535	64637.8
849.147	959.0763	65535	64638.15
849.2921	961.0888	65535	64635.25
849.4373	963.1007	65535	64637.8
849.5824	965.1119	65535	64635.4
849.7275	967.1223	65535	64637.9
849.8727	969.1321	65535	64639.9
850.0178	971.1412	65535	64637.9
850.1629	973.1495	65535	64639.35
850.3081	975.1572	65535	64604.45
850.4532	977.1641	65535	64636.8
850.5983	979.1704	65535	64634.55
850.7435	981.1759	65535	64634.1
850.8886	983.1808	65535	64636
851.0337	985.1849	65535	64624.85
851.1788	987.1884	65535	64631.85
851.324	989.1911	65535	64633.7
851.4691	991.1932	65535	64633.5
851.6142	993.1945	65535	64635.9
851.7593	995.1951	65535	64637.35
851.9045	997.1951	65535	64631
852.0496	999.1943	65535	64634.25
852.1947	1001.1928	65535	64634.55
852.3398	1003.1906	65535	64635.25
852.4849	1005.1877	65535	64634.95
852.63	1007.1841	65535	64634.95
852.7751	1009.1798	65535	64636.85
852.9202	1011.1748	65535	64635.75
853.0653	1013.1691	65535	64636
853.2104	1015.1627	65535	64635.45
853.3555	1017.1556	65535	64634.7
853.5006	1019.1477	65535	64637.3
853.6457	1021.1392	65535	64636.85
853.7908	1023.1299	65535	64637.45
853.9359	1025.12	65535	64636.7
854.081	1027.1093	65535	64640.15
854.2261	1029.0979	65535	64640.45
854.3712	1031.0859	65535	64639.95
854.5163	1033.0731	65535	64637.25
854.6613	1035.0596	65535	64635.05
854.8064	1037.0454	65535	64635.75
854.9515	1039.0304	65535	64634.3
855.0965	1041.0148	65535	64637.2
855.2416	1042.9985	65535	64634.4
855.3867	1044.9814	65535	64638.7
855.5317	1046.9636	65535	64633.1
855.6768	1048.9452	65535	64641.1
855.8219	1050.926	65535	64638.15
855.9669	1052.9061	65535	64636.3
856.112	1054.8855	65535	64636.15
856.257	1056.8642	65535	64636.45
856.4021	1058.8421	65535	64628
856.5471	1060.8194	65535	64633.75
856.6921	1062.7959	65535	64637.1
856.8372	1064.7717	65535	64635.9
856.9822	1066.7469	65535	64633.95
857.1272	1068.7213	65535	64631.8
857.2723	1070.695	65535	64636
857.4173	1072.6679	65535	64636.65
857.5623	1074.6402	65535	64633.5
857.7073	1076.6117	65535	64630.45
857.8523	1078.5826	65535	64634.55
857.9973	1080.5527	65535	64634.25
858.1423	1082.5221	65535	64634.6
858.2873	1084.4908	65535	64635.6
858.4323	1086.4587	65535	64634.45
858.5773	1088.426	65535	64632
858.7223	1090.3925	65535	64631.35
858.8673	1092.3584	65535	64638.15
859.0123	1094.3235	65535	64638
859.1573	1096.2879	65535	64636.15
859.3022	1098.2515	65535	64637.4
859.4472	1100.2145	65535	64636.35
859.5922	1102.1767	65535	64634.4
859.7371	1104.1382	65535	64634.3
859.8821	1106.099	65535	64632.2
860.027	1108.0591	65535	64634.75
860.172	1110.0185	65535	64634.75
860.3169	1111.9771	65535	64637.8
860.4619	1113.9351	65535	64634.6
860.6068	1115.8923	65535	64635.65
860.7517	1117.8488	65535	64632.25
860.8967	1119.8045	65535	64636.8
861.0416	1121.7596	65535	64635.15
861.1865	1123.7139	65535	64637
861.3314	1125.6675	65535	64635.85
861.4763	1127.6204	65535	64636.15
861.6212	1129.5726	65535	64635.85
861.7661	1131.524	65535	64634.65
861.911	1133.4748	65535	64636.35
862.0559	1135.4248	65535	64632.05
862.2008	1137.3741	65535	64634.5
862.3457	1139.3226	65535	64635.45
862.4905	1141.2705	65535	64636.6
862.6354	1143.2176	65535	64630.75
862.7803	1145.164	65535	64631.8
862.9251	1147.1097	65535	64636.2
863.07	1149.0546	65535	64634.5
863.2148	1150.9989	65535	64632.95
863.3597	1152.9424	65535	64632.95
863.5045	1154.8852	65535	64636.85
863.6493	1156.8272	65535	64635.7
863.7942	1158.7686	65535	64627.5
863.939	1160.7092	65535	64632.85
864.0838	1162.6491	65535	64633.3
864.2286	1164.5883	65535	64637.45
864.3734	1166.5267	65535	64635.3
864.5182	1168.4644	65535	64633.7
864.663	1170.4014	65535	64631.15
864.8078	1172.3377	65535	64634.55
864.9526	1174.2732	65535	64634.4
865.0974	1176.2081	65535	64635.55
865.2421	1178.1421	65535	64629.8
865.3869	1180.0755	65535	64636.4
865.5317	1182.0082	65535	64634.55
865.6764	1183.9401	65535	64633.3
865.8212	1185.8713	65535	64636.9
865.9659	1187.8017	65535	64634.5
866.1106	1189.7315	65535	64639.4
866.2554	1191.6605	65535	64608.65
866.4001	1193.5888	65535	64633.85
866.5448	1195.5163	65535	64635.6
866.6895	1197.4432	65535	64634.9
866.8342	1199.3693	65535	64634.9
866.9789	1201.2947	65535	64632.85
867.1236	1203.2193	65535	64634.9
867.2683	1205.1432	65535	64636.05
867.413	1207.0664	65535	64634.3
867.5576	1208.9889	65535	64633.1
867.7023	1210.9106	65535	64633.4
867.847	1212.8316	65535	64635.7
867.9916	1214.7519	65535	64625.65
868.1363	1216.6715	65535	64636.45
868.2809	1218.5903	65535	64634.55
868.4255	1220.5084	65535	64635.8
868.5701	1222.4257	65535	64637.25
868.7148	1224.3424	65535	64635.45
868.8594	1226.2583	65535	64632.3
869.004	1228.1735	65535	64632.7
869.1486	1230.0879	65535	64635.65
869.2932	1232.0016	65535	64637.05
869.4377	1233.9146	65535	64633.35
869.5823	1235.8269	65535	64634.5
869.7269	1237.7384	65535	64634
869.8715	1239.6492	65535	64635.2
870.016	1241.5592	65535	64632.65
870.1606	1243.4686	65535	64637.7
870.3051	1245.3772	65535	64635.3
870.4496	1247.285	65535	64633.1
870.5941	1249.1922	65535	64636.4
870.7387	1251.0986	65535	64638.05
870.8832	1253.0042	65535	64635.75
871.0277	1254.9092	65535	64635.95
871.1722	1256.8134	65535	64635.05
871.3167	1258.7169	65535	64634.45
871.4611	1260.6196	65535	64636.05
871.6056	1262.5216	65535	64634.5
871.7501	1264.4229	65535	64636.1
871.8945	1266.3234	65535	64635.1
872.039	1268.2232	65535	64633.9
872.1834	1270.1223	65535	64633.55
872.3278	1272.0207	65535	64636.8
872.4723	1273.9183	65535	64628.9
872.6167	1275.8151	65535	64638.05
872.7611	1277.7113	65535	64635.4
872.9055	1279.6067	65535	64637
873.0499	1281.5014	65535	64632.4
873.1943	1283.3953	65535	64633.85
873.3386	1285.2885	65535	64633.35
873.483	1287.181	65535	64634.65
873.6274	1289.0727	65535	64633.45
873.7717	1290.9637	65535	64634.95
873.9161	1292.854	65535	64636.95
874.0604	1294.7435	65535	64634.3
874.2047	1296.6323	65535	64637.4
874.349	1298.5204	65535	64631.25
874.4933	1300.4077	65535	64633.45
874.6376	1302.2943	65535	64633.75
874.7819	1304.1802	65535	64635.35
874.9262	1306.0653	65535	64632.7
875.0705	1307.9497	65535	64636.75
875.2147	1309.8333	65535	64635.4
875.359	1311.7162	65535	64638.8
875.5032	1313.5984	65535	64633.15
875.6475	1315.4798	65535	64624.85
875.7917	1317.3605	65535	64617.55
875.9359	1319.2405	65535	64632.7
876.0801	1321.1197	65535	64632.6
876.2243	1322.9982	65535	64630.5
876.3685	1324.876	65535	64634.8
876.5127	1326.753	65535	64632.5
876.6569	1328.6293	65535	64632.9
876.801	1330.5048	65535	64631.3
876.9452	1332.3796	65535	64635.75
877.0893	1334.2537	65535	64612.15
877.2335	1336.127	65535	64634.6
877.3776	1337.9996	65535	64635.6
877.5217	1339.8714	65535	64636.25
877.6658	1341.7426	65535	64590.85
877.8099	1343.6129	65535	64634.4
877.954	1345.4826	65535	64634.45
878.0981	1347.3515	65535	64633.2
878.2422	1349.2196	65535	64634.4
878.3862	1351.087	65535	64635.05
878.5303	1352.9537	65535	64634.35
878.6743	1354.8197	65535	64635.05
878.8184	1356.6849	65535	64634.5
878.9624	1358.5493	65535	64632.5
879.1064	1360.4131	65535	64633.5
879.2504	1362.276	65535	64635.25
879.3944	1364.1383	65535	64632.95
879.5384	1365.9998	65535	64627.8
879.6823	1367.8606	65535	64631.75
879.8263	1369.7206	65535	64633.75
879.9702	1371.5799	65535	64634.05
880.1142	1373.4384	65535	64634
880.2581	1375.2962	65535	64632.2
880.402	1377.1533	65535	64636.25
880.5459	1379.0096	65535	64635.05
880.6898	1380.8652	65535	64634.1
880.8337	1382.7201	65535	64636.25
880.9776	1384.5742	65535	64633.2
881.1215	1386.4275	65535	64632.7
881.2653	1388.2802	65535	64637.3
881.4092	1390.132	65535	64635.15
881.553	1391.9832	65535	64632.1
881.6968	1393.8336	65535	64634.5
881.8406	1395.6832	65535	64634.05
881.9844	1397.5322	65535	64636.8
882.1282	1399.3803	65535	64629.7
882.272	1401.2278	65535	64636.25
882.4158	1403.0745	65535	64634.7
882.5595	1404.9204	65535	64636.6
882.7033	1406.7656	65535	64632.95
882.847	1408.6101	65535	64632.9
882.9908	1410.4538	65535	64635.3
883.1345	1412.2968	65535	64635.35
883.2782	1414.139	65535	64635.2
883.4219	1415.9805	65535	64635.2
883.5656	1417.8213	65535	64627.75
883.7092	1419.6613	65535	64633.8
883.8529	1421.5006	65535	64635.6
883.9965	1423.3391	65535	64634.65
884.1402	1425.1769	65535	64634.5
884.2838	1427.0139	65535	64635.05
884.4274	1428.8502	65535	64634.7
884.571	1430.6858	65535	64637.8
884.7146	1432.5206	65535	64634
884.8582	1434.3547	65535	64636.75
885.0018	1436.188	65535	64636.7
885.1453	1438.0206	65535	64635.55
885.2889	1439.8524	65535	64633.85
885.4324	1441.6835	65535	64634.2
885.5759	1443.5139	65535	64631.4
885.7194	1445.3435	65535	64635.35
885.8629	1447.1724	65535	64635.65
886.0064	1449.0005	65535	64635.65
886.1499	1450.8279	65535	64633.15
886.2933	1452.6545	65535	64636.1
886.4368	1454.4804	65535	64638.05
886.5802	1456.3056	65535	64627.9
886.7237	1458.13	65535	64636.85
886.8671	1459.9536	65535	64633.55
887.0105	1461.7766	65535	64635.7
887.1539	1463.5987	65535	64635.55
887.2972	1465.4202	65535	64633.35
887.4406	1467.2409	65535	64635.9
887.584	1469.0608	65535	64638.7
887.7273	1470.88	65535	64634.85
887.8706	1472.6984	65535	64637.15
888.0139	1474.5161	65535	64631
888.1572	1476.3331	65535	64634.95
888.3005	1478.1493	65535	64634.6
888.4438	1479.9648	65535	64635.5
888.5871	1481.7795	65535	64635.9
888.7303	1483.5935	65535	64635.65
888.8736	1485.4067	65535	64636.4
889.0168	1487.2192	65535	64635.55
889.16	1489.031	65535	64632.8
889.3032	1490.842	65535	64635
889.4464	1492.6522	65535	64635.65
889.5896	1494.4618	65535	64634.95
889.7327	1496.2705	65535	64636.65
889.8759	1498.0785	65535	64634.55
890.019	1499.8858	65535	64633.1
890.1622	1501.6924	65535	64635.25
890.3053	1503.4981	65535	64636.05
890.4484	1505.3032	65535	64634.65
890.5914	1507.1075	65535	64635.25
890.7345	1508.911	65535	64636.25
890.8776	1510.7138	65535	64635.1
891.0206	1512.5159	65535	64635.35
891.1637	1514.3172	65535	64637.95
891.3067	1516.1178	65535	64637.55
891.4497	1517.9176	65535	64632.75
891.5927	1519.7166	65535	64634.8
891.7357	1521.515	65535	64627.95
891.8786	1523.3126	65535	64635.5
892.0216	1525.1094	65535	64633.85
892.1645	1526.9055	65535	64637
892.3074	1528.7008	65535	64636
892.4503	1530.4954	65535	64628.05
892.5932	1532.2893	65535	64637.35
892.7361	1534.0824	65535	64629.05
892.879	1535.8747	65535	64635.05
893.0218	1537.6663	65535	64634.9
893.1647	1539.4572	65535	64633.8
893.3075	1541.2473	65535	64636.85
893.4503	1543.0367	65535	64638.9
893.5931	1544.8253	65535	64633
893.7359	1546.6132	65535	64633.55
893.8787	1548.4003	65535	64626.8
894.0214	1550.1867	65535	64628.9
894.1642	1551.9723	65535	64630.75
894.3069	1553.7572	65535	64636.05
894.4496	1555.5414	65535	64635.55
894.5923	1557.3247	65535	64638.8
894.735	1559.1074	65535	64638.05
894.8777	1560.8893	65535	64635.75
895.0204	1562.6705	65535	64636.2
895.163	1564.4509	65535	64639.15
895.3056	1566.2305	65535	64639.1
895.4482	1568.0094	65535	64640.3
895.5908	1569.7876	65535	64638.55
895.7334	1571.565	65535	64637.7
895.876	1573.3417	65535	64638.65
896.0186	1575.1176	65535	64639.7
896.1611	1576.8928	65535	64636.5
896.3036	1578.6672	65535	64639.1
896.4461	1580.4409	65535	64636.5
896.5886	1582.2138	65535	64635.75
896.7311	1583.986	65535	64635.35
896.8736	1585.7575	65529.65	64633.7
897.0161	1587.5282	65534.75	64639.2
897.1585	1589.2981	65534.4	64640.4
897.3009	1591.0673	65524.6	64628.75
897.4433	1592.8358	65476.6	64580.35
897.5857	1594.6035	65516.35	64615.95
897.7281	1596.3704	65523.25	64624.4
897.8705	1598.1366	65422.15	64525.6
898.0128	1599.9021	65349.8	64454.85
898.1551	1601.6668	65482.45	64586.95
898.2975	1603.4308	65411.6	64514.75
898.4398	1605.194	65400.85	64498.2
898.5821	1606.9564	65093.2	64197.6
898.7243	1608.7182	65284	64385.75
898.8666	1610.4791	65096.3	64202
899.0088	1612.2394	65337.45	64441.6
899.1511	1613.9988	64972.1	64076.5
899.2933	1615.7576	65327.95	64433.4
899.4355	1617.5156	65329.6	64425.45
899.5776	1619.2728	65468.75	64573.6
899.7198	1621.0293	65120.85	64225.55
899.862	1622.785	65133.9	64236.8
900.0041	1624.54	65288.75	64392.65
900.1462	1626.2942	64941.45	64045.65
900.2883	1628.0477	64308.75	63410.55
900.4304	1629.8005	63656.05	62759.15
900.5725	1631.5525	64332.8	63437.3
900.7145	1633.3037	63246.8	62352.7
900.8566	1635.0542	63079.7	62183.75
900.9986	1636.804	63683.45	62789.6
901.1406	1638.553	62369.3	61368.05
901.2826	1640.3013	62801.65	61905.25
901.4245	1642.0488	62019.9	61124
901.5665	1643.7955	62599.35	61705.85
901.7085	1645.5416	62063.85	61170.05
901.8504	1647.2868	61499.55	60604
901.9923	1649.0313	62387.1	61491.3
902.1342	1650.7751	61865.65	60966.8
902.2761	1652.5181	61454.35	60559.15
902.4179	1654.2604	61568.8	60673.35
902.5598	1656.0019	61992.45	61096.75
902.7016	1657.7427	61753.1	60858.3
902.8434	1659.4828	62398.85	61505.15
902.9852	1661.222	61759	60863.75
903.127	1662.9606	62484.85	61590
903.2687	1664.6984	61429.75	60531.95
903.4105	1666.4354	61764.2	60868.4
903.5522	1668.1717	60512.75	59617.1
903.6939	1669.9072	59573.35	58678.05
903.8356	1671.642	59357.4	58460.55
903.9773	1673.3761	59051.1	58159.1
904.119	1675.1094	58760.8	57865.5
904.2606	1676.8419	58082.6	57188.2
904.4022	1678.5737	58094.35	57199.15
904.5439	1680.3048	57717.8	56822.25
904.6855	1682.0351	57432.4	56538.15
904.827	1683.7646	57101.85	56202.2
904.9686	1685.4934	57192.6	56297.4
905.1101	1687.2215	56095.1	55199.3
905.2517	1688.9488	56748.95	55854.65
905.3932	1690.6754	55230.9	54338.3
905.5347	1692.4012	55829.4	54934.8
905.6761	1694.1263	55738.05	54843.35
905.8176	1695.8506	55271.65	54375.8
905.9591	1697.5742	55120.05	54225.8
906.1005	1699.297	54894.55	54000.35
906.2419	1701.0191	54770.45	53875.85
906.3833	1702.7404	54212.1	53317.3
906.5246	1704.461	54026.35	53130.5
906.666	1706.1808	53898.55	53001.85
906.8073	1707.8999	53765.35	52870.95
906.9487	1709.6182	53525.55	52631.65
907.09	1711.3358	53441.7	52548.5
907.2313	1713.0527	53164.55	52271.2
907.3725	1714.7688	53068.75	52168.05
907.5138	1716.4841	52477.3	51582
907.655	1718.1987	52691.3	51793.65
907.7962	1719.9126	52422.6	51528.65
907.9374	1721.6257	52234.1	51338.55
908.0786	1723.338	52263.95	51369.85
908.2198	1725.0496	51632.7	50737
908.3609	1726.7605	51616.5	50722
908.502	1728.4706	51390.4	50496.85
908.6431	1730.18	51159.05	50264.15
908.7842	1731.8886	51050.5	50157.55
908.9253	1733.5964	50843.55	49932
909.0664	1735.3036	50796.2	49899.5
909.2074	1737.0099	50618.1	49722.9
909.3484	1738.7156	50395.95	49501
909.4894	1740.4204	50093.35	49196.6
909.6304	1742.1246	50105.6	49210.5
909.7714	1743.8279	49962.6	49070.3
909.9123	1745.5306	49878.35	48983.7
910.0532	1747.2325	49507.4	48613.35
910.1941	1748.9336	49373.8	48481.4
910.335	1750.634	49176.8	48280.7
910.4759	1752.3336	49128.25	48233.75
910.6168	1754.0325	48952.25	48061.1
910.7576	1755.7307	48901.4	48008.65
910.8984	1757.4281	48720.25	47827.5
911.0392	1759.1247	48716.4	47813.3
911.18	1760.8206	48441.6	47542.3
911.3208	1762.5158	48419.2	47521.1
911.4615	1764.2102	48217.05	47324.3
911.6022	1765.9039	48054.1	47161.9
911.7429	1767.5968	47890.8	46997.05
911.8836	1769.289	47719.55	46826.65
912.0243	1770.9804	47609.05	46715.25
912.1649	1772.6711	47535.75	46643.65
912.3056	1774.361	47413.75	46518.95
912.4462	1776.0502	47237.9	46342.7
912.5868	1777.7386	47105.2	46208.05
912.7274	1779.4263	46931.5	46036.6
912.8679	1781.1132	46864.25	45971.75
913.0084	1782.7994	46682.75	45789.7
913.149	1784.4849	46530.55	45637
913.2895	1786.1696	46331.9	45433.95
913.4299	1787.8535	46228.55	45337.85
913.5704	1789.5367	46110.85	45217.2
913.7108	1791.2192	46036.75	45142.7
913.8513	1792.9009	45757.25	44831.8
913.9917	1794.5818	45693.85	44800.95
914.132	1796.2621	45557.9	44666.1
914.2724	1797.9415	45414.9	44524.05
914.4128	1799.6202	45260.25	44369.25
914.5531	1801.2982	45163.15	44269.95
914.6934	1802.9755	45040.3	44146.35
914.8337	1804.6519	44992.55	44098.45
914.9739	1806.3277	44748.3	43856.15
915.1142	1808.0027	44509.3	43617.6
915.2544	1809.6769	44497.95	43604.35
915.3946	1811.3504	44334.55	43439.9
915.5348	1813.0231	44210.7	43318.35
915.675	1814.6951	44200.3	43305.9
915.8151	1816.3664	44151.45	43257.35
915.9553	1818.0369	43963.6	43070.55
916.0954	1819.7067	43755.9	42863.9
916.2355	1821.3757	43689.05	42797.35
916.3755	1823.044	43624.9	42731.55
916.5156	1824.7115	43480.55	42587.25
916.6556	1826.3783	43220.7	42330.5
916.7956	1828.0443	43102.8	42208.4
916.9356	1829.7096	42968.5	42074.35
917.0756	1831.3741	42924.65	42028.4
917.2155	1833.0379	42811.55	41919.85
917.3555	1834.701	42674.4	41779.55
917.4954	1836.3633	42601.4	41709.25
917.6353	1838.0248	42472.55	41576.95
917.7751	1839.6856	42288.1	41394.7
917.915	1841.3457	42266.9	41375.25
918.0548	1843.005	42151.8	41259.65
918.1946	1844.6636	42058.9	41166.25
918.3344	1846.3214	41871.05	40978.25
918.4742	1847.9785	41845.15	40951.3
918.6139	1849.6349	41677.4	40784
918.7537	1851.2904	41567.55	40665.8
918.8934	1852.9453	41451.55	40557.15
919.0331	1854.5994	41252.05	40358.15
919.1727	1856.2528	41303.15	40405.65
919.3124	1857.9054	41124.3	40232.05
919.452	1859.5572	41089.05	40196.1
919.5916	1861.2083	40959.75	40066.95
919.7312	1862.8587	40944.7	40052.3
919.8708	1864.5084	40774.4	39881
920.0103	1866.1572	40600.4	39708.9
920.1498	1867.8054	40369.25	39477.2
920.2893	1869.4528	40385.25	39491.55
920.4288	1871.0994	40194.95	39301.55
920.5683	1872.7453	40144.4	39250.35
920.7077	1874.3905	40031.55	39130.45
920.8471	1876.0349	39918.9	39026.6
920.9865	1877.6786	39919.35	39024.9
921.1259	1879.3215	39792.2	38899.2
921.2653	1880.9637	39674.7	38783.1
921.4046	1882.6051	39586.2	38694.2
921.5439	1884.2458	39478.5	38585.1
921.6832	1885.8858	39319.2	38424.25
921.8225	1887.525	39217	38323.7
921.9617	1889.1634	38974.4	38083.8
922.101	1890.8011	38889.9	37995.25
922.2402	1892.4381	38795.25	37903.45
922.3794	1894.0743	38754.65	37861.8
922.5185	1895.7098	38598.4	37705.4
922.6577	1897.3446	38503.15	37606.75
922.7968	1898.9786	38326.6	37429.4
922.9359	1900.6118	38249.05	37358.4
923.075	1902.2443	38033.65	37138.85
923.214	1903.8761	37940.25	37047.75
923.3531	1905.5071	37678.15	36786.15
923.4921	1907.1374	37581.35	36688.3
923.6311	1908.7669	37529.5	36636.7
923.77	1910.3957	37494.55	36600.35
923.909	1912.0237	37217	36323.05
924.0479	1913.651	37163.2	36268.95
924.1868	1915.2776	37024.55	36132.7
924.3257	1916.9034	36883.6	35994.2
924.4646	1918.5285	36657.75	35766.05
924.6034	1920.1528	36556.65	35663.2
924.7422	1921.7764	36483.1	35591.6
924.881	1923.3992	36307.05	35415.9
925.0198	1925.0213	36034.1	35141.3
925.1586	1926.6427	35893.8	35002
925.2973	1928.2633	35951.35	34951.55
925.436	1929.8832	35710.8	34816.6
925.5747	1931.5023	35521.95	34630.15
925.7134	1933.1207	35461.8	34568.6
925.852	1934.7383	35348.55	34456.7
925.9906	1936.3552	35258.8	34365.45
926.1292	1937.9714	35111.35	34219
926.2678	1939.5868	34936	34040.2
926.4064	1941.2015	34760.15	33866.3
926.5449	1942.8154	34629.8	33736.7
926.6834	1944.4286	34451	33559.6
926.8219	1946.041	34312.55	33402.75
926.9604	1947.6528	34156.7	33256.2
927.0988	1949.2637	34085.25	33194.35
927.2372	1950.8739	33910.45	33017.55
927.3756	1952.4834	33838.3	32946.6
927.514	1954.0921	33727.4	32834.45
927.6523	1955.7001	33624.1	32725.25
927.7907	1957.3074	33478.65	32587.1
927.929	1958.9139	33334.65	32445.2
928.0673	1960.5197	33299.3	32406.05
928.2055	1962.1247	33063.05	32170.1
928.3438	1963.729	32925.45	32035.4
928.482	1965.3325	32780.7	31865.9
928.6202	1966.9353	32692.45	31800.3
928.7584	1968.5374	32585	31691.75
928.8965	1970.1387	32477.5	31588.7
929.0346	1971.7393	32338.85	31447.2
929.1727	1973.3392	32202.8	31309.2
929.3108	1974.9383	32050.1	31158.65
929.4489	1976.5366	31934.1	31040.55
929.5869	1978.1342	31914.85	31023.15
929.7249	1979.7311	31849.5	30958.1
929.8629	1981.3273	31763.5	30869.4
930.0009	1982.9227	31588.25	30695.75
930.1388	1984.5173	31451.75	30561.15
930.2767	1986.1112	31270.35	30379
930.4146	1987.7044	31230.2	30340.15
930.5525	1989.2968	31097.6	30204.85
930.6904	1990.8885	31062.65	30169.6
930.8282	1992.4795	30960.3	30066.15
930.966	1994.0697	30807.1	29914.5
931.1038	1995.6592	30706.85	29816.2
931.2415	1997.2479	30559.5	29669.8
931.3793	1998.8359	30477.25	29587.05
931.517	2000.4232	30353.4	29462.6
931.6547	2002.0097	30285.55	29396.8
931.7923	2003.5955	30093.3	29200.65
931.93	2005.1805	30123.2	29229.3
932.0676	2006.7648	29986.9	29097.2
932.2052	2008.3484	29920	29028.15
932.3427	2009.9312	29851.85	28958.25
932.4803	2011.5133	29749.65	28858.25
932.6178	2013.0946	29601.4	28708.3
932.7553	2014.6752	29486.15	28595.4
932.8928	2016.2551	29423.5	28529.35
933.0302	2017.8342	29257.35	28365.85
933.1676	2019.4126	29131.15	28240.5
933.305	2020.9902	29018.1	28126.75
933.4424	2022.5672	28999.95	28108.05
933.5798	2024.1433	28932.4	28035.3
933.7171	2025.7188	28802.4	27911.3
933.8544	2027.2935	28726.6	27835.85
933.9917	2028.8674	28569.65	27679
934.129	2030.4406	28433.65	27543.9
934.2662	2032.0131	28339.35	27452.05
934.4034	2033.5849	28205.4	27308.6
934.5406	2035.1559	28163.05	27272.3
934.6778	2036.7261	28145.1	27253.95
934.8149	2038.2957	28030.15	27138.75
934.952	2039.8645	27977.25	27087.4
935.0891	2041.4325	27963.45	27068.2
935.2262	2042.9998	27805.85	26916.05
935.3632	2044.5664	27741.55	26845.7
935.5002	2046.1323	27636.6	26745.55
935.6372	2047.6974	27524.7	26636.25
935.7742	2049.2617	27427.5	26537.25
935.9111	2050.8254	27414.9	26501.3
936.048	2052.3883	27316.5	26422
936.1849	2053.9504	27237.75	26345.75
936.3218	2055.5118	27106.2	26213.05
936.4586	2057.0725	27033.9	26137.6
936.5955	2058.6325	26934.2	26042.9
936.7323	2060.1917	26818.25	25927.3
936.869	2061.7502	26763.5	25868.8
937.0058	2063.3079	26684.15	25794.5
937.1425	2064.8649	26575.55	25680.8
937.2792	2066.4212	26481.5	25587.7
937.4159	2067.9767	26421.5	25529.8
937.5525	2069.5315	26300.9	25409.5
937.6891	2071.0856	26148.35	25257.95
937.8257	2072.6389	26046.4	25154.65
937.9623	2074.1915	25958.5	25068.4
938.0989	2075.7433	25790.5	24897.7
938.2354	2077.2945	25745.6	24854.5
938.3719	2078.8448	25636.2	24745.25
938.5084	2080.3945	25538.25	24648.25
938.6448	2081.9434	25511.95	24620.55
938.7812	2083.4916	25424.6	24532.15
938.9176	2085.039	25332.6	24438.35
939.054	2086.5857	25253.7	24360.25
939.1903	2088.1317	25203.55	24311.7
939.3267	2089.677	25136.15	24244.45
939.463	2091.2215	25052.6	24160.6
939.5992	2092.7652	24979.3	24085.6
939.7355	2094.3083	24864.25	23970.15
939.8717	2095.8506	24856.8	23965.7
940.0079	2097.3921	24847.7	23957.1
940.1441	2098.933	24690	23799.5
940.2802	2100.4731	24611.7	23721.05
940.4163	2102.0124	24595.7	23697.15
940.5524	2103.5511	24500.25	23607.6
940.6885	2105.089	24435	23542.55
940.8245	2106.6261	24332.1	23440.5
940.9606	2108.1626	24286.75	23392.95
941.0965	2109.6983	24232.9	23312.05
941.2325	2111.2332	24150.2	23257.2
941.3684	2112.7675	24064.9	23171.7
941.5044	2114.301	23927.2	23033.9
941.6403	2115.8337	23982.55	23088.65
941.7761	2117.3657	23867.95	22976.85
941.912	2118.897	23786.05	22892.5
942.0478	2120.4276	23735.85	22839.1
942.1835	2121.9575	23618.35	22728.8
942.3193	2123.4866	23633.5	22731.15
942.455	2125.0149	23523.9	22629.65
942.5907	2126.5426	23361.55	22470.7
942.7264	2128.0695	23275.15	22379.25
942.8621	2129.5956	23237.2	22345.45
942.9977	2131.1211	23185.3	22288
943.1333	2132.6458	23156.3	22263.2
943.2689	2134.1698	23083.7	22189.95
943.4044	2135.693	23033.2	22138.15
943.54	2137.2155	22928.75	22034.35
943.6755	2138.7373	22904.95	22012.7
943.8109	2140.2584	22772.3	21878.9
943.9464	2141.7787	22688.4	21791.25
944.0818	2143.2983	22562.95	21672.9
944.2172	2144.8171	22405.95	21516.3
944.3526	2146.3353	22385.4	21492.2
944.4879	2147.8527	22301.85	21409.7
944.6232	2149.3693	22305.65	21413.1
944.7585	2150.8853	22188.6	21294.45
944.8938	2152.4005	22062.25	21171.1
945.029	2153.9149	22029.25	21137.5
945.1642	2155.4287	22003.8	21111.95
945.2994	2156.9417	21901.05	21007.1
945.4346	2158.454	21853.9	20958.05
945.5697	2159.9655	21779.65	20888.15
945.7048	2161.4764	21760	20867.85
945.8399	2162.9865	21619.35	20728
945.9749	2164.4958	21630.15	20737.4
946.1099	2166.0045	21545	20649.6
946.2449	2167.5124	21504.1	20612.6
946.3799	2169.0195	21406.95	20515.7
946.5148	2170.526	21374	20481.75
946.6498	2172.0317	21263.65	20371.05
946.7846	2173.5367	21193	20299.45
946.9195	2175.0409	21173.9	20283.05
947.0543	2176.5445	21159.85	20269.35
947.1891	2178.0473	21034.3	20142.45
947.3239	2179.5494	20916.1	20019
947.4587	2181.0507	20850.55	19958.9
947.5934	2182.5513	20807.35	19916.05
947.7281	2184.0512	20761.7	19871.35
947.8628	2185.5504	20691.65	19801.4
947.9974	2187.0488	20546.8	19654.1
948.132	2188.5465	20518.95	19626.45
948.2666	2190.0435	20414.9	19523.05
948.4012	2191.5397	20321.1	19428.8
948.5357	2193.0353	20271.85	19381.1
948.6702	2194.5301	20138.9	19245.55
948.8047	2196.0241	20092.85	19199.5
948.9392	2197.5175	20024.7	19132.15
949.0736	2199.0101	19924.2	19027.6
949.208	2200.502	19866.5	18975.15
949.3424	2201.9931	19751.7	18860.95
949.4767	2203.4835	19678.1	18786.85
949.611	2204.9733	19668.75	18773.65
949.7453	2206.4622	19610.4	18716.7
949.8796	2207.9505	19493.6	18597.95
950.0138	2209.438	19392.4	18501.6
950.148	2210.9248	19333.4	18442.2
950.2822	2212.4109	19274.45	18382.75
950.4164	2213.8962	19187.2	18291.7
950.5505	2215.3809	19165.4	18272.05
950.6846	2216.8648	19133.2	18242.7
950.8186	2218.3479	19064	18167.25
950.9527	2219.8304	18990.35	18096.25
951.0867	2221.3121	18900.45	18004.9
951.2207	2222.7931	18846.1	17954.3
951.3546	2224.2733	18735	17841.55
951.4886	2225.7529	18657.3	17765.7
951.6225	2227.2317	18632.2	17736.55
951.7563	2228.7098	18615.4	17724.25
951.8902	2230.1872	18497.25	17605.55
952.024	2231.6638	18455.7	17563.5
952.1578	2233.1397	18378.8	17481.4
952.2916	2234.6149	18308.15	17416.8
952.4253	2236.0894	18229.6	17337
952.559	2237.5632	18168.8	17267.05
952.6927	2239.0362	18125.25	17234.3
952.8263	2240.5085	18052.95	17160.4
952.9599	2241.9801	17982.7	17090.45
953.0935	2243.4509	17943.8	17052.9
953.2271	2244.921	17850.4	16959.25
953.3606	2246.3904	17758.6	16862.5
953.4941	2247.8591	17721.35	16829.3
953.6276	2249.3271	17660.45	16766.5
953.7611	2250.7943	17586.8	16693.4
953.8945	2252.2608	17545.15	16653.9
954.0279	2253.7266	17455.9	16565.3
954.1612	2255.1917	17464.5	16573.15
954.2946	2256.656	17337.2	16445.5
954.4279	2258.1197	17300.65	16407.6
954.5612	2259.5826	17246	16352.4
954.6944	2261.0447	17219.7	16326.7
954.8276	2262.5062	17155.8	16263.2
954.9608	2263.9669	17112.4	16219.9
955.094	2265.4269	17061.3	16169.7
955.2271	2266.8862	16973.55	16082.2
955.3602	2268.3448	16934.65	16043.45
955.4933	2269.8026	16911.65	16017.3
955.6264	2271.2598	16845.95	15954.4
955.7594	2272.7162	16773.05	15884.55
955.8924	2274.1719	16724.3	15831.7
956.0253	2275.6268	16667.75	15777.3
956.1583	2277.0811	16630.9	15739.05
956.2912	2278.5346	16558.5	15667
956.4241	2279.9874	16537.65	15644.55
956.5569	2281.4395	16501.35	15611.55
956.6897	2282.8908	16433.45	15536
956.8225	2284.3414	16414	15520.15
956.9553	2285.7914	16330.55	15437.3
957.088	2287.2406	16245.3	15350.2
957.2207	2288.689	16217.45	15325.75
957.3534	2290.1368	16150.65	15257.55
957.486	2291.5838	16086	15191.65
957.6186	2293.0302	16065.05	15171.1
957.7512	2294.4758	15995.95	15104.5
957.8838	2295.9206	15958.35	15063.45
958.0163	2297.3648	15898.2	15005.7
958.1488	2298.8082	15867.05	14973.05
958.2813	2300.251	15815.1	14922.75
958.4137	2301.693	15744.5	14851.6
958.5461	2303.1343	15738.45	14844.2
958.6785	2304.5748	15678.75	14786.6
958.8108	2306.0147	15599.15	14706.3
958.9432	2307.4538	15522.25	14627.9
959.0754	2308.8922	15480	14589.2
959.2077	2310.3299	15454.35	14562.85
959.3399	2311.7669	15387.4	14495.85
959.4721	2313.2031	15328.8	14435.85
959.6043	2314.6387	15255.4	14363.35
959.7365	2316.0735	15235.75	14343.2
959.8686	2317.5076	15174.2	14281.05
960.0006	2318.941	15160.2	14267.6
960.1327	2320.3737	15092.7	14201.6
960.2647	2321.8056	15050.15	14156.3
960.3967	2323.2369	14981.45	14087.75
960.5287	2324.6674	14912.4	14015.65
960.6606	2326.0972	14859.65	13966.45
960.7925	2327.5263	14815.65	13923.4
960.9244	2328.9547	14782.4	13887.6
961.0562	2330.3823	14737.3	13843.95
961.1881	2331.8092	14731.8	13836.15
961.3198	2333.2355	14627.6	13735
961.4516	2334.661	14593	13702.2
961.5833	2336.0858	14551	13657
961.715	2337.5098	14526.75	13634.5
961.8467	2338.9332	14490.35	13594.5
961.9783	2340.3558	14417.05	13519.4
962.1099	2341.7778	14381.35	13489
962.2415	2343.199	14294.2	13401.1
962.373	2344.6195	14269.4	13378.15
962.5045	2346.0393	14230.3	13338.75
962.636	2347.4583	14206.6	13314.1
962.7675	2348.8767	14138.9	13245
962.8989	2350.2943	14098.25	13205.75
963.0303	2351.7113	14059.95	13164.35
963.1617	2353.1275	14013.85	13122.15
963.293	2354.543	13970.8	13069.15
963.4243	2355.9578	13918.4	13025.6
963.5556	2357.3718	13820.7	12929.05
963.6868	2358.7852	13759.95	12866
963.818	2360.1978	13734.25	12841.1
963.9492	2361.6098	13695.6	12803.75
964.0803	2363.021	13632.2	12735.65
964.2114	2364.4315	13623	12730.85
964.3425	2365.8413	13546.4	12650.95
964.4736	2367.2504	13517.9	12628.3
964.6046	2368.6587	13472.8	12582
964.7356	2370.0664	13370.3	12478.9
964.8666	2371.4733	13322.15	12430.7
964.9975	2372.8795	13269.55	12379.7
965.1284	2374.285	13208.3	12317.75
965.2593	2375.6899	13168	12276.65
965.3901	2377.0939	13095.8	12204.4
965.5209	2378.4973	13005.6	12114.95
965.6517	2379.9	12987.85	12094.7
965.7825	2381.3019	12947.8	12055.75
965.9132	2382.7032	12915.3	12023.25
966.0439	2384.1037	12858	11969.3
966.1745	2385.5035	12813.6	11923.1
966.3051	2386.9027	12765.05	11874.05
966.4357	2388.3011	12721.45	11828.05
966.5663	2389.6987	12713.05	11820.95
966.6968	2391.0957	12651.3	11762.1
966.8273	2392.492	12600.8	11710.05
966.9578	2393.8876	12512.55	11619.8
967.0882	2395.2824	12485.15	11592.4
967.2186	2396.6765	12412.35	11521.45
967.349	2398.07	12355	11464.9
967.4793	2399.4627	12348.8	11457.35
967.6097	2400.8547	12299.2	11406.6
967.7399	2402.246	12228.85	11330.3
967.8702	2403.6366	12178.6	11287.1
968.0004	2405.0265	12103.45	11212.7
968.1306	2406.4156	12085.75	11189.65
968.2607	2407.8041	12029.15	11134.25
968.3909	2409.1918	11974.85	11080.8
968.521	2410.5789	11949.25	11055.6
968.651	2411.9652	11865.65	10972.2
968.781	2413.3508	11838.45	10948
968.911	2414.7358	11808.5	10916.35
969.041	2416.12	11750.75	10860
969.1709	2417.5035	11730.25	10839.75
969.3008	2418.8863	11681.9	10790.5
969.4307	2420.2684	11635.2	10744.05
969.5606	2421.6497	11592.1	10701
969.6904	2423.0304	11523.85	10633.45
969.8201	2424.4104	11486.1	10594.65
969.9499	2425.7896	11448.45	10557.3
970.0796	2427.1682	11392.2	10499.95
970.2093	2428.546	11381.45	10487.25
970.3389	2429.9232	11355.35	10461.75
970.4685	2431.2996	11317.4	10426
970.5981	2432.6753	11281.8	10391.1
970.7277	2434.0503	11261.05	10370.3
970.8572	2435.4246	11194.95	10304.35
970.9867	2436.7982	11166.15	10271.8
971.1161	2438.1711	11127.05	10236.45
971.2456	2439.5433	11080.05	10187
971.375	2440.9148	11045.85	10152.3
971.5043	2442.2856	11012.4	10121.35
971.6336	2443.6557	10969.75	10077.4
971.7629	2445.025	10894.8	10001.5
971.8922	2446.3937	10899.15	10007.9
972.0214	2447.7617	10848.4	9956.75
972.1506	2449.1289	10833.2	9942
972.2798	2450.4955	10771.25	9874.6
972.4089	2451.8613	10749.05	9858.45
972.538	2453.2265	10726.6	9835.05
972.6671	2454.5909	10684.85	9791.4
972.7961	2455.9546	10661.95	9770.15
972.9251	2457.3177	10609.9	9719.7
973.0541	2458.68	10572.8	9681.2
973.1831	2460.0416	10577.25	9684.3
973.312	2461.4025	10574.9	9681
973.4408	2462.7627	10545.1	9640.95
973.5697	2464.1222	10493.25	9601.65
973.6985	2465.4811	10456.6	9564.6
973.8273	2466.8392	10385.4	9494.25
973.956	2468.1966	10369.1	9474.55
974.0847	2469.5533	10381	9486.55
974.2134	2470.9093	10339.4	9447.2
974.3421	2472.2645	10289.05	9393.85
974.4707	2473.6191	10272.05	9379.45
974.5993	2474.973	10215.75	9322.4
974.7278	2476.3262	10205.1	9312.7
974.8563	2477.6787	10148.9	9256.85
974.9848	2479.0305	10093.35	9202.5
975.1132	2480.3816	10082.6	9188.35
975.2417	2481.7319	10033.6	9141.05
975.37	2483.0816	9979.45	9086.55
975.4984	2484.4306	9945.6	9049.4
975.6267	2485.7789	9916.7	9024
975.755	2487.1264	9868.6	8974.45
975.8833	2488.4733	9829.7	8941.1
976.0115	2489.8195	9802.35	8893.95
976.1397	2491.165	9741.95	8845
976.2678	2492.5097	9711.75	8818
976.3959	2493.8538	9660.45	8768.1
976.524	2495.1972	9606.5	8714.1
976.6521	2496.5398	9572.25	8679.4
976.7801	2497.8818	9566.25	8670.6
976.9081	2499.2231	9546.35	8656.1
977.036	2500.5637	9482	8587.85
977.164	2501.9035	9462.35	8569.2
977.2918	2503.2427	9433.6	8537.55
977.4197	2504.5812	9406.2	8514.9
977.5475	2505.919	9373.6	8482.75
977.6753	2507.256	9352.9	8461.6
977.8031	2508.5924	9298.8	8405.9
977.9308	2509.9281	9271.1	8373.45
978.0585	2511.2631	9235.45	8341.35
978.1861	2512.5974	9226.75	8336.55
978.3137	2513.9309	9184.6	8292.95
978.4413	2515.2638	9156.45	8227.45
978.5689	2516.596	9116	8225.5
978.6964	2517.9275	9088.85	8196.5
978.8239	2519.2583	9054.65	8162.35
978.9513	2520.5884	9005.2	8112.4
979.0788	2521.9178	8969.1	8076.55
979.2062	2523.2465	8934.05	8044.8
979.3335	2524.5745	8890.35	7997.75
979.4608	2525.9018	8875.65	7983.5
979.5881	2527.2284	8847	7955.7
979.7154	2528.5543	8823.95	7934.45
979.8426	2529.8796	8798.4	7907.1
979.9698	2531.2041	8789.65	7897.3
980.0969	2532.5279	8770.35	7879.55
980.224	2533.851	8729.95	7837.7
980.3511	2535.1735	8707.45	7816.35
980.4781	2536.4952	8685.85	7792.65
980.6052	2537.8163	8678.1	7784.4
980.7321	2539.1366	8629.25	7738.55
980.8591	2540.4562	8602.7	7710.7
980.986	2541.7752	8602.35	7711.4
981.1129	2543.0935	8590.65	7698.65
981.2397	2544.411	8582.85	7690.2
981.3665	2545.7279	8521.8	7627.85
981.4933	2547.0441	8510.95	7619.35
981.62	2548.3596	8502.8	7608.35
981.7467	2549.6744	8473	7580.5
981.8734	2550.9885	8427.1	7532.8
982.0001	2552.3019	8400.95	7509.05
982.1267	2553.6146	8378.95	7486.5
982.2532	2554.9266	8341.35	7449.65
982.3798	2556.2379	8306.1	7410.9
982.5063	2557.5485	8306.5	7416.05
982.6327	2558.8585	8265.6	7366.1
982.7592	2560.1677	8291.9	7395.65
982.8856	2561.4762	8260.3	7367.6
983.0119	2562.7841	8230.9	7338
983.1383	2564.0913	8207	7315.05
983.2646	2565.3977	8219.65	7329.6
983.3908	2566.7035	8153.25	7262.5
983.517	2568.0086	8165.4	7270.75
983.6432	2569.313	8132.9	7240.2
983.7694	2570.6167	8109.95	7214.7
983.8955	2571.9197	8075.65	7182.65
984.0216	2573.222	8092.45	7195.85
984.1476	2574.5236	8059.4	7166.95
984.2737	2575.8246	8029.9	7136.15
984.3996	2577.1248	8024.85	7131.8
984.5256	2578.4244	8004.5	7112.3
984.6515	2579.7232	7976.05	7084.15
984.7774	2581.0214	7955.3	7038.65
984.9032	2582.3189	7945.95	7055.45
985.029	2583.6157	7940.45	7044.4
985.1548	2584.9118	7913.15	7022.2
985.2806	2586.2072	7885.5	6993.65
985.4063	2587.5019	7846.2	6953.9
985.5319	2588.7959	7841.55	6948.35
985.6576	2590.0893	7841.45	6946.85
985.7832	2591.3819	7809.25	6918.6
985.9087	2592.6739	7766.95	6875.65
986.0343	2593.9652	7729.55	6835.2
986.1597	2595.2557	7720.4	6828.15
986.2852	2596.5456	7708.5	6814.5
986.4106	2597.8348	7673.15	6781.55
986.536	2599.1234	7637.35	6747.7
986.6614	2600.4112	7618.4	6725.9
986.7867	2601.6983	7595.95	6700.35
986.912	2602.9848	7568.9	6676.3
987.0372	2604.2705	7524.9	6624.75
987.1624	2605.5556	7516.05	6623.55
987.2876	2606.84	7501.95	6609.45
987.4128	2608.1237	7467.2	6573.8
987.5379	2609.4067	7436.45	6545.9
987.6629	2610.689	7405.8	6506.4
987.788	2611.9707	7377.95	6480.3
987.913	2613.2516	7357	6461.5
988.0379	2614.5319	7318.95	6426.9
988.1629	2615.8115	7277.75	6384.65
988.2878	2617.0903	7257.9	6362.95
988.4126	2618.3685	7239.4	6347.3
988.5375	2619.6461	7191.1	6299.55
988.6622	2620.9229	7180.9	6288.95
988.787	2622.199	7164.85	6272.25
988.9117	2623.4745	7142.5	6250.35
989.0364	2624.7493	7128.9	6235.75
989.161	2626.0234	7076.3	6186.35
989.2857	2627.2968	7083.15	6190
989.4102	2628.5695	7042.2	6147.7
989.5348	2629.8415	7014.4	6121.85
989.6593	2631.1128	6982.25	6087.3
989.7837	2632.3835	6949.95	6057.45
989.9082	2633.6535	6910.8	6016.9
990.0326	2634.9228	6909.55	6017.9
990.1569	2636.1914	6890.25	5998.8
990.2812	2637.4593	6876.7	5978.25
990.4055	2638.7265	6826.9	5933.45
990.5298	2639.9931	6807.45	5916.8
990.654	2641.259	6814.3	5920.3
990.7782	2642.5242	6789.75	5898.1
990.9023	2643.7887	6774.7	5880.8
991.0264	2645.0525	6748.15	5856.85
991.1505	2646.3156	6710.4	5816.8
991.2745	2647.5781	6680.1	5788.2
991.3985	2648.8398	6664.5	5773.75
991.5225	2650.1009	6651.45	5749.2
991.6464	2651.3613	6619.05	5724.45
991.7703	2652.6211	6609.75	5718.45
991.8942	2653.8801	6591.9	5700.6
992.018	2655.1385	6570.1	5675.45
992.1418	2656.3961	6546.6	5654.9
992.2655	2657.6531	6506.15	5613.5
992.3892	2658.9094	6505.65	5612.85
992.5129	2660.1651	6514.55	5621.45
992.6366	2661.42	6492.2	5598.5
992.7602	2662.6743	6479.8	5585.45
992.8837	2663.9279	6449.85	5556.65
993.0073	2665.1808	6420.7	5527.75
993.1307	2666.433	6407.75	5515.55
993.2542	2667.6846	6396.4	5505.85
993.3776	2668.9354	6387.2	5492.6
993.501	2670.1856	6357.65	5464.8
993.6244	2671.4351	6346.3	5455.4
993.7477	2672.6839	6344.85	5451
993.8709	2673.9321	6323.95	5430.6
993.9942	2675.1795	6298.1	5404.9
994.1174	2676.4263	6281.85	5389.95
994.2405	2677.6724	6251.6	5361.65
994.3637	2678.9179	6245.9	5353.45
994.4868	2680.1626	6235.95	5347.1
994.6098	2681.4067	6214.9	5325.35
994.7328	2682.6501	6194.1	5303.35
994.8558	2683.8928	6171.9	5281.65
994.9788	2685.1348	6150.25	5258.25
995.1017	2686.3761	6119.8	5228.25
995.2245	2687.6168	6093.8	5202.7
995.3474	2688.8568	6058.1	5164.35
995.4702	2690.0961	6072.55	5180.65
995.5929	2691.3348	6064.85	5172.2
995.7156	2692.5727	6046.05	5154.3
995.8383	2693.81	6013.45	5123.65
995.961	2695.0466	5989.1	5099.1
996.0836	2696.2826	5967.75	5072.75
996.2062	2697.5178	5960.1	5065.1
996.3287	2698.7524	5929.3	5037.15
996.4512	2699.9863	5911.1	5017.1
996.5737	2701.2195	5871.1	4979.3
996.6961	2702.452	5877.35	4985.1
996.8185	2703.6839	5863.5	4968.85
996.9408	2704.9151	5854.75	4962.85
997.0631	2706.1456	5827.55	4936.45
997.1854	2707.3755	5822.05	4930
997.3077	2708.6046	5824.5	4931.1
997.4299	2709.8331	5808.35	4917.05
997.552	2711.0609	5766.8	4873.7
997.6742	2712.2881	5770.15	4878.55
997.7963	2713.5145	5750.3	4855.8
997.9183	2714.7403	5753.9	4861.35
998.0403	2715.9654	5741.3	4847.95
998.1623	2717.1899	5738.6	4833.55
998.2842	2718.4136	5741.05	4848.1
998.4062	2719.6367	5712.1	4819.35
998.528	2720.8591	5708	4808.15
998.6498	2722.0809	5693.05	4800.45
998.7716	2723.3019	5668.35	4771.55
998.8934	2724.5223	5670.35	4774.95
999.0151	2725.7421	5658.2	4764.15
999.1368	2726.9611	5637.9	4742.3
999.2584	2728.1795	5632.95	4736.2
999.38	2729.3972	5604.4	4711.15
999.5016	2730.6142	5565.85	4667.3
999.6231	2731.8306	5537.8	4643.8
999.7446	2733.0462	5515.25	4620.75
999.8661	2734.2612	5474.1	4578.1
999.9875	2735.4756	5420.15	4527.7
1000.1089	2736.6892	5384.95	4492.35
1000.2302	2737.9022	5374.3	4484.2
1000.3515	2739.1145	5338.2	4444.7
1000.4728	2740.3262	5307.05	4407.15
1000.594	2741.5372	5288.65	4396.2
1000.7152	2742.7475	5258.65	4365.35
1000.8363	2743.9571	5239.15	4346.5
1000.9575	2745.1661	5207.6	4311.45
1001.0785	2746.3744	5197.25	4304.7
1001.1996	2747.582	5174.55	4284.45
1001.3206	2748.7889	5148.6	4256.05
1001.4415	2749.9952	5128.85	4236.3
1001.5625	2751.2008	5085.95	4192.25
1001.6833	2752.4057	5093.9	4198.15
1001.8042	2753.61	5060.75	4166.9
1001.925	2754.8136	5052.35	4158.35
1002.0458	2756.0165	5020.75	4127.55
1002.1665	2757.2188	5015.7	4125.8
1002.2872	2758.4204	5008.85	4119.05
1002.4078	2759.6213	4981.35	4088.95
1002.5285	2760.8215	4968.45	4073.7
1002.649	2762.0211	4957.8	4064.6
1002.7696	2763.22	4934.2	4038.3
1002.8901	2764.4182	4923.75	4029.3
1003.0106	2765.6158	4916.35	4024.85
1003.131	2766.8127	4876.85	3985.2
1003.2514	2768.009	4869.15	3977
1003.3717	2769.2045	4870.7	3979
1003.492	2770.3994	4857.55	3963.55
1003.6123	2771.5936	4820.7	3927
1003.7325	2772.7872	4812.05	3922.2
1003.8527	2773.9801	4785.9	3892.9
1003.9729	2775.1723	4785.6	3877.25
1004.093	2776.3639	4746.75	3856.55
1004.2131	2777.5548	4742	3849.2
1004.3331	2778.745	4743.5	3849.75
1004.4531	2779.9346	4719.45	3826.5
1004.5731	2781.1235	4711.15	3817.85
1004.693	2782.3117	4713.7	3822.3
1004.8129	2783.4992	4688.7	3798.4
1004.9328	2784.6861	4675.85	3784.9
1005.0526	2785.8723	4662.05	3768.8
1005.1723	2787.0579	4663.2	3770.8
1005.2921	2788.2428	4650.8	3756.45
1005.4118	2789.427	4630.1	3739.15
1005.5314	2790.6106	4638.4	3746.35
1005.651	2791.7935	4631	3737.05
1005.7706	2792.9757	4624.25	3731.9
1005.8902	2794.1573	4617.55	3724.55
1006.0097	2795.3382	4621.9	3730.65
1006.1291	2796.5184	4630.85	3741.45
1006.2485	2797.698	4629.35	3736.15
1006.3679	2798.8769	4636.8	3746.55
1006.4873	2800.0551	4624.3	3731.25
1006.6066	2801.2327	4638.95	3744.05
1006.7258	2802.4096	4633.75	3741.75
1006.8451	2803.5859	4623	3730.3
1006.9642	2804.7615	4647.75	3755.25
1007.0834	2805.9364	4656.4	3764.85
1007.2025	2807.1106	4676.6	3785.1
1007.3216	2808.2842	4683.8	3789.15
1007.4406	2809.4572	4719.1	3827.25
1007.5596	2810.6294	4732.25	3840
1007.6785	2811.801	4757.85	3866.8
1007.7975	2812.972	4783.9	3893.65
1007.9163	2814.1423	4828.3	3936.55
1008.0352	2815.3119	4862.1	3970.35
1008.154	2816.4808	4889.65	3998.05
1008.2727	2817.6491	4937.1	4043.6
1008.3914	2818.8167	4947.3	4057.7
1008.5101	2819.9837	5005.65	4109.25
1008.6288	2821.15	5027.6	4137.25
1008.7474	2822.3157	5065.05	4173.65
1008.8659	2823.4807	5085.6	4193.6
1008.9844	2824.645	5122.5	4228.4
1009.1029	2825.8086	5166.6	4275.6
1009.2214	2826.9716	5194.3	4302.65
1009.3398	2828.134	5235.55	4342.85
1009.4581	2829.2957	5256.7	4363.25
1009.5764	2830.4567	5276.7	4388.6
1009.6947	2831.617	5284.6	4392.8
1009.813	2832.7767	5277.7	4385.75
1009.9312	2833.9358	5285.2	4393.8
1010.0493	2835.0941	5253.55	4359.85
1010.1675	2836.2519	5251.3	4359.05
1010.2855	2837.4089	5234.2	4342.75
1010.4036	2838.5653	5214.1	4320.8
1010.5216	2839.7211	5203.35	4313.75
1010.6396	2840.8761	5204.15	4310.85
1010.7575	2842.0306	5211.15	4320.8
1010.8754	2843.1843	5235	4343.3
1010.9932	2844.3374	5284.05	4391.4
1011.111	2845.4899	5338.75	4445.75
1011.2288	2846.6417	5388.7	4497.85
1011.3465	2847.7928	5475.3	4583
1011.4642	2848.9433	5542.3	4648.7
1011.5818	2850.0931	5617.8	4727.15
1011.6995	2851.2422	5678.05	4783.45
1011.817	2852.3907	5730.3	4839.15
1011.9345	2853.5385	5809.05	4916.4
1012.052	2854.6857	5882.3	4962.55
1012.1695	2855.8323	5885.3	4993.2
1012.2869	2856.9781	5919.1	5027.25
1012.4042	2858.1233	5957.25	5066.45
1012.5216	2859.2679	6011.8	5120.5
1012.6389	2860.4118	6048.05	5155.35
1012.7561	2861.555	6058.15	5160.6
1012.8733	2862.6976	6088.1	5195.55
1012.9905	2863.8395	6104.7	5213.6
1013.1076	2864.9808	6106.25	5213.6
1013.2247	2866.1214	6120.65	5231
1013.3417	2867.2614	6119.8	5227.7
1013.4587	2868.4007	6118.35	5225.35
1013.5757	2869.5393	6096.8	5203.3
1013.6926	2870.6773	6123.5	5226.35
1013.8095	2871.8146	6133.5	5238.05
1013.9263	2872.9513	6116.45	5221.8
1014.0431	2874.0874	6085.15	5193.05
1014.1599	2875.2227	6069	5176.8
1014.2766	2876.3574	6057.8	5166.15
1014.3933	2877.4915	6019.9	5126.6
1014.51	2878.6249	5962.1	5072.8
1014.6266	2879.7577	5947.1	5056.2
1014.7431	2880.8898	5928.95	5027.3
1014.8596	2882.0212	5894.2	5003.65
1014.9761	2883.152	5880.3	4988.3
1015.0925	2884.2821	5848.5	4959.45
1015.2089	2885.4116	5829.95	4939.95
1015.3253	2886.5405	5802.95	4912.15
1015.4416	2887.6686	5813.15	4919.2
1015.5579	2888.7962	5796.75	4904.15
1015.6741	2889.923	5785.75	4895.6
1015.7903	2891.0493	5805.9	4913.75
1015.9065	2892.1748	5808.1	4917.7
1016.0226	2893.2997	5801.6	4910.15
1016.1387	2894.424	5793.85	4903.95
1016.2547	2895.5476	5809.4	4919.05
1016.3707	2896.6706	5813.3	4922.45
1016.4866	2897.7929	5838.35	4946.65
1016.6025	2898.9145	5876.95	4984.6
1016.7184	2900.0355	5892.85	5001.4
1016.8342	2901.1559	5922.1	5031.1
1016.95	2902.2756	5939.8	5047.55
1017.0658	2903.3946	5941.4	5049.65
1017.1815	2904.513	5957.95	5064.4
1017.2971	2905.6308	5982.45	5091.65
1017.4127	2906.7479	5987.75	5095.85
1017.5283	2907.8643	5995.65	5103.95
1017.6439	2908.9801	6016.25	5124.3
1017.7594	2910.0953	6004.75	5113.9
1017.8748	2911.2098	5998.65	5103.7
1017.9902	2912.3236	5996.45	5098
1018.1056	2913.4368	5955.1	5059.25
1018.2209	2914.5494	5920.7	5029.35
1018.3362	2915.6613	5907.6	5011.75
1018.4515	2916.7725	5861.85	4967.85
1018.5667	2917.8831	5827.7	4934
1018.6819	2918.9931	5783.35	4891.25
1018.797	2920.1024	5747.1	4855.65
1018.9121	2921.211	5715.3	4825.35
1019.0271	2922.319	5687.95	4794.35
1019.1421	2923.4264	5663.9	4771.1
1019.2571	2924.5331	5649.6	4758.6
1019.372	2925.6391	5640.5	4748.85
1019.4869	2926.7445	5611.85	4722.25
1019.6017	2927.8493	5593.35	4703.15
1019.7165	2928.9534	5591	4698.35
1019.8313	2930.0569	5582.4	4685.7
1019.946	2931.1597	5541.15	4648.55
1020.0606	2932.2619	5536.6	4644.45
1020.1753	2933.3634	5532.7	4640.85
1020.2899	2934.4643	5517.6	4619.1
1020.4044	2935.5645	5475.95	4577.25
1020.5189	2936.6641	5435.3	4538.7
1020.6334	2937.763	5372.85	4482.1
1020.7478	2938.8613	5297.5	4405.8
1020.8622	2939.959	5255.7	4358.95
1020.9765	2941.056	5164.05	4271.6
1021.0908	2942.1523	5084.55	4190.5
1021.2051	2943.248	4978.55	4086.2
1021.3193	2944.3431	4871	3980.5
1021.4334	2945.4375	4766.1	3873.4
1021.5476	2946.5313	4660.1	3770.15
1021.6617	2947.6244	4568.6	3675.9
1021.7757	2948.7169	4447.65	3553.85
1021.8897	2949.8087	4338	3445.75
1022.0037	2950.8999	4242.3	3351.3
1022.1176	2951.9904	4148.7	3258.35
1022.2315	2953.0803	4066.05	3173.8
1022.3453	2954.1696	3989.65	3098.6
1022.4591	2955.2582	3921.3	3030.45
1022.5728	2956.3462	3874.45	2984.15
1022.6865	2957.4335	3845	2953.65
1022.8002	2958.5202	3782.25	2888.2
1022.9138	2959.6062	3755.2	2862.85
1023.0274	2960.6916	3711	2819.85
1023.141	2961.7764	3686.35	2793.6
1023.2545	2962.8605	3680.55	2789.05
1023.3679	2963.9439	3651	2759.8
1023.4813	2965.0267	3637.25	2744.4
1023.5947	2966.1089	3636.85	2723.95
1023.708	2967.1905	3591.8	2700.85
1023.8213	2968.2714	3595.55	2705.1
1023.9346	2969.3516	3572.45	2681.55
1024.0478	2970.4312	3578.65	2679.55
1024.1609	2971.5102	3561.35	2671.35
1024.274	2972.5885	3555.25	2665.1
1024.3871	2973.6662	3552.6	2656.75
1024.5002	2974.7432	3546.95	2656.7
1024.6132	2975.8196	3514.4	2623.85
1024.7261	2976.8954	3497.1	2606.95
1024.839	2977.9705	3484.2	2592
1024.9519	2979.045	3472.2	2581.8
1025.0647	2980.1188	3438.35	2547.05
1025.1775	2981.192	3412.7	2523.9
1025.2902	2982.2645	3389.75	2496.85
1025.4029	2983.3364	3351.85	2459.15
1025.5156	2984.4077	3315.6	2423.65
1025.6282	2985.4783	3296.9	2400.05
1025.7407	2986.5483	3259.1	2368.7
1025.8532	2987.6177	3211.4	2322.6
1025.9657	2988.6864	3165.95	2275.05
1026.0782	2989.7545	3136.9	2244.45
1026.1906	2990.8219	3097.2	2206
1026.3029	2991.8887	3058.65	2165
1026.4152	2992.9548	3012.6	2120.95
1026.5275	2994.0204	2984.9	2093.65
1026.6397	2995.0852	2944.75	2054.65
1026.7519	2996.1495	2922.6	2028.65
1026.864	2997.2131	2891.05	1999.3
1026.9761	2998.276	2872.8	1980.9
1027.0882	2999.3383	2848.15	1957.55
1027.2002	3000.4	2822.5	1932.35
1027.3122	3001.4611	2797.25	1906.3
1027.4241	3002.5215	2783.05	1893.4
1027.536	3003.5812	2764.05	1873.55
1027.6478	3004.6404	2737.35	1847.1
1027.7596	3005.6989	2723.45	1829.75
1027.8714	3006.7567	2715.75	1823
1027.9831	3007.8139	2717.15	1803.5
1028.0947	3008.8705	2680.15	1787.85
1028.2064	3009.9264	2682.7	1788.95
1028.3179	3010.9818	2659.95	1769.1
1028.4295	3012.0364	2657.5	1767.15
1028.541	3013.0905	2650.35	1758.7
1028.6524	3014.1439	2643.1	1751.85
1028.7638	3015.1966	2635.95	1744.8
1028.8752	3016.2487	2626.3	1735.25
1028.9865	3017.3002	2627.8	1730.55
1029.0978	3018.3511	2621.75	1731.65
1029.209	3019.4013	2609.05	1719.55
1029.3202	3020.4509	2603.55	1713.4
1029.4314	3021.4998	2607.35	1715.4
1029.5425	3022.5481	2597.15	1706.1
1029.6535	3023.5958	2595.7	1705.3
1029.7645	3024.6428	2586.85	1695.65
1029.8755	3025.6892	2576.55	1687.5
1029.9864	3026.735	2587.3	1697.8
1030.0973	3027.7802	2585.7	1694.85
1030.2082	3028.8247	2562.55	1671.1
1030.319	3029.8685	2574.85	1685.2
1030.4297	3030.9118	2563.7	1671.25
1030.5404	3031.9544	2567.8	1677
1030.6511	3032.9963	2561.95	1671.9
1030.7617	3034.0376	2565.6	1676.6
1030.8723	3035.0783	2558.95	1664.25
1030.9829	3036.1184	2555.6	1660.9
1031.0934	3037.1578	2556.95	1667.4
1031.2038	3038.1966	2553	1660.75
1031.3142	3039.2348	2543.4	1653.15
1031.4246	3040.2723	2546.8	1647.9
1031.5349	3041.3092	2534.5	1644.3
1031.6452	3042.3455	2527.95	1637.15
1031.7554	3043.3811	2522.95	1632.7
1031.8656	3044.4161	2510.65	1619.25
1031.9758	3045.4505	2509.25	1619.15
1032.0859	3046.4842	2498.6	1606.7
1032.1959	3047.5173	2487.55	1597.45
1032.3059	3048.5498	2476.8	1584.4
1032.4159	3049.5816	2459.85	1569.45
1032.5258	3050.6128	2455.25	1564.8
1032.6357	3051.6434	2439.85	1547.75
1032.7455	3052.6734	2417.55	1524.75
1032.8553	3053.7027	2421	1531.5
1032.9651	3054.7314	2408.4	1517.35
1033.0748	3055.7594	2387.9	1498.15
1033.1845	3056.7868	2389	1496.5
1033.2941	3057.8136	2367.2	1477.6
1033.4037	3058.8398	2357.4	1467.85
1033.5132	3059.8653	2348.1	1457.5
1033.6227	3060.8902	2344.75	1454.9
1033.7321	3061.9145	2330.5	1438.35
1033.8415	3062.9381	2327.35	1437.8
1033.9509	3063.9612	2336.2	1427.55
1034.0602	3064.9835	2305.9	1416.05
1034.1694	3066.0053	2289.9	1398
1034.2787	3067.0264	2277.8	1388.05
1034.3878	3068.0469	2276.35	1386.05
1034.497	3069.0668	2261.65	1368.65
1034.6061	3070.086	2249.55	1359.4
1034.7151	3071.1046	2233.9	1343.65
1034.8241	3072.1226	2223.65	1333.6
1034.9331	3073.1399	2214	1323.6
1035.042	3074.1567	2197.2	1304.15
1035.1508	3075.1727	2182.95	1291.35
1035.2597	3076.1882	2171.05	1279.6
1035.3684	3077.203	2147.75	1257.25
1035.4772	3078.2173	2144.2	1252.9
1035.5859	3079.2308	2145.6	1251
1035.6945	3080.2438	2120.2	1228.1
1035.8031	3081.2561	2119.3	1228.85
1035.9117	3082.2678	2105.2	1212.4
1036.0202	3083.2789	2089.05	1197.3
1036.1286	3084.2893	2086.4	1194.55
1036.2371	3085.2991	2062.7	1173.25
1036.3454	3086.3083	2062.4	1168.15
1036.4538	3087.3169	2044.5	1149.55
1036.562	3088.3248	2042.4	1149.4
1036.6703	3089.3321	2045.8	1154.4
1036.7785	3090.3388	2029.1	1139.95
1036.8866	3091.3449	2015.55	1126.95
1036.9948	3092.3503	2008.15	1115.1
1037.1028	3093.3551	2001.05	1112.55
1037.2108	3094.3593	1992.9	1103.75
1037.3188	3095.3629	1990.95	1101.5
1037.4267	3096.3658	1976.85	1085.9
1037.5346	3097.3681	1976.15	1086.2
1037.6425	3098.3698	1966.7	1075.1
1037.7503	3099.3708	1966.65	1070.45
1037.858	3100.3713	1953.8	1062.95
1037.9657	3101.3711	1942.6	1052.7
1038.0734	3102.3702	2036.75	1030.6
1038.181	3103.3688	1941.75	1050.05
1038.2886	3104.3667	1928	1039.5
1038.3961	3105.364	1914.5	1024.15
1038.5036	3106.3607	1903.65	1011.9
1038.611	3107.3568	1897.1	1004.9
1038.7184	3108.3522	1905.35	1015.25
1038.8257	3109.347	1896.45	1004.35
1038.933	3110.3412	1893.85	999.1
1039.0403	3111.3348	1882.8	992.25
1039.1475	3112.3277	1869.9	979.05
1039.2547	3113.32	1869.2	980.3
1039.3618	3114.3117	1871.55	980.2
1039.4689	3115.3028	1863.4	974.2
1039.5759	3116.2932	1856.6	962.65
1039.6829	3117.2831	1844.3	948.3
1039.7898	3118.2723	1842.6	951.25
1039.8967	3119.2608	1839.15	946.7
1040.0035	3120.2488	1830.95	939.05
1040.1103	3121.2361	1822.85	931.1
1040.2171	3122.2229	1815.5	925.7
1040.3238	3123.209	1807.95	916.25
1040.4305	3124.1944	1809.05	918.25
1040.5371	3125.1793	1800.7	909.25
1040.6437	3126.1635	1790.1	900.2
1040.7502	3127.1471	1794.45	902.95
1040.8567	3128.1301	1785.8	894.9
1040.9631	3129.1125	1785.15	896
1041.0695	3130.0942	1774.15	883.5
1041.1759	3131.0753	1786.9	887.55
1041.2822	3132.0558	1777.35	884.65
1041.3884	3133.0357	1766.9	874.55
1041.4946	3134.015	1756.95	865
1041.6008	3134.9936	1763.65	872.5
1041.7069	3135.9716	1770.6	858.4
1041.813	3136.949	1756.45	864
1041.919	3137.9258	1744.45	849
1042.025	3138.902	1742.6	846.15
1042.1309	3139.8775	1737	846.5
1042.2368	3140.8524	1731.7	842.7
1042.3427	3141.8267	1733	841.5
1042.4485	3142.8004	1712.75	821.15
1042.5542	3143.7735	1721.4	825.15
1042.6599	3144.7459	1727	834.9
1042.7656	3145.7178	1715	823.75
1042.8712	3146.689	1712.3	823.45
1042.9768	3147.6596	1700.25	810.1
1043.0823	3148.6295	1704	811.85
1043.1878	3149.5989	1685.4	794.65
1043.2932	3150.5676	1681.2	792.7
1043.3986	3151.5357	1682	794.05
1043.5039	3152.5032	1679.25	789.8
1043.6092	3153.4701	1676.5	786.35
1043.7145	3154.4364	1676	781.8
1043.8197	3155.402	1664.4	774.95
1043.9248	3156.367	1660.15	768.25
1044.03	3157.3315	1704.45	772.65
1044.135	3158.2952	1649.8	757.3
1044.24	3159.2584	1648.5	757.9
1044.345	3160.221	1641.7	750.4
1044.4499	3161.1829	1642.35	752.9
1044.5548	3162.1442	1640.35	749.75
1044.6596	3163.105	1623	731.9
1044.7644	3164.065	1629.45	739.5
1044.8692	3165.0245	1625.55	732.15
1044.9739	3165.9834	1619.95	730.85
1045.0785	3166.9416	1614.25	724.45
1045.1831	3167.8993	1603.7	713.15
1045.2877	3168.8563	1604.4	713.85
1045.3922	3169.8127	1599.85	709.85
1045.4966	3170.7684	1601.35	713.4
1045.6011	3171.7236	1596.05	704.45
1045.7054	3172.6782	1590.2	699.4
1045.8098	3173.6321	1587.8	696.85
1045.914	3174.5854	1584.85	690.2
1046.0183	3175.5381	1586.3	696.4
1046.1224	3176.4902	1571.95	682.55
1046.2266	3177.4417	1573.8	685.7
1046.3307	3178.3926	1562.4	672.05
1046.4347	3179.3428	1560.95	670.8
1046.5387	3180.2924	1565.3	673.5
1046.6427	3181.2415	1556.3	664.7
1046.7466	3182.1899	1554.65	664.3
1046.8504	3183.1377	1543.7	654.2
1046.9542	3184.0848	1546.4	652.05
1047.058	3185.0314	1543.55	651.8
1047.1617	3185.9773	1540.55	648.5
1047.2654	3186.9227	1533.6	642.25
1047.369	3187.8674	1529.75	639.35
1047.4726	3188.8115	1533.55	638.5
1047.5761	3189.755	1531.4	641.35
1047.6796	3190.6979	1520.6	630.25
1047.783	3191.6402	1518.65	630.05
1047.8864	3192.5818	1515.05	625.9
1047.9898	3193.5229	1532.8	617.4
1048.0931	3194.4633	1515.95	625.65
1048.1963	3195.4031	1499.8	609.15
1048.2995	3196.3423	1499.95	609.2
1048.4027	3197.2809	1498.2	606.7
1048.5058	3198.2189	1494.6	605.2
1048.6089	3199.1563	1505.35	605.45
1048.7119	3200.0931	1488.9	600.5
1048.8148	3201.0292	1487.15	598.7
1048.9178	3201.9648	1478.7	587
1049.0206	3202.8997	1476.6	583.5
1049.1235	3203.834	1469.85	580.25
1049.2262	3204.7677	1468	578.3
1049.329	3205.7008	1474.5	583.5
1049.4317	3206.6333	1466.35	577.7
1049.5343	3207.5652	1468.7	577.65
1049.6369	3208.4964	1456.8	566.15
1049.7394	3209.4271	1462.15	573.15
1049.8419	3210.3571	1449.05	560.35
1049.9444	3211.2865	1452.65	561.65
1050.0468	3212.2154	1447.8	555.1
1050.1491	3213.1436	1450.45	558.85
1050.2514	3214.0712	1454.55	558
1050.3537	3214.9982	1441.2	550.15
1050.4559	3215.9246	1436.85	547.8
1050.5581	3216.8503	1437.6	548.1
1050.6602	3217.7755	1431.15	541.4
1050.7623	3218.7001	1434.15	544.35
1050.8643	3219.624	1426.05	536.2
1050.9663	3220.5473	1425.7	534.35
1051.0682	3221.4701	1420.5	528.25
1051.1701	3222.3922	1419.85	526.85
1051.2719	3223.3137	1425.2	534.6
1051.3737	3224.2346	1414.7	525.1
1051.4754	3225.1549	1407.55	516.7
1051.5771	3226.0746	1403.95	516.2
1051.6788	3226.9937	1406.8	517.45
1051.7804	3227.9121	1399.95	512.5
1051.8819	3228.83	1403.5	514.8
1051.9834	3229.7473	1400.05	508.9
1052.0849	3230.6639	1397.35	506.2
1052.1863	3231.5799	1390.15	500.15
1052.2876	3232.4954	1392.95	502.5
1052.3889	3233.4102	1382.45	494.1
1052.4902	3234.3244	1389.4	499.3
1052.5914	3235.238	1379.85	489.1
1052.6926	3236.151	1404.55	491.9
1052.7937	3237.0634	1373.9	483.6
1052.8948	3237.9752	1368.6	479.2
1052.9958	3238.8864	1365.55	475.65
1053.0968	3239.797	1363.7	473.5
1053.1977	3240.7069	1368.95	476.3
1053.2986	3241.6163	1360.95	469.4
1053.3994	3242.5251	1353.8	465.45
1053.5002	3243.4332	1354.7	468.05
1053.6009	3244.3408	1351.8	462.4
1053.7016	3245.2477	1350.8	462.75
1053.8022	3246.154	1344.6	456.1
1053.9028	3247.0598	1347.45	456.1
1054.0034	3247.9649	1336.7	446.8
1054.1039	3248.8694	1340.6	451.05
1054.2043	3249.7733	1336.9	447.45
1054.3047	3250.6766	1334.2	444.6
1054.4051	3251.5793	1331	441.25
1054.5054	3252.4814	1326.85	437.7
1054.6056	3253.3829	1322.25	432.75
1054.7058	3254.2838	1322.05	432.25
1054.806	3255.1841	1317.5	429.15
1054.9061	3256.0838	1314.65	424.4
1055.0061	3256.9829	1314.05	425.9
1055.1062	3257.8814	1308.05	415.35
1055.2061	3258.7792	1308	414.75
1055.306	3259.6765	1304.95	412.7
1055.4059	3260.5731	1292.95	404.5
1055.5057	3261.4692	1290.95	401.35
1055.6055	3262.3647	1282.45	391.55
1055.7052	3263.2595	1281.45	391.2
1055.8049	3264.1538	1278.5	388.85
1055.9045	3265.0474	1273.9	384.7
1056.0041	3265.9404	1257.25	370.35
1056.1036	3266.8329	1262.85	373.95
1056.2031	3267.7247	1257.05	359.05
1056.3025	3268.616	1242.15	353.5
1056.4019	3269.5066	1232.15	341.85
1056.5013	3270.3966	1228.5	337.6
1056.6005	3271.286	1214.25	325
