Software Version:	3.9.2.0
Unit SN:	10000200
Spectrometer SN:	6960
Date:	3/6/2024 9:39:31 AM
Data Line Index:	25
Spectral Points:	2048
Integration time (ms):	125
Averages:	20
Delay (ms):	30
Sequence Number:	1
Processing:	dark subtract
Laser Power (mW):	300
Laser Current (mA):	822
Laser Diode Temp (C):	25
Laser Case Temp (C):	23.9
System Temp (C):	23.7
Spectrometer Temp (C):	21.4
CCD Temp (C):	-0.034
Secondary Temp (C):	20.008
Heatsink Temp (C):	17.096
CCDPCB Temp (C):	30.805
SecondaryPCB Temp (C):	25.491

Wavelength	RamanShift	Raw Counts	Dark Subtracted
787.061	30.1047	467.35	60.75
787.2016	32.3739	472.35	66.7
787.3422	34.6426	472.7	67.35
787.4828	36.9109	480.2	73.6
787.6235	39.1787	488.75	77.95
787.7642	41.4461	496.6	78.1
787.9049	43.7131	506.2	87.2
788.0456	45.9796	511.3	89.7
788.1863	48.2456	519	93.7
788.3271	50.5112	531.25	102.95
788.4679	52.7764	539.45	107.15
788.6087	55.0411	552.5	116.4
788.7496	57.3054	562.9	121.65
788.8904	59.5692	568.2	124.55
789.0313	61.8326	580.55	134.6
789.1722	64.0955	592.95	142.7
789.3132	66.3579	610.85	158.4
789.4541	68.6199	629.85	172.65
789.5951	70.8815	658.25	195.5
789.7361	73.1426	728.55	261.85
789.8771	75.4032	891.4	422.05
790.0181	77.6634	1306.55	834.7
790.1592	79.9231	2268.3	1793.55
790.3003	82.1824	4336.85	3859.2
790.4414	84.4412	7983.75	7498.25
790.5825	86.6995	12919.65	12426.75
790.7237	88.9574	17813.75	17315.5
790.8648	91.2148	21390.5	20888.7
791.006	93.4717	23293.6	22786.7
791.1472	95.7282	24196.6	23689.5
791.2885	97.9842	24630.95	24121.85
791.4297	100.2398	24783	24269.1
791.571	102.4949	24843.9	24328.65
791.7123	104.7495	24884.65	24363.75
791.8536	107.0036	24846.6	24325.3
791.9949	109.2573	24897.5	24377.85
792.1363	111.5105	24908.5	24385.65
792.2777	113.7632	24896.05	24373.55
792.4191	116.0154	24905.7	24370.8
792.5605	118.2672	25019.6	24491.5
792.7019	120.5185	25063.25	24533.7
792.8434	122.7693	25078.65	24542.8
792.9849	125.0197	25122	24582.15
793.1264	127.2696	25162.5	24621
793.2679	129.519	25276.4	24731.85
793.4094	131.7679	25303.1	24758.25
793.551	134.0163	25356.9	24810.35
793.6926	136.2642	25432	24876.45
793.8342	138.5117	25466.85	24911.4
793.9758	140.7587	25474.75	24918.9
794.1175	143.0052	25518.3	24959.4
794.2591	145.2512	25514.1	24950.1
794.4008	147.4967	25486.2	24923
794.5425	149.7417	25470.55	24902.5
794.6842	151.9863	25461.4	24891.05
794.826	154.2304	25533.5	24959.05
794.9677	156.4739	25450.05	24868.55
795.1095	158.717	25499.8	24921.7
795.2513	160.9596	25521	24937.3
795.3931	163.2017	25542.2	24955.6
795.535	165.4433	25572	24987.8
795.6768	167.6844	25587.6	24997.95
795.8187	169.925	25588.85	24995.2
795.9606	172.1651	25547	24951.3
796.1025	174.4047	25601.45	25000.65
796.2445	176.6439	25582.05	24981.7
796.3864	178.8825	25605.65	24999.65
796.5284	181.1206	25643.2	25034.1
796.6704	183.3582	25648.25	25035.75
796.8124	185.5954	25690.1	25074.6
796.9544	187.832	25707.45	25090.3
797.0965	190.0681	25793.55	25174.6
797.2386	192.3037	25827.9	25205.4
797.3806	194.5388	25842.55	25216.95
797.5228	196.7734	25910.95	25282.1
797.6649	199.0075	26008.65	25376.2
797.807	201.2411	26115.9	25486
797.9492	203.4742	26163.6	25531.3
798.0914	205.7068	26256.45	25620
798.2336	207.9389	26314.8	25677.75
798.3758	210.1704	26378.1	25746.55
798.518	212.4015	26352.15	25729.9
798.6603	214.632	26434.05	25816.95
798.8025	216.862	26493.1	25877.35
798.9448	219.0915	26526.35	25908.45
799.0871	221.3205	26578.45	25959.9
799.2294	223.549	26626.9	26011.45
799.3718	225.777	26670.85	26053.05
799.5141	228.0044	26721.7	26097.2
799.6565	230.2314	26778	26153
799.7989	232.4578	26743.9	26113.1
799.9413	234.6837	26772.4	26132.25
800.0837	236.909	26809.3	26166.6
800.2262	239.1339	26854.4	26189.45
800.3687	241.3582	26872.4	26222.85
800.5111	243.582	26888.95	26208.5
800.6536	245.8053	26952.25	26284.9
800.7961	248.0281	26974.45	26310.3
800.9387	250.2503	26989.75	26324.15
801.0812	252.472	27020.4	26351.45
801.2238	254.6932	27070.6	26404.45
801.3664	256.9139	27044.25	26373.7
801.509	259.134	27064.15	26387
801.6516	261.3536	27100.85	26430.85
801.7942	263.5727	27169.2	26496.1
801.9369	265.7912	27182.65	26509.45
802.0795	268.0092	27198.5	26523.2
802.2222	270.2267	27256	26583.1
802.3649	272.4436	27285.8	26607.9
802.5076	274.6601	27313.2	26625.3
802.6504	276.8759	27293.05	26608.65
802.7931	279.0913	27374	26692.25
802.9359	281.3061	27347	26663
803.0787	283.5204	27437.05	26751.05
803.2215	285.7341	27462.6	26773.4
803.3643	287.9473	27539.6	26838.9
803.5071	290.16	27470	26777.05
803.6499	292.3721	27459.2	26771.5
803.7928	294.5837	27470.65	26780.8
803.9357	296.7947	27438.9	26751.25
804.0786	299.0052	27423.5	26733.9
804.2215	301.2152	27374.2	26679.8
804.3644	303.4246	27429.05	26738.05
804.5074	305.6334	27412	26718.6
804.6503	307.8418	27406.85	26710.55
804.7933	310.0495	27352.7	26653.5
804.9363	312.2568	27317.3	26619.55
805.0793	314.4635	27240.1	26540.25
805.2223	316.6696	27202.95	26501.4
805.3653	318.8752	27086.25	26375.75
805.5084	321.0802	27046.1	26342.3
805.6514	323.2847	27086.05	26378.85
805.7945	325.4887	27081.4	26374.95
805.9376	327.692	27083.45	26375.1
806.0807	329.8949	27161.05	26449
806.2238	332.0972	27144.25	26432.6
806.367	334.2989	27212.7	26499.6
806.5101	336.5001	27216.6	26503.6
806.6533	338.7007	27174.3	26458.85
806.7965	340.9008	27187.85	26470.55
806.9397	343.1003	27142.75	26422.9
807.0829	345.2992	27131.6	26411.4
807.2261	347.4976	27118.85	26397
807.3693	349.6955	27127.6	26401.65
807.5126	351.8927	27152.85	26426
807.6559	354.0895	27079.65	26343.4
807.7991	356.2856	27053.75	26325.75
807.9424	358.4812	27019.65	26289.9
808.0857	360.6763	27074.55	26342.95
808.2291	362.8707	26975.8	26240.9
808.3724	365.0646	27080.05	26343.7
808.5158	367.258	27030.65	26290.2
808.6591	369.4508	26981.8	26239
808.8025	371.643	27007	26266.1
808.9459	373.8346	26969.1	26226.9
809.0893	376.0257	26931.4	26186.55
809.2327	378.2162	26916.5	26172.15
809.3762	380.4062	26973.6	26230.9
809.5196	382.5956	26885.7	26145.55
809.6631	384.7844	26856.1	26119.5
809.8066	386.9726	26789.95	26054.5
809.9501	389.1603	26758.75	26024.05
810.0936	391.3474	26753.3	25970
810.2371	393.5339	26717.1	25980.1
810.3806	395.7199	26619.9	25883.25
810.5241	397.9052	26644.15	25906.45
810.6677	400.09	26584.05	25843.9
810.8113	402.2743	26626.05	25885.1
810.9548	404.4579	26580.85	25836.1
811.0984	406.641	26720.55	25973.5
811.2421	408.8235	26668.05	25918.7
811.3857	411.0054	26746.85	25995.55
811.5293	413.1868	26877.05	26124.55
811.673	415.3675	26854.75	26097.9
811.8166	417.5477	26852.1	26095.2
811.9603	419.7273	26753.7	25996.55
812.104	421.9064	26627.7	25861.85
812.2477	424.0848	26521.75	25760.2
812.3914	426.2627	26461.8	25700.65
812.5351	428.4399	26398	25636.4
812.6788	430.6166	26327.7	25563.55
812.8226	432.7928	26241.6	25473.55
812.9663	434.9683	26153.75	25388.2
813.1101	437.1432	26153.4	25384.2
813.2539	439.3176	26006.2	25239.65
813.3977	441.4914	25906.05	25137.5
813.5415	443.6645	25953	25185.7
813.6853	445.8371	25852.6	25082.35
813.8291	448.0091	25723.5	24955.5
813.973	450.1806	25675.4	24905.35
814.1168	452.3514	25589.8	24815.75
814.2607	454.5216	25609.55	24829.5
814.4046	456.6913	25466.9	24693.35
814.5485	458.8603	25479.25	24704.5
814.6924	461.0288	25493.55	24720.35
814.8363	463.1967	25432.45	24658.45
814.9802	465.3639	25457.45	24682.35
815.1241	467.5306	25390.05	24613.7
815.2681	469.6967	25359.65	24583.2
815.412	471.8622	25224.2	24449.05
815.556	474.0271	25273.35	24498.65
815.7	476.1914	25274.4	24495.2
815.844	478.3551	25243.15	24466.4
815.988	480.5182	25261.05	24482.6
816.132	482.6807	25271	24490.35
816.276	484.8426	25279.4	24498.35
816.4201	487.0039	25346	24566.95
816.5641	489.1647	25364.7	24582.4
816.7082	491.3248	25384.85	24602.35
816.8522	493.4843	25398.1	24616.2
816.9963	495.6432	25356.25	24572.6
817.1404	497.8015	25264	24476.2
817.2845	499.9592	25273.05	24486.25
817.4286	502.1163	25202.85	24417.2
817.5727	504.2728	25154.9	24366.95
817.7168	506.4287	25188.65	24403.7
817.861	508.5839	25103.3	24315.25
818.0051	510.7386	25082.25	24294.25
818.1493	512.8927	25117.05	24320.45
818.2935	515.0461	25096.2	24307.25
818.4377	517.199	25076.4	24284.3
818.5818	519.3512	25088.2	24296.5
818.726	521.5029	25108.35	24310.15
818.8703	523.6539	25088.2	24292.95
819.0145	525.8043	25096.7	24303
819.1587	527.9541	25030.85	24233.8
819.303	530.1033	24904.1	24108.9
819.4472	532.2519	24847.8	24052.1
819.5915	534.3999	24857.3	24060.25
819.7357	536.5472	24855.8	24058.75
819.88	538.694	24839.65	24044.8
820.0243	540.8401	24875.5	24078.7
820.1686	542.9856	24865.8	24069.5
820.3129	545.1305	24848.25	24049.65
820.4572	547.2748	24852.1	24054.05
820.6016	549.4185	24817.6	24017
820.7459	551.5615	24769.2	23970.6
820.8902	553.704	24763.3	23964.7
821.0346	555.8458	24679.15	23880.9
821.1789	557.987	24730.35	23929.7
821.3233	560.1276	24721.4	23921.6
821.4677	562.2675	24776.1	23980.45
821.6121	564.4069	24787	23987.95
821.7565	566.5456	24733	23931.95
821.9009	568.6837	24709.3	23906.6
822.0453	570.8212	24599.9	23798.7
822.1897	572.958	24545.45	23738.35
822.3342	575.0942	24431.55	23628
822.4786	577.2299	24383.75	23579.35
822.6231	579.3648	24308.5	23505.55
822.7675	581.4992	24183.95	23378.45
822.912	583.6329	24114.75	23308.75
823.0565	585.766	24066.5	23262
823.201	587.8985	24048.9	23243.1
823.3454	590.0304	24031.2	23213.15
823.4899	592.1616	24007.7	23195.9
823.6345	594.2922	23993.35	23186.3
823.779	596.4222	23866.8	23057.2
823.9235	598.5515	23812.05	23000.5
824.068	600.6802	23752.95	22943.1
824.2126	602.8083	23599.8	22791.3
824.3571	604.9358	23560.1	22747.6
824.5017	607.0626	23536.3	22725.15
824.6462	609.1888	23496.05	22682.1
824.7908	611.3144	23502.85	22688.7
824.9354	613.4393	23468.75	22656.3
825.08	615.5636	23514.85	22700.4
825.2246	617.6873	23524.4	22710.45
825.3692	619.8103	23541.3	22726.6
825.5138	621.9327	23443.15	22624
825.6584	624.0544	23426.15	22612.8
825.803	626.1756	23366.8	22551.95
825.9477	628.2961	23302.7	22486.95
826.0923	630.4159	23253.8	22438.6
826.237	632.5351	23228.55	22410.75
826.3816	634.6537	23194.85	22376.45
826.5263	636.7716	23191.05	22369.45
826.6709	638.8889	23134.2	22313.55
826.8156	641.0056	23168.75	22349.05
826.9603	643.1216	23149.95	22329.55
827.105	645.237	23173.95	22350.9
827.2497	647.3518	23134.5	22313.45
827.3944	649.4659	23083.35	22263.05
827.5391	651.5793	23013.55	22194.05
827.6838	653.6922	22972.3	22151.65
827.8285	655.8043	22963.2	22142.6
827.9733	657.9159	22919.7	22094.65
828.118	660.0268	22878.45	22053.35
828.2627	662.137	22847.5	22024.9
828.4075	664.2466	22846.85	22020.3
828.5522	666.3556	22814.05	21988.4
828.697	668.4639	22700.7	21873.4
828.8418	670.5716	22755.3	21929.35
828.9865	672.6786	22748.25	21921.8
829.1313	674.785	22647.9	21819.15
829.2761	676.8907	22550.15	21723.3
829.4209	678.9958	22534.5	21711.7
829.5657	681.1002	22477.1	21649.35
829.7105	683.204	22466.8	21638
829.8553	685.3072	22452.15	21621.15
830.0001	687.4097	22386.2	21558.65
830.1449	689.5115	22367.45	21537.05
830.2898	691.6127	22381.8	21554.5
830.4346	693.7132	22298.8	21468.7
830.5794	695.8131	22331.15	21489.05
830.7243	697.9123	22296.95	21466.2
830.8691	700.0109	22306.35	21476.1
831.014	702.1089	22278.9	21447.35
831.1588	704.2061	22263.25	21433.9
831.3037	706.3028	22239.3	21405.3
831.4486	708.3987	22222.35	21390.85
831.5935	710.4941	22201.95	21370.4
831.7383	712.5887	22211.8	21378.7
831.8832	714.6827	22171.75	21336.5
832.0281	716.7761	22142.3	21308.75
832.173	718.8688	22122.9	21287.6
832.3179	720.9608	22094.5	21257.55
832.4628	723.0522	22111.15	21271.1
832.6077	725.1429	22032.7	21197.6
832.7527	727.233	22041.3	21205.85
832.8976	729.3224	22140.35	21304.6
833.0425	731.4112	22087.65	21251.45
833.1874	733.4993	22074.7	21237.25
833.3324	735.5867	21935.9	21098.9
833.4773	737.6735	21928.8	21090.45
833.6222	739.7596	21820.35	20982.55
833.7672	741.845	21749.15	20910.65
833.9122	743.9298	21697.95	20860.2
834.0571	746.014	21675.55	20835.8
834.2021	748.0974	21674.75	20835
834.347	750.1802	21608.7	20769.3
834.492	752.2624	21540.3	20702.2
834.637	754.3439	21433.75	20592.6
834.782	756.4247	21395.45	20547.55
834.9269	758.5048	21323.05	20481.85
835.0719	760.5843	21329.75	20488.6
835.2169	762.6631	21289.1	20448.95
835.3619	764.7413	21243.25	20404.65
835.5069	766.8188	21269.7	20428.05
835.6519	768.8956	21256.45	20414.3
835.7969	770.9718	21278.5	20440.6
835.9419	773.0473	21218.3	20379.55
836.0869	775.1221	21161.3	20321.05
836.232	777.1962	21079.85	20237.45
836.377	779.2697	21077.1	20234.4
836.522	781.3426	21130.85	20268.55
836.667	783.4147	21093.35	20250.55
836.8121	785.4862	21056.8	20216.75
836.9571	787.557	20969.6	20125.45
837.1021	789.6271	20906.85	20063.55
837.2472	791.6966	20786.7	19943.95
837.3922	793.7654	20689.25	19845.95
837.5373	795.8335	20630.5	19788.65
837.6823	797.901	20575.45	19731.75
837.8274	799.9678	20510.9	19665.45
837.9724	802.0339	20460.55	19616.7
838.1175	804.0993	20479.55	19626.15
838.2626	806.1641	20398.7	19555
838.4076	808.2282	20331.9	19485
838.5527	810.2916	20310.35	19465.1
838.6978	812.3544	20287.35	19441.9
838.8428	814.4164	20253.05	19408.1
838.9879	816.4778	20267.15	19419.9
839.133	818.5385	20238.65	19393.95
839.2781	820.5986	20247.35	19401.95
839.4232	822.658	20245.3	19399.65
839.5682	824.7166	20210.45	19363.4
839.7133	826.7747	20297.2	19453.1
839.8584	828.832	20299.45	19451.95
840.0035	830.8886	20208.75	19359.75
840.1486	832.9446	20243.05	19393.6
840.2937	834.9999	20153.8	19305.45
840.4388	837.0545	20092.8	19241.9
840.5839	839.1085	20003.6	19156.5
840.729	841.1618	19928.7	19075.85
840.8741	843.2143	19896.55	19048.3
841.0192	845.2662	19800.6	18950.6
841.1643	847.3175	19798.5	18951.55
841.3095	849.368	19733.7	18884.95
841.4546	851.4179	19677.85	18830.2
841.5997	853.467	19631.55	18782.1
841.7448	855.5155	19612.6	18763.8
841.8899	857.5633	19573.35	18723.2
842.0351	859.6105	19529.65	18680.1
842.1802	861.6569	19529.65	18678.55
842.3253	863.7027	19500.9	18649.7
842.4704	865.7478	19440.9	18589.4
842.6156	867.7922	19414.1	18563.45
842.7607	869.8359	19360.4	18508.85
842.9058	871.8789	19357.9	18505.15
843.0509	873.9212	19354.4	18473.5
843.1961	875.9629	19290.95	18438.45
843.3412	878.0039	19296.9	18444.3
843.4863	880.0441	19259.75	18409.55
843.6315	882.0837	19271.35	18418.9
843.7766	884.1226	19259.05	18406.75
843.9218	886.1609	19258.95	18407.6
844.0669	888.1984	19304.15	18452.7
844.212	890.2352	19391.05	18540.25
844.3572	892.2714	19319.9	18463.55
844.5023	894.3069	19293.4	18438.95
844.6475	896.3416	19164.1	18310.3
844.7926	898.3757	19151.15	18295.9
844.9377	900.4091	19110.6	18255.85
845.0829	902.4418	19099.05	18241.9
845.228	904.4739	18999.55	18145.9
845.3732	906.5052	19001.35	18146.5
845.5183	908.5358	19030.35	18178.1
845.6635	910.5658	18928.1	18072.35
845.8086	912.595	18880.75	18023.5
845.9538	914.6236	18809.35	17955
846.0989	916.6515	18772.3	17916.1
846.2441	918.6786	18714	17856.1
846.3892	920.7051	18726.1	17867.5
846.5344	922.7309	18729.85	17875.4
846.6795	924.756	18615.35	17758.25
846.8246	926.7804	18639.55	17783.8
846.9698	928.8041	18515.1	17656.1
847.1149	930.8272	18564.8	17707.35
847.2601	932.8495	18443.5	17584.65
847.4052	934.8711	18444.65	17586.55
847.5504	936.892	18400.55	17541.95
847.6955	938.9123	18353.6	17494.45
847.8407	940.9318	18345.45	17486.15
847.9858	942.9506	18297.25	17440.5
848.131	944.9688	18202.7	17346.95
848.2761	946.9862	18154.45	17295.1
848.4213	949.003	18052.05	17194.8
848.5664	951.019	18020.7	17162.4
848.7115	953.0344	17971.1	17113
848.8567	955.0491	17963.9	17105.65
849.0018	957.063	17923.4	17064.9
849.147	959.0763	17941	17082.95
849.2921	961.0888	17893.5	17033.35
849.4373	963.1007	17864.9	17006
849.5824	965.1119	17850.4	16996.35
849.7275	967.1223	17825.05	16966.1
849.8727	969.1321	17762.85	16903.55
850.0178	971.1412	17778.85	16920.9
850.1629	973.1495	17696.65	16837.55
850.3081	975.1572	17721.5	16815.7
850.4532	977.1641	17697.4	16837.65
850.5983	979.1704	17621.85	16762.05
850.7435	981.1759	17584.35	16725
850.8886	983.1808	17582.95	16720.35
851.0337	985.1849	17521.65	16650.65
851.1788	987.1884	17471.1	16609.6
851.324	989.1911	17458.8	16594.75
851.4691	991.1932	17396.3	16533.55
851.6142	993.1945	17337.7	16481.4
851.7593	995.1951	17249.85	16388.65
851.9045	997.1951	17243.1	16377
852.0496	999.1943	17176.3	16315.65
852.1947	1001.1928	17133.05	16269.25
852.3398	1003.1906	17045.25	16184.6
852.4849	1005.1877	17057.4	16195.6
852.63	1007.1841	16984.1	16123.1
852.7751	1009.1798	16963.15	16102
852.9202	1011.1748	16901	16038.6
853.0653	1013.1691	16858.6	15997.8
853.2104	1015.1627	16764.1	15902.1
853.3555	1017.1556	16669.7	15806.75
853.5006	1019.1477	16598.5	15735
853.6457	1021.1392	16496.45	15635.65
853.7908	1023.1299	16461.2	15599.25
853.9359	1025.12	16370.6	15504.7
854.081	1027.1093	16287.65	15428.8
854.2261	1029.0979	16302.9	15441.75
854.3712	1031.0859	16277.8	15415.85
854.5163	1033.0731	16215.1	15350.75
854.6613	1035.0596	16176.05	15313.85
854.8064	1037.0454	16111.3	15245.3
854.9515	1039.0304	16098.8	15235.65
855.0965	1041.0148	15982.7	15118.95
855.2416	1042.9985	15929	15062.35
855.3867	1044.9814	15899.9	15037.05
855.5317	1046.9636	15862.65	14998.25
855.6768	1048.9452	15795.7	14933.2
855.8219	1050.926	15821.65	14959
855.9669	1052.9061	15789.8	14927.1
856.112	1054.8855	15733.65	14870.6
856.257	1056.8642	15700.55	14836.45
856.4021	1058.8421	15692.95	14823.55
856.5471	1060.8194	15651.6	14785.9
856.6921	1062.7959	15609.5	14745.35
856.8372	1064.7717	15565	14696.75
856.9822	1066.7469	15535.2	14669.05
857.1272	1068.7213	15522.3	14653.65
857.2723	1070.695	15515	14648
857.4173	1072.6679	15440.8	14575.5
857.5623	1074.6402	15425.55	14560.55
857.7073	1076.6117	15469.5	14600.6
857.8523	1078.5826	15458.1	14594
857.9973	1080.5527	15353.2	14485.2
858.1423	1082.5221	15271.05	14406.25
858.2873	1084.4908	15247.6	14383.75
858.4323	1086.4587	15202.9	14336.75
858.5773	1088.426	15161.95	14294.8
858.7223	1090.3925	15107.7	14237.55
858.8673	1092.3584	15094	14229.05
859.0123	1094.3235	15027.6	14163.85
859.1573	1096.2879	14992.4	14125.65
859.3022	1098.2515	14982.15	14117.25
859.4472	1100.2145	15033.2	14168.15
859.5922	1102.1767	14988.9	14119.7
859.7371	1104.1382	14991.85	14125.6
859.8821	1106.099	15002.4	14133.75
860.027	1108.0591	14961.75	14097.35
860.172	1110.0185	14979.55	14112.3
860.3169	1111.9771	15015.6	14149.95
860.4619	1113.9351	14960.7	14093.75
860.6068	1115.8923	14946.25	14079.3
860.7517	1117.8488	14931.9	14061.95
860.8967	1119.8045	14868.05	14001.95
861.0416	1121.7596	14763.55	13894.1
861.1865	1123.7139	14666.7	13798.8
861.3314	1125.6675	14616.3	13750.25
861.4763	1127.6204	14609.95	13742.9
861.6212	1129.5726	14572.55	13703.3
861.7661	1131.524	14563.65	13696.7
861.911	1133.4748	14521.35	13652.35
862.0559	1135.4248	14447.7	13579.75
862.2008	1137.3741	14360.4	13492.5
862.3457	1139.3226	14339.3	13470.05
862.4905	1141.2705	14318.85	13450.9
862.6354	1143.2176	14266.95	13394.3
862.7803	1145.164	14263.95	13394.45
862.9251	1147.1097	14226.05	13357.05
863.07	1149.0546	14224.9	13355.7
863.2148	1150.9989	14183.45	13315.1
863.3597	1152.9424	14152.45	13284.4
863.5045	1154.8852	14126.05	13256.9
863.6493	1156.8272	14125.5	13258.75
863.7942	1158.7686	14125.6	13251.05
863.939	1160.7092	14055.95	13185.4
864.0838	1162.6491	14007.65	13136.35
864.2286	1164.5883	14010.95	13141.55
864.3734	1166.5267	13999.8	13130.65
864.5182	1168.4644	14001.35	13132.7
864.663	1170.4014	13997.75	13124
864.8078	1172.3377	13993.3	13124.45
864.9526	1174.2732	14015.3	13146.1
865.0974	1176.2081	14071.6	13203.4
865.2421	1178.1421	14139.8	13268.15
865.3869	1180.0755	14163.7	13296.65
865.5317	1182.0082	14195.3	13327.1
865.6764	1183.9401	14114.9	13245.85
865.8212	1185.8713	14044.75	13175.35
865.9659	1187.8017	13987.3	13118.75
866.1106	1189.7315	13859.3	12992.15
866.2554	1191.6605	13734.55	12866.1
866.4001	1193.5888	13648.45	12779.9
866.5448	1195.5163	13623.6	12753.65
866.6895	1197.4432	13531.05	12659.45
866.8342	1199.3693	13500.05	12629.55
866.9789	1201.2947	13417.7	12545.35
867.1236	1203.2193	13368.8	12498.7
867.2683	1205.1432	13382.3	12510.8
867.413	1207.0664	13336.5	12467.95
867.5576	1208.9889	13278.65	12405
867.7023	1210.9106	13270.7	12399.2
867.847	1212.8316	13198.8	12329.5
867.9916	1214.7519	13200.65	12321.1
868.1363	1216.6715	13151.1	12283.15
868.2809	1218.5903	13135.5	12266.1
868.4255	1220.5084	13131.4	12259.15
868.5701	1222.4257	13123.6	12253.1
868.7148	1224.3424	13061.3	12192.4
868.8594	1226.2583	13066	12191.3
869.004	1228.1735	13072.75	12203.2
869.1486	1230.0879	13032.05	12161.45
869.2932	1232.0016	12992.35	12122.55
869.4377	1233.9146	12996	12125.1
869.5823	1235.8269	12986	12113.15
869.7269	1237.7384	13012.65	12141.85
869.8715	1239.6492	12928.75	12059.45
870.016	1241.5592	12938.2	12066.25
870.1606	1243.4686	12944	12073.65
870.3051	1245.3772	12940.25	12068.9
870.4496	1247.285	12977.95	12107
870.5941	1249.1922	13017.05	12146.2
870.7387	1251.0986	13054.15	12182.8
870.8832	1253.0042	13031.6	12158.95
871.0277	1254.9092	13092.4	12221.1
871.1722	1256.8134	13130.2	12261.55
871.3167	1258.7169	13176.65	12305.95
871.4611	1260.6196	13174.5	12305.05
871.6056	1262.5216	13181.15	12307.6
871.7501	1264.4229	13169.85	12299.4
871.8945	1266.3234	13131.85	12260.55
872.039	1268.2232	13067.3	12193.05
872.1834	1270.1223	13022.6	12149.5
872.3278	1272.0207	12970.6	12098.7
872.4723	1273.9183	12912.55	12033.75
872.6167	1275.8151	12907.95	12036.95
872.7611	1277.7113	12940.7	12068.3
872.9055	1279.6067	12952.25	12080.45
873.0499	1281.5014	13010.1	12135.75
873.1943	1283.3953	13107.6	12232.8
873.3386	1285.2885	13260.1	12389.85
873.483	1287.181	13348.85	12474.85
873.6274	1289.0727	13398.15	12524.6
873.7717	1290.9637	13351.55	12477.15
873.9161	1292.854	13293.95	12421.25
874.0604	1294.7435	13135.55	12263
874.2047	1296.6323	13072.05	12199.25
874.349	1298.5204	12979.6	12101.65
874.4933	1300.4077	12906.35	12033.65
874.6376	1302.2943	12865.6	11993
874.7819	1304.1802	12848.7	11976.15
874.9262	1306.0653	12781.1	11908.05
875.0705	1307.9497	12742.9	11870.1
875.2147	1309.8333	12692.95	11819.55
875.359	1311.7162	12674.8	11801.45
875.5032	1313.5984	12660.95	11785.45
875.6475	1315.4798	12610.2	11726.25
875.7917	1317.3605	12558.1	11680.25
875.9359	1319.2405	12578.5	11703.2
876.0801	1321.1197	12541.25	11664.85
876.2243	1322.9982	12466.95	11590.7
876.3685	1324.876	12438.95	11566.6
876.5127	1326.753	12343.25	11470.3
876.6569	1328.6293	12294.7	11421.85
876.801	1330.5048	12241.5	11365
876.9452	1332.3796	12131.5	11258.6
877.0893	1334.2537	12108.05	11209
877.2335	1336.127	12027.3	11156
877.3776	1337.9996	11999.55	11125.95
877.5217	1339.8714	11990.85	11117.95
877.6658	1341.7426	11973.95	11057.7
877.8099	1343.6129	11946.7	11074.15
877.954	1345.4826	11876.2	11001.65
878.0981	1347.3515	11849.45	10975
878.2422	1349.2196	11805.1	10930.4
878.3862	1351.087	11824.95	10952.85
878.5303	1352.9537	11813.55	10938.2
878.6743	1354.8197	11798.65	10924.6
878.8184	1356.6849	11793.9	10921.1
878.9624	1358.5493	11796.55	10922.95
879.1064	1360.4131	11782.65	10909.75
879.2504	1362.276	11788.7	10918.3
879.3944	1364.1383	11786.65	10911.75
879.5384	1365.9998	11773.95	10895.05
879.6823	1367.8606	11725.05	10848.95
879.8263	1369.7206	11693.35	10817.8
879.9702	1371.5799	11678.65	10803.25
880.1142	1373.4384	11662.95	10787.75
880.2581	1375.2962	11605.1	10730.55
880.402	1377.1533	11529.2	10655
880.5459	1379.0096	11461.95	10585.45
880.6898	1380.8652	11413.6	10540.6
880.8337	1382.7201	11368.3	10491.85
880.9776	1384.5742	11277.65	10405.4
881.1215	1386.4275	11237.6	10361.9
881.2653	1388.2802	11191.85	10317.65
881.4092	1390.132	11155.1	10280.45
881.553	1391.9832	11139.1	10261.65
881.6968	1393.8336	11083.9	10207.9
881.8406	1395.6832	11059.85	10183.05
881.9844	1397.5322	10995.5	10121.45
882.1282	1399.3803	10959.65	10080.5
882.272	1401.2278	10911.35	10037.75
882.4158	1403.0745	10891.7	10017.65
882.5595	1404.9204	10852.65	9979.2
882.7033	1406.7656	10823.65	9948.05
882.847	1408.6101	10751.75	9876.15
882.9908	1410.4538	10746	9871
883.1345	1412.2968	10713.15	9837.55
883.2782	1414.139	10667.85	9794.05
883.4219	1415.9805	10649.65	9775
883.5656	1417.8213	10624.2	9729
883.7092	1419.6613	10607.75	9733.6
883.8529	1421.5006	10611.05	9734.8
883.9965	1423.3391	10628.05	9753.45
884.1402	1425.1769	10590.6	9712.4
884.2838	1427.0139	10640.25	9764.45
884.4274	1428.8502	10695.55	9819.7
884.571	1430.6858	10696	9819.4
884.7146	1432.5206	10686.55	9810.6
884.8582	1434.3547	10697.1	9821.4
885.0018	1436.188	10653.4	9779.35
885.1453	1438.0206	10626.7	9751.5
885.2889	1439.8524	10600.75	9723.15
885.4324	1441.6835	10577.65	9701.15
885.5759	1443.5139	10554.2	9675.95
885.7194	1445.3435	10523.2	9646.8
885.8629	1447.1724	10535.5	9662.8
886.0064	1449.0005	10529.95	9653.95
886.1499	1450.8279	10491.8	9617.55
886.2933	1452.6545	10486	9613.3
886.4368	1454.4804	10498.35	9624.3
886.5802	1456.3056	10438.15	9554.3
886.7237	1458.13	10418.25	9544.7
886.8671	1459.9536	10407.8	9532.35
887.0105	1461.7766	10344.5	9469.9
887.1539	1463.5987	10303.5	9425.1
887.2972	1465.4202	10236.2	9360.25
887.4406	1467.2409	10188.7	9315
887.584	1469.0608	10150.6	9275.8
887.7273	1470.88	10109.2	9231.95
887.8706	1472.6984	10092.5	9218.05
888.0139	1474.5161	10042.65	9165.35
888.1572	1476.3331	10003.65	9129.95
888.3005	1478.1493	9970.7	9095.1
888.4438	1479.9648	9963.35	9088.75
888.5871	1481.7795	9936.25	9060.3
888.7303	1483.5935	9929.5	9052.8
888.8736	1485.4067	9912.85	9036.45
889.0168	1487.2192	9923.25	9046.65
889.16	1489.031	9891.4	9013.6
889.3032	1490.842	9857.85	8984.3
889.4464	1492.6522	9861.1	8987.15
889.5896	1494.4618	9829.15	8953.8
889.7327	1496.2705	9820.15	8945.85
889.8759	1498.0785	9782.2	8906.85
890.019	1499.8858	9774.9	8897.4
890.1622	1501.6924	9736.3	8862.6
890.3053	1503.4981	9724.35	8847.75
890.4484	1505.3032	9689.65	8814.15
890.5914	1507.1075	9663.65	8787.2
890.7345	1508.911	9630.85	8755.45
890.8776	1510.7138	9646.1	8771.15
891.0206	1512.5159	9594.85	8721
891.1637	1514.3172	9561.45	8684.85
891.3067	1516.1178	9515.3	8640.7
891.4497	1517.9176	9534.35	8655.6
891.5927	1519.7166	9487.45	8613.6
891.7357	1521.515	9449.25	8567.15
891.8786	1523.3126	9437.55	8559
892.0216	1525.1094	9392.55	8514.55
892.1645	1526.9055	9364.5	8489
892.3074	1528.7008	9317.8	8442.3
892.4503	1530.4954	9270.7	8394.2
892.5932	1532.2893	9249	8373.8
892.7361	1534.0824	9211.1	8330.6
892.879	1535.8747	9221.85	8346
893.0218	1537.6663	9142.85	8266.75
893.1647	1539.4572	9116.7	8238.05
893.3075	1541.2473	9110.65	8234.6
893.4503	1543.0367	9061.25	8185.65
893.5931	1544.8253	9037.9	8158.75
893.7359	1546.6132	9036.65	8158.8
893.8787	1548.4003	8997.7	8112.65
894.0214	1550.1867	8995.25	8110.1
894.1642	1551.9723	8959.45	8078.45
894.3069	1553.7572	8964.05	8086.8
894.4496	1555.5414	8944.6	8067.3
894.5923	1557.3247	8926.15	8049.5
894.735	1559.1074	8913.05	8037.8
894.8777	1560.8893	8937.1	8063.95
895.0204	1562.6705	8917.55	8042.4
895.163	1564.4509	8898.9	8023.9
895.3056	1566.2305	8885.45	8010.75
895.4482	1568.0094	8903.7	8031
895.5908	1569.7876	8910	8034.65
895.7334	1571.565	8869.8	7994.8
895.876	1573.3417	8856	7980.55
896.0186	1575.1176	8816.1	7941
896.1611	1576.8928	8816.15	7941.4
896.3036	1578.6672	8760.8	7887.05
896.4461	1580.4409	8756.95	7882.25
896.5886	1582.2138	8774.2	7900.5
896.7311	1583.986	8767.75	7891.7
896.8736	1585.7575	8758.6	7884.25
897.0161	1587.5282	8788.7	7915.1
897.1585	1589.2981	8776.2	7900.7
897.3009	1591.0673	8780.15	7905.05
897.4433	1592.8358	8767.6	7891.4
897.5857	1594.6035	8727.55	7850.55
897.7281	1596.3704	8675.4	7798.7
897.8705	1598.1366	8656.85	7781.3
898.0128	1599.9021	8598.8	7725.6
898.1551	1601.6668	8543.8	7666.8
898.2975	1603.4308	8507.1	7629.95
898.4398	1605.194	8504.7	7624.15
898.5821	1606.9564	8509.85	7634.5
898.7243	1608.7182	8513.95	7634.85
898.8666	1610.4791	8541.15	7665.5
899.0088	1612.2394	8583.15	7708.55
899.1511	1613.9988	8622.45	7748.35
899.2933	1615.7576	8683.6	7810.4
899.4355	1617.5156	8701.4	7821
899.5776	1619.2728	8640.35	7765.8
899.7198	1621.0293	8591.8	7718.35
899.862	1622.785	8488.7	7608.7
900.0041	1624.54	8349.45	7472.95
900.1462	1626.2942	8231.95	7354.95
900.2883	1628.0477	8115.7	7238.4
900.4304	1629.8005	8041.2	7161.3
900.5725	1631.5525	7962.25	7084.65
900.7145	1633.3037	7903.4	7025.8
900.8566	1635.0542	7849.5	6973.2
900.9986	1636.804	7820.65	6944.6
901.1406	1638.553	7845.8	6887.5
901.2826	1640.3013	7742.75	6867.35
901.4245	1642.0488	7694	6816.2
901.5665	1643.7955	7645.4	6768.25
901.7085	1645.5416	7607.05	6732.45
901.8504	1647.2868	7594	6718.75
901.9923	1649.0313	7550	6674.15
902.1342	1650.7751	7537.15	6658.65
902.2761	1652.5181	7486.45	6611.45
902.4179	1654.2604	7487.8	6610.75
902.5598	1656.0019	7466.3	6591.55
902.7016	1657.7427	7454.95	6579.2
902.8434	1659.4828	7478.15	6601
902.9852	1661.222	7455.7	6581.15
903.127	1662.9606	7428.95	6552.2
903.2687	1664.6984	7451.5	6574.2
903.4105	1666.4354	7444.6	6568.9
903.5522	1668.1717	7400	6521.9
903.6939	1669.9072	7342.05	6465.5
903.8356	1671.642	7302.8	6426.45
903.9773	1673.3761	7258.05	6382.05
904.119	1675.1094	7215.4	6340.35
904.2606	1676.8419	7171.3	6296.65
904.4022	1678.5737	7112.35	6236.35
904.5439	1680.3048	7091.4	6214.55
904.6855	1682.0351	7049.4	6174.95
904.827	1683.7646	7018.1	6139.5
904.9686	1685.4934	7003.7	6128.1
905.1101	1687.2215	6959.85	6082.8
905.2517	1688.9488	6926.55	6050.95
905.3932	1690.6754	6898.8	6024.5
905.5347	1692.4012	6885.6	6008
905.6761	1694.1263	6859.9	5984.85
905.8176	1695.8506	6846.15	5968.95
905.9591	1697.5742	6835.15	5960
906.1005	1699.297	6792.75	5916.45
906.2419	1701.0191	6764.5	5888.8
906.3833	1702.7404	6720.75	5846.1
906.5246	1704.461	6680.1	5801.7
906.666	1706.1808	6658.5	5781.65
906.8073	1707.8999	6657.6	5779.55
906.9487	1709.6182	6625.4	5748.75
907.09	1711.3358	6603.65	5728
907.2313	1713.0527	6591.4	5719.7
907.3725	1714.7688	6579.55	5698.3
907.5138	1716.4841	6552.35	5674.75
907.655	1718.1987	6528.45	5646.85
907.7962	1719.9126	6525.1	5650.9
907.9374	1721.6257	6493.3	5614.25
908.0786	1723.338	6511.3	5634.45
908.2198	1725.0496	6472.9	5596.15
908.3609	1726.7605	6461.2	5583.25
908.502	1728.4706	6431.95	5558
908.6431	1730.18	6405.35	5526.4
908.7842	1731.8886	6405.95	5531.3
908.9253	1733.5964	6390.85	5495.1
909.0664	1735.3036	6378.3	5500.6
909.2074	1737.0099	6378.05	5502.65
909.3484	1738.7156	6367.4	5491.4
909.4894	1740.4204	6346.4	5466.45
909.6304	1742.1246	6332.2	5453.1
909.7714	1743.8279	6313.8	5437.25
909.9123	1745.5306	6316.9	5441.45
910.0532	1747.2325	6311.35	5436.2
910.1941	1748.9336	6303.25	5429.3
910.335	1750.634	6287.05	5409.1
910.4759	1752.3336	6248.55	5374
910.6168	1754.0325	6248.1	5374.1
910.7576	1755.7307	6244.75	5369.75
910.8984	1757.4281	6239.6	5361.6
911.0392	1759.1247	6254.45	5367.45
911.18	1760.8206	6215.3	5336.35
911.3208	1762.5158	6230.9	5353.45
911.4615	1764.2102	6204.6	5330.1
911.6022	1765.9039	6197.5	5321.25
911.7429	1767.5968	6174.9	5298.55
911.8836	1769.289	6155.75	5280
912.0243	1770.9804	6134	5258
912.1649	1772.6711	6141.95	5264.5
912.3056	1774.361	6120.6	5245.3
912.4462	1776.0502	6119.85	5244.9
912.5868	1777.7386	6098.4	5217.75
912.7274	1779.4263	6091.2	5215.35
912.8679	1781.1132	6106.15	5230.9
913.0084	1782.7994	6052.55	5175.25
913.149	1784.4849	6029.7	5154
913.2895	1786.1696	6037.8	5144.8
913.4299	1787.8535	6036.8	5162.9
913.5704	1789.5367	6015.7	5139.45
913.7108	1791.2192	5990.7	5115.15
913.8513	1792.9009	5986.2	5091.1
913.9917	1794.5818	5950.65	5073.3
914.132	1796.2621	5946.65	5070.8
914.2724	1797.9415	5932.95	5055.1
914.4128	1799.6202	5913.2	5037.05
914.5531	1801.2982	5921.5	5046.55
914.6934	1802.9755	5897	5018.8
914.8337	1804.6519	5891.85	5016.35
914.9739	1806.3277	5869	4995.8
915.1142	1808.0027	5863.9	4986
915.2544	1809.6769	5858.95	4983.8
915.3946	1811.3504	5827.5	4949.5
915.5348	1813.0231	5826.25	4950.6
915.675	1814.6951	5821.6	4946.1
915.8151	1816.3664	5813.35	4936.1
915.9553	1818.0369	5775.8	4899.6
916.0954	1819.7067	5781.15	4904.9
916.2355	1821.3757	5772.8	4897.1
916.3755	1823.044	5754.95	4879.75
916.5156	1824.7115	5746.05	4870.2
916.6556	1826.3783	5728.5	4852.75
916.7956	1828.0443	5692.5	4815.85
916.9356	1829.7096	5698.1	4819.25
917.0756	1831.3741	5710.75	4832.45
917.2155	1833.0379	5701.25	4825.65
917.3555	1834.701	5674.55	4797.45
917.4954	1836.3633	5644.85	4766.6
917.6353	1838.0248	5651.05	4772.2
917.7751	1839.6856	5663.45	4789
917.915	1841.3457	5628.95	4753.35
918.0548	1843.005	5606.05	4731.65
918.1946	1844.6636	5601.3	4724.9
918.3344	1846.3214	5603.7	4725.75
918.4742	1847.9785	5587.7	4712.85
918.6139	1849.6349	5568.9	4691.9
918.7537	1851.2904	5566.4	4680
918.8934	1852.9453	5562.9	4686.2
919.0331	1854.5994	5543.8	4662.6
919.1727	1856.2528	5542.35	4661.5
919.3124	1857.9054	5528.7	4652.2
919.452	1859.5572	5506.5	4631.05
919.5916	1861.2083	5497.85	4620.8
919.7312	1862.8587	5511.95	4636.3
919.8708	1864.5084	5488.05	4612.25
920.0103	1866.1572	5481.3	4605.7
920.1498	1867.8054	5461.05	4584.15
920.2893	1869.4528	5447.15	4570.1
920.4288	1871.0994	5420.05	4543.2
920.5683	1872.7453	5415.5	4539.45
920.7077	1874.3905	5405.15	4522.15
920.8471	1876.0349	5409.55	4533
920.9865	1877.6786	5402.9	4526.4
921.1259	1879.3215	5397.5	4521.75
921.2653	1880.9637	5380.75	4503.05
921.4046	1882.6051	5379.45	4503.1
921.5439	1884.2458	5366.1	4486.7
921.6832	1885.8858	5341.05	4465.1
921.8225	1887.525	5343.35	4466.15
921.9617	1889.1634	5306.3	4431.5
922.101	1890.8011	5301.2	4423.3
922.2402	1892.4381	5290.1	4413.9
922.3794	1894.0743	5290.75	4415.75
922.5185	1895.7098	5287.55	4413.5
922.6577	1897.3446	5277.15	4400.05
922.7968	1898.9786	5257.75	4378.9
922.9359	1900.6118	5269.5	4392.7
923.075	1902.2443	5240.75	4362
923.214	1903.8761	5230.4	4355.25
923.3531	1905.5071	5194.15	4316.95
923.4921	1907.1374	5192.35	4315.5
923.6311	1908.7669	5188.9	4312
923.77	1910.3957	5187.3	4309.75
923.909	1912.0237	5138.7	4263.4
924.0479	1913.651	5148.85	4271.15
924.1868	1915.2776	5132.25	4259
924.3257	1916.9034	5105.2	4229.3
924.4646	1918.5285	5089.2	4214.2
924.6034	1920.1528	5077.25	4200
924.7422	1921.7764	5062.5	4185.95
924.881	1923.3992	5054.85	4178.65
925.0198	1925.0213	5026.55	4152.15
925.1586	1926.6427	5016.6	4142.7
925.2973	1928.2633	5195.85	4106.1
925.436	1929.8832	5046.1	4166.65
925.5747	1931.5023	4986.35	4108.8
925.7134	1933.1207	4973.15	4096.85
925.852	1934.7383	4950.7	4073.1
925.9906	1936.3552	4947.5	4070.9
926.1292	1937.9714	4947.3	4072.2
926.2678	1939.5868	4937.3	4058.75
926.4064	1941.2015	4896.9	4020.1
926.5449	1942.8154	4886.75	4011.45
926.6834	1944.4286	4884	4007.35
926.8219	1946.041	4885.6	3989.4
926.9604	1947.6528	4843.3	3962.1
927.0988	1949.2637	4825.1	3950.2
927.2372	1950.8739	4839.55	3963.05
927.3756	1952.4834	4827.35	3950.8
927.514	1954.0921	4815.05	3938.65
927.6523	1955.7001	4798.3	3918.05
927.7907	1957.3074	4783.6	3909.05
927.929	1958.9139	4765.1	3890.9
928.0673	1960.5197	4777.5	3900.2
928.2055	1962.1247	4745.5	3870.3
928.3438	1963.729	4748.6	3874.3
928.482	1965.3325	4739.25	3840.3
928.6202	1966.9353	4711.95	3837.35
928.7584	1968.5374	4698.7	3821.45
928.8965	1970.1387	4691.9	3815.6
929.0346	1971.7393	4678.7	3802.9
929.1727	1973.3392	4660.45	3785.35
929.3108	1974.9383	4649.75	3774.15
929.4489	1976.5366	4644.7	3767.95
929.5869	1978.1342	4639.5	3762.15
929.7249	1979.7311	4618.95	3740.2
929.8629	1981.3273	4615.05	3737.2
930.0009	1982.9227	4609.8	3732.25
930.1388	1984.5173	4598.95	3724.7
930.2767	1986.1112	4578.6	3703.7
930.4146	1987.7044	4579.05	3703.5
930.5525	1989.2968	4562.8	3685.5
930.6904	1990.8885	4535.15	3657
930.8282	1992.4795	4545.65	3668.7
930.966	1994.0697	4528.1	3653.4
931.1038	1995.6592	4516.05	3637.4
931.2415	1997.2479	4519.35	3641.75
931.3793	1998.8359	4522.5	3648.25
931.517	2000.4232	4507.7	3632.55
931.6547	2002.0097	4490.95	3615.4
931.7923	2003.5955	4476.6	3601.65
931.93	2005.1805	4473.25	3594.6
932.0676	2006.7648	4455.6	3581.3
932.2052	2008.3484	4441.65	3562.95
932.3427	2009.9312	4454.85	3578.3
932.4803	2011.5133	4443.1	3567.95
932.6178	2013.0946	4414.95	3539.5
932.7553	2014.6752	4399.95	3524
932.8928	2016.2551	4410.1	3534.1
933.0302	2017.8342	4386.5	3511.45
933.1676	2019.4126	4385.6	3511.15
933.305	2020.9902	4363.85	3486.6
933.4424	2022.5672	4370.8	3493.6
933.5798	2024.1433	4362.3	3480
933.7171	2025.7188	4343.75	3470.95
933.8544	2027.2935	4332.55	3455.7
933.9917	2028.8674	4325.7	3449.45
934.129	2030.4406	4318.9	3444.05
934.2662	2032.0131	4314.2	3440.2
934.4034	2033.5849	4288.65	3409.65
934.5406	2035.1559	4282.15	3406.6
934.6778	2036.7261	4288.65	3411.55
934.8149	2038.2957	4275.3	3400.2
934.952	2039.8645	4290.15	3415.55
935.0891	2041.4325	4294.65	3416.65
935.2262	2042.9998	4268.2	3392.55
935.3632	2044.5664	4266.5	3387.6
935.5002	2046.1323	4250.85	3375.9
935.6372	2047.6974	4251.05	3376.95
935.7742	2049.2617	4250.65	3376.6
935.9111	2050.8254	4271.55	3376.25
936.048	2052.3883	4237.25	3361
936.1849	2053.9504	4218.9	3343.4
936.3218	2055.5118	4202.2	3325.6
936.4586	2057.0725	4192.6	3312
936.5955	2058.6325	4191.45	3316.85
936.7323	2060.1917	4176.85	3301.65
936.869	2061.7502	4178.75	3301.7
937.0058	2063.3079	4159.5	3284.45
937.1425	2064.8649	4158	3279
937.2792	2066.4212	4174.9	3299.1
937.4159	2067.9767	4138.95	3263.35
937.5525	2069.5315	4134.9	3260.15
937.6891	2071.0856	4149.65	3273.9
937.8257	2072.6389	4113.8	3237.25
937.9623	2074.1915	4110.35	3235
938.0989	2075.7433	4089.95	3212.9
938.2354	2077.2945	4087.3	3213
938.3719	2078.8448	4083.25	3208.3
938.5084	2080.3945	4086.25	3211
938.6448	2081.9434	4080.25	3203.55
938.7812	2083.4916	4084.3	3209.3
938.9176	2085.039	4065.05	3186.45
939.054	2086.5857	4049.15	3169.95
939.1903	2088.1317	4047	3171.1
939.3267	2089.677	4038.85	3162.4
939.463	2091.2215	4041.5	3166.4
939.5992	2092.7652	4016	3137.3
939.7355	2094.3083	4018.8	3142.25
939.8717	2095.8506	4009.1	3133.95
940.0079	2097.3921	4018.7	3143.4
940.1441	2098.933	3992.1	3115.8
940.2802	2100.4731	4011.15	3135.3
940.4163	2102.0124	4029.8	3135.95
940.5524	2103.5511	4002	3128.5
940.6885	2105.089	4004.25	3127.55
940.8245	2106.6261	3974.55	3097
940.9606	2108.1626	3969.7	3091.65
941.0965	2109.6983	3981.4	3076.35
941.2325	2111.2332	3985.5	3109.35
941.3684	2112.7675	3955.05	3076.75
941.5044	2114.301	3957.7	3078.45
941.6403	2115.8337	3942.65	3067.75
941.7761	2117.3657	3943.65	3069.5
941.912	2118.897	3932.9	3056.45
942.0478	2120.4276	3932.8	3052.7
942.1835	2121.9575	3914.55	3037.3
942.3193	2123.4866	3925.4	3046.2
942.455	2125.0149	3919	3042.2
942.5907	2126.5426	3897.55	3021.5
942.7264	2128.0695	3901.4	3020.85
942.8621	2129.5956	3895.1	3020.2
942.9977	2131.1211	3898.95	3017.2
943.1333	2132.6458	3883.25	3007.95
943.2689	2134.1698	3864.9	2989.9
943.4044	2135.693	3869	2990.95
943.54	2137.2155	3863.95	2986.6
943.6755	2138.7373	3838.3	2961.15
943.8109	2140.2584	3846.35	2969.55
943.9464	2141.7787	3834.9	2953.8
944.0818	2143.2983	3824.35	2950
944.2172	2144.8171	3818.9	2945.8
944.3526	2146.3353	3808.5	2931.35
944.4879	2147.8527	3787.15	2911.35
944.6232	2149.3693	3801.35	2925.95
944.7585	2150.8853	3784.5	2907.8
944.8938	2152.4005	3770.25	2895.4
945.029	2153.9149	3777.2	2901.7
945.1642	2155.4287	3776.75	2901
945.2994	2156.9417	3751.9	2875.8
945.4346	2158.454	3753	2876.4
945.5697	2159.9655	3744.4	2869.25
945.7048	2161.4764	3746.95	2869.6
945.8399	2162.9865	3723.3	2848.2
945.9749	2164.4958	3730.35	2851.85
946.1099	2166.0045	3707.55	2828.7
946.2449	2167.5124	3714	2839.15
946.3799	2169.0195	3697.7	2821.7
946.5148	2170.526	3692.8	2818.65
946.6498	2172.0317	3689.55	2813.95
946.7846	2173.5367	3690.9	2814
946.9195	2175.0409	3684.45	2808.15
947.0543	2176.5445	3668.45	2792.55
947.1891	2178.0473	3661.9	2787.35
947.3239	2179.5494	3646.1	2768.3
947.4587	2181.0507	3629.65	2753.25
947.5934	2182.5513	3630.15	2754.65
947.7281	2184.0512	3629.8	2753.2
947.8628	2185.5504	3634.3	2759
947.9974	2187.0488	3612.65	2738.55
948.132	2188.5465	3602.85	2726.45
948.2666	2190.0435	3588	2711.5
948.4012	2191.5397	3585.15	2709.2
948.5357	2193.0353	3569.4	2695.3
948.6702	2194.5301	3555.85	2680.35
948.8047	2196.0241	3555.45	2679.05
948.9392	2197.5175	3557	2681
949.0736	2199.0101	3537.35	2658.5
949.208	2200.502	3525.3	2651.25
949.3424	2201.9931	3507.7	2632.1
949.4767	2203.4835	3503.9	2625.7
949.611	2204.9733	3501.3	2619.85
949.7453	2206.4622	3502.85	2629.6
949.8796	2207.9505	3481.85	2604.35
950.0138	2209.438	3481.6	2607.85
950.148	2210.9248	3469.85	2591.65
950.2822	2212.4109	3461.75	2586.65
950.4164	2213.8962	3451.45	2573.5
950.5505	2215.3809	3442.8	2565.95
950.6846	2216.8648	3440.85	2564.15
950.8186	2218.3479	3449.55	2570.05
950.9527	2219.8304	3434.75	2556.05
951.0867	2221.3121	3411.55	2535.75
951.2207	2222.7931	3405.15	2529.7
951.3546	2224.2733	3392.75	2517.2
951.4886	2225.7529	3392.4	2516.65
951.6225	2227.2317	3387.7	2511.3
951.7563	2228.7098	3377.35	2501.6
951.8902	2230.1872	3359.25	2483.75
952.024	2231.6638	3364.65	2488.5
952.1578	2233.1397	3353.15	2471.15
952.2916	2234.6149	3347.5	2472.95
952.4253	2236.0894	3347.2	2471.45
952.559	2237.5632	3345.25	2460.6
952.6927	2239.0362	3321.2	2446.2
952.8263	2240.5085	3319.65	2442.5
952.9599	2241.9801	3309.45	2433.9
953.0935	2243.4509	3310.2	2433.45
953.2271	2244.921	3289.4	2413.9
953.3606	2246.3904	3293.65	2415.85
953.4941	2247.8591	3280.55	2406.8
953.6276	2249.3271	3269.65	2394.1
953.7611	2250.7943	3271.15	2396.15
953.8945	2252.2608	3230.25	2354.95
954.0279	2253.7266	3245.35	2368.65
954.1612	2255.1917	3223.8	2347.55
954.2946	2256.656	3220.3	2343.1
954.4279	2258.1197	3218.2	2343.25
954.5612	2259.5826	3210.75	2333.15
954.6944	2261.0447	3222.35	2345.65
954.8276	2262.5062	3210.1	2332.65
954.9608	2263.9669	3206.8	2327.65
955.094	2265.4269	3192.75	2317.35
955.2271	2266.8862	3179.35	2303.1
955.3602	2268.3448	3185.6	2309.95
955.4933	2269.8026	3189.7	2314.2
955.6264	2271.2598	3163.5	2287.75
955.7594	2272.7162	3160.95	2286.1
955.8924	2274.1719	3165.1	2289.25
956.0253	2275.6268	3143.15	2267.95
956.1583	2277.0811	3142.95	2266.45
956.2912	2278.5346	3141	2266.65
956.4241	2279.9874	3128.2	2253.35
956.5569	2281.4395	3129.9	2254.45
956.6897	2282.8908	3120.05	2239.95
956.8225	2284.3414	3122.4	2246.5
956.9553	2285.7914	3103.55	2228.95
957.088	2287.2406	3096.55	2219.65
957.2207	2288.689	3093.7	2217.6
957.3534	2290.1368	3090.75	2213.85
957.486	2291.5838	3082.3	2204.15
957.6186	2293.0302	3076.35	2198.8
957.7512	2294.4758	3052.95	2177.95
957.8838	2295.9206	3060.95	2183.05
958.0163	2297.3648	3048.2	2171
958.1488	2298.8082	3046.65	2169.45
958.2813	2300.251	3038.05	2161.05
958.4137	2301.693	3041.85	2161.75
958.5461	2303.1343	3040.15	2163.6
958.6785	2304.5748	3022.25	2145.45
958.8108	2306.0147	3014.15	2139.25
958.9432	2307.4538	3010.7	2131.35
959.0754	2308.8922	3011.3	2137.35
959.2077	2310.3299	2991.6	2116.1
959.3399	2311.7669	2978.8	2102.75
959.4721	2313.2031	2978.5	2100.95
959.6043	2314.6387	2965.9	2091.3
959.7365	2316.0735	2953.5	2078.65
959.8686	2317.5076	2960.45	2085.1
960.0006	2318.941	2971.75	2096.5
960.1327	2320.3737	2950.65	2075.1
960.2647	2321.8056	2942.7	2064.15
960.3967	2323.2369	2946.5	2071.2
960.5287	2324.6674	2938.95	2058.8
960.6606	2326.0972	2928.15	2051.55
960.7925	2327.5263	2924.8	2048.7
960.9244	2328.9547	2906.85	2029.65
961.0562	2330.3823	2913.85	2038.55
961.1881	2331.8092	2903.6	2024.35
961.3198	2333.2355	2887.35	2013.35
961.4516	2334.661	2892.15	2015
961.5833	2336.0858	2879.2	2000.45
961.715	2337.5098	2864.4	1987.65
961.8467	2338.9332	2873.6	1998.85
961.9783	2340.3558	2865.25	1985
962.1099	2341.7778	2861.8	1984.95
962.2415	2343.199	2851.9	1973.7
962.373	2344.6195	2844.75	1968.45
962.5045	2346.0393	2837.35	1962.55
962.636	2347.4583	2840.45	1961.5
962.7675	2348.8767	2822.5	1946.45
962.8989	2350.2943	2820.4	1942.8
963.0303	2351.7113	2815	1939.15
963.1617	2353.1275	2799.65	1924.45
963.293	2354.543	2811.7	1926.3
963.4243	2355.9578	2794.95	1920.85
963.5556	2357.3718	2776.3	1901.35
963.6868	2358.7852	2778	1898.75
963.818	2360.1978	2772.05	1894.5
963.9492	2361.6098	2772.2	1895.15
964.0803	2363.021	2770.35	1891
964.2114	2364.4315	2760	1884.5
964.3425	2365.8413	2748.65	1866.2
964.4736	2367.2504	2733.05	1857.35
964.6046	2368.6587	2726.95	1850.9
964.7356	2370.0664	2723.25	1848.95
964.8666	2371.4733	2719.85	1843.5
964.9975	2372.8795	2709.4	1832.45
965.1284	2374.285	2696.6	1821.1
965.2593	2375.6899	2685.55	1810.35
965.3901	2377.0939	2680.6	1804.1
965.5209	2378.4973	2668.2	1793.5
965.6517	2379.9	2675.75	1799.9
965.7825	2381.3019	2656.2	1778.75
965.9132	2382.7032	2664.55	1790.95
966.0439	2384.1037	2659.5	1787.4
966.1745	2385.5035	2653.15	1778
966.3051	2386.9027	2643.5	1765.5
966.4357	2388.3011	2639.1	1758.15
966.5663	2389.6987	2630.9	1754.4
966.6968	2391.0957	2622.6	1745.6
966.8273	2392.492	2608.6	1734.45
966.9578	2393.8876	2597.5	1720.6
967.0882	2395.2824	2597.4	1722.35
967.2186	2396.6765	2595.5	1720.85
967.349	2398.07	2559	1684.7
967.4793	2399.4627	2566.3	1690.8
967.6097	2400.8547	2565.65	1687.95
967.7399	2402.246	2564.4	1682.35
967.8702	2403.6366	2552.75	1676.05
968.0004	2405.0265	2547	1668.45
968.1306	2406.4156	2539.2	1657.2
968.2607	2407.8041	2526.9	1646.4
968.3909	2409.1918	2534	1653.95
968.521	2410.5789	2520.45	1645.8
968.651	2411.9652	2501.6	1621.65
968.781	2413.3508	2503.55	1626.7
968.911	2414.7358	2497.85	1619.9
969.041	2416.12	2491.05	1617.05
969.1709	2417.5035	2492.8	1616.45
969.3008	2418.8863	2491.1	1613.05
969.4307	2420.2684	2473.85	1597.1
969.5606	2421.6497	2467.5	1590.95
969.6904	2423.0304	2460.7	1586
969.8201	2424.4104	2448.4	1571.25
969.9499	2425.7896	2449	1570.15
970.0796	2427.1682	2449.85	1572.05
970.2093	2428.546	2443.5	1568.5
970.3389	2429.9232	2428.4	1550.6
970.4685	2431.2996	2423.75	1546.5
970.5981	2432.6753	2430.25	1555.05
970.7277	2434.0503	2429.1	1552.8
970.8572	2435.4246	2405.05	1530.25
970.9867	2436.7982	2407	1526.4
971.1161	2438.1711	2399.35	1524.85
971.2456	2439.5433	2406.5	1528.85
971.375	2440.9148	2391.3	1509.25
971.5043	2442.2856	2389	1514.1
971.6336	2443.6557	2379.05	1502.1
971.7629	2445.025	2372.25	1496.55
971.8922	2446.3937	2387.55	1509.95
972.0214	2447.7617	2373	1496.65
972.1506	2449.1289	2355.65	1480.1
972.2798	2450.4955	2358.25	1478.6
972.4089	2451.8613	2353.85	1478.35
972.538	2453.2265	2347.6	1472.15
972.6671	2454.5909	2341.25	1465.3
972.7961	2455.9546	2334	1459.05
972.9251	2457.3177	2330.1	1454.4
973.0541	2458.68	2328.35	1449.4
973.1831	2460.0416	2326.25	1450.1
973.312	2461.4025	2331.1	1453.7
973.4408	2462.7627	2323.9	1436.55
973.5697	2464.1222	2313.9	1439.9
973.6985	2465.4811	2309.4	1432.45
973.8273	2466.8392	2303.65	1427.8
973.956	2468.1966	2298.45	1420.85
974.0847	2469.5533	2303.1	1424.35
974.2134	2470.9093	2293.1	1415.85
974.3421	2472.2645	2291.05	1414.15
974.4707	2473.6191	2281.65	1407.05
974.5993	2474.973	2275.35	1399.7
974.7278	2476.3262	2274.2	1396.1
974.8563	2477.6787	2267.45	1393.6
974.9848	2479.0305	2256.95	1380.35
975.1132	2480.3816	2251.05	1372.45
975.2417	2481.7319	2242.75	1366.25
975.37	2483.0816	2246.15	1367.5
975.4984	2484.4306	2241.55	1364.75
975.6267	2485.7789	2235.65	1360.6
975.755	2487.1264	2223.05	1346.05
975.8833	2488.4733	2223.25	1348.5
976.0115	2489.8195	2225.35	1341.45
976.1397	2491.165	2218.8	1338.15
976.2678	2492.5097	2214.55	1337.5
976.3959	2493.8538	2201.65	1323.75
976.524	2495.1972	2193.65	1317.5
976.6521	2496.5398	2186.3	1308.7
976.7801	2497.8818	2199	1320.55
976.9081	2499.2231	2183.2	1306.3
977.036	2500.5637	2186.95	1309.5
977.164	2501.9035	2175.3	1299.35
977.2918	2503.2427	2172.4	1293.15
977.4197	2504.5812	2151.5	1276.5
977.5475	2505.919	2151.3	1271.65
977.6753	2507.256	2157.55	1280.8
977.8031	2508.5924	2138.1	1263
977.9308	2509.9281	2154.15	1271.75
978.0585	2511.2631	2134.45	1258.8
978.1861	2512.5974	2138.6	1262.2
978.3137	2513.9309	2131.65	1254.1
978.4413	2515.2638	2150.8	1246.55
978.5689	2516.596	2129.25	1254.8
978.6964	2517.9275	2115.05	1238.15
978.8239	2519.2583	2111.55	1235.15
978.9513	2520.5884	2108.6	1229.6
979.0788	2521.9178	2106.5	1229.65
979.2062	2523.2465	2092.1	1215.85
979.3335	2524.5745	2091.15	1214.45
979.4608	2525.9018	2081.75	1206.4
979.5881	2527.2284	2076.95	1201
979.7154	2528.5543	2079.95	1203.95
979.8426	2529.8796	2073.05	1196.35
979.9698	2531.2041	2077.65	1200.6
980.0969	2532.5279	2074.6	1199.15
980.224	2533.851	2063.95	1188.45
980.3511	2535.1735	2055.95	1180.45
980.4781	2536.4952	2057.75	1183.45
980.6052	2537.8163	2055.35	1179.3
980.7321	2539.1366	2038.25	1162.05
980.8591	2540.4562	2043.75	1163.85
980.986	2541.7752	2043	1166.55
981.1129	2543.0935	2033.3	1155.5
981.2397	2544.411	2032.05	1155.55
981.3665	2545.7279	2034.65	1160
981.4933	2547.0441	2039.7	1163.25
981.62	2548.3596	2033.45	1157.5
981.7467	2549.6744	2021.7	1146.5
981.8734	2550.9885	2024.3	1139.55
982.0001	2552.3019	2006.65	1133.4
982.1267	2553.6146	2027.25	1150.4
982.2532	2554.9266	2012.3	1135.9
982.3798	2556.2379	2010.9	1132.35
982.5063	2557.5485	1995.35	1120.85
982.6327	2558.8585	2004.9	1121.45
982.7592	2560.1677	2007.1	1128.15
982.8856	2561.4762	2004.3	1129.65
983.0119	2562.7841	2003.45	1125.8
983.1383	2564.0913	1989.55	1112.6
983.2646	2565.3977	1987.05	1111.85
983.3908	2566.7035	1987.1	1112.25
983.517	2568.0086	1981.3	1103.9
983.6432	2569.313	1979.4	1102.7
983.7694	2570.6167	1982	1102.3
983.8955	2571.9197	1969.1	1094.7
984.0216	2573.222	1967.65	1090.2
984.1476	2574.5236	1968.2	1089.65
984.2737	2575.8246	1964	1084.65
984.3996	2577.1248	1964.8	1085.35
984.5256	2578.4244	1954.55	1078.35
984.6515	2579.7232	1950.55	1073.65
984.7774	2581.0214	1967.45	1065.3
984.9032	2582.3189	1953.6	1078.8
985.029	2583.6157	1944.65	1065.4
985.1548	2584.9118	1954.8	1079.05
985.2806	2586.2072	1935	1059.25
985.4063	2587.5019	1934.15	1059.25
985.5319	2588.7959	1927.75	1049.9
985.6576	2590.0893	1923.85	1046.05
985.7832	2591.3819	1928.1	1052.35
985.9087	2592.6739	1914.8	1039.8
986.0343	2593.9652	1917.35	1038.75
986.1597	2595.2557	1914.4	1040.1
986.2852	2596.5456	1904.9	1025.15
986.4106	2597.8348	1899.15	1023.55
986.536	2599.1234	1902.25	1027.55
986.6614	2600.4112	1894.85	1018.5
986.7867	2601.6983	1899.85	1021.7
986.912	2602.9848	1890.8	1015.5
987.0372	2604.2705	1882.25	999.1
987.1624	2605.5556	1884.3	1009.05
987.2876	2606.84	1876.55	1003.1
987.4128	2608.1237	1872	995.25
987.5379	2609.4067	1868	990
987.6629	2610.689	1871.75	986.05
987.788	2611.9707	1863.65	985.35
987.913	2613.2516	1861.6	979.55
988.0379	2614.5319	1846.35	970.05
988.1629	2615.8115	1836.8	961.75
988.2878	2617.0903	1841.25	964.55
988.4126	2618.3685	1834.85	958.2
988.5375	2619.6461	1829.7	953.25
988.6622	2620.9229	1819.6	941.8
988.787	2622.199	1823.5	947.1
988.9117	2623.4745	1824.35	948.15
989.0364	2624.7493	1809.8	933.75
989.161	2626.0234	1814.95	938.35
989.2857	2627.2968	1808.25	932
989.4102	2628.5695	1807.45	929.15
989.5348	2629.8415	1801.35	924.1
989.6593	2631.1128	1795.85	918.55
989.7837	2632.3835	1793.55	917.4
989.9082	2633.6535	1784.25	910.3
990.0326	2634.9228	1780.8	906.8
990.1569	2636.1914	1773.7	898.85
990.2812	2637.4593	1773.8	891.9
990.4055	2638.7265	1764.95	888.05
990.5298	2639.9931	1760.95	884.35
990.654	2641.259	1761.2	884.05
990.7782	2642.5242	1750.15	872.25
990.9023	2643.7887	1760.25	882.05
991.0264	2645.0525	1763.2	887.9
991.1505	2646.3156	1757.6	881.75
991.2745	2647.5781	1751.2	876.4
991.3985	2648.8398	1744.55	871.9
991.5225	2650.1009	1751.25	865.85
991.6464	2651.3613	1736	859.05
991.7703	2652.6211	1733	856.35
991.8942	2653.8801	1731.1	855.8
992.018	2655.1385	1729.45	849.35
992.1418	2656.3961	1722	846.6
992.2655	2657.6531	1724.85	848.35
992.3892	2658.9094	1717.9	841.8
992.5129	2660.1651	1720.8	846.15
992.6366	2661.42	1714.7	838.05
992.7602	2662.6743	1713.1	836.25
992.8837	2663.9279	1713.9	837.9
993.0073	2665.1808	1714.3	836.9
993.1307	2666.433	1717.85	840.45
993.2542	2667.6846	1701.05	824.05
993.3776	2668.9354	1703.35	826.05
993.501	2670.1856	1698.1	822.2
993.6244	2671.4351	1699.9	825.05
993.7477	2672.6839	1702.1	823.5
993.8709	2673.9321	1693.1	817.5
993.9942	2675.1795	1684.85	810.05
994.1174	2676.4263	1675.6	798.25
994.2405	2677.6724	1684.75	808.35
994.3637	2678.9179	1673.85	797.85
994.4868	2680.1626	1678.25	801.95
994.6098	2681.4067	1672.5	795.75
994.7328	2682.6501	1676.25	798.9
994.8558	2683.8928	1666.75	790.55
994.9788	2685.1348	1664.6	789.75
995.1017	2686.3761	1654.05	778.7
995.2245	2687.6168	1648.8	772.4
995.3474	2688.8568	1643	765.5
995.4702	2690.0961	1643	768.8
995.5929	2691.3348	1644.7	767.85
995.7156	2692.5727	1638.85	763.2
995.8383	2693.81	1628.75	754.05
995.961	2695.0466	1637.75	763.15
996.0836	2696.2826	1630.25	752.45
996.2062	2697.5178	1654.55	760.1
996.3287	2698.7524	1634.55	758.55
996.4512	2699.9863	1629.7	751.65
996.5737	2701.2195	1621.2	743.1
996.6961	2702.452	1622.15	743.4
996.8185	2703.6839	1623.1	745.7
996.9408	2704.9151	1614.05	739.65
997.0631	2706.1456	1611.2	737.25
997.1854	2707.3755	1611.05	733.85
997.3077	2708.6046	1609.45	730.95
997.4299	2709.8331	1600.6	724.95
997.552	2711.0609	1600.6	723.65
997.6742	2712.2881	1604.75	728.25
997.7963	2713.5145	1593	713.9
997.9183	2714.7403	1600.65	725
998.0403	2715.9654	1590.95	715.05
998.1623	2717.1899	1598.1	706.45
998.2842	2718.4136	1586.3	710.9
998.4062	2719.6367	1584	707.35
998.528	2720.8591	1591.85	707.65
998.6498	2722.0809	1572.1	695
998.7716	2723.3019	1578.25	698.8
998.8934	2724.5223	1572.75	696.75
999.0151	2725.7421	1574.65	697.05
999.1368	2726.9611	1574.05	695.25
999.2584	2728.1795	1568.25	688.1
999.38	2729.3972	1560.6	684.95
999.5016	2730.6142	1577.1	687.4
999.6231	2731.8306	1554.2	676.55
999.7446	2733.0462	1550.4	671.55
999.8661	2734.2612	1549	668.1
999.9875	2735.4756	1538.6	662.1
1000.1089	2736.6892	1539.7	663.75
1000.2302	2737.9022	1538.7	664.1
1000.3515	2739.1145	1533.85	658.5
1000.4728	2740.3262	1539.4	655.25
1000.594	2741.5372	1527.05	652.5
1000.7152	2742.7475	1519.35	643.8
1000.8363	2743.9571	1525.45	646.2
1000.9575	2745.1661	1519.1	637.5
1001.0785	2746.3744	1501.45	624.7
1001.1996	2747.582	1507.6	631.85
1001.3206	2748.7889	1505.4	628
1001.4415	2749.9952	1508.65	634
1001.5625	2751.2008	1501.65	626.25
1001.6833	2752.4057	1507.95	629.65
1001.8042	2753.61	1494.85	619.6
1001.925	2754.8136	1491.8	613.65
1002.0458	2756.0165	1493.7	616.65
1002.1665	2757.2188	1487.95	613.25
1002.2872	2758.4204	1483.45	607.7
1002.4078	2759.6213	1483.95	604.6
1002.5285	2760.8215	1490.8	611.6
1002.649	2762.0211	1480.55	604.45
1002.7696	2763.22	1476.25	598.5
1002.8901	2764.4182	1469.45	590.8
1003.0106	2765.6158	1479.15	601.9
1003.131	2766.8127	1469.45	593.6
1003.2514	2768.009	1463.4	586.1
1003.3717	2769.2045	1473	596.95
1003.492	2770.3994	1459.65	581.05
1003.6123	2771.5936	1460.1	583.95
1003.7325	2772.7872	1455.45	580.6
1003.8527	2773.9801	1456.15	579.5
1003.9729	2775.1723	1469.35	576.1
1004.093	2776.3639	1448.05	573.15
1004.2131	2777.5548	1445.7	568.1
1004.3331	2778.745	1446.6	569.9
1004.4531	2779.9346	1441.95	564.9
1004.5731	2781.1235	1444.05	566.3
1004.693	2782.3117	1440.9	564.6
1004.8129	2783.4992	1425.7	552.5
1004.9328	2784.6861	1430.9	555.15
1005.0526	2785.8723	1429.65	551.95
1005.1723	2787.0579	1429.8	554.75
1005.2921	2788.2428	1429.5	551.15
1005.4118	2789.427	1418.25	541.55
1005.5314	2790.6106	1427.35	550.55
1005.651	2791.7935	1415.8	538.7
1005.7706	2792.9757	1416.6	541.75
1005.8902	2794.1573	1414.2	538.2
1006.0097	2795.3382	1406.45	531.8
1006.1291	2796.5184	1405.75	531.85
1006.2485	2797.698	1402.15	524.8
1006.3679	2798.8769	1409.95	534.45
1006.4873	2800.0551	1398.4	521.5
1006.6066	2801.2327	1399.35	518.45
1006.7258	2802.4096	1391.4	515.9
1006.8451	2803.5859	1396.85	520.9
1006.9642	2804.7615	1383	507.8
1007.0834	2805.9364	1392.25	517.6
1007.2025	2807.1106	1388.15	512.15
1007.3216	2808.2842	1390.5	514.3
1007.4406	2809.4572	1385.6	508.9
1007.5596	2810.6294	1389.15	511.5
1007.6785	2811.801	1385.05	510.95
1007.7975	2812.972	1379.25	504.3
1007.9163	2814.1423	1390.15	515.5
1008.0352	2815.3119	1383.65	507.75
1008.154	2816.4808	1380.75	504.55
1008.2727	2817.6491	1386.15	510.55
1008.3914	2818.8167	1388.65	514.65
1008.5101	2819.9837	1396.15	515.65
1008.6288	2821.15	1389.15	512.3
1008.7474	2822.3157	1390.9	515.45
1008.8659	2823.4807	1393.55	518.4
1008.9844	2824.645	1403.85	526.75
1009.1029	2825.8086	1411.85	536.3
1009.2214	2826.9716	1409.4	534.7
1009.3398	2828.134	1409.55	535.1
1009.4581	2829.2957	1418.35	542.45
1009.5764	2830.4567	1428.75	553.4
1009.6947	2831.617	1432.45	556.25
1009.813	2832.7767	1425.55	549.8
1009.9312	2833.9358	1424.85	549.3
1010.0493	2835.0941	1428.25	551.35
1010.1675	2836.2519	1419.95	544.6
1010.2855	2837.4089	1420.65	544.9
1010.4036	2838.5653	1406.9	531.15
1010.5216	2839.7211	1411	535.5
1010.6396	2840.8761	1407.45	528.7
1010.7575	2842.0306	1401.1	525.95
1010.8754	2843.1843	1396.45	522.5
1010.9932	2844.3374	1398.25	522.75
1011.111	2845.4899	1397.4	521.25
1011.2288	2846.6417	1402.3	527.5
1011.3465	2847.7928	1397.7	524.65
1011.4642	2848.9433	1400.8	525.25
1011.5818	2850.0931	1396.2	519.9
1011.6995	2851.2422	1398.1	520.45
1011.817	2852.3907	1394.8	516.1
1011.9345	2853.5385	1406	530.9
1012.052	2854.6857	1400.85	518
1012.1695	2855.8323	1398.05	523.75
1012.2869	2856.9781	1395.25	520.75
1012.4042	2858.1233	1396.05	520.4
1012.5216	2859.2679	1399.2	525
1012.6389	2860.4118	1403.5	526.4
1012.7561	2861.555	1399.85	518.85
1012.8733	2862.6976	1402.3	521.95
1012.9905	2863.8395	1407.85	533.55
1013.1076	2864.9808	1400.7	523.9
1013.2247	2866.1214	1397.55	522.4
1013.3417	2867.2614	1401.6	525.75
1013.4587	2868.4007	1404.7	527.8
1013.5757	2869.5393	1401.85	526.1
1013.6926	2870.6773	1402.35	524.65
1013.8095	2871.8146	1409.1	528.5
1013.9263	2872.9513	1400.25	522.5
1014.0431	2874.0874	1400.05	524.6
1014.1599	2875.2227	1401.1	524.05
1014.2766	2876.3574	1400.85	524.6
1014.3933	2877.4915	1401.15	525.8
1014.51	2878.6249	1398	521.05
1014.6266	2879.7577	1401.8	524.5
1014.7431	2880.8898	1415.05	529.65
1014.8596	2882.0212	1399.45	525.4
1014.9761	2883.152	1405.5	528.45
1015.0925	2884.2821	1394.25	519.05
1015.2089	2885.4116	1390.2	515.35
1015.3253	2886.5405	1402.9	527.55
1015.4416	2887.6686	1411	533.35
1015.5579	2888.7962	1396.85	522.85
1015.6741	2889.923	1394.95	521.15
1015.7903	2891.0493	1384.8	509.75
1015.9065	2892.1748	1383.6	507.5
1016.0226	2893.2997	1388	510.25
1016.1387	2894.424	1384.9	510.75
1016.2547	2895.5476	1382.2	508.1
1016.3707	2896.6706	1387.65	514
1016.4866	2897.7929	1379.7	502.1
1016.6025	2898.9145	1374.6	498.7
1016.7184	2900.0355	1381.35	504.9
1016.8342	2901.1559	1375.9	499.35
1016.95	2902.2756	1368.2	491.85
1017.0658	2903.3946	1376.55	502.5
1017.1815	2904.513	1371.4	492.25
1017.2971	2905.6308	1369.15	497.4
1017.4127	2906.7479	1361.7	485.8
1017.5283	2907.8643	1371.25	496
1017.6439	2908.9801	1364.65	489.55
1017.7594	2910.0953	1358.75	482.65
1017.8748	2911.2098	1359.9	479.45
1017.9902	2912.3236	1361.75	479.2
1018.1056	2913.4368	1365.05	484.95
1018.2209	2914.5494	1354.95	481.55
1018.3362	2915.6613	1360.35	480.45
1018.4515	2916.7725	1350.9	472.6
1018.5667	2917.8831	1347.6	472
1018.6819	2918.9931	1344.3	467.6
1018.797	2920.1024	1339.6	460.05
1018.9121	2921.211	1337.4	462.9
1019.0271	2922.319	1334.85	458.8
1019.1421	2923.4264	1329.4	454.35
1019.2571	2924.5331	1329.55	454.3
1019.372	2925.6391	1323.65	447.55
1019.4869	2926.7445	1322.45	447.05
1019.6017	2927.8493	1323.95	447.7
1019.7165	2928.9534	1323.55	447.9
1019.8313	2930.0569	1323.9	445.8
1019.946	2931.1597	1322.65	446.1
1020.0606	2932.2619	1322.4	447.85
1020.1753	2933.3634	1319.2	444.05
1020.2899	2934.4643	1331.9	450.45
1020.4044	2935.5645	1331.2	448.65
1020.5189	2936.6641	1327.1	447.65
1020.6334	2937.763	1319.45	444.5
1020.7478	2938.8613	1323.8	448.1
1020.8622	2939.959	1321.85	441.3
1020.9765	2941.056	1311.8	437.25
1021.0908	2942.1523	1309.5	432.8
1021.2051	2943.248	1296.55	420.35
1021.3193	2944.3431	1290.2	415.1
1021.4334	2945.4375	1285.05	408.3
1021.5476	2946.5313	1271.9	396.05
1021.6617	2947.6244	1267.2	389.05
1021.7757	2948.7169	1261.1	386.15
1021.8897	2949.8087	1251.25	375.75
1022.0037	2950.8999	1251.1	377.7
1022.1176	2951.9904	1235.5	361.1
1022.2315	2953.0803	1234.95	357.05
1022.3453	2954.1696	1231.3	355.45
1022.4591	2955.2582	1225.1	349.55
1022.5728	2956.3462	1223.5	345.45
1022.6865	2957.4335	1216.2	338.8
1022.8002	2958.5202	1220.85	343.4
1022.9138	2959.6062	1214.8	340.65
1023.0274	2960.6916	1212.7	336.4
1023.141	2961.7764	1216.05	339.45
1023.2545	2962.8605	1211.05	335.65
1023.3679	2963.9439	1213	339.2
1023.4813	2965.0267	1213.45	338
1023.5947	2966.1089	1224.45	325.85
1023.708	2967.1905	1201.6	328.2
1023.8213	2968.2714	1199.35	325.35
1023.9346	2969.3516	1196.15	321.7
1024.0478	2970.4312	1205.95	322.75
1024.1609	2971.5102	1198.85	324.85
1024.274	2972.5885	1198.95	325.6
1024.3871	2973.6662	1199.6	317.5
1024.5002	2974.7432	1198.95	325.8
1024.6132	2975.8196	1193.8	318.9
1024.7261	2976.8954	1193.5	319
1024.839	2977.9705	1191.6	315.5
1024.9519	2979.045	1192.9	317.65
1025.0647	2980.1188	1188.8	314.65
1025.1775	2981.192	1186.5	312.55
1025.2902	2982.2645	1188.8	310.7
1025.4029	2983.3364	1187.9	312.05
1025.5156	2984.4077	1178.95	303.2
1025.6282	2985.4783	1183.35	302.6
1025.7407	2986.5483	1175.65	303.7
1025.8532	2987.6177	1172.05	297.95
1025.9657	2988.6864	1163.5	288
1026.0782	2989.7545	1170.25	294.65
1026.1906	2990.8219	1161	285
1026.3029	2991.8887	1162.25	282.95
1026.4152	2992.9548	1157.65	280.25
1026.5275	2994.0204	1152.45	276.65
1026.6397	2995.0852	1153.15	278.55
1026.7519	2996.1495	1146.75	271.75
1026.864	2997.2131	1147.6	271.7
1026.9761	2998.276	1140.8	266.35
1027.0882	2999.3383	1132.35	256
1027.2002	3000.4	1138.85	263.05
1027.3122	3001.4611	1134.4	257.8
1027.4241	3002.5215	1130.2	252.85
1027.536	3003.5812	1128.9	254.65
1027.6478	3004.6404	1127.3	251.9
1027.7596	3005.6989	1131.15	256
1027.8714	3006.7567	1126.65	249.95
1027.9831	3007.8139	1141.5	244.8
1028.0947	3008.8705	1122.05	247.25
1028.2064	3009.9264	1123.4	242.9
1028.3179	3010.9818	1111	233.7
1028.4295	3012.0364	1116.85	239.65
1028.541	3013.0905	1111.65	235.25
1028.6524	3014.1439	1114.45	238.85
1028.7638	3015.1966	1106.05	231.2
1028.8752	3016.2487	1113	238.3
1028.9865	3017.3002	1118.05	236.95
1029.0978	3018.3511	1104.15	230.65
1029.209	3019.4013	1111.05	234.8
1029.3202	3020.4509	1104.8	229.65
1029.4314	3021.4998	1106.35	229.6
1029.5425	3022.5481	1105.7	229.3
1029.6535	3023.5958	1103	228.35
1029.7645	3024.6428	1103	226.9
1029.8755	3025.6892	1100.1	226.6
1029.9864	3026.735	1102.15	225.9
1030.0973	3027.7802	1097.9	223.5
1030.2082	3028.8247	1102.7	229.3
1030.319	3029.8685	1097.5	220.85
1030.4297	3030.9118	1093.45	216.95
1030.5404	3031.9544	1094.5	219.7
1030.6511	3032.9963	1092.2	217.45
1030.7617	3034.0376	1092.35	216.8
1030.8723	3035.0783	1096.3	218.9
1030.9829	3036.1184	1092.55	215.8
1031.0934	3037.1578	1089.15	215.8
1031.2038	3038.1966	1094.3	219.75
1031.3142	3039.2348	1091.9	216.95
1031.4246	3040.2723	1095.75	211.85
1031.5349	3041.3092	1084.1	210.9
1031.6452	3042.3455	1089.1	214.1
1031.7554	3043.3811	1089.2	212.85
1031.8656	3044.4161	1084.45	209.55
1031.9758	3045.4505	1085.7	210.8
1032.0859	3046.4842	1085.05	209.25
1032.1959	3047.5173	1082.35	207.45
1032.3059	3048.5498	1083.5	207.6
1032.4159	3049.5816	1082.55	206.9
1032.5258	3050.6128	1082.8	205.3
1032.6357	3051.6434	1080.7	203.1
1032.7455	3052.6734	1076.8	200.35
1032.8553	3053.7027	1078.25	202.5
1032.9651	3054.7314	1079.3	203.35
1033.0748	3055.7594	1076.35	199.5
1033.1845	3056.7868	1079.65	202.85
1033.2941	3057.8136	1072.9	200.65
1033.4037	3058.8398	1074.05	199
1033.5132	3059.8653	1076.7	200.15
1033.6227	3060.8902	1072.35	197.05
1033.7321	3061.9145	1070.65	194.7
1033.8415	3062.9381	1070.35	194.25
1033.9509	3063.9612	1086.35	194.55
1034.0602	3064.9835	1073.05	199.75
1034.1694	3066.0053	1070.45	192.75
1034.2787	3067.0264	1070.7	196
1034.3878	3068.0469	1070.2	193.2
1034.497	3069.0668	1072.1	193.3
1034.6061	3070.086	1066.9	192.4
1034.7151	3071.1046	1069.65	193.8
1034.8241	3072.1226	1068.1	189.25
1034.9331	3073.1399	1063.6	190.3
1035.042	3074.1567	1064.2	188.9
1035.1508	3075.1727	1063.25	185.2
1035.2597	3076.1882	1061.35	186.25
1035.3684	3077.203	1054.85	178.4
1035.4772	3078.2173	1059.3	183.6
1035.5859	3079.2308	1056.6	177.75
1035.6945	3080.2438	1058.15	180.1
1035.8031	3081.2561	1057.65	183.5
1035.9117	3082.2678	1051.25	175.9
1036.0202	3083.2789	1049.75	174.45
1036.1286	3084.2893	1049.55	173.35
1036.2371	3085.2991	1049.8	172.55
1036.3454	3086.3083	1056.95	178
1036.4538	3087.3169	1049.6	171.65
1036.562	3088.3248	1050.1	174.8
1036.6703	3089.3321	1045.6	170.5
1036.7785	3090.3388	1047.55	173.45
1036.8866	3091.3449	1051.55	176.7
1036.9948	3092.3503	1045.75	167.15
1037.1028	3093.3551	1044.2	172
1037.2108	3094.3593	1041.15	166.85
1037.3188	3095.3629	1045.3	168.8
1037.4267	3096.3658	1045.45	168.5
1037.5346	3097.3681	1041.9	166.95
1037.6425	3098.3698	1038.75	161.85
1037.7503	3099.3708	1044.8	163.85
1037.858	3100.3713	1038.7	164.45
1037.9657	3101.3711	1037.45	162.75
1038.0734	3102.3702	1172.7	161.8
1038.181	3103.3688	1038.6	160.95
1038.2886	3104.3667	1032.95	159.6
1038.3961	3105.364	1030.55	156.95
1038.5036	3106.3607	1034.15	156.3
1038.611	3107.3568	1028.7	151.65
1038.7184	3108.3522	1031.65	155.3
1038.8257	3109.347	1028.25	152.25
1038.933	3110.3412	1032	154
1039.0403	3111.3348	1026.8	152.4
1039.1475	3112.3277	1026.25	151.65
1039.2547	3113.32	1022.75	148.8
1039.3618	3114.3117	1026.85	152.05
1039.4689	3115.3028	1022.9	146.95
1039.5759	3116.2932	1026.35	149.8
1039.6829	3117.2831	1025.95	145.3
1039.7898	3118.2723	1021.7	146.75
1039.8967	3119.2608	1018.25	144
1040.0035	3120.2488	1021.1	147.1
1040.1103	3121.2361	1020.1	144.5
1040.2171	3122.2229	1019.45	144.85
1040.3238	3123.209	1017.05	140.1
1040.4305	3124.1944	1017.45	143
1040.5371	3125.1793	1013.3	136.95
1040.6437	3126.1635	1013.9	138.55
1040.7502	3127.1471	1016.8	142.6
1040.8567	3128.1301	1012.7	136.65
1040.9631	3129.1125	1012.05	137.7
1041.0695	3130.0942	1012.6	137.1
1041.1759	3131.0753	1023.15	139.55
1041.2822	3132.0558	1012	134
1041.3884	3133.0357	1010.6	133.15
1041.4946	3134.015	1009.35	132.55
1041.6008	3134.9936	1009.7	132.4
1041.7069	3135.9716	1024.4	126.25
1041.813	3136.949	1005.95	131.55
1041.919	3137.9258	1012.6	131.15
1042.025	3138.902	1013.9	133.3
1042.1309	3139.8775	1004.35	129.7
1042.2368	3140.8524	1003.2	128.8
1042.3427	3141.8267	1008.25	130.4
1042.4485	3142.8004	1003.75	128.6
1042.5542	3143.7735	1007	125.05
1042.6599	3144.7459	1002.8	125.15
1042.7656	3145.7178	1001.1	125.45
1042.8712	3146.689	998.1	124.6
1042.9768	3147.6596	999.25	121.25
1043.0823	3148.6295	1002.7	127.8
1043.1878	3149.5989	1000.15	124.5
1043.2932	3150.5676	1001.8	125.95
1043.3986	3151.5357	995.95	123.45
1043.5039	3152.5032	996.4	121.25
1043.6092	3153.4701	995.95	120.95
1043.7145	3154.4364	995.85	118.6
1043.8197	3155.402	998.5	123
1043.9248	3156.367	996.8	120.35
1044.03	3157.3315	1031.9	119.15
1044.135	3158.2952	994.75	121.1
1044.24	3159.2584	996.55	121.85
1044.345	3160.221	990.3	113.25
1044.4499	3161.1829	993.35	117.8
1044.5548	3162.1442	991.1	115
1044.6596	3163.105	987.85	109.95
1044.7644	3164.065	991.9	114.4
1044.8692	3165.0245	992.75	114.8
1044.9739	3165.9834	987.25	114.15
1045.0785	3166.9416	990.25	116.75
1045.1831	3167.8993	984.65	109.15
1045.2877	3168.8563	988.8	113.55
1045.3922	3169.8127	985.85	111.7
1045.4966	3170.7684	984.65	110.15
1045.6011	3171.7236	984.3	105.85
1045.7054	3172.6782	983.85	107.2
1045.8098	3173.6321	988.35	110.85
1045.914	3174.5854	988.55	110.15
1046.0183	3175.5381	983.95	108.1
1046.1224	3176.4902	981.1	107.25
1046.2266	3177.4417	977.45	103.5
1046.3307	3178.3926	982.05	106.55
1046.4347	3179.3428	977.8	103.8
1046.5387	3180.2924	976.15	101.1
1046.6427	3181.2415	979.4	105.5
1046.7466	3182.1899	978.1	100.55
1046.8504	3183.1377	976.45	103
1046.9542	3184.0848	979.95	101.5
1047.058	3185.0314	973.6	97.65
1047.1617	3185.9773	976.55	100.25
1047.2654	3186.9227	975.25	99.8
1047.369	3187.8674	973.9	99.25
1047.4726	3188.8115	978.25	98.7
1047.5761	3189.755	973.6	98.2
1047.6796	3190.6979	974.4	99.95
1047.783	3191.6402	972.45	97.25
1047.8864	3192.5818	969.85	96.2
1047.9898	3193.5229	980.75	98.95
1048.0931	3194.4633	972.5	98.1
1048.1963	3195.4031	972.65	96.1
1048.2995	3196.3423	970.5	95.6
1048.4027	3197.2809	968.5	93.1
1048.5058	3198.2189	966.55	91.5
1048.6089	3199.1563	977.15	95
1048.7119	3200.0931	967.8	93.55
1048.8148	3201.0292	968.7	93.55
1048.9178	3201.9648	970.65	94.55
1049.0206	3202.8997	968.75	88.45
1049.1235	3203.834	966.1	91.85
1049.2262	3204.7677	967.35	93.45
1049.329	3205.7008	967.5	90.95
1049.4317	3206.6333	963.45	88.75
1049.5343	3207.5652	965.45	85.35
1049.6369	3208.4964	967	91
1049.7394	3209.4271	963.4	89.35
1049.8419	3210.3571	962	86.4
1049.9444	3211.2865	964.25	86.85
1050.0468	3212.2154	963.95	88.3
1050.1491	3213.1436	961.2	80.65
1050.2514	3214.0712	968.4	86.95
1050.3537	3214.9982	961.85	86.9
1050.4559	3215.9246	959.4	84.8
1050.5581	3216.8503	958.7	84.45
1050.6602	3217.7755	957.45	81.05
1050.7623	3218.7001	956.65	82.25
1050.8643	3219.624	957.45	81.9
1050.9663	3220.5473	961.1	84.65
1051.0682	3221.4701	958.15	82.3
1051.1701	3222.3922	960.45	82.8
1051.2719	3223.3137	957.85	84.25
1051.3737	3224.2346	955.2	78.25
1051.4754	3225.1549	956.95	81.8
1051.5771	3226.0746	957.15	81.5
1051.6788	3226.9937	952.25	76.65
1051.7804	3227.9121	954.6	81.45
1051.8819	3228.83	954.85	81.25
1051.9834	3229.7473	953.8	79.45
1052.0849	3230.6639	955.9	79.65
1052.1863	3231.5799	952.9	78.35
1052.2876	3232.4954	952.3	75.85
1052.3889	3233.4102	952.45	76.95
1052.4902	3234.3244	952.2	75.5
1052.5914	3235.238	947.55	72.35
1052.6926	3236.151	971.65	71.35
1052.7937	3237.0634	946.65	71.2
1052.8948	3237.9752	951.4	75.15
1052.9958	3238.8864	950.95	73.4
1053.0968	3239.797	947.85	71.75
1053.1977	3240.7069	948.95	72.8
1053.2986	3241.6163	948.45	71.25
1053.3994	3242.5251	947.55	73.5
1053.5002	3243.4332	950.7	76.65
1053.6009	3244.3408	947.1	70.6
1053.7016	3245.2477	944.3	68.65
1053.8022	3246.154	946.7	71.05
1053.9028	3247.0598	947.7	71.3
1054.0034	3247.9649	945.7	71
1054.1039	3248.8694	942.5	65.7
1054.2043	3249.7733	943.6	67.85
1054.3047	3250.6766	944.8	70.75
1054.4051	3251.5793	945.75	67.8
1054.5054	3252.4814	942.6	67.85
1054.6056	3253.3829	942.55	69.9
1054.7058	3254.2838	944.3	68.2
1054.806	3255.1841	942.6	67.55
1054.9061	3256.0838	941.7	65.9
1055.0061	3256.9829	939.55	64.6
1055.1062	3257.8814	940.6	61.15
1055.2061	3258.7792	938.25	60.9
1055.306	3259.6765	938.2	60.7
1055.4059	3260.5731	939.65	62.8
1055.5057	3261.4692	936.2	60.25
1055.6055	3262.3647	937.95	63
1055.7052	3263.2595	936.9	61.75
1055.8049	3264.1538	935.05	61.1
1055.9045	3265.0474	937.35	61.9
1056.0041	3265.9404	932.75	57.2
1056.1036	3266.8329	931.2	58.2
1056.2031	3267.7247	942.2	56.8
1056.3025	3268.616	928.4	54
1056.4019	3269.5066	925.9	49.2
1056.5013	3270.3966	928.2	50.05
1056.6005	3271.286	923.9	49.35
