Software Version:	3.9.2.0
Unit SN:	10000200
Spectrometer SN:	6960
Date:	3/6/2024 10:27:16 AM
Data Line Index:	25
Spectral Points:	2048
Integration time (ms):	125
Averages:	20
Delay (ms):	30
Sequence Number:	1
Processing:	dark subtract
Laser Power (mW):	300
Laser Current (mA):	824
Laser Diode Temp (C):	25.1
Laser Case Temp (C):	26
System Temp (C):	25.8
Spectrometer Temp (C):	23.3
CCD Temp (C):	-0.003
Secondary Temp (C):	20.032
Heatsink Temp (C):	21.425
CCDPCB Temp (C):	36.073
SecondaryPCB Temp (C):	28.548

Wavelength	RamanShift	Raw Counts	Dark Subtracted
787.061	30.1047	1101.45	688.4
787.2016	32.3739	1126.45	714.75
787.3422	34.6426	1171.5	759.65
787.4828	36.9109	1213.65	799.35
787.6235	39.1787	1264.15	847.05
787.7642	41.4461	1328.7	907.4
787.9049	43.7131	1384.25	959.75
788.0456	45.9796	1447.4	1021.1
788.1863	48.2456	1510.3	1077.95
788.3271	50.5112	1560.65	1123.9
788.4679	52.7764	1649.5	1209.2
788.6087	55.0411	1723.4	1280.25
788.7496	57.3054	1799.6	1352.6
788.8904	59.5692	1879.35	1428
789.0313	61.8326	1971.5	1518.55
789.1722	64.0955	2078.1	1622.3
789.3132	66.3579	2191.5	1731.75
789.4541	68.6199	2344.8	1881.7
789.5951	70.8815	2585.15	2116.95
789.7361	73.1426	3090.2	2616.6
789.8771	75.4032	4407.25	3930.55
790.0181	77.6634	7776.6	7295.8
790.1592	79.9231	16680.25	16193.1
790.3003	82.1824	53195.4	52696.9
790.4414	84.4412	65535	65013.45
790.5825	86.6995	65535	64986.3
790.7237	88.9574	65535	64963.5
790.8648	91.2148	65535	64942
791.006	93.4717	65535	64932.2
791.1472	95.7282	65535	64924.9
791.2885	97.9842	65535	64921.45
791.4297	100.2398	65535	64922.15
791.571	102.4949	65535	64913.85
791.7123	104.7495	65535	64913.05
791.8536	107.0036	65535	64913.2
791.9949	109.2573	65535	64913.1
792.1363	111.5105	65535	64914.5
792.2777	113.7632	65535	64910.85
792.4191	116.0154	65535	64898.6
792.5605	118.2672	65535	64905.2
792.7019	120.5185	65535	64904.75
792.8434	122.7693	65535	64902.65
792.9849	125.0197	65535	64897.85
793.1264	127.2696	65535	64890.15
793.2679	129.519	65535	64891.2
793.4094	131.7679	65535	64888.7
793.551	134.0163	65535	64883.1
793.6926	136.2642	65535	64882.7
793.8342	138.5117	65535	64872.3
793.9758	140.7587	65535	64878.4
794.1175	143.0052	65535	64874.45
794.2591	145.2512	65535	64875.45
794.4008	147.4967	65535	64872.35
794.5425	149.7417	65535	64869.95
794.6842	151.9863	65535	64869.45
794.826	154.2304	65535	64865.35
794.9677	156.4739	65535	64855.15
795.1095	158.717	65535	64856.6
795.2513	160.9596	65535	64854.95
795.3931	163.2017	65535	64852.5
795.535	165.4433	65535	64850.6
795.6768	167.6844	65535	64847.55
795.8187	169.925	65535	64844.9
795.9606	172.1651	65535	64835.95
796.1025	174.4047	65535	64840.5
796.2445	176.6439	65535	64839.2
796.3864	178.8825	65535	64835.4
796.5284	181.1206	65535	64828.55
796.6704	183.3582	65535	64828.25
796.8124	185.5954	65535	64822.7
796.9544	187.832	65535	64823.35
797.0965	190.0681	65535	64816.7
797.2386	192.3037	65535	64816.35
797.3806	194.5388	65535	64811.1
797.5228	196.7734	65535	64809.95
797.6649	199.0075	65535	64809.75
797.807	201.2411	65535	64808.85
797.9492	203.4742	65535	64805.15
798.0914	205.7068	65535	64803.5
798.2336	207.9389	65535	64798.15
798.3758	210.1704	65535	64800
798.518	212.4015	65535	64809.65
798.6603	214.632	65535	64823.3
798.8025	216.862	65535	64821.65
798.9448	219.0915	65535	64826.85
799.0871	221.3205	65535	64819.7
799.2294	223.549	65535	64825.45
799.3718	225.777	65535	64823.95
799.5141	228.0044	65535	64814.5
799.6565	230.2314	65535	64817.25
799.7989	232.4578	65535	64811
799.9413	234.6837	65535	64804.25
800.0837	236.909	65535	64798.6
800.2262	239.1339	65535	64778.55
800.3687	241.3582	65535	64792.2
800.5111	243.582	65535	64762.45
800.6536	245.8053	65535	64774.75
800.7961	248.0281	65535	64782
800.9387	250.2503	65535	64775
801.0812	252.472	65535	64772.7
801.2238	254.6932	65535	64770.8
801.3664	256.9139	65535	64774.15
801.509	259.134	65535	64767.05
801.6516	261.3536	65535	64770.6
801.7942	263.5727	65535	64770.45
801.9369	265.7912	65535	64774.05
802.0795	268.0092	65535	64768.9
802.2222	270.2267	65535	64767.55
802.3649	272.4436	65535	64769.15
802.5076	274.6601	65535	64759.15
802.6504	276.8759	65535	64759.1
802.7931	279.0913	65535	64759
802.9359	281.3061	65535	64759.75
803.0787	283.5204	65535	64759.35
803.2215	285.7341	65535	64752.65
803.3643	287.9473	65535	64741.5
803.5071	290.16	65535	64745.7
803.6499	292.3721	65535	64755.1
803.7928	294.5837	65535	64754.95
803.9357	296.7947	65535	64756
804.0786	299.0052	65535	64751.3
804.2215	301.2152	65535	64751.55
804.3644	303.4246	65535	64757.1
804.5074	305.6334	65535	64752.15
804.6503	307.8418	65535	64748.4
804.7933	310.0495	65535	64749.45
804.9363	312.2568	65535	64747.55
805.0793	314.4635	65535	64745.15
805.2223	316.6696	65535	64741.95
805.3653	318.8752	65535	64735.6
805.5084	321.0802	65535	64741.35
805.6514	323.2847	65535	64741.85
805.7945	325.4887	65535	64745.6
805.9376	327.692	65535	64741.05
806.0807	329.8949	65535	64738.35
806.2238	332.0972	65535	64737.35
806.367	334.2989	65535	64731.45
806.5101	336.5001	65535	64733.8
806.6533	338.7007	65535	64732.2
806.7965	340.9008	65535	64732.9
806.9397	343.1003	65535	64731.95
807.0829	345.2992	65535	64726.55
807.2261	347.4976	65535	64726.3
807.3693	349.6955	65535	64726.75
807.5126	351.8927	65535	64720.25
807.6559	354.0895	65535	64713.8
807.7991	356.2856	65535	64719.1
807.9424	358.4812	65535	64720.5
808.0857	360.6763	65535	64718.55
808.2291	362.8707	65535	64715.9
808.3724	365.0646	65535	64715.6
808.5158	367.258	65535	64713.35
808.6591	369.4508	65535	64710.85
808.8025	371.643	65535	64710.3
808.9459	373.8346	65535	64709.6
809.0893	376.0257	65535	64703.3
809.2327	378.2162	65535	64704.95
809.3762	380.4062	65535	64706.65
809.5196	382.5956	65535	64704.15
809.6631	384.7844	65535	64709.3
809.8066	386.9726	65535	64710.55
809.9501	389.1603	65535	64715.25
810.0936	391.3474	65535	64671.65
810.2371	393.5339	65535	64713.6
810.3806	395.7199	65535	64716.1
810.5241	397.9052	65535	64714.7
810.6677	400.09	65535	64713
810.8113	402.2743	65535	64711.85
810.9548	404.4579	65535	64713.2
811.0984	406.641	65535	64710.5
811.2421	408.8235	65535	64712
811.3857	411.0054	65535	64708.75
811.5293	413.1868	65535	64700.8
811.673	415.3675	65535	64702.95
811.8166	417.5477	65535	64699.5
811.9603	419.7273	65535	64693.75
812.104	421.9064	65535	64689.65
812.2477	424.0848	65535	64694.55
812.3914	426.2627	65535	64694.35
812.5351	428.4399	65535	64695.1
812.6788	430.6166	65535	64691.4
812.8226	432.7928	65535	64686.7
812.9663	434.9683	65535	64687.85
813.1101	437.1432	65535	64688.85
813.2539	439.3176	65535	64686.7
813.3977	441.4914	65535	64690.45
813.5415	443.6645	65535	64689.45
813.6853	445.8371	65535	64689.3
813.8291	448.0091	65535	64685.2
813.973	450.1806	65535	64690.8
814.1168	452.3514	65535	64687.8
814.2607	454.5216	65535	64679.05
814.4046	456.6913	65535	64682.5
814.5485	458.8603	65535	64684.95
814.6924	461.0288	65535	64688.05
814.8363	463.1967	65535	64690.3
814.9802	465.3639	65535	64683.95
815.1241	467.5306	65535	64685.2
815.2681	469.6967	65535	64689.95
815.412	471.8622	65535	64684.65
815.556	474.0271	65535	64685.45
815.7	476.1914	65535	64680.65
815.844	478.3551	65535	64681.25
815.988	480.5182	65535	64683.8
816.132	482.6807	65535	64682.3
816.276	484.8426	65535	64686.15
816.4201	487.0039	65535	64684.3
816.5641	489.1647	65535	64682.6
816.7082	491.3248	65535	64681.45
816.8522	493.4843	65535	64679.3
816.9963	495.6432	65535	64681.9
817.1404	497.8015	65535	64678.25
817.2845	499.9592	65535	64677.05
817.4286	502.1163	65535	64675.5
817.5727	504.2728	65535	64675.5
817.7168	506.4287	65535	64677.1
817.861	508.5839	65535	64680.4
818.0051	510.7386	65535	64675.4
818.1493	512.8927	65535	64674.2
818.2935	515.0461	65535	64674.35
818.4377	517.199	65535	64677.5
818.5818	519.3512	65535	64674.55
818.726	521.5029	65535	64666
818.8703	523.6539	65535	64673.05
819.0145	525.8043	65535	64672.4
819.1587	527.9541	65535	64672.05
819.303	530.1033	65535	64672.45
819.4472	532.2519	65535	64672.8
819.5915	534.3999	65535	64669
819.7357	536.5472	65535	64666.4
819.88	538.694	65535	64672.95
820.0243	540.8401	65535	64666.8
820.1686	542.9856	65535	64664.25
820.3129	545.1305	65535	64666.1
820.4572	547.2748	65535	64664.5
820.6016	549.4185	65535	64659.55
820.7459	551.5615	65535	64665.2
820.8902	553.704	65535	64663.7
821.0346	555.8458	65535	64666.4
821.1789	557.987	65535	64665.75
821.3233	560.1276	65535	64663.7
821.4677	562.2675	65535	64667.25
821.6121	564.4069	65535	64665.2
821.7565	566.5456	65535	64667.25
821.9009	568.6837	65535	64665.2
822.0453	570.8212	65535	64663.9
822.1897	572.958	65535	64661.75
822.3342	575.0942	65535	64666
822.4786	577.2299	65535	64664.05
822.6231	579.3648	65535	64665.35
822.7675	581.4992	65535	64668.15
822.912	583.6329	65535	64668.45
823.0565	585.766	65535	64666.55
823.201	587.8985	65535	64665.2
823.3454	590.0304	65535	64644.2
823.4899	592.1616	65535	64660.75
823.6345	594.2922	65535	64660.2
823.779	596.4222	65535	64658.8
823.9235	598.5515	65535	64658.75
824.068	600.6802	65535	64658.85
824.2126	602.8083	65535	64658.15
824.3571	604.9358	65535	64657.4
824.5017	607.0626	65535	64660.85
824.6462	609.1888	65535	64656.2
824.7908	611.3144	65535	64658.7
824.9354	613.4393	65535	64659.2
825.08	615.5636	65535	64655.55
825.2246	617.6873	65535	64655.05
825.3692	619.8103	65535	64654.05
825.5138	621.9327	65535	64651.85
825.6584	624.0544	65535	64656.4
825.803	626.1756	65535	64657.75
825.9477	628.2961	65535	64654.15
826.0923	630.4159	65535	64656.25
826.237	632.5351	65535	64654.3
826.3816	634.6537	65535	64655.45
826.5263	636.7716	65535	64653.6
826.6709	638.8889	65535	64652.75
826.8156	641.0056	65535	64652.5
826.9603	643.1216	65535	64650.9
827.105	645.237	65535	64647.9
827.2497	647.3518	65535	64653.2
827.3944	649.4659	65535	64657.05
827.5391	651.5793	65535	64652.25
827.6838	653.6922	65535	64656
827.8285	655.8043	65535	64649.5
827.9733	657.9159	65535	64649.05
828.118	660.0268	65535	64649.3
828.2627	662.137	65535	64648.95
828.4075	664.2466	65535	64645
828.5522	666.3556	65535	64649
828.697	668.4639	65535	64647.85
828.8418	670.5716	65535	64648.9
828.9865	672.6786	65535	64646.05
829.1313	674.785	65535	64646.15
829.2761	676.8907	65535	64647.05
829.4209	678.9958	65535	64649.5
829.5657	681.1002	65535	64646.55
829.7105	683.204	65535	64643.45
829.8553	685.3072	65535	64645.1
830.0001	687.4097	65535	64646.15
830.1449	689.5115	65535	64644.7
830.2898	691.6127	65535	64646.5
830.4346	693.7132	65535	64646.1
830.5794	695.8131	65535	64639.55
830.7243	697.9123	65535	64645.8
830.8691	700.0109	65535	64640.1
831.014	702.1089	65535	64645.55
831.1588	704.2061	65535	64645.25
831.3037	706.3028	65535	64645.25
831.4486	708.3987	65535	64643.75
831.5935	710.4941	65535	64645.15
831.7383	712.5887	65535	64643.7
831.8832	714.6827	65535	64639.65
832.0281	716.7761	65535	64642.25
832.173	718.8688	65535	64643
832.3179	720.9608	65535	64636.95
832.4628	723.0522	65535	64641.85
832.6077	725.1429	65535	64641.55
832.7527	727.233	65535	64640.5
832.8976	729.3224	65535	64639.65
833.0425	731.4112	65535	64642.4
833.1874	733.4993	65535	64639.2
833.3324	735.5867	65535	64637.45
833.4773	737.6735	65535	64638.05
833.6222	739.7596	65535	64641.3
833.7672	741.845	65535	64639.3
833.9122	743.9298	65535	64636.5
834.0571	746.014	65535	64640
834.2021	748.0974	65535	64635.6
834.347	750.1802	65535	64638.55
834.492	752.2624	65535	64638.5
834.637	754.3439	65535	64641.3
834.782	756.4247	65535	64629.75
834.9269	758.5048	65535	64637.85
835.0719	760.5843	65535	64636.8
835.2169	762.6631	65535	64641.3
835.3619	764.7413	65535	64641.2
835.5069	766.8188	65535	64638.25
835.6519	768.8956	65535	64634.7
835.7969	770.9718	65535	64637.9
835.9419	773.0473	65535	64638.65
836.0869	775.1221	65535	64639.95
836.232	777.1962	65535	64640.5
836.377	779.2697	65535	64638.05
836.522	781.3426	65535	64617.4
836.667	783.4147	65535	64635.7
836.8121	785.4862	65535	64641.15
836.9571	787.557	65535	64640.6
837.1021	789.6271	65535	64637.75
837.2472	791.6966	65535	64635.9
837.3922	793.7654	65535	64634.6
837.5373	795.8335	65535	64637.5
837.6823	797.901	65535	64636.55
837.8274	799.9678	65535	64635.45
837.9724	802.0339	65535	64640
838.1175	804.0993	65535	64628.3
838.2626	806.1641	65535	64635.4
838.4076	808.2282	65535	64636.7
838.5527	810.2916	65535	64631.95
838.6978	812.3544	65535	64634.1
838.8428	814.4164	65535	64638.95
838.9879	816.4778	65535	64635.95
839.133	818.5385	65535	64634.8
839.2781	820.5986	65535	64636.9
839.4232	822.658	65535	64636.55
839.5682	824.7166	65535	64637.2
839.7133	826.7747	65535	64637.8
839.8584	828.832	65535	64636.8
840.0035	830.8886	65535	64633.2
840.1486	832.9446	65535	64632.35
840.2937	834.9999	65535	64636.3
840.4388	837.0545	65535	64633.1
840.5839	839.1085	65535	64636.7
840.729	841.1618	65535	64632.1
840.8741	843.2143	65535	64635.2
841.0192	845.2662	65535	64634.3
841.1643	847.3175	65535	64634.15
841.3095	849.368	65535	64633.85
841.4546	851.4179	65535	64637.5
841.5997	853.467	65535	64634.4
841.7448	855.5155	65535	64637.2
841.8899	857.5633	65535	64637.65
842.0351	859.6105	65535	64633.95
842.1802	861.6569	65535	64635.15
842.3253	863.7027	65535	64631.9
842.4704	865.7478	65535	64632.6
842.6156	867.7922	65535	64633.5
842.7607	869.8359	65535	64632.3
842.9058	871.8789	65535	64630.75
843.0509	873.9212	65535	64600.2
843.1961	875.9629	65535	64631.2
843.3412	878.0039	65535	64631.3
843.4863	880.0441	65535	64636
843.6315	882.0837	65535	64632.55
843.7766	884.1226	65535	64631.15
843.9218	886.1609	65535	64635.85
844.0669	888.1984	65535	64635.9
844.212	890.2352	65535	64633.3
844.3572	892.2714	65535	64628.75
844.5023	894.3069	65535	64634.85
844.6475	896.3416	65535	64633.25
844.7926	898.3757	65535	64634
844.9377	900.4091	65535	64633.15
845.0829	902.4418	65535	64628.95
845.228	904.4739	65535	64631.55
845.3732	906.5052	65535	64634.45
845.5183	908.5358	65535	64630.55
845.6635	910.5658	65535	64629
845.8086	912.595	65535	64632
845.9538	914.6236	65535	64633
846.0989	916.6515	65535	64632.95
846.2441	918.6786	65535	64632.2
846.3892	920.7051	65535	64626.05
846.5344	922.7309	65535	64633
846.6795	924.756	65535	64633
846.8246	926.7804	65535	64631.45
846.9698	928.8041	65535	64628.55
847.1149	930.8272	65535	64631.65
847.2601	932.8495	65535	64631.6
847.4052	934.8711	65535	64632.15
847.5504	936.892	65535	64633.95
847.6955	938.9123	65535	64632.65
847.8407	940.9318	65535	64629.95
847.9858	942.9506	65535	64628.8
848.131	944.9688	65535	64632.35
848.2761	946.9862	65535	64632.45
848.4213	949.003	65535	64630.05
848.5664	951.019	65535	64630.85
848.7115	953.0344	65535	64632.25
848.8567	955.0491	65535	64630.8
849.0018	957.063	65535	64629.1
849.147	959.0763	65535	64629.85
849.2921	961.0888	65535	64626.45
849.4373	963.1007	65535	64629.95
849.5824	965.1119	65535	64635.2
849.7275	967.1223	65535	64632.95
849.8727	969.1321	65535	64630.8
850.0178	971.1412	65535	64633.5
850.1629	973.1495	65535	64633
850.3081	975.1572	65535	64599.6
850.4532	977.1641	65535	64631
850.5983	979.1704	65535	64630.35
850.7435	981.1759	65535	64626.95
850.8886	983.1808	65535	64630.1
851.0337	985.1849	65535	64620.2
851.1788	987.1884	65535	64630.05
851.324	989.1911	65535	64628.4
851.4691	991.1932	65535	64630.95
851.6142	993.1945	65535	64629.75
851.7593	995.1951	65535	64631.9
851.9045	997.1951	65535	64622.95
852.0496	999.1943	65535	64631.2
852.1947	1001.1928	65535	64630.25
852.3398	1003.1906	65535	64631.75
852.4849	1005.1877	65535	64630.7
852.63	1007.1841	65535	64632.35
852.7751	1009.1798	65535	64630.85
852.9202	1011.1748	65535	64632.3
853.0653	1013.1691	65535	64627.3
853.2104	1015.1627	65535	64629.95
853.3555	1017.1556	65535	64632.3
853.5006	1019.1477	65535	64630.35
853.6457	1021.1392	65535	64632.9
853.7908	1023.1299	65535	64631.15
853.9359	1025.12	65535	64631.7
854.081	1027.1093	65535	64633.35
854.2261	1029.0979	65535	64637.4
854.3712	1031.0859	65535	64636.65
854.5163	1033.0731	65535	64633.3
854.6613	1035.0596	65535	64634.35
854.8064	1037.0454	65535	64632.4
854.9515	1039.0304	65535	64631.05
855.0965	1041.0148	65535	64634.15
855.2416	1042.9985	65535	64632.4
855.3867	1044.9814	65535	64633.7
855.5317	1046.9636	65535	64627.85
855.6768	1048.9452	65535	64632
855.8219	1050.926	65535	64631.35
855.9669	1052.9061	65535	64630.7
856.112	1054.8855	65535	64631.9
856.257	1056.8642	65535	64632.1
856.4021	1058.8421	65535	64627.55
856.5471	1060.8194	65535	64631.55
856.6921	1062.7959	65535	64630.8
856.8372	1064.7717	65535	64630.85
856.9822	1066.7469	65535	64628.7
857.1272	1068.7213	65535	64627.8
857.2723	1070.695	65535	64632
857.4173	1072.6679	65535	64629.9
857.5623	1074.6402	65535	64630.2
857.7073	1076.6117	65535	64627.9
857.8523	1078.5826	65535	64631.3
857.9973	1080.5527	65535	64628.75
858.1423	1082.5221	65535	64631.15
858.2873	1084.4908	65535	64630.85
858.4323	1086.4587	65535	64630.1
858.5773	1088.426	65535	64629.8
858.7223	1090.3925	65535	64625.55
858.8673	1092.3584	65535	64633
859.0123	1094.3235	65535	64633.35
859.1573	1096.2879	65535	64632.9
859.3022	1098.2515	65535	64631.45
859.4472	1100.2145	65535	64632.3
859.5922	1102.1767	65535	64628.85
859.7371	1104.1382	65535	64631
859.8821	1106.099	65535	64630.1
860.027	1108.0591	65535	64630.75
860.172	1110.0185	65535	64627.15
860.3169	1111.9771	65535	64629.85
860.4619	1113.9351	65535	64631.05
860.6068	1115.8923	65535	64630.65
860.7517	1117.8488	65535	64629.5
860.8967	1119.8045	65535	64630.85
861.0416	1121.7596	65535	64631.35
861.1865	1123.7139	65535	64631.55
861.3314	1125.6675	65535	64633.8
861.4763	1127.6204	65535	64633.75
861.6212	1129.5726	65535	64629.5
861.7661	1131.524	65535	64631.6
861.911	1133.4748	65535	64627.65
862.0559	1135.4248	65535	64628.9
862.2008	1137.3741	65535	64631.8
862.3457	1139.3226	65535	64629.9
862.4905	1141.2705	65535	64629.8
862.6354	1143.2176	65535	64624.7
862.7803	1145.164	65535	64629.65
862.9251	1147.1097	65535	64629.55
863.07	1149.0546	65535	64628.8
863.2148	1150.9989	65535	64630.05
863.3597	1152.9424	65535	64630.95
863.5045	1154.8852	65535	64628.7
863.6493	1156.8272	65535	64634
863.7942	1158.7686	65535	64623.35
863.939	1160.7092	65535	64628.7
864.0838	1162.6491	65535	64627.85
864.2286	1164.5883	65535	64633
864.3734	1166.5267	65535	64630.8
864.5182	1168.4644	65535	64629.25
864.663	1170.4014	65535	64626.75
864.8078	1172.3377	65535	64633.6
864.9526	1174.2732	65535	64631.65
865.0974	1176.2081	65535	64633.55
865.2421	1178.1421	65535	64627.3
865.3869	1180.0755	65535	64631.25
865.5317	1182.0082	65535	64630.2
865.6764	1183.9401	65535	64630.5
865.8212	1185.8713	65535	64632.45
865.9659	1187.8017	65535	64632.7
866.1106	1189.7315	65535	64633.85
866.2554	1191.6605	65535	64607.55
866.4001	1193.5888	65535	64634
866.5448	1195.5163	65535	64635.45
866.6895	1197.4432	65535	64631.1
866.8342	1199.3693	65535	64630.2
866.9789	1201.2947	65535	64629.2
867.1236	1203.2193	65535	64630.75
867.2683	1205.1432	65535	64630.4
867.413	1207.0664	65535	64632.75
867.5576	1208.9889	65535	64628.5
867.7023	1210.9106	65535	64635.3
867.847	1212.8316	65535	64633.3
867.9916	1214.7519	65535	64623.25
868.1363	1216.6715	65535	64632.95
868.2809	1218.5903	65535	64634.75
868.4255	1220.5084	65535	64631.75
868.5701	1222.4257	65535	64632.45
868.7148	1224.3424	65535	64631.65
868.8594	1226.2583	65535	64628.1
869.004	1228.1735	65535	64630.4
869.1486	1230.0879	65535	64633.65
869.2932	1232.0016	65535	64633.8
869.4377	1233.9146	65535	64630.5
869.5823	1235.8269	65535	64631.85
869.7269	1237.7384	65535	64633.15
869.8715	1239.6492	65535	64630.95
870.016	1241.5592	65535	64631.75
870.1606	1243.4686	65535	64634.15
870.3051	1245.3772	65535	64632.25
870.4496	1247.285	65535	64631.65
870.5941	1249.1922	65535	64635.55
870.7387	1251.0986	65535	64632.7
870.8832	1253.0042	65535	64631.7
871.0277	1254.9092	65535	64632.55
871.1722	1256.8134	65535	64632.95
871.3167	1258.7169	65535	64631.8
871.4611	1260.6196	65535	64633.9
871.6056	1262.5216	65535	64631.65
871.7501	1264.4229	65535	64634.7
871.8945	1266.3234	65535	64632.85
872.039	1268.2232	65535	64631.35
872.1834	1270.1223	65535	64631.55
872.3278	1272.0207	65535	64633.45
872.4723	1273.9183	65535	64625.6
872.6167	1275.8151	65535	64631.85
872.7611	1277.7113	65535	64635.2
872.9055	1279.6067	65535	64635.35
873.0499	1281.5014	65535	64631.05
873.1943	1283.3953	65535	64632.85
873.3386	1285.2885	65535	64632.55
873.483	1287.181	65535	64633.9
873.6274	1289.0727	65535	64631.85
873.7717	1290.9637	65535	64631.65
873.9161	1292.854	65535	64633.6
874.0604	1294.7435	65535	64632.05
874.2047	1296.6323	65535	64632.5
874.349	1298.5204	65535	64629.3
874.4933	1300.4077	65535	64631.4
874.6376	1302.2943	65535	64632.9
874.7819	1304.1802	65535	64631.5
874.9262	1306.0653	65535	64632.3
875.0705	1307.9497	65535	64632.6
875.2147	1309.8333	65535	64635.05
875.359	1311.7162	65535	64634.75
875.5032	1313.5984	65535	64629.75
875.6475	1315.4798	65535	64631.85
875.7917	1317.3605	65535	64616.5
875.9359	1319.2405	65535	64628.85
876.0801	1321.1197	65535	64632.8
876.2243	1322.9982	65535	64628.65
876.3685	1324.876	65535	64633.05
876.5127	1326.753	65535	64633.05
876.6569	1328.6293	65535	64631.4
876.801	1330.5048	65535	64631.05
876.9452	1332.3796	65535	64633.2
877.0893	1334.2537	65535	64609.05
877.2335	1336.127	65535	64630.05
877.3776	1337.9996	65535	64633.3
877.5217	1339.8714	65535	64632.65
877.6658	1341.7426	65535	64589.7
877.8099	1343.6129	65535	64632.4
877.954	1345.4826	65535	64630.75
878.0981	1347.3515	65535	64630.9
878.2422	1349.2196	65535	64633.8
878.3862	1351.087	65535	64632.15
878.5303	1352.9537	65535	64633.25
878.6743	1354.8197	65535	64631.5
878.8184	1356.6849	65535	64631.65
878.9624	1358.5493	65535	64632.75
879.1064	1360.4131	65535	64632.85
879.2504	1362.276	65535	64634.4
879.3944	1364.1383	65535	64632.4
879.5384	1365.9998	65535	64624.65
879.6823	1367.8606	65535	64631.85
879.8263	1369.7206	65535	64631.25
879.9702	1371.5799	65535	64630.5
880.1142	1373.4384	65535	64633.75
880.2581	1375.2962	65535	64631.7
880.402	1377.1533	65535	64633.35
880.5459	1379.0096	65535	64633.35
880.6898	1380.8652	65535	64634.25
880.8337	1382.7201	65535	64631.9
880.9776	1384.5742	65535	64632.7
881.1215	1386.4275	65535	64632.55
881.2653	1388.2802	65535	64633.45
881.4092	1390.132	65535	64633.55
881.553	1391.9832	65535	64631.4
881.6968	1393.8336	65535	64633.4
881.8406	1395.6832	65535	64632.15
881.9844	1397.5322	65535	64634.05
882.1282	1399.3803	65535	64627.65
882.272	1401.2278	65535	64631.85
882.4158	1403.0745	65535	64632.75
882.5595	1404.9204	65535	64635.25
882.7033	1406.7656	65535	64633
882.847	1408.6101	65535	64633.35
882.9908	1410.4538	65535	64634.4
883.1345	1412.2968	65535	64635
883.2782	1414.139	65535	64635.5
883.4219	1415.9805	65535	64632.1
883.5656	1417.8213	65535	64625.95
883.7092	1419.6613	65535	64633.15
883.8529	1421.5006	65535	64635.1
883.9965	1423.3391	65535	64635.05
884.1402	1425.1769	65535	64633.8
884.2838	1427.0139	65535	64630.65
884.4274	1428.8502	65535	64631.1
884.571	1430.6858	65535	64634.5
884.7146	1432.5206	65535	64631.7
884.8582	1434.3547	65535	64632.75
885.0018	1436.188	65535	64634.45
885.1453	1438.0206	65535	64633.95
885.2889	1439.8524	65535	64632.65
885.4324	1441.6835	65535	64633.05
885.5759	1443.5139	65535	64629.9
885.7194	1445.3435	65535	64634.3
885.8629	1447.1724	65535	64634.35
886.0064	1449.0005	65535	64632.5
886.1499	1450.8279	65535	64633.1
886.2933	1452.6545	65535	64634.15
886.4368	1454.4804	65535	64636
886.5802	1456.3056	65535	64628.4
886.7237	1458.13	65535	64633.85
886.8671	1459.9536	65535	64634.1
887.0105	1461.7766	65535	64634.15
887.1539	1463.5987	65535	64633.5
887.2972	1465.4202	65535	64633.2
887.4406	1467.2409	65535	64632.75
887.584	1469.0608	65535	64634.5
887.7273	1470.88	65535	64631.15
887.8706	1472.6984	65535	64633.95
888.0139	1474.5161	65535	64631.3
888.1572	1476.3331	65535	64635.55
888.3005	1478.1493	65535	64632.75
888.4438	1479.9648	65535	64635.9
888.5871	1481.7795	65535	64636.3
888.7303	1483.5935	65535	64634.65
888.8736	1485.4067	65535	64633.95
889.0168	1487.2192	65535	64633.6
889.16	1489.031	65535	64630.25
889.3032	1490.842	65535	64634.15
889.4464	1492.6522	65535	64637.2
889.5896	1494.4618	65535	64633.1
889.7327	1496.2705	65535	64633
889.8759	1498.0785	65535	64634.7
890.019	1499.8858	65535	64633.75
890.1622	1501.6924	65535	64636.85
890.3053	1503.4981	65535	64633.8
890.4484	1505.3032	65535	64633.85
890.5914	1507.1075	65535	64634.7
890.7345	1508.911	65535	64634.4
890.8776	1510.7138	65535	64634.75
891.0206	1512.5159	65535	64634.9
891.1637	1514.3172	65526.85	64627.1
891.3067	1516.1178	65534.15	64635.5
891.4497	1517.9176	65535	64633.85
891.5927	1519.7166	65531.8	64630.6
891.7357	1521.515	65529.9	64624
891.8786	1523.3126	65515	64612.65
892.0216	1525.1094	65531.35	64629.9
892.1645	1526.9055	65522	64622.6
892.3074	1528.7008	65522.4	64623.1
892.4503	1530.4954	65488.4	64588.95
892.5932	1532.2893	65523.7	64626.55
892.7361	1534.0824	65485.15	64582
892.879	1535.8747	65461.3	64561.95
893.0218	1537.6663	65525.3	64624.15
893.1647	1539.4572	65413.7	64513.85
893.3075	1541.2473	65465.3	64564.25
893.4503	1543.0367	65460.1	64561.3
893.5931	1544.8253	65454.7	64552.8
893.7359	1546.6132	65465.75	64564.1
893.8787	1548.4003	65429.65	64521.1
894.0214	1550.1867	65424.55	64516.05
894.1642	1551.9723	65414.3	64510.45
894.3069	1553.7572	65413	64514.6
894.4496	1555.5414	65435.35	64534.95
894.5923	1557.3247	65326.7	64427.25
894.735	1559.1074	65419.1	64522.55
894.8777	1560.8893	65370.35	64472.45
895.0204	1562.6705	65390.15	64492.5
895.163	1564.4509	65324.7	64428
895.3056	1566.2305	65351.25	64456.65
895.4482	1568.0094	65390.1	64496
895.5908	1569.7876	65364.9	64466
895.7334	1571.565	65330.45	64431
895.876	1573.3417	65353.45	64456.95
896.0186	1575.1176	65349.3	64453.45
896.1611	1576.8928	65324.55	64427.2
896.3036	1578.6672	65287.25	64390.9
896.4461	1580.4409	65310.75	64415.25
896.5886	1582.2138	65286.1	64387.45
896.7311	1583.986	65304.3	64408.8
896.8736	1585.7575	65268.45	64371.9
897.0161	1587.5282	65262.9	64368.8
897.1585	1589.2981	65266.3	64373
897.3009	1591.0673	65235.75	64336.65
897.4433	1592.8358	65224.35	64327.75
897.5857	1594.6035	65245.15	64347.45
897.7281	1596.3704	65245.45	64347.35
897.8705	1598.1366	65206.9	64311.65
898.0128	1599.9021	65190.4	64296.5
898.1551	1601.6668	65216.75	64319.9
898.2975	1603.4308	65188.85	64289.85
898.4398	1605.194	65218.4	64316.75
898.5821	1606.9564	65152.05	64256.75
898.7243	1608.7182	65175.75	64274.95
898.8666	1610.4791	65145.15	64252.8
899.0088	1612.2394	65183.4	64290.5
899.1511	1613.9988	65138.4	64244.1
899.2933	1615.7576	65178.15	64285.85
899.4355	1617.5156	65162.8	64260.4
899.5776	1619.2728	65207.15	64312.95
899.7198	1621.0293	65142.6	64247.7
899.862	1622.785	65154.65	64256.3
900.0041	1624.54	65170.4	64275.3
900.1462	1626.2942	65138.5	64242.5
900.2883	1628.0477	65084.95	64186.9
900.4304	1629.8005	65016.2	64119
900.5725	1631.5525	65069.1	64174.6
900.7145	1633.3037	64969.15	64074.2
900.8566	1635.0542	64964.75	64070.85
900.9986	1636.804	65035.85	64140.65
901.1406	1638.553	64919	63934.25
901.2826	1640.3013	64964.65	64068.1
901.4245	1642.0488	64901.35	64006.85
901.5665	1643.7955	64956.1	64063.9
901.7085	1645.5416	64909.25	64015.1
901.8504	1647.2868	64850.45	63956.25
901.9923	1649.0313	64913.1	64020.25
902.1342	1650.7751	64877.05	63980.85
902.2761	1652.5181	64835.25	63941.2
902.4179	1654.2604	64848.65	63954.55
902.5598	1656.0019	64880.7	63987.7
902.7016	1657.7427	64852.15	63957.55
902.8434	1659.4828	64899.5	64006.8
902.9852	1661.222	64850.1	63953.8
903.127	1662.9606	64898.25	64004.8
903.2687	1664.6984	64817.8	63923.65
903.4105	1666.4354	64837.75	63943.2
903.5522	1668.1717	64742.25	63849.1
903.6939	1669.9072	64671.1	63775.95
903.8356	1671.642	64656.25	63757.2
903.9773	1673.3761	64634.4	63743
904.119	1675.1094	64602.3	63707.75
904.2606	1676.8419	64551.65	63658.2
904.4022	1678.5737	64533.3	63637.85
904.5439	1680.3048	64519	63623.8
904.6855	1682.0351	64482.35	63588.3
904.827	1683.7646	64454.45	63557.9
904.9686	1685.4934	64457.8	63565.85
905.1101	1687.2215	64366.5	63473.9
905.2517	1688.9488	64431.7	63538.7
905.3932	1690.6754	64295.15	63402.15
905.5347	1692.4012	64347.6	63454
905.6761	1694.1263	64339.55	63447.3
905.8176	1695.8506	64309.05	63414.3
905.9591	1697.5742	64314.3	63418.6
906.1005	1699.297	64279.65	63384.3
906.2419	1701.0191	64275.2	63381.65
906.3833	1702.7404	64210.1	63319.35
906.5246	1704.461	64187.05	63292.85
906.666	1706.1808	64206.15	63310.25
906.8073	1707.8999	64176.45	63280.35
906.9487	1709.6182	64155.05	63262.3
907.09	1711.3358	64133.95	63241
907.2313	1713.0527	64107.35	63216.35
907.3725	1714.7688	64111.25	63210.15
907.5138	1716.4841	64008.9	63113.4
907.655	1718.1987	64039.65	63142.45
907.7962	1719.9126	64005.7	63116.05
907.9374	1721.6257	64033.65	63139.35
908.0786	1723.338	64021.6	63128.7
908.2198	1725.0496	63891.2	62998.4
908.3609	1726.7605	63907.25	63012.15
908.502	1728.4706	63861.8	62967.05
908.6431	1730.18	63876.9	62979.8
908.7842	1731.8886	63852.5	62958.65
908.9253	1733.5964	63786.65	62889.9
909.0664	1735.3036	63821.55	62926.7
909.2074	1737.0099	63781.55	62890.85
909.3484	1738.7156	63731.85	62840.3
909.4894	1740.4204	63706.15	62811.95
909.6304	1742.1246	63712.4	62817.2
909.7714	1743.8279	63717.6	62825.25
909.9123	1745.5306	63686.3	62792.75
910.0532	1747.2325	63520.65	62629.6
910.1941	1748.9336	63539.85	62649.85
910.335	1750.634	63554.1	62660.65
910.4759	1752.3336	63571.85	62678.8
910.6168	1754.0325	63445.5	62552.85
910.7576	1755.7307	63570	62681.3
910.8984	1757.4281	63403	62510.7
911.0392	1759.1247	63532	62628.1
911.18	1760.8206	63268.6	62371.9
911.3208	1762.5158	63303.35	62404.55
911.4615	1764.2102	63364.8	62474.2
911.6022	1765.9039	63281.45	62388.5
911.7429	1767.5968	63200.95	62309.45
911.8836	1769.289	63125.1	62232.4
912.0243	1770.9804	63281.65	62387.35
912.1649	1772.6711	63129.15	62236.5
912.3056	1774.361	63079.4	62186.6
912.4462	1776.0502	63086.7	62191.5
912.5868	1777.7386	62579.65	61682.85
912.7274	1779.4263	62962.95	62069.7
912.8679	1781.1132	62914.9	62023.2
913.0084	1782.7994	62823.7	61930.2
913.149	1784.4849	62777.5	61884.9
913.2895	1786.1696	62120.3	61222.45
913.4299	1787.8535	62569.45	61678.95
913.5704	1789.5367	62678.2	61788.05
913.7108	1791.2192	62209.1	61318
913.8513	1792.9009	61889.55	60966.7
913.9917	1794.5818	62296	61403.65
914.132	1796.2621	61889	60997.55
914.2724	1797.9415	61941.8	61049.95
914.4128	1799.6202	61911.5	61018.9
914.5531	1801.2982	61889.3	60996.35
914.6934	1802.9755	61398.7	60505.2
914.8337	1804.6519	61235.2	60343.2
914.9739	1806.3277	61955.05	61062.55
915.1142	1808.0027	60862.45	59972
915.2544	1809.6769	61302.2	60411.45
915.3946	1811.3504	61356.45	60464
915.5348	1813.0231	60438.6	59545.95
915.675	1814.6951	61086.7	60196.55
915.8151	1816.3664	60711.1	59814.6
915.9553	1818.0369	60728	59834
916.0954	1819.7067	60449.7	59560.15
916.2355	1821.3757	61010	60118.05
916.3755	1823.044	60242.65	59351.7
916.5156	1824.7115	59751.55	58859.7
916.6556	1826.3783	60060.65	59168.3
916.7956	1828.0443	60139.8	59250.6
916.9356	1829.7096	59807.95	58914.45
917.0756	1831.3741	59042.7	58146
917.2155	1833.0379	59523.4	58634.15
917.3555	1834.701	59523.75	58630.75
917.4954	1836.3633	58992.2	58099.9
917.6353	1838.0248	59312.5	58421.4
917.7751	1839.6856	59138.65	58248.25
917.915	1841.3457	58502.25	57610.4
918.0548	1843.005	59208.9	58316.9
918.1946	1844.6636	58799.25	57908.9
918.3344	1846.3214	57952.1	57059.6
918.4742	1847.9785	58188.5	57296.55
918.6139	1849.6349	58133.4	57239.35
918.7537	1851.2904	58791.2	57888
918.8934	1852.9453	57721.2	56828.3
919.0331	1854.5994	58164.5	57271.35
919.1727	1856.2528	58109.3	57211.05
919.3124	1857.9054	57519.5	56627.35
919.452	1859.5572	57222.4	56331.2
919.5916	1861.2083	57492.05	56600.15
919.7312	1862.8587	58173.3	57283.15
919.8708	1864.5084	56580.3	55687.1
920.0103	1866.1572	57247.2	56356.8
920.1498	1867.8054	56410.1	55518.1
920.2893	1869.4528	56961.1	56069.6
920.4288	1871.0994	56349.2	55456.8
920.5683	1872.7453	56239.5	55347.75
920.7077	1874.3905	56563.85	55665.75
920.8471	1876.0349	55925.05	55033.1
920.9865	1877.6786	56380.95	55487.7
921.1259	1879.3215	55807.65	54916.85
921.2653	1880.9637	56357.7	55463.15
921.4046	1882.6051	55768.05	54876.2
921.5439	1884.2458	55520.4	54628
921.6832	1885.8858	55187.9	54297.75
921.8225	1887.525	55375.3	54481.4
921.9617	1889.1634	55293.55	54402.2
922.101	1890.8011	55000.4	54108.65
922.2402	1892.4381	54324.8	53432.55
922.3794	1894.0743	54999.95	54107.9
922.5185	1895.7098	54557.45	53666.25
922.6577	1897.3446	54174.6	53281.9
922.7968	1898.9786	54325.25	53428.2
922.9359	1900.6118	54048.1	53157.6
923.075	1902.2443	53739.45	52845.9
923.214	1903.8761	54010.35	53118
923.3531	1905.5071	53576.7	52683.95
923.4921	1907.1374	52907.25	52016.3
923.6311	1908.7669	53210.35	52318.95
923.77	1910.3957	53485.25	52594.2
923.909	1912.0237	52794.1	51902.8
924.0479	1913.651	52551.1	51657.7
924.1868	1915.2776	52427.05	51538.2
924.3257	1916.9034	52398.1	51509.75
924.4646	1918.5285	52063.5	51173.55
924.6034	1920.1528	52016.15	51125.35
924.7422	1921.7764	51880.15	50988.4
924.881	1923.3992	51770.9	50880.7
925.0198	1925.0213	51429.85	50540.35
925.1586	1926.6427	50960.8	50071.15
925.2973	1928.2633	51131.65	50162.05
925.436	1929.8832	50962.45	50070.7
925.5747	1931.5023	50700	49810.85
925.7134	1933.1207	50337.5	49447.6
925.852	1934.7383	50574.55	49683.15
925.9906	1936.3552	50219.2	49329.1
926.1292	1937.9714	50139.4	49247.55
926.2678	1939.5868	50063.65	49169.95
926.4064	1941.2015	49605.15	48712.1
926.5449	1942.8154	49348.65	48457.25
926.6834	1944.4286	49300.2	48409.7
926.8219	1946.041	49202.75	48292.1
926.9604	1947.6528	48903.75	48008.45
927.0988	1949.2637	48760.85	47867.55
927.2372	1950.8739	48469.4	47575.85
927.3756	1952.4834	48580.9	47689.9
927.514	1954.0921	48380.75	47488.85
927.6523	1955.7001	48088.2	47193.05
927.7907	1957.3074	48154.4	47264.2
927.929	1958.9139	47771.25	46880.8
928.0673	1960.5197	47722.25	46830.5
928.2055	1962.1247	47517.65	46626.5
928.3438	1963.729	47286.9	46398.6
928.482	1965.3325	47135.5	46220.2
928.6202	1966.9353	47048.55	46157.7
928.7584	1968.5374	46771.45	45879.15
928.8965	1970.1387	46649.85	45758.5
929.0346	1971.7393	46467.45	45576.75
929.1727	1973.3392	46320.6	45431.35
929.3108	1974.9383	46175.65	45285.6
929.4489	1976.5366	45961	45071.65
929.5869	1978.1342	45922.7	45031.85
929.7249	1979.7311	45821.6	44931.2
929.8629	1981.3273	45692.15	44801.2
930.0009	1982.9227	45462.25	44571.25
930.1388	1984.5173	45326.1	44436.55
930.2767	1986.1112	45089.9	44200.55
930.4146	1987.7044	45139.1	44251.85
930.5525	1989.2968	44830.5	43940.25
930.6904	1990.8885	44839.35	43943.45
930.8282	1992.4795	44685.85	43795.9
930.966	1994.0697	44445	43556.5
931.1038	1995.6592	44325.5	43437.45
931.2415	1997.2479	44198.25	43308.75
931.3793	1998.8359	44029.4	43139.2
931.517	2000.4232	43815.9	42926.95
931.6547	2002.0097	43738.15	42848.15
931.7923	2003.5955	43575.65	42686.5
931.93	2005.1805	43530.15	42639.7
932.0676	2006.7648	43332.55	42442.2
932.2052	2008.3484	43182.3	42292.05
932.3427	2009.9312	43197.95	42308.8
932.4803	2011.5133	42962.35	42075.2
932.6178	2013.0946	42853.7	41965.4
932.7553	2014.6752	42792.3	41905.3
932.8928	2016.2551	42696.15	41807.25
933.0302	2017.8342	42493.65	41604.5
933.1676	2019.4126	42234.7	41346.75
933.305	2020.9902	42079.8	41189.75
933.4424	2022.5672	42101.2	41210.2
933.5798	2024.1433	41979.65	41085.4
933.7171	2025.7188	41742.3	40855.7
933.8544	2027.2935	41704.95	40816.05
933.9917	2028.8674	41511.15	40622.05
934.129	2030.4406	41400.05	40510.9
934.2662	2032.0131	41217.15	40330.35
934.4034	2033.5849	41112.7	40216.75
934.5406	2035.1559	40980.4	40088.9
934.6778	2036.7261	40933.85	40044.15
934.8149	2038.2957	40770.5	39882.15
934.952	2039.8645	40742.3	39853.5
935.0891	2041.4325	40673.5	39783.1
935.2262	2042.9998	40501.3	39611.85
935.3632	2044.5664	40436.8	39546.85
935.5002	2046.1323	40256.5	39367.2
935.6372	2047.6974	40132.25	39244.45
935.7742	2049.2617	40010.95	39121.85
935.9111	2050.8254	40018.7	39125.3
936.048	2052.3883	39923.95	39030.9
936.1849	2053.9504	39758.05	38867.25
936.3218	2055.5118	39665.25	38775
936.4586	2057.0725	39494.4	38601.3
936.5955	2058.6325	39374.45	38483.45
936.7323	2060.1917	39267.2	38379.75
936.869	2061.7502	39157.2	38264.5
937.0058	2063.3079	39018.8	38131.65
937.1425	2064.8649	38843.65	37950.85
937.2792	2066.4212	38772.9	37882.4
937.4159	2067.9767	38661.5	37772.1
937.5525	2069.5315	38500.2	37610.05
937.6891	2071.0856	38271.25	37382
937.8257	2072.6389	38157.4	37266.9
937.9623	2074.1915	37992.2	37103.2
938.0989	2075.7433	37793.05	36903.9
938.2354	2077.2945	37786.95	36897.45
938.3719	2078.8448	37635.05	36746.7
938.5084	2080.3945	37492.25	36603
938.6448	2081.9434	37476.75	36586
938.7812	2083.4916	37316.75	36427.2
938.9176	2085.039	37201.3	36309.25
939.054	2086.5857	37110.25	36218.15
939.1903	2088.1317	37034.3	36143.15
939.3267	2089.677	36953.7	36062.65
939.463	2091.2215	36786.15	35897.6
939.5992	2092.7652	36687.45	35795.45
939.7355	2094.3083	36643.75	35752.45
939.8717	2095.8506	36552.8	35662.7
940.0079	2097.3921	36514.75	35624.25
940.1441	2098.933	36305.05	35416.25
940.2802	2100.4731	36215.9	35325.2
940.4163	2102.0124	36166.2	35261.3
940.5524	2103.5511	36099.8	35209.7
940.6885	2105.089	36050.4	35161.35
940.8245	2106.6261	35903.35	35014.05
940.9606	2108.1626	35829.1	34938.95
941.0965	2109.6983	35717.7	34799.2
941.2325	2111.2332	35667.3	34776.95
941.3684	2112.7675	35495.3	34604.3
941.5044	2114.301	35411.85	34518.6
941.6403	2115.8337	35351.7	34460.35
941.7761	2117.3657	35214.7	34323.45
941.912	2118.897	35102.75	34214.15
942.0478	2120.4276	34983.05	34087.75
942.1835	2121.9575	34853.9	33963.15
942.3193	2123.4866	34848.45	33945.4
942.455	2125.0149	34750.7	33857.4
942.5907	2126.5426	34523.4	33635.55
942.7264	2128.0695	34392.35	33498
942.8621	2129.5956	34354.4	33467.55
942.9977	2131.1211	34290.2	33395.5
943.1333	2132.6458	34247.25	33358.35
943.2689	2134.1698	34126.45	33237.45
943.4044	2135.693	34009.85	33117.15
943.54	2137.2155	33930.45	33038.6
943.6755	2138.7373	33835.65	32946.2
943.8109	2140.2584	33698	32809.6
943.9464	2141.7787	33619.8	32725.3
944.0818	2143.2983	33466.5	32578.4
944.2172	2144.8171	33270.65	32384.75
944.3526	2146.3353	33229.65	32340.15
944.4879	2147.8527	33058.4	32168.85
944.6232	2149.3693	33096.6	32207.2
944.7585	2150.8853	32978.35	32087.3
944.8938	2152.4005	32749.25	31858.15
945.029	2153.9149	32697.3	31806.9
945.1642	2155.4287	32575.6	31687.15
945.2994	2156.9417	32546.6	31656.2
945.4346	2158.454	32423.85	31530.35
945.5697	2159.9655	32364.5	31474.4
945.7048	2161.4764	32354.95	31466.75
945.8399	2162.9865	32193.5	31303.7
945.9749	2164.4958	32100.75	31209.85
946.1099	2166.0045	31957.45	31065.6
946.2449	2167.5124	31917.5	31027.35
946.3799	2169.0195	31832.65	30944.65
946.5148	2170.526	31789.5	30898
946.6498	2172.0317	31674.95	30785.4
946.7846	2173.5367	31584.9	30695.65
946.9195	2175.0409	31510.3	30620.15
947.0543	2176.5445	31463.15	30575.7
947.1891	2178.0473	31314.05	30423.4
947.3239	2179.5494	31164.75	30270.3
947.4587	2181.0507	31101.8	30212.3
947.5934	2182.5513	30980.85	30091.3
947.7281	2184.0512	30920.65	30032.5
947.8628	2185.5504	30811.15	29920.5
947.9974	2187.0488	30596.3	29706.8
948.132	2188.5465	30552.1	29662
948.2666	2190.0435	30417.3	29525.9
948.4012	2191.5397	30354	29464.75
948.5357	2193.0353	30236.8	29347.4
948.6702	2194.5301	30060.25	29169.85
948.8047	2196.0241	29957.15	29067.9
948.9392	2197.5175	29914.35	29023.2
949.0736	2199.0101	29772.95	28880.6
949.208	2200.502	29622.85	28733.75
949.3424	2201.9931	29505.8	28617.1
949.4767	2203.4835	29390.45	28502.85
949.611	2204.9733	29326.8	28432.65
949.7453	2206.4622	29278.35	28389.5
949.8796	2207.9505	29200.15	28309.55
950.0138	2209.438	29012.5	28123.45
950.148	2210.9248	28920.25	28031.25
950.2822	2212.4109	28835.6	27946.7
950.4164	2213.8962	28740.2	27847.5
950.5505	2215.3809	28637.6	27746.1
950.6846	2216.8648	28623.5	27732.95
950.8186	2218.3479	28502.05	27608.55
950.9527	2219.8304	28367.65	27473.4
951.0867	2221.3121	28283.7	27392
951.2207	2222.7931	28191.8	27304.5
951.3546	2224.2733	28101.4	27212.5
951.4886	2225.7529	27968.95	27078.25
951.6225	2227.2317	27901.8	27008.65
951.7563	2228.7098	27867.25	26979.65
951.8902	2230.1872	27665.3	26776.55
952.024	2231.6638	27692	26802.75
952.1578	2233.1397	27531.9	26637.95
952.2916	2234.6149	27468.45	26578.2
952.4253	2236.0894	27368.85	26477.4
952.559	2237.5632	27319.7	26428
952.6927	2239.0362	27160.7	26271.05
952.8263	2240.5085	27124.5	26234.5
952.9599	2241.9801	26985.5	26093.65
953.0935	2243.4509	26905.5	26016.5
953.2271	2244.921	26802.95	25914.55
953.3606	2246.3904	26718.05	25823.75
953.4941	2247.8591	26619.25	25729.15
953.6276	2249.3271	26513.05	25623.6
953.7611	2250.7943	26416.8	25525.4
953.8945	2252.2608	26351.85	25464.75
954.0279	2253.7266	26274.1	25385.3
954.1612	2255.1917	26199.4	25311.05
954.2946	2256.656	26114.2	25222.1
954.4279	2258.1197	26037.85	25147.9
954.5612	2259.5826	25961.75	25070.75
954.6944	2261.0447	25892.9	25001.15
954.8276	2262.5062	25763.55	24872.1
954.9608	2263.9669	25699.9	24809.9
955.094	2265.4269	25659.2	24770.5
955.2271	2266.8862	25569.85	24680.15
955.3602	2268.3448	25540.5	24651.25
955.4933	2269.8026	25469.45	24581.35
955.6264	2271.2598	25377.45	24488
955.7594	2272.7162	25272	24382.9
955.8924	2274.1719	25224.2	24336.25
956.0253	2275.6268	25137.1	24247.25
956.1583	2277.0811	25090.6	24200.85
956.2912	2278.5346	24993.65	24105.5
956.4241	2279.9874	24924.45	24035.25
956.5569	2281.4395	24889.4	24001.15
956.6897	2282.8908	24753.4	23859.2
956.8225	2284.3414	24733.8	23840.55
956.9553	2285.7914	24613.65	23725.55
957.088	2287.2406	24541.75	23648.05
957.2207	2288.689	24496.85	23608.45
957.3534	2290.1368	24385.15	23493.55
957.486	2291.5838	24322.9	23430.05
957.6186	2293.0302	24264.65	23373.45
957.7512	2294.4758	24117.6	23228.25
957.8838	2295.9206	24042.75	23151.95
958.0163	2297.3648	23945.2	23054.85
958.1488	2298.8082	23965	23076.1
958.2813	2300.251	23874.7	22986.95
958.4137	2301.693	23773.75	22879.95
958.5461	2303.1343	23748.15	22858.5
958.6785	2304.5748	23664.5	22775.45
958.8108	2306.0147	23601.95	22713.05
958.9432	2307.4538	23522.8	22632.65
959.0754	2308.8922	23459.9	22572.25
959.2077	2310.3299	23360.55	22470.15
959.3399	2311.7669	23257.1	22365.45
959.4721	2313.2031	23206.75	22316.85
959.6043	2314.6387	23105.85	22214.2
959.7365	2316.0735	23016.9	22127.9
959.8686	2317.5076	22970.95	22083.6
960.0006	2318.941	22925.6	22038.8
960.1327	2320.3737	22855.55	21966.8
960.2647	2321.8056	22785.5	21894.65
960.3967	2323.2369	22693.95	21801.75
960.5287	2324.6674	22643.3	21751.75
960.6606	2326.0972	22530.5	21638.65
960.7925	2327.5263	22460.05	21571.7
960.9244	2328.9547	22381.65	21491.45
961.0562	2330.3823	22325.25	21434.9
961.1881	2331.8092	22316.1	21425.95
961.3198	2333.2355	22185.85	21297.45
961.4516	2334.661	22134.8	21244.6
961.5833	2336.0858	22097.65	21205.5
961.715	2337.5098	22028	21137.35
961.8467	2338.9332	22007.6	21116.8
961.9783	2340.3558	21907.9	21016
962.1099	2341.7778	21810.1	20920.8
962.2415	2343.199	21745.55	20855.3
962.373	2344.6195	21654.35	20764.5
962.5045	2346.0393	21592.6	20703.8
962.636	2347.4583	21553.9	20664.4
962.7675	2348.8767	21462.85	20571.9
962.8989	2350.2943	21418.45	20527.5
963.0303	2351.7113	21398.8	20505.6
963.1617	2353.1275	21291.15	20402.1
963.293	2354.543	21230.8	20332.05
963.4243	2355.9578	21161.8	20270.25
963.5556	2357.3718	21013.35	20125.05
963.6868	2358.7852	20939.1	20046.15
963.818	2360.1978	20869.55	19978.1
963.9492	2361.6098	20859.3	19970.95
964.0803	2363.021	20781.7	19887.4
964.2114	2364.4315	20698.25	19807.9
964.3425	2365.8413	20641.8	19749.5
964.4736	2367.2504	20568.05	19681.1
964.6046	2368.6587	20480.45	19591.5
964.7356	2370.0664	20409.05	19520.4
964.8666	2371.4733	20319.35	19430.25
964.9975	2372.8795	20259.75	19371
965.1284	2374.285	20149.1	19258.65
965.2593	2375.6899	20023.65	19136.35
965.3901	2377.0939	19971.1	19082.25
965.5209	2378.4973	19884.25	18995.45
965.6517	2379.9	19822.35	18933.65
965.7825	2381.3019	19785.1	18898.1
965.9132	2382.7032	19692.85	18804.85
966.0439	2384.1037	19688.45	18800.65
966.1745	2385.5035	19614.25	18726.1
966.3051	2386.9027	19523.15	18636.2
966.4357	2388.3011	19473.4	18581.1
966.5663	2389.6987	19439.65	18551.65
966.6968	2391.0957	19335.85	18447.55
966.8273	2392.492	19262.2	18375.85
966.9578	2393.8876	19155.25	18265.3
967.0882	2395.2824	19090.65	18202.85
967.2186	2396.6765	18997.75	18110
967.349	2398.07	18930.85	18041.55
967.4793	2399.4627	18879.55	17989.9
967.6097	2400.8547	18813.3	17925.2
967.7399	2402.246	18756.65	17863.95
967.8702	2403.6366	18621	17730.25
968.0004	2405.0265	18537.7	17648.5
968.1306	2406.4156	18484.65	17593.25
968.2607	2407.8041	18430.3	17537.6
968.3909	2409.1918	18337.5	17445.85
968.521	2410.5789	18247.8	17358.55
968.651	2411.9652	18242.85	17350.7
968.781	2413.3508	18122.5	17233.75
968.911	2414.7358	18061.6	17174
969.041	2416.12	17998.35	17111.6
969.1709	2417.5035	17969.25	17081.3
969.3008	2418.8863	17866.75	16975.55
969.4307	2420.2684	17843.95	16953.05
969.5606	2421.6497	17716.95	16826.45
969.6904	2423.0304	17611.65	16721.45
969.8201	2424.4104	17571.75	16680.9
969.9499	2425.7896	17539.2	16647.6
970.0796	2427.1682	17472.7	16586.55
970.2093	2428.546	17464.35	16573.95
970.3389	2429.9232	17394.85	16503.65
970.4685	2431.2996	17341.8	16453.05
970.5981	2432.6753	17286.25	16397.35
970.7277	2434.0503	17258.35	16369.55
970.8572	2435.4246	17166.8	16277.3
970.9867	2436.7982	17103.85	16212.85
971.1161	2438.1711	17037.35	16149.85
971.2456	2439.5433	17025.75	16135.15
971.375	2440.9148	16977.45	16082.9
971.5043	2442.2856	16851.55	15962
971.6336	2443.6557	16800.45	15907.7
971.7629	2445.025	16758.7	15869
971.8922	2446.3937	16707.55	15817.35
972.0214	2447.7617	16638.65	15747.85
972.1506	2449.1289	16628.2	15740.25
972.2798	2450.4955	16576.2	15684.9
972.4089	2451.8613	16506.25	15618.15
972.538	2453.2265	16442.35	15553.05
972.6671	2454.5909	16417.1	15525.4
972.7961	2455.9546	16354.5	15463.9
972.9251	2457.3177	16290.5	15402.95
973.0541	2458.68	16238.45	15349
973.1831	2460.0416	16254.75	15365.5
973.312	2461.4025	16207.55	15316
973.4408	2462.7627	16138.6	15238.8
973.5697	2464.1222	16077.5	15187.65
973.6985	2465.4811	16032.3	15142.05
973.8273	2466.8392	15992.55	15102.75
973.956	2468.1966	15947	15055.4
974.0847	2469.5533	15917.8	15027.7
974.2134	2470.9093	15871.75	14983.1
974.3421	2472.2645	15805.25	14914.4
974.4707	2473.6191	15713.65	14825.85
974.5993	2474.973	15682.15	14792.8
974.7278	2476.3262	15587.75	14697.35
974.8563	2477.6787	15557.85	14667.85
974.9848	2479.0305	15479.75	14590.55
975.1132	2480.3816	15426.75	14536.1
975.2417	2481.7319	15356	14465.6
975.37	2483.0816	15313	14422.05
975.4984	2484.4306	15280.55	14390.3
975.6267	2485.7789	15212.85	14325
975.755	2487.1264	15129.75	14240.3
975.8833	2488.4733	15078.75	14189.85
976.0115	2489.8195	15012.05	14116.75
976.1397	2491.165	14976.45	14085.45
976.2678	2492.5097	14924.15	14033.75
976.3959	2493.8538	14861.3	13972.15
976.524	2495.1972	14789.5	13899.5
976.6521	2496.5398	14727.7	13837.1
976.7801	2497.8818	14668.7	13777.65
976.9081	2499.2231	14613.2	13725.3
977.036	2500.5637	14568.95	13679.8
977.164	2501.9035	14542.35	13652.05
977.2918	2503.2427	14486.9	13596.45
977.4197	2504.5812	14422.15	13533.4
977.5475	2505.919	14405.75	13515.45
977.6753	2507.256	14387.5	13498.9
977.8031	2508.5924	14289.5	13399.3
977.9308	2509.9281	14243.2	13349.65
978.0585	2511.2631	14165.8	13276.7
978.1861	2512.5974	14182.25	13293.65
978.3137	2513.9309	14102.4	13213.75
978.4413	2515.2638	14037.7	13122.4
978.5689	2516.596	13992.5	13103.85
978.6964	2517.9275	13933.1	13040.85
978.8239	2519.2583	13902	13010.55
978.9513	2520.5884	13838.55	12947.1
979.0788	2521.9178	13763.45	12873.45
979.2062	2523.2465	13753.6	12865.6
979.3335	2524.5745	13700.8	12812.1
979.4608	2525.9018	13633.85	12742.6
979.5881	2527.2284	13616.2	12727.45
979.7154	2528.5543	13529.35	12641.25
979.8426	2529.8796	13515.1	12625.75
979.9698	2531.2041	13484	12594.9
980.0969	2532.5279	13462	12574.55
980.224	2533.851	13409.75	12521.45
980.3511	2535.1735	13361.5	12472.3
980.4781	2536.4952	13334.75	12445.7
980.6052	2537.8163	13288.9	12399.55
980.7321	2539.1366	13257.95	12369.25
980.8591	2540.4562	13217.15	12327.6
980.986	2541.7752	13215.65	12326.35
981.1129	2543.0935	13183.55	12294.25
981.2397	2544.411	13155.5	12265.7
981.3665	2545.7279	13060.9	12173.55
981.4933	2547.0441	13063.35	12177.15
981.62	2548.3596	13051.4	12160.05
981.7467	2549.6744	13024.45	12135.75
981.8734	2550.9885	12961.95	12065.8
982.0001	2552.3019	12934.6	12045.65
982.1267	2553.6146	12922.95	12035.25
982.2532	2554.9266	12867.55	11977.95
982.3798	2556.2379	12794	11903.95
982.5063	2557.5485	12769	11880.8
982.6327	2558.8585	12726.05	11829.15
982.7592	2560.1677	12731.1	11838.2
982.8856	2561.4762	12683.1	11793.8
983.0119	2562.7841	12646	11754.7
983.1383	2564.0913	12628.75	11741.05
983.2646	2565.3977	12599.5	11710.15
983.3908	2566.7035	12560.75	11672.95
983.517	2568.0086	12551.2	11659.65
983.6432	2569.313	12533.1	11641.75
983.7694	2570.6167	12471.95	11577.6
983.8955	2571.9197	12449.4	11560.15
984.0216	2573.222	12433.5	11540.95
984.1476	2574.5236	12386.6	11498.2
984.2737	2575.8246	12322	11430.1
984.3996	2577.1248	12325.65	11434.45
984.5256	2578.4244	12302.2	11413
984.6515	2579.7232	12289.7	11402
984.7774	2581.0214	12273.65	11360.75
984.9032	2582.3189	12221	11333.4
985.029	2583.6157	12201.75	11306.15
985.1548	2584.9118	12166.3	11277.25
985.2806	2586.2072	12120.2	11232.8
985.4063	2587.5019	12070.25	11179.4
985.5319	2588.7959	12042.7	11153.7
985.6576	2590.0893	12059.25	11170.4
985.7832	2591.3819	12009.95	11122.05
985.9087	2592.6739	11912.2	11024.05
986.0343	2593.9652	11899.85	11011.4
986.1597	2595.2557	11872.8	10982.6
986.2852	2596.5456	11830.35	10939.35
986.4106	2597.8348	11770.4	10881.5
986.536	2599.1234	11703.05	10815.4
986.6614	2600.4112	11710.4	10821.9
986.7867	2601.6983	11649.4	10755.8
986.912	2602.9848	11621.2	10731.6
987.0372	2604.2705	11545.5	10648.5
987.1624	2605.5556	11529.45	10640.15
987.2876	2606.84	11482.9	10595.15
987.4128	2608.1237	11428.45	10538.85
987.5379	2609.4067	11377.8	10491.2
987.6629	2610.689	11368.75	10471.85
987.788	2611.9707	11327.4	10435.75
987.913	2613.2516	11281.9	10386.85
988.0379	2614.5319	11193	10304.85
988.1629	2615.8115	11194.7	10306.3
988.2878	2617.0903	11148.5	10259.2
988.4126	2618.3685	11111.5	10221.8
988.5375	2619.6461	11062.95	10174.1
988.6622	2620.9229	11037.6	10149.35
988.787	2622.199	11009.75	10118.4
988.9117	2623.4745	10985.95	10095.7
989.0364	2624.7493	10913.1	10024.4
989.161	2626.0234	10867	9978.9
989.2857	2627.2968	10838.25	9949.1
989.4102	2628.5695	10809.1	9919.7
989.5348	2629.8415	10737.9	9850
989.6593	2631.1128	10670.4	9780.65
989.7837	2632.3835	10631.65	9744.05
989.9082	2633.6535	10613.85	9726.8
990.0326	2634.9228	10569.05	9679.8
990.1569	2636.1914	10548.2	9660.45
990.2812	2637.4593	10514.75	9619.7
990.4055	2638.7265	10467.8	9579.1
990.5298	2639.9931	10439	9550.7
990.654	2641.259	10439.4	9551.5
990.7782	2642.5242	10385.2	9494.95
990.9023	2643.7887	10369.7	9479.95
991.0264	2645.0525	10315.5	9426.4
991.1505	2646.3156	10281.6	9391.9
991.2745	2647.5781	10223.8	9334.35
991.3985	2648.8398	10199.35	9311.8
991.5225	2650.1009	10177.4	9251.65
991.6464	2651.3613	10167	9278.25
991.7703	2652.6211	10124.2	9235.4
991.8942	2653.8801	10087.3	9199.95
992.018	2655.1385	10084.15	9192.2
992.1418	2656.3961	10039.1	9149.85
992.2655	2657.6531	10034.55	9146.75
992.3892	2658.9094	9988.9	9101.5
992.5129	2660.1651	9945.1	9057.35
992.6366	2661.42	9918.45	9029.65
992.7602	2662.6743	9892.7	9000.35
992.8837	2663.9279	9868.75	8979.6
993.0073	2665.1808	9833.8	8945.05
993.1307	2666.433	9790	8899.3
993.2542	2667.6846	9766.2	8879
993.3776	2668.9354	9760.35	8869
993.501	2670.1856	9709.65	8820.7
993.6244	2671.4351	9697.85	8808.15
993.7477	2672.6839	9651.7	8762
993.8709	2673.9321	9643.75	8755.35
993.9942	2675.1795	9604.3	8715.75
994.1174	2676.4263	9560.75	8673.55
994.2405	2677.6724	9565.6	8677.85
994.3637	2678.9179	9524.8	8635.2
994.4868	2680.1626	9505.55	8617.9
994.6098	2681.4067	9451.55	8562.3
994.7328	2682.6501	9429.8	8540.1
994.8558	2683.8928	9391.15	8502.2
994.9788	2685.1348	9348.95	8459.25
995.1017	2686.3761	9314.7	8426.85
995.2245	2687.6168	9304.35	8415.05
995.3474	2688.8568	9259.4	8370.95
995.4702	2690.0961	9219.1	8330.3
995.5929	2691.3348	9190.25	8301.9
995.7156	2692.5727	9186.75	8299.7
995.8383	2693.81	9163.85	8275.65
995.961	2695.0466	9118.3	8230.9
996.0836	2696.2826	9078.5	8190.7
996.2062	2697.5178	9065.8	8175.85
996.3287	2698.7524	9018.5	8130.55
996.4512	2699.9863	9006.35	8114.45
996.5737	2701.2195	8971	8082.9
996.6961	2702.452	8980.25	8091.3
996.8185	2703.6839	8928.65	8039.55
996.9408	2704.9151	8886.3	7998.5
997.0631	2706.1456	8849.35	7960.4
997.1854	2707.3755	8846.4	7958
997.3077	2708.6046	8819.1	7929.7
997.4299	2709.8331	8795.8	7906.05
997.552	2711.0609	8750.6	7863.15
997.6742	2712.2881	8732.95	7843.85
997.7963	2713.5145	8711.75	7822.3
997.9183	2714.7403	8681.2	7793.7
998.0403	2715.9654	8650.95	7761
998.1623	2717.1899	8648.25	7745.5
998.2842	2718.4136	8647.7	7760.95
998.4062	2719.6367	8607.05	7717.7
998.528	2720.8591	8568.25	7672.05
998.6498	2722.0809	8540.75	7652.95
998.7716	2723.3019	8517.5	7627.85
998.8934	2724.5223	8515.05	7626.75
999.0151	2725.7421	8476.45	7588.45
999.1368	2726.9611	8454	7563.85
999.2584	2728.1795	8419.85	7525.75
999.38	2729.3972	8394.6	7504.65
999.5016	2730.6142	8336.5	7441.7
999.6231	2731.8306	8289.55	7400.3
999.7446	2733.0462	8257.45	7366.95
999.8661	2734.2612	8208.25	7314.8
999.9875	2735.4756	8177.7	7288.7
1000.1089	2736.6892	8122.65	7230.95
1000.2302	2737.9022	8057.9	7172.25
1000.3515	2739.1145	8024.75	7135.7
1000.4728	2740.3262	8018.15	7120.8
1000.594	2741.5372	7956.75	7069.4
1000.7152	2742.7475	7935.45	7047.35
1000.8363	2743.9571	7901.5	7011.25
1000.9575	2745.1661	7870.3	6976.55
1001.0785	2746.3744	7833.35	6942.85
1001.1996	2747.582	7814.5	6926.35
1001.3206	2748.7889	7777.6	6887.25
1001.4415	2749.9952	7750.95	6862.75
1001.5625	2751.2008	7725.8	6836.05
1001.6833	2752.4057	7721.2	6829.9
1001.8042	2753.61	7637.5	6747.35
1001.925	2754.8136	7632	6742.95
1002.0458	2756.0165	7593.5	6704.95
1002.1665	2757.2188	7579.6	6693.8
1002.2872	2758.4204	7572.05	6684.95
1002.4078	2759.6213	7515.4	6621.35
1002.5285	2760.8215	7499.15	6606.85
1002.649	2762.0211	7465.25	6573.35
1002.7696	2763.22	7430.35	6540.65
1002.8901	2764.4182	7429.45	6538.1
1003.0106	2765.6158	7416.85	6528.7
1003.131	2766.8127	7378.1	6487.85
1003.2514	2768.009	7357.15	6471.45
1003.3717	2769.2045	7312.6	6423.55
1003.492	2770.3994	7315.75	6426.95
1003.6123	2771.5936	7285	6394.05
1003.7325	2772.7872	7259.95	6372.65
1003.8527	2773.9801	7200.45	6312.3
1003.9729	2775.1723	7186.05	6282.65
1004.093	2776.3639	7145.1	6256.15
1004.2131	2777.5548	7158.95	6266.7
1004.3331	2778.745	7134.6	6245.95
1004.4531	2779.9346	7087.75	6199.5
1004.5731	2781.1235	7068.05	6180.55
1004.693	2782.3117	7080.1	6191.05
1004.8129	2783.4992	7014.2	6124.4
1004.9328	2784.6861	6977.6	6088.2
1005.0526	2785.8723	6999.45	6109.25
1005.1723	2787.0579	6983.6	6093.55
1005.2921	2788.2428	6945.5	6055.9
1005.4118	2789.427	6940.15	6052.1
1005.5314	2790.6106	6917.45	6031.55
1005.651	2791.7935	6872.05	5984.15
1005.7706	2792.9757	6872.7	5985.15
1005.8902	2794.1573	6845.35	5953.95
1006.0097	2795.3382	6840.4	5952.4
1006.1291	2796.5184	6815.45	5930.55
1006.2485	2797.698	6822.4	5933.05
1006.3679	2798.8769	6801.2	5912.8
1006.4873	2800.0551	6797.95	5909.85
1006.6066	2801.2327	6795.75	5905.25
1006.7258	2802.4096	6767.55	5879.45
1006.8451	2803.5859	6757.45	5868.65
1006.9642	2804.7615	6753.8	5864.4
1007.0834	2805.9364	6734.55	5846.6
1007.2025	2807.1106	6761.1	5872.25
1007.3216	2808.2842	6754.15	5864.8
1007.4406	2809.4572	6754.25	5865.45
1007.5596	2810.6294	6772.9	5884.2
1007.6785	2811.801	6808.15	5920.25
1007.7975	2812.972	6824.9	5936.9
1007.9163	2814.1423	6823.35	5936.1
1008.0352	2815.3119	6830.35	5941.55
1008.154	2816.4808	6843.95	5955.9
1008.2727	2817.6491	6907.35	6017.7
1008.3914	2818.8167	6917.55	6029.4
1008.5101	2819.9837	6939.45	6045.9
1008.6288	2821.15	6967.45	6078.85
1008.7474	2822.3157	6978.3	6091.3
1008.8659	2823.4807	7029.25	6140.8
1008.9844	2824.645	7056.05	6166.85
1009.1029	2825.8086	7078.75	6191.8
1009.2214	2826.9716	7127.6	6241.05
1009.3398	2828.134	7152.3	6265.55
1009.4581	2829.2957	7185.65	6298
1009.5764	2830.4567	7186.8	6298.7
1009.6947	2831.617	7186.1	6297.75
1009.813	2832.7767	7184.35	6296.05
1009.9312	2833.9358	7169.65	6283
1010.0493	2835.0941	7143	6253.15
1010.1675	2836.2519	7111.4	6225.9
1010.2855	2837.4089	7103.15	6216.3
1010.4036	2838.5653	7062.65	6176.75
1010.5216	2839.7211	7044.8	6159.25
1010.6396	2840.8761	7036.5	6145.7
1010.7575	2842.0306	7038.7	6150.75
1010.8754	2843.1843	7065.9	6178.9
1010.9932	2844.3374	7090.9	6203.1
1011.111	2845.4899	7105.6	6217.05
1011.2288	2846.6417	7145.4	6256.7
1011.3465	2847.7928	7187.3	6299.95
1011.4642	2848.9433	7251	6363.3
1011.5818	2850.0931	7290.35	6402.8
1011.6995	2851.2422	7348.2	6458.95
1011.817	2852.3907	7394.3	6506.1
1011.9345	2853.5385	7436.5	6545.05
1012.052	2854.6857	7456.2	6558.3
1012.1695	2855.8323	7508.85	6621.35
1012.2869	2856.9781	7506.7	6618.8
1012.4042	2858.1233	7547.2	6659
1012.5216	2859.2679	7564.95	6678.3
1012.6389	2860.4118	7592.8	6706.45
1012.7561	2861.555	7630.15	6738.9
1012.8733	2862.6976	7632.75	6742.8
1012.9905	2863.8395	7646.7	6757.35
1013.1076	2864.9808	7656.1	6767.65
1013.2247	2866.1214	7641.7	6755.95
1013.3417	2867.2614	7641.15	6753.9
1013.4587	2868.4007	7643.25	6755
1013.5757	2869.5393	7651.15	6762.35
1013.6926	2870.6773	7628.65	6737.25
1013.8095	2871.8146	7632.15	6740.35
1013.9263	2872.9513	7587.4	6697.1
1014.0431	2874.0874	7575.25	6687
1014.1599	2875.2227	7520.8	6632.9
1014.2766	2876.3574	7485.9	6600.7
1014.3933	2877.4915	7454.5	6564.95
1014.51	2878.6249	7391	6503.4
1014.6266	2879.7577	7369.05	6479.95
1014.7431	2880.8898	7319.85	6421.15
1014.8596	2882.0212	7284.3	6396.25
1014.9761	2883.152	7285.5	6397.7
1015.0925	2884.2821	7259.35	6371.9
1015.2089	2885.4116	7217.45	6329.6
1015.3253	2886.5405	7171.6	6284.55
1015.4416	2887.6686	7186.2	6294.4
1015.5579	2888.7962	7178.75	6294
1015.6741	2889.923	7146.05	6259.45
1015.7903	2891.0493	7148.2	6261.55
1015.9065	2892.1748	7150.65	6261.7
1016.0226	2893.2997	7125.25	6237.6
1016.1387	2894.424	7135.2	6247.25
1016.2547	2895.5476	7122.55	6234.7
1016.3707	2896.6706	7117.6	6230.35
1016.4866	2897.7929	7129.05	6241.5
1016.6025	2898.9145	7134.2	6244.55
1016.7184	2900.0355	7130.65	6243.4
1016.8342	2901.1559	7150.8	6262
1016.95	2902.2756	7156.05	6268.6
1017.0658	2903.3946	7181.9	6296.65
1017.1815	2904.513	7169.8	6279.6
1017.2971	2905.6308	7191.5	6303.7
1017.4127	2906.7479	7205.5	6316.8
1017.5283	2907.8643	7207.2	6318.25
1017.6439	2908.9801	7200.95	6314.1
1017.7594	2910.0953	7177.7	6288.6
1017.8748	2911.2098	7151.3	6259.2
1017.9902	2912.3236	7143.75	6247.95
1018.1056	2913.4368	7103.7	6212.35
1018.2209	2914.5494	7060.45	6171.5
1018.3362	2915.6613	7037.7	6143.65
1018.4515	2916.7725	7007.1	6117.85
1018.5667	2917.8831	6957.15	6068.7
1018.6819	2918.9931	6917.95	6028.5
1018.797	2920.1024	6871.85	5983.25
1018.9121	2921.211	6836.6	5948.45
1019.0271	2922.319	6815.95	5927.35
1019.1421	2923.4264	6774	5886.55
1019.2571	2924.5331	6778.3	5892.2
1019.372	2925.6391	6739.55	5851.1
1019.4869	2926.7445	6719.2	5831.6
1019.6017	2927.8493	6689.15	5801.65
1019.7165	2928.9534	6681.4	5792.4
1019.8313	2930.0569	6674	5783.9
1019.946	2931.1597	6653.5	5764.9
1020.0606	2932.2619	6617.35	5728.8
1020.1753	2933.3634	6631.25	5745.3
1020.2899	2934.4643	6625.4	5731.9
1020.4044	2935.5645	6574.8	5679.95
1020.5189	2936.6641	6550.55	5660.25
1020.6334	2937.763	6495.4	5608.4
1020.7478	2938.8613	6428.75	5540.15
1020.8622	2939.959	6373.05	5480
1020.9765	2941.056	6284.4	5397.6
1021.0908	2942.1523	6193.35	5304.9
1021.2051	2943.248	6105.55	5217.55
1021.3193	2944.3431	6012.3	5125.1
1021.4334	2945.4375	5909.35	5022.25
1021.5476	2946.5313	5787.95	4900
1021.6617	2947.6244	5694.65	4806.4
1021.7757	2948.7169	5605.6	4718.1
1021.8897	2949.8087	5496.4	4610.25
1022.0037	2950.8999	5405.35	4517.45
1022.1176	2951.9904	5314.95	4428.8
1022.2315	2953.0803	5228.4	4340.7
1022.3453	2954.1696	5161.9	4275
1022.4591	2955.2582	5088.9	4202.3
1022.5728	2956.3462	5024.9	4137.85
1022.6865	2957.4335	4993.05	4105.6
1022.8002	2958.5202	4925.9	4035.85
1022.9138	2959.6062	4910.55	4022.2
1023.0274	2960.6916	4879.9	3990.2
1023.141	2961.7764	4837.95	3949.45
1023.2545	2962.8605	4813.05	3924.2
1023.3679	2963.9439	4779.5	3892.7
1023.4813	2965.0267	4770.75	3880.95
1023.5947	2966.1089	4754.6	3845.15
1023.708	2967.1905	4714.65	3826.75
1023.8213	2968.2714	4690.2	3804.3
1023.9346	2969.3516	4685.85	3798.65
1024.0478	2970.4312	4674.75	3780.5
1024.1609	2971.5102	4651.95	3766.3
1024.274	2972.5885	4648.75	3761.95
1024.3871	2973.6662	4644.3	3753.5
1024.5002	2974.7432	4621.9	3733.25
1024.6132	2975.8196	4604.35	3717.3
1024.7261	2976.8954	4569.2	3682.85
1024.839	2977.9705	4558.8	3671.85
1024.9519	2979.045	4540.75	3656.3
1025.0647	2980.1188	4516.95	3629.55
1025.1775	2981.192	4484.2	3596.35
1025.2902	2982.2645	4456.4	3568.65
1025.4029	2983.3364	4410.5	3521.35
1025.5156	2984.4077	4380.75	3493.45
1025.6282	2985.4783	4343.5	3450.45
1025.7407	2986.5483	4303	3417.65
1025.8532	2987.6177	4269.1	3382.65
1025.9657	2988.6864	4222.2	3336.05
1026.0782	2989.7545	4195.65	3309.4
1026.1906	2990.8219	4160.55	3273.35
1026.3029	2991.8887	4109.15	3219.55
1026.4152	2992.9548	4068.35	3181.15
1026.5275	2994.0204	4035.8	3148.7
1026.6397	2995.0852	4010.9	3125.6
1026.7519	2996.1495	3961.8	3072.45
1026.864	2997.2131	3925.75	3038.7
1026.9761	2998.276	3894.05	3006.3
1027.0882	2999.3383	3863.1	2976.7
1027.2002	3000.4	3848	2960.8
1027.3122	3001.4611	3802.25	2914.7
1027.4241	3002.5215	3784.05	2895.35
1027.536	3003.5812	3766.75	2881.15
1027.6478	3004.6404	3743.8	2855.85
1027.7596	3005.6989	3718.8	2830.4
1027.8714	3006.7567	3714.6	2825.7
1027.9831	3007.8139	3712.45	2803.75
1028.0947	3008.8705	3668	2782.4
1028.2064	3009.9264	3659.95	2770.05
1028.3179	3010.9818	3634.45	2748.35
1028.4295	3012.0364	3621.8	2734.55
1028.541	3013.0905	3611.15	2722.05
1028.6524	3014.1439	3605.35	2718.6
1028.7638	3015.1966	3602.65	2715.3
1028.8752	3016.2487	3582.4	2695.35
1028.9865	3017.3002	3579.6	2687.95
1029.0978	3018.3511	3552.05	2666.15
1029.209	3019.4013	3538.15	2652.15
1029.3202	3020.4509	3537.4	2650.85
1029.4314	3021.4998	3538.2	2648.3
1029.5425	3022.5481	3520.65	2634.05
1029.6535	3023.5958	3502.55	2615.45
1029.7645	3024.6428	3495.75	2608.65
1029.8755	3025.6892	3485	2598.15
1029.9864	3026.735	3480.9	2593.6
1030.0973	3027.7802	3476.5	2588.35
1030.2082	3028.8247	3448.55	2560.8
1030.319	3029.8685	3447.3	2561.5
1030.4297	3030.9118	3445.8	2556.6
1030.5404	3031.9544	3436.85	2549.35
1030.6511	3032.9963	3428.1	2540.7
1030.7617	3034.0376	3411.45	2523.5
1030.8723	3035.0783	3407.75	2518.2
1030.9829	3036.1184	3408.95	2520.75
1031.0934	3037.1578	3408.35	2520.15
1031.2038	3038.1966	3386.65	2498.55
1031.3142	3039.2348	3373.6	2486.45
1031.4246	3040.2723	3378.55	2483.4
1031.5349	3041.3092	3359.7	2471.85
1031.6452	3042.3455	3356.35	2468.8
1031.7554	3043.3811	3347.5	2459.55
1031.8656	3044.4161	3325.8	2438.3
1031.9758	3045.4505	3318.3	2433.15
1032.0859	3046.4842	3305.65	2417.55
1032.1959	3047.5173	3283.4	2397.95
1032.3059	3048.5498	3269.5	2381
1032.4159	3049.5816	3270.25	2382.3
1032.5258	3050.6128	3259.8	2370.2
1032.6357	3051.6434	3234.7	2346.3
1032.7455	3052.6734	3222.95	2334
1032.8553	3053.7027	3217.2	2329.95
1032.9651	3054.7314	3196.55	2311.8
1033.0748	3055.7594	3185.95	2298.1
1033.1845	3056.7868	3182.7	2295.3
1033.2941	3057.8136	3177.85	2289.75
1033.4037	3058.8398	3156.35	2270.75
1033.5132	3059.8653	3141.9	2253.5
1033.6227	3060.8902	3122.45	2236.45
1033.7321	3061.9145	3111.65	2223.4
1033.8415	3062.9381	3115.5	2227.8
1033.9509	3063.9612	3103.55	2199.8
1034.0602	3064.9835	3083.4	2196.7
1034.1694	3066.0053	3069.95	2181.15
1034.2787	3067.0264	3054.25	2167
1034.3878	3068.0469	3054.9	2168.4
1034.497	3069.0668	3029.1	2137.35
1034.6061	3070.086	3027.5	2139.15
1034.7151	3071.1046	2999.1	2114
1034.8241	3072.1226	2992.65	2103.7
1034.9331	3073.1399	2977.4	2090.95
1035.042	3074.1567	2954.05	2067.55
1035.1508	3075.1727	2955.1	2065.1
1035.2597	3076.1882	2923.1	2035.55
1035.3684	3077.203	2925	2038.65
1035.4772	3078.2173	2913.4	2024.35
1035.5859	3079.2308	2893.45	2004.25
1035.6945	3080.2438	2874.65	1985.2
1035.8031	3081.2561	2857.6	1971.05
1035.9117	3082.2678	2858.8	1972.45
1036.0202	3083.2789	2839.2	1952.3
1036.1286	3084.2893	2826.25	1938.1
1036.2371	3085.2991	2814.8	1925.7
1036.3454	3086.3083	2808.8	1917.65
1036.4538	3087.3169	2794.25	1907.6
1036.562	3088.3248	2783.4	1896.15
1036.6703	3089.3321	2761.3	1874.7
1036.7785	3090.3388	2749.55	1864.5
1036.8866	3091.3449	2754.3	1867.65
1036.9948	3092.3503	2730.7	1841.9
1037.1028	3093.3551	2726.5	1841.4
1037.2108	3094.3593	2710.4	1824.65
1037.3188	3095.3629	2688.65	1802.5
1037.4267	3096.3658	2690.25	1803.55
1037.5346	3097.3681	2681.75	1793.65
1037.6425	3098.3698	2677.15	1788
1037.7503	3099.3708	2666.65	1771.45
1037.858	3100.3713	2645.05	1759
1037.9657	3101.3711	2631.65	1743.1
1038.0734	3102.3702	2745.05	1719.75
1038.181	3103.3688	2644	1755.95
1038.2886	3104.3667	2611.75	1728
1038.3961	3105.364	2594.75	1707.65
1038.5036	3106.3607	2577.1	1688.55
1038.611	3107.3568	2572.85	1683.25
1038.7184	3108.3522	2561.1	1676
1038.8257	3109.347	2553.45	1665.3
1038.933	3110.3412	2557.6	1666
1039.0403	3111.3348	2535.8	1646.1
1039.1475	3112.3277	2524.4	1640.35
1039.2547	3113.32	2517.25	1631.35
1039.3618	3114.3117	2503.15	1615.6
1039.4689	3115.3028	2502.4	1614.9
1039.5759	3116.2932	2490.95	1602.2
1039.6829	3117.2831	2476.3	1584.75
1039.7898	3118.2723	2459.3	1571.8
1039.8967	3119.2608	2458.65	1571.65
1040.0035	3120.2488	2455.95	1568.35
1040.1103	3121.2361	2446.9	1559.05
1040.2171	3122.2229	2437.15	1550.45
1040.3238	3123.209	2432.75	1545.3
1040.4305	3124.1944	2424.1	1535.1
1040.5371	3125.1793	2416.35	1527.45
1040.6437	3126.1635	2395.95	1508.5
1040.7502	3127.1471	2385.85	1499.9
1040.8567	3128.1301	2383.9	1495.75
1040.9631	3129.1125	2368.1	1481.65
1041.0695	3130.0942	2370.1	1481.9
1041.1759	3131.0753	2373.65	1479.15
1041.2822	3132.0558	2348.65	1458.95
1041.3884	3133.0357	2345.05	1455.95
1041.4946	3134.015	2338.05	1449.9
1041.6008	3134.9936	2333.2	1445.5
1041.7069	3135.9716	2343.75	1436.1
1041.813	3136.949	2326.6	1438.25
1041.919	3137.9258	2319.75	1426.85
1042.025	3138.902	2317.05	1425
1042.1309	3139.8775	2295.9	1409.8
1042.2368	3140.8524	2308.5	1422.4
1042.3427	3141.8267	2293.25	1401.8
1042.4485	3142.8004	2288.75	1402.35
1042.5542	3143.7735	2281.65	1388.55
1042.6599	3144.7459	2273.95	1384.75
1042.7656	3145.7178	2269.8	1382.5
1042.8712	3146.689	2255.35	1369.4
1042.9768	3147.6596	2251.85	1362.9
1043.0823	3148.6295	2245.35	1358.35
1043.1878	3149.5989	2236.65	1348.9
1043.2932	3150.5676	2231.5	1345.65
1043.3986	3151.5357	2230.6	1344.65
1043.5039	3152.5032	2212.45	1326.6
1043.6092	3153.4701	2213.8	1325.8
1043.7145	3154.4364	2200.55	1311.6
1043.8197	3155.402	2201.25	1314.8
1043.9248	3156.367	2192.45	1304.85
1044.03	3157.3315	2214.95	1285.8
1044.135	3158.2952	2169.05	1279.9
1044.24	3159.2584	2165.7	1280.85
1044.345	3160.221	2152.35	1264.95
1044.4499	3161.1829	2145.45	1257.5
1044.5548	3162.1442	2142.6	1255.55
1044.6596	3163.105	2136.95	1248.75
1044.7644	3164.065	2123.55	1236.95
1044.8692	3165.0245	2121.5	1230.8
1044.9739	3165.9834	2112.35	1228.2
1045.0785	3166.9416	2101	1212.45
1045.1831	3167.8993	2098.4	1211.2
1045.2877	3168.8563	2089.95	1203
1045.3922	3169.8127	2074.4	1186.5
1045.4966	3170.7684	2072.9	1186.05
1045.6011	3171.7236	2072.15	1184.3
1045.7054	3172.6782	2069.4	1181.85
1045.8098	3173.6321	2056.9	1169.35
1045.914	3174.5854	2055.95	1163.35
1046.0183	3175.5381	2047.9	1162.15
1046.1224	3176.4902	2044.25	1156.7
1046.2266	3177.4417	2028.3	1141.8
1046.3307	3178.3926	2022.7	1136.95
1046.4347	3179.3428	2013.85	1128.45
1046.5387	3180.2924	2005.65	1120.2
1046.6427	3181.2415	2007.6	1120.75
1046.7466	3182.1899	1997.8	1107.2
1046.8504	3183.1377	2003.65	1116.45
1046.9542	3184.0848	2001.95	1112.6
1047.058	3185.0314	1990.1	1103.55
1047.1617	3185.9773	1977	1088.85
1047.2654	3186.9227	1972.1	1085.5
1047.369	3187.8674	1960.9	1073.1
1047.4726	3188.8115	1963.95	1074.25
1047.5761	3189.755	1959.5	1071.05
1047.6796	3190.6979	1947.75	1061.85
1047.783	3191.6402	1942.85	1056.05
1047.8864	3192.5818	1939.9	1054.65
1047.9898	3193.5229	1953.2	1041.55
1048.0931	3194.4633	1937.9	1050.55
1048.1963	3195.4031	1920.25	1032.85
1048.2995	3196.3423	1911.75	1026.1
1048.4027	3197.2809	1916.75	1031.55
1048.5058	3198.2189	1907.6	1020.75
1048.6089	3199.1563	1907.05	1012.3
1048.7119	3200.0931	1896.6	1011.1
1048.8148	3201.0292	1894.7	1007.7
1048.9178	3201.9648	1894.4	1009.2
1049.0206	3202.8997	1888.65	999.25
1049.1235	3203.834	1870.7	983.9
1049.2262	3204.7677	1863.65	977.15
1049.329	3205.7008	1865.35	975.45
1049.4317	3206.6333	1854.75	970.55
1049.5343	3207.5652	1857.9	968.05
1049.6369	3208.4964	1854.35	966.85
1049.7394	3209.4271	1842.85	956.45
1049.8419	3210.3571	1840.15	954.15
1049.9444	3211.2865	1841	951.55
1050.0468	3212.2154	1840.1	952.85
1050.1491	3213.1436	1826.55	936.55
1050.2514	3214.0712	1831.15	937.5
1050.3537	3214.9982	1815.95	929.25
1050.4559	3215.9246	1823.45	936.8
1050.5581	3216.8503	1804.9	919
1050.6602	3217.7755	1801.7	913
1050.7623	3218.7001	1798.35	911.5
1050.8643	3219.624	1793.95	907.05
1050.9663	3220.5473	1797	908.2
1051.0682	3221.4701	1781.25	892.5
1051.1701	3222.3922	1787.05	899.55
1051.2719	3223.3137	1769.05	883.05
1051.3737	3224.2346	1774.9	888.8
1051.4754	3225.1549	1758.75	872.6
1051.5771	3226.0746	1754.65	868.95
1051.6788	3226.9937	1755.35	867.3
1051.7804	3227.9121	1753.85	867.15
1051.8819	3228.83	1744.3	856.25
1051.9834	3229.7473	1741.3	853.15
1052.0849	3230.6639	1737.45	849.6
1052.1863	3231.5799	1730.05	843.8
1052.2876	3232.4954	1729.5	844.4
1052.3889	3233.4102	1726.9	841.6
1052.4902	3234.3244	1713.65	826.85
1052.5914	3235.238	1707.65	821.95
1052.6926	3236.151	1728.5	818.2
1052.7937	3237.0634	1704	818.1
1052.8948	3237.9752	1699.9	813.45
1052.9958	3238.8864	1687.15	799.5
1053.0968	3239.797	1691.2	805
1053.1977	3240.7069	1688	798.3
1053.2986	3241.6163	1672.35	783.65
1053.3994	3242.5251	1669.85	784.85
1053.5002	3243.4332	1680.15	795.1
1053.6009	3244.3408	1671	784.7
1053.7016	3245.2477	1661.35	773.85
1053.8022	3246.154	1657.6	771.6
1053.9028	3247.0598	1652.85	766.3
1054.0034	3247.9649	1644	757.65
1054.1039	3248.8694	1645.9	759.35
1054.2043	3249.7733	1635.7	748.85
1054.3047	3250.6766	1626.2	739.1
1054.4051	3251.5793	1627.5	740.75
1054.5054	3252.4814	1619.95	733.4
1054.6056	3253.3829	1614.35	725.65
1054.7058	3254.2838	1613.6	728
1054.806	3255.1841	1613.6	728.25
1054.9061	3256.0838	1604.95	718.35
1055.0061	3256.9829	1596.95	707.85
1055.1062	3257.8814	1593.9	705.5
1055.2061	3258.7792	1588.5	697.7
1055.306	3259.6765	1582.75	693.3
1055.4059	3260.5731	1572.95	687.45
1055.5057	3261.4692	1565.1	678.55
1055.6055	3262.3647	1555.65	669.25
1055.7052	3263.2595	1546.6	659.55
1055.8049	3264.1538	1537.5	651.4
1055.9045	3265.0474	1525.45	638.25
1056.0041	3265.9404	1516.9	630.4
1056.1036	3266.8329	1508.9	622.3
1056.2031	3267.7247	1499.25	603.15
1056.3025	3268.616	1482.1	596
1056.4019	3269.5066	1460.4	574.25
1056.5013	3270.3966	1454.5	567.6
1056.6005	3271.286	1427.6	539.9
