Software Version:	3.9.2.0
Unit SN:	10000200
Spectrometer SN:	6960
Date:	3/6/2024 9:54:31 AM
Data Line Index:	25
Spectral Points:	2048
Integration time (ms):	125
Averages:	20
Delay (ms):	30
Sequence Number:	1
Processing:	dark subtract
Laser Power (mW):	305
Laser Current (mA):	825
Laser Diode Temp (C):	25.1
Laser Case Temp (C):	24.5
System Temp (C):	24.3
Spectrometer Temp (C):	21.9
CCD Temp (C):	-0.01
Secondary Temp (C):	20.011
Heatsink Temp (C):	18.189
CCDPCB Temp (C):	31.294
SecondaryPCB Temp (C):	26.169

Wavelength	RamanShift	Raw Counts	Dark Subtracted
787.061	30.1047	529.65	121.5
787.2016	32.3739	531	124.35
787.3422	34.6426	541.05	131.7
787.4828	36.9109	547.95	138.45
787.6235	39.1787	564.75	151.7
787.7642	41.4461	576.55	159.95
787.9049	43.7131	587.8	167.65
788.0456	45.9796	600.9	178
788.1863	48.2456	612.95	187.05
788.3271	50.5112	628	197.35
788.4679	52.7764	641.95	208.7
788.6087	55.0411	658.6	219.6
788.7496	57.3054	675.85	232.05
788.8904	59.5692	688.2	243.95
789.0313	61.8326	715.65	267.8
789.1722	64.0955	734.75	284.05
789.3132	66.3579	754.3	298.45
789.4541	68.6199	792.2	332.3
789.5951	70.8815	847.4	382.6
789.7361	73.1426	965.8	498.95
789.8771	75.4032	1257.95	787.75
790.0181	77.6634	2004.15	1530.05
790.1592	79.9231	3772.8	3292.7
790.3003	82.1824	7689.05	7205.3
790.4414	84.4412	14684.25	14185.75
790.5825	86.6995	24194.05	23682.4
790.7237	88.9574	33365.25	32840.6
790.8648	91.2148	40111.15	39580.7
791.006	93.4717	43283.45	42747.35
791.1472	95.7282	44717	44176.65
791.2885	97.9842	45265.9	44723.05
791.4297	100.2398	45610.85	45063.25
791.571	102.4949	45324.95	44776.7
791.7123	104.7495	45696.9	45146.7
791.8536	107.0036	45313.8	44760.7
791.9949	109.2573	45895.4	45342.35
792.1363	111.5105	45320.45	44767.8
792.2777	113.7632	45801.6	45247.5
792.4191	116.0154	45871.05	45301.45
792.5605	118.2672	46192.8	45628.7
792.7019	120.5185	46196.05	45630.55
792.8434	122.7693	46208.9	45640.45
792.9849	125.0197	46029.4	45459.65
793.1264	127.2696	46682.9	46107.35
793.2679	129.519	46848.6	46271.3
793.4094	131.7679	47243.15	46660.7
793.551	134.0163	46133.1	45548.95
793.6926	136.2642	46644.8	46056.95
793.8342	138.5117	47293.15	46702.6
793.9758	140.7587	47122.3	46529.4
794.1175	143.0052	47290.7	46698.25
794.2591	145.2512	46716.55	46119.6
794.4008	147.4967	47382.15	46786
794.5425	149.7417	47125.95	46524.95
794.6842	151.9863	47235.15	46630.95
794.826	154.2304	46646.8	46037.7
794.9677	156.4739	47141.3	46527.95
795.1095	158.717	47418.75	46805.6
795.2513	160.9596	47310.05	46691.3
795.3931	163.2017	46822.05	46202.95
795.535	165.4433	47421.3	46800.15
795.6768	167.6844	47096.45	46475.1
795.8187	169.925	47388.55	46761.15
795.9606	172.1651	47226	46594.6
796.1025	174.4047	47059.15	46426.65
796.2445	176.6439	47284.7	46650.1
796.3864	178.8825	47378.35	46739.2
796.5284	181.1206	47564.1	46924.2
796.6704	183.3582	47654.05	47008.7
796.8124	185.5954	47237.8	46589.2
796.9544	187.832	47509.05	46858.4
797.0965	190.0681	47312.35	46657.1
797.2386	192.3037	47872.55	47214.7
797.3806	194.5388	48419.25	47757.8
797.5228	196.7734	47200	46536.55
797.6649	199.0075	48204.15	47543.4
797.807	201.2411	48084.4	47418.45
797.9492	203.4742	48637.1	47968.45
798.0914	205.7068	48636.4	47965.6
798.2336	207.9389	48621.95	47948.8
798.3758	210.1704	48525.1	47859.6
798.518	212.4015	49125.9	48469.5
798.6603	214.632	48330.1	47678.1
798.8025	216.862	49067.45	48416.45
798.9448	219.0915	49125.1	48472.65
799.0871	221.3205	48814.8	48158.9
799.2294	223.549	49351	48700.05
799.3718	225.777	49363.4	48709.05
799.5141	228.0044	49504.85	48843.15
799.6565	230.2314	49503.4	48844.4
799.7989	232.4578	49473.65	48809.85
799.9413	234.6837	49534.95	48862.65
800.0837	236.909	50543.9	49867.65
800.2262	239.1339	49239.7	48543.55
800.3687	241.3582	49822.35	49138.5
800.5111	243.582	49821.45	49109.15
800.6536	245.8053	50015.3	49317.3
800.7961	248.0281	49979.4	49282
800.9387	250.2503	50210.75	49509.1
801.0812	252.472	49908.1	49204.95
801.2238	254.6932	50106.45	49404.3
801.3664	256.9139	49985.7	49281.6
801.509	259.134	50921.05	50212.5
801.6516	261.3536	49757.05	49051.55
801.7942	263.5727	50691.2	49982.8
801.9369	265.7912	50231.25	49524.6
802.0795	268.0092	50412.35	49703.55
802.2222	270.2267	50439.45	49731.95
802.3649	272.4436	50136.9	49428.75
802.5076	274.6601	50490.25	49768.1
802.6504	276.8759	50705.2	49989.35
802.7931	279.0913	50692.15	49976.45
802.9359	281.3061	50564.35	49845
803.0787	283.5204	50811.9	50091.45
803.2215	285.7341	50692.6	49966.35
803.3643	287.9473	51239.65	50505.3
803.5071	290.16	50768.85	50038.9
803.6499	292.3721	51282.05	50561.45
803.7928	294.5837	50625.45	49899.95
803.9357	296.7947	50425.75	49700.6
804.0786	299.0052	51046.9	50317.6
804.2215	301.2152	50645.85	49919
804.3644	303.4246	51270.25	50547.15
804.5074	305.6334	51194.75	50468.7
804.6503	307.8418	50551.95	49821
804.7933	310.0495	50839	50107.5
804.9363	312.2568	50641.65	49909.4
805.0793	314.4635	50566.9	49832.45
805.2223	316.6696	50744.05	50008.05
805.3653	318.8752	51020.9	50279.5
805.5084	321.0802	49998.2	49260.5
805.6514	323.2847	50421.45	49679.25
805.7945	325.4887	50519.1	49778.65
805.9376	327.692	50211.65	49468.05
806.0807	329.8949	50569	49827
806.2238	332.0972	50348.45	49602.95
806.367	334.2989	50557.7	49808.8
806.5101	336.5001	50899.9	50151.2
806.6533	338.7007	50199	49449.25
806.7965	340.9008	50523.8	49775.95
806.9397	343.1003	50525.6	49771.9
807.0829	345.2992	50904.2	50147.85
807.2261	347.4976	50466.05	49710.85
807.3693	349.6955	50602.05	49841.55
807.5126	351.8927	50401.3	49641.95
807.6559	354.0895	50683	49910.85
807.7991	356.2856	50598.55	49835.8
807.9424	358.4812	50909.95	50146.2
808.0857	360.6763	50517.65	49752.1
808.2291	362.8707	50633.45	49866.45
808.3724	365.0646	50532.95	49763.9
808.5158	367.258	50550.75	49777.95
808.6591	369.4508	50286.75	49513.25
808.8025	371.643	50672.75	49900.95
808.9459	373.8346	50546.7	49769.65
809.0893	376.0257	50505.4	49725.2
809.2327	378.2162	50344	49568
809.3762	380.4062	50061	49280.95
809.5196	382.5956	50223.3	49444.6
809.6631	384.7844	50276.55	49502
809.8066	386.9726	50359.8	49585.1
809.9501	389.1603	50452.1	49679.15
810.0936	391.3474	50003.75	49201.7
810.2371	393.5339	50397.55	49625.2
810.3806	395.7199	49789.6	49016.95
810.5241	397.9052	49867.8	49094.15
810.6677	400.09	50013.95	49240.8
810.8113	402.2743	50102.05	49329.45
810.9548	404.4579	49991.65	49216.5
811.0984	406.641	49926.2	49150.75
811.2421	408.8235	50155	49379.05
811.3857	411.0054	50072.2	49292.4
811.5293	413.1868	50145	49360.25
811.673	415.3675	50104.25	49317.45
811.8166	417.5477	50124.35	49338.05
811.9603	419.7273	50048.9	49257.55
812.104	421.9064	49925.75	49131.5
812.2477	424.0848	49969.55	49177.8
812.3914	426.2627	50053.7	49262.85
812.5351	428.4399	49597.6	48804.6
812.6788	430.6166	49445.6	48647.35
812.8226	432.7928	49660	48861.85
812.9663	434.9683	49342.7	48544.45
813.1101	437.1432	49302.3	48501.6
813.2539	439.3176	49382.25	48584.2
813.3977	441.4914	48979.7	48182.75
813.5415	443.6645	49039.85	48240.5
813.6853	445.8371	48891.2	48093.2
813.8291	448.0091	48614	47816.2
813.973	450.1806	48556.75	47758
814.1168	452.3514	48460.75	47659.45
814.2607	454.5216	48406.85	47597.35
814.4046	456.6913	48348.75	47545.55
814.5485	458.8603	48470.25	47665.75
814.6924	461.0288	48317.1	47516.7
814.8363	463.1967	48389.9	47589.8
814.9802	465.3639	48426.5	47621.95
815.1241	467.5306	48055.6	47250.6
815.2681	469.6967	48118.1	47314.85
815.412	471.8622	48039.4	47236.1
815.556	474.0271	47980.4	47176
815.7	476.1914	48026.55	47217.3
815.844	478.3551	47995	47183.5
815.988	480.5182	48232.05	47425.45
816.132	482.6807	47991.95	47187.55
816.276	484.8426	48116	47312.2
816.4201	487.0039	48333.25	47527.25
816.5641	489.1647	48322.1	47514.05
816.7082	491.3248	48154.4	47344.15
816.8522	493.4843	48380.75	47571.65
816.9963	495.6432	48343.25	47533.65
817.1404	497.8015	47975.05	47157.65
817.2845	499.9592	48158.95	47343.05
817.4286	502.1163	48142.95	47329.15
817.5727	504.2728	47983.55	47170.45
817.7168	506.4287	48112.15	47299.7
817.861	508.5839	47818.55	47007.45
818.0051	510.7386	47883.4	47068.15
818.1493	512.8927	47967.6	47147
818.2935	515.0461	47921.65	47100.65
818.4377	517.199	48075.4	47256.5
818.5818	519.3512	47974.5	47154.2
818.726	521.5029	47817.5	46991
818.8703	523.6539	47874.9	47052.2
819.0145	525.8043	47738.95	46914.85
819.1587	527.9541	47824.65	47001.4
819.303	530.1033	47770.5	46946.4
819.4472	532.2519	47671.8	46849.8
819.5915	534.3999	47716.05	46889.3
819.7357	536.5472	47789.1	46964.75
819.88	538.694	47505.95	46683.65
820.0243	540.8401	47712.65	46886.05
820.1686	542.9856	47609.3	46779
820.3129	545.1305	47610.25	46776.9
820.4572	547.2748	47585.25	46752.3
820.6016	549.4185	47632.75	46797.4
820.7459	551.5615	47639.3	46807.1
820.8902	553.704	47594.95	46763.7
821.0346	555.8458	47431.35	46600.8
821.1789	557.987	47466.55	46635.15
821.3233	560.1276	47485.1	46653.1
821.4677	562.2675	47507.25	46674.7
821.6121	564.4069	47453.7	46620
821.7565	566.5456	47592.25	46762.3
821.9009	568.6837	47383.1	46551.05
822.0453	570.8212	47358.4	46529
822.1897	572.958	47090.85	46258.55
822.3342	575.0942	47087.05	46255.5
822.4786	577.2299	46868.2	46038.9
822.6231	579.3648	46773.6	45946.9
822.7675	581.4992	46561	45735.8
822.912	583.6329	46476.45	45651.6
823.0565	585.766	46365	45538.3
823.201	587.8985	46365.8	45539.35
823.3454	590.0304	46133.2	45289
823.4899	592.1616	46188.75	45347.9
823.6345	594.2922	46065	45225.85
823.779	596.4222	45921.1	45080.15
823.9235	598.5515	45870.25	45030.5
824.068	600.6802	45815.45	44977.45
824.2126	602.8083	45551	44711.75
824.3571	604.9358	45567.1	44724.55
824.5017	607.0626	45511.65	44669
824.6462	609.1888	45376.35	44532.45
824.7908	611.3144	45447.75	44603.35
824.9354	613.4393	45313.55	44469.25
825.08	615.5636	45264.8	44417.3
825.2246	617.6873	45302.1	44458.8
825.3692	619.8103	45366.85	44521.55
825.5138	621.9327	45243.4	44395.3
825.6584	624.0544	45211.65	44366.25
825.803	626.1756	45157.8	44313.45
825.9477	628.2961	45091.5	44242.3
826.0923	630.4159	45011.3	44162.85
826.237	632.5351	44978.2	44130.45
826.3816	634.6537	44997.75	44148.2
826.5263	636.7716	44836.2	43984.45
826.6709	638.8889	44887.65	44035.7
826.8156	641.0056	44960.95	44108.95
826.9603	643.1216	44886.65	44033.65
827.105	645.237	44930	44078.05
827.2497	647.3518	44795.05	43945.95
827.3944	649.4659	44735.7	43889.4
827.5391	651.5793	44729.35	43883.45
827.6838	653.6922	44594.35	43747.3
827.8285	655.8043	44548.55	43701.4
827.9733	657.9159	44617.9	43767.8
828.118	660.0268	44370.4	43519.55
828.2627	662.137	44394.1	43542.85
828.4075	664.2466	44399.75	43543.7
828.5522	666.3556	44369.55	43517.95
828.697	668.4639	44239.6	43385
828.8418	670.5716	44266	43413.6
828.9865	672.6786	44283.55	43428.45
829.1313	674.785	44030.1	43172.75
829.2761	676.8907	43979.4	43125.3
829.4209	678.9958	43999.9	43147.65
829.5657	681.1002	43858.7	43002.8
829.7105	683.204	43702.9	42842.95
829.8553	685.3072	43708.2	42849.4
830.0001	687.4097	43592.75	42736.65
830.1449	689.5115	43633.75	42768.8
830.2898	691.6127	43640.65	42782.8
830.4346	693.7132	43494.15	42637.5
830.5794	695.8131	43615.8	42736.65
830.7243	697.9123	43589.7	42727.75
830.8691	700.0109	43502.15	42637.95
831.014	702.1089	43385.6	42526.95
831.1588	704.2061	43355.25	42494.85
831.3037	706.3028	43352.45	42491
831.4486	708.3987	43368.85	42509.25
831.5935	710.4941	43272.2	42411.9
831.7383	712.5887	43243.8	42383.45
831.8832	714.6827	43241.3	42378.85
832.0281	716.7761	43207.5	42346.65
832.173	718.8688	43192.95	42330.65
832.3179	720.9608	43070.05	42203.1
832.4628	723.0522	43132.3	42266
832.6077	725.1429	42975.75	42111.05
832.7527	727.233	43033.45	42168.85
832.8976	729.3224	42989.95	42125.25
833.0425	731.4112	42869.6	42004
833.1874	733.4993	42769.4	41903.65
833.3324	735.5867	42608.75	41742.7
833.4773	737.6735	42575.1	41707.15
833.6222	739.7596	42533.9	41667.3
833.7672	741.845	42411.75	41545.25
833.9122	743.9298	42312.75	41446.65
834.0571	746.014	42255.75	41389.45
834.2021	748.0974	42182.35	41311.35
834.347	750.1802	42031.15	41162.45
834.492	752.2624	41868.35	40999.35
834.637	754.3439	41821	40950.25
834.782	756.4247	41690.2	40811.35
834.9269	758.5048	41571.5	40701.1
835.0719	760.5843	41571.4	40700.05
835.2169	762.6631	41463.65	40592.6
835.3619	764.7413	41407.9	40539.05
835.5069	766.8188	41446.05	40571.95
835.6519	768.8956	41357.4	40486.3
835.7969	770.9718	41441.05	40570.25
835.9419	773.0473	41199.35	40327.65
836.0869	775.1221	41269.45	40398.95
836.232	777.1962	41009.35	40137.05
836.377	779.2697	41002.8	40128.35
836.522	781.3426	40963.25	40072.15
836.667	783.4147	40833.5	39962.5
836.8121	785.4862	40781.05	39910.25
836.9571	787.557	40666.25	39794.7
837.1021	789.6271	40617.6	39743.8
837.2472	791.6966	40525.75	39652.35
837.3922	793.7654	40260.9	39389.05
837.5373	795.8335	40222.55	39348.95
837.6823	797.901	40079.9	39206.1
837.8274	799.9678	40020.65	39145.8
837.9724	802.0339	39943.35	39069.5
838.1175	804.0993	39923.75	39039.45
838.2626	806.1641	39784.45	38909.55
838.4076	808.2282	39697.95	38823.65
838.5527	810.2916	39726.3	38848.1
838.6978	812.3544	39659.7	38787.25
838.8428	814.4164	39549.3	38674.4
838.9879	816.4778	39605.75	38730.55
839.133	818.5385	39488.15	38612.1
839.2781	820.5986	39452.1	38576.35
839.4232	822.658	39435.1	38556.9
839.5682	824.7166	39316.55	38438.05
839.7133	826.7747	39439.9	38564.2
839.8584	828.832	39424.1	38547.65
840.0035	830.8886	39247.95	38371.55
840.1486	832.9446	39227.6	38348.85
840.2937	834.9999	39156.7	38278.35
840.4388	837.0545	39087.05	38204.8
840.5839	839.1085	38995.25	38115.1
840.729	841.1618	38925.55	38042.65
840.8741	843.2143	38771.9	37893.6
841.0192	845.2662	38635.85	37757.75
841.1643	847.3175	38586.3	37706.95
841.3095	849.368	38516.55	37635.7
841.4546	851.4179	38477.25	37599.45
841.5997	853.467	38286.65	37405.8
841.7448	855.5155	38260.35	37381.4
841.8899	857.5633	38147.15	37267.1
842.0351	859.6105	38038	37157.5
842.1802	861.6569	37995.2	37112.6
842.3253	863.7027	37906	37023.15
842.4704	865.7478	37954.85	37071.55
842.6156	867.7922	37901	37018.15
842.7607	869.8359	37804.85	36923.85
842.9058	871.8789	37728.95	36846.35
843.0509	873.9212	37721.35	36805.75
843.1961	875.9629	37586.2	36703.05
843.3412	878.0039	37636.6	36754
843.4863	880.0441	37561.2	36681.95
843.6315	882.0837	37566.75	36685.7
843.7766	884.1226	37450	36568.15
843.9218	886.1609	37454.9	36573.25
844.0669	888.1984	37494.35	36611.65
844.212	890.2352	37563.1	36683.95
844.3572	892.2714	37460.2	36572.9
844.5023	894.3069	37406.1	36520.9
844.6475	896.3416	37209.2	36324.95
844.7926	898.3757	37181.85	36298.35
844.9377	900.4091	37155.15	36269.3
845.0829	902.4418	37092.55	36203.7
845.228	904.4739	36967.1	36082
845.3732	906.5052	36981.6	36096.9
845.5183	908.5358	36858.25	35971.9
845.6635	910.5658	36790.6	35905.9
845.8086	912.595	36695.6	35809.9
845.9538	914.6236	36579.55	35694.9
846.0989	916.6515	36530.2	35646.35
846.2441	918.6786	36388.75	35499.9
846.3892	920.7051	36394	35503.9
846.5344	922.7309	36432.9	35547.6
846.6795	924.756	36198.55	35311.4
846.8246	926.7804	36253.05	35364.55
846.9698	928.8041	35957.9	35071.45
847.1149	930.8272	35965.3	35078.7
847.2601	932.8495	35797.4	34908.45
847.4052	934.8711	35835.4	34948.35
847.5504	936.892	35660.6	34772.5
847.6955	938.9123	35586.7	34697.85
847.8407	940.9318	35477	34590.85
847.9858	942.9506	35420	34532.85
848.131	944.9688	35202.3	34317
848.2761	946.9862	35159.95	34275.35
848.4213	949.003	34977.5	34088.5
848.5664	951.019	34939.6	34051.9
848.7115	953.0344	34863.05	33973.5
848.8567	955.0491	34732.75	33844.45
849.0018	957.063	34753.45	33862.45
849.147	959.0763	34844.8	33956.95
849.2921	961.0888	34642.65	33753.55
849.4373	963.1007	34642.2	33752.15
849.5824	965.1119	34538.15	33653.85
849.7275	967.1223	34524.25	33638.4
849.8727	969.1321	34446	33561.25
850.0178	971.1412	34460.5	33575
850.1629	973.1495	34327.55	33439.85
850.3081	975.1572	34279.55	33360.2
850.4532	977.1641	34212.7	33324.15
850.5983	979.1704	34168.25	33278.9
850.7435	981.1759	33998	33108.25
850.8886	983.1808	33999.05	33109.05
851.0337	985.1849	33914.95	33013.15
851.1788	987.1884	33831.7	32937.7
851.324	989.1911	33767.05	32876.55
851.4691	991.1932	33748.35	32858.85
851.6142	993.1945	33557.55	32668.2
851.7593	995.1951	33393.95	32502.65
851.9045	997.1951	33411.3	32515.6
852.0496	999.1943	33221.6	32330.55
852.1947	1001.1928	33129.25	32237.85
852.3398	1003.1906	32935.55	32042.75
852.4849	1005.1877	32949.15	32055.7
852.63	1007.1841	32810.05	31920.15
852.7751	1009.1798	32670.75	31783.3
852.9202	1011.1748	32572.4	31682.8
853.0653	1013.1691	32497.1	31608
853.2104	1015.1627	32353.75	31464.3
853.3555	1017.1556	32118.65	31230.95
853.5006	1019.1477	32065.55	31174.7
853.6457	1021.1392	31867.2	30980.05
853.7908	1023.1299	31740.15	30852
853.9359	1025.12	31670.8	30783.15
854.081	1027.1093	31541.25	30660
854.2261	1029.0979	31463.45	30583.75
854.3712	1031.0859	31383.75	30500.3
854.5163	1033.0731	31231.05	30342.7
854.6613	1035.0596	31154	30268.25
854.8064	1037.0454	30937.2	30048.65
854.9515	1039.0304	30914.65	30023
855.0965	1041.0148	30754.2	29862.35
855.2416	1042.9985	30667.75	29774.85
855.3867	1044.9814	30666.05	29775.55
855.5317	1046.9636	30531.95	29639.8
855.6768	1048.9452	30394.1	29505.85
855.8219	1050.926	30373.25	29486.3
855.9669	1052.9061	30270.6	29378.9
856.112	1054.8855	30233.05	29341.45
856.257	1056.8642	30163.5	29272.5
856.4021	1058.8421	30153.4	29259.4
856.5471	1060.8194	30020.6	29128.3
856.6921	1062.7959	29985.35	29093.05
856.8372	1064.7717	29943.45	29049.95
856.9822	1066.7469	29900.75	29006.5
857.1272	1068.7213	29872.95	28977.55
857.2723	1070.695	29840.25	28948.45
857.4173	1072.6679	29668.95	28777.85
857.5623	1074.6402	29654.8	28762.55
857.7073	1076.6117	29624.05	28727.7
857.8523	1078.5826	29572	28681.65
857.9973	1080.5527	29428.55	28530.1
858.1423	1082.5221	29331.9	28438.8
858.2873	1084.4908	29300.75	28406.15
858.4323	1086.4587	29199.9	28305.15
858.5773	1088.426	29141.75	28248.4
858.7223	1090.3925	29042.1	28144.3
858.8673	1092.3584	29003.3	28111.25
859.0123	1094.3235	28862.05	27971.7
859.1573	1096.2879	28820.3	27926.65
859.3022	1098.2515	28807.05	27915.85
859.4472	1100.2145	28777.15	27887.55
859.5922	1102.1767	28688.25	27791.15
859.7371	1104.1382	28684.95	27789.8
859.8821	1106.099	28643.7	27749.4
860.027	1108.0591	28583	27690.5
860.172	1110.0185	28500.95	27607.05
860.3169	1111.9771	28472.95	27579.35
860.4619	1113.9351	28348.15	27456.2
860.6068	1115.8923	28326.95	27434.35
860.7517	1117.8488	28239.5	27343.7
860.8967	1119.8045	28071.45	27178.95
861.0416	1121.7596	28029.55	27136.15
861.1865	1123.7139	27849.15	26957.45
861.3314	1125.6675	27803.1	26910.9
861.4763	1127.6204	27805.3	26913.55
861.6212	1129.5726	27716.1	26821.75
861.7661	1131.524	27704.45	26811.4
861.911	1133.4748	27645.15	26750.6
862.0559	1135.4248	27531.55	26636.3
862.2008	1137.3741	27470.65	26577.3
862.3457	1139.3226	27367.5	26474.9
862.4905	1141.2705	27354.5	26459.45
862.6354	1143.2176	27204.55	26306.9
862.7803	1145.164	27170.6	26274.5
862.9251	1147.1097	27101.75	26208.9
863.07	1149.0546	27095.2	26199.55
863.2148	1150.9989	27052.75	26157.35
863.3597	1152.9424	26999.05	26105.6
863.5045	1154.8852	26913.15	26019.7
863.6493	1156.8272	26898	26003.55
863.7942	1158.7686	26889.7	25990.3
863.939	1160.7092	26786.6	25891.9
864.0838	1162.6491	26667.5	25771.3
864.2286	1164.5883	26706.55	25810.9
864.3734	1166.5267	26654.85	25760.5
864.5182	1168.4644	26634.35	25740.4
864.663	1170.4014	26597.55	25700.55
864.8078	1172.3377	26643.9	25751.75
864.9526	1174.2732	26620.35	25729.7
865.0974	1176.2081	26634.3	25741.9
865.2421	1178.1421	26652.95	25753.95
865.3869	1180.0755	26694.35	25800.95
865.5317	1182.0082	26602.55	25707.1
865.6764	1183.9401	26580.1	25686.65
865.8212	1185.8713	26437	25545.85
865.9659	1187.8017	26346.9	25456.5
866.1106	1189.7315	26301.15	25414.9
866.2554	1191.6605	26038.8	25153.55
866.4001	1193.5888	25905.35	25016.25
866.5448	1195.5163	25883.8	24991.25
866.6895	1197.4432	25802.25	24907.9
866.8342	1199.3693	25701.15	24807.2
866.9789	1201.2947	25565	24665.65
867.1236	1203.2193	25439.9	24545.4
867.2683	1205.1432	25445.85	24551.95
867.413	1207.0664	25377.4	24485.25
867.5576	1208.9889	25301.95	24406.6
867.7023	1210.9106	25174.9	24281.95
867.847	1212.8316	25062.5	24169.55
867.9916	1214.7519	25070.9	24165.7
868.1363	1216.6715	24949.45	24057.45
868.2809	1218.5903	24985.3	24091.1
868.4255	1220.5084	24919.8	24022.95
868.5701	1222.4257	24898.05	24005.4
868.7148	1224.3424	24793.65	23903.15
868.8594	1226.2583	24749.45	23853.4
869.004	1228.1735	24718.2	23823.05
869.1486	1230.0879	24626.3	23731.5
869.2932	1232.0016	24569.75	23676.3
869.4377	1233.9146	24520.6	23626.3
869.5823	1235.8269	24468.45	23576.7
869.7269	1237.7384	24480.5	23588.4
869.8715	1239.6492	24356.6	23464
870.016	1241.5592	24354.75	23460.25
870.1606	1243.4686	24276.7	23383.85
870.3051	1245.3772	24254.7	23360.6
870.4496	1247.285	24238.45	23344.5
870.5941	1249.1922	24212.2	23319.2
870.7387	1251.0986	24245.45	23355.3
870.8832	1253.0042	24147.75	23254.8
871.0277	1254.9092	24183.2	23289.4
871.1722	1256.8134	24138.7	23249.25
871.3167	1258.7169	24208.35	23310.3
871.4611	1260.6196	24112.65	23219.5
871.6056	1262.5216	24104.55	23210.05
871.7501	1264.4229	24016.25	23121.8
871.8945	1266.3234	24001.8	23108.4
872.039	1268.2232	23972.4	23078.45
872.1834	1270.1223	23912.7	23018.05
872.3278	1272.0207	23856.5	22961.35
872.4723	1273.9183	23760.8	22860.15
872.6167	1275.8151	23745.8	22853.45
872.7611	1277.7113	23726.9	22830.15
872.9055	1279.6067	23712.4	22820.75
873.0499	1281.5014	23700.3	22804.3
873.1943	1283.3953	23715.9	22818.65
873.3386	1285.2885	23852.35	22959.9
873.483	1287.181	23887.45	22992.05
873.6274	1289.0727	23936.4	23042.35
873.7717	1290.9637	23884.25	22989.8
873.9161	1292.854	23920.35	23025.35
874.0604	1294.7435	23790.9	22896.35
874.2047	1296.6323	23735.35	22843.6
874.349	1298.5204	23616.05	22719.1
874.4933	1300.4077	23559.1	22665.15
874.6376	1302.2943	23453.85	22560.2
874.7819	1304.1802	23438.2	22545.45
874.9262	1306.0653	23340.65	22447.95
875.0705	1307.9497	23236.95	22343.1
875.2147	1309.8333	23160.7	22265.8
875.359	1311.7162	23085.75	22189.95
875.5032	1313.5984	23071.1	22174.45
875.6475	1315.4798	22937.3	22042.4
875.7917	1317.3605	22897	21985.4
875.9359	1319.2405	22875.55	21978.2
876.0801	1321.1197	22796.05	21899.75
876.2243	1322.9982	22664.7	21767.1
876.3685	1324.876	22614.75	21722.9
876.5127	1326.753	22545.05	21651.9
876.6569	1328.6293	22509.35	21613.55
876.801	1330.5048	22477.8	21579.85
876.9452	1332.3796	22378.25	21483.5
877.0893	1334.2537	22323.1	21403.3
877.2335	1336.127	22251.9	21356.8
877.3776	1337.9996	22174.7	21278.75
877.5217	1339.8714	22170.6	21276.35
877.6658	1341.7426	22086.1	21148.9
877.8099	1343.6129	22044.05	21149.7
877.954	1345.4826	21986.6	21090.9
878.0981	1347.3515	22047.8	21151.45
878.2422	1349.2196	21921.55	21028
878.3862	1351.087	21892.55	20997.8
878.5303	1352.9537	21848.5	20951.5
878.6743	1354.8197	21897.05	21001.9
878.8184	1356.6849	21896.4	21004.15
878.9624	1358.5493	21868.9	20975.7
879.1064	1360.4131	21842.25	20947.55
879.2504	1362.276	21800.45	20907.95
879.3944	1364.1383	21738.65	20844.2
879.5384	1365.9998	21716.4	20814.9
879.6823	1367.8606	21603.95	20706.05
879.8263	1369.7206	21583.6	20687.55
879.9702	1371.5799	21468.25	20571
880.1142	1373.4384	21402.2	20507.4
880.2581	1375.2962	21338.1	20441.6
880.402	1377.1533	21209.05	20316.9
880.5459	1379.0096	21097.95	20202.55
880.6898	1380.8652	20988.25	20095.45
880.8337	1382.7201	20929.8	20037.5
880.9776	1384.5742	20819	19922.6
881.1215	1386.4275	20692.2	19796.45
881.2653	1388.2802	20607.5	19714.5
881.4092	1390.132	20542.6	19649.2
881.553	1391.9832	20500.45	19603.5
881.6968	1393.8336	20366.1	19471.45
881.8406	1395.6832	20327.7	19430.45
881.9844	1397.5322	20260.35	19365.2
882.1282	1399.3803	20182.15	19283.7
882.272	1401.2278	20087.05	19194.65
882.4158	1403.0745	20048.55	19155.1
882.5595	1404.9204	19944.25	19052
882.7033	1406.7656	19934.2	19040.7
882.847	1408.6101	19847.35	18952.15
882.9908	1410.4538	19776.55	18884.15
883.1345	1412.2968	19699.15	18804.05
883.2782	1414.139	19598.1	18702.45
883.4219	1415.9805	19610.6	18716
883.5656	1417.8213	19534.9	18636.1
883.7092	1419.6613	19503.75	18611.5
883.8529	1421.5006	19513	18616.45
883.9965	1423.3391	19495.85	18601.9
884.1402	1425.1769	19432.55	18538.2
884.2838	1427.0139	19463.55	18568.75
884.4274	1428.8502	19497.5	18603.4
884.571	1430.6858	19518.7	18623.15
884.7146	1432.5206	19433.4	18537.8
884.8582	1434.3547	19448.55	18551.6
885.0018	1436.188	19383.65	18490.6
885.1453	1438.0206	19375.05	18480.25
885.2889	1439.8524	19300.25	18405.4
885.4324	1441.6835	19282.85	18387.75
885.5759	1443.5139	19220.25	18321.4
885.7194	1445.3435	19181.45	18287.4
885.8629	1447.1724	19134.2	18241.65
886.0064	1449.0005	19110.9	18220.4
886.1499	1450.8279	19045.15	18150
886.2933	1452.6545	19022.05	18128.25
886.4368	1454.4804	19027.25	18134.15
886.5802	1456.3056	19017.2	18119.2
886.7237	1458.13	18954.7	18063.25
886.8671	1459.9536	18938.3	18044.9
887.0105	1461.7766	18863.55	17970.1
887.1539	1463.5987	18779.45	17883.6
887.2972	1465.4202	18709.1	17816.55
887.4406	1467.2409	18599.9	17705
887.584	1469.0608	18602.8	17708
887.7273	1470.88	18528.3	17633.05
887.8706	1472.6984	18450.55	17558.55
888.0139	1474.5161	18382.35	17485.1
888.1572	1476.3331	18314.45	17421.35
888.3005	1478.1493	18250.6	17356.6
888.4438	1479.9648	18238.8	17344.5
888.5871	1481.7795	18207.45	17312.7
888.7303	1483.5935	18184.5	17290.65
888.8736	1485.4067	18129.3	17235.2
889.0168	1487.2192	18118.15	17222.9
889.16	1489.031	18046.4	17147.25
889.3032	1490.842	18043.35	17150.65
889.4464	1492.6522	18011.95	17120
889.5896	1494.4618	17993.75	17098.75
889.7327	1496.2705	17954.4	17062.15
889.8759	1498.0785	17920.7	17027.15
890.019	1499.8858	17854.6	16958.9
890.1622	1501.6924	17805.55	16912.4
890.3053	1503.4981	17781.95	16886.35
890.4484	1505.3032	17754.2	16861
890.5914	1507.1075	17718.8	16824.7
890.7345	1508.911	17661.1	16767.3
890.8776	1510.7138	17633.95	16738.85
891.0206	1512.5159	17589.9	16696
891.1637	1514.3172	17513.45	16621.4
891.3067	1516.1178	17465.8	16572
891.4497	1517.9176	17431.45	16535.35
891.5927	1519.7166	17364.3	16468.85
891.7357	1521.515	17327.45	16427.65
891.8786	1523.3126	17282.9	16392.55
892.0216	1525.1094	17215.45	16320.9
892.1645	1526.9055	17160.05	16269.65
892.3074	1528.7008	17123.65	16230.4
892.4503	1530.4954	17035.65	16142.2
892.5932	1532.2893	17008.4	16116.8
892.7361	1534.0824	16900.65	16003.9
892.879	1535.8747	16897.4	16006.7
893.0218	1537.6663	16834.6	15942.95
893.1647	1539.4572	16809.35	15917.25
893.3075	1541.2473	16751.7	15860.2
893.4503	1543.0367	16690.35	15800.25
893.5931	1544.8253	16642.25	15745.55
893.7359	1546.6132	16604.2	15709.25
893.8787	1548.4003	16570.45	15668.45
894.0214	1550.1867	16538.7	15639.7
894.1642	1551.9723	16466.75	15569.75
894.3069	1553.7572	16447.7	15554.7
894.4496	1555.5414	16434.1	15542.15
894.5923	1557.3247	16388.65	15497.7
894.735	1559.1074	16390.5	15503.2
894.8777	1560.8893	16353.75	15466.85
895.0204	1562.6705	16309.65	15420.9
895.163	1564.4509	16306.55	15418.65
895.3056	1566.2305	16280	15391.3
895.4482	1568.0094	16265.85	15379.3
895.5908	1569.7876	16227.9	15339.05
895.7334	1571.565	16189.8	15298.6
895.876	1573.3417	16142.15	15252.5
896.0186	1575.1176	16124.2	15233.75
896.1611	1576.8928	16073.65	15185.55
896.3036	1578.6672	16035.7	15150.9
896.4461	1580.4409	16026.05	15139.2
896.5886	1582.2138	15972.95	15085.15
896.7311	1583.986	15933.05	15044.5
896.8736	1585.7575	15941.95	15055.9
897.0161	1587.5282	15911.6	15025.4
897.1585	1589.2981	15903.05	15018.2
897.3009	1591.0673	15854.35	14967.95
897.4433	1592.8358	15845.75	14959.85
897.5857	1594.6035	15824.85	14936.45
897.7281	1596.3704	15761	14871.65
897.8705	1598.1366	15699.5	14812
898.0128	1599.9021	15653.1	14767.7
898.1551	1601.6668	15607.55	14717.75
898.2975	1603.4308	15544.35	14654.5
898.4398	1605.194	15544.05	14653.55
898.5821	1606.9564	15501.1	14615.8
898.7243	1608.7182	15513.85	14627.35
898.8666	1610.4791	15522.85	14641.95
899.0088	1612.2394	15548.85	14666.1
899.1511	1613.9988	15542.95	14660.2
899.2933	1615.7576	15584.8	14699.25
899.4355	1617.5156	15595.5	14702.55
899.5776	1619.2728	15563.9	14674.5
899.7198	1621.0293	15476.75	14590.75
899.862	1622.785	15354.85	14467.1
900.0041	1624.54	15237.5	14349.15
900.1462	1626.2942	15140.2	14254.95
900.2883	1628.0477	14988.3	14101
900.4304	1629.8005	14908.2	14018.9
900.5725	1631.5525	14787.15	13902.15
900.7145	1633.3037	14710.05	13824.2
900.8566	1635.0542	14675.55	13788.65
900.9986	1636.804	14607.45	13721.45
901.1406	1638.553	14572	13642.9
901.2826	1640.3013	14496.9	13613.95
901.4245	1642.0488	14422.6	13535.6
901.5665	1643.7955	14385.3	13500.05
901.7085	1645.5416	14314.25	13430.2
901.8504	1647.2868	14307.05	13422.45
901.9923	1649.0313	14256	13372.85
902.1342	1650.7751	14264.6	13373.75
902.2761	1652.5181	14209.35	13324.9
902.4179	1654.2604	14160.55	13274.8
902.5598	1656.0019	14162.95	13278.2
902.7016	1657.7427	14124	13240.2
902.8434	1659.4828	14129	13242.65
902.9852	1661.222	14126.5	13240.35
903.127	1662.9606	14099.85	13216
903.2687	1664.6984	14083.4	13196.95
903.4105	1666.4354	14045.35	13159.55
903.5522	1668.1717	13948.15	13060.65
903.6939	1669.9072	13833.75	12948.1
903.8356	1671.642	13765.05	12878
903.9773	1673.3761	13682.65	12797.85
904.119	1675.1094	13600.5	12714.05
904.2606	1676.8419	13537.7	12652.65
904.4022	1678.5737	13496.55	12609.1
904.5439	1680.3048	13411.6	12528.2
904.6855	1682.0351	13321.6	12436.6
904.827	1683.7646	13280.95	12392.95
904.9686	1685.4934	13241.9	12356.75
905.1101	1687.2215	13179.25	12294.15
905.2517	1688.9488	13127.8	12244.05
905.3932	1690.6754	13065.05	12181.05
905.5347	1692.4012	13038.8	12153.6
905.6761	1694.1263	13002.65	12117.55
905.8176	1695.8506	12960.2	12075.05
905.9591	1697.5742	12909.2	12024.9
906.1005	1699.297	12858.3	11974.55
906.2419	1701.0191	12806.5	11922.05
906.3833	1702.7404	12746.05	11864.65
906.5246	1704.461	12705.05	11818.4
906.666	1706.1808	12634.8	11750.6
906.8073	1707.8999	12602.7	11716.6
906.9487	1709.6182	12584.2	11699.15
907.09	1711.3358	12546.3	11664
907.2313	1713.0527	12519	11638.35
907.3725	1714.7688	12467.65	11577.35
907.5138	1716.4841	12420.4	11534.4
907.655	1718.1987	12429.85	11541.05
907.7962	1719.9126	12349.5	11466.25
907.9374	1721.6257	12326.1	11440.8
908.0786	1723.338	12285.55	11400.8
908.2198	1725.0496	12245.35	11362.15
908.3609	1726.7605	12238.1	11354.75
908.502	1728.4706	12174.95	11291.35
908.6431	1730.18	12128.9	11243.8
908.7842	1731.8886	12104.8	11223
908.9253	1733.5964	12090.4	11204.95
909.0664	1735.3036	12051.2	11165.95
909.2074	1737.0099	12027.55	11145.1
909.3484	1738.7156	12014.15	11131.15
909.4894	1740.4204	11962.55	11074.55
909.6304	1742.1246	11965.35	11081.5
909.7714	1743.8279	11907.4	11022.85
909.9123	1745.5306	11914.7	11033.85
910.0532	1747.2325	11863.75	10980.6
910.1941	1748.9336	11819.2	10936.75
910.335	1750.634	11802.4	10917.5
910.4759	1752.3336	11767.15	10883.3
910.6168	1754.0325	11768.65	10886.8
910.7576	1755.7307	11713.6	10828.9
910.8984	1757.4281	11729.25	10846.7
911.0392	1759.1247	11706.35	10814.85
911.18	1760.8206	11678.2	10788.5
911.3208	1762.5158	11674.8	10786.2
911.4615	1764.2102	11597.2	10715.6
911.6022	1765.9039	11579.2	10697.6
911.7429	1767.5968	11582.1	10699.25
911.8836	1769.289	11548.7	10666.1
912.0243	1770.9804	11529.9	10645.2
912.1649	1772.6711	11504.15	10617.65
912.3056	1774.361	11463.55	10579.25
912.4462	1776.0502	11444.55	10562.1
912.5868	1777.7386	11404.85	10518.45
912.7274	1779.4263	11386.6	10504.05
912.8679	1781.1132	11373.6	10491.1
913.0084	1782.7994	11341.85	10456.95
913.149	1784.4849	11313.55	10431.25
913.2895	1786.1696	11290.55	10390.65
913.4299	1787.8535	11244.7	10363.95
913.5704	1789.5367	11227.6	10345.25
913.7108	1791.2192	11198.3	10317.5
913.8513	1792.9009	11181.1	10267.2
913.9917	1794.5818	11148.95	10265.8
914.132	1796.2621	11109	10227.1
914.2724	1797.9415	11055.2	10171.8
914.4128	1799.6202	11056.95	10175.5
914.5531	1801.2982	11056.95	10173.6
914.6934	1802.9755	11052.75	10168.45
914.8337	1804.6519	11010.4	10128.3
914.9739	1806.3277	10958.4	10076
915.1142	1808.0027	10920.25	10038.95
915.2544	1809.6769	10907.2	10025
915.3946	1811.3504	10871.9	9988.6
915.5348	1813.0231	10888.75	10005.3
915.675	1814.6951	10850.95	9969.15
915.8151	1816.3664	10853.8	9969.4
915.9553	1818.0369	10822.05	9939.2
916.0954	1819.7067	10804.95	9924.1
916.2355	1821.3757	10766	9879.05
916.3755	1823.044	10770.55	9889.35
916.5156	1824.7115	10698.6	9814.75
916.6556	1826.3783	10702.4	9823.15
916.7956	1828.0443	10664.45	9781.4
916.9356	1829.7096	10639.35	9755.4
917.0756	1831.3741	10602.1	9717.25
917.2155	1833.0379	10559.75	9677.95
917.3555	1834.701	10557.3	9672.55
917.4954	1836.3633	10534.7	9649.65
917.6353	1838.0248	10512.5	9628.45
917.7751	1839.6856	10529.55	9647.7
917.915	1841.3457	10499.1	9617
918.0548	1843.005	10454.85	9572.6
918.1946	1844.6636	10453.5	9574.3
918.3344	1846.3214	10408.65	9525
918.4742	1847.9785	10395.8	9514.6
918.6139	1849.6349	10359.1	9474.55
918.7537	1851.2904	10352	9458.25
918.8934	1852.9453	10317.85	9433.6
919.0331	1854.5994	10314.5	9429.3
919.1727	1856.2528	10305.2	9416.7
919.3124	1857.9054	10274.7	9393.25
919.452	1859.5572	10254.5	9372
919.5916	1861.2083	10235.1	9351.85
919.7312	1862.8587	10243.95	9361.3
919.8708	1864.5084	10223.5	9340.05
920.0103	1866.1572	10182	9300.6
920.1498	1867.8054	10150.75	9266.15
920.2893	1869.4528	10124.9	9240.85
920.4288	1871.0994	10102.65	9219.75
920.5683	1872.7453	10080.45	9195.95
920.7077	1874.3905	10065.35	9175.05
920.8471	1876.0349	10024.5	9140.55
920.9865	1877.6786	10027.8	9142.3
921.1259	1879.3215	9996.8	9115.45
921.2653	1880.9637	10004.6	9120.4
921.4046	1882.6051	9979.4	9096.85
921.5439	1884.2458	9924.6	9038.95
921.6832	1885.8858	9885.75	9004.05
921.8225	1887.525	9884	9000.4
921.9617	1889.1634	9842.5	8963.1
922.101	1890.8011	9824.55	8939.35
922.2402	1892.4381	9813.85	8931.3
922.3794	1894.0743	9808.6	8926.1
922.5185	1895.7098	9765.45	8882.35
922.6577	1897.3446	9765.45	8881.7
922.7968	1898.9786	9735.9	8849.6
922.9359	1900.6118	9691.2	8809.15
923.075	1902.2443	9674.05	8787.9
923.214	1903.8761	9643.15	8761.5
923.3531	1905.5071	9603.3	8719.8
923.4921	1907.1374	9553	8668
923.6311	1908.7669	9549.05	8666
923.77	1910.3957	9575.85	8693.25
923.909	1912.0237	9497.3	8613.75
924.0479	1913.651	9483.15	8599.05
924.1868	1915.2776	9449.45	8568.55
924.3257	1916.9034	9398.15	8517.85
924.4646	1918.5285	9377.5	8495
924.6034	1920.1528	9333.4	8449
924.7422	1921.7764	9334.25	8451.7
924.881	1923.3992	9311.05	8428.5
925.0198	1925.0213	9266.35	8385.15
925.1586	1926.6427	9204.45	8323.15
925.2973	1928.2633	9392.9	8267.1
925.436	1929.8832	9232.8	8345.95
925.5747	1931.5023	9163.3	8280.6
925.7134	1933.1207	9136.3	8253.1
925.852	1934.7383	9116.75	8235.9
925.9906	1936.3552	9075.55	8192.1
926.1292	1937.9714	9061.05	8178.15
926.2678	1939.5868	9014.75	8128.95
926.4064	1941.2015	8977.65	8094.5
926.5449	1942.8154	8969.5	8085.9
926.6834	1944.4286	8927.95	8046.4
926.8219	1946.041	8902.75	7995.35
926.9604	1947.6528	8859.9	7970.85
927.0988	1949.2637	8858.95	7975.45
927.2372	1950.8739	8819.35	7936.85
927.3756	1952.4834	8795.25	7911.35
927.514	1954.0921	8805.05	7920.7
927.6523	1955.7001	8753.8	7866.35
927.7907	1957.3074	8729.7	7849.4
927.929	1958.9139	8695.25	7816.2
928.0673	1960.5197	8671.6	7787.7
928.2055	1962.1247	8654.75	7772.8
928.3438	1963.729	8600.05	7719.3
928.482	1965.3325	8594.6	7691
928.6202	1966.9353	8557.65	7679
928.7584	1968.5374	8542.7	7660.75
928.8965	1970.1387	8524.45	7642.8
929.0346	1971.7393	8496.1	7612.95
929.1727	1973.3392	8479.95	7599.4
929.3108	1974.9383	8408.8	7529.25
929.4489	1976.5366	8386.25	7505.6
929.5869	1978.1342	8398.85	7516.1
929.7249	1979.7311	8398.35	7514.65
929.8629	1981.3273	8355.55	7473.8
930.0009	1982.9227	8322.9	7441.1
930.1388	1984.5173	8304.55	7424.6
930.2767	1986.1112	8279.45	7400.6
930.4146	1987.7044	8280.15	7400.65
930.5525	1989.2968	8270.05	7387.15
930.6904	1990.8885	8218.75	7333.5
930.8282	1992.4795	8216.75	7335.65
930.966	1994.0697	8173.45	7292.15
931.1038	1995.6592	8144.8	7263.55
931.2415	1997.2479	8142.75	7262.4
931.3793	1998.8359	8122.3	7241.85
931.517	2000.4232	8105.9	7227.5
931.6547	2002.0097	8077.35	7199
931.7923	2003.5955	8038.5	7158.65
931.93	2005.1805	8029	7146.15
932.0676	2006.7648	8015.25	7137.05
932.2052	2008.3484	7979.2	7096.25
932.3427	2009.9312	8001.75	7120.05
932.4803	2011.5133	7953.2	7074.1
932.6178	2013.0946	7943.6	7063.9
932.7553	2014.6752	7910.85	7033
932.8928	2016.2551	7908.4	7028.4
933.0302	2017.8342	7859.6	6978.6
933.1676	2019.4126	7831.9	6954
933.305	2020.9902	7799	6920.3
933.4424	2022.5672	7773.4	6891.65
933.5798	2024.1433	7794	6908.05
933.7171	2025.7188	7771.4	6893.4
933.8544	2027.2935	7737.25	6857.15
933.9917	2028.8674	7712.2	6835.4
934.129	2030.4406	7693.7	6815.3
934.2662	2032.0131	7659.95	6782.9
934.4034	2033.5849	7634.15	6748.35
934.5406	2035.1559	7614.35	6733.55
934.6778	2036.7261	7634.85	6752.7
934.8149	2038.2957	7594.95	6715.1
934.952	2039.8645	7592.05	6712.1
935.0891	2041.4325	7606.9	6725.05
935.2262	2042.9998	7547.55	6668.3
935.3632	2044.5664	7537.05	6653.8
935.5002	2046.1323	7532.3	6652.45
935.6372	2047.6974	7511.75	6630.85
935.7742	2049.2617	7483.3	6604.15
935.9111	2050.8254	7500.4	6617.85
936.048	2052.3883	7487.15	6606.95
936.1849	2053.9504	7454.6	6574.45
936.3218	2055.5118	7432.45	6551.25
936.4586	2057.0725	7388.75	6504.85
936.5955	2058.6325	7377.1	6497.15
936.7323	2060.1917	7376.6	6495.8
936.869	2061.7502	7361.2	6480
937.0058	2063.3079	7351.75	6473.8
937.1425	2064.8649	7322.25	6440.1
937.2792	2066.4212	7316.25	6437.05
937.4159	2067.9767	7300.65	6419.85
937.5525	2069.5315	7249.85	6369.95
937.6891	2071.0856	7213.8	6335.8
937.8257	2072.6389	7221.1	6338.9
937.9623	2074.1915	7166.65	6288.55
938.0989	2075.7433	7149.5	6267.5
938.2354	2077.2945	7130.2	6251.7
938.3719	2078.8448	7119.35	6240.8
938.5084	2080.3945	7097.85	6218.65
938.6448	2081.9434	7090.75	6210.2
938.7812	2083.4916	7064.65	6184.45
938.9176	2085.039	7070.65	6187.15
939.054	2086.5857	7036.4	6154.95
939.1903	2088.1317	7050.95	6169.2
939.3267	2089.677	7017.95	6136.4
939.463	2091.2215	7002	6120.4
939.5992	2092.7652	6954.55	6068.8
939.7355	2094.3083	6942	6061.2
939.8717	2095.8506	6947.25	6065.7
940.0079	2097.3921	6945.15	6067
940.1441	2098.933	6940.7	6059.7
940.2802	2100.4731	6902.9	6022.55
940.4163	2102.0124	6908	6007.8
940.5524	2103.5511	6897.9	6017.6
940.6885	2105.089	6873.85	5991.1
940.8245	2106.6261	6863.3	5985.7
940.9606	2108.1626	6850.4	5968.8
941.0965	2109.6983	6852.65	5943.1
941.2325	2111.2332	6827.35	5946.65
941.3684	2112.7675	6802.85	5919.5
941.5044	2114.301	6794.3	5913.2
941.6403	2115.8337	6776.3	5894.3
941.7761	2117.3657	6758.05	5877.8
941.912	2118.897	6750.3	5869.8
942.0478	2120.4276	6717.6	5829.45
942.1835	2121.9575	6690.2	5809.4
942.3193	2123.4866	6695.15	5800.9
942.455	2125.0149	6661.1	5778.05
942.5907	2126.5426	6627.05	5744.8
942.7264	2128.0695	6636.7	5752.9
942.8621	2129.5956	6617.2	5738.3
942.9977	2131.1211	6609.85	5726
943.1333	2132.6458	6600.65	5722.05
943.2689	2134.1698	6579.15	5696.85
943.4044	2135.693	6550.6	5668.75
943.54	2137.2155	6550.8	5666.9
943.6755	2138.7373	6541.15	5660.55
943.8109	2140.2584	6525.85	5642.6
943.9464	2141.7787	6501.85	5614.45
944.0818	2143.2983	6487.15	5607.35
944.2172	2144.8171	6461.2	5583.8
944.3526	2146.3353	6455.1	5572.3
944.4879	2147.8527	6421.6	5542.15
944.6232	2149.3693	6420.75	5540.2
944.7585	2150.8853	6402.5	5521.15
944.8938	2152.4005	6364.9	5483.2
945.029	2153.9149	6369.15	5487.2
945.1642	2155.4287	6358.25	5476.9
945.2994	2156.9417	6328.4	5446.4
945.4346	2158.454	6307.9	5425.55
945.5697	2159.9655	6305.95	5427.7
945.7048	2161.4764	6292.1	5410.55
945.8399	2162.9865	6255.95	5376.4
945.9749	2164.4958	6273	5391.2
946.1099	2166.0045	6219.15	5336.85
946.2449	2167.5124	6213.15	5332.85
946.3799	2169.0195	6212.05	5331.3
946.5148	2170.526	6203.95	5323.25
946.6498	2172.0317	6168.3	5285.9
946.7846	2173.5367	6160.05	5279.9
946.9195	2175.0409	6143.7	5262.8
947.0543	2176.5445	6162.4	5281.85
947.1891	2178.0473	6143.4	5262.9
947.3239	2179.5494	6117.1	5233.1
947.4587	2181.0507	6090	5208.45
947.5934	2182.5513	6085.4	5205.45
947.7281	2184.0512	6066.9	5185.7
947.8628	2185.5504	6046.05	5164.35
947.9974	2187.0488	6020.05	5137.75
948.132	2188.5465	5994.05	5113.1
948.2666	2190.0435	5985.65	5105.45
948.4012	2191.5397	5961.6	5078.85
948.5357	2193.0353	5971.3	5089.3
948.6702	2194.5301	5922.9	5038.05
948.8047	2196.0241	5909.15	5027.4
948.9392	2197.5175	5911.95	5029.9
949.0736	2199.0101	5901	5015.15
949.208	2200.502	5854.5	4974.75
949.3424	2201.9931	5849.7	4970.05
949.4767	2203.4835	5808.05	4927.3
949.611	2204.9733	5802.45	4917
949.7453	2206.4622	5801.45	4923.25
949.8796	2207.9505	5772.85	4890.95
950.0138	2209.438	5735.25	4857.6
950.148	2210.9248	5742.4	4860.9
950.2822	2212.4109	5733.1	4853.35
950.4164	2213.8962	5726.35	4841.6
950.5505	2215.3809	5697.65	4816
950.6846	2216.8648	5677.55	4792
950.8186	2218.3479	5667	4782.25
950.9527	2219.8304	5650.2	4762.7
951.0867	2221.3121	5649.7	4765.15
951.2207	2222.7931	5624.95	4744.85
951.3546	2224.2733	5613.15	4730.6
951.4886	2225.7529	5595.7	4715.55
951.6225	2227.2317	5568.35	4685.3
951.7563	2228.7098	5561.35	4682.05
951.8902	2230.1872	5539.9	4659.75
952.024	2231.6638	5512.2	4632
952.1578	2233.1397	5513.85	4627.6
952.2916	2234.6149	5515.7	4636.7
952.4253	2236.0894	5486.05	4604.85
952.559	2237.5632	5477.3	4586.6
952.6927	2239.0362	5457.75	4577.2
952.8263	2240.5085	5433.3	4552.05
952.9599	2241.9801	5421.45	4542
953.0935	2243.4509	5422.1	4538.2
953.2271	2244.921	5408.25	4527.05
953.3606	2246.3904	5362.75	4477.25
953.4941	2247.8591	5354.8	4472.85
953.6276	2249.3271	5349.15	4469.3
953.7611	2250.7943	5310.05	4426.3
953.8945	2252.2608	5301.05	4420.1
954.0279	2253.7266	5306.25	4424.9
954.1612	2255.1917	5310.8	4429.5
954.2946	2256.656	5285.1	4403.6
954.4279	2258.1197	5272.4	4392.85
954.5612	2259.5826	5240.45	4356.85
954.6944	2261.0447	5250.55	4368.3
954.8276	2262.5062	5222.35	4337.05
954.9608	2263.9669	5230.85	4346.8
955.094	2265.4269	5205.1	4324.85
955.2271	2266.8862	5170.05	4290.15
955.3602	2268.3448	5178.2	4295
955.4933	2269.8026	5189.85	4307.8
955.6264	2271.2598	5145.1	4264.75
955.7594	2272.7162	5129.55	4247.9
955.8924	2274.1719	5111.8	4231.25
956.0253	2275.6268	5131.75	4248.55
956.1583	2277.0811	5104.55	4224.05
956.2912	2278.5346	5091.95	4212.1
956.4241	2279.9874	5086.95	4206.25
956.5569	2281.4395	5073.05	4194.05
956.6897	2282.8908	5048.55	4163.45
956.8225	2284.3414	5053.95	4170.65
956.9553	2285.7914	5040.8	4160.25
957.088	2287.2406	5023.8	4139.55
957.2207	2288.689	5012.15	4131.5
957.3534	2290.1368	4994.65	4109.85
957.486	2291.5838	4981.4	4096.05
957.6186	2293.0302	4973.75	4090.05
957.7512	2294.4758	4941.3	4059
957.8838	2295.9206	4921.95	4036.75
958.0163	2297.3648	4916.3	4035.3
958.1488	2298.8082	4919.3	4037.1
958.2813	2300.251	4892.05	4010.25
958.4137	2301.693	4891.9	4006.2
958.5461	2303.1343	4879.1	3998.5
958.6785	2304.5748	4868.95	3985.35
958.8108	2306.0147	4842.1	3962.05
958.9432	2307.4538	4839.85	3956.1
959.0754	2308.8922	4801.1	3923.25
959.2077	2310.3299	4811.65	3930.65
959.3399	2311.7669	4818.1	3937
959.4721	2313.2031	4788.8	3906.4
959.6043	2314.6387	4778	3896.55
959.7365	2316.0735	4750.85	3870.5
959.8686	2317.5076	4739.1	3855.95
960.0006	2318.941	4745.55	3862.15
960.1327	2320.3737	4707.5	3824.2
960.2647	2321.8056	4709.3	3827.6
960.3967	2323.2369	4711.9	3827.75
960.5287	2324.6674	4683.95	3798.4
960.6606	2326.0972	4666.2	3784.25
960.7925	2327.5263	4650.5	3767.05
960.9244	2328.9547	4648.35	3764.95
961.0562	2330.3823	4632.45	3749.85
961.1881	2331.8092	4639.6	3753.1
961.3198	2333.2355	4606.9	3723.75
961.4516	2334.661	4602.9	3720.15
961.5833	2336.0858	4604.4	3720
961.715	2337.5098	4586	3704.4
961.8467	2338.9332	4556.8	3674.1
961.9783	2340.3558	4576.75	3692.55
962.1099	2341.7778	4545.6	3664.25
962.2415	2343.199	4543	3658.5
962.373	2344.6195	4509.45	3628.45
962.5045	2346.0393	4493.15	3611.95
962.636	2347.4583	4486.2	3605
962.7675	2348.8767	4473.7	3591.6
962.8989	2350.2943	4475.6	3591.25
963.0303	2351.7113	4463.3	3579.8
963.1617	2353.1275	4440.85	3556.65
963.293	2354.543	4444.5	3551.7
963.4243	2355.9578	4438.35	3553.9
963.5556	2357.3718	4390.9	3507.85
963.6868	2358.7852	4381.75	3498.5
963.818	2360.1978	4365.5	3483.1
963.9492	2361.6098	4360.95	3479.45
964.0803	2363.021	4340.9	3453.5
964.2114	2364.4315	4322.2	3443.2
964.3425	2365.8413	4312.7	3428.85
964.4736	2367.2504	4291.45	3411.8
964.6046	2368.6587	4277.15	3392.95
964.7356	2370.0664	4276	3393.4
964.8666	2371.4733	4257.55	3374.3
964.9975	2372.8795	4245.9	3364.5
965.1284	2374.285	4231.1	3349.6
965.2593	2375.6899	4201.3	3318.65
965.3901	2377.0939	4187.75	3307
965.5209	2378.4973	4182.85	3300.6
965.6517	2379.9	4169.55	3287.75
965.7825	2381.3019	4148.35	3267
965.9132	2382.7032	4115.2	3235.15
966.0439	2384.1037	4136.6	3257.8
966.1745	2385.5035	4113.25	3231.8
966.3051	2386.9027	4099.7	3217.3
966.4357	2388.3011	4091.2	3205.6
966.5663	2389.6987	4080.9	3201.05
966.6968	2391.0957	4060.35	3179.15
966.8273	2392.492	4038.85	3159.85
966.9578	2393.8876	4026.85	3144.15
967.0882	2395.2824	4017.5	3137.35
967.2186	2396.6765	4003.05	3119.6
967.349	2398.07	3984.15	3103.3
967.4793	2399.4627	3999.85	3115.9
967.6097	2400.8547	3975.95	3094.85
967.7399	2402.246	3965.1	3076.45
967.8702	2403.6366	3936.75	3054.05
968.0004	2405.0265	3928.5	3047.55
968.1306	2406.4156	3917.25	3032.15
968.2607	2407.8041	3895.6	3011.15
968.3909	2409.1918	3888.95	3003.45
968.521	2410.5789	3863.8	2980.75
968.651	2411.9652	3856.95	2970.1
968.781	2413.3508	3844.2	2961.5
968.911	2414.7358	3830.7	2948
969.041	2416.12	3831.85	2949.7
969.1709	2417.5035	3819.55	2937.4
969.3008	2418.8863	3808.5	2924.1
969.4307	2420.2684	3800.65	2918.85
969.5606	2421.6497	3794.95	2910.7
969.6904	2423.0304	3763.95	2882.05
969.8201	2424.4104	3747.05	2864.05
969.9499	2425.7896	3741	2858.2
970.0796	2427.1682	3753.5	2871.45
970.2093	2428.546	3730.9	2844.35
970.3389	2429.9232	3724.75	2839.45
970.4685	2431.2996	3722.8	2839.3
970.5981	2432.6753	3715.85	2833.2
970.7277	2434.0503	3691.55	2809.5
970.8572	2435.4246	3667.55	2785.6
970.9867	2436.7982	3674.5	2789.35
971.1161	2438.1711	3670.85	2790.5
971.2456	2439.5433	3658.65	2775.05
971.375	2440.9148	3662.5	2774.85
971.5043	2442.2856	3633.5	2751.65
971.6336	2443.6557	3637.7	2753.65
971.7629	2445.025	3623.6	2741.55
971.8922	2446.3937	3601	2718.7
972.0214	2447.7617	3614.6	2730.4
972.1506	2449.1289	3598.9	2713.95
972.2798	2450.4955	3595.3	2710.95
972.4089	2451.8613	3583.6	2702.25
972.538	2453.2265	3582.55	2698.1
972.6671	2454.5909	3569.05	2686.15
972.7961	2455.9546	3555.75	2675.5
972.9251	2457.3177	3568	2685.25
973.0541	2458.68	3537.65	2651.3
973.1831	2460.0416	3544.85	2663.95
973.312	2461.4025	3532.65	2648.6
973.4408	2462.7627	3531.5	2637.5
973.5697	2464.1222	3521.6	2640.45
973.6985	2465.4811	3519.95	2636.55
973.8273	2466.8392	3490.5	2608.65
973.956	2468.1966	3495	2607.85
974.0847	2469.5533	3485.75	2601.7
974.2134	2470.9093	3489.1	2604.8
974.3421	2472.2645	3463.05	2580.2
974.4707	2473.6191	3464.55	2584.3
974.5993	2474.973	3456.7	2572.3
974.7278	2476.3262	3441.45	2556.45
974.8563	2477.6787	3420.75	2540.1
974.9848	2479.0305	3414.5	2531.9
975.1132	2480.3816	3415.05	2531.3
975.2417	2481.7319	3384.15	2501.8
975.37	2483.0816	3396.7	2514.5
975.4984	2484.4306	3376.65	2494
975.6267	2485.7789	3370.7	2491.5
975.755	2487.1264	3350.5	2466.2
975.8833	2488.4733	3347.2	2465.6
976.0115	2489.8195	3337.4	2445.25
976.1397	2491.165	3337.75	2453.55
976.2678	2492.5097	3312.45	2427.6
976.3959	2493.8538	3306.3	2424.7
976.524	2495.1972	3292.7	2410.45
976.6521	2496.5398	3291.25	2406.55
976.7801	2497.8818	3299.6	2415.85
976.9081	2499.2231	3266.3	2382.7
977.036	2500.5637	3256.8	2372.15
977.164	2501.9035	3249.3	2365.95
977.2918	2503.2427	3252	2363.55
977.4197	2504.5812	3223.75	2342.85
977.5475	2505.919	3226.4	2341.65
977.6753	2507.256	3248.55	2365.1
977.8031	2508.5924	3223.9	2340.2
977.9308	2509.9281	3216.65	2328.15
978.0585	2511.2631	3203.2	2319.7
978.1861	2512.5974	3193	2310.75
978.3137	2513.9309	3178.9	2297
978.4413	2515.2638	3194.1	2280.85
978.5689	2516.596	3173.55	2290.3
978.6964	2517.9275	3156.35	2271.9
978.8239	2519.2583	3146.25	2265.5
978.9513	2520.5884	3140.3	2255.5
979.0788	2521.9178	3144.6	2261.6
979.2062	2523.2465	3125.25	2244.85
979.3335	2524.5745	3115.3	2233.2
979.4608	2525.9018	3102.3	2220
979.5881	2527.2284	3100.75	2220.2
979.7154	2528.5543	3093.25	2211
979.8426	2529.8796	3094.3	2211.65
979.9698	2531.2041	3088.8	2206.85
980.0969	2532.5279	3080.9	2198.45
980.224	2533.851	3071	2188.3
980.3511	2535.1735	3064.1	2182.8
980.4781	2536.4952	3050.7	2169.15
980.6052	2537.8163	3054.9	2171.9
980.7321	2539.1366	3044.4	2163.85
980.8591	2540.4562	3032.05	2147.25
980.986	2541.7752	3037.7	2156.1
981.1129	2543.0935	3029.2	2146.05
981.2397	2544.411	3024.05	2140.95
981.3665	2545.7279	3001.6	2119.15
981.4933	2547.0441	3011.3	2128.15
981.62	2548.3596	3010.4	2124.7
981.7467	2549.6744	2989.8	2107.35
981.8734	2550.9885	2999.9	2109.35
982.0001	2552.3019	2989.3	2106.6
982.1267	2553.6146	2977.2	2093.5
982.2532	2554.9266	2959.95	2078.15
982.3798	2556.2379	2957.1	2072.95
982.5063	2557.5485	2954.6	2073.65
982.6327	2558.8585	2951	2060.65
982.7592	2560.1677	2952.85	2068.35
982.8856	2561.4762	2942.75	2058.25
983.0119	2562.7841	2943.7	2058.7
983.1383	2564.0913	2929.35	2048.6
983.2646	2565.3977	2928.75	2046.6
983.3908	2566.7035	2913.05	2030.2
983.517	2568.0086	2930.05	2045.45
983.6432	2569.313	2913.25	2029.45
983.7694	2570.6167	2913	2027.7
983.8955	2571.9197	2896.95	2016.05
984.0216	2573.222	2914.5	2026.8
984.1476	2574.5236	2897.35	2013.9
984.2737	2575.8246	2894.5	2010.25
984.3996	2577.1248	2885.25	1998.95
984.5256	2578.4244	2886.15	2005.5
984.6515	2579.7232	2866.9	1984.9
984.7774	2581.0214	2893.3	1987.45
984.9032	2582.3189	2864.4	1983.5
985.029	2583.6157	2860.95	1972.85
985.1548	2584.9118	2854.85	1971.3
985.2806	2586.2072	2850.3	1966.35
985.4063	2587.5019	2837.85	1955.05
985.5319	2588.7959	2827.9	1943.65
985.6576	2590.0893	2831.25	1949.3
985.7832	2591.3819	2811.95	1931.3
985.9087	2592.6739	2818.85	1935.9
986.0343	2593.9652	2809.35	1926
986.1597	2595.2557	2796.8	1914.25
986.2852	2596.5456	2788.95	1904.85
986.4106	2597.8348	2788.25	1906.8
986.536	2599.1234	2772.2	1890.3
986.6614	2600.4112	2778.1	1893.5
986.7867	2601.6983	2766.4	1882.4
986.912	2602.9848	2752.25	1869.15
987.0372	2604.2705	2757.2	1865.9
987.1624	2605.5556	2735.8	1854.1
987.2876	2606.84	2721.8	1838.75
987.4128	2608.1237	2717.9	1835.25
987.5379	2609.4067	2711.75	1828.25
987.6629	2610.689	2703.75	1813.65
987.788	2611.9707	2701.05	1814.2
987.913	2613.2516	2697.2	1811.2
988.0379	2614.5319	2681.6	1798.35
988.1629	2615.8115	2685.9	1803.85
988.2878	2617.0903	2671.85	1788.15
988.4126	2618.3685	2663.55	1781.1
988.5375	2619.6461	2651.45	1770.8
988.6622	2620.9229	2643.5	1761.65
988.787	2622.199	2627.95	1746.4
988.9117	2623.4745	2636.5	1755.7
989.0364	2624.7493	2628.65	1746.85
989.161	2626.0234	2612.25	1730.45
989.2857	2627.2968	2609.4	1728
989.4102	2628.5695	2584.15	1700.9
989.5348	2629.8415	2585.6	1705.15
989.6593	2631.1128	2588	1703.35
989.7837	2632.3835	2583.5	1701.95
989.9082	2633.6535	2576.25	1694.1
990.0326	2634.9228	2572.5	1691.6
990.1569	2636.1914	2561.15	1678.2
990.2812	2637.4593	2560.45	1673
990.4055	2638.7265	2543.15	1660.65
990.5298	2639.9931	2538.85	1656.1
990.654	2641.259	2532.95	1648.5
990.7782	2642.5242	2531.65	1649.8
990.9023	2643.7887	2521	1638.3
991.0264	2645.0525	2512.3	1629.8
991.1505	2646.3156	2508.15	1625.2
991.2745	2647.5781	2505.1	1624.3
991.3985	2648.8398	2493.9	1611.65
991.5225	2650.1009	2511.25	1621.8
991.6464	2651.3613	2495	1612.65
991.7703	2652.6211	2483.7	1599.8
991.8942	2653.8801	2471.85	1591.7
992.018	2655.1385	2483.15	1597.15
992.1418	2656.3961	2470.35	1590.75
992.2655	2657.6531	2468	1585.1
992.3892	2658.9094	2467.4	1584.9
992.5129	2660.1651	2452.85	1573.25
992.6366	2661.42	2463.35	1581.6
992.7602	2662.6743	2456.5	1573.45
992.8837	2663.9279	2454.35	1574.4
993.0073	2665.1808	2434.75	1551.4
993.1307	2666.433	2432.35	1549.8
993.2542	2667.6846	2427.55	1547.15
993.3776	2668.9354	2435.15	1548.9
993.501	2670.1856	2418.95	1535.75
993.6244	2671.4351	2407.35	1528.2
993.7477	2672.6839	2412.35	1529.15
993.8709	2673.9321	2401.2	1519.4
993.9942	2675.1795	2394.75	1512.5
994.1174	2676.4263	2381.15	1499.65
994.2405	2677.6724	2391.4	1510.5
994.3637	2678.9179	2384.4	1502.55
994.4868	2680.1626	2375.7	1494.5
994.6098	2681.4067	2377.3	1493.4
994.7328	2682.6501	2363.1	1480.85
994.8558	2683.8928	2369.15	1487.65
994.9788	2685.1348	2354.35	1473.35
995.1017	2686.3761	2353	1471.85
995.2245	2687.6168	2357.9	1476.35
995.3474	2688.8568	2333.85	1453.25
995.4702	2690.0961	2323.4	1443.3
995.5929	2691.3348	2320	1437.05
995.7156	2692.5727	2308.5	1427.2
995.8383	2693.81	2317.05	1436.7
995.961	2695.0466	2298.5	1418
996.0836	2696.2826	2312.5	1427.75
996.2062	2697.5178	2320.95	1418.45
996.3287	2698.7524	2297	1416
996.4512	2699.9863	2285.9	1403.9
996.5737	2701.2195	2280.3	1398.4
996.6961	2702.452	2286.4	1401.65
996.8185	2703.6839	2270.85	1388.1
996.9408	2704.9151	2272.8	1391.05
997.0631	2706.1456	2259.45	1376.9
997.1854	2707.3755	2265.9	1384
997.3077	2708.6046	2253.7	1369.4
997.4299	2709.8331	2260.6	1380.5
997.552	2711.0609	2245.85	1362.95
997.6742	2712.2881	2235.45	1353.5
997.7963	2713.5145	2231.95	1346.05
997.9183	2714.7403	2225.1	1345.75
998.0403	2715.9654	2230.8	1348.2
998.1623	2717.1899	2243.75	1350
998.2842	2718.4136	2218.95	1338.25
998.4062	2719.6367	2205.25	1325.1
998.528	2720.8591	2207.4	1318.75
998.6498	2722.0809	2198.7	1317.2
998.7716	2723.3019	2211.9	1327.4
998.8934	2724.5223	2207.75	1325.05
999.0151	2725.7421	2196.1	1311.85
999.1368	2726.9611	2186.75	1303.45
999.2584	2728.1795	2170.95	1283.7
999.38	2729.3972	2165.25	1283.8
999.5016	2730.6142	2175.9	1281.65
999.6231	2731.8306	2165.3	1283.35
999.7446	2733.0462	2158.6	1273.8
999.8661	2734.2612	2148.95	1263.4
999.9875	2735.4756	2134.45	1251.95
1000.1089	2736.6892	2134.9	1253.3
1000.2302	2737.9022	2124.1	1245.2
1000.3515	2739.1145	2108.85	1226.85
1000.4728	2740.3262	2122.35	1232.35
1000.594	2741.5372	2104.5	1223.35
1000.7152	2742.7475	2106.7	1223.9
1000.8363	2743.9571	2087.8	1202.9
1000.9575	2745.1661	2095.1	1209.2
1001.0785	2746.3744	2093.3	1211.35
1001.1996	2747.582	2086.6	1204.55
1001.3206	2748.7889	2083.2	1201.05
1001.4415	2749.9952	2068.95	1189.35
1001.5625	2751.2008	2066.5	1186.6
1001.6833	2752.4057	2060.3	1177.55
1001.8042	2753.61	2057.2	1173.8
1001.925	2754.8136	2060.75	1176.65
1002.0458	2756.0165	2052.2	1171.8
1002.1665	2757.2188	2051.3	1170
1002.2872	2758.4204	2038.8	1157.2
1002.4078	2759.6213	2036.1	1152.45
1002.5285	2760.8215	2041.05	1156.1
1002.649	2762.0211	2028.8	1146.4
1002.7696	2763.22	2028.65	1145.35
1002.8901	2764.4182	2024.95	1143.3
1003.0106	2765.6158	2018.15	1136.35
1003.131	2766.8127	2011.65	1130.9
1003.2514	2768.009	2007.85	1126.05
1003.3717	2769.2045	2009	1126.4
1003.492	2770.3994	2004.05	1120.8
1003.6123	2771.5936	2005.85	1124.3
1003.7325	2772.7872	1979.25	1099.2
1003.8527	2773.9801	1985.35	1101.3
1003.9729	2775.1723	1997.75	1101.85
1004.093	2776.3639	1973.8	1094.95
1004.2131	2777.5548	1971.3	1086.8
1004.3331	2778.745	1976.1	1094.15
1004.4531	2779.9346	1959.6	1079.35
1004.5731	2781.1235	1964.25	1082.7
1004.693	2782.3117	1958.35	1078.1
1004.8129	2783.4992	1953.9	1073.9
1004.9328	2784.6861	1953.45	1072.05
1005.0526	2785.8723	1951.6	1068.55
1005.1723	2787.0579	1940.85	1059.25
1005.2921	2788.2428	1943.05	1061.05
1005.4118	2789.427	1928.5	1048.6
1005.5314	2790.6106	1927.05	1046.35
1005.651	2791.7935	1918.5	1035.85
1005.7706	2792.9757	1916.2	1036.35
1005.8902	2794.1573	1920.05	1038.45
1006.0097	2795.3382	1906.65	1025.4
1006.1291	2796.5184	1901.95	1022.7
1006.2485	2797.698	1898.65	1015.6
1006.3679	2798.8769	1900.1	1017.8
1006.4873	2800.0551	1903.25	1022.45
1006.6066	2801.2327	1890.9	1006.35
1006.7258	2802.4096	1894.05	1015
1006.8451	2803.5859	1881.6	998.85
1006.9642	2804.7615	1874.95	992.8
1007.0834	2805.9364	1878.3	997.9
1007.2025	2807.1106	1876.15	995.85
1007.3216	2808.2842	1869	987.6
1007.4406	2809.4572	1874.55	992.55
1007.5596	2810.6294	1866	984.1
1007.6785	2811.801	1867	988.4
1007.7975	2812.972	1866.1	986.25
1007.9163	2814.1423	1865	981.55
1008.0352	2815.3119	1870.75	991.75
1008.154	2816.4808	1872.05	992.6
1008.2727	2817.6491	1871.7	989.45
1008.3914	2818.8167	1867.45	987.05
1008.5101	2819.9837	1880.05	996.45
1008.6288	2821.15	1874.5	993.6
1008.7474	2822.3157	1876.35	995.85
1008.8659	2823.4807	1883.15	1002.35
1008.9844	2824.645	1884.95	1001.75
1009.1029	2825.8086	1892.65	1011.9
1009.2214	2826.9716	1898.3	1016.95
1009.3398	2828.134	1899.8	1021.05
1009.4581	2829.2957	1907.35	1025.65
1009.5764	2830.4567	1912.7	1033.65
1009.6947	2831.617	1904.8	1022.2
1009.813	2832.7767	1912.9	1031.8
1009.9312	2833.9358	1907.6	1026.75
1010.0493	2835.0941	1901.15	1018.45
1010.1675	2836.2519	1898.05	1018.15
1010.2855	2837.4089	1887.5	1005.7
1010.4036	2838.5653	1881.7	1001.95
1010.5216	2839.7211	1880.9	1001.7
1010.6396	2840.8761	1869.45	986.8
1010.7575	2842.0306	1867.4	987.75
1010.8754	2843.1843	1872.75	991.45
1010.9932	2844.3374	1871.1	989.45
1011.111	2845.4899	1873	992.6
1011.2288	2846.6417	1880.15	1000.2
1011.3465	2847.7928	1878.5	996.75
1011.4642	2848.9433	1877.45	997.25
1011.5818	2850.0931	1881.1	1001.3
1011.6995	2851.2422	1887.6	1005.3
1011.817	2852.3907	1880.8	997.55
1011.9345	2853.5385	1890.65	1008.9
1012.052	2854.6857	1894.95	1004.3
1012.1695	2855.8323	1885.8	1007.95
1012.2869	2856.9781	1886.1	1005.15
1012.4042	2858.1233	1893.7	1015.45
1012.5216	2859.2679	1890.4	1009.35
1012.6389	2860.4118	1887.3	1008.55
1012.7561	2861.555	1889.1	1004.5
1012.8733	2862.6976	1901.35	1018.85
1012.9905	2863.8395	1898.1	1018.75
1013.1076	2864.9808	1899.25	1020.25
1013.2247	2866.1214	1892.85	1014.65
1013.3417	2867.2614	1895.6	1015.7
1013.4587	2868.4007	1887.55	1005.9
1013.5757	2869.5393	1890.5	1010.4
1013.6926	2870.6773	1880.45	997.9
1013.8095	2871.8146	1882.95	999.05
1013.9263	2872.9513	1881.75	998.55
1014.0431	2874.0874	1871.2	989.35
1014.1599	2875.2227	1869.25	988.5
1014.2766	2876.3574	1863.8	983.55
1014.3933	2877.4915	1860.8	980.65
1014.51	2878.6249	1856.75	977.65
1014.6266	2879.7577	1859.25	978.5
1014.7431	2880.8898	1867.55	976.1
1014.8596	2882.0212	1842.5	963.7
1014.9761	2883.152	1840.1	957.5
1015.0925	2884.2821	1834.25	954.95
1015.2089	2885.4116	1839	958.1
1015.3253	2886.5405	1840.6	960.95
1015.4416	2887.6686	1835.75	953.9
1015.5579	2888.7962	1830.8	952.7
1015.6741	2889.923	1823.6	943.95
1015.7903	2891.0493	1820.8	942.2
1015.9065	2892.1748	1822.85	941.95
1016.0226	2893.2997	1813.15	932.85
1016.1387	2894.424	1818.25	940.25
1016.2547	2895.5476	1817.75	936.75
1016.3707	2896.6706	1819.4	937.5
1016.4866	2897.7929	1815.15	934.5
1016.6025	2898.9145	1812	932.3
1016.7184	2900.0355	1815.2	934.7
1016.8342	2901.1559	1808.55	927.2
1016.95	2902.2756	1802.75	922.5
1017.0658	2903.3946	1801.05	921.95
1017.1815	2904.513	1798.45	914.35
1017.2971	2905.6308	1800.4	921.1
1017.4127	2906.7479	1794.9	913.85
1017.5283	2907.8643	1797.8	918.05
1017.6439	2908.9801	1789.95	908.25
1017.7594	2910.0953	1791.45	912.75
1017.8748	2911.2098	1787.2	905
1017.9902	2912.3236	1793.75	905.55
1018.1056	2913.4368	1792.1	908.5
1018.2209	2914.5494	1769.9	890.7
1018.3362	2915.6613	1777.7	890.25
1018.4515	2916.7725	1769.05	887.95
1018.5667	2917.8831	1767.05	884.9
1018.6819	2918.9931	1759	877.9
1018.797	2920.1024	1749.2	868.8
1018.9121	2921.211	1744.8	864.4
1019.0271	2922.319	1735.05	852.65
1019.1421	2923.4264	1738.5	860.1
1019.2571	2924.5331	1726.05	846.95
1019.372	2925.6391	1729.65	851.75
1019.4869	2926.7445	1727.95	849.65
1019.6017	2927.8493	1727.15	846.15
1019.7165	2928.9534	1735.35	853.4
1019.8313	2930.0569	1729.9	847.25
1019.946	2931.1597	1726.6	844.1
1020.0606	2932.2619	1710.65	831.9
1020.1753	2933.3634	1723.35	842.55
1020.2899	2934.4643	1732.3	845.4
1020.4044	2935.5645	1723.95	837.95
1020.5189	2936.6641	1713	827.6
1020.6334	2937.763	1704.05	825.5
1020.7478	2938.8613	1700.9	819.35
1020.8622	2939.959	1699.5	813.3
1020.9765	2941.056	1692.05	812.3
1021.0908	2942.1523	1674.65	792.75
1021.2051	2943.248	1663.6	783.8
1021.3193	2944.3431	1651.85	772.8
1021.4334	2945.4375	1643.25	762.55
1021.5476	2946.5313	1617.35	740.75
1021.6617	2947.6244	1613.25	733.3
1021.7757	2948.7169	1602.6	722.1
1021.8897	2949.8087	1595.45	715.35
1022.0037	2950.8999	1573.4	691.95
1022.1176	2951.9904	1581	700.95
1022.2315	2953.0803	1567.7	688.3
1022.3453	2954.1696	1558.95	676.6
1022.4591	2955.2582	1542.35	664.4
1022.5728	2956.3462	1539.4	658.3
1022.6865	2957.4335	1535.25	655.05
1022.8002	2958.5202	1533.8	652.7
1022.9138	2959.6062	1527.05	647
1023.0274	2960.6916	1520.55	640.25
1023.141	2961.7764	1514.05	634.65
1023.2545	2962.8605	1515.3	635.5
1023.3679	2963.9439	1515.15	635.25
1023.4813	2965.0267	1504.5	623.3
1023.5947	2966.1089	1527.25	622.4
1023.708	2967.1905	1500.95	621.45
1023.8213	2968.2714	1504.65	626.45
1023.9346	2969.3516	1496.5	615.65
1024.0478	2970.4312	1499.05	611.55
1024.1609	2971.5102	1489.9	610.9
1024.274	2972.5885	1482.2	601.6
1024.3871	2973.6662	1489.95	603.7
1024.5002	2974.7432	1479.4	602.95
1024.6132	2975.8196	1481.75	600.8
1024.7261	2976.8954	1476.95	599.35
1024.839	2977.9705	1477.05	596.3
1024.9519	2979.045	1474.4	595.35
1025.0647	2980.1188	1468.85	588.8
1025.1775	2981.192	1461	583.65
1025.2902	2982.2645	1452.85	572.2
1025.4029	2983.3364	1457.6	577.4
1025.5156	2984.4077	1445.55	564.45
1025.6282	2985.4783	1452.8	567.3
1025.7407	2986.5483	1447.45	569.5
1025.8532	2987.6177	1448.4	569.5
1025.9657	2988.6864	1423.75	542.05
1026.0782	2989.7545	1430.65	549.25
1026.1906	2990.8219	1425.25	545
1026.3029	2991.8887	1413.2	531.45
1026.4152	2992.9548	1404.65	525.1
1026.5275	2994.0204	1403.1	525.35
1026.6397	2995.0852	1406.05	525.65
1026.7519	2996.1495	1391.95	510.8
1026.864	2997.2131	1393.05	515.2
1026.9761	2998.276	1396.45	515.85
1027.0882	2999.3383	1385.05	503.85
1027.2002	3000.4	1379	495.35
1027.3122	3001.4611	1375.95	495.55
1027.4241	3002.5215	1370.45	490.45
1027.536	3003.5812	1371.05	491.7
1027.6478	3004.6404	1358.45	479.3
1027.7596	3005.6989	1361.4	477.85
1027.8714	3006.7567	1363.25	483.45
1027.9831	3007.8139	1382.75	481.3
1028.0947	3008.8705	1357.65	478.15
1028.2064	3009.9264	1360.95	478.7
1028.3179	3010.9818	1352.6	470.95
1028.4295	3012.0364	1346.45	464.95
1028.541	3013.0905	1343.6	464.6
1028.6524	3014.1439	1347.6	467.45
1028.7638	3015.1966	1347.2	469.35
1028.8752	3016.2487	1340.75	461.7
1028.9865	3017.3002	1344.95	459.45
1029.0978	3018.3511	1330	453.6
1029.209	3019.4013	1328.05	450.3
1029.3202	3020.4509	1332.85	453.4
1029.4314	3021.4998	1325.65	447.45
1029.5425	3022.5481	1320.15	440.15
1029.6535	3023.5958	1322.1	441.25
1029.7645	3024.6428	1318.2	438.9
1029.8755	3025.6892	1317.65	439.45
1029.9864	3026.735	1314.4	435.2
1030.0973	3027.7802	1317.5	436.95
1030.2082	3028.8247	1317.65	439.85
1030.319	3029.8685	1308.35	427.1
1030.4297	3030.9118	1314.05	434.3
1030.5404	3031.9544	1307.45	428.15
1030.6511	3032.9963	1304.95	424.95
1030.7617	3034.0376	1303.3	425.5
1030.8723	3035.0783	1303.7	421.1
1030.9829	3036.1184	1303.3	424
1031.0934	3037.1578	1291.55	413.65
1031.2038	3038.1966	1296.85	415.4
1031.3142	3039.2348	1296.15	419.05
1031.4246	3040.2723	1301.85	412.95
1031.5349	3041.3092	1291.4	412.1
1031.6452	3042.3455	1290.6	411.05
1031.7554	3043.3811	1284.2	404
1031.8656	3044.4161	1289.65	410.1
1031.9758	3045.4505	1287.95	410.5
1032.0859	3046.4842	1285.5	405.45
1032.1959	3047.5173	1284.3	406.35
1032.3059	3048.5498	1277.95	397.55
1032.4159	3049.5816	1273.5	396.05
1032.5258	3050.6128	1280.15	398.85
1032.6357	3051.6434	1278.05	398.4
1032.7455	3052.6734	1279.6	399.3
1032.8553	3053.7027	1277.1	398
1032.9651	3054.7314	1271.65	392.5
1033.0748	3055.7594	1269.45	388.2
1033.1845	3056.7868	1271.35	388.55
1033.2941	3057.8136	1262.55	384.55
1033.4037	3058.8398	1262.95	384.85
1033.5132	3059.8653	1263.85	383.55
1033.6227	3060.8902	1255.75	378.75
1033.7321	3061.9145	1260.9	382.65
1033.8415	3062.9381	1254.8	374.5
1033.9509	3063.9612	1273.95	378.25
1034.0602	3064.9835	1248.2	368.3
1034.1694	3066.0053	1253.6	371.85
1034.2787	3067.0264	1248.1	369.25
1034.3878	3068.0469	1251.7	370.1
1034.497	3069.0668	1247.4	366.05
1034.6061	3070.086	1242.75	365.8
1034.7151	3071.1046	1249.7	369.35
1034.8241	3072.1226	1247.2	366.1
1034.9331	3073.1399	1244.7	366
1035.042	3074.1567	1241.1	360.85
1035.1508	3075.1727	1242.2	361.4
1035.2597	3076.1882	1237.2	357.95
1035.3684	3077.203	1231.9	352.15
1035.4772	3078.2173	1235.2	354.6
1035.5859	3079.2308	1233.85	351.35
1035.6945	3080.2438	1235.95	355.2
1035.8031	3081.2561	1226.05	345.75
1035.9117	3082.2678	1219.35	341.9
1036.0202	3083.2789	1223.2	342.2
1036.1286	3084.2893	1222.2	344.45
1036.2371	3085.2991	1219.95	340
1036.3454	3086.3083	1221.45	337.8
1036.4538	3087.3169	1213.5	333.5
1036.562	3088.3248	1213.5	334.5
1036.6703	3089.3321	1216.35	334.7
1036.7785	3090.3388	1204.7	329
1036.8866	3091.3449	1204.15	325.05
1036.9948	3092.3503	1212.2	329.8
1037.1028	3093.3551	1207.2	327.6
1037.2108	3094.3593	1197.35	318.45
1037.3188	3095.3629	1198.6	320.3
1037.4267	3096.3658	1196.95	317.4
1037.5346	3097.3681	1194.55	316.1
1037.6425	3098.3698	1197.1	320
1037.7503	3099.3708	1200.35	313.1
1037.858	3100.3713	1191.45	312.95
1037.9657	3101.3711	1193.1	312.85
1038.0734	3102.3702	1316.9	304.9
1038.181	3103.3688	1185.75	305.2
1038.2886	3104.3667	1185.25	307.05
1038.3961	3105.364	1182.25	303
1038.5036	3106.3607	1183.65	303.3
1038.611	3107.3568	1186.55	304.75
1038.7184	3108.3522	1178.3	300.8
1038.8257	3109.347	1178.2	296.8
1038.933	3110.3412	1178.3	295.15
1039.0403	3111.3348	1171.85	291.55
1039.1475	3112.3277	1169.2	289.6
1039.2547	3113.32	1172.95	294.55
1039.3618	3114.3117	1165.75	286.15
1039.4689	3115.3028	1164.7	287.55
1039.5759	3116.2932	1166.5	285
1039.6829	3117.2831	1168.65	284.45
1039.7898	3118.2723	1162.2	282.9
1039.8967	3119.2608	1154.25	274.6
1040.0035	3120.2488	1158.1	278.55
1040.1103	3121.2361	1158.35	277.85
1040.2171	3122.2229	1153.2	275.35
1040.3238	3123.209	1154.7	273.95
1040.4305	3124.1944	1148.85	269.25
1040.5371	3125.1793	1154.45	273.9
1040.6437	3126.1635	1151.1	273.1
1040.7502	3127.1471	1146.35	268.4
1040.8567	3128.1301	1141.8	262.5
1040.9631	3129.1125	1142.6	263.35
1041.0695	3130.0942	1144.2	264.3
1041.1759	3131.0753	1146.45	258.1
1041.2822	3132.0558	1143.35	260.9
1041.3884	3133.0357	1141.4	261.55
1041.4946	3134.015	1134.8	252.4
1041.6008	3134.9936	1141.5	261.8
1041.7069	3135.9716	1159.05	259.55
1041.813	3136.949	1138.4	260.1
1041.919	3137.9258	1136.55	251.1
1042.025	3138.902	1139.05	255.6
1042.1309	3139.8775	1130.45	252.3
1042.2368	3140.8524	1126.7	246.9
1042.3427	3141.8267	1130.15	246.95
1042.4485	3142.8004	1124.4	244.85
1042.5542	3143.7735	1130.2	246.6
1042.6599	3144.7459	1133.1	250.6
1042.7656	3145.7178	1122.85	243.6
1042.8712	3146.689	1122.7	243.8
1042.9768	3147.6596	1120.9	241.75
1043.0823	3148.6295	1126.2	247.35
1043.1878	3149.5989	1120.8	242.6
1043.2932	3150.5676	1115	238.4
1043.3986	3151.5357	1116.7	240.5
1043.5039	3152.5032	1119.2	242.25
1043.6092	3153.4701	1109.15	229.8
1043.7145	3154.4364	1118.25	236.25
1043.8197	3155.402	1111.7	234.6
1043.9248	3156.367	1111.5	230.6
1044.03	3157.3315	1145.8	227.8
1044.135	3158.2952	1104.55	227.6
1044.24	3159.2584	1107.75	227.9
1044.345	3160.221	1105.35	226.3
1044.4499	3161.1829	1107.7	227.5
1044.5548	3162.1442	1101.7	220.95
1044.6596	3163.105	1101.3	223.7
1044.7644	3164.065	1100.75	221.6
1044.8692	3165.0245	1101.4	218.8
1044.9739	3165.9834	1093.4	216.75
1045.0785	3166.9416	1094.45	217.5
1045.1831	3167.8993	1097.15	218.5
1045.2877	3168.8563	1092.15	211.25
1045.3922	3169.8127	1094.55	214.35
1045.4966	3170.7684	1095.5	216.9
1045.6011	3171.7236	1093.55	213.4
1045.7054	3172.6782	1088.8	209
1045.8098	3173.6321	1090.45	210.05
1045.914	3174.5854	1088	205.15
1046.0183	3175.5381	1079.7	201.3
1046.1224	3176.4902	1086.5	207.2
1046.2266	3177.4417	1079.5	201.8
1046.3307	3178.3926	1084.75	205.6
1046.4347	3179.3428	1079.95	203.05
1046.5387	3180.2924	1078.3	199.35
1046.6427	3181.2415	1079.25	199.15
1046.7466	3182.1899	1077.85	197.95
1046.8504	3183.1377	1080.05	200.6
1046.9542	3184.0848	1082.25	200.1
1047.058	3185.0314	1078.05	199.45
1047.1617	3185.9773	1076.95	195.35
1047.2654	3186.9227	1072.1	191.05
1047.369	3187.8674	1068.55	187.95
1047.4726	3188.8115	1077.85	195.15
1047.5761	3189.755	1072.95	196.55
1047.6796	3190.6979	1070.6	191.3
1047.783	3191.6402	1065.95	188.8
1047.8864	3192.5818	1060.5	181
1047.9898	3193.5229	1087.5	191.8
1048.0931	3194.4633	1070.6	193.25
1048.1963	3195.4031	1064.9	187.1
1048.2995	3196.3423	1064.45	184.6
1048.4027	3197.2809	1060.35	182.35
1048.5058	3198.2189	1063.85	183.75
1048.6089	3199.1563	1082.5	186.15
1048.7119	3200.0931	1055.2	176.1
1048.8148	3201.0292	1060.85	182.75
1048.9178	3201.9648	1058.5	180.05
1049.0206	3202.8997	1063.9	181.35
1049.1235	3203.834	1059.1	180.6
1049.2262	3204.7677	1057	178
1049.329	3205.7008	1051.75	169.8
1049.4317	3206.6333	1048.05	171.55
1049.5343	3207.5652	1055.25	173.35
1049.6369	3208.4964	1048.85	170
1049.7394	3209.4271	1048.45	169.15
1049.8419	3210.3571	1047.1	168
1049.9444	3211.2865	1046.15	165.4
1050.0468	3212.2154	1047.85	169.8
1050.1491	3213.1436	1051.75	169.85
1050.2514	3214.0712	1051.4	165.85
1050.3537	3214.9982	1046.2	167.15
1050.4559	3215.9246	1043.8	162.5
1050.5581	3216.8503	1043.25	163.15
1050.6602	3217.7755	1043	162.9
1050.7623	3218.7001	1038.6	161.15
1050.8643	3219.624	1040.95	161.25
1050.9663	3220.5473	1036.25	157.15
1051.0682	3221.4701	1036.75	156.95
1051.1701	3222.3922	1037.3	156.45
1051.2719	3223.3137	1038.05	160.75
1051.3737	3224.2346	1039.4	159.45
1051.4754	3225.1549	1036.6	158.65
1051.5771	3226.0746	1037.3	157.55
1051.6788	3226.9937	1037.4	159.05
1051.7804	3227.9121	1034.35	156
1051.8819	3228.83	1033	155.1
1051.9834	3229.7473	1033.15	153.45
1052.0849	3230.6639	1030.7	151.15
1052.1863	3231.5799	1030.1	150.5
1052.2876	3232.4954	1028.15	150.3
1052.3889	3233.4102	1025.35	147.75
1052.4902	3234.3244	1026.3	146
1052.5914	3235.238	1020.75	138.65
1052.6926	3236.151	1047.5	143.25
1052.7937	3237.0634	1022.6	146.2
1052.8948	3237.9752	1023.95	145.35
1052.9958	3238.8864	1024.05	146.3
1053.0968	3239.797	1024.8	145.9
1053.1977	3240.7069	1024.95	144.35
1053.2986	3241.6163	1020.65	139.55
1053.3994	3242.5251	1020.15	141.3
1053.5002	3243.4332	1018.15	141.5
1053.6009	3244.3408	1016.3	136.95
1053.7016	3245.2477	1016.8	136.95
1053.8022	3246.154	1015.05	133.55
1053.9028	3247.0598	1016.3	137.5
1054.0034	3247.9649	1010.9	131.1
1054.1039	3248.8694	1017.4	138.15
1054.2043	3249.7733	1010.7	131.3
1054.3047	3250.6766	1013.15	134.5
1054.4051	3251.5793	1011.65	131.3
1054.5054	3252.4814	1005.3	127.25
1054.6056	3253.3829	1011.1	133.55
1054.7058	3254.2838	1011	130.95
1054.806	3255.1841	1007.8	128.65
1054.9061	3256.0838	1005.7	127.65
1055.0061	3256.9829	1006.15	128.8
1055.1062	3257.8814	1006.6	124.9
1055.2061	3258.7792	1003.55	122.5
1055.306	3259.6765	1003.7	124.25
1055.4059	3260.5731	1005.25	125.95
1055.5057	3261.4692	1002.75	121.85
1055.6055	3262.3647	1000.2	121.4
1055.7052	3263.2595	997.35	116.15
1055.8049	3264.1538	997.35	120.55
1055.9045	3265.0474	995.85	116.5
1056.0041	3265.9404	988.3	110.9
1056.1036	3266.8329	989	111.15
1056.2031	3267.7247	997.05	108.45
1056.3025	3268.616	983.95	106.1
1056.4019	3269.5066	981.95	100.95
1056.5013	3270.3966	982.85	102.9
1056.6005	3271.286	974.85	96.85
