Software Version:	3.9.2.0
Unit SN:	10000200
Spectrometer SN:	6960
Date:	3/6/2024 9:48:18 AM
Data Line Index:	25
Spectral Points:	2048
Integration time (ms):	125
Averages:	20
Delay (ms):	30
Sequence Number:	1
Processing:	dark subtract
Laser Power (mW):	300
Laser Current (mA):	824
Laser Diode Temp (C):	25.1
Laser Case Temp (C):	24.3
System Temp (C):	24.1
Spectrometer Temp (C):	21.7
CCD Temp (C):	-0.024
Secondary Temp (C):	20.01
Heatsink Temp (C):	17.995
CCDPCB Temp (C):	30.549
SecondaryPCB Temp (C):	25.925

Wavelength	RamanShift	Raw Counts	Dark Subtracted
787.061	30.1047	450.35	42.55
787.2016	32.3739	445.65	42.45
787.3422	34.6426	452.4	46.35
787.4828	36.9109	458.3	51.3
787.6235	39.1787	466.15	53.75
787.7642	41.4461	471.85	55.35
787.9049	43.7131	482.3	62.95
788.0456	45.9796	486.6	63.15
788.1863	48.2456	493.1	67.15
788.3271	50.5112	500.75	70.9
788.4679	52.7764	509.7	75.8
788.6087	55.0411	514.25	78.4
788.7496	57.3054	529.5	88
788.8904	59.5692	535.6	90
789.0313	61.8326	541.15	94.65
789.1722	64.0955	552.4	103.45
789.3132	66.3579	565.95	112
789.4541	68.6199	586.35	126.9
789.5951	70.8815	607.3	144.8
789.7361	73.1426	651.9	184.8
789.8771	75.4032	776.7	305.15
790.0181	77.6634	1076.15	603.25
790.1592	79.9231	1794.05	1317.1
790.3003	82.1824	3282.9	2799.7
790.4414	84.4412	5911.35	5416.35
790.5825	86.6995	9456.3	8947.85
790.7237	88.9574	12967.85	12448.9
790.8648	91.2148	15544.4	15018.75
791.006	93.4717	16987.9	16454.4
791.1472	95.7282	17643.25	17108.4
791.2885	97.9842	17948.35	17410.95
791.4297	100.2398	18072.9	17534.75
791.571	102.4949	18129.55	17588
791.7123	104.7495	18132.75	17585.3
791.8536	107.0036	18129.3	17581.6
791.9949	109.2573	18095.85	17550.65
792.1363	111.5105	18126.35	17574.9
792.2777	113.7632	18094.85	17545.9
792.4191	116.0154	18136.55	17573
792.5605	118.2672	18188.3	17632.4
792.7019	120.5185	18204.95	17647.95
792.8434	122.7693	18230.3	17674.2
792.9849	125.0197	18235.85	17674.1
793.1264	127.2696	18233.6	17667.65
793.2679	129.519	18295.85	17726.95
793.4094	131.7679	18342.45	17768.95
793.551	134.0163	18384.55	17812.55
793.6926	136.2642	18398.35	17816.7
793.8342	138.5117	18434.6	17849.8
793.9758	140.7587	18450	17865.9
794.1175	143.0052	18461.9	17873.8
794.2591	145.2512	18466.55	17881.9
794.4008	147.4967	18443.75	17855.85
794.5425	149.7417	18426.8	17833.15
794.6842	151.9863	18452.7	17859
794.826	154.2304	18491.25	17893.9
794.9677	156.4739	18452.9	17850.15
795.1095	158.717	18469.7	17866.15
795.2513	160.9596	18484.85	17873.45
795.3931	163.2017	18479.35	17869.25
795.535	165.4433	18465.25	17850.2
795.6768	167.6844	18493.65	17879.4
795.8187	169.925	18505.8	17888.25
795.9606	172.1651	18468	17847.85
796.1025	174.4047	18449.15	17823.2
796.2445	176.6439	18438.9	17811.8
796.3864	178.8825	18452.25	17821
796.5284	181.1206	18493.3	17858.8
796.6704	183.3582	18499.75	17863.95
796.8124	185.5954	18519.6	17880.2
796.9544	187.832	18547.45	17902.9
797.0965	190.0681	18567.15	17922.15
797.2386	192.3037	18597.55	17950.8
797.3806	194.5388	18597.2	17945.05
797.5228	196.7734	18647.7	17994.55
797.6649	199.0075	18708.9	18052.85
797.807	201.2411	18806.05	18150.3
797.9492	203.4742	18845.5	18186.8
798.0914	205.7068	18904.5	18241.35
798.2336	207.9389	18922.7	18257.45
798.3758	210.1704	18983.7	18323.65
798.518	212.4015	18940.1	18288.9
798.6603	214.632	18988.75	18345.35
798.8025	216.862	19038.6	18396.5
798.9448	219.0915	19008.7	18365.1
799.0871	221.3205	19086.95	18440.95
799.2294	223.549	19107.75	18464.9
799.3718	225.777	19152.15	18512.8
799.5141	228.0044	19187.7	18538.1
799.6565	230.2314	19224.8	18577.9
799.7989	232.4578	19217.4	18562.7
799.9413	234.6837	19239.75	18577.15
800.0837	236.909	19260.55	18594.65
800.2262	239.1339	19302.35	18612.85
800.3687	241.3582	19283.45	18608.15
800.5111	243.582	19311	18607.2
800.6536	245.8053	19349	18655.05
800.7961	248.0281	19346.4	18659.35
800.9387	250.2503	19326.05	18635.7
801.0812	252.472	19337	18642.85
801.2238	254.6932	19374.65	18682.05
801.3664	256.9139	19349.35	18656.1
801.509	259.134	19369.6	18669.6
801.6516	261.3536	19394.7	18696.45
801.7942	263.5727	19439.05	18740
801.9369	265.7912	19482.4	18784.2
802.0795	268.0092	19524.75	18823.95
802.2222	270.2267	19518.25	18820.15
802.3649	272.4436	19541.2	18844.05
802.5076	274.6601	19548	18836.05
802.6504	276.8759	19546.15	18841.45
802.7931	279.0913	19594.6	18887.35
802.9359	281.3061	19603.95	18896.25
803.0787	283.5204	19650.25	18939.9
803.2215	285.7341	19660.65	18942.6
803.3643	287.9473	19679.9	18953.5
803.5071	290.16	19710.45	18990.25
803.6499	292.3721	19697.95	18987.05
803.7928	294.5837	19666.85	18952
803.9357	296.7947	19590.4	18877.7
804.0786	299.0052	19599.1	18883.25
804.2215	301.2152	19582.4	18863.4
804.3644	303.4246	19583.25	18868.55
804.5074	305.6334	19533.05	18816.55
804.6503	307.8418	19568.6	18848.15
804.7933	310.0495	19558.2	18834.8
804.9363	312.2568	19541.55	18821
805.0793	314.4635	19465.1	18741.85
805.2223	316.6696	19421	18693.95
805.3653	318.8752	19364.3	18629.5
805.5084	321.0802	19329.5	18602.55
805.6514	323.2847	19330.2	18600.7
805.7945	325.4887	19309.5	18578.95
805.9376	327.692	19270.15	18536.4
806.0807	329.8949	19359.7	18624.7
806.2238	332.0972	19403.95	18668.2
806.367	334.2989	19401.45	18663.25
806.5101	336.5001	19358.1	18618.2
806.6533	338.7007	19380.4	18642.9
806.7965	340.9008	19365.75	18625.1
806.9397	343.1003	19313.4	18570.95
807.0829	345.2992	19290.1	18544.75
807.2261	347.4976	19308.55	18563.1
807.3693	349.6955	19282.2	18532
807.5126	351.8927	19313.5	18562.15
807.6559	354.0895	19250.75	18488.75
807.7991	356.2856	19286.55	18535.2
807.9424	358.4812	19242.35	18490.9
808.0857	360.6763	19275.5	18518.75
808.2291	362.8707	19176.75	18421.8
808.3724	365.0646	19230.25	18472.3
808.5158	367.258	19228.95	18469.4
808.6591	369.4508	19185.2	18421.65
808.8025	371.643	19214.95	18447.8
808.9459	373.8346	19147.3	18379
809.0893	376.0257	19145.95	18377.15
809.2327	378.2162	19152.65	18382.6
809.3762	380.4062	19169.15	18399.35
809.5196	382.5956	19086.1	18318.05
809.6631	384.7844	19058.5	18297
809.8066	386.9726	18966.1	18203.6
809.9501	389.1603	18991.3	18229.75
810.0936	391.3474	19010.55	18208.15
810.2371	393.5339	18973.15	18210.05
810.3806	395.7199	18863.45	18103.25
810.5241	397.9052	18893.55	18131.45
810.6677	400.09	18893	18128.6
810.8113	402.2743	18909.45	18146.75
810.9548	404.4579	18880.4	18113.25
811.0984	406.641	18928.9	18161.5
811.2421	408.8235	18962.7	18195.55
811.3857	411.0054	19009.8	18239.95
811.5293	413.1868	19078.85	18305.15
811.673	415.3675	19101.75	18325.35
811.8166	417.5477	19106.9	18328.65
811.9603	419.7273	19045.85	18260.85
812.104	421.9064	18926.85	18139
812.2477	424.0848	18837.1	18054.55
812.3914	426.2627	18767	17984.85
812.5351	428.4399	18756.05	17974.75
812.6788	430.6166	18688	17898.8
812.8226	432.7928	18596.7	17806.6
812.9663	434.9683	18554.45	17763.9
813.1101	437.1432	18505.5	17714.15
813.2539	439.3176	18443.85	17655.7
813.3977	441.4914	18370.6	17585
813.5415	443.6645	18373.45	17584.25
813.6853	445.8371	18290.9	17498.65
813.8291	448.0091	18234.5	17442.25
813.973	450.1806	18167.65	17376.35
814.1168	452.3514	18142.05	17347.85
814.2607	454.5216	18124.55	17322.7
814.4046	456.6913	18046.3	17251.35
814.5485	458.8603	18047.45	17252.55
814.6924	461.0288	18103.55	17310.4
814.8363	463.1967	18028.6	17235.05
814.9802	465.3639	18020.3	17223.65
815.1241	467.5306	18006.1	17209.6
815.2681	469.6967	17975.5	17181
815.412	471.8622	17910.1	17113.3
815.556	474.0271	17921.95	17127.8
815.7	476.1914	17878.55	17077.15
815.844	478.3551	17879	17082.75
815.988	480.5182	17909.15	17109.5
816.132	482.6807	17869.15	17070.2
816.276	484.8426	17921	17121
816.4201	487.0039	17905.85	17107.05
816.5641	489.1647	17990.35	17190.55
816.7082	491.3248	18002.45	17200.65
816.8522	493.4843	17983.75	17184.6
816.9963	495.6432	17968.65	17168.45
817.1404	497.8015	17922	17115.2
817.2845	499.9592	17918.5	17113.45
817.4286	502.1163	17880.5	17073.65
817.5727	504.2728	17762	16955.4
817.7168	506.4287	17816.75	17015.1
817.861	508.5839	17764.2	16958.05
818.0051	510.7386	17764.6	16959.25
818.1493	512.8927	17747.05	16932.75
818.2935	515.0461	17731.2	16921.25
818.4377	517.199	17735.9	16928.15
818.5818	519.3512	17729.3	16917.8
818.726	521.5029	17739.15	16921.15
818.8703	523.6539	17777.7	16964.1
819.0145	525.8043	17790.85	16977.45
819.1587	527.9541	17745.4	16928.6
819.303	530.1033	17694.95	16876.5
819.4472	532.2519	17628.6	16813.45
819.5915	534.3999	17623.45	16804.85
819.7357	536.5472	17580.9	16763.9
819.88	538.694	17609.8	16792.8
820.0243	540.8401	17591.3	16774.6
820.1686	542.9856	17577.8	16755.1
820.3129	545.1305	17558.3	16734.2
820.4572	547.2748	17568.3	16743.6
820.6016	549.4185	17597.85	16772.6
820.7459	551.5615	17526.6	16703.85
820.8902	553.704	17549	16724.85
821.0346	555.8458	17499.55	16679.55
821.1789	557.987	17521.55	16700.1
821.3233	560.1276	17524.05	16702.4
821.4677	562.2675	17565.45	16744.9
821.6121	564.4069	17539.55	16716.9
821.7565	566.5456	17499.65	16679.7
821.9009	568.6837	17544.7	16723.85
822.0453	570.8212	17420.35	16599.75
822.1897	572.958	17389.15	16567.95
822.3342	575.0942	17328.7	16508.95
822.4786	577.2299	17260.1	16438.55
822.6231	579.3648	17220.85	16399.6
822.7675	581.4992	17120.15	16300.95
822.912	583.6329	17086.9	16267.9
823.0565	585.766	17060.5	16239.35
823.201	587.8985	17035.15	16214.35
823.3454	590.0304	17009.25	16173.15
823.4899	592.1616	16993.5	16166.75
823.6345	594.2922	16976.65	16146.2
823.779	596.4222	16926.55	16094.5
823.9235	598.5515	16857.7	16027.4
824.068	600.6802	16783.4	15952.35
824.2126	602.8083	16715	15883.8
824.3571	604.9358	16720.6	15887.85
824.5017	607.0626	16656.1	15825.45
824.6462	609.1888	16655.7	15822.8
824.7908	611.3144	16666.3	15831.35
824.9354	613.4393	16619.9	15785.05
825.08	615.5636	16647.1	15815.25
825.2246	617.6873	16625.75	15793.6
825.3692	619.8103	16666.85	15831.3
825.5138	621.9327	16626.25	15786.55
825.6584	624.0544	16600.25	15765.35
825.803	626.1756	16557	15721.75
825.9477	628.2961	16513.7	15678.05
826.0923	630.4159	16452.3	15614.8
826.237	632.5351	16479.9	15641.05
826.3816	634.6537	16441.95	15602.95
826.5263	636.7716	16399.4	15560.1
826.6709	638.8889	16406.4	15566.95
826.8156	641.0056	16434.2	15595.1
826.9603	643.1216	16405.3	15564.4
827.105	645.237	16429.95	15588.45
827.2497	647.3518	16387.85	15550.4
827.3944	649.4659	16377	15539.45
827.5391	651.5793	16325	15485.8
827.6838	653.6922	16274.6	15436.5
827.8285	655.8043	16281.2	15441.7
827.9733	657.9159	16244.05	15403.95
828.118	660.0268	16214	15371.1
828.2627	662.137	16150.9	15309.75
828.4075	664.2466	16132.25	15288.2
828.5522	666.3556	16140.75	15297.3
828.697	668.4639	16090.3	15243.8
828.8418	670.5716	16132.55	15288.75
828.9865	672.6786	16096.4	15251.15
829.1313	674.785	16053.55	15205.95
829.2761	676.8907	16002.15	15157.95
829.4209	678.9958	16006.15	15162.7
829.5657	681.1002	15921.1	15073.7
829.7105	683.204	15936.2	15085.4
829.8553	685.3072	15894.25	15043.6
830.0001	687.4097	15900.2	15052.75
830.1449	689.5115	15913.5	15063.7
830.2898	691.6127	15887.25	15041.25
830.4346	693.7132	15841.1	14994.3
830.5794	695.8131	15861.1	14991.95
830.7243	697.9123	15848.85	14997.85
830.8691	700.0109	15792.25	14942.9
831.014	702.1089	15798.95	14952.3
831.1588	704.2061	15761.85	14912.9
831.3037	706.3028	15769.35	14919.85
831.4486	708.3987	15738.95	14889
831.5935	710.4941	15730.25	14878.4
831.7383	712.5887	15742.75	14892.9
831.8832	714.6827	15720.25	14862.6
832.0281	716.7761	15694.3	14843.25
832.173	718.8688	15694.6	14840.35
832.3179	720.9608	15674.15	14817.95
832.4628	723.0522	15675.55	14817.15
832.6077	725.1429	15631.95	14779.65
832.7527	727.233	15628.3	14772.65
832.8976	729.3224	15698.05	14842.9
833.0425	731.4112	15659.15	14803.25
833.1874	733.4993	15638.85	14782.1
833.3324	735.5867	15571.35	14716.6
833.4773	737.6735	15536.4	14680.55
833.6222	739.7596	15514.7	14654.75
833.7672	741.845	15502	14644.95
833.9122	743.9298	15438.15	14580.15
834.0571	746.014	15411.3	14555.55
834.2021	748.0974	15402.3	14545.75
834.347	750.1802	15349.4	14489.1
834.492	752.2624	15330.55	14471
834.637	754.3439	15270.4	14410.6
834.782	756.4247	15212.5	14344.25
834.9269	758.5048	15170.65	14309.45
835.0719	760.5843	15157.1	14298.65
835.2169	762.6631	15110.65	14251.85
835.3619	764.7413	15069.4	14212.1
835.5069	766.8188	15130	14268.25
835.6519	768.8956	15077.2	14213.9
835.7969	770.9718	15129.4	14270.6
835.9419	773.0473	15062.45	14203.35
836.0869	775.1221	15046.95	14188.4
836.232	777.1962	14973.4	14113.35
836.377	779.2697	14964	14102.5
836.522	781.3426	14997.25	14116.85
836.667	783.4147	14969.1	14107.75
836.8121	785.4862	14981.05	14119.45
836.9571	787.557	14911.15	14048.1
837.1021	789.6271	14866.4	14004.3
837.2472	791.6966	14738.2	13875.8
837.3922	793.7654	14685.75	13823
837.5373	795.8335	14659.15	13797
837.6823	797.901	14596.55	13734.95
837.8274	799.9678	14542.75	13678.05
837.9724	802.0339	14538.45	13677.85
838.1175	804.0993	14559.6	13687.65
838.2626	806.1641	14473.25	13609.55
838.4076	808.2282	14432.15	13569.15
838.5527	810.2916	14437.8	13570.55
838.6978	812.3544	14426.4	13563.8
838.8428	814.4164	14385.9	13523.7
838.9879	816.4778	14401.65	13536.2
839.133	818.5385	14359.8	13494.9
839.2781	820.5986	14391.9	13527.85
839.4232	822.658	14384.05	13517.05
839.5682	824.7166	14368	13504.1
839.7133	826.7747	14428.3	13561.55
839.8584	828.832	14432.25	13566.95
840.0035	830.8886	14377.2	13508.5
840.1486	832.9446	14387.9	13519.1
840.2937	834.9999	14384.3	13518.25
840.4388	837.0545	14286.5	13412.95
840.5839	839.1085	14261.6	13391.55
840.729	841.1618	14206.95	13335.85
840.8741	843.2143	14152.75	13285.1
841.0192	845.2662	14110.65	13242.9
841.1643	847.3175	14091.05	13222.4
841.3095	849.368	14042.35	13173.1
841.4546	851.4179	14026.6	13159.1
841.5997	853.467	13987.5	13119.8
841.7448	855.5155	13956.2	13086.05
841.8899	857.5633	13945.55	13076.4
842.0351	859.6105	13876.45	13008.35
842.1802	861.6569	13871.35	13002.25
842.3253	863.7027	13841.2	12971.9
842.4704	865.7478	13836.2	12965
842.6156	867.7922	13798.55	12931.25
842.7607	869.8359	13783.75	12912.35
842.9058	871.8789	13763.55	12894.4
843.0509	873.9212	13790.45	12888.95
843.1961	875.9629	13710.65	12839.65
843.3412	878.0039	13749.6	12878.3
843.4863	880.0441	13713.55	12844.35
843.6315	882.0837	13683.05	12812.95
843.7766	884.1226	13712.1	12840.05
843.9218	886.1609	13701.65	12829.05
844.0669	888.1984	13732.55	12861.15
844.212	890.2352	13766.55	12894.55
844.3572	892.2714	13753.8	12879.05
844.5023	894.3069	13739.05	12869.9
844.6475	896.3416	13662.65	12790.25
844.7926	898.3757	13626.5	12755.75
844.9377	900.4091	13586.1	12711.15
845.0829	902.4418	13582.9	12706.35
845.228	904.4739	13545.9	12670.4
845.3732	906.5052	13542.95	12667.3
845.5183	908.5358	13485.65	12612
845.6635	910.5658	13478.3	12602.85
845.8086	912.595	13423.65	12551.85
845.9538	914.6236	13398.35	12522.85
846.0989	916.6515	13359.5	12484.4
846.2441	918.6786	13312.95	12439.6
846.3892	920.7051	13329.65	12455.15
846.5344	922.7309	13316.7	12440.35
846.6795	924.756	13274.4	12398.2
846.8246	926.7804	13278.8	12403.35
846.9698	928.8041	13131.95	12252.15
847.1149	930.8272	13187.8	12314.25
847.2601	932.8495	13115.7	12237.05
847.4052	934.8711	13097.5	12222.95
847.5504	936.892	13071.35	12195.75
847.6955	938.9123	13052.05	12172.1
847.8407	940.9318	13037.55	12157.35
847.9858	942.9506	12997.85	12120.8
848.131	944.9688	12969.8	12096.05
848.2761	946.9862	12888.45	12012.05
848.4213	949.003	12848.45	11971.5
848.5664	951.019	12835.95	11958.45
848.7115	953.0344	12785.2	11905.9
848.8567	955.0491	12750.9	11875.25
849.0018	957.063	12722.55	11843.45
849.147	959.0763	12784.65	11908.25
849.2921	961.0888	12691.5	11812.85
849.4373	963.1007	12703.1	11825.7
849.5824	965.1119	12705.15	11830.6
849.7275	967.1223	12658.65	11784.05
849.8727	969.1321	12633.2	11758.8
850.0178	971.1412	12642.5	11768.05
850.1629	973.1495	12546.9	11670.55
850.3081	975.1572	12592.1	11669.1
850.4532	977.1641	12545.45	11669.4
850.5983	979.1704	12535.2	11656.6
850.7435	981.1759	12498.65	11618.2
850.8886	983.1808	12495.95	11615.4
851.0337	985.1849	12463.1	11574.75
851.1788	987.1884	12430.25	11548.8
851.324	989.1911	12404	11523.4
851.4691	991.1932	12366.8	11488.8
851.6142	993.1945	12332.9	11454.95
851.7593	995.1951	12276.15	11395.35
851.9045	997.1951	12268.25	11380.05
852.0496	999.1943	12220.1	11342.75
852.1947	1001.1928	12177.3	11299.05
852.3398	1003.1906	12124.05	11245.75
852.4849	1005.1877	12123.65	11242.85
852.63	1007.1841	12082.6	11203.15
852.7751	1009.1798	12042.05	11163.4
852.9202	1011.1748	11993.9	11116.05
853.0653	1013.1691	11958.85	11078.75
853.2104	1015.1627	11894.8	11014.15
853.3555	1017.1556	11826.9	10947.8
853.5006	1019.1477	11817.1	10938.5
853.6457	1021.1392	11735.35	10858.25
853.7908	1023.1299	11690.5	10814.2
853.9359	1025.12	11668.5	10792.1
854.081	1027.1093	11613.65	10737.4
854.2261	1029.0979	11594.75	10719.6
854.3712	1031.0859	11554.45	10677.45
854.5163	1033.0731	11541.05	10662.3
854.6613	1035.0596	11516.2	10638.6
854.8064	1037.0454	11431.05	10552.15
854.9515	1039.0304	11400.3	10519.85
855.0965	1041.0148	11352.1	10473.8
855.2416	1042.9985	11278.6	10398.3
855.3867	1044.9814	11292.25	10413.55
855.5317	1046.9636	11240.95	10360
855.6768	1048.9452	11195.65	10315.3
855.8219	1050.926	11200.55	10320.45
855.9669	1052.9061	11166.3	10288
856.112	1054.8855	11156.15	10273.65
856.257	1056.8642	11135.75	10255.95
856.4021	1058.8421	11115.95	10230.75
856.5471	1060.8194	11108.65	10225.65
856.6921	1062.7959	11062.5	10183.2
856.8372	1064.7717	11065.15	10181.3
856.9822	1066.7469	11041.5	10159.25
857.1272	1068.7213	11015.45	10133.7
857.2723	1070.695	11000.55	10119.65
857.4173	1072.6679	10925.15	10043.9
857.5623	1074.6402	10954.1	10071.2
857.7073	1076.6117	10964.5	10075.9
857.8523	1078.5826	10937.15	10055.95
857.9973	1080.5527	10895.8	10009.8
858.1423	1082.5221	10852.35	9971.4
858.2873	1084.4908	10825.9	9943.45
858.4323	1086.4587	10786.5	9904.6
858.5773	1088.426	10752.1	9869.55
858.7223	1090.3925	10726.9	9841.4
858.8673	1092.3584	10700.95	9818.8
859.0123	1094.3235	10658.5	9777.75
859.1573	1096.2879	10657.45	9775.75
859.3022	1098.2515	10661.25	9780.1
859.4472	1100.2145	10677.8	9795.85
859.5922	1102.1767	10641.45	9759.95
859.7371	1104.1382	10653.2	9768.65
859.8821	1106.099	10629.9	9745.4
860.027	1108.0591	10632.1	9751.3
860.172	1110.0185	10628.8	9745.85
860.3169	1111.9771	10627.35	9745.1
860.4619	1113.9351	10605.6	9722.8
860.6068	1115.8923	10602.05	9717.6
860.7517	1117.8488	10582.2	9699.35
860.8967	1119.8045	10515.45	9634.3
861.0416	1121.7596	10468.15	9583.15
861.1865	1123.7139	10388.1	9505.85
861.3314	1125.6675	10311.45	9429.45
861.4763	1127.6204	10341.5	9459.8
861.6212	1129.5726	10326	9441.25
861.7661	1131.524	10324.4	9442.65
861.911	1133.4748	10273.8	9391.2
862.0559	1135.4248	10215.15	9331.75
862.2008	1137.3741	10168.25	9285.35
862.3457	1139.3226	10114.9	9229.75
862.4905	1141.2705	10150.95	9265.95
862.6354	1143.2176	10120	9232.4
862.7803	1145.164	10085.1	9200.6
862.9251	1147.1097	10068.25	9183.55
863.07	1149.0546	10047.6	9162.7
863.2148	1150.9989	10012.15	9126.85
863.3597	1152.9424	10012.9	9128.15
863.5045	1154.8852	9989.25	9106.95
863.6493	1156.8272	9969.85	9088.7
863.7942	1158.7686	9970.55	9080.5
863.939	1160.7092	9936.55	9052.5
864.0838	1162.6491	9892.45	9007.65
864.2286	1164.5883	9906.2	9021.7
864.3734	1166.5267	9893.8	9008.8
864.5182	1168.4644	9895.05	9010.05
864.663	1170.4014	9895.4	9006.75
864.8078	1172.3377	9916	9032.4
864.9526	1174.2732	9900.45	9016.7
865.0974	1176.2081	9935.75	9050.95
865.2421	1178.1421	9973.95	9085.15
865.3869	1180.0755	10019.35	9134.8
865.5317	1182.0082	10025.35	9143.2
865.6764	1183.9401	9996.15	9111
865.8212	1185.8713	9916.45	9033.4
865.9659	1187.8017	9851.6	8969.25
866.1106	1189.7315	9783.25	8901.75
866.2554	1191.6605	9677.95	8798
866.4001	1193.5888	9627.65	8745.15
866.5448	1195.5163	9598.7	8715.1
866.6895	1197.4432	9551.6	8666.95
866.8342	1199.3693	9528.5	8644.6
866.9789	1201.2947	9471.4	8581.55
867.1236	1203.2193	9438.9	8553.95
867.2683	1205.1432	9424.5	8538.2
867.413	1207.0664	9399.3	8516.45
867.5576	1208.9889	9358.95	8471.4
867.7023	1210.9106	9342.85	8458.15
867.847	1212.8316	9303.7	8420.7
867.9916	1214.7519	9289.5	8394
868.1363	1216.6715	9280.65	8395.4
868.2809	1218.5903	9274.15	8389
868.4255	1220.5084	9256.85	8372.95
868.5701	1222.4257	9244.3	8357.65
868.7148	1224.3424	9214.65	8329.15
868.8594	1226.2583	9180.5	8290.35
869.004	1228.1735	9196.8	8310.45
869.1486	1230.0879	9182.1	8295.4
869.2932	1232.0016	9175.05	8289.3
869.4377	1233.9146	9174.8	8287.9
869.5823	1235.8269	9179.2	8293.4
869.7269	1237.7384	9164.9	8276.8
869.8715	1239.6492	9133.2	8247.8
870.016	1241.5592	9127.75	8240.75
870.1606	1243.4686	9099.9	8214
870.3051	1245.3772	9136.05	8251.75
870.4496	1247.285	9160.15	8274.65
870.5941	1249.1922	9159.25	8273.85
870.7387	1251.0986	9222.45	8337.3
870.8832	1253.0042	9204.85	8319.9
871.0277	1254.9092	9251	8365.2
871.1722	1256.8134	9275.95	8391.9
871.3167	1258.7169	9303.6	8417.8
871.4611	1260.6196	9307.4	8422.55
871.6056	1262.5216	9309.75	8423
871.7501	1264.4229	9272.9	8389.45
871.8945	1266.3234	9243.9	8357.05
872.039	1268.2232	9227.95	8342.35
872.1834	1270.1223	9166.3	8280.3
872.3278	1272.0207	9121.2	8234.9
872.4723	1273.9183	9122.8	8230.95
872.6167	1275.8151	9103.7	8216.6
872.7611	1277.7113	9115.95	8230.7
872.9055	1279.6067	9132.55	8246.1
873.0499	1281.5014	9189.2	8303.05
873.1943	1283.3953	9261.15	8374
873.3386	1285.2885	9338.7	8454.9
873.483	1287.181	9416.7	8528.45
873.6274	1289.0727	9456.6	8572.3
873.7717	1290.9637	9418.8	8531.2
873.9161	1292.854	9379.2	8493.9
874.0604	1294.7435	9276.2	8390.05
874.2047	1296.6323	9238.6	8352.65
874.349	1298.5204	9173.4	8282.35
874.4933	1300.4077	9119.95	8232.85
874.6376	1302.2943	9100	8212.25
874.7819	1304.1802	9054.95	8171.1
874.9262	1306.0653	9002.05	8115.05
875.0705	1307.9497	8987.55	8101.95
875.2147	1309.8333	8981.05	8097.2
875.359	1311.7162	8941.45	8055.7
875.5032	1313.5984	8943.95	8056.05
875.6475	1315.4798	8888.2	7992.15
875.7917	1317.3605	8882.3	7978.7
875.9359	1319.2405	8857.55	7969.3
876.0801	1321.1197	8837.2	7948.8
876.2243	1322.9982	8775.85	7884.5
876.3685	1324.876	8747.5	7864.2
876.5127	1326.753	8682.95	7796.9
876.6569	1328.6293	8641.5	7753.95
876.801	1330.5048	8608.85	7720.5
876.9452	1332.3796	8530.6	7643.55
877.0893	1334.2537	8524.75	7613.5
877.2335	1336.127	8457.2	7572.45
877.3776	1337.9996	8452.9	7565.75
877.5217	1339.8714	8405.4	7517.95
877.6658	1341.7426	8400.95	7471.95
877.8099	1343.6129	8368	7482
877.954	1345.4826	8340.85	7451.7
878.0981	1347.3515	8323.85	7436.15
878.2422	1349.2196	8287.05	7398.1
878.3862	1351.087	8296.85	7408.9
878.5303	1352.9537	8294.55	7404.45
878.6743	1354.8197	8286.9	7398
878.8184	1356.6849	8282.25	7395.35
878.9624	1358.5493	8281.05	7394
879.1064	1360.4131	8258.85	7372.15
879.2504	1362.276	8269.15	7384
879.3944	1364.1383	8267.65	7379.3
879.5384	1365.9998	8253	7360
879.6823	1367.8606	8225.6	7334.05
879.8263	1369.7206	8207.55	7319.95
879.9702	1371.5799	8186.9	7298.4
880.1142	1373.4384	8161.85	7276.2
880.2581	1375.2962	8143.1	7254.05
880.402	1377.1533	8077.95	7191.5
880.5459	1379.0096	8010.7	7123.55
880.6898	1380.8652	7995.6	7108.6
880.8337	1382.7201	7933	7046.85
880.9776	1384.5742	7912.7	7026.15
881.1215	1386.4275	7879.15	6991.3
881.2653	1388.2802	7853.4	6966.4
881.4092	1390.132	7827.1	6942.65
881.553	1391.9832	7798.4	6906.6
881.6968	1393.8336	7748.7	6862.7
881.8406	1395.6832	7736.8	6849.45
881.9844	1397.5322	7707.35	6820.6
882.1282	1399.3803	7683.6	6792.5
882.272	1401.2278	7634.1	6745.65
882.4158	1403.0745	7617.6	6730.2
882.5595	1404.9204	7596.3	6710.45
882.7033	1406.7656	7603.45	6716.7
882.847	1408.6101	7563.9	6678.5
882.9908	1410.4538	7524.5	6635.35
883.1345	1412.2968	7526.1	6639.95
883.2782	1414.139	7473.85	6586.4
883.4219	1415.9805	7467.5	6581.05
883.5656	1417.8213	7458.45	6564.1
883.7092	1419.6613	7411.6	6523.8
883.8529	1421.5006	7433.15	6543.65
883.9965	1423.3391	7421.35	6533.15
884.1402	1425.1769	7427.2	6537.5
884.2838	1427.0139	7468.25	6578.45
884.4274	1428.8502	7497.6	6609.75
884.571	1430.6858	7503.05	6615.85
884.7146	1432.5206	7503.05	6615.35
884.8582	1434.3547	7482.75	6594.85
885.0018	1436.188	7476.9	6588.4
885.1453	1438.0206	7466.65	6577.45
885.2889	1439.8524	7428.25	6539.4
885.4324	1441.6835	7414.9	6527.2
885.5759	1443.5139	7409.2	6518.75
885.7194	1445.3435	7388.3	6500.05
885.8629	1447.1724	7384.4	6497.2
886.0064	1449.0005	7362.9	6476.5
886.1499	1450.8279	7331.4	6441
886.2933	1452.6545	7335.65	6447.75
886.4368	1454.4804	7331.65	6445.25
886.5802	1456.3056	7328.4	6435.85
886.7237	1458.13	7290.4	6405.8
886.8671	1459.9536	7266.4	6378.45
887.0105	1461.7766	7227.6	6339.25
887.1539	1463.5987	7194.6	6305.8
887.2972	1465.4202	7171.85	6284.55
887.4406	1467.2409	7120.4	6231.95
887.584	1469.0608	7105.95	6220.85
887.7273	1470.88	7077.35	6188.95
887.8706	1472.6984	7057.7	6173.35
888.0139	1474.5161	7036.85	6148.2
888.1572	1476.3331	6996.5	6110.4
888.3005	1478.1493	6989.4	6100.4
888.4438	1479.9648	6946.35	6058.4
888.5871	1481.7795	6950.7	6062.9
888.7303	1483.5935	6931.5	6045.6
888.8736	1485.4067	6914.25	6027.7
889.0168	1487.2192	6925.15	6037.5
889.16	1489.031	6912.4	6023.55
889.3032	1490.842	6884.2	5996.15
889.4464	1492.6522	6883.25	5997.45
889.5896	1494.4618	6856.65	5967.75
889.7327	1496.2705	6854.4	5968.3
889.8759	1498.0785	6834.05	5946.65
890.019	1499.8858	6821.9	5934.35
890.1622	1501.6924	6763.75	5878.1
890.3053	1503.4981	6756.6	5869.4
890.4484	1505.3032	6761.4	5874.65
890.5914	1507.1075	6734.4	5846.4
890.7345	1508.911	6731.85	5845.5
890.8776	1510.7138	6708.7	5820.05
891.0206	1512.5159	6655.55	5767.8
891.1637	1514.3172	6667.2	5777.8
891.3067	1516.1178	6626.35	5739.25
891.4497	1517.9176	6624.05	5734.4
891.5927	1519.7166	6583.8	5696.8
891.7357	1521.515	6573.65	5680.4
891.8786	1523.3126	6543.95	5654.65
892.0216	1525.1094	6536.25	5647.85
892.1645	1526.9055	6505.25	5617.9
892.3074	1528.7008	6498.15	5612.1
892.4503	1530.4954	6453.35	5565.15
892.5932	1532.2893	6453.8	5567.9
892.7361	1534.0824	6398.05	5507.35
892.879	1535.8747	6391.1	5504.15
893.0218	1537.6663	6359.05	5473.45
893.1647	1539.4572	6338.1	5451.75
893.3075	1541.2473	6314.3	5430.05
893.4503	1543.0367	6304.45	5419.75
893.5931	1544.8253	6279.95	5387.95
893.7359	1546.6132	6277.1	5388.8
893.8787	1548.4003	6237.55	5342.1
894.0214	1550.1867	6247.85	5351.65
894.1642	1551.9723	6245.15	5351.9
894.3069	1553.7572	6227.35	5340.5
894.4496	1555.5414	6213.8	5327.75
894.5923	1557.3247	6203.8	5318.1
894.735	1559.1074	6212.55	5329.4
894.8777	1560.8893	6193.3	5308.05
895.0204	1562.6705	6195.1	5310.9
895.163	1564.4509	6185.25	5300.1
895.3056	1566.2305	6178.65	5296.15
895.4482	1568.0094	6182.65	5297.7
895.5908	1569.7876	6163.6	5278.75
895.7334	1571.565	6130.8	5245.25
895.876	1573.3417	6130.65	5246.05
896.0186	1575.1176	6114.55	5230.55
896.1611	1576.8928	6076.4	5193.3
896.3036	1578.6672	6072.5	5190.3
896.4461	1580.4409	6088.2	5207
896.5886	1582.2138	6085.55	5199.15
896.7311	1583.986	6075.1	5190.9
896.8736	1585.7575	6092.1	5207.95
897.0161	1587.5282	6077.85	5194.5
897.1585	1589.2981	6075.95	5193.05
897.3009	1591.0673	6072.6	5188.35
897.4433	1592.8358	6070.85	5191.2
897.5857	1594.6035	6060.05	5174.15
897.7281	1596.3704	6017	5133.35
897.8705	1598.1366	5980.65	5096.45
898.0128	1599.9021	5971.6	5088.7
898.1551	1601.6668	5919.8	5033.35
898.2975	1603.4308	5896.05	5011.35
898.4398	1605.194	5886.8	4997.15
898.5821	1606.9564	5885.9	5003.8
898.7243	1608.7182	5887.9	5002.1
898.8666	1610.4791	5933.05	5052.3
899.0088	1612.2394	5960.8	5079
899.1511	1613.9988	5991.4	5108.85
899.2933	1615.7576	6017.4	5133.45
899.4355	1617.5156	6037.65	5147.35
899.5776	1619.2728	5997.55	5115.75
899.7198	1621.0293	5964.45	5081.55
899.862	1622.785	5860.95	4975.3
900.0041	1624.54	5755.25	4869.75
900.1462	1626.2942	5705.05	4820.55
900.2883	1628.0477	5591.05	4703.55
900.4304	1629.8005	5570.85	4683.8
900.5725	1631.5525	5496.25	4613
900.7145	1633.3037	5444.45	4560.7
900.8566	1635.0542	5400	4518
900.9986	1636.804	5383.8	4499.85
901.1406	1638.553	5421.75	4447.95
901.2826	1640.3013	5312.95	4430.45
901.4245	1642.0488	5275.8	4392.65
901.5665	1643.7955	5243.6	4361.6
901.7085	1645.5416	5235.8	4352.45
901.8504	1647.2868	5226.2	4344.25
901.9923	1649.0313	5189.7	4305.55
902.1342	1650.7751	5182.2	4294.7
902.2761	1652.5181	5166.45	4282.55
902.4179	1654.2604	5139.8	4257.15
902.5598	1656.0019	5137.25	4255.8
902.7016	1657.7427	5123	4241.2
902.8434	1659.4828	5131.5	4247.95
902.9852	1661.222	5125.75	4243.5
903.127	1662.9606	5115.55	4233.55
903.2687	1664.6984	5136.3	4250.05
903.4105	1666.4354	5129.3	4244.8
903.5522	1668.1717	5080.85	4196.3
903.6939	1669.9072	5049.9	4168.1
903.8356	1671.642	5010.2	4122.85
903.9773	1673.3761	4969.5	4085.8
904.119	1675.1094	4940.15	4056.9
904.2606	1676.8419	4894.65	4010.25
904.4022	1678.5737	4880.1	3995.65
904.5439	1680.3048	4864.4	3979.6
904.6855	1682.0351	4822.5	3937.2
904.827	1683.7646	4807.55	3921.8
904.9686	1685.4934	4801.7	3918.25
905.1101	1687.2215	4772.15	3888.1
905.2517	1688.9488	4743.5	3860.15
905.3932	1690.6754	4708.1	3824.15
905.5347	1692.4012	4701.05	3817.65
905.6761	1694.1263	4676.25	3794.05
905.8176	1695.8506	4657.3	3773.2
905.9591	1697.5742	4658.35	3776.05
906.1005	1699.297	4618.75	3737.05
906.2419	1701.0191	4628.8	3748
906.3833	1702.7404	4609.45	3727.15
906.5246	1704.461	4579.6	3696.1
906.666	1706.1808	4558.65	3675.2
906.8073	1707.8999	4540.25	3657.85
906.9487	1709.6182	4532.65	3650.45
907.09	1711.3358	4531.2	3650.95
907.2313	1713.0527	4504.25	3624.1
907.3725	1714.7688	4499.4	3611.5
907.5138	1716.4841	4478.1	3593.2
907.655	1718.1987	4479.9	3591.85
907.7962	1719.9126	4451.15	3569.45
907.9374	1721.6257	4446.8	3562.25
908.0786	1723.338	4434.85	3553.5
908.2198	1725.0496	4425.9	3542.2
908.3609	1726.7605	4392.95	3509.15
908.502	1728.4706	4409.7	3527.4
908.6431	1730.18	4378.5	3494.25
908.7842	1731.8886	4389.6	3508.65
908.9253	1733.5964	4389.35	3501.5
909.0664	1735.3036	4389.5	3505.45
909.2074	1737.0099	4376.7	3494.65
909.3484	1738.7156	4362.55	3479.75
909.4894	1740.4204	4340.2	3453.1
909.6304	1742.1246	4358.5	3474.65
909.7714	1743.8279	4341.05	3459.05
909.9123	1745.5306	4344.75	3462.55
910.0532	1747.2325	4329.35	3447.65
910.1941	1748.9336	4332.05	3447.9
910.335	1750.634	4309.55	3424.7
910.4759	1752.3336	4309.8	3425.6
910.6168	1754.0325	4297.4	3418.6
910.7576	1755.7307	4298.8	3416.85
910.8984	1757.4281	4282.7	3400.45
911.0392	1759.1247	4307.65	3418.3
911.18	1760.8206	4295.3	3406.55
911.3208	1762.5158	4278.5	3391.35
911.4615	1764.2102	4272	3388.5
911.6022	1765.9039	4261.45	3378.85
911.7429	1767.5968	4251.1	3369.45
911.8836	1769.289	4234.35	3351.25
912.0243	1770.9804	4238.05	3355.5
912.1649	1772.6711	4231.1	3349.6
912.3056	1774.361	4216.8	3332.1
912.4462	1776.0502	4206.25	3322.65
912.5868	1777.7386	4181.55	3297.25
912.7274	1779.4263	4188.5	3306.25
912.8679	1781.1132	4186.75	3306.1
913.0084	1782.7994	4165.15	3283.85
913.149	1784.4849	4152.2	3270.35
913.2895	1786.1696	4168.45	3268.3
913.4299	1787.8535	4152.6	3272.1
913.5704	1789.5367	4134.65	3254.3
913.7108	1791.2192	4130.2	3245.55
913.8513	1792.9009	4135.75	3224.95
913.9917	1794.5818	4122.2	3239.75
914.132	1796.2621	4109.75	3229.3
914.2724	1797.9415	4087.9	3203.7
914.4128	1799.6202	4081.35	3200.1
914.5531	1801.2982	4076.75	3193.3
914.6934	1802.9755	4076	3194.15
914.8337	1804.6519	4062.25	3179.6
914.9739	1806.3277	4047.7	3166.15
915.1142	1808.0027	4024.2	3143.95
915.2544	1809.6769	4028.7	3144.65
915.3946	1811.3504	4016.05	3132
915.5348	1813.0231	4014.7	3131.95
915.675	1814.6951	4011.5	3130.65
915.8151	1816.3664	4015.15	3127.6
915.9553	1818.0369	4001.35	3120.45
916.0954	1819.7067	3990.05	3107.2
916.2355	1821.3757	3984.65	3102.35
916.3755	1823.044	3970.95	3088.75
916.5156	1824.7115	3974.45	3092.8
916.6556	1826.3783	3947.9	3067.25
916.7956	1828.0443	3932.05	3048.75
916.9356	1829.7096	3944.55	3060.8
917.0756	1831.3741	3934.65	3048.6
917.2155	1833.0379	3949.45	3066.7
917.3555	1834.701	3907.6	3023.95
917.4954	1836.3633	3918	3034.7
917.6353	1838.0248	3911.65	3028.65
917.7751	1839.6856	3901.95	3021.15
917.915	1841.3457	3872.65	2990.6
918.0548	1843.005	3875.8	2994.65
918.1946	1844.6636	3878	2997.15
918.3344	1846.3214	3875.75	2992.1
918.4742	1847.9785	3861.1	2981.05
918.6139	1849.6349	3852.1	2968.4
918.7537	1851.2904	3858.95	2968.15
918.8934	1852.9453	3830.75	2945.9
919.0331	1854.5994	3831.25	2945.1
919.1727	1856.2528	3825.45	2935.85
919.3124	1857.9054	3825.8	2943.6
919.452	1859.5572	3812.25	2930
919.5916	1861.2083	3805.2	2923
919.7312	1862.8587	3809.85	2926.45
919.8708	1864.5084	3805.05	2921.9
920.0103	1866.1572	3788.4	2905.9
920.1498	1867.8054	3764.35	2881.45
920.2893	1869.4528	3775.7	2893.45
920.4288	1871.0994	3765.55	2883.95
920.5683	1872.7453	3767.4	2883.4
920.7077	1874.3905	3764.55	2874.75
920.8471	1876.0349	3740.1	2855.75
920.9865	1877.6786	3747.4	2865.95
921.1259	1879.3215	3727.05	2844.15
921.2653	1880.9637	3723.35	2839.05
921.4046	1882.6051	3722.2	2841.85
921.5439	1884.2458	3714.9	2830.25
921.6832	1885.8858	3706.15	2822.65
921.8225	1887.525	3701.55	2817.55
921.9617	1889.1634	3675.6	2793.7
922.101	1890.8011	3687	2802.35
922.2402	1892.4381	3681.65	2798.65
922.3794	1894.0743	3673.3	2790.8
922.5185	1895.7098	3678.95	2797.65
922.6577	1897.3446	3653.7	2769.35
922.7968	1898.9786	3652.65	2767.85
922.9359	1900.6118	3654.9	2771.95
923.075	1902.2443	3634.45	2748.6
923.214	1903.8761	3632.35	2751.5
923.3531	1905.5071	3616.75	2733.35
923.4921	1907.1374	3597.55	2717.45
923.6311	1908.7669	3590.1	2707.55
923.77	1910.3957	3586.65	2703.8
923.909	1912.0237	3587.35	2705.85
924.0479	1913.651	3586.65	2703.2
924.1868	1915.2776	3571.55	2690.3
924.3257	1916.9034	3552.65	2672
924.4646	1918.5285	3538.95	2656.45
924.6034	1920.1528	3527.3	2645.65
924.7422	1921.7764	3521.6	2639.05
924.881	1923.3992	3542.55	2660.7
925.0198	1925.0213	3504.7	2620.6
925.1586	1926.6427	3487.6	2605.35
925.2973	1928.2633	3685.5	2582.6
925.436	1929.8832	3514.9	2630.75
925.5747	1931.5023	3467	2584.3
925.7134	1933.1207	3452.5	2570.45
925.852	1934.7383	3463.85	2581.65
925.9906	1936.3552	3459.9	2578.15
926.1292	1937.9714	3460.2	2577.45
926.2678	1939.5868	3446.25	2560.75
926.4064	1941.2015	3428.85	2545
926.5449	1942.8154	3418.2	2535.35
926.6834	1944.4286	3411.1	2528.4
926.8219	1946.041	3416.35	2511.7
926.9604	1947.6528	3390.6	2503.25
927.0988	1949.2637	3393.25	2511.75
927.2372	1950.8739	3370.6	2488.7
927.3756	1952.4834	3375.7	2493.55
927.514	1954.0921	3376.05	2492.45
927.6523	1955.7001	3359.8	2472.7
927.7907	1957.3074	3353.1	2474.05
927.929	1958.9139	3335.15	2455.65
928.0673	1960.5197	3344.4	2459.55
928.2055	1962.1247	3320.1	2438
928.3438	1963.729	3321.15	2441.8
928.482	1965.3325	3343.7	2438.3
928.6202	1966.9353	3303.75	2422.55
928.7584	1968.5374	3306.05	2423.3
928.8965	1970.1387	3297.2	2416
929.0346	1971.7393	3281.9	2398.55
929.1727	1973.3392	3285.3	2403.85
929.3108	1974.9383	3283.05	2402.75
929.4489	1976.5366	3265.5	2383.8
929.5869	1978.1342	3247.35	2362.9
929.7249	1979.7311	3261.05	2379.45
929.8629	1981.3273	3239.7	2358.5
930.0009	1982.9227	3251.4	2367.65
930.1388	1984.5173	3244.6	2365.2
930.2767	1986.1112	3235.85	2356.5
930.4146	1987.7044	3228.15	2350.45
930.5525	1989.2968	3215.55	2333.25
930.6904	1990.8885	3217.6	2334.1
930.8282	1992.4795	3218.3	2336.85
930.966	1994.0697	3201.25	2319.25
931.1038	1995.6592	3208.15	2326.85
931.2415	1997.2479	3187	2306.7
931.3793	1998.8359	3183.3	2302.6
931.517	2000.4232	3182.9	2304.5
931.6547	2002.0097	3176.75	2299.4
931.7923	2003.5955	3159.5	2279.65
931.93	2005.1805	3168.2	2287.5
932.0676	2006.7648	3167.65	2286.65
932.2052	2008.3484	3150.95	2269.7
932.3427	2009.9312	3147.1	2265.4
932.4803	2011.5133	3141.7	2265.85
932.6178	2013.0946	3136.85	2258.2
932.7553	2014.6752	3129.5	2251.45
932.8928	2016.2551	3131.8	2251.25
933.0302	2017.8342	3123.5	2240.9
933.1676	2019.4126	3113.75	2236.4
933.305	2020.9902	3090.25	2210.1
933.4424	2022.5672	3115.6	2236.75
933.5798	2024.1433	3121.2	2237.65
933.7171	2025.7188	3100.15	2223.4
933.8544	2027.2935	3083.9	2203.85
933.9917	2028.8674	3074.9	2195.15
934.129	2030.4406	3086.2	2207.3
934.2662	2032.0131	3067.65	2189.2
934.4034	2033.5849	3079.1	2193.95
934.5406	2035.1559	3074.35	2195.4
934.6778	2036.7261	3078.1	2197.4
934.8149	2038.2957	3062.8	2181.95
934.952	2039.8645	3053.2	2172.9
935.0891	2041.4325	3063.8	2181.4
935.2262	2042.9998	3058.25	2180.15
935.3632	2044.5664	3053.95	2171.1
935.5002	2046.1323	3048.45	2169.3
935.6372	2047.6974	3028.05	2150.9
935.7742	2049.2617	3035.15	2155.95
935.9111	2050.8254	3044.3	2160.1
936.048	2052.3883	3048.05	2166.8
936.1849	2053.9504	3021.4	2144.55
936.3218	2055.5118	3031.75	2151.65
936.4586	2057.0725	3015.5	2131.35
936.5955	2058.6325	3014.05	2137.25
936.7323	2060.1917	3009.4	2131.1
936.869	2061.7502	3003.65	2122.6
937.0058	2063.3079	3003.85	2125.15
937.1425	2064.8649	2996.7	2111.5
937.2792	2066.4212	2991.95	2112.85
937.4159	2067.9767	2985.05	2106.2
937.5525	2069.5315	2984.75	2103.8
937.6891	2071.0856	2977.15	2097.6
937.8257	2072.6389	2968.8	2089.9
937.9623	2074.1915	2958.7	2079.7
938.0989	2075.7433	2952.3	2071.05
938.2354	2077.2945	2956.85	2077.35
938.3719	2078.8448	2951	2069.75
938.5084	2080.3945	2935.45	2054.4
938.6448	2081.9434	2944.5	2064.7
938.7812	2083.4916	2943.2	2063.45
938.9176	2085.039	2942	2060.05
939.054	2086.5857	2942.2	2060.35
939.1903	2088.1317	2927.2	2048.8
939.3267	2089.677	2927.25	2044.8
939.463	2091.2215	2919.85	2039.8
939.5992	2092.7652	2924.1	2042.9
939.7355	2094.3083	2921.8	2039.35
939.8717	2095.8506	2912.05	2032.05
940.0079	2097.3921	2915.2	2035.7
940.1441	2098.933	2920.45	2039.6
940.2802	2100.4731	2918.65	2038.1
940.4163	2102.0124	2915.3	2017.8
940.5524	2103.5511	2916.15	2037.1
940.6885	2105.089	2899.1	2018.55
940.8245	2106.6261	2883.1	2003.9
940.9606	2108.1626	2892.55	2011.75
941.0965	2109.6983	2907.2	1998.75
941.2325	2111.2332	2882.25	2001.1
941.3684	2112.7675	2880.65	1998.1
941.5044	2114.301	2884.9	2002.7
941.6403	2115.8337	2872.9	1990.55
941.7761	2117.3657	2873.15	1991.65
941.912	2118.897	2872.45	1992.6
942.0478	2120.4276	2874.6	1987.6
942.1835	2121.9575	2862.1	1980.5
942.3193	2123.4866	2859.15	1977.8
942.455	2125.0149	2862.85	1978.8
942.5907	2126.5426	2826.9	1945.75
942.7264	2128.0695	2846.9	1963.5
942.8621	2129.5956	2842.3	1964.45
942.9977	2131.1211	2850.8	1966.15
943.1333	2132.6458	2823.95	1943.75
943.2689	2134.1698	2822.2	1940.35
943.4044	2135.693	2834.7	1953.95
943.54	2137.2155	2823.6	1941.9
943.6755	2138.7373	2818.45	1937.6
943.8109	2140.2584	2817.8	1938.45
943.9464	2141.7787	2806.65	1920.9
944.0818	2143.2983	2794.6	1914.75
944.2172	2144.8171	2789.45	1910.7
944.3526	2146.3353	2786	1903.15
944.4879	2147.8527	2789.1	1910.6
944.6232	2149.3693	2792.35	1912.65
944.7585	2150.8853	2773.65	1892.75
944.8938	2152.4005	2765.6	1885.9
945.029	2153.9149	2771.15	1891.55
945.1642	2155.4287	2759.4	1879.1
945.2994	2156.9417	2752.85	1871.1
945.4346	2158.454	2762.95	1881.1
945.5697	2159.9655	2753.8	1874.45
945.7048	2161.4764	2753.85	1874.55
945.8399	2162.9865	2736.4	1857.55
945.9749	2164.4958	2743	1862.2
946.1099	2166.0045	2736.15	1853.9
946.2449	2167.5124	2721.5	1843.75
946.3799	2169.0195	2718.35	1838.75
946.5148	2170.526	2727.7	1848.3
946.6498	2172.0317	2723.35	1841.5
946.7846	2173.5367	2710.75	1827.6
946.9195	2175.0409	2708.4	1829.6
947.0543	2176.5445	2716.05	1837.5
947.1891	2178.0473	2706.25	1823.6
947.3239	2179.5494	2698.05	1815.9
947.4587	2181.0507	2694.95	1814.45
947.5934	2182.5513	2684.1	1805.6
947.7281	2184.0512	2686.95	1805.25
947.8628	2185.5504	2677.65	1797
947.9974	2187.0488	2675.1	1795.2
948.132	2188.5465	2668.8	1788.7
948.2666	2190.0435	2657.1	1776.35
948.4012	2191.5397	2648.85	1771.3
948.5357	2193.0353	2653.1	1773.85
948.6702	2194.5301	2650.7	1769.8
948.8047	2196.0241	2641.95	1760.4
948.9392	2197.5175	2636.05	1754.7
949.0736	2199.0101	2639.7	1754.75
949.208	2200.502	2622.55	1745
949.3424	2201.9931	2616.3	1735.65
949.4767	2203.4835	2603.4	1722.7
949.611	2204.9733	2616.75	1730.85
949.7453	2206.4622	2611.4	1732.85
949.8796	2207.9505	2608.05	1725.95
950.0138	2209.438	2593	1713.1
950.148	2210.9248	2589.25	1708.65
950.2822	2212.4109	2570.7	1689.5
950.4164	2213.8962	2563.5	1679.1
950.5505	2215.3809	2569.25	1687.35
950.6846	2216.8648	2571.45	1691.3
950.8186	2218.3479	2574.45	1688
950.9527	2219.8304	2557.25	1673.35
951.0867	2221.3121	2540.2	1656.05
951.2207	2222.7931	2540.95	1661.25
951.3546	2224.2733	2531.75	1649.2
951.4886	2225.7529	2527.75	1646.05
951.6225	2227.2317	2538.6	1657.1
951.7563	2228.7098	2523.95	1643.25
951.8902	2230.1872	2522.95	1644.1
952.024	2231.6638	2512.6	1633.6
952.1578	2233.1397	2514.4	1628.9
952.2916	2234.6149	2507.3	1627.55
952.4253	2236.0894	2499.7	1619.45
952.559	2237.5632	2503.5	1613.6
952.6927	2239.0362	2494.3	1614.1
952.8263	2240.5085	2484.55	1604.85
952.9599	2241.9801	2484.5	1605.35
953.0935	2243.4509	2478.55	1598.75
953.2271	2244.921	2471.9	1591.15
953.3606	2246.3904	2470.5	1587.45
953.4941	2247.8591	2468.95	1589.4
953.6276	2249.3271	2460.7	1580.55
953.7611	2250.7943	2451	1568.1
953.8945	2252.2608	2447.05	1566.1
954.0279	2253.7266	2437.55	1557.2
954.1612	2255.1917	2430.15	1551.05
954.2946	2256.656	2446.85	1567.4
954.4279	2258.1197	2425.55	1546.3
954.5612	2259.5826	2421.45	1538
954.6944	2261.0447	2421.2	1539.3
954.8276	2262.5062	2403.6	1520.1
954.9608	2263.9669	2410.3	1526.35
955.094	2265.4269	2406.65	1528.6
955.2271	2266.8862	2400.3	1516
955.3602	2268.3448	2395.4	1515.65
955.4933	2269.8026	2398.55	1517.6
955.6264	2271.2598	2386.75	1507.7
955.7594	2272.7162	2386.95	1506.5
955.8924	2274.1719	2389.6	1507.7
956.0253	2275.6268	2375.95	1496.05
956.1583	2277.0811	2378.95	1498.95
956.2912	2278.5346	2372.35	1492.45
956.4241	2279.9874	2361.25	1481.7
956.5569	2281.4395	2372.8	1491.45
956.6897	2282.8908	2365.55	1479
956.8225	2284.3414	2345.4	1464.4
956.9553	2285.7914	2344.35	1464.9
957.088	2287.2406	2338.15	1454.9
957.2207	2288.689	2349.25	1469.05
957.3534	2290.1368	2329.45	1449.85
957.486	2291.5838	2338.5	1454.95
957.6186	2293.0302	2325.15	1443.45
957.7512	2294.4758	2318.15	1436.85
957.8838	2295.9206	2323.55	1440.95
958.0163	2297.3648	2305.8	1426.8
958.1488	2298.8082	2305.85	1423
958.2813	2300.251	2309	1428.05
958.4137	2301.693	2296.25	1412.75
958.5461	2303.1343	2302.35	1423
958.6785	2304.5748	2295.4	1417.35
958.8108	2306.0147	2280.8	1399.4
958.9432	2307.4538	2290.3	1409.05
959.0754	2308.8922	2277.55	1398.4
959.2077	2310.3299	2275.25	1396.3
959.3399	2311.7669	2271.35	1393
959.4721	2313.2031	2271.25	1389.65
959.6043	2314.6387	2262.85	1381.45
959.7365	2316.0735	2255.25	1374.1
959.8686	2317.5076	2257.4	1375.25
960.0006	2318.941	2248.7	1367.25
960.1327	2320.3737	2255.25	1374.35
960.2647	2321.8056	2249.7	1365.2
960.3967	2323.2369	2252.85	1372.5
960.5287	2324.6674	2245.3	1361.8
960.6606	2326.0972	2240.15	1358.2
960.7925	2327.5263	2234.7	1354.4
960.9244	2328.9547	2225.2	1344.65
961.0562	2330.3823	2236.6	1354.85
961.1881	2331.8092	2227.2	1342.25
961.3198	2333.2355	2212.15	1332.9
961.4516	2334.661	2206.1	1325.1
961.5833	2336.0858	2201.35	1318.75
961.715	2337.5098	2210.2	1327.4
961.8467	2338.9332	2199.05	1316.75
961.9783	2340.3558	2188.65	1305.3
962.1099	2341.7778	2182.9	1303.35
962.2415	2343.199	2189.7	1306.15
962.373	2344.6195	2177.45	1297.3
962.5045	2346.0393	2174.25	1293.3
962.636	2347.4583	2181.15	1300.35
962.7675	2348.8767	2164.7	1282.8
962.8989	2350.2943	2162	1282.9
963.0303	2351.7113	2161.05	1278.75
963.1617	2353.1275	2150.65	1269.9
963.293	2354.543	2165.1	1276.15
963.4243	2355.9578	2154.35	1274.7
963.5556	2357.3718	2135.45	1253.8
963.6868	2358.7852	2135.85	1252.7
963.818	2360.1978	2126.35	1244.6
963.9492	2361.6098	2126.25	1246.1
964.0803	2363.021	2126.8	1242.1
964.2114	2364.4315	2114	1232.05
964.3425	2365.8413	2107.1	1223.55
964.4736	2367.2504	2097.45	1216.55
964.6046	2368.6587	2100.8	1218.95
964.7356	2370.0664	2087.85	1207.7
964.8666	2371.4733	2092.15	1211.15
964.9975	2372.8795	2089.5	1208.55
965.1284	2374.285	2075.25	1192.85
965.2593	2375.6899	2066.95	1186.35
965.3901	2377.0939	2067	1186.85
965.5209	2378.4973	2060.6	1181.45
965.6517	2379.9	2057.1	1174.8
965.7825	2381.3019	2059	1178.2
965.9132	2382.7032	2048.15	1168.05
966.0439	2384.1037	2045.05	1164.15
966.1745	2385.5035	2045.85	1165.2
966.3051	2386.9027	2036.5	1156.65
966.4357	2388.3011	2038.3	1153.15
966.5663	2389.6987	2037.7	1156.5
966.6968	2391.0957	2026.85	1145.8
966.8273	2392.492	2014.8	1133.8
966.9578	2393.8876	2016.35	1136.45
967.0882	2395.2824	2008.3	1126.35
967.2186	2396.6765	2000.25	1119.6
967.349	2398.07	1998.6	1116.2
967.4793	2399.4627	1999.9	1116.05
967.6097	2400.8547	1990.6	1107.95
967.7399	2402.246	1992.35	1104.35
967.8702	2403.6366	1989.2	1106.75
968.0004	2405.0265	1964.4	1083
968.1306	2406.4156	1979.7	1095
968.2607	2407.8041	1969.45	1083.7
968.3909	2409.1918	1962.15	1078.1
968.521	2410.5789	1951.5	1069.15
968.651	2411.9652	1957.85	1071.5
968.781	2413.3508	1953.85	1072.9
968.911	2414.7358	1940.8	1058.55
969.041	2416.12	1928.8	1046.9
969.1709	2417.5035	1922.35	1041.3
969.3008	2418.8863	1927.9	1045.25
969.4307	2420.2684	1927.6	1046.75
969.5606	2421.6497	1921.75	1037.6
969.6904	2423.0304	1912.9	1031.9
969.8201	2424.4104	1914.55	1032.6
969.9499	2425.7896	1912.5	1029
970.0796	2427.1682	1910.7	1027.7
970.2093	2428.546	1913.95	1032.2
970.3389	2429.9232	1903.75	1020.5
970.4685	2431.2996	1900	1017.8
970.5981	2432.6753	1896.7	1015.55
970.7277	2434.0503	1888.1	1006.25
970.8572	2435.4246	1882.05	1000.1
970.9867	2436.7982	1896.6	1012
971.1161	2438.1711	1881.9	1000.95
971.2456	2439.5433	1873.1	990.8
971.375	2440.9148	1883.55	997.5
971.5043	2442.2856	1869.7	988.65
971.6336	2443.6557	1865.45	983.8
971.7629	2445.025	1852.35	970.75
971.8922	2446.3937	1855.85	972.05
972.0214	2447.7617	1859.9	974.6
972.1506	2449.1289	1861.05	978.95
972.2798	2450.4955	1858.4	973.55
972.4089	2451.8613	1849.8	970.25
972.538	2453.2265	1847	965.05
972.6671	2454.5909	1849.7	966.45
972.7961	2455.9546	1842.3	961.85
972.9251	2457.3177	1839.25	957.6
973.0541	2458.68	1831.65	948.55
973.1831	2460.0416	1834.45	954
973.312	2461.4025	1828.15	943.75
973.4408	2462.7627	1843.25	950.25
973.5697	2464.1222	1816.65	935.65
973.6985	2465.4811	1828.75	945.9
973.8273	2466.8392	1820.6	941.25
973.956	2468.1966	1821.7	938.7
974.0847	2469.5533	1819.65	936.05
974.2134	2470.9093	1808.3	925.45
974.3421	2472.2645	1806.55	921.2
974.4707	2473.6191	1813.95	932.4
974.5993	2474.973	1801.5	919.85
974.7278	2476.3262	1806.8	923.6
974.8563	2477.6787	1791.4	911.45
974.9848	2479.0305	1785.35	902.85
975.1132	2480.3816	1782.75	898.3
975.2417	2481.7319	1780.45	897.7
975.37	2483.0816	1770.7	889.35
975.4984	2484.4306	1776.6	896.2
975.6267	2485.7789	1777.55	897.75
975.755	2487.1264	1765.1	881.2
975.8833	2488.4733	1770.35	889.45
976.0115	2489.8195	1767.8	880.05
976.1397	2491.165	1762	874.4
976.2678	2492.5097	1754.9	870.8
976.3959	2493.8538	1746.55	867.85
976.524	2495.1972	1752.35	872.65
976.6521	2496.5398	1740.8	858
976.7801	2497.8818	1739.25	855.2
976.9081	2499.2231	1734.4	852.6
977.036	2500.5637	1732.65	849.9
977.164	2501.9035	1737.2	855.9
977.2918	2503.2427	1726.25	839.2
977.4197	2504.5812	1726.8	845.9
977.5475	2505.919	1722.3	838.35
977.6753	2507.256	1718.5	837.8
977.8031	2508.5924	1728.45	847
977.9308	2509.9281	1718.55	828.75
978.0585	2511.2631	1709.4	826.95
978.1861	2512.5974	1704.45	822.55
978.3137	2513.9309	1703	822.3
978.4413	2515.2638	1730.6	817.65
978.5689	2516.596	1696.65	815.55
978.6964	2517.9275	1696.2	814.95
978.8239	2519.2583	1695.95	814
978.9513	2520.5884	1690.95	808.65
979.0788	2521.9178	1684.25	801.3
979.2062	2523.2465	1682.2	801.4
979.3335	2524.5745	1677.45	795.9
979.4608	2525.9018	1678.85	797.7
979.5881	2527.2284	1667.8	788.1
979.7154	2528.5543	1668.5	789.15
979.8426	2529.8796	1668.2	785.6
979.9698	2531.2041	1666.05	786.15
980.0969	2532.5279	1662.25	782.65
980.224	2533.851	1653.15	771.6
980.3511	2535.1735	1659.25	779.15
980.4781	2536.4952	1661.55	781.65
980.6052	2537.8163	1652.3	770.9
980.7321	2539.1366	1648.3	765.6
980.8591	2540.4562	1652.35	768.4
980.986	2541.7752	1640.9	757.55
981.1129	2543.0935	1641.85	761.25
981.2397	2544.411	1639.35	758.8
981.3665	2545.7279	1647.6	766.5
981.4933	2547.0441	1636.35	755.9
981.62	2548.3596	1635.5	750.85
981.7467	2549.6744	1635.15	755.05
981.8734	2550.9885	1634	743.6
982.0001	2552.3019	1626.15	745.05
982.1267	2553.6146	1625.8	743.65
982.2532	2554.9266	1627.1	745.85
982.3798	2556.2379	1622.2	739.95
982.5063	2557.5485	1618.75	741.05
982.6327	2558.8585	1623.25	735.55
982.7592	2560.1677	1620.45	734.65
982.8856	2561.4762	1603.65	721.7
983.0119	2562.7841	1607.15	720
983.1383	2564.0913	1608.05	728.65
983.2646	2565.3977	1606.9	725.45
983.3908	2566.7035	1606.95	726.4
983.517	2568.0086	1600.9	718.05
983.6432	2569.313	1605	722.2
983.7694	2570.6167	1606.25	720
983.8955	2571.9197	1598	718.55
984.0216	2573.222	1601.4	714.45
984.1476	2574.5236	1588.4	706.95
984.2737	2575.8246	1594.1	708.55
984.3996	2577.1248	1595.1	713
984.5256	2578.4244	1583.75	701.1
984.6515	2579.7232	1592.8	710.95
984.7774	2581.0214	1607.4	700.9
984.9032	2582.3189	1585	705.45
985.029	2583.6157	1588.05	701.15
985.1548	2584.9118	1574.05	692.6
985.2806	2586.2072	1575.2	693.55
985.4063	2587.5019	1576.6	697.3
985.5319	2588.7959	1567.65	684.85
985.6576	2590.0893	1569.35	685.6
985.7832	2591.3819	1555.5	675
985.9087	2592.6739	1569.85	689.85
986.0343	2593.9652	1563	679.35
986.1597	2595.2557	1558.85	678.25
986.2852	2596.5456	1546.3	661.25
986.4106	2597.8348	1547.65	669.65
986.536	2599.1234	1546.95	664.4
986.6614	2600.4112	1548.9	667.25
986.7867	2601.6983	1553.35	668.9
986.912	2602.9848	1541.3	658.95
987.0372	2604.2705	1544.7	656.3
987.1624	2605.5556	1536.55	655.15
987.2876	2606.84	1529.5	649.55
987.4128	2608.1237	1531.65	648.4
987.5379	2609.4067	1533.75	652.85
987.6629	2610.689	1529.05	640.95
987.788	2611.9707	1527.75	641.35
987.913	2613.2516	1519.2	631.65
988.0379	2614.5319	1513.6	633.75
988.1629	2615.8115	1515.2	633.1
988.2878	2617.0903	1506.45	624.65
988.4126	2618.3685	1500.2	618
988.5375	2619.6461	1504.9	623.15
988.6622	2620.9229	1503.5	623.35
988.787	2622.199	1501	616.95
988.9117	2623.4745	1496.15	614.95
989.0364	2624.7493	1496.1	614.25
989.161	2626.0234	1482.45	603.5
989.2857	2627.2968	1481.75	600.9
989.4102	2628.5695	1488.3	604.1
989.5348	2629.8415	1477.3	595.8
989.6593	2631.1128	1479.3	597.25
989.7837	2632.3835	1473.95	592.1
989.9082	2633.6535	1476.05	594.7
990.0326	2634.9228	1470.4	588.45
990.1569	2636.1914	1462.95	582.1
990.2812	2637.4593	1472.3	583.3
990.4055	2638.7265	1472.4	590.2
990.5298	2639.9931	1458.85	577.55
990.654	2641.259	1465.55	582.1
990.7782	2642.5242	1461.75	580.95
990.9023	2643.7887	1455.4	574.2
991.0264	2645.0525	1453.95	572.6
991.1505	2646.3156	1445	563.65
991.2745	2647.5781	1450.55	569.65
991.3985	2648.8398	1441.35	559.85
991.5225	2650.1009	1445.75	555.05
991.6464	2651.3613	1437.5	557.7
991.7703	2652.6211	1442	559.9
991.8942	2653.8801	1434.15	555.85
992.018	2655.1385	1438.9	554.8
992.1418	2656.3961	1436.9	556.3
992.2655	2657.6531	1433.6	551.6
992.3892	2658.9094	1432.6	550.8
992.5129	2660.1651	1430.9	547.6
992.6366	2661.42	1432.5	552.55
992.7602	2662.6743	1427.3	544.4
992.8837	2663.9279	1419.05	537.45
993.0073	2665.1808	1419.45	539.35
993.1307	2666.433	1424.9	541.1
993.2542	2667.6846	1417.05	537
993.3776	2668.9354	1422	540
993.501	2670.1856	1410.15	525.6
993.6244	2671.4351	1416.35	536.35
993.7477	2672.6839	1404.75	523.3
993.8709	2673.9321	1410.4	530.5
993.9942	2675.1795	1408.3	526
994.1174	2676.4263	1403.1	523.45
994.2405	2677.6724	1403.15	524.05
994.3637	2678.9179	1393.3	512.25
994.4868	2680.1626	1401.25	521.8
994.6098	2681.4067	1396.05	515.95
994.7328	2682.6501	1388.25	506.6
994.8558	2683.8928	1391.1	509.5
994.9788	2685.1348	1385.35	504.3
995.1017	2686.3761	1386.2	505.4
995.2245	2687.6168	1389.55	507.65
995.3474	2688.8568	1375.7	494.6
995.4702	2690.0961	1374.3	493.9
995.5929	2691.3348	1379.75	498.7
995.7156	2692.5727	1380.3	500
995.8383	2693.81	1376.75	496.85
995.961	2695.0466	1369.2	489.05
996.0836	2696.2826	1373.15	492.6
996.2062	2697.5178	1377.6	491.2
996.3287	2698.7524	1372.65	489.95
996.4512	2699.9863	1367.1	484.2
996.5737	2701.2195	1364.7	483.8
996.6961	2702.452	1366.6	484.4
996.8185	2703.6839	1360.2	476.15
996.9408	2704.9151	1355.25	475.85
997.0631	2706.1456	1355	474.4
997.1854	2707.3755	1357.1	475.35
997.3077	2708.6046	1358.25	474.85
997.4299	2709.8331	1352.75	471.35
997.552	2711.0609	1347.85	467.55
997.6742	2712.2881	1350	468
997.7963	2713.5145	1347.9	463.2
997.9183	2714.7403	1337.6	458.65
998.0403	2715.9654	1341.45	459.8
998.1623	2717.1899	1357.65	461.25
998.2842	2718.4136	1336.95	457.55
998.4062	2719.6367	1339.75	456.7
998.528	2720.8591	1339.9	453.05
998.6498	2722.0809	1344.15	461.4
998.7716	2723.3019	1339.15	452.45
998.8934	2724.5223	1337.5	455.2
999.0151	2725.7421	1333.75	450.55
999.1368	2726.9611	1338.95	454.95
999.2584	2728.1795	1334.75	450.7
999.38	2729.3972	1330.1	449.2
999.5016	2730.6142	1336.9	442.7
999.6231	2731.8306	1321.95	438.8
999.7446	2733.0462	1318	435.85
999.8661	2734.2612	1316.25	432.55
999.9875	2735.4756	1318.15	435.3
1000.1089	2736.6892	1307.8	427.25
1000.2302	2737.9022	1296.5	416
1000.3515	2739.1145	1302.55	421.7
1000.4728	2740.3262	1310.25	424.65
1000.594	2741.5372	1295.95	415.6
1000.7152	2742.7475	1295.6	413.7
1000.8363	2743.9571	1297.7	414.85
1000.9575	2745.1661	1295.55	410
1001.0785	2746.3744	1300.35	418.15
1001.1996	2747.582	1292	412.15
1001.3206	2748.7889	1290.25	408.2
1001.4415	2749.9952	1290.5	411.35
1001.5625	2751.2008	1286.8	407.05
1001.6833	2752.4057	1284.4	399.7
1001.8042	2753.61	1279.6	399.55
1001.925	2754.8136	1280.9	396.5
1002.0458	2756.0165	1283.55	405.85
1002.1665	2757.2188	1274.05	394.55
1002.2872	2758.4204	1273.3	393.65
1002.4078	2759.6213	1269.65	386.6
1002.5285	2760.8215	1271.4	385.2
1002.649	2762.0211	1268.2	385.55
1002.7696	2763.22	1271.65	385.7
1002.8901	2764.4182	1262.55	381.2
1003.0106	2765.6158	1260.05	379.25
1003.131	2766.8127	1257.6	378.25
1003.2514	2768.009	1257.9	377.25
1003.3717	2769.2045	1265.45	383.95
1003.492	2770.3994	1261.35	379.15
1003.6123	2771.5936	1255.5	376.15
1003.7325	2772.7872	1253.6	374.8
1003.8527	2773.9801	1248.35	364.3
1003.9729	2775.1723	1266.35	367.75
1004.093	2776.3639	1248.9	371.45
1004.2131	2777.5548	1256.85	373.85
1004.3331	2778.745	1245.5	361.4
1004.4531	2779.9346	1245.35	365.95
1004.5731	2781.1235	1247.8	365.55
1004.693	2782.3117	1240.9	362.65
1004.8129	2783.4992	1237.75	358.1
1004.9328	2784.6861	1235.1	354.75
1005.0526	2785.8723	1237.15	357.05
1005.1723	2787.0579	1233.45	350.3
1005.2921	2788.2428	1237.8	360.3
1005.4118	2789.427	1234.55	355.65
1005.5314	2790.6106	1232.45	351.55
1005.651	2791.7935	1227.7	346.9
1005.7706	2792.9757	1225.4	343.7
1005.8902	2794.1573	1225.5	343.2
1006.0097	2795.3382	1227.95	347.55
1006.1291	2796.5184	1225.55	346.8
1006.2485	2797.698	1228	346.15
1006.3679	2798.8769	1220.5	342.15
1006.4873	2800.0551	1221	339.6
1006.6066	2801.2327	1219.35	337.1
1006.7258	2802.4096	1213.95	332.95
1006.8451	2803.5859	1217.7	337.2
1006.9642	2804.7615	1213.85	331.85
1007.0834	2805.9364	1212.55	332.4
1007.2025	2807.1106	1210.55	329.65
1007.3216	2808.2842	1209.55	329.3
1007.4406	2809.4572	1213.95	333.2
1007.5596	2810.6294	1208.95	329.15
1007.6785	2811.801	1211.15	332.35
1007.7975	2812.972	1209.75	330.8
1007.9163	2814.1423	1209.3	330.45
1008.0352	2815.3119	1209.15	329.3
1008.154	2816.4808	1206.65	325.4
1008.2727	2817.6491	1212.05	331.4
1008.3914	2818.8167	1210.9	333.25
1008.5101	2819.9837	1213.25	326.7
1008.6288	2821.15	1220.15	340.5
1008.7474	2822.3157	1213.15	333.05
1008.8659	2823.4807	1223.55	342.45
1008.9844	2824.645	1224.1	345.3
1009.1029	2825.8086	1221.45	341.8
1009.2214	2826.9716	1228.9	348.7
1009.3398	2828.134	1237.15	357.15
1009.4581	2829.2957	1238.15	358.5
1009.5764	2830.4567	1233.3	356.1
1009.6947	2831.617	1239.4	357.6
1009.813	2832.7767	1243.1	365.35
1009.9312	2833.9358	1241.55	361.6
1010.0493	2835.0941	1237.9	354.5
1010.1675	2836.2519	1240.6	362.45
1010.2855	2837.4089	1231.15	350.7
1010.4036	2838.5653	1232.1	352.15
1010.5216	2839.7211	1223.55	344.25
1010.6396	2840.8761	1231.2	348.05
1010.7575	2842.0306	1222.35	342.9
1010.8754	2843.1843	1222.8	343.05
1010.9932	2844.3374	1221.95	343.05
1011.111	2845.4899	1223	342.3
1011.2288	2846.6417	1227.6	348.1
1011.3465	2847.7928	1224.25	344.25
1011.4642	2848.9433	1221.7	338.45
1011.5818	2850.0931	1226.05	347.85
1011.6995	2851.2422	1226.65	344.65
1011.817	2852.3907	1227.25	345.85
1011.9345	2853.5385	1216.7	334.35
1012.052	2854.6857	1236.2	344.75
1012.1695	2855.8323	1218.35	339.9
1012.2869	2856.9781	1217.8	338.2
1012.4042	2858.1233	1222.7	342.5
1012.5216	2859.2679	1221.25	340.4
1012.6389	2860.4118	1223.95	343.1
1012.7561	2861.555	1234.35	351.2
1012.8733	2862.6976	1230.75	350.1
1012.9905	2863.8395	1224.8	344.1
1013.1076	2864.9808	1224.3	346.3
1013.2247	2866.1214	1225.45	348.9
1013.3417	2867.2614	1231.95	351.1
1013.4587	2868.4007	1230.95	349.9
1013.5757	2869.5393	1224.05	341.65
1013.6926	2870.6773	1230.1	347.95
1013.8095	2871.8146	1238	354.45
1013.9263	2872.9513	1229.1	345.45
1014.0431	2874.0874	1225.95	345.9
1014.1599	2875.2227	1226.55	345.9
1014.2766	2876.3574	1229.65	351.7
1014.3933	2877.4915	1225.65	345.55
1014.51	2878.6249	1230.65	349.35
1014.6266	2879.7577	1230	348.1
1014.7431	2880.8898	1232.75	342.45
1014.8596	2882.0212	1233.35	355.15
1014.9761	2883.152	1226.9	346.4
1015.0925	2884.2821	1222.95	344.05
1015.2089	2885.4116	1225.95	348.25
1015.3253	2886.5405	1229.6	350.25
1015.4416	2887.6686	1227.85	344.75
1015.5579	2888.7962	1229.5	351.85
1015.6741	2889.923	1225.05	347.75
1015.7903	2891.0493	1216	338.9
1015.9065	2892.1748	1225.7	343.9
1016.0226	2893.2997	1223.85	342.1
1016.1387	2894.424	1217.25	339.3
1016.2547	2895.5476	1219.45	340.2
1016.3707	2896.6706	1220.45	343.35
1016.4866	2897.7929	1215.95	334.4
1016.6025	2898.9145	1217.9	336.65
1016.7184	2900.0355	1217.35	336.6
1016.8342	2901.1559	1215	334.55
1016.95	2902.2756	1213.1	334.05
1017.0658	2903.3946	1212	331.6
1017.1815	2904.513	1214.1	331.8
1017.2971	2905.6308	1203	323.1
1017.4127	2906.7479	1213.9	335.3
1017.5283	2907.8643	1206.15	325.25
1017.6439	2908.9801	1203.75	322.85
1017.7594	2910.0953	1204.8	327.1
1017.8748	2911.2098	1205.6	322.8
1017.9902	2912.3236	1209.55	321.5
1018.1056	2913.4368	1202.65	319.6
1018.2209	2914.5494	1195.65	314.55
1018.3362	2915.6613	1205.55	322.15
1018.4515	2916.7725	1196.95	313.55
1018.5667	2917.8831	1200.8	320.3
1018.6819	2918.9931	1191.3	309.65
1018.797	2920.1024	1185.8	304.5
1018.9121	2921.211	1185.55	304.55
1019.0271	2922.319	1187.5	308.85
1019.1421	2923.4264	1183.2	303.8
1019.2571	2924.5331	1181.85	305.35
1019.372	2925.6391	1180.05	300.8
1019.4869	2926.7445	1177.3	297.8
1019.6017	2927.8493	1181.6	301.9
1019.7165	2928.9534	1181.8	299.3
1019.8313	2930.0569	1181.75	297.8
1019.946	2931.1597	1175.7	295.95
1020.0606	2932.2619	1172.4	292.85
1020.1753	2933.3634	1178.5	298.55
1020.2899	2934.4643	1186.4	300.85
1020.4044	2935.5645	1188.45	302.5
1020.5189	2936.6641	1178.05	294.55
1020.6334	2937.763	1181.2	302.05
1020.7478	2938.8613	1173.35	291.3
1020.8622	2939.959	1180.7	294.6
1020.9765	2941.056	1173.55	294.8
1021.0908	2942.1523	1170.9	290.6
1021.2051	2943.248	1162.95	284
1021.3193	2944.3431	1153.45	275.85
1021.4334	2945.4375	1150.75	272
1021.5476	2946.5313	1136.35	258
1021.6617	2947.6244	1135	253.75
1021.7757	2948.7169	1132.2	253.35
1021.8897	2949.8087	1127.3	248.75
1022.0037	2950.8999	1120.65	240.65
1022.1176	2951.9904	1119.85	241.85
1022.2315	2953.0803	1117.25	237.55
1022.3453	2954.1696	1111.95	233.25
1022.4591	2955.2582	1106.2	227.35
1022.5728	2956.3462	1105	223.75
1022.6865	2957.4335	1109.05	229.3
1022.8002	2958.5202	1106.1	223.45
1022.9138	2959.6062	1102.25	223.35
1023.0274	2960.6916	1099.2	219.95
1023.141	2961.7764	1102.35	220.85
1023.2545	2962.8605	1097.65	218.15
1023.3679	2963.9439	1100.3	221
1023.4813	2965.0267	1101.85	221.15
1023.5947	2966.1089	1119.9	216.35
1023.708	2967.1905	1094.55	214.6
1023.8213	2968.2714	1092.35	213.85
1023.9346	2969.3516	1091.65	212.45
1024.0478	2970.4312	1098.3	209.6
1024.1609	2971.5102	1089.35	211.45
1024.274	2972.5885	1084.2	206.2
1024.3871	2973.6662	1094.4	208.95
1024.5002	2974.7432	1089.05	210.95
1024.6132	2975.8196	1090.45	211.55
1024.7261	2976.8954	1087.85	209.4
1024.839	2977.9705	1087.3	207.85
1024.9519	2979.045	1089.25	210
1025.0647	2980.1188	1084.05	206.1
1025.1775	2981.192	1082.15	203.4
1025.2902	2982.2645	1082.2	201.9
1025.4029	2983.3364	1082.2	203.6
1025.5156	2984.4077	1078.8	200.6
1025.6282	2985.4783	1084.25	199.65
1025.7407	2986.5483	1073.85	195.05
1025.8532	2987.6177	1074.65	195.2
1025.9657	2988.6864	1067.45	186.15
1026.0782	2989.7545	1072.05	190.95
1026.1906	2990.8219	1067.2	187.3
1026.3029	2991.8887	1066	185.7
1026.4152	2992.9548	1062.55	183.15
1026.5275	2994.0204	1056.95	178.75
1026.6397	2995.0852	1054.25	175.95
1026.7519	2996.1495	1056.9	177.45
1026.864	2997.2131	1054.85	176
1026.9761	2998.276	1046.95	166.55
1027.0882	2999.3383	1046.3	167.05
1027.2002	3000.4	1048.45	165.05
1027.3122	3001.4611	1042.85	162.15
1027.4241	3002.5215	1045.85	165.25
1027.536	3003.5812	1043.8	164
1027.6478	3004.6404	1042.25	163.5
1027.7596	3005.6989	1043.4	159.6
1027.8714	3006.7567	1038.2	158.85
1027.9831	3007.8139	1059.1	155.7
1028.0947	3008.8705	1036.9	156.15
1028.2064	3009.9264	1037.9	155.6
1028.3179	3010.9818	1032.65	153.55
1028.4295	3012.0364	1033.65	155.15
1028.541	3013.0905	1034.55	154.5
1028.6524	3014.1439	1033.45	153.55
1028.7638	3015.1966	1026.15	147.05
1028.8752	3016.2487	1029.05	150.35
1028.9865	3017.3002	1033.45	145.9
1029.0978	3018.3511	1025.9	148.55
1029.209	3019.4013	1029.5	149.7
1029.3202	3020.4509	1023.8	145.55
1029.4314	3021.4998	1026	145.95
1029.5425	3022.5481	1027.7	148.6
1029.6535	3023.5958	1026.5	147.1
1029.7645	3024.6428	1027.1	149.2
1029.8755	3025.6892	1024.25	146.25
1029.9864	3026.735	1023.05	144.35
1030.0973	3027.7802	1021.25	143.2
1030.2082	3028.8247	1022.65	143.6
1030.319	3029.8685	1021	141
1030.4297	3030.9118	1022.4	142.55
1030.5404	3031.9544	1021.3	138.95
1030.6511	3032.9963	1016.5	136.95
1030.7617	3034.0376	1017.6	138.85
1030.8723	3035.0783	1021.85	140.5
1030.9829	3036.1184	1014.6	135.7
1031.0934	3037.1578	1017.3	137.7
1031.2038	3038.1966	1018.8	137.6
1031.3142	3039.2348	1015	136.25
1031.4246	3040.2723	1022.3	133.5
1031.5349	3041.3092	1015.35	137.1
1031.6452	3042.3455	1014.65	135.55
1031.7554	3043.3811	1013.35	133.05
1031.8656	3044.4161	1012.95	133.15
1031.9758	3045.4505	1012.15	133.4
1032.0859	3046.4842	1012.65	133.8
1032.1959	3047.5173	1009.15	130.65
1032.3059	3048.5498	1011.85	132.1
1032.4159	3049.5816	1009.8	130.85
1032.5258	3050.6128	1011.1	130.15
1032.6357	3051.6434	1015.8	136.3
1032.7455	3052.6734	1008.75	127.4
1032.8553	3053.7027	1009.3	130.9
1032.9651	3054.7314	1006.85	128.5
1033.0748	3055.7594	1007.15	128.2
1033.1845	3056.7868	1010.35	130.4
1033.2941	3057.8136	1007.6	129.2
1033.4037	3058.8398	1012	132.6
1033.5132	3059.8653	1006.9	127.8
1033.6227	3060.8902	1004	125.4
1033.7321	3061.9145	1007.05	126.2
1033.8415	3062.9381	1008.95	129.2
1033.9509	3063.9612	1022.3	126
1034.0602	3064.9835	1008.4	127.55
1034.1694	3066.0053	1009.8	128.65
1034.2787	3067.0264	1003.2	123.85
1034.3878	3068.0469	1002.9	122.15
1034.497	3069.0668	1005.5	122.95
1034.6061	3070.086	999.45	122.2
1034.7151	3071.1046	1004.1	125
1034.8241	3072.1226	1002.4	121.3
1034.9331	3073.1399	1002.35	121.55
1035.042	3074.1567	1004.5	125.15
1035.1508	3075.1727	1000.95	119.65
1035.2597	3076.1882	1000.4	120.6
1035.3684	3077.203	1001.4	122.15
1035.4772	3078.2173	999.3	120.35
1035.5859	3079.2308	999.15	116.85
1035.6945	3080.2438	999.05	118.15
1035.8031	3081.2561	996.95	117.3
1035.9117	3082.2678	995.15	116.95
1036.0202	3083.2789	991.7	113.25
1036.1286	3084.2893	992.65	113.6
1036.2371	3085.2991	994.8	116.2
1036.3454	3086.3083	995.8	111.1
1036.4538	3087.3169	991.2	111.55
1036.562	3088.3248	995.45	114.3
1036.6703	3089.3321	992.4	111.3
1036.7785	3090.3388	988.7	109.8
1036.8866	3091.3449	987.95	109.4
1036.9948	3092.3503	993.6	111.8
1037.1028	3093.3551	987.65	110.05
1037.2108	3094.3593	988.05	109.4
1037.3188	3095.3629	986.55	108.15
1037.4267	3096.3658	989.6	109.25
1037.5346	3097.3681	987.1	108.45
1037.6425	3098.3698	985.45	105.35
1037.7503	3099.3708	988.55	102.85
1037.858	3100.3713	980.55	104
1037.9657	3101.3711	984.2	104.8
1038.0734	3102.3702	1118.55	101.65
1038.181	3103.3688	981.1	99.75
1038.2886	3104.3667	980.2	101.3
1038.3961	3105.364	978.25	99.1
1038.5036	3106.3607	983.95	104.3
1038.611	3107.3568	979.75	97.15
1038.7184	3108.3522	976.75	100.15
1038.8257	3109.347	978.25	97.75
1038.933	3110.3412	980.55	95.9
1039.0403	3111.3348	976.1	98.35
1039.1475	3112.3277	975.75	98.45
1039.2547	3113.32	977.2	98.9
1039.3618	3114.3117	975.2	94.9
1039.4689	3115.3028	971.7	92.85
1039.5759	3116.2932	974.5	93.45
1039.6829	3117.2831	978.8	91.95
1039.7898	3118.2723	974.35	96.45
1039.8967	3119.2608	971.4	92.5
1040.0035	3120.2488	971.15	91.2
1040.1103	3121.2361	969.65	90.95
1040.2171	3122.2229	971.15	92.75
1040.3238	3123.209	969.75	88.85
1040.4305	3124.1944	968.85	90.2
1040.5371	3125.1793	970.85	88.8
1040.6437	3126.1635	969.65	92.45
1040.7502	3127.1471	967.1	88.45
1040.8567	3128.1301	967.95	87.95
1040.9631	3129.1125	966.3	87
1041.0695	3130.0942	970.45	90.75
1041.1759	3131.0753	978	90
1041.2822	3132.0558	967.7	86.4
1041.3884	3133.0357	964.35	84.45
1041.4946	3134.015	964.5	83.95
1041.6008	3134.9936	964.5	84.7
1041.7069	3135.9716	980.7	79.85
1041.813	3136.949	961.35	82.45
1041.919	3137.9258	968.5	82.7
1042.025	3138.902	968.65	84.75
1042.1309	3139.8775	962	83.4
1042.2368	3140.8524	961.85	82.85
1042.3427	3141.8267	961.95	80.2
1042.4485	3142.8004	961.9	81.5
1042.5542	3143.7735	965.65	82.75
1042.6599	3144.7459	963.9	82.9
1042.7656	3145.7178	961.85	82.55
1042.8712	3146.689	958.1	81.15
1042.9768	3147.6596	957.55	76.3
1043.0823	3148.6295	958.85	80.25
1043.1878	3149.5989	958.45	78.75
1043.2932	3150.5676	958.15	80.75
1043.3986	3151.5357	955.1	79.15
1043.5039	3152.5032	955.15	75.85
1043.6092	3153.4701	956.05	77.65
1043.7145	3154.4364	960.3	80.3
1043.8197	3155.402	955.3	76.35
1043.9248	3156.367	957.1	76.6
1044.03	3157.3315	994.05	76.45
1044.135	3158.2952	954.25	76.9
1044.24	3159.2584	953	72.9
1044.345	3160.221	952.75	71.95
1044.4499	3161.1829	953.35	73.55
1044.5548	3162.1442	955.6	76
1044.6596	3163.105	953.6	76.85
1044.7644	3164.065	947.35	67.2
1044.8692	3165.0245	956.65	75.85
1044.9739	3165.9834	951.05	74.1
1045.0785	3166.9416	949.2	70.15
1045.1831	3167.8993	952.95	74.3
1045.2877	3168.8563	948.55	67.75
1045.3922	3169.8127	949.15	70.15
1045.4966	3170.7684	949.8	71.25
1045.6011	3171.7236	951	70.6
1045.7054	3172.6782	947.45	69.85
1045.8098	3173.6321	945.75	68.85
1045.914	3174.5854	950.2	67.5
1046.0183	3175.5381	948.25	69.8
1046.1224	3176.4902	947.4	68.7
1046.2266	3177.4417	946.15	66.2
1046.3307	3178.3926	944.15	65.55
1046.4347	3179.3428	945.55	66.5
1046.5387	3180.2924	947.5	69.9
1046.6427	3181.2415	945.85	65.35
1046.7466	3182.1899	944.5	63.6
1046.8504	3183.1377	945.4	67.1
1046.9542	3184.0848	946.25	64.7
1047.058	3185.0314	945.45	67.35
1047.1617	3185.9773	945	63.15
1047.2654	3186.9227	942.4	62.45
1047.369	3187.8674	941	62.9
1047.4726	3188.8115	945.3	61.7
1047.5761	3189.755	942.45	64.5
1047.6796	3190.6979	939.45	61.25
1047.783	3191.6402	941.6	63.65
1047.8864	3192.5818	940.6	62.75
1047.9898	3193.5229	958.55	62.75
1048.0931	3194.4633	941.95	65.25
1048.1963	3195.4031	939.4	59.5
1048.2995	3196.3423	938.35	58.75
1048.4027	3197.2809	943.45	64.25
1048.5058	3198.2189	940.3	59.6
1048.6089	3199.1563	955.35	59.75
1048.7119	3200.0931	936	57.35
1048.8148	3201.0292	938.7	59.7
1048.9178	3201.9648	938.8	60.3
1049.0206	3202.8997	940.55	57.05
1049.1235	3203.834	936.35	57.2
1049.2262	3204.7677	936.9	57.6
1049.329	3205.7008	935.15	52.35
1049.4317	3206.6333	933.35	57.25
1049.5343	3207.5652	940.5	60.6
1049.6369	3208.4964	937.75	56.75
1049.7394	3209.4271	932.7	56.1
1049.8419	3210.3571	936.3	57.5
1049.9444	3211.2865	934.5	56.55
1050.0468	3212.2154	935.3	55.55
1050.1491	3213.1436	936.85	53.9
1050.2514	3214.0712	941.35	55.65
1050.3537	3214.9982	936.45	56.9
1050.4559	3215.9246	933.6	54.3
1050.5581	3216.8503	932.35	52.35
1050.6602	3217.7755	932.55	53.75
1050.7623	3218.7001	932.2	54.05
1050.8643	3219.624	933.4	52.4
1050.9663	3220.5473	930.65	52.15
1051.0682	3221.4701	933	51.05
1051.1701	3222.3922	933	52.35
1051.2719	3223.3137	929.8	52.7
1051.3737	3224.2346	928.25	48.65
1051.4754	3225.1549	926.5	49.35
1051.5771	3226.0746	929.4	50.75
1051.6788	3226.9937	929.55	48.2
1051.7804	3227.9121	929.8	52.3
1051.8819	3228.83	929.1	51.3
1051.9834	3229.7473	929.3	50.5
1052.0849	3230.6639	927.65	47.9
1052.1863	3231.5799	930.25	51.6
1052.2876	3232.4954	928.7	50
1052.3889	3233.4102	925.35	46.95
1052.4902	3234.3244	925.4	45.85
1052.5914	3235.238	928.35	49.7
1052.6926	3236.151	952.15	49.35
1052.7937	3237.0634	925.55	50.1
1052.8948	3237.9752	927.2	49.4
1052.9958	3238.8864	925.1	46.5
1053.0968	3239.797	923.95	43.55
1053.1977	3240.7069	926.25	47
1053.2986	3241.6163	923.7	44.4
1053.3994	3242.5251	925	48
1053.5002	3243.4332	924	47.1
1053.6009	3244.3408	925.15	46.7
1053.7016	3245.2477	923.75	47.25
1053.8022	3246.154	924.95	44.85
1053.9028	3247.0598	924.65	44.05
1054.0034	3247.9649	922.4	42.9
1054.1039	3248.8694	921.75	44.7
1054.2043	3249.7733	924.4	46.8
1054.3047	3250.6766	925.15	46.75
1054.4051	3251.5793	924.65	46.15
1054.5054	3252.4814	922.2	45.15
1054.6056	3253.3829	920.6	41.6
1054.7058	3254.2838	919.15	39.9
1054.806	3255.1841	920.95	42.75
1054.9061	3256.0838	920.15	42.15
1055.0061	3256.9829	918.45	41.4
1055.1062	3257.8814	924	44.15
1055.2061	3258.7792	922.15	42.35
1055.306	3259.6765	920.3	40.45
1055.4059	3260.5731	920.55	41.95
1055.5057	3261.4692	918.55	36.1
1055.6055	3262.3647	921.1	41
1055.7052	3263.2595	918.6	38.85
1055.8049	3264.1538	917.35	40.2
1055.9045	3265.0474	916.6	37.5
1056.0041	3265.9404	918.05	38.4
1056.1036	3266.8329	916.45	39.15
1056.2031	3267.7247	925.3	36.2
1056.3025	3268.616	912.55	34.1
1056.4019	3269.5066	913.05	34.45
1056.5013	3270.3966	913.2	31.3
1056.6005	3271.286	909.9	32.9
