Software Version:	3.9.2.0
Unit SN:	10000200
Spectrometer SN:	6960
Date:	3/6/2024 10:37:36 AM
Data Line Index:	25
Spectral Points:	2048
Integration time (ms):	125
Averages:	20
Delay (ms):	30
Sequence Number:	1
Processing:	dark subtract
Laser Power (mW):	300
Laser Current (mA):	823
Laser Diode Temp (C):	25.1
Laser Case Temp (C):	26.7
System Temp (C):	26.5
Spectrometer Temp (C):	24
CCD Temp (C):	-0.005
Secondary Temp (C):	20.008
Heatsink Temp (C):	22.245
CCDPCB Temp (C):	36.162
SecondaryPCB Temp (C):	31.138

Wavelength	RamanShift	Raw Counts	Dark Subtracted
787.061	30.1047	1142.75	731
787.2016	32.3739	1168.75	759.85
787.3422	34.6426	1212.8	800.35
787.4828	36.9109	1263.05	849.85
787.6235	39.1787	1321.85	904.4
787.7642	41.4461	1387.85	966.9
787.9049	43.7131	1453.8	1028.5
788.0456	45.9796	1510.05	1080.7
788.1863	48.2456	1579.6	1147.35
788.3271	50.5112	1659.85	1223.4
788.4679	52.7764	1717.5	1278.45
788.6087	55.0411	1795.9	1352.35
788.7496	57.3054	1891.55	1441.6
788.8904	59.5692	1978.65	1526.8
789.0313	61.8326	2069.5	1616.2
789.1722	64.0955	2183.8	1727.35
789.3132	66.3579	2311	1848.55
789.4541	68.6199	2464.75	1998.6
789.5951	70.8815	2722	2251.3
789.7361	73.1426	3260.45	2785.9
789.8771	75.4032	4592.35	4113.05
790.0181	77.6634	8047.95	7565.45
790.1592	79.9231	17199.85	16712.7
790.3003	82.1824	55951.5	55450.35
790.4414	84.4412	65535	65012.3
790.5825	86.6995	65535	64981.75
790.7237	88.9574	65535	64955.75
790.8648	91.2148	65535	64942.95
791.006	93.4717	65535	64926.45
791.1472	95.7282	65535	64922.35
791.2885	97.9842	65535	64914.85
791.4297	100.2398	65535	64914.15
791.571	102.4949	65535	64911.1
791.7123	104.7495	65535	64908.05
791.8536	107.0036	65535	64906.65
791.9949	109.2573	65535	64905.4
792.1363	111.5105	65535	64907.9
792.2777	113.7632	65535	64905.1
792.4191	116.0154	65535	64896
792.5605	118.2672	65535	64899.3
792.7019	120.5185	65535	64897
792.8434	122.7693	65535	64895.4
792.9849	125.0197	65535	64890.6
793.1264	127.2696	65535	64884.75
793.2679	129.519	65535	64886.8
793.4094	131.7679	65535	64883
793.551	134.0163	65535	64880.05
793.6926	136.2642	65535	64875.4
793.8342	138.5117	65535	64868.05
793.9758	140.7587	65535	64871.4
794.1175	143.0052	65535	64867.9
794.2591	145.2512	65535	64865.95
794.4008	147.4967	65535	64867
794.5425	149.7417	65535	64865.45
794.6842	151.9863	65535	64863.75
794.826	154.2304	65535	64857.95
794.9677	156.4739	65535	64853.35
795.1095	158.717	65535	64851.2
795.2513	160.9596	65535	64846.4
795.3931	163.2017	65535	64846.15
795.535	165.4433	65535	64844.65
795.6768	167.6844	65535	64842.8
795.8187	169.925	65535	64838.7
795.9606	172.1651	65535	64836.95
796.1025	174.4047	65535	64831.4
796.2445	176.6439	65535	64830.15
796.3864	178.8825	65535	64828.35
796.5284	181.1206	65535	64823.6
796.6704	183.3582	65535	64819.85
796.8124	185.5954	65535	64822.65
796.9544	187.832	65535	64812.85
797.0965	190.0681	65535	64811.9
797.2386	192.3037	65535	64808.25
797.3806	194.5388	65535	64806.8
797.5228	196.7734	65535	64802.55
797.6649	199.0075	65535	64804.5
797.807	201.2411	65535	64799.7
797.9492	203.4742	65535	64802.15
798.0914	205.7068	65535	64798.5
798.2336	207.9389	65535	64795.65
798.3758	210.1704	65535	64796.6
798.518	212.4015	65535	64796.65
798.6603	214.632	65535	64806.85
798.8025	216.862	65535	64814.6
798.9448	219.0915	65535	64815.45
799.0871	221.3205	65535	64810.35
799.2294	223.549	65535	64818.35
799.3718	225.777	65535	64816.9
799.5141	228.0044	65535	64811.6
799.6565	230.2314	65535	64811.9
799.7989	232.4578	65535	64808.4
799.9413	234.6837	65535	64801.8
800.0837	236.909	65535	64798.45
800.2262	239.1339	65535	64771.55
800.3687	241.3582	65535	64788
800.5111	243.582	65535	64759.2
800.6536	245.8053	65535	64773.3
800.7961	248.0281	65535	64777.2
800.9387	250.2503	65535	64768.65
801.0812	252.472	65535	64764.35
801.2238	254.6932	65535	64768
801.3664	256.9139	65535	64766.05
801.509	259.134	65535	64764.95
801.6516	261.3536	65535	64765.6
801.7942	263.5727	65535	64764
801.9369	265.7912	65535	64765.25
802.0795	268.0092	65535	64763.3
802.2222	270.2267	65535	64760.65
802.3649	272.4436	65535	64761.05
802.5076	274.6601	65535	64758.3
802.6504	276.8759	65535	64753.75
802.7931	279.0913	65535	64753.45
802.9359	281.3061	65535	64757.5
803.0787	283.5204	65535	64751.7
803.2215	285.7341	65535	64746.65
803.3643	287.9473	65535	64735.55
803.5071	290.16	65535	64741.8
803.6499	292.3721	65535	64748.75
803.7928	294.5837	65535	64748.55
803.9357	296.7947	65535	64747.4
804.0786	299.0052	65535	64746.9
804.2215	301.2152	65535	64746.45
804.3644	303.4246	65535	64747.65
804.5074	305.6334	65535	64748.5
804.6503	307.8418	65535	64745.5
804.7933	310.0495	65535	64743.75
804.9363	312.2568	65535	64746.05
805.0793	314.4635	65535	64741.1
805.2223	316.6696	65535	64737.75
805.3653	318.8752	65535	64729.7
805.5084	321.0802	65535	64738.95
805.6514	323.2847	65535	64736.05
805.7945	325.4887	65535	64737.4
805.9376	327.692	65535	64731.95
806.0807	329.8949	65535	64732.1
806.2238	332.0972	65535	64729.2
806.367	334.2989	65535	64732.1
806.5101	336.5001	65535	64729.55
806.6533	338.7007	65535	64727.9
806.7965	340.9008	65535	64724.95
806.9397	343.1003	65535	64726.25
807.0829	345.2992	65535	64725.95
807.2261	347.4976	65535	64721.8
807.3693	349.6955	65535	64720.8
807.5126	351.8927	65535	64717.3
807.6559	354.0895	65535	64704.3
807.7991	356.2856	65535	64715.5
807.9424	358.4812	65535	64715.85
808.0857	360.6763	65535	64713.4
808.2291	362.8707	65535	64717.15
808.3724	365.0646	65535	64707.5
808.5158	367.258	65535	64707.15
808.6591	369.4508	65535	64705.1
808.8025	371.643	65535	64704.25
808.9459	373.8346	65535	64704.2
809.0893	376.0257	65535	64699.5
809.2327	378.2162	65535	64703.1
809.3762	380.4062	65535	64699.6
809.5196	382.5956	65535	64697.65
809.6631	384.7844	65535	64702.35
809.8066	386.9726	65535	64704.3
809.9501	389.1603	65535	64704.5
810.0936	391.3474	65535	64661.15
810.2371	393.5339	65535	64706.85
810.3806	395.7199	65535	64709.3
810.5241	397.9052	65535	64707.4
810.6677	400.09	65535	64704.2
810.8113	402.2743	65535	64708.4
810.9548	404.4579	65535	64710.6
811.0984	406.641	65535	64704.95
811.2421	408.8235	65535	64703.6
811.3857	411.0054	65535	64702.95
811.5293	413.1868	65535	64700.1
811.673	415.3675	65535	64700.5
811.8166	417.5477	65535	64698.5
811.9603	419.7273	65535	64696.6
812.104	421.9064	65535	64687.95
812.2477	424.0848	65535	64692.8
812.3914	426.2627	65535	64692.15
812.5351	428.4399	65535	64690.75
812.6788	430.6166	65535	64687.65
812.8226	432.7928	65535	64687.15
812.9663	434.9683	65535	64685.85
813.1101	437.1432	65535	64684.9
813.2539	439.3176	65535	64685.15
813.3977	441.4914	65535	64686.7
813.5415	443.6645	65535	64683.3
813.6853	445.8371	65535	64686.25
813.8291	448.0091	65535	64685.3
813.973	450.1806	65535	64682.65
814.1168	452.3514	65535	64679.15
814.2607	454.5216	65535	64678.7
814.4046	456.6913	65535	64682.7
814.5485	458.8603	65535	64683.75
814.6924	461.0288	65535	64682.65
814.8363	463.1967	65535	64684.05
814.9802	465.3639	65535	64679.75
815.1241	467.5306	65535	64681.6
815.2681	469.6967	65535	64679.6
815.412	471.8622	65535	64681.9
815.556	474.0271	65535	64681.45
815.7	476.1914	65535	64676.95
815.844	478.3551	65535	64676.05
815.988	480.5182	65535	64678.8
816.132	482.6807	65535	64680.1
816.276	484.8426	65535	64679.85
816.4201	487.0039	65535	64680.05
816.5641	489.1647	65535	64675.95
816.7082	491.3248	65535	64675.6
816.8522	493.4843	65535	64678.4
816.9963	495.6432	65535	64678.75
817.1404	497.8015	65535	64672.3
817.2845	499.9592	65535	64673.2
817.4286	502.1163	65535	64673.2
817.5727	504.2728	65535	64671.65
817.7168	506.4287	65535	64676.35
817.861	508.5839	65535	64676.5
818.0051	510.7386	65535	64673.75
818.1493	512.8927	65535	64667.85
818.2935	515.0461	65535	64670.55
818.4377	517.199	65535	64669.8
818.5818	519.3512	65535	64668.7
818.726	521.5029	65535	64665.2
818.8703	523.6539	65535	64668.9
819.0145	525.8043	65535	64665.8
819.1587	527.9541	65535	64666.05
819.303	530.1033	65535	64668.7
819.4472	532.2519	65535	64667.1
819.5915	534.3999	65535	64663.35
819.7357	536.5472	65535	64667
819.88	538.694	65535	64667.9
820.0243	540.8401	65535	64666.6
820.1686	542.9856	65535	64659.05
820.3129	545.1305	65535	64661.4
820.4572	547.2748	65535	64658.15
820.6016	549.4185	65535	64660.1
820.7459	551.5615	65535	64661.95
820.8902	553.704	65535	64660.2
821.0346	555.8458	65535	64663.85
821.1789	557.987	65535	64664.05
821.3233	560.1276	65535	64661.95
821.4677	562.2675	65535	64661.8
821.6121	564.4069	65535	64662
821.7565	566.5456	65535	64661.2
821.9009	568.6837	65535	64660.1
822.0453	570.8212	65535	64659.8
822.1897	572.958	65535	64658.55
822.3342	575.0942	65535	64660.75
822.4786	577.2299	65535	64658.5
822.6231	579.3648	65535	64663.7
822.7675	581.4992	65535	64663
822.912	583.6329	65535	64661.75
823.0565	585.766	65535	64661.95
823.201	587.8985	65535	64661.3
823.3454	590.0304	65535	64638.8
823.4899	592.1616	65535	64658.8
823.6345	594.2922	65535	64655.15
823.779	596.4222	65535	64654.6
823.9235	598.5515	65535	64658.55
824.068	600.6802	65535	64654.75
824.2126	602.8083	65535	64660.3
824.3571	604.9358	65535	64656.6
824.5017	607.0626	65535	64653.15
824.6462	609.1888	65535	64654.45
824.7908	611.3144	65535	64652.15
824.9354	613.4393	65535	64655.1
825.08	615.5636	65535	64653.8
825.2246	617.6873	65535	64654.6
825.3692	619.8103	65535	64651.85
825.5138	621.9327	65535	64648.75
825.6584	624.0544	65535	64656.95
825.803	626.1756	65535	64654.8
825.9477	628.2961	65535	64651.85
826.0923	630.4159	65535	64653.15
826.237	632.5351	65535	64651.9
826.3816	634.6537	65535	64652
826.5263	636.7716	65535	64647.85
826.6709	638.8889	65535	64646.05
826.8156	641.0056	65535	64647.1
826.9603	643.1216	65535	64646.4
827.105	645.237	65535	64647.2
827.2497	647.3518	65535	64650.75
827.3944	649.4659	65535	64649.65
827.5391	651.5793	65535	64651.7
827.6838	653.6922	65535	64652.25
827.8285	655.8043	65535	64647.9
827.9733	657.9159	65535	64647.75
828.118	660.0268	65535	64649.15
828.2627	662.137	65535	64646.55
828.4075	664.2466	65535	64644.7
828.5522	666.3556	65535	64646.4
828.697	668.4639	65535	64641.3
828.8418	670.5716	65535	64648.35
828.9865	672.6786	65535	64646.5
829.1313	674.785	65535	64645.9
829.2761	676.8907	65535	64647.3
829.4209	678.9958	65535	64647.85
829.5657	681.1002	65535	64644.4
829.7105	683.204	65535	64639.05
829.8553	685.3072	65535	64640.2
830.0001	687.4097	65535	64641.65
830.1449	689.5115	65535	64641.8
830.2898	691.6127	65535	64644.1
830.4346	693.7132	65535	64644.3
830.5794	695.8131	65535	64633.45
830.7243	697.9123	65535	64639.25
830.8691	700.0109	65535	64642.15
831.014	702.1089	65535	64642.2
831.1588	704.2061	65535	64640.4
831.3037	706.3028	65535	64638.6
831.4486	708.3987	65535	64643.15
831.5935	710.4941	65535	64642.5
831.7383	712.5887	65535	64645.25
831.8832	714.6827	65535	64638.3
832.0281	716.7761	65535	64642.3
832.173	718.8688	65535	64640
832.3179	720.9608	65535	64636.3
832.4628	723.0522	65535	64633.8
832.6077	725.1429	65535	64639.5
832.7527	727.233	65535	64640.75
832.8976	729.3224	65535	64637.55
833.0425	731.4112	65535	64637.9
833.1874	733.4993	65535	64636.3
833.3324	735.5867	65535	64636.3
833.4773	737.6735	65535	64637.9
833.6222	739.7596	65535	64638.2
833.7672	741.845	65535	64636.35
833.9122	743.9298	65535	64636.55
834.0571	746.014	65535	64637.9
834.2021	748.0974	65535	64635.45
834.347	750.1802	65535	64636.3
834.492	752.2624	65535	64635.45
834.637	754.3439	65535	64636.6
834.782	756.4247	65535	64625.5
834.9269	758.5048	65535	64635.45
835.0719	760.5843	65535	64633.75
835.2169	762.6631	65535	64636.35
835.3619	764.7413	65535	64636.45
835.5069	766.8188	65535	64635
835.6519	768.8956	65535	64630.9
835.7969	770.9718	65535	64637.3
835.9419	773.0473	65535	64637.7
836.0869	775.1221	65535	64632.7
836.232	777.1962	65535	64637.05
836.377	779.2697	65535	64633.25
836.522	781.3426	65535	64614.5
836.667	783.4147	65535	64634.75
836.8121	785.4862	65535	64636.1
836.9571	787.557	65535	64636.75
837.1021	789.6271	65535	64636.05
837.2472	791.6966	65535	64633.95
837.3922	793.7654	65535	64633.1
837.5373	795.8335	65535	64634.45
837.6823	797.901	65535	64633.95
837.8274	799.9678	65535	64632.7
837.9724	802.0339	65535	64634.85
838.1175	804.0993	65535	64624.9
838.2626	806.1641	65535	64634.9
838.4076	808.2282	65535	64633.25
838.5527	810.2916	65535	64630.25
838.6978	812.3544	65535	64637.1
838.8428	814.4164	65535	64633.75
838.9879	816.4778	65535	64632.9
839.133	818.5385	65535	64632.15
839.2781	820.5986	65535	64633.9
839.4232	822.658	65535	64632.75
839.5682	824.7166	65535	64635.5
839.7133	826.7747	65535	64630.85
839.8584	828.832	65535	64632.4
840.0035	830.8886	65535	64632.2
840.1486	832.9446	65535	64632.8
840.2937	834.9999	65535	64637.15
840.4388	837.0545	65535	64629.45
840.5839	839.1085	65535	64633.95
840.729	841.1618	65535	64628.55
840.8741	843.2143	65535	64632.15
841.0192	845.2662	65535	64632.85
841.1643	847.3175	65535	64630.3
841.3095	849.368	65535	64631.9
841.4546	851.4179	65535	64632.85
841.5997	853.467	65535	64632.55
841.7448	855.5155	65535	64631.75
841.8899	857.5633	65535	64631.5
842.0351	859.6105	65535	64632.7
842.1802	861.6569	65535	64633.4
842.3253	863.7027	65535	64630.9
842.4704	865.7478	65535	64629.9
842.6156	867.7922	65535	64632.9
842.7607	869.8359	65535	64633.05
842.9058	871.8789	65535	64630.55
843.0509	873.9212	65535	64600.3
843.1961	875.9629	65535	64632.35
843.3412	878.0039	65535	64629.15
843.4863	880.0441	65535	64633.5
843.6315	882.0837	65535	64631.2
843.7766	884.1226	65535	64627.75
843.9218	886.1609	65535	64631.45
844.0669	888.1984	65535	64632.25
844.212	890.2352	65535	64633.65
844.3572	892.2714	65535	64630.65
844.5023	894.3069	65535	64628.65
844.6475	896.3416	65535	64629.15
844.7926	898.3757	65535	64630.6
844.9377	900.4091	65535	64629.55
845.0829	902.4418	65535	64623.95
845.228	904.4739	65535	64628.95
845.3732	906.5052	65535	64629.05
845.5183	908.5358	65535	64631
845.6635	910.5658	65535	64626.95
845.8086	912.595	65535	64629.65
845.9538	914.6236	65535	64628.35
846.0989	916.6515	65535	64628.8
846.2441	918.6786	65535	64626.5
846.3892	920.7051	65535	64627.05
846.5344	922.7309	65535	64626.5
846.6795	924.756	65535	64627.85
846.8246	926.7804	65535	64629.6
846.9698	928.8041	65535	64628.75
847.1149	930.8272	65535	64626
847.2601	932.8495	65535	64627.8
847.4052	934.8711	65535	64630
847.5504	936.892	65535	64626.7
847.6955	938.9123	65535	64628.35
847.8407	940.9318	65535	64630.35
847.9858	942.9506	65535	64628.2
848.131	944.9688	65535	64628.35
848.2761	946.9862	65535	64627.95
848.4213	949.003	65535	64626.55
848.5664	951.019	65535	64631.7
848.7115	953.0344	65535	64627.4
848.8567	955.0491	65535	64629
849.0018	957.063	65535	64626.75
849.147	959.0763	65535	64629.1
849.2921	961.0888	65535	64627.3
849.4373	963.1007	65535	64629.05
849.5824	965.1119	65535	64631.5
849.7275	967.1223	65535	64630.3
849.8727	969.1321	65535	64628.95
850.0178	971.1412	65535	64629.1
850.1629	973.1495	65535	64627.9
850.3081	975.1572	65535	64580.25
850.4532	977.1641	65535	64627.65
850.5983	979.1704	65535	64629.1
850.7435	981.1759	65535	64624.05
850.8886	983.1808	65535	64629.55
851.0337	985.1849	65535	64619.05
851.1788	987.1884	65535	64626.8
851.324	989.1911	65535	64623.65
851.4691	991.1932	65535	64627.8
851.6142	993.1945	65535	64627.25
851.7593	995.1951	65535	64627
851.9045	997.1951	65535	64622.15
852.0496	999.1943	65535	64628.75
852.1947	1001.1928	65535	64630.4
852.3398	1003.1906	65535	64627.95
852.4849	1005.1877	65535	64630.7
852.63	1007.1841	65535	64629.6
852.7751	1009.1798	65535	64624.55
852.9202	1011.1748	65535	64630.8
853.0653	1013.1691	65535	64628.45
853.2104	1015.1627	65535	64628.35
853.3555	1017.1556	65535	64630.6
853.5006	1019.1477	65535	64630.8
853.6457	1021.1392	65535	64630.5
853.7908	1023.1299	65535	64630.25
853.9359	1025.12	65535	64630
854.081	1027.1093	65535	64633.85
854.2261	1029.0979	65535	64634.45
854.3712	1031.0859	65535	64630.9
854.5163	1033.0731	65535	64629.5
854.6613	1035.0596	65535	64633.1
854.8064	1037.0454	65535	64627.05
854.9515	1039.0304	65535	64628.25
855.0965	1041.0148	65535	64629.45
855.2416	1042.9985	65535	64627.65
855.3867	1044.9814	65535	64629.85
855.5317	1046.9636	65535	64627
855.6768	1048.9452	65535	64628
855.8219	1050.926	65535	64628.55
855.9669	1052.9061	65535	64629.2
856.112	1054.8855	65535	64630.65
856.257	1056.8642	65535	64628.45
856.4021	1058.8421	65535	64625.3
856.5471	1060.8194	65535	64629.25
856.6921	1062.7959	65535	64629.7
856.8372	1064.7717	65535	64626.45
856.9822	1066.7469	65535	64627.9
857.1272	1068.7213	65535	64624.5
857.2723	1070.695	65535	64630
857.4173	1072.6679	65535	64629.15
857.5623	1074.6402	65535	64627.3
857.7073	1076.6117	65535	64622.8
857.8523	1078.5826	65535	64627.6
857.9973	1080.5527	65535	64625.6
858.1423	1082.5221	65535	64629
858.2873	1084.4908	65535	64631.95
858.4323	1086.4587	65535	64629.25
858.5773	1088.426	65535	64626.3
858.7223	1090.3925	65535	64623.15
858.8673	1092.3584	65535	64629
859.0123	1094.3235	65535	64629.05
859.1573	1096.2879	65535	64627.2
859.3022	1098.2515	65535	64627.7
859.4472	1100.2145	65535	64629
859.5922	1102.1767	65535	64629.1
859.7371	1104.1382	65535	64626.45
859.8821	1106.099	65535	64627.1
860.027	1108.0591	65535	64630.05
860.172	1110.0185	65535	64626.95
860.3169	1111.9771	65535	64628.5
860.4619	1113.9351	65535	64627.65
860.6068	1115.8923	65535	64627.25
860.7517	1117.8488	65535	64624.2
860.8967	1119.8045	65535	64630.75
861.0416	1121.7596	65535	64630.45
861.1865	1123.7139	65535	64629.9
861.3314	1125.6675	65535	64629.35
861.4763	1127.6204	65535	64630.15
861.6212	1129.5726	65535	64626.05
861.7661	1131.524	65535	64630.75
861.911	1133.4748	65535	64628.5
862.0559	1135.4248	65535	64627
862.2008	1137.3741	65535	64630.75
862.3457	1139.3226	65535	64627.7
862.4905	1141.2705	65535	64628.3
862.6354	1143.2176	65535	64622.65
862.7803	1145.164	65535	64625.5
862.9251	1147.1097	65535	64627.7
863.07	1149.0546	65535	64626.55
863.2148	1150.9989	65535	64630.8
863.3597	1152.9424	65535	64626.85
863.5045	1154.8852	65535	64631.7
863.6493	1156.8272	65535	64631
863.7942	1158.7686	65535	64621.8
863.939	1160.7092	65535	64626.9
864.0838	1162.6491	65535	64626.65
864.2286	1164.5883	65535	64629.5
864.3734	1166.5267	65535	64629
864.5182	1168.4644	65535	64627.35
864.663	1170.4014	65535	64625.6
864.8078	1172.3377	65535	64630.45
864.9526	1174.2732	65535	64628.9
865.0974	1176.2081	65535	64629
865.2421	1178.1421	65535	64625.7
865.3869	1180.0755	65535	64634.05
865.5317	1182.0082	65535	64629.2
865.6764	1183.9401	65535	64629.2
865.8212	1185.8713	65535	64630.95
865.9659	1187.8017	65535	64629.2
866.1106	1189.7315	65535	64633.3
866.2554	1191.6605	65535	64604.5
866.4001	1193.5888	65535	64631.3
866.5448	1195.5163	65535	64630.45
866.6895	1197.4432	65535	64626.4
866.8342	1199.3693	65535	64629.4
866.9789	1201.2947	65535	64628.1
867.1236	1203.2193	65535	64630.8
867.2683	1205.1432	65535	64629.25
867.413	1207.0664	65535	64629.95
867.5576	1208.9889	65535	64627
867.7023	1210.9106	65535	64630.85
867.847	1212.8316	65535	64629.6
867.9916	1214.7519	65535	64622.15
868.1363	1216.6715	65535	64631.25
868.2809	1218.5903	65535	64631.45
868.4255	1220.5084	65535	64630.35
868.5701	1222.4257	65535	64630.6
868.7148	1224.3424	65535	64628.9
868.8594	1226.2583	65535	64625.15
869.004	1228.1735	65535	64629.5
869.1486	1230.0879	65535	64628.2
869.2932	1232.0016	65535	64630.95
869.4377	1233.9146	65535	64629.55
869.5823	1235.8269	65535	64631.55
869.7269	1237.7384	65535	64634.9
869.8715	1239.6492	65535	64631.5
870.016	1241.5592	65535	64629
870.1606	1243.4686	65535	64630.2
870.3051	1245.3772	65535	64631.2
870.4496	1247.285	65535	64630.3
870.5941	1249.1922	65535	64629
870.7387	1251.0986	65535	64630.1
870.8832	1253.0042	65535	64629.7
871.0277	1254.9092	65535	64629.9
871.1722	1256.8134	65535	64632.4
871.3167	1258.7169	65535	64628.75
871.4611	1260.6196	65535	64632.65
871.6056	1262.5216	65535	64631.8
871.7501	1264.4229	65535	64633.2
871.8945	1266.3234	65535	64631.95
872.039	1268.2232	65535	64628.75
872.1834	1270.1223	65535	64629.1
872.3278	1272.0207	65535	64629.3
872.4723	1273.9183	65535	64624.3
872.6167	1275.8151	65535	64632.2
872.7611	1277.7113	65535	64630.8
872.9055	1279.6067	65535	64632.8
873.0499	1281.5014	65535	64628.95
873.1943	1283.3953	65535	64628.15
873.3386	1285.2885	65535	64630.55
873.483	1287.181	65535	64630.5
873.6274	1289.0727	65535	64630.1
873.7717	1290.9637	65535	64630.55
873.9161	1292.854	65535	64630.7
874.0604	1294.7435	65535	64629.15
874.2047	1296.6323	65535	64630.05
874.349	1298.5204	65535	64629
874.4933	1300.4077	65535	64628.25
874.6376	1302.2943	65535	64631.5
874.7819	1304.1802	65535	64631.55
874.9262	1306.0653	65535	64627.25
875.0705	1307.9497	65535	64630.45
875.2147	1309.8333	65535	64631
875.359	1311.7162	65535	64627.75
875.5032	1313.5984	65535	64626.5
875.6475	1315.4798	65535	64614.45
875.7917	1317.3605	65535	64613.95
875.9359	1319.2405	65535	64630
876.0801	1321.1197	65535	64629.85
876.2243	1322.9982	65535	64624.95
876.3685	1324.876	65535	64630
876.5127	1326.753	65535	64628.3
876.6569	1328.6293	65535	64629.15
876.801	1330.5048	65535	64626.95
876.9452	1332.3796	65535	64631.8
877.0893	1334.2537	65535	64608.75
877.2335	1336.127	65535	64630.95
877.3776	1337.9996	65535	64632.25
877.5217	1339.8714	65535	64630.4
877.6658	1341.7426	65535	64586.7
877.8099	1343.6129	65535	64629.45
877.954	1345.4826	65535	64629.9
878.0981	1347.3515	65535	64628.15
878.2422	1349.2196	65535	64631.35
878.3862	1351.087	65535	64632.55
878.5303	1352.9537	65535	64632.55
878.6743	1354.8197	65535	64629.55
878.8184	1356.6849	65535	64632.65
878.9624	1358.5493	65535	64628.85
879.1064	1360.4131	65535	64630.5
879.2504	1362.276	65535	64630.2
879.3944	1364.1383	65535	64630.65
879.5384	1365.9998	65535	64626.95
879.6823	1367.8606	65535	64630.2
879.8263	1369.7206	65535	64629.4
879.9702	1371.5799	65535	64628.65
880.1142	1373.4384	65535	64629.9
880.2581	1375.2962	65535	64629.9
880.402	1377.1533	65535	64630.6
880.5459	1379.0096	65535	64631.15
880.6898	1380.8652	65535	64631.85
880.8337	1382.7201	65535	64630.05
880.9776	1384.5742	65535	64630.55
881.1215	1386.4275	65535	64629.9
881.2653	1388.2802	65535	64630.55
881.4092	1390.132	65535	64631.75
881.553	1391.9832	65535	64630.5
881.6968	1393.8336	65535	64632.1
881.8406	1395.6832	65535	64627.25
881.9844	1397.5322	65535	64631.25
882.1282	1399.3803	65535	64627.9
882.272	1401.2278	65535	64631.75
882.4158	1403.0745	65535	64631.45
882.5595	1404.9204	65535	64631.55
882.7033	1406.7656	65535	64630.5
882.847	1408.6101	65535	64631.45
882.9908	1410.4538	65535	64631.15
883.1345	1412.2968	65535	64630.6
883.2782	1414.139	65535	64631.6
883.4219	1415.9805	65535	64630.4
883.5656	1417.8213	65535	64626.35
883.7092	1419.6613	65535	64632
883.8529	1421.5006	65535	64629.5
883.9965	1423.3391	65535	64631.1
884.1402	1425.1769	65535	64631.6
884.2838	1427.0139	65535	64629.05
884.4274	1428.8502	65535	64630.2
884.571	1430.6858	65535	64628.95
884.7146	1432.5206	65535	64631.5
884.8582	1434.3547	65535	64630.85
885.0018	1436.188	65535	64630.5
885.1453	1438.0206	65535	64630.45
885.2889	1439.8524	65535	64631.25
885.4324	1441.6835	65535	64633.65
885.5759	1443.5139	65535	64629.9
885.7194	1445.3435	65535	64632.3
885.8629	1447.1724	65535	64631.9
886.0064	1449.0005	65535	64634.3
886.1499	1450.8279	65535	64631.45
886.2933	1452.6545	65535	64632.9
886.4368	1454.4804	65535	64634
886.5802	1456.3056	65535	64624.25
886.7237	1458.13	65535	64631.75
886.8671	1459.9536	65535	64631.35
887.0105	1461.7766	65535	64632.95
887.1539	1463.5987	65535	64631.85
887.2972	1465.4202	65535	64632.45
887.4406	1467.2409	65535	64630
887.584	1469.0608	65535	64632.15
887.7273	1470.88	65535	64631.55
887.8706	1472.6984	65535	64631.85
888.0139	1474.5161	65535	64629.15
888.1572	1476.3331	65535	64633.05
888.3005	1478.1493	65535	64632.45
888.4438	1479.9648	65535	64632.8
888.5871	1481.7795	65535	64631.3
888.7303	1483.5935	65535	64631.45
888.8736	1485.4067	65535	64631.85
889.0168	1487.2192	65535	64630.2
889.16	1489.031	65535	64631.85
889.3032	1490.842	65535	64635.3
889.4464	1492.6522	65535	64634.65
889.5896	1494.4618	65535	64630.5
889.7327	1496.2705	65535	64633.55
889.8759	1498.0785	65535	64631.4
890.019	1499.8858	65535	64632.65
890.1622	1501.6924	65535	64632.2
890.3053	1503.4981	65535	64632.95
890.4484	1505.3032	65535	64630.2
890.5914	1507.1075	65535	64631.5
890.7345	1508.911	65535	64632.45
890.8776	1510.7138	65535	64631.75
891.0206	1512.5159	65535	64632.35
891.1637	1514.3172	65535	64630.9
891.3067	1516.1178	65535	64635.25
891.4497	1517.9176	65535	64630.45
891.5927	1519.7166	65535	64632.45
891.7357	1521.515	65535	64629.3
891.8786	1523.3126	65535	64632.2
892.0216	1525.1094	65535	64631.15
892.1645	1526.9055	65535	64634.3
892.3074	1528.7008	65535	64632.95
892.4503	1530.4954	65535	64628.15
892.5932	1532.2893	65535	64634.75
892.7361	1534.0824	65535	64629.7
892.879	1535.8747	65535	64632.15
893.0218	1537.6663	65535	64632.85
893.1647	1539.4572	65535	64633.7
893.3075	1541.2473	65535	64633.5
893.4503	1543.0367	65535	64635.6
893.5931	1544.8253	65535	64628.45
893.7359	1546.6132	65535	64631.4
893.8787	1548.4003	65535	64624.85
894.0214	1550.1867	65535	64624.45
894.1642	1551.9723	65535	64631.35
894.3069	1553.7572	65535	64634.25
894.4496	1555.5414	65535	64636.55
894.5923	1557.3247	65535	64634.75
894.735	1559.1074	65535	64635.6
894.8777	1560.8893	65535	64634.95
895.0204	1562.6705	65535	64636.4
895.163	1564.4509	65535	64636.1
895.3056	1566.2305	65535	64637.55
895.4482	1568.0094	65535	64636.25
895.5908	1569.7876	65535	64635.75
895.7334	1571.565	65535	64636.45
895.876	1573.3417	65535	64635.7
896.0186	1575.1176	65535	64636.25
896.1611	1576.8928	65535	64635.9
896.3036	1578.6672	65535	64638.35
896.4461	1580.4409	65535	64638.5
896.5886	1582.2138	65535	64635
896.7311	1583.986	65535	64636.95
896.8736	1585.7575	65535	64638.9
897.0161	1587.5282	65535	64637.55
897.1585	1589.2981	65535	64637.5
897.3009	1591.0673	65535	64637.75
897.4433	1592.8358	65535	64637.85
897.5857	1594.6035	65535	64636.35
897.7281	1596.3704	65535	64635.4
897.8705	1598.1366	65535	64638.6
898.0128	1599.9021	65534.65	64638.25
898.1551	1601.6668	65535	64634.95
898.2975	1603.4308	65535	64636.75
898.4398	1605.194	65535	64632.55
898.5821	1606.9564	65528.4	64631.1
898.7243	1608.7182	65534.3	64635.1
898.8666	1610.4791	65530.1	64636.55
899.0088	1612.2394	65535	64640.5
899.1511	1613.9988	65524.05	64625.7
899.2933	1615.7576	65535	64639.5
899.4355	1617.5156	65535	64632
899.5776	1619.2728	65535	64634.95
899.7198	1621.0293	65528.6	64631.7
899.862	1622.785	65527.05	64627
900.0041	1624.54	65533.85	64635.35
900.1462	1626.2942	65523.65	64625.8
900.2883	1628.0477	65503.35	64605.25
900.4304	1629.8005	65465.3	64564.7
900.5725	1631.5525	65516.8	64619.55
900.7145	1633.3037	65457.15	64561.45
900.8566	1635.0542	65442.85	64545.6
900.9986	1636.804	65485.85	64588.95
901.1406	1638.553	65406.4	64417.9
901.2826	1640.3013	65438.25	64540.1
901.4245	1642.0488	65394.6	64498.85
901.5665	1643.7955	65419.7	64524.45
901.7085	1645.5416	65388.7	64492.55
901.8504	1647.2868	65371.65	64475.25
901.9923	1649.0313	65423.95	64527.4
902.1342	1650.7751	65396.55	64497.1
902.2761	1652.5181	65367.7	64474.45
902.4179	1654.2604	65380.5	64483.9
902.5598	1656.0019	65386.15	64490.4
902.7016	1657.7427	65379.65	64483.35
902.8434	1659.4828	65414.4	64517.5
902.9852	1661.222	65371.9	64474.45
903.127	1662.9606	65417.75	64523.75
903.2687	1664.6984	65358.7	64462.2
903.4105	1666.4354	65372.25	64475.55
903.5522	1668.1717	65321.85	64424.9
903.6939	1669.9072	65242.7	64346.1
903.8356	1671.642	65243.1	64345.4
903.9773	1673.3761	65195.25	64300.4
904.119	1675.1094	65171.9	64275.2
904.2606	1676.8419	64920.15	64023.1
904.4022	1678.5737	65070.25	64173.25
904.5439	1680.3048	64989.3	64093.5
904.6855	1682.0351	64892	63994.55
904.827	1683.7646	64743.05	63843.55
904.9686	1685.4934	64899.8	64004.5
905.1101	1687.2215	64126.25	63228.1
905.2517	1688.9488	64767.35	63870.85
905.3932	1690.6754	63312.7	62419.4
905.5347	1692.4012	64190.35	63296.45
905.6761	1694.1263	64363.9	63468.8
905.8176	1695.8506	63566.35	62669.45
905.9591	1697.5742	63777.4	62882.35
906.1005	1699.297	63576	62680.65
906.2419	1701.0191	63745.85	62851.6
906.3833	1702.7404	62668.45	61773.35
906.5246	1704.461	62308.7	61411.4
906.666	1706.1808	63069.95	62171.7
906.8073	1707.8999	62643.9	61748.35
906.9487	1709.6182	62449.95	61553.1
907.09	1711.3358	62336.25	61441.65
907.2313	1713.0527	62132.85	61241.05
907.3725	1714.7688	62226.3	61325.95
907.5138	1716.4841	61014.5	60119.95
907.655	1718.1987	61487.55	60585.65
907.7962	1719.9126	61186.45	60290.8
907.9374	1721.6257	61467.9	60572.25
908.0786	1723.338	61445.3	60549.25
908.2198	1725.0496	60060.95	59165.85
908.3609	1726.7605	60193.7	59301.25
908.502	1728.4706	59788.65	58892.4
908.6431	1730.18	60334.75	59440.7
908.7842	1731.8886	59706.35	58812.45
908.9253	1733.5964	59278.55	58363.75
909.0664	1735.3036	59922.05	59023.35
909.2074	1737.0099	59389.9	58494.05
909.3484	1738.7156	58851.3	57957.75
909.4894	1740.4204	58684.2	57786.6
909.6304	1742.1246	58874.7	57978.75
909.7714	1743.8279	58966.6	58071.25
909.9123	1745.5306	58825.2	57929.6
910.0532	1747.2325	57565.3	56672.75
910.1941	1748.9336	57597.2	56703
910.335	1750.634	57761.55	56866.7
910.4759	1752.3336	58162.35	57269.05
910.6168	1754.0325	57244.4	56351.9
910.7576	1755.7307	57891.9	56997.1
910.8984	1757.4281	56862.9	55969.35
911.0392	1759.1247	57604.6	56701.4
911.18	1760.8206	56618.15	55718.6
911.3208	1762.5158	56669	55770.6
911.4615	1764.2102	56833.7	55941.05
911.6022	1765.9039	56548.85	55654.75
911.7429	1767.5968	56348.65	55457.45
911.8836	1769.289	56175.6	55281.15
912.0243	1770.9804	56225.9	55330.05
912.1649	1772.6711	56011.1	55116.85
912.3056	1774.361	55745.1	54848.75
912.4462	1776.0502	55753.8	54858.15
912.5868	1777.7386	55193.05	54295.75
912.7274	1779.4263	55345.1	54448.3
912.8679	1781.1132	55371.65	54478.1
913.0084	1782.7994	55057.6	54164.4
913.149	1784.4849	55169.25	54277.5
913.2895	1786.1696	54294.2	53395.45
913.4299	1787.8535	54608.5	53715.6
913.5704	1789.5367	54631.55	53737.6
913.7108	1791.2192	54196.3	53302.65
913.8513	1792.9009	53955.1	53031.6
913.9917	1794.5818	54027.5	53135.25
914.132	1796.2621	53721.3	52827.9
914.2724	1797.9415	53723.8	52829.45
914.4128	1799.6202	53588.2	52694.55
914.5531	1801.2982	53634.7	52740.05
914.6934	1802.9755	53168.8	52275.65
914.8337	1804.6519	53019	52126.9
914.9739	1806.3277	53283.7	52391.15
915.1142	1808.0027	52477.4	51584.25
915.2544	1809.6769	52661.85	51769.45
915.3946	1811.3504	52703.1	51809.4
915.5348	1813.0231	52108.5	51213.9
915.675	1814.6951	52352.15	51458.65
915.8151	1816.3664	52178.7	51283.5
915.9553	1818.0369	52092.4	51197.55
916.0954	1819.7067	51875.25	50981.35
916.2355	1821.3757	52023.65	51129.15
916.3755	1823.044	51498.85	50606.8
916.5156	1824.7115	51375.1	50481.2
916.6556	1826.3783	51324.9	50430.9
916.7956	1828.0443	51207.6	50315.7
916.9356	1829.7096	50962.6	50067.05
917.0756	1831.3741	50839.55	49944.05
917.2155	1833.0379	50821.15	49929.4
917.3555	1834.701	50637.65	49743.15
917.4954	1836.3633	50443.95	49550.75
917.6353	1838.0248	50364.8	49469.95
917.7751	1839.6856	50221.55	49327.45
917.915	1841.3457	50063.05	49171.35
918.0548	1843.005	50105.3	49210.8
918.1946	1844.6636	49960.65	49069.25
918.3344	1846.3214	49727.95	48835.85
918.4742	1847.9785	49736.55	48844.75
918.6139	1849.6349	49614.15	48719.95
918.7537	1851.2904	49551.15	48647.8
918.8934	1852.9453	49273.8	48378.45
919.0331	1854.5994	49135.6	48239.55
919.1727	1856.2528	49251	48353.3
919.3124	1857.9054	49022	48128.8
919.452	1859.5572	48872.55	47981.4
919.5916	1861.2083	48795.4	47900.55
919.7312	1862.8587	48903.85	48011.8
919.8708	1864.5084	48467.2	47572.8
920.0103	1866.1572	48404.45	47512.95
920.1498	1867.8054	48151.55	47255.95
920.2893	1869.4528	48154.4	47260.95
920.4288	1871.0994	47938.5	47045.85
920.5683	1872.7453	47860.85	46967.55
920.7077	1874.3905	47753.3	46853.8
920.8471	1876.0349	47567.6	46671.7
920.9865	1877.6786	47578.1	46684.6
921.1259	1879.3215	47505.55	46614.3
921.2653	1880.9637	47356.2	46462.85
921.4046	1882.6051	47227.35	46333.6
921.5439	1884.2458	47081.9	46187.85
921.6832	1885.8858	46887.45	45992.3
921.8225	1887.525	46851.85	45958.1
921.9617	1889.1634	46631.2	45738.65
922.101	1890.8011	46465.1	45571.5
922.2402	1892.4381	46305.05	45412.35
922.3794	1894.0743	46288.95	45396.5
922.5185	1895.7098	46135.25	45243.25
922.6577	1897.3446	46012.3	45119.3
922.7968	1898.9786	45910.5	45013.3
922.9359	1900.6118	45738.35	44844.75
923.075	1902.2443	45525.65	44630.75
923.214	1903.8761	45431.2	44537.3
923.3531	1905.5071	45166.4	44272.5
923.4921	1907.1374	44988.95	44095.6
923.6311	1908.7669	44971.7	44078.55
923.77	1910.3957	44881.95	43990.05
923.909	1912.0237	44538.3	43647
924.0479	1913.651	44444	43550.1
924.1868	1915.2776	44351.25	43459.25
924.3257	1916.9034	44143	43250.75
924.4646	1918.5285	43974.35	43082
924.6034	1920.1528	43753.05	42861.2
924.7422	1921.7764	43729.85	42839
924.881	1923.3992	43540.35	42648.1
925.0198	1925.0213	43220.9	42327.55
925.1586	1926.6427	43102.8	42211.6
925.2973	1928.2633	43069.2	42068.45
925.436	1929.8832	42874.45	41976.65
925.5747	1931.5023	42639.2	41746.65
925.7134	1933.1207	42599.5	41707.75
925.852	1934.7383	42474.7	41581
925.9906	1936.3552	42262.75	41370.8
926.1292	1937.9714	42202	41310.35
926.2678	1939.5868	41986.4	41092.8
926.4064	1941.2015	41778	40883.1
926.5449	1942.8154	41605.75	40713.95
926.6834	1944.4286	41449.25	40555.9
926.8219	1946.041	41249.25	40337.65
926.9604	1947.6528	41034.35	40135.7
927.0988	1949.2637	40958.9	40066.9
927.2372	1950.8739	40821.05	39926.95
927.3756	1952.4834	40733.85	39840.9
927.514	1954.0921	40641.9	39747.8
927.6523	1955.7001	40517.85	39620.7
927.7907	1957.3074	40385.85	39493.75
927.929	1958.9139	40180.45	39287.35
928.0673	1960.5197	40060.45	39169.4
928.2055	1962.1247	39846.6	38953.55
928.3438	1963.729	39658.35	38766.45
928.482	1965.3325	39512.35	38598
928.6202	1966.9353	39417.25	38525.05
928.7584	1968.5374	39305.95	38413.45
928.8965	1970.1387	39156.9	38264.95
929.0346	1971.7393	38985.3	38093
929.1727	1973.3392	38916.55	38024
929.3108	1974.9383	38739.35	37847.4
929.4489	1976.5366	38551.85	37660.65
929.5869	1978.1342	38541.25	37647.65
929.7249	1979.7311	38383.95	37490.5
929.8629	1981.3273	38258.35	37367.95
930.0009	1982.9227	38084.7	37192.15
930.1388	1984.5173	37928.7	37037.6
930.2767	1986.1112	37798.65	36906.7
930.4146	1987.7044	37764.55	36876.15
930.5525	1989.2968	37607.9	36714.85
930.6904	1990.8885	37488.4	36592.45
930.8282	1992.4795	37411.25	36516.15
930.966	1994.0697	37202.8	36311.5
931.1038	1995.6592	37076.4	36184.95
931.2415	1997.2479	36982	36089.85
931.3793	1998.8359	36859.55	35967.25
931.517	2000.4232	36693	35802.75
931.6547	2002.0097	36534.25	35645
931.7923	2003.5955	36341.75	35450.35
931.93	2005.1805	36345.95	35450.9
932.0676	2006.7648	36211.35	35318.3
932.2052	2008.3484	36131.2	35236.15
932.3427	2009.9312	36144.85	35250.25
932.4803	2011.5133	35940.7	35048.75
932.6178	2013.0946	35825.8	34936.2
932.7553	2014.6752	35731.2	34842.55
932.8928	2016.2551	35618.45	34728.95
933.0302	2017.8342	35467.45	34576.55
933.1676	2019.4126	35327.3	34436.65
933.305	2020.9902	35181.2	34292.45
933.4424	2022.5672	35128.75	34236.8
933.5798	2024.1433	35035.3	34138.55
933.7171	2025.7188	34882.55	33994.55
933.8544	2027.2935	34757	33866.3
933.9917	2028.8674	34601.05	33711.4
934.129	2030.4406	34543.1	33654.25
934.2662	2032.0131	34306.45	33416.5
934.4034	2033.5849	34210.25	33313
934.5406	2035.1559	34176.85	33285.4
934.6778	2036.7261	34106.45	33214.85
934.8149	2038.2957	33992.3	33101.8
934.952	2039.8645	33941.45	33050.85
935.0891	2041.4325	33922.15	33032.4
935.2262	2042.9998	33716.35	32824.55
935.3632	2044.5664	33670.6	32777.15
935.5002	2046.1323	33564.15	32675.25
935.6372	2047.6974	33413	32523.35
935.7742	2049.2617	33324	32435.8
935.9111	2050.8254	33314.05	32403.3
936.048	2052.3883	33257.95	32363.85
936.1849	2053.9504	33097.8	32206.75
936.3218	2055.5118	33005.45	32112.6
936.4586	2057.0725	32830.75	31935.8
936.5955	2058.6325	32741.05	31850.05
936.7323	2060.1917	32582.8	31695
936.869	2061.7502	32564.1	31670.8
937.0058	2063.3079	32421.3	31531.15
937.1425	2064.8649	32316.15	31424.2
937.2792	2066.4212	32186.1	31293.5
937.4159	2067.9767	32144.85	31256
937.5525	2069.5315	31955.75	31065.1
937.6891	2071.0856	31802.1	30911.25
937.8257	2072.6389	31660.35	30766.25
937.9623	2074.1915	31549.15	30659.35
938.0989	2075.7433	31417.35	30524.55
938.2354	2077.2945	31353.95	30465.5
938.3719	2078.8448	31231.85	30340.1
938.5084	2080.3945	31087.15	30196.45
938.6448	2081.9434	31079.65	30187.75
938.7812	2083.4916	30999.55	30107.6
938.9176	2085.039	30863.1	29969.45
939.054	2086.5857	30754.85	29861.4
939.1903	2088.1317	30717.4	29826.8
939.3267	2089.677	30601.25	29709
939.463	2091.2215	30474.3	29580.75
939.5992	2092.7652	30416.65	29523.7
939.7355	2094.3083	30318.4	29426.95
939.8717	2095.8506	30297.95	29407.7
940.0079	2097.3921	30253.45	29363.45
940.1441	2098.933	30091.5	29201.25
940.2802	2100.4731	30003.1	29113.25
940.4163	2102.0124	29984.4	29083.05
940.5524	2103.5511	29898.75	29007.3
940.6885	2105.089	29829.05	28937.8
940.8245	2106.6261	29767.5	28876.5
940.9606	2108.1626	29645.75	28753.4
941.0965	2109.6983	29553.5	28632.2
941.2325	2111.2332	29462.05	28570.4
941.3684	2112.7675	29414.75	28522.65
941.5044	2114.301	29314.65	28421.2
941.6403	2115.8337	29252.15	28359.75
941.7761	2117.3657	29170	28278.7
941.912	2118.897	29038.45	28145.95
942.0478	2120.4276	28964.2	28066.65
942.1835	2121.9575	28810	27918.8
942.3193	2123.4866	28875.15	27971.45
942.455	2125.0149	28730.6	27836.95
942.5907	2126.5426	28551.75	27662.4
942.7264	2128.0695	28487.85	27591.85
942.8621	2129.5956	28430.25	27539.35
942.9977	2131.1211	28404.3	27510.1
943.1333	2132.6458	28266.05	27375.6
943.2689	2134.1698	28197.55	27306.55
943.4044	2135.693	28111.15	27215.25
943.54	2137.2155	28045.3	27152.75
943.6755	2138.7373	28001.6	27111
943.8109	2140.2584	27841.85	26951.1
943.9464	2141.7787	27785.65	26890.2
944.0818	2143.2983	27693.05	26803.4
944.2172	2144.8171	27528.1	26640.25
944.3526	2146.3353	27440.65	26547.75
944.4879	2147.8527	27328.15	26438.45
944.6232	2149.3693	27286	26394.6
944.7585	2150.8853	27188.75	26297.2
944.8938	2152.4005	27055.75	26163.25
945.029	2153.9149	27024.55	26133.2
945.1642	2155.4287	26934.65	26041.6
945.2994	2156.9417	26901.45	26006.35
945.4346	2158.454	26786.65	25893.9
945.5697	2159.9655	26701.65	25810.65
945.7048	2161.4764	26625.6	25736.05
945.8399	2162.9865	26521.7	25629.9
945.9749	2164.4958	26517.85	25626.05
946.1099	2166.0045	26351.05	25457.05
946.2449	2167.5124	26326.65	25435.3
946.3799	2169.0195	26232.05	25341.9
946.5148	2170.526	26198.6	25306.9
946.6498	2172.0317	26130.75	25238.95
946.7846	2173.5367	26065.05	25173.65
946.9195	2175.0409	25982.55	25091.2
947.0543	2176.5445	25977.2	25086.4
947.1891	2178.0473	25840.1	24948.4
947.3239	2179.5494	25708.55	24811.8
947.4587	2181.0507	25616.15	24722.15
947.5934	2182.5513	25533.65	24642.55
947.7281	2184.0512	25496.85	24605.7
947.8628	2185.5504	25419.65	24529
947.9974	2187.0488	25287.05	24395.4
948.132	2188.5465	25165.4	24274.65
948.2666	2190.0435	25070.35	24178
948.4012	2191.5397	24980.45	24089.2
948.5357	2193.0353	24895.25	24004.6
948.6702	2194.5301	24755.6	23861.95
948.8047	2196.0241	24666.7	23775.1
948.9392	2197.5175	24651.95	23760.65
949.0736	2199.0101	24509.05	23613.9
949.208	2200.502	24397.1	23507.9
949.3424	2201.9931	24332.65	23440.45
949.4767	2203.4835	24223.2	23329.85
949.611	2204.9733	24177.65	23280.8
949.7453	2206.4622	24094.9	23202.6
949.8796	2207.9505	24014.15	23120.95
950.0138	2209.438	23849.85	22960.2
950.148	2210.9248	23824.25	22930.7
950.2822	2212.4109	23741.1	22849.05
950.4164	2213.8962	23613.8	22719.15
950.5505	2215.3809	23564.95	22671.25
950.6846	2216.8648	23555.2	22662.95
950.8186	2218.3479	23440.2	22543.75
950.9527	2219.8304	23354.7	22459.5
951.0867	2221.3121	23251.05	22356.55
951.2207	2222.7931	23165.35	22272.9
951.3546	2224.2733	23099.2	22206.4
951.4886	2225.7529	23027.05	22135.65
951.6225	2227.2317	22890.75	21996.8
951.7563	2228.7098	22876.4	21985.05
951.8902	2230.1872	22742.75	21850.65
952.024	2231.6638	22747.75	21856.65
952.1578	2233.1397	22600.7	21704.8
952.2916	2234.6149	22562.4	21672.75
952.4253	2236.0894	22496.9	21604.6
952.559	2237.5632	22416	21521.85
952.6927	2239.0362	22268.95	21377.45
952.8263	2240.5085	22225.25	21334.55
952.9599	2241.9801	22129.7	21239.05
953.0935	2243.4509	22092.6	21200.8
953.2271	2244.921	22015.9	21123.4
953.3606	2246.3904	21907.45	21012
953.4941	2247.8591	21860.05	20970.9
953.6276	2249.3271	21794.15	20903.05
953.7611	2250.7943	21740.75	20848.75
953.8945	2252.2608	21624.3	20733.95
954.0279	2253.7266	21572.4	20682.45
954.1612	2255.1917	21486.45	20596.4
954.2946	2256.656	21421.05	20529.7
954.4279	2258.1197	21365.65	20475.2
954.5612	2259.5826	21297.8	20404.8
954.6944	2261.0447	21264.55	20373.05
954.8276	2262.5062	21150.9	20256.25
954.9608	2263.9669	21105.15	20210.6
955.094	2265.4269	21053.1	20161.15
955.2271	2266.8862	20953.75	20062.65
955.3602	2268.3448	20915.7	20024.3
955.4933	2269.8026	20911.25	20020.05
955.6264	2271.2598	20812.05	19918.3
955.7594	2272.7162	20673.15	19785.15
955.8924	2274.1719	20682.15	19791
956.0253	2275.6268	20600.3	19708.1
956.1583	2277.0811	20547.4	19655.05
956.2912	2278.5346	20475.4	19584
956.4241	2279.9874	20460.15	19570.35
956.5569	2281.4395	20387.05	19495.95
956.6897	2282.8908	20287.2	19391.25
956.8225	2284.3414	20274.15	19380.4
956.9553	2285.7914	20150.5	19259.25
957.088	2287.2406	20067.4	19176.1
957.2207	2288.689	20040.1	19149.55
957.3534	2290.1368	19938.85	19045.95
957.486	2291.5838	19886.95	18992.5
957.6186	2293.0302	19834.1	18940.9
957.7512	2294.4758	19774.5	18882.25
957.8838	2295.9206	19701.9	18808.35
958.0163	2297.3648	19617.4	18726.4
958.1488	2298.8082	19578	18687.2
958.2813	2300.251	19538.9	18647.75
958.4137	2301.693	19468	18575.05
958.5461	2303.1343	19457.7	18565.4
958.6785	2304.5748	19336.3	18443.95
958.8108	2306.0147	19286.1	18394.5
958.9432	2307.4538	19210.15	18317.3
959.0754	2308.8922	19158.3	18269.8
959.2077	2310.3299	19087.6	18196.4
959.3399	2311.7669	19034.55	18142.7
959.4721	2313.2031	18979.1	18087.9
959.6043	2314.6387	18940.45	18048.05
959.7365	2316.0735	18836.6	17945.2
959.8686	2317.5076	18795	17903.35
960.0006	2318.941	18740.35	17848.9
960.1327	2320.3737	18671.85	17777.6
960.2647	2321.8056	18616.85	17724.55
960.3967	2323.2369	18513.65	17621.35
960.5287	2324.6674	18486.15	17592.35
960.6606	2326.0972	18406.15	17512.8
960.7925	2327.5263	18360.6	17470.35
960.9244	2328.9547	18284.45	17392.9
961.0562	2330.3823	18253.8	17363.1
961.1881	2331.8092	18205.5	17309.8
961.3198	2333.2355	18130.5	17238
961.4516	2334.661	18106.9	17214.7
961.5833	2336.0858	18059.7	17166.95
961.715	2337.5098	18025.9	17136.1
961.8467	2338.9332	17952.95	17062.65
961.9783	2340.3558	17872.9	16979.2
962.1099	2341.7778	17841.55	16950.15
962.2415	2343.199	17763.15	16868.35
962.373	2344.6195	17684.4	16792.75
962.5045	2346.0393	17640.8	16750.45
962.636	2347.4583	17617.4	16723
962.7675	2348.8767	17547.9	16656
962.8989	2350.2943	17474.2	16583.85
963.0303	2351.7113	17451.55	16557.65
963.1617	2353.1275	17376.1	16482.45
963.293	2354.543	17303.55	16404.7
963.4243	2355.9578	17258.4	16367.4
963.5556	2357.3718	17139.05	16247.9
963.6868	2358.7852	17085.85	16192.6
963.818	2360.1978	17029.95	16138
963.9492	2361.6098	17000.3	16110.75
964.0803	2363.021	16913.75	16019.95
964.2114	2364.4315	16886.6	15996.75
964.3425	2365.8413	16834.85	15941.75
964.4736	2367.2504	16749.15	15858.8
964.6046	2368.6587	16662.25	15770.5
964.7356	2370.0664	16568.3	15676.65
964.8666	2371.4733	16555.3	15665.5
964.9975	2372.8795	16485.9	15596.85
965.1284	2374.285	16432.55	15542.25
965.2593	2375.6899	16361.95	15470
965.3901	2377.0939	16269.65	15378.95
965.5209	2378.4973	16216.75	15328.25
965.6517	2379.9	16139.6	15249.05
965.7825	2381.3019	16112.1	15221.05
965.9132	2382.7032	16041.15	15150.05
966.0439	2384.1037	15992.05	15103.5
966.1745	2385.5035	15945.4	15056.3
966.3051	2386.9027	15852.1	14963.35
966.4357	2388.3011	15843.1	14949.95
966.5663	2389.6987	15809.75	14918.95
966.6968	2391.0957	15730.95	14839.75
966.8273	2392.492	15649.2	14759.55
966.9578	2393.8876	15540.3	14649.95
967.0882	2395.2824	15536.9	14646.35
967.2186	2396.6765	15455.15	14566.15
967.349	2398.07	15350.35	14459.65
967.4793	2399.4627	15331.65	14441.2
967.6097	2400.8547	15261.75	14371.8
967.7399	2402.246	15199.6	14303.55
967.8702	2403.6366	15131.7	14239.3
968.0004	2405.0265	15081.2	14192.35
968.1306	2406.4156	15020.55	14126.1
968.2607	2407.8041	14945.5	14050.5
968.3909	2409.1918	14895.2	14003.05
968.521	2410.5789	14831.5	13939.55
968.651	2411.9652	14804.05	13911.7
968.781	2413.3508	14717.35	13826
968.911	2414.7358	14673.3	13780.6
969.041	2416.12	14635.8	13745.5
969.1709	2417.5035	14606.75	13715.6
969.3008	2418.8863	14530.4	13637.25
969.4307	2420.2684	14478	13586.2
969.5606	2421.6497	14419.9	13527.4
969.6904	2423.0304	14304.85	13416.05
969.8201	2424.4104	14310.7	13419.8
969.9499	2425.7896	14210.7	13316
970.0796	2427.1682	14194.5	13304.4
970.2093	2428.546	14199.9	13308.7
970.3389	2429.9232	14130.15	13238.9
970.4685	2431.2996	14092.9	13203.55
970.5981	2432.6753	14047.8	13159.1
970.7277	2434.0503	14005.05	13114.75
970.8572	2435.4246	13931.45	13040.75
970.9867	2436.7982	13911.3	13016.8
971.1161	2438.1711	13834.55	12943.25
971.2456	2439.5433	13823.25	12932.65
971.375	2440.9148	13753.8	12858.2
971.5043	2442.2856	13653.95	12764.55
971.6336	2443.6557	13642.8	12750.85
971.7629	2445.025	13595.8	12706.75
971.8922	2446.3937	13585.55	12694.5
972.0214	2447.7617	13512.55	12621.8
972.1506	2449.1289	13489.4	12599.95
972.2798	2450.4955	13449.4	12555.3
972.4089	2451.8613	13404.45	12514.25
972.538	2453.2265	13359.95	12468.65
972.6671	2454.5909	13333.05	12442.3
972.7961	2455.9546	13296.6	12404.65
972.9251	2457.3177	13229.4	12340.15
973.0541	2458.68	13176.35	12283.7
973.1831	2460.0416	13172.95	12282.35
973.312	2461.4025	13142.2	12248.2
973.4408	2462.7627	13105.35	12200.4
973.5697	2464.1222	13033.75	12143.45
973.6985	2465.4811	13001.85	12111.2
973.8273	2466.8392	12960.95	12071.3
973.956	2468.1966	12923.5	12028.2
974.0847	2469.5533	12899.4	12007.1
974.2134	2470.9093	12857.7	11966.35
974.3421	2472.2645	12816.45	11924.8
974.4707	2473.6191	12753.85	11863.8
974.5993	2474.973	12734.55	11843.4
974.7278	2476.3262	12682.65	11791.05
974.8563	2477.6787	12650.55	11761.3
974.9848	2479.0305	12556.4	11664.6
975.1132	2480.3816	12547.75	11656
975.2417	2481.7319	12470.1	11580.2
975.37	2483.0816	12445.95	11552.55
975.4984	2484.4306	12386.65	11497.15
975.6267	2485.7789	12354	11462.9
975.755	2487.1264	12273.8	11381.85
975.8833	2488.4733	12238.1	11349.7
976.0115	2489.8195	12195.8	11289.35
976.1397	2491.165	12133.8	11239.9
976.2678	2492.5097	12108.8	11215.25
976.3959	2493.8538	12060.1	11170
976.524	2495.1972	11976.55	11084.2
976.6521	2496.5398	11931.95	11040.45
976.7801	2497.8818	11915.3	11022.65
976.9081	2499.2231	11887.95	10997.1
977.036	2500.5637	11845.7	10953.15
977.164	2501.9035	11803	10911.5
977.2918	2503.2427	11776.3	10883.05
977.4197	2504.5812	11712.3	10820.15
977.5475	2505.919	11670.35	10777.8
977.6753	2507.256	11664.7	10774.75
977.8031	2508.5924	11597.35	10705.25
977.9308	2509.9281	11553.6	10658.95
978.0585	2511.2631	11512.6	10621.55
978.1861	2512.5974	11484.35	10596
978.3137	2513.9309	11409.4	10518.6
978.4413	2515.2638	11408	10491.75
978.5689	2516.596	11382.1	10492.6
978.6964	2517.9275	11280.65	10388.55
978.8239	2519.2583	11238.8	10346.05
978.9513	2520.5884	11204.1	10312.15
979.0788	2521.9178	11182.5	10293.85
979.2062	2523.2465	11135.95	10247.5
979.3335	2524.5745	11125.95	10236
979.4608	2525.9018	11068.15	10177.35
979.5881	2527.2284	11052.55	10162.25
979.7154	2528.5543	10999.15	10109.85
979.8426	2529.8796	10979.25	10086.65
979.9698	2531.2041	10939.4	10047.3
980.0969	2532.5279	10911.6	10020.9
980.224	2533.851	10901.85	10010.55
980.3511	2535.1735	10834.25	9944.4
980.4781	2536.4952	10805.85	9913.1
980.6052	2537.8163	10804.25	9913.7
980.7321	2539.1366	10767.6	9875.8
980.8591	2540.4562	10721.2	9829.25
980.986	2541.7752	10732.7	9843.7
981.1129	2543.0935	10686.65	9794.65
981.2397	2544.411	10661.45	9770.25
981.3665	2545.7279	10637.5	9745.75
981.4933	2547.0441	10620.15	9729.7
981.62	2548.3596	10588.25	9694.25
981.7467	2549.6744	10585.9	9695.35
981.8734	2550.9885	10498.35	9600.2
982.0001	2552.3019	10460.7	9570.5
982.1267	2553.6146	10475.75	9585.55
982.2532	2554.9266	10419.65	9527.35
982.3798	2556.2379	10372.25	9480.6
982.5063	2557.5485	10374.4	9484.2
982.6327	2558.8585	10337.25	9439
982.7592	2560.1677	10314.9	9419.35
982.8856	2561.4762	10285.9	9393.85
983.0119	2562.7841	10276.65	9383.4
983.1383	2564.0913	10247.1	9357.3
983.2646	2565.3977	10212.4	9321.75
983.3908	2566.7035	10190.35	9299.9
983.517	2568.0086	10155.55	9264.6
983.6432	2569.313	10160.35	9267.85
983.7694	2570.6167	10133.15	9237.6
983.8955	2571.9197	10093.5	9202.9
984.0216	2573.222	10079.5	9186.9
984.1476	2574.5236	10038.35	9146.6
984.2737	2575.8246	10012.85	9119.35
984.3996	2577.1248	9994.9	9101.35
984.5256	2578.4244	9964.5	9073.65
984.6515	2579.7232	9950.45	9060.35
984.7774	2581.0214	9962.55	9046.15
984.9032	2582.3189	9904.8	9014.9
985.029	2583.6157	9890.35	8993.15
985.1548	2584.9118	9886.9	8995.45
985.2806	2586.2072	9846.7	8954.7
985.4063	2587.5019	9799.15	8907.05
985.5319	2588.7959	9797.9	8908.35
985.6576	2590.0893	9741.85	8848.35
985.7832	2591.3819	9703.75	8813.95
985.9087	2592.6739	9686.9	8795.95
986.0343	2593.9652	9650.65	8758.65
986.1597	2595.2557	9619.9	8728.1
986.2852	2596.5456	9591.75	8698.7
986.4106	2597.8348	9572.7	8681.05
986.536	2599.1234	9528.75	8638.5
986.6614	2600.4112	9466.95	8576.5
986.7867	2601.6983	9455.65	8562.95
986.912	2602.9848	9436.4	8544.35
987.0372	2604.2705	9404.15	8504.45
987.1624	2605.5556	9355.85	8464.4
987.2876	2606.84	9320.8	8430.45
987.4128	2608.1237	9282.8	8391.35
987.5379	2609.4067	9232.45	8339.75
987.6629	2610.689	9209.45	8308.8
987.788	2611.9707	9202.7	8310.5
987.913	2613.2516	9171.65	8275.7
988.0379	2614.5319	9118.05	8227.2
988.1629	2615.8115	9084.35	8194.8
988.2878	2617.0903	9036.05	8144.2
988.4126	2618.3685	9002.15	8109.9
988.5375	2619.6461	8969.15	8078.5
988.6622	2620.9229	8958.75	8066.9
988.787	2622.199	8927.2	8036.05
988.9117	2623.4745	8896.55	8004.85
989.0364	2624.7493	8849.2	7960.75
989.161	2626.0234	8827.2	7937.7
989.2857	2627.2968	8782.8	7891.85
989.4102	2628.5695	8740.7	7848.05
989.5348	2629.8415	8745.15	7855.3
989.6593	2631.1128	8701.3	7810.15
989.7837	2632.3835	8644.05	7753.3
989.9082	2633.6535	8600.85	7711.85
990.0326	2634.9228	8616.55	7728.75
990.1569	2636.1914	8569.65	7679.95
990.2812	2637.4593	8537.7	7646.45
990.4055	2638.7265	8492.65	7599.4
990.5298	2639.9931	8484.95	7594.75
990.654	2641.259	8446.4	7552.9
990.7782	2642.5242	8428	7537.05
990.9023	2643.7887	8423.8	7532.65
991.0264	2645.0525	8381.65	7490.4
991.1505	2646.3156	8355.2	7463.8
991.2745	2647.5781	8323.4	7433.6
991.3985	2648.8398	8285.35	7394.6
991.5225	2650.1009	8268.05	7370.55
991.6464	2651.3613	8231.6	7340.9
991.7703	2652.6211	8210.65	7319.35
991.8942	2653.8801	8189.6	7299.65
992.018	2655.1385	8171.4	7279.6
992.1418	2656.3961	8140.8	7250.1
992.2655	2657.6531	8151.3	7259.85
992.3892	2658.9094	8113.25	7221.65
992.5129	2660.1651	8082.7	7191
992.6366	2661.42	8062.45	7171.2
992.7602	2662.6743	8040.7	7148.35
992.8837	2663.9279	8008.6	7116.85
993.0073	2665.1808	7987.5	7095.55
993.1307	2666.433	7967.05	7074.5
993.2542	2667.6846	7949.55	7057.9
993.3776	2668.9354	7921.8	7026.45
993.501	2670.1856	7915.1	7023.6
993.6244	2671.4351	7878.55	6989.8
993.7477	2672.6839	7881.2	6989.85
993.8709	2673.9321	7843.3	6952.05
993.9942	2675.1795	7812.3	6920.15
994.1174	2676.4263	7773.35	6882.25
994.2405	2677.6724	7771.8	6882.4
994.3637	2678.9179	7761.6	6871.6
994.4868	2680.1626	7728.1	6837.35
994.6098	2681.4067	7710.85	6818.15
994.7328	2682.6501	7681.8	6789.8
994.8558	2683.8928	7666.25	6774.9
994.9788	2685.1348	7612.05	6722.2
995.1017	2686.3761	7566.2	6675.65
995.2245	2687.6168	7558.6	6666.55
995.3474	2688.8568	7545.65	6653.95
995.4702	2690.0961	7517.1	6627.5
995.5929	2691.3348	7473.55	6580.2
995.7156	2692.5727	7459.55	6567.05
995.8383	2693.81	7435	6544.35
995.961	2695.0466	7424.35	6535.3
996.0836	2696.2826	7401.8	6508.95
996.2062	2697.5178	7393.85	6500.15
996.3287	2698.7524	7355.95	6466.05
996.4512	2699.9863	7355.2	6461.35
996.5737	2701.2195	7296.6	6408.8
996.6961	2702.452	7301.45	6410.15
996.8185	2703.6839	7275	6383.95
996.9408	2704.9151	7247.5	6358
997.0631	2706.1456	7211.95	6321.05
997.1854	2707.3755	7191.85	6299.55
997.3077	2708.6046	7185.1	6293
997.4299	2709.8331	7183.75	6293.8
997.552	2711.0609	7143.15	6251.6
997.6742	2712.2881	7143.55	6253.1
997.7963	2713.5145	7143.6	6249.95
997.9183	2714.7403	7113.45	6223.35
998.0403	2715.9654	7079.8	6190.2
998.1623	2717.1899	7062	6157.5
998.2842	2718.4136	7042.8	6152.75
998.4062	2719.6367	7038.4	6147.35
998.528	2720.8591	7017.5	6121
998.6498	2722.0809	6984	6090.45
998.7716	2723.3019	6964	6070.95
998.8934	2724.5223	6979.1	6088.05
999.0151	2725.7421	6940.35	6050.65
999.1368	2726.9611	6922.55	6031.15
999.2584	2728.1795	6906.6	6011.65
999.38	2729.3972	6899.75	6008.95
999.5016	2730.6142	6843.25	5938.35
999.6231	2731.8306	6785.5	5892
999.7446	2733.0462	6774	5882.45
999.8661	2734.2612	6730.5	5837.5
999.9875	2735.4756	6695.65	5804.4
1000.1089	2736.6892	6657.95	5766
1000.2302	2737.9022	6625.35	5735.65
1000.3515	2739.1145	6568.65	5679.8
1000.4728	2740.3262	6544.15	5648.6
1000.594	2741.5372	6512.45	5621.6
1000.7152	2742.7475	6499.35	5606.35
1000.8363	2743.9571	6470.85	5579.05
1000.9575	2745.1661	6432.6	5538.05
1001.0785	2746.3744	6401.4	5508.4
1001.1996	2747.582	6382.95	5493.4
1001.3206	2748.7889	6353.95	5461.05
1001.4415	2749.9952	6318.9	5427.55
1001.5625	2751.2008	6299.15	5408.4
1001.6833	2752.4057	6286.45	5392.9
1001.8042	2753.61	6263.55	5373.6
1001.925	2754.8136	6240.75	5348.8
1002.0458	2756.0165	6202.4	5312.65
1002.1665	2757.2188	6185.55	5296.6
1002.2872	2758.4204	6181.55	5290.3
1002.4078	2759.6213	6152.65	5258.6
1002.5285	2760.8215	6147.45	5253.55
1002.649	2762.0211	6118.45	5225.8
1002.7696	2763.22	6085.3	5191.35
1002.8901	2764.4182	6069.85	5178
1003.0106	2765.6158	6068.35	5178.7
1003.131	2766.8127	6029.3	5136.75
1003.2514	2768.009	6018	5127.5
1003.3717	2769.2045	6005.65	5113.9
1003.492	2770.3994	5973	5079.5
1003.6123	2771.5936	5956.15	5065.6
1003.7325	2772.7872	5915.3	5023.35
1003.8527	2773.9801	5898.1	5004.9
1003.9729	2775.1723	5894.75	4987
1004.093	2776.3639	5869.1	4979.55
1004.2131	2777.5548	5841.1	4949.2
1004.3331	2778.745	5824.85	4933.95
1004.4531	2779.9346	5814.7	4923.8
1004.5731	2781.1235	5802.7	4911.4
1004.693	2782.3117	5779.25	4889.15
1004.8129	2783.4992	5769.05	4878.75
1004.9328	2784.6861	5742.2	4851.55
1005.0526	2785.8723	5746.65	4853.75
1005.1723	2787.0579	5720.9	4829.75
1005.2921	2788.2428	5708.1	4817
1005.4118	2789.427	5696.55	4806.1
1005.5314	2790.6106	5687.05	4798.05
1005.651	2791.7935	5666.6	4773.9
1005.7706	2792.9757	5642.85	4754.4
1005.8902	2794.1573	5669.7	4777.65
1006.0097	2795.3382	5644	4752.1
1006.1291	2796.5184	5629.85	4742.95
1006.2485	2797.698	5645.15	4753.85
1006.3679	2798.8769	5628.35	4738.75
1006.4873	2800.0551	5636.15	4744.95
1006.6066	2801.2327	5622.75	4728.4
1006.7258	2802.4096	5608.05	4718
1006.8451	2803.5859	5611.05	4717.3
1006.9642	2804.7615	5623.7	4732.5
1007.0834	2805.9364	5618.8	4729.25
1007.2025	2807.1106	5638.3	4750.7
1007.3216	2808.2842	5634.9	4743.3
1007.4406	2809.4572	5663.9	4774
1007.5596	2810.6294	5678	4785.55
1007.6785	2811.801	5709.3	4821.7
1007.7975	2812.972	5721.75	4832.15
1007.9163	2814.1423	5763.35	4873.6
1008.0352	2815.3119	5783.5	4892.5
1008.154	2816.4808	5841.05	4951.55
1008.2727	2817.6491	5850.3	4960.15
1008.3914	2818.8167	5884.3	4995
1008.5101	2819.9837	5918.9	5024.2
1008.6288	2821.15	5952	5062.2
1008.7474	2822.3157	5970.45	5081.65
1008.8659	2823.4807	6009.25	5120.65
1008.9844	2824.645	6037.8	5148.05
1009.1029	2825.8086	6064	5175.3
1009.2214	2826.9716	6105.85	5215.65
1009.3398	2828.134	6136.85	5247.1
1009.4581	2829.2957	6155.55	5265.8
1009.5764	2830.4567	6157.1	5268.05
1009.6947	2831.617	6168.35	5277.35
1009.813	2832.7767	6142	5252.75
1009.9312	2833.9358	6147.05	5257.35
1010.0493	2835.0941	6138.5	5246.6
1010.1675	2836.2519	6109.15	5216.8
1010.2855	2837.4089	6085.1	5194.45
1010.4036	2838.5653	6079.2	5189.75
1010.5216	2839.7211	6062.85	5174.5
1010.6396	2840.8761	6053.55	5164.85
1010.7575	2842.0306	6065.8	5175.85
1010.8754	2843.1843	6111.5	5221.8
1010.9932	2844.3374	6144.7	5255.95
1011.111	2845.4899	6191.95	5300.95
1011.2288	2846.6417	6220.35	5330.75
1011.3465	2847.7928	6293.1	5403.85
1011.4642	2848.9433	6369.7	5482.8
1011.5818	2850.0931	6436.65	5548.4
1011.6995	2851.2422	6490.45	5599.1
1011.817	2852.3907	6534.4	5643.55
1011.9345	2853.5385	6599.5	5708.65
1012.052	2854.6857	6656.9	5740.5
1012.1695	2855.8323	6671.45	5783
1012.2869	2856.9781	6698.05	5809.8
1012.4042	2858.1233	6726.35	5836.7
1012.5216	2859.2679	6761.9	5871.8
1012.6389	2860.4118	6794.5	5902.45
1012.7561	2861.555	6811.45	5917.25
1012.8733	2862.6976	6818.05	5924.25
1012.9905	2863.8395	6833.35	5944.25
1013.1076	2864.9808	6846.65	5957.85
1013.2247	2866.1214	6851.25	5962.8
1013.3417	2867.2614	6860.65	5970.5
1013.4587	2868.4007	6856.5	5964.5
1013.5757	2869.5393	6835.55	5943.85
1013.6926	2870.6773	6851.4	5957.5
1013.8095	2871.8146	6851.95	5959.25
1013.9263	2872.9513	6826.35	5934.45
1014.0431	2874.0874	6809.7	5919.7
1014.1599	2875.2227	6790.1	5898.2
1014.2766	2876.3574	6751.65	5862.55
1014.3933	2877.4915	6706	5814.6
1014.51	2878.6249	6670.95	5782.25
1014.6266	2879.7577	6640.65	5750.15
1014.7431	2880.8898	6617.35	5716.1
1014.8596	2882.0212	6585.75	5699.2
1014.9761	2883.152	6541.75	5651.75
1015.0925	2884.2821	6525.75	5636.05
1015.2089	2885.4116	6500.45	5610.1
1015.3253	2886.5405	6484.35	5594.6
1015.4416	2887.6686	6476.05	5582.85
1015.5579	2888.7962	6470.1	5579.3
1015.6741	2889.923	6464.7	5575.5
1015.7903	2891.0493	6474.15	5586.2
1015.9065	2892.1748	6465	5574.9
1016.0226	2893.2997	6443.65	5553.05
1016.1387	2894.424	6449.95	5560.95
1016.2547	2895.5476	6461.1	5571.55
1016.3707	2896.6706	6462.6	5575.9
1016.4866	2897.7929	6476.6	5585.4
1016.6025	2898.9145	6508.35	5619.55
1016.7184	2900.0355	6503.15	5612.15
1016.8342	2901.1559	6521.35	5630.9
1016.95	2902.2756	6538.7	5650.8
1017.0658	2903.3946	6542.15	5651.25
1017.1815	2904.513	6567.05	5673.25
1017.2971	2905.6308	6575.25	5685.2
1017.4127	2906.7479	6576.5	5687.7
1017.5283	2907.8643	6603.15	5711.65
1017.6439	2908.9801	6588.5	5698.35
1017.7594	2910.0953	6607.15	5718.8
1017.8748	2911.2098	6575.3	5682.45
1017.9902	2912.3236	6561.45	5662.9
1018.1056	2913.4368	6524.65	5632.25
1018.2209	2914.5494	6512.1	5620.95
1018.3362	2915.6613	6471.6	5576.3
1018.4515	2916.7725	6431.35	5539.9
1018.5667	2917.8831	6399.65	5509.45
1018.6819	2918.9931	6350.8	5459.45
1018.797	2920.1024	6331	5439
1018.9121	2921.211	6276.25	5388.1
1019.0271	2922.319	6262.75	5374.45
1019.1421	2923.4264	6233.5	5342.9
1019.2571	2924.5331	6209.3	5319.85
1019.372	2925.6391	6192.25	5303.15
1019.4869	2926.7445	6167.9	5280.15
1019.6017	2927.8493	6142.9	5254.3
1019.7165	2928.9534	6136.55	5244.3
1019.8313	2930.0569	6103.6	5211
1019.946	2931.1597	6080.35	5189.15
1020.0606	2932.2619	6105.8	5216.8
1020.1753	2933.3634	6065.55	5177.05
1020.2899	2934.4643	6049.45	5153
1020.4044	2935.5645	6013.3	5116.65
1020.5189	2936.6641	5975.7	5082.25
1020.6334	2937.763	5915.8	5027.2
1020.7478	2938.8613	5866.8	4976.4
1020.8622	2939.959	5814.15	4918.6
1020.9765	2941.056	5696.7	4809.25
1021.0908	2942.1523	5623.9	4731.7
1021.2051	2943.248	5535.2	4644.15
1021.3193	2944.3431	5430.55	4540.05
1021.4334	2945.4375	5305.3	4415.8
1021.5476	2946.5313	5200.9	4313.4
1021.6617	2947.6244	5068.8	4179.1
1021.7757	2948.7169	4981.4	4091.75
1021.8897	2949.8087	4885.95	3997
1022.0037	2950.8999	4779.05	3887.65
1022.1176	2951.9904	4669.65	3781.45
1022.2315	2953.0803	4598.6	3707
1022.3453	2954.1696	4523.95	3634.6
1022.4591	2955.2582	4482.25	3591.95
1022.5728	2956.3462	4403.95	3513.75
1022.6865	2957.4335	4375.95	3486.7
1022.8002	2958.5202	4326.55	3435.65
1022.9138	2959.6062	4277.9	3387.75
1023.0274	2960.6916	4265.7	3376.35
1023.141	2961.7764	4227	3336.75
1023.2545	2962.8605	4209.05	3319.05
1023.3679	2963.9439	4180.4	3291.7
1023.4813	2965.0267	4160.8	3268.45
1023.5947	2966.1089	4169.8	3256.45
1023.708	2967.1905	4122.5	3233.85
1023.8213	2968.2714	4100.05	3210.35
1023.9346	2969.3516	4090.4	3201.55
1024.0478	2970.4312	4095.25	3195.9
1024.1609	2971.5102	4072.4	3184.2
1024.274	2972.5885	4057.3	3166.95
1024.3871	2973.6662	4044.85	3150.55
1024.5002	2974.7432	4023.95	3135.4
1024.6132	2975.8196	4019.85	3131.3
1024.7261	2976.8954	4003.7	3115.25
1024.839	2977.9705	3995.55	3106.45
1024.9519	2979.045	3963.1	3073.25
1025.0647	2980.1188	3943.35	3054.25
1025.1775	2981.192	3914.85	3027.65
1025.2902	2982.2645	3882.3	2988.1
1025.4029	2983.3364	3859.2	2971.45
1025.5156	2984.4077	3809.1	2920.25
1025.6282	2985.4783	3781.15	2887.9
1025.7407	2986.5483	3735.65	2847.6
1025.8532	2987.6177	3698.5	2810.75
1025.9657	2988.6864	3639.45	2751
1026.0782	2989.7545	3624.4	2734.35
1026.1906	2990.8219	3575.1	2685.75
1026.3029	2991.8887	3549	2656.95
1026.4152	2992.9548	3498.95	2608.75
1026.5275	2994.0204	3464.4	2577.1
1026.6397	2995.0852	3430.9	2540.8
1026.7519	2996.1495	3393.6	2503.75
1026.864	2997.2131	3373.7	2484.15
1026.9761	2998.276	3332.7	2444.75
1027.0882	2999.3383	3315.6	2425.25
1027.2002	3000.4	3285.4	2394.7
1027.3122	3001.4611	3254.1	2365.1
1027.4241	3002.5215	3250.6	2361.6
1027.536	3003.5812	3221.3	2331.2
1027.6478	3004.6404	3195.25	2307.4
1027.7596	3005.6989	3197.05	2305.35
1027.8714	3006.7567	3170.55	2279.6
1027.9831	3007.8139	3181.5	2274.6
1028.0947	3008.8705	3138.1	2248.95
1028.2064	3009.9264	3119.15	2226.8
1028.3179	3010.9818	3136.75	2248.75
1028.4295	3012.0364	3111.2	2220.7
1028.541	3013.0905	3077.7	2187.5
1028.6524	3014.1439	3077.35	2186.9
1028.7638	3015.1966	3080.6	2191.35
1028.8752	3016.2487	3077.85	2188.4
1028.9865	3017.3002	3071.4	2179.3
1029.0978	3018.3511	3056.8	2166.7
1029.209	3019.4013	3043.1	2155
1029.3202	3020.4509	3050.7	2161.85
1029.4314	3021.4998	3037.45	2149.2
1029.5425	3022.5481	3019.1	2130.5
1029.6535	3023.5958	3022.8	2133
1029.7645	3024.6428	3023.3	2132.45
1029.8755	3025.6892	3024.9	2136.3
1029.9864	3026.735	3013.75	2124.85
1030.0973	3027.7802	3006.65	2118.15
1030.2082	3028.8247	2977.1	2088.25
1030.319	3029.8685	2954.75	2062.7
1030.4297	3030.9118	2969.7	2079.25
1030.5404	3031.9544	2972.85	2082.9
1030.6511	3032.9963	2962.1	2072.75
1030.7617	3034.0376	2970.7	2082.2
1030.8723	3035.0783	2963.4	2071.9
1030.9829	3036.1184	2962.9	2073.3
1031.0934	3037.1578	2945.85	2058.55
1031.2038	3038.1966	2957.1	2067
1031.3142	3039.2348	2946.5	2059.25
1031.4246	3040.2723	2924.9	2029.1
1031.5349	3041.3092	2925.65	2036.4
1031.6452	3042.3455	2928.4	2040
1031.7554	3043.3811	2912.7	2023.95
1031.8656	3044.4161	2915.55	2024.95
1031.9758	3045.4505	2885.5	1997.7
1032.0859	3046.4842	2868.1	1978.75
1032.1959	3047.5173	2852.45	1965.45
1032.3059	3048.5498	2844.5	1953.2
1032.4159	3049.5816	2842.2	1952.85
1032.5258	3050.6128	2825.6	1936.3
1032.6357	3051.6434	2812.4	1922.15
1032.7455	3052.6734	2807.25	1917.7
1032.8553	3053.7027	2802.65	1913.2
1032.9651	3054.7314	2781.65	1893.1
1033.0748	3055.7594	2771.8	1883.4
1033.1845	3056.7868	2755.05	1865.7
1033.2941	3057.8136	2736.9	1847.55
1033.4037	3058.8398	2732.35	1844.5
1033.5132	3059.8653	2716.15	1826.35
1033.6227	3060.8902	2699.2	1811.8
1033.7321	3061.9145	2686.7	1797.8
1033.8415	3062.9381	2698.75	1810.35
1033.9509	3063.9612	2694.35	1788.3
1034.0602	3064.9835	2671.6	1781.7
1034.1694	3066.0053	2656.45	1766.15
1034.2787	3067.0264	2643.7	1756
1034.3878	3068.0469	2637.8	1747.65
1034.497	3069.0668	2620.3	1728.75
1034.6061	3070.086	2606.1	1717.05
1034.7151	3071.1046	2580.05	1692.5
1034.8241	3072.1226	2569.95	1679.4
1034.9331	3073.1399	2561.9	1672.6
1035.042	3074.1567	2534.85	1644.3
1035.1508	3075.1727	2523.95	1632.7
1035.2597	3076.1882	2528.2	1639.55
1035.3684	3077.203	2505.75	1617.3
1035.4772	3078.2173	2503.75	1613.15
1035.5859	3079.2308	2480.7	1588.1
1035.6945	3080.2438	2470.6	1578.7
1035.8031	3081.2561	2466.35	1576.65
1035.9117	3082.2678	2437.4	1549.95
1036.0202	3083.2789	2428.6	1539.4
1036.1286	3084.2893	2423.45	1535.1
1036.2371	3085.2991	2412.2	1521.6
1036.3454	3086.3083	2407.25	1512.25
1036.4538	3087.3169	2395.85	1507.3
1036.562	3088.3248	2386.8	1496.05
1036.6703	3089.3321	2370.25	1479.75
1036.7785	3090.3388	2357.7	1468.9
1036.8866	3091.3449	2349.45	1460.35
1036.9948	3092.3503	2338.55	1448.05
1037.1028	3093.3551	2328.15	1439.2
1037.2108	3094.3593	2321.8	1431.95
1037.3188	3095.3629	2318.45	1430.6
1037.4267	3096.3658	2313.95	1422.65
1037.5346	3097.3681	2299.9	1409.95
1037.6425	3098.3698	2292	1401.05
1037.7503	3099.3708	2279.65	1384.35
1037.858	3100.3713	2260.5	1372.5
1037.9657	3101.3711	2267.5	1377.65
1038.0734	3102.3702	2376.7	1345.55
1038.181	3103.3688	2247.05	1357.3
1038.2886	3104.3667	2236.5	1349.1
1038.3961	3105.364	2232.45	1347.2
1038.5036	3106.3607	2214	1323.35
1038.611	3107.3568	2210.8	1319.45
1038.7184	3108.3522	2201.75	1312.3
1038.8257	3109.347	2191.85	1302.5
1038.933	3110.3412	2192.05	1298.7
1039.0403	3111.3348	2193.1	1303.8
1039.1475	3112.3277	2166.9	1278.45
1039.2547	3113.32	2169.55	1282.8
1039.3618	3114.3117	2152.7	1264.35
1039.4689	3115.3028	2150.8	1262.7
1039.5759	3116.2932	2133.45	1240.5
1039.6829	3117.2831	2139.05	1243.8
1039.7898	3118.2723	2134.1	1243.95
1039.8967	3119.2608	2125.8	1237.95
1040.0035	3120.2488	2115.65	1226.95
1040.1103	3121.2361	2099.15	1209.25
1040.2171	3122.2229	2093.9	1203.2
1040.3238	3123.209	2093.7	1203.4
1040.4305	3124.1944	2084.2	1195.05
1040.5371	3125.1793	2075	1186.75
1040.6437	3126.1635	2067.05	1179.7
1040.7502	3127.1471	2061.95	1174.05
1040.8567	3128.1301	2064.9	1177.65
1040.9631	3129.1125	2052.3	1165.05
1041.0695	3130.0942	2053.85	1164.8
1041.1759	3131.0753	2050.25	1152.1
1041.2822	3132.0558	2044.85	1152.35
1041.3884	3133.0357	2032.1	1142.35
1041.4946	3134.015	2034.9	1144.5
1041.6008	3134.9936	2025.5	1133.2
1041.7069	3135.9716	2037.65	1127.25
1041.813	3136.949	2004.6	1116
1041.919	3137.9258	2024.55	1131.8
1042.025	3138.902	2012.55	1117.6
1042.1309	3139.8775	1999.9	1112
1042.2368	3140.8524	1994.25	1104.2
1042.3427	3141.8267	1981.5	1090.5
1042.4485	3142.8004	1982.35	1094.45
1042.5542	3143.7735	1978.35	1083.65
1042.6599	3144.7459	1979.75	1089.3
1042.7656	3145.7178	1973.15	1083.3
1042.8712	3146.689	1960.2	1071.8
1042.9768	3147.6596	1951.85	1061.8
1043.0823	3148.6295	1944	1054
1043.1878	3149.5989	1946.25	1056.65
1043.2932	3150.5676	1936.2	1049
1043.3986	3151.5357	1921.6	1034
1043.5039	3152.5032	1915.3	1029.05
1043.6092	3153.4701	1912.65	1022.95
1043.7145	3154.4364	1916.6	1025.8
1043.8197	3155.402	1904.5	1016.9
1043.9248	3156.367	1901.9	1011.15
1044.03	3157.3315	1936.65	1002.1
1044.135	3158.2952	1898.45	1008.85
1044.24	3159.2584	1890.75	1000.85
1044.345	3160.221	1886	996.85
1044.4499	3161.1829	1875.05	985.5
1044.5548	3162.1442	1865.9	977.4
1044.6596	3163.105	1858.95	972.25
1044.7644	3164.065	1851.55	962.6
1044.8692	3165.0245	1858.15	966.05
1044.9739	3165.9834	1848.45	961.7
1045.0785	3166.9416	1832.55	943.05
1045.1831	3167.8993	1824.75	935.55
1045.2877	3168.8563	1831.55	941.85
1045.3922	3169.8127	1821.9	933
1045.4966	3170.7684	1823.4	934.65
1045.6011	3171.7236	1814.1	923.85
1045.7054	3172.6782	1802.75	912.65
1045.8098	3173.6321	1798	907.9
1045.914	3174.5854	1803.3	909.45
1046.0183	3175.5381	1792.25	904.3
1046.1224	3176.4902	1790.9	902.3
1046.2266	3177.4417	1787.45	900.35
1046.3307	3178.3926	1779	893.45
1046.4347	3179.3428	1766.55	880
1046.5387	3180.2924	1769.5	881.15
1046.6427	3181.2415	1761.95	872.7
1046.7466	3182.1899	1757.85	868
1046.8504	3183.1377	1751.25	862.8
1046.9542	3184.0848	1749.1	856.2
1047.058	3185.0314	1741.85	853.5
1047.1617	3185.9773	1737.4	849.3
1047.2654	3186.9227	1726.3	837.9
1047.369	3187.8674	1726.5	838.2
1047.4726	3188.8115	1730.45	837.75
1047.5761	3189.755	1717.1	828.7
1047.6796	3190.6979	1718.75	829.15
1047.783	3191.6402	1715.95	828.3
1047.8864	3192.5818	1706.05	817.85
1047.9898	3193.5229	1726.45	814.45
1048.0931	3194.4633	1700.6	811.35
1048.1963	3195.4031	1698.1	807.85
1048.2995	3196.3423	1690.8	803.05
1048.4027	3197.2809	1687.8	799.45
1048.5058	3198.2189	1682.4	792.6
1048.6089	3199.1563	1689.7	795.85
1048.7119	3200.0931	1673.55	785.75
1048.8148	3201.0292	1669.4	781.6
1048.9178	3201.9648	1666.85	779.6
1049.0206	3202.8997	1660.6	767.95
1049.1235	3203.834	1659.65	771.2
1049.2262	3204.7677	1646.3	758.4
1049.329	3205.7008	1645.15	754.65
1049.4317	3206.6333	1647.3	761
1049.5343	3207.5652	1649.3	760.65
1049.6369	3208.4964	1634.15	746
1049.7394	3209.4271	1639.6	751.45
1049.8419	3210.3571	1632.85	745.5
1049.9444	3211.2865	1627.85	738.95
1050.0468	3212.2154	1624.25	733.9
1050.1491	3213.1436	1622.7	731.15
1050.2514	3214.0712	1634.95	739.8
1050.3537	3214.9982	1619.7	731.95
1050.4559	3215.9246	1605.5	715.65
1050.5581	3216.8503	1601.85	714.2
1050.6602	3217.7755	1603.55	716.7
1050.7623	3218.7001	1605.6	718.9
1050.8643	3219.624	1594.3	705.3
1050.9663	3220.5473	1594.25	705.85
1051.0682	3221.4701	1581.85	691.55
1051.1701	3222.3922	1590.45	701.15
1051.2719	3223.3137	1576.95	689.15
1051.3737	3224.2346	1577.2	687.25
1051.4754	3225.1549	1573.1	685.55
1051.5771	3226.0746	1574	684.85
1051.6788	3226.9937	1566.6	677.3
1051.7804	3227.9121	1565.8	678.5
1051.8819	3228.83	1561.35	673.45
1051.9834	3229.7473	1555.35	668.65
1052.0849	3230.6639	1557.4	671.35
1052.1863	3231.5799	1541.6	653.55
1052.2876	3232.4954	1548.5	658.15
1052.3889	3233.4102	1542.45	655.1
1052.4902	3234.3244	1539.45	649.3
1052.5914	3235.238	1528.6	639.95
1052.6926	3236.151	1552.1	641.05
1052.7937	3237.0634	1528.2	640.65
1052.8948	3237.9752	1521.3	632.95
1052.9958	3238.8864	1517.8	625.85
1053.0968	3239.797	1513.8	625.2
1053.1977	3240.7069	1510.85	622.1
1053.2986	3241.6163	1501.9	611.1
1053.3994	3242.5251	1504.2	616.05
1053.5002	3243.4332	1504.65	619.05
1053.6009	3244.3408	1487.4	595.9
1053.7016	3245.2477	1493.55	605.55
1053.8022	3246.154	1496.05	605.8
1053.9028	3247.0598	1486.65	596.35
1054.0034	3247.9649	1481.45	594.25
1054.1039	3248.8694	1472.25	584.05
1054.2043	3249.7733	1473.45	585.7
1054.3047	3250.6766	1473.15	585.6
1054.4051	3251.5793	1470.8	581.55
1054.5054	3252.4814	1457.5	568.25
1054.6056	3253.3829	1456.6	568.15
1054.7058	3254.2838	1457.7	569.55
1054.806	3255.1841	1461.2	573.45
1054.9061	3256.0838	1440.4	554.25
1055.0061	3256.9829	1434.65	548.2
1055.1062	3257.8814	1433.3	541
1055.2061	3258.7792	1428.2	536.35
1055.306	3259.6765	1427.15	536.5
1055.4059	3260.5731	1418.85	532.25
1055.5057	3261.4692	1411.9	523.7
1055.6055	3262.3647	1406.8	516.45
1055.7052	3263.2595	1396.25	508.2
1055.8049	3264.1538	1395.1	506.55
1055.9045	3265.0474	1390.35	501.05
1056.0041	3265.9404	1379.9	491.4
1056.1036	3266.8329	1374.85	488.4
1056.2031	3267.7247	1373.05	475.45
1056.3025	3268.616	1350.85	462.65
1056.4019	3269.5066	1340.85	452.65
1056.5013	3270.3966	1331	442.95
1056.6005	3271.286	1313.35	425.45
