Software Version:	3.9.2.0
Unit SN:	10000200
Spectrometer SN:	6960
Date:	3/6/2024 10:16:56 AM
Data Line Index:	25
Spectral Points:	2048
Integration time (ms):	125
Averages:	20
Delay (ms):	30
Sequence Number:	1
Processing:	dark subtract
Laser Power (mW):	300
Laser Current (mA):	825
Laser Diode Temp (C):	25.1
Laser Case Temp (C):	25.1
System Temp (C):	24.9
Spectrometer Temp (C):	22.4
CCD Temp (C):	0.005
Secondary Temp (C):	20.011
Heatsink Temp (C):	19.93
CCDPCB Temp (C):	33.317
SecondaryPCB Temp (C):	26.125

Wavelength	RamanShift	Raw Counts	Dark Subtracted
787.061	30.1047	1071.55	662.9
787.2016	32.3739	1097.5	690.75
787.3422	34.6426	1141.05	732.5
787.4828	36.9109	1173.1	763.35
787.6235	39.1787	1229	815.2
787.7642	41.4461	1285.95	867.25
787.9049	43.7131	1346.25	924
788.0456	45.9796	1402.6	977.55
788.1863	48.2456	1458.75	1030.3
788.3271	50.5112	1524.55	1091.3
788.4679	52.7764	1591.15	1156.9
788.6087	55.0411	1658.5	1219.25
788.7496	57.3054	1724.7	1279.55
788.8904	59.5692	1808.05	1361.4
789.0313	61.8326	1913.3	1464.5
789.1722	64.0955	1997.4	1545.3
789.3132	66.3579	2117	1659.95
789.4541	68.6199	2264.45	1803.55
789.5951	70.8815	2507.7	2042.3
789.7361	73.1426	3015.65	2546.2
789.8771	75.4032	4357	3882.75
790.0181	77.6634	7759.85	7282.3
790.1592	79.9231	16953.1	16470.55
790.3003	82.1824	52251.15	51758.25
790.4414	84.4412	65535	65022.35
790.5825	86.6995	65535	64998.8
790.7237	88.9574	65535	64973.65
790.8648	91.2148	65535	64958.65
791.006	93.4717	65535	64948.15
791.1472	95.7282	65535	64944.25
791.2885	97.9842	65535	64941.75
791.4297	100.2398	65535	64940.7
791.571	102.4949	65535	64935.1
791.7123	104.7495	65535	64932.55
791.8536	107.0036	65535	64935.25
791.9949	109.2573	65535	64935.15
792.1363	111.5105	65535	64931.5
792.2777	113.7632	65535	64928.4
792.4191	116.0154	65535	64917.05
792.5605	118.2672	65535	64925.3
792.7019	120.5185	65535	64921.9
792.8434	122.7693	65535	64921
792.9849	125.0197	65535	64916.05
793.1264	127.2696	65535	64908.75
793.2679	129.519	65535	64910.05
793.4094	131.7679	65535	64904.4
793.551	134.0163	65535	64905.1
793.6926	136.2642	65535	64899.75
793.8342	138.5117	65535	64897.15
793.9758	140.7587	65535	64898.05
794.1175	143.0052	65535	64894.05
794.2591	145.2512	65535	64893.2
794.4008	147.4967	65535	64890.2
794.5425	149.7417	65535	64888
794.6842	151.9863	65535	64885.15
794.826	154.2304	65535	64880.9
794.9677	156.4739	65535	64875.1
795.1095	158.717	65535	64877.8
795.2513	160.9596	65535	64869.45
795.3931	163.2017	65535	64869.65
795.535	165.4433	65535	64867.6
795.6768	167.6844	65535	64863.7
795.8187	169.925	65535	64861.2
795.9606	172.1651	65535	64859.25
796.1025	174.4047	65535	64855.85
796.2445	176.6439	65535	64853.8
796.3864	178.8825	65535	64849.85
796.5284	181.1206	65535	64846.5
796.6704	183.3582	65535	64844.4
796.8124	185.5954	65535	64842
796.9544	187.832	65535	64836.6
797.0965	190.0681	65535	64834.4
797.2386	192.3037	65535	64833.8
797.3806	194.5388	65535	64828.75
797.5228	196.7734	65535	64827.75
797.6649	199.0075	65535	64825.7
797.807	201.2411	65535	64823.85
797.9492	203.4742	65535	64823.85
798.0914	205.7068	65535	64822.3
798.2336	207.9389	65535	64815.9
798.3758	210.1704	65535	64820.4
798.518	212.4015	65535	64833.6
798.6603	214.632	65535	64841.3
798.8025	216.862	65535	64842.25
798.9448	219.0915	65535	64837.65
799.0871	221.3205	65535	64836.5
799.2294	223.549	65535	64839.95
799.3718	225.777	65535	64844.8
799.5141	228.0044	65535	64834.25
799.6565	230.2314	65535	64830.9
799.7989	232.4578	65535	64827.7
799.9413	234.6837	65535	64822.45
800.0837	236.909	65535	64816
800.2262	239.1339	65535	64794.55
800.3687	241.3582	65535	64807.95
800.5111	243.582	65535	64777.4
800.6536	245.8053	65535	64791.85
800.7961	248.0281	65535	64796.75
800.9387	250.2503	65535	64791.8
801.0812	252.472	65535	64785.9
801.2238	254.6932	65535	64793.3
801.3664	256.9139	65535	64792.25
801.509	259.134	65535	64785.95
801.6516	261.3536	65535	64787.95
801.7942	263.5727	65535	64786.7
801.9369	265.7912	65535	64784.35
802.0795	268.0092	65535	64784.4
802.2222	270.2267	65535	64787.4
802.3649	272.4436	65535	64783.6
802.5076	274.6601	65535	64772
802.6504	276.8759	65535	64776.4
802.7931	279.0913	65535	64777.65
802.9359	281.3061	65535	64777.3
803.0787	283.5204	65535	64777.4
803.2215	285.7341	65535	64767.1
803.3643	287.9473	65535	64761.45
803.5071	290.16	65535	64766.75
803.6499	292.3721	65535	64771.05
803.7928	294.5837	65535	64772.2
803.9357	296.7947	65535	64772.35
804.0786	299.0052	65535	64771.8
804.2215	301.2152	65535	64767.55
804.3644	303.4246	65535	64770.4
804.5074	305.6334	65535	64770.25
804.6503	307.8418	65535	64766.25
804.7933	310.0495	65535	64764.55
804.9363	312.2568	65535	64766.6
805.0793	314.4635	65535	64765.85
805.2223	316.6696	65535	64761.1
805.3653	318.8752	65535	64749.75
805.5084	321.0802	65535	64758.65
805.6514	323.2847	65535	64758.05
805.7945	325.4887	65535	64754.6
805.9376	327.692	65535	64754.85
806.0807	329.8949	65535	64753.3
806.2238	332.0972	65535	64752.65
806.367	334.2989	65535	64750.3
806.5101	336.5001	65535	64748.5
806.6533	338.7007	65535	64747.25
806.7965	340.9008	65535	64743.85
806.9397	343.1003	65535	64743.05
807.0829	345.2992	65535	64741.1
807.2261	347.4976	65535	64740.65
807.3693	349.6955	65535	64736.2
807.5126	351.8927	65535	64734.55
807.6559	354.0895	65535	64728.65
807.7991	356.2856	65535	64734.25
807.9424	358.4812	65535	64736.85
808.0857	360.6763	65535	64731.45
808.2291	362.8707	65535	64731.8
808.3724	365.0646	65535	64727.75
808.5158	367.258	65535	64729.3
808.6591	369.4508	65535	64722.8
808.8025	371.643	65535	64726.65
808.9459	373.8346	65535	64722.1
809.0893	376.0257	65535	64722.15
809.2327	378.2162	65535	64722.9
809.3762	380.4062	65535	64719.2
809.5196	382.5956	65535	64721.5
809.6631	384.7844	65535	64724.15
809.8066	386.9726	65535	64730.1
809.9501	389.1603	65535	64728.05
810.0936	391.3474	65535	64688.35
810.2371	393.5339	65535	64726.6
810.3806	395.7199	65535	64726.85
810.5241	397.9052	65535	64728.5
810.6677	400.09	65535	64729.7
810.8113	402.2743	65535	64727.55
810.9548	404.4579	65535	64724.8
811.0984	406.641	65535	64720.45
811.2421	408.8235	65535	64724.95
811.3857	411.0054	65535	64716.65
811.5293	413.1868	65535	64719.5
811.673	415.3675	65535	64712.75
811.8166	417.5477	65535	64714.3
811.9603	419.7273	65535	64711.3
812.104	421.9064	65535	64702.45
812.2477	424.0848	65535	64706.3
812.3914	426.2627	65535	64710.15
812.5351	428.4399	65535	64707.3
812.6788	430.6166	65535	64702.05
812.8226	432.7928	65535	64700.85
812.9663	434.9683	65535	64702.7
813.1101	437.1432	65535	64701.3
813.2539	439.3176	65535	64702.45
813.3977	441.4914	65535	64703.8
813.5415	443.6645	65535	64703
813.6853	445.8371	65535	64704.5
813.8291	448.0091	65535	64702.1
813.973	450.1806	65535	64700.1
814.1168	452.3514	65535	64699.45
814.2607	454.5216	65535	64693.2
814.4046	456.6913	65535	64695.3
814.5485	458.8603	65535	64699.5
814.6924	461.0288	65535	64700.95
814.8363	463.1967	65535	64700.5
814.9802	465.3639	65535	64699.7
815.1241	467.5306	65535	64697.6
815.2681	469.6967	65535	64696.8
815.412	471.8622	65535	64694.6
815.556	474.0271	65535	64699.05
815.7	476.1914	65535	64692.8
815.844	478.3551	65535	64697.9
815.988	480.5182	65535	64695.55
816.132	482.6807	65535	64694.4
816.276	484.8426	65535	64691.15
816.4201	487.0039	65535	64695.15
816.5641	489.1647	65535	64692.75
816.7082	491.3248	65535	64689.65
816.8522	493.4843	65535	64692.6
816.9963	495.6432	65535	64690.05
817.1404	497.8015	65535	64689.4
817.2845	499.9592	65535	64693.1
817.4286	502.1163	65535	64688.65
817.5727	504.2728	65535	64688.7
817.7168	506.4287	65535	64689.15
817.861	508.5839	65535	64687.75
818.0051	510.7386	65535	64687.25
818.1493	512.8927	65535	64682.15
818.2935	515.0461	65535	64685
818.4377	517.199	65535	64686.65
818.5818	519.3512	65535	64683.2
818.726	521.5029	65535	64678
818.8703	523.6539	65535	64683.2
819.0145	525.8043	65535	64683.65
819.1587	527.9541	65535	64680.95
819.303	530.1033	65535	64681.3
819.4472	532.2519	65535	64680.3
819.5915	534.3999	65535	64679.35
819.7357	536.5472	65535	64679.65
819.88	538.694	65535	64681.75
820.0243	540.8401	65535	64678.55
820.1686	542.9856	65535	64678.25
820.3129	545.1305	65535	64680.55
820.4572	547.2748	65535	64676.25
820.6016	549.4185	65535	64673.55
820.7459	551.5615	65535	64675
820.8902	553.704	65535	64674.85
821.0346	555.8458	65535	64675
821.1789	557.987	65535	64678.25
821.3233	560.1276	65535	64672.75
821.4677	562.2675	65535	64677.85
821.6121	564.4069	65535	64674.55
821.7565	566.5456	65535	64679.1
821.9009	568.6837	65535	64674.7
822.0453	570.8212	65535	64676
822.1897	572.958	65535	64674.85
822.3342	575.0942	65535	64673.3
822.4786	577.2299	65535	64677.35
822.6231	579.3648	65535	64676.3
822.7675	581.4992	65535	64674.6
822.912	583.6329	65535	64674.1
823.0565	585.766	65535	64673.85
823.201	587.8985	65535	64675.9
823.3454	590.0304	65535	64649
823.4899	592.1616	65535	64671.5
823.6345	594.2922	65535	64671
823.779	596.4222	65535	64668.5
823.9235	598.5515	65535	64667.25
824.068	600.6802	65535	64672
824.2126	602.8083	65535	64668.4
824.3571	604.9358	65535	64668.6
824.5017	607.0626	65535	64666.8
824.6462	609.1888	65535	64666.95
824.7908	611.3144	65535	64668.15
824.9354	613.4393	65535	64666.7
825.08	615.5636	65535	64667.95
825.2246	617.6873	65535	64667.6
825.3692	619.8103	65535	64666.45
825.5138	621.9327	65535	64664.1
825.6584	624.0544	65535	64667.6
825.803	626.1756	65535	64668.2
825.9477	628.2961	65535	64666.15
826.0923	630.4159	65535	64662.8
826.237	632.5351	65535	64663.5
826.3816	634.6537	65535	64664.95
826.5263	636.7716	65535	64664
826.6709	638.8889	65535	64663.3
826.8156	641.0056	65535	64663.2
826.9603	643.1216	65535	64663.55
827.105	645.237	65535	64661.75
827.2497	647.3518	65535	64662.45
827.3944	649.4659	65535	64662.35
827.5391	651.5793	65535	64664.05
827.6838	653.6922	65535	64665.1
827.8285	655.8043	65535	64661.6
827.9733	657.9159	65535	64659.2
828.118	660.0268	65535	64659.9
828.2627	662.137	65535	64660.2
828.4075	664.2466	65535	64657.95
828.5522	666.3556	65535	64657.35
828.697	668.4639	65535	64656.1
828.8418	670.5716	65535	64660.85
828.9865	672.6786	65535	64657.2
829.1313	674.785	65535	64657.7
829.2761	676.8907	65535	64656.3
829.4209	678.9958	65535	64658.75
829.5657	681.1002	65535	64658.6
829.7105	683.204	65535	64651.15
829.8553	685.3072	65535	64656.9
830.0001	687.4097	65535	64655.75
830.1449	689.5115	65535	64655.4
830.2898	691.6127	65535	64655.25
830.4346	693.7132	65535	64656.9
830.5794	695.8131	65535	64633.9
830.7243	697.9123	65535	64653.45
830.8691	700.0109	65535	64653.05
831.014	702.1089	65535	64654.35
831.1588	704.2061	65535	64658.75
831.3037	706.3028	65535	64653.25
831.4486	708.3987	65535	64656.6
831.5935	710.4941	65535	64654.35
831.7383	712.5887	65535	64653.9
831.8832	714.6827	65535	64648.1
832.0281	716.7761	65535	64654.6
832.173	718.8688	65535	64652.1
832.3179	720.9608	65535	64647.75
832.4628	723.0522	65535	64647.75
832.6077	725.1429	65535	64650.5
832.7527	727.233	65535	64651.3
832.8976	729.3224	65535	64653.3
833.0425	731.4112	65535	64649.55
833.1874	733.4993	65535	64649.9
833.3324	735.5867	65535	64647.05
833.4773	737.6735	65535	64651.4
833.6222	739.7596	65535	64650.45
833.7672	741.845	65535	64653.75
833.9122	743.9298	65535	64648.95
834.0571	746.014	65535	64649.9
834.2021	748.0974	65535	64646.2
834.347	750.1802	65535	64647.2
834.492	752.2624	65535	64648.05
834.637	754.3439	65535	64646.05
834.782	756.4247	65535	64638.1
834.9269	758.5048	65535	64647.95
835.0719	760.5843	65535	64649.5
835.2169	762.6631	65535	64648.55
835.3619	764.7413	65535	64649.8
835.5069	766.8188	65535	64648.1
835.6519	768.8956	65535	64648.15
835.7969	770.9718	65535	64646.4
835.9419	773.0473	65535	64647.95
836.0869	775.1221	65535	64647.9
836.232	777.1962	65535	64647.7
836.377	779.2697	65535	64647.65
836.522	781.3426	65535	64631.45
836.667	783.4147	65535	64645.85
836.8121	785.4862	65535	64649.6
836.9571	787.557	65535	64648.55
837.1021	789.6271	65535	64645.6
837.2472	791.6966	65535	64646.75
837.3922	793.7654	65535	64644.8
837.5373	795.8335	65535	64647.2
837.6823	797.901	65535	64646.7
837.8274	799.9678	65535	64644.45
837.9724	802.0339	65535	64648.65
838.1175	804.0993	65535	64637.15
838.2626	806.1641	65535	64643.65
838.4076	808.2282	65535	64647.15
838.5527	810.2916	65535	64643.75
838.6978	812.3544	65535	64644.8
838.8428	814.4164	65535	64646.2
838.9879	816.4778	65535	64644.8
839.133	818.5385	65535	64648.15
839.2781	820.5986	65535	64644.75
839.4232	822.658	65535	64643.6
839.5682	824.7166	65535	64645.8
839.7133	826.7747	65535	64647
839.8584	828.832	65535	64645.3
840.0035	830.8886	65535	64644.05
840.1486	832.9446	65535	64640.9
840.2937	834.9999	65535	64642.75
840.4388	837.0545	65535	64641.05
840.5839	839.1085	65535	64645.25
840.729	841.1618	65535	64639.4
840.8741	843.2143	65535	64644.6
841.0192	845.2662	65535	64644.5
841.1643	847.3175	65535	64646.25
841.3095	849.368	65535	64640.8
841.4546	851.4179	65535	64643.5
841.5997	853.467	65535	64643.15
841.7448	855.5155	65535	64643.8
841.8899	857.5633	65535	64644.7
842.0351	859.6105	65535	64644.25
842.1802	861.6569	65535	64644.4
842.3253	863.7027	65535	64642.3
842.4704	865.7478	65535	64642.65
842.6156	867.7922	65535	64640.85
842.7607	869.8359	65535	64642.15
842.9058	871.8789	65535	64643.45
843.0509	873.9212	65535	64611
843.1961	875.9629	65535	64644.75
843.3412	878.0039	65535	64644.55
843.4863	880.0441	65535	64642.8
843.6315	882.0837	65535	64640.65
843.7766	884.1226	65535	64639.6
843.9218	886.1609	65535	64641.2
844.0669	888.1984	65535	64641.8
844.212	890.2352	65535	64643
844.3572	892.2714	65535	64638.3
844.5023	894.3069	65535	64642.85
844.6475	896.3416	65535	64641.6
844.7926	898.3757	65535	64640.2
844.9377	900.4091	65535	64639.5
845.0829	902.4418	65535	64634.45
845.228	904.4739	65535	64641.7
845.3732	906.5052	65535	64639
845.5183	908.5358	65535	64638.3
845.6635	910.5658	65535	64639.75
845.8086	912.595	65535	64641
845.9538	914.6236	65535	64642.1
846.0989	916.6515	65535	64642.95
846.2441	918.6786	65535	64639.6
846.3892	920.7051	65535	64639.15
846.5344	922.7309	65535	64640.4
846.6795	924.756	65535	64640.1
846.8246	926.7804	65535	64637.35
846.9698	928.8041	65535	64637.1
847.1149	930.8272	65535	64638.95
847.2601	932.8495	65535	64639.05
847.4052	934.8711	65535	64638.65
847.5504	936.892	65535	64639.55
847.6955	938.9123	65535	64638.35
847.8407	940.9318	65535	64640.5
847.9858	942.9506	65535	64638.85
848.131	944.9688	65535	64638.55
848.2761	946.9862	65535	64638.3
848.4213	949.003	65535	64641.65
848.5664	951.019	65535	64639.15
848.7115	953.0344	65535	64639.85
848.8567	955.0491	65535	64637
849.0018	957.063	65535	64639.4
849.147	959.0763	65535	64641.8
849.2921	961.0888	65535	64637.2
849.4373	963.1007	65535	64639.8
849.5824	965.1119	65535	64641.9
849.7275	967.1223	65535	64640.8
849.8727	969.1321	65535	64639.8
850.0178	971.1412	65535	64640.3
850.1629	973.1495	65535	64640.6
850.3081	975.1572	65535	64609.25
850.4532	977.1641	65535	64638.8
850.5983	979.1704	65535	64640.1
850.7435	981.1759	65535	64635.85
850.8886	983.1808	65535	64636.75
851.0337	985.1849	65535	64625.85
851.1788	987.1884	65535	64637
851.324	989.1911	65535	64636.25
851.4691	991.1932	65535	64635.1
851.6142	993.1945	65535	64637.5
851.7593	995.1951	65535	64636.2
851.9045	997.1951	65535	64632.15
852.0496	999.1943	65535	64639.05
852.1947	1001.1928	65535	64639.25
852.3398	1003.1906	65535	64640.55
852.4849	1005.1877	65535	64636.5
852.63	1007.1841	65535	64637.45
852.7751	1009.1798	65535	64640.4
852.9202	1011.1748	65535	64641.65
853.0653	1013.1691	65535	64640.2
853.2104	1015.1627	65535	64637.85
853.3555	1017.1556	65535	64640.55
853.5006	1019.1477	65535	64638.1
853.6457	1021.1392	65535	64642.2
853.7908	1023.1299	65535	64638.4
853.9359	1025.12	65535	64636.75
854.081	1027.1093	65535	64640.2
854.2261	1029.0979	65535	64644.2
854.3712	1031.0859	65535	64641.95
854.5163	1033.0731	65535	64640.85
854.6613	1035.0596	65535	64641.1
854.8064	1037.0454	65535	64636.05
854.9515	1039.0304	65535	64638.05
855.0965	1041.0148	65535	64639.95
855.2416	1042.9985	65535	64637.4
855.3867	1044.9814	65535	64640.7
855.5317	1046.9636	65535	64637.05
855.6768	1048.9452	65535	64639.15
855.8219	1050.926	65535	64640.7
855.9669	1052.9061	65535	64641.1
856.112	1054.8855	65535	64639.6
856.257	1056.8642	65535	64640.7
856.4021	1058.8421	65535	64633.95
856.5471	1060.8194	65535	64637
856.6921	1062.7959	65535	64637.25
856.8372	1064.7717	65535	64638
856.9822	1066.7469	65535	64638.55
857.1272	1068.7213	65535	64636.65
857.2723	1070.695	65535	64641.4
857.4173	1072.6679	65535	64639.4
857.5623	1074.6402	65535	64639.45
857.7073	1076.6117	65535	64636.1
857.8523	1078.5826	65535	64635.95
857.9973	1080.5527	65535	64635.9
858.1423	1082.5221	65535	64637.45
858.2873	1084.4908	65535	64638.05
858.4323	1086.4587	65535	64638.35
858.5773	1088.426	65535	64638.75
858.7223	1090.3925	65535	64633
858.8673	1092.3584	65535	64638.6
859.0123	1094.3235	65535	64640.5
859.1573	1096.2879	65535	64638.05
859.3022	1098.2515	65535	64640.8
859.4472	1100.2145	65535	64640.05
859.5922	1102.1767	65535	64634.6
859.7371	1104.1382	65535	64639.6
859.8821	1106.099	65535	64637.05
860.027	1108.0591	65535	64639.85
860.172	1110.0185	65535	64640.3
860.3169	1111.9771	65535	64641.05
860.4619	1113.9351	65535	64639.7
860.6068	1115.8923	65535	64640.2
860.7517	1117.8488	65535	64636.75
860.8967	1119.8045	65535	64638.95
861.0416	1121.7596	65535	64636.15
861.1865	1123.7139	65535	64639.8
861.3314	1125.6675	65535	64639.35
861.4763	1127.6204	65535	64639.4
861.6212	1129.5726	65535	64635.95
861.7661	1131.524	65535	64639.85
861.911	1133.4748	65535	64639.15
862.0559	1135.4248	65535	64638.7
862.2008	1137.3741	65535	64637.85
862.3457	1139.3226	65535	64639.3
862.4905	1141.2705	65535	64637.05
862.6354	1143.2176	65535	64632
862.7803	1145.164	65535	64637.3
862.9251	1147.1097	65535	64636.9
863.07	1149.0546	65535	64636.85
863.2148	1150.9989	65535	64637.95
863.3597	1152.9424	65535	64638.15
863.5045	1154.8852	65535	64637.5
863.6493	1156.8272	65535	64638.55
863.7942	1158.7686	65535	64631.85
863.939	1160.7092	65535	64638.1
864.0838	1162.6491	65535	64636.6
864.2286	1164.5883	65535	64640
864.3734	1166.5267	65535	64638.5
864.5182	1168.4644	65535	64636
864.663	1170.4014	65535	64632.9
864.8078	1172.3377	65535	64638.35
864.9526	1174.2732	65535	64639.9
865.0974	1176.2081	65535	64639.8
865.2421	1178.1421	65535	64635.15
865.3869	1180.0755	65535	64640.8
865.5317	1182.0082	65535	64639.1
865.6764	1183.9401	65535	64637.05
865.8212	1185.8713	65535	64639.85
865.9659	1187.8017	65535	64640.45
866.1106	1189.7315	65535	64641.4
866.2554	1191.6605	65535	64611.75
866.4001	1193.5888	65535	64640
866.5448	1195.5163	65535	64640.55
866.6895	1197.4432	65535	64636.1
866.8342	1199.3693	65535	64639.45
866.9789	1201.2947	65535	64636.5
867.1236	1203.2193	65535	64636.65
867.2683	1205.1432	65535	64640.05
867.413	1207.0664	65535	64640.4
867.5576	1208.9889	65535	64635.75
867.7023	1210.9106	65535	64639.5
867.847	1212.8316	65535	64639.6
867.9916	1214.7519	65535	64629.25
868.1363	1216.6715	65535	64639
868.2809	1218.5903	65535	64640.6
868.4255	1220.5084	65535	64639.6
868.5701	1222.4257	65535	64640.75
868.7148	1224.3424	65535	64641.1
868.8594	1226.2583	65535	64632.55
869.004	1228.1735	65535	64639.45
869.1486	1230.0879	65535	64639.45
869.2932	1232.0016	65535	64640.9
869.4377	1233.9146	65535	64638.25
869.5823	1235.8269	65535	64641.65
869.7269	1237.7384	65535	64638.65
869.8715	1239.6492	65535	64639.95
870.016	1241.5592	65535	64637.35
870.1606	1243.4686	65535	64640.3
870.3051	1245.3772	65535	64641.15
870.4496	1247.285	65535	64638.4
870.5941	1249.1922	65535	64640.45
870.7387	1251.0986	65535	64640.25
870.8832	1253.0042	65535	64640.4
871.0277	1254.9092	65535	64640.7
871.1722	1256.8134	65535	64641.8
871.3167	1258.7169	65535	64638.75
871.4611	1260.6196	65535	64640.2
871.6056	1262.5216	65535	64638.65
871.7501	1264.4229	65535	64641.65
871.8945	1266.3234	65535	64639.75
872.039	1268.2232	65535	64636.75
872.1834	1270.1223	65535	64637.75
872.3278	1272.0207	65535	64639.75
872.4723	1273.9183	65535	64635.75
872.6167	1275.8151	65535	64639.55
872.7611	1277.7113	65535	64640.35
872.9055	1279.6067	65535	64639.3
873.0499	1281.5014	65535	64637.7
873.1943	1283.3953	65535	64638.1
873.3386	1285.2885	65535	64642.3
873.483	1287.181	65535	64640.75
873.6274	1289.0727	65535	64642.7
873.7717	1290.9637	65535	64640.7
873.9161	1292.854	65535	64639.05
874.0604	1294.7435	65535	64639.3
874.2047	1296.6323	65535	64639.8
874.349	1298.5204	65535	64635.8
874.4933	1300.4077	65535	64638.1
874.6376	1302.2943	65535	64640
874.7819	1304.1802	65535	64639.35
874.9262	1306.0653	65535	64639.6
875.0705	1307.9497	65535	64639.5
875.2147	1309.8333	65535	64643.45
875.359	1311.7162	65535	64639.25
875.5032	1313.5984	65535	64638.55
875.6475	1315.4798	65535	64628.45
875.7917	1317.3605	65535	64622.9
875.9359	1319.2405	65535	64637.55
876.0801	1321.1197	65535	64637.75
876.2243	1322.9982	65535	64636.7
876.3685	1324.876	65535	64640.65
876.5127	1326.753	65535	64640.45
876.6569	1328.6293	65535	64639
876.801	1330.5048	65535	64638.1
876.9452	1332.3796	65535	64640.1
877.0893	1334.2537	65535	64611.85
877.2335	1336.127	65535	64637.6
877.3776	1337.9996	65535	64638.75
877.5217	1339.8714	65535	64637.4
877.6658	1341.7426	65535	64597.35
877.8099	1343.6129	65535	64639.05
877.954	1345.4826	65535	64640.45
878.0981	1347.3515	65535	64635.4
878.2422	1349.2196	65535	64638.95
878.3862	1351.087	65535	64640
878.5303	1352.9537	65535	64641.05
878.6743	1354.8197	65535	64639.6
878.8184	1356.6849	65535	64639.2
878.9624	1358.5493	65535	64638.65
879.1064	1360.4131	65535	64640.7
879.2504	1362.276	65535	64640.8
879.3944	1364.1383	65535	64641.05
879.5384	1365.9998	65535	64633.75
879.6823	1367.8606	65535	64640.3
879.8263	1369.7206	65535	64637.35
879.9702	1371.5799	65535	64637.95
880.1142	1373.4384	65535	64639.2
880.2581	1375.2962	65535	64638.25
880.402	1377.1533	65535	64643.8
880.5459	1379.0096	65535	64639.6
880.6898	1380.8652	65535	64638.5
880.8337	1382.7201	65535	64638.4
880.9776	1384.5742	65535	64639.95
881.1215	1386.4275	65535	64638.4
881.2653	1388.2802	65535	64644.35
881.4092	1390.132	65535	64641.25
881.553	1391.9832	65535	64639
881.6968	1393.8336	65535	64641.2
881.8406	1395.6832	65535	64639.1
881.9844	1397.5322	65535	64639.55
882.1282	1399.3803	65535	64635.85
882.272	1401.2278	65535	64639
882.4158	1403.0745	65535	64640.3
882.5595	1404.9204	65535	64639.75
882.7033	1406.7656	65535	64639.1
882.847	1408.6101	65535	64639.25
882.9908	1410.4538	65535	64641.15
883.1345	1412.2968	65535	64639.55
883.2782	1414.139	65535	64641.45
883.4219	1415.9805	65535	64641.65
883.5656	1417.8213	65535	64633.55
883.7092	1419.6613	65535	64640.75
883.8529	1421.5006	65535	64639.95
883.9965	1423.3391	65535	64640.35
884.1402	1425.1769	65535	64638.9
884.2838	1427.0139	65535	64640.5
884.4274	1428.8502	65535	64638.75
884.571	1430.6858	65535	64640.55
884.7146	1432.5206	65535	64638.3
884.8582	1434.3547	65535	64638.85
885.0018	1436.188	65535	64641.55
885.1453	1438.0206	65535	64638.4
885.2889	1439.8524	65535	64641.85
885.4324	1441.6835	65535	64640.4
885.5759	1443.5139	65535	64636.85
885.7194	1445.3435	65535	64640.95
885.8629	1447.1724	65535	64640.85
886.0064	1449.0005	65535	64640.3
886.1499	1450.8279	65535	64637.9
886.2933	1452.6545	65535	64641.9
886.4368	1454.4804	65535	64640.8
886.5802	1456.3056	65535	64634.6
886.7237	1458.13	65535	64641.05
886.8671	1459.9536	65535	64640.8
887.0105	1461.7766	65535	64640.5
887.1539	1463.5987	65535	64639.45
887.2972	1465.4202	65535	64641
887.4406	1467.2409	65535	64641.95
887.584	1469.0608	65535	64640.6
887.7273	1470.88	65535	64641.35
887.8706	1472.6984	65535	64639.6
888.0139	1474.5161	65535	64637.6
888.1572	1476.3331	65535	64640.65
888.3005	1478.1493	65535	64640.35
888.4438	1479.9648	65535	64639.45
888.5871	1481.7795	65535	64642.55
888.7303	1483.5935	65535	64641.7
888.8736	1485.4067	65535	64643.35
889.0168	1487.2192	65535	64640.35
889.16	1489.031	65535	64637.1
889.3032	1490.842	65535	64639.95
889.4464	1492.6522	65535	64640
889.5896	1494.4618	65535	64639.5
889.7327	1496.2705	65535	64640.9
889.8759	1498.0785	65535	64638.7
890.019	1499.8858	65535	64640.8
890.1622	1501.6924	65535	64642.55
890.3053	1503.4981	65535	64641.25
890.4484	1505.3032	65535	64642.35
890.5914	1507.1075	65535	64641.8
890.7345	1508.911	65535	64641.2
890.8776	1510.7138	65535	64641.7
891.0206	1512.5159	65535	64641
891.1637	1514.3172	65535	64642.05
891.3067	1516.1178	65535	64641.95
891.4497	1517.9176	65535	64639.35
891.5927	1519.7166	65535	64641.95
891.7357	1521.515	65535	64635.75
891.8786	1523.3126	65535	64641.85
892.0216	1525.1094	65535	64639.5
892.1645	1526.9055	65535	64641.75
892.3074	1528.7008	65535	64641.7
892.4503	1530.4954	65535	64640.7
892.5932	1532.2893	65535	64643.55
892.7361	1534.0824	65535	64640.85
892.879	1535.8747	65529.9	64637.2
893.0218	1537.6663	65535	64641.9
893.1647	1539.4572	65516.9	64622.3
893.3075	1541.2473	65528.15	64633.6
893.4503	1543.0367	65527	64634.65
893.5931	1544.8253	65525.25	64628.35
893.7359	1546.6132	65528.55	64632.55
893.8787	1548.4003	65520.8	64617.5
894.0214	1550.1867	65518.4	64615.15
894.1642	1551.9723	65515.3	64619.15
894.3069	1553.7572	65518.5	64622.3
894.4496	1555.5414	65522.6	64630.5
894.5923	1557.3247	65430.05	64538.2
894.735	1559.1074	65520.55	64632
894.8777	1560.8893	65495.65	64603.4
895.0204	1562.6705	65511.6	64621.55
895.163	1564.4509	65439.35	64547.65
895.3056	1566.2305	65466.6	64575.2
895.4482	1568.0094	65503.15	64612.85
895.5908	1569.7876	65471.2	64581.75
895.7334	1571.565	65434.1	64540.25
895.876	1573.3417	65454.3	64563.7
896.0186	1575.1176	65445.6	64555.9
896.1611	1576.8928	65427.85	64536.2
896.3036	1578.6672	65405.05	64514.3
896.4461	1580.4409	65422.65	64533.55
896.5886	1582.2138	65378.65	64485.8
896.7311	1583.986	65398.15	64505.85
896.8736	1585.7575	65361.5	64471.6
897.0161	1587.5282	65393.65	64506
897.1585	1589.2981	65408	64517.45
897.3009	1591.0673	65362.7	64471
897.4433	1592.8358	65329.2	64439.6
897.5857	1594.6035	65363.45	64471.05
897.7281	1596.3704	65379.1	64488.55
897.8705	1598.1366	65318.15	64428.45
898.0128	1599.9021	65257.35	64368.55
898.1551	1601.6668	65332.25	64440.15
898.2975	1603.4308	65308.55	64417.35
898.4398	1605.194	65318.1	64424.9
898.5821	1606.9564	65244.75	64354.3
898.7243	1608.7182	65301.45	64407.85
898.8666	1610.4791	65245	64358.35
899.0088	1612.2394	65296.3	64406.2
899.1511	1613.9988	65214.5	64326.3
899.2933	1615.7576	65291.5	64402.55
899.4355	1617.5156	65287.25	64392.6
899.5776	1619.2728	65345.05	64453.25
899.7198	1621.0293	65208.05	64317.55
899.862	1622.785	65190.15	64296.9
900.0041	1624.54	65237.15	64345.05
900.1462	1626.2942	65186.6	64294.25
900.2883	1628.0477	65105.15	64212.45
900.4304	1629.8005	65020.6	64127.45
900.5725	1631.5525	65108.55	64220.75
900.7145	1633.3037	64965.8	64074.8
900.8566	1635.0542	64970.05	64082.75
900.9986	1636.804	65029.9	64142.1
901.1406	1638.553	64907.45	63936.6
901.2826	1640.3013	64967.6	64076.8
901.4245	1642.0488	64864.1	63972.4
901.5665	1643.7955	64943.85	64056.45
901.7085	1645.5416	64874.7	63985.6
901.8504	1647.2868	64790.35	63901.35
901.9923	1649.0313	64927.3	64039.3
902.1342	1650.7751	64852.9	63958.9
902.2761	1652.5181	64791.95	63903.5
902.4179	1654.2604	64771.05	63881.45
902.5598	1656.0019	64822.6	63933.6
902.7016	1657.7427	64767.05	63878.75
902.8434	1659.4828	64834	63944.6
902.9852	1661.222	64721.95	63834.05
903.127	1662.9606	64847.4	63958.85
903.2687	1664.6984	64701.2	63812.2
903.4105	1666.4354	64760.1	63870.35
903.5522	1668.1717	64559.45	63670.75
903.6939	1669.9072	64345.1	63456.55
903.8356	1671.642	64325.9	63436.6
903.9773	1673.3761	64297.6	63410.25
904.119	1675.1094	64251.55	63363.15
904.2606	1676.8419	64032.5	63144.25
904.4022	1678.5737	64100.65	63210.85
904.5439	1680.3048	63974.05	63085.25
904.6855	1682.0351	63897.55	63007.5
904.827	1683.7646	63813.45	62923.95
904.9686	1685.4934	63895.8	63008.95
905.1101	1687.2215	63512.05	62622.5
905.2517	1688.9488	63791.3	62903.85
905.3932	1690.6754	63203.6	62314.3
905.5347	1692.4012	63485.9	62597.8
905.6761	1694.1263	63526.25	62637.35
905.8176	1695.8506	63283.7	62393.9
905.9591	1697.5742	63282.9	62396.4
906.1005	1699.297	63207.55	62319.4
906.2419	1701.0191	63248.45	62360.15
906.3833	1702.7404	62962.85	62077.25
906.5246	1704.461	62870.05	61980.4
906.666	1706.1808	63001.2	62113.5
906.8073	1707.8999	62922	62031.95
906.9487	1709.6182	62817.2	61928.9
907.09	1711.3358	62812.75	61924.25
907.2313	1713.0527	62766.25	61878.45
907.3725	1714.7688	62744.4	61852.35
907.5138	1716.4841	62407.15	61516.75
907.655	1718.1987	62524.4	61630.95
907.7962	1719.9126	62415.45	61527.25
907.9374	1721.6257	62456.6	61565.15
908.0786	1723.338	62500.25	61611.2
908.2198	1725.0496	62111.15	61224
908.3609	1726.7605	62190.1	61302.3
908.502	1728.4706	62037.85	61149.3
908.6431	1730.18	62095.3	61204.85
908.7842	1731.8886	61991.5	61106.5
908.9253	1733.5964	61901.7	61009.25
909.0664	1735.3036	62081.7	61190.25
909.2074	1737.0099	61907.05	61018.85
909.3484	1738.7156	61756.95	60872.15
909.4894	1740.4204	61663.5	60773.6
909.6304	1742.1246	61717.5	60828.35
909.7714	1743.8279	61727.8	60841.9
909.9123	1745.5306	61731.05	60842.2
910.0532	1747.2325	61300.55	60412.75
910.1941	1748.9336	61309.25	60423.3
910.335	1750.634	61379.1	60490.45
910.4759	1752.3336	61494.3	60607.5
910.6168	1754.0325	61184.75	60298.35
910.7576	1755.7307	61422	60535.25
910.8984	1757.4281	61032.2	60144.1
911.0392	1759.1247	61302.35	60405.85
911.18	1760.8206	60834.3	59940.6
911.3208	1762.5158	60896.7	60003.8
911.4615	1764.2102	60964.85	60078.55
911.6022	1765.9039	60840.8	59952.45
911.7429	1767.5968	60722.65	59837.45
911.8836	1769.289	60651.9	59763
912.0243	1770.9804	60711.75	59824.25
912.1649	1772.6711	60618.45	59730.6
912.3056	1774.361	60483.95	59596.75
912.4462	1776.0502	60504.55	59617.2
912.5868	1777.7386	60177.4	59287.95
912.7274	1779.4263	60307.7	59420.05
912.8679	1781.1132	60280.4	59393.45
913.0084	1782.7994	60171.9	59283.6
913.149	1784.4849	60181.5	59293.65
913.2895	1786.1696	59717.5	58825.05
913.4299	1787.8535	59946	59059.1
913.5704	1789.5367	59981.95	59094.85
913.7108	1791.2192	59695.75	58809.1
913.8513	1792.9009	59497.7	58581.15
913.9917	1794.5818	59716.1	58826.9
914.132	1796.2621	59484.8	58598.85
914.2724	1797.9415	59473.2	58586.55
914.4128	1799.6202	59403.85	58515.45
914.5531	1801.2982	59376	58489.4
914.6934	1802.9755	59112.05	58223.1
914.8337	1804.6519	58984.1	58095.55
914.9739	1806.3277	59312.55	58426.2
915.1142	1808.0027	58672.35	57786.35
915.2544	1809.6769	58901.1	58014.8
915.3946	1811.3504	58901.3	58013.45
915.5348	1813.0231	58415.05	57527.8
915.675	1814.6951	58705.15	57818.2
915.8151	1816.3664	58504.3	57614.85
915.9553	1818.0369	58465.6	57577.9
916.0954	1819.7067	58342.1	57455.4
916.2355	1821.3757	58539	57648.8
916.3755	1823.044	58100.9	57215.3
916.5156	1824.7115	57848.65	56962.3
916.6556	1826.3783	57991.1	57103.75
916.7956	1828.0443	57955	57069.7
916.9356	1829.7096	57787.85	56901.1
917.0756	1831.3741	57307.25	56415.4
917.2155	1833.0379	57568.4	56680
917.3555	1834.701	57535.35	56645.7
917.4954	1836.3633	57219.8	56332.35
917.6353	1838.0248	57410.95	56522.6
917.7751	1839.6856	57214.8	56328.2
917.915	1841.3457	56856.05	55970.25
918.0548	1843.005	57240.3	56352.6
918.1946	1844.6636	56931.85	56046.45
918.3344	1846.3214	56384.3	55497
918.4742	1847.9785	56550.9	55664.1
918.6139	1849.6349	56509.65	55622.85
918.7537	1851.2904	56772.05	55876.2
918.8934	1852.9453	56221.7	55334.2
919.0331	1854.5994	56452.9	55564.55
919.1727	1856.2528	56443.35	55549.35
919.3124	1857.9054	56012.3	55124.05
919.452	1859.5572	55881.15	54993.75
919.5916	1861.2083	56005.85	55119.15
919.7312	1862.8587	56352.6	55465.85
919.8708	1864.5084	55330.4	54443.3
920.0103	1866.1572	55730.45	54843.35
920.1498	1867.8054	55171.7	54284.1
920.2893	1869.4528	55437.3	54550.25
920.4288	1871.0994	55035.8	54149.05
920.5683	1872.7453	54976.45	54087.7
920.7077	1874.3905	55220.3	54326.85
920.8471	1876.0349	54745	53856.6
920.9865	1877.6786	55043.15	54154.35
921.1259	1879.3215	54580.7	53694.15
921.2653	1880.9637	55057.35	54168.75
921.4046	1882.6051	54553	53666.3
921.5439	1884.2458	54260.55	53369.1
921.6832	1885.8858	53984.3	53096.45
921.8225	1887.525	54231.5	53344.65
921.9617	1889.1634	54085.25	53199.75
922.101	1890.8011	53814.8	52928.45
922.2402	1892.4381	53287.1	52401.05
922.3794	1894.0743	53863.85	52976.7
922.5185	1895.7098	53474.45	52588.65
922.6577	1897.3446	53129.8	52242.35
922.7968	1898.9786	53294.55	52403.75
922.9359	1900.6118	52934.15	52049.2
923.075	1902.2443	52621.7	51732.9
923.214	1903.8761	52966.65	52081.15
923.3531	1905.5071	52570.75	51684.25
923.4921	1907.1374	51839.25	50950.3
923.6311	1908.7669	52084.5	51198.1
923.77	1910.3957	52330.4	51443.2
923.909	1912.0237	51729.75	50843.25
924.0479	1913.651	51427.05	50538.7
924.1868	1915.2776	51345.2	50459.7
924.3257	1916.9034	51288.9	50403.1
924.4646	1918.5285	51041.85	50157.6
924.6034	1920.1528	50988.6	50101.35
924.7422	1921.7764	50811.75	49926.4
924.881	1923.3992	50708.35	49822.7
925.0198	1925.0213	50327.75	49440.95
925.1586	1926.6427	49944.9	49059.5
925.2973	1928.2633	50158.1	49193.9
925.436	1929.8832	49884.35	48996.2
925.5747	1931.5023	49733.1	48847.4
925.7134	1933.1207	49302.45	48413.8
925.852	1934.7383	49489.55	48603
925.9906	1936.3552	49204.85	48319.95
926.1292	1937.9714	49114.1	48227
926.2678	1939.5868	49049.5	48160.7
926.4064	1941.2015	48569.75	47682.8
926.5449	1942.8154	48284.1	47397.15
926.6834	1944.4286	48308.75	47422.1
926.8219	1946.041	48256.4	47352.55
926.9604	1947.6528	47978.6	47087.85
927.0988	1949.2637	47827.05	46942.2
927.2372	1950.8739	47556.45	46668.75
927.3756	1952.4834	47619.3	46732.15
927.514	1954.0921	47446.4	46559.65
927.6523	1955.7001	47094.6	46204.8
927.7907	1957.3074	47171.1	46286
927.929	1958.9139	46720.8	45835.7
928.0673	1960.5197	46839.15	45951.55
928.2055	1962.1247	46626.45	45740.6
928.3438	1963.729	46350.75	45467
928.482	1965.3325	46181.7	45270.6
928.6202	1966.9353	46135.1	45249.1
928.7584	1968.5374	45839.95	44952.35
928.8965	1970.1387	45658.9	44772.8
929.0346	1971.7393	45591.8	44706.05
929.1727	1973.3392	45437.1	44551.05
929.3108	1974.9383	45195.8	44308.5
929.4489	1976.5366	44994.15	44108.25
929.5869	1978.1342	45006.45	44117.95
929.7249	1979.7311	44895.6	44007.95
929.8629	1981.3273	44705.05	43819.1
930.0009	1982.9227	44535.15	43646.4
930.1388	1984.5173	44497.15	43612.6
930.2767	1986.1112	44253.45	43367.8
930.4146	1987.7044	44302.35	43418.8
930.5525	1989.2968	43903.15	43015.95
930.6904	1990.8885	43945.85	43056.45
930.8282	1992.4795	43750.45	42860.75
930.966	1994.0697	43670.05	42783.9
931.1038	1995.6592	43466.8	42581.1
931.2415	1997.2479	43297.75	42413.4
931.3793	1998.8359	43235.35	42350.7
931.517	2000.4232	43012.9	42127.5
931.6547	2002.0097	42954.05	42069.25
931.7923	2003.5955	42702.7	41815.8
931.93	2005.1805	42643.3	41757.9
932.0676	2006.7648	42513.15	41629.35
932.2052	2008.3484	42369.85	41482.4
932.3427	2009.9312	42387.05	41500.75
932.4803	2011.5133	42218	41332.35
932.6178	2013.0946	42117.3	41232.85
932.7553	2014.6752	41957.85	41073.4
932.8928	2016.2551	41808.25	40920.95
933.0302	2017.8342	41666.4	40781.75
933.1676	2019.4126	41471.5	40587.5
933.305	2020.9902	41385.85	40501.6
933.4424	2022.5672	41307.2	40422.25
933.5798	2024.1433	41191.55	40300.2
933.7171	2025.7188	41031.3	40146.2
933.8544	2027.2935	40852.4	39964.7
933.9917	2028.8674	40663.35	39775.5
934.129	2030.4406	40602.9	39719.75
934.2662	2032.0131	40383.75	39501.25
934.4034	2033.5849	40208.8	39319.6
934.5406	2035.1559	40211.85	39326.85
934.6778	2036.7261	40181.25	39295.55
934.8149	2038.2957	40037.4	39152.05
934.952	2039.8645	39910.3	39024.55
935.0891	2041.4325	39948.4	39062
935.2262	2042.9998	39761.45	38873.55
935.3632	2044.5664	39610.65	38722.25
935.5002	2046.1323	39486.25	38600.8
935.6372	2047.6974	39393.65	38509.8
935.7742	2049.2617	39231.95	38348.75
935.9111	2050.8254	39273.8	38383.7
936.048	2052.3883	39130.75	38244.45
936.1849	2053.9504	39003.6	38118.75
936.3218	2055.5118	38831.1	37942.8
936.4586	2057.0725	38640.85	37752.1
936.5955	2058.6325	38564.5	37679.95
936.7323	2060.1917	38400.05	37515.15
936.869	2061.7502	38342.1	37455.7
937.0058	2063.3079	38170.15	37285.95
937.1425	2064.8649	38067.35	37181.4
937.2792	2066.4212	37997.75	37110.55
937.4159	2067.9767	37879.05	36993.25
937.5525	2069.5315	37700.6	36815.95
937.6891	2071.0856	37501.3	36617.65
937.8257	2072.6389	37337.45	36451.7
937.9623	2074.1915	37230.2	36346.4
938.0989	2075.7433	37024	36137.15
938.2354	2077.2945	36984.6	36099.35
938.3719	2078.8448	36874.15	35989.15
938.5084	2080.3945	36700.5	35814.85
938.6448	2081.9434	36725.85	35841
938.7812	2083.4916	36557.45	35672.05
938.9176	2085.039	36417.85	35529.65
939.054	2086.5857	36332.5	35446.3
939.1903	2088.1317	36296.85	35410.35
939.3267	2089.677	36178.3	35293.05
939.463	2091.2215	36088.9	35203.15
939.5992	2092.7652	35926.6	35038.3
939.7355	2094.3083	35877.95	34990.65
939.8717	2095.8506	35824.2	34937.9
940.0079	2097.3921	35774.95	34890.75
940.1441	2098.933	35666.2	34781.7
940.2802	2100.4731	35513.75	34627.05
940.4163	2102.0124	35496.65	34592.35
940.5524	2103.5511	35342.2	34458.2
940.6885	2105.089	35308.35	34422.8
940.8245	2106.6261	35226.2	34339.3
940.9606	2108.1626	35071.4	34184.2
941.0965	2109.6983	35066.55	34152.35
941.2325	2111.2332	34874.6	33986.7
941.3684	2112.7675	34799.95	33912.05
941.5044	2114.301	34687.75	33800.55
941.6403	2115.8337	34654.95	33768.85
941.7761	2117.3657	34526.7	33642
941.912	2118.897	34447.9	33560.9
942.0478	2120.4276	34336.1	33445.75
942.1835	2121.9575	34175	33288
942.3193	2123.4866	34179.15	33278.15
942.455	2125.0149	34023.35	33134.55
942.5907	2126.5426	33864.2	32977.9
942.7264	2128.0695	33774.4	32886.15
942.8621	2129.5956	33741.8	32858.2
942.9977	2131.1211	33649.4	32758.75
943.1333	2132.6458	33550.25	32665.6
943.2689	2134.1698	33445.4	32558.85
943.4044	2135.693	33382.65	32494.3
943.54	2137.2155	33262	32374.05
943.6755	2138.7373	33212.4	32323.45
943.8109	2140.2584	33090	32204.65
943.9464	2141.7787	32975.5	32084.7
944.0818	2143.2983	32807	31922.1
944.2172	2144.8171	32640.95	31756.25
944.3526	2146.3353	32554.35	31666.05
944.4879	2147.8527	32439.1	31553.85
944.6232	2149.3693	32410.8	31524.95
944.7585	2150.8853	32254	31368.9
944.8938	2152.4005	32126.65	31240.6
945.029	2153.9149	32054.4	31167.4
945.1642	2155.4287	31989.8	31103.6
945.2994	2156.9417	31907.95	31018.9
945.4346	2158.454	31814.3	30926.45
945.5697	2159.9655	31719.9	30835.3
945.7048	2161.4764	31712.3	30825.4
945.8399	2162.9865	31523.9	30638.9
945.9749	2164.4958	31447.75	30561.4
946.1099	2166.0045	31310.15	30422
946.2449	2167.5124	31292.05	30406.15
946.3799	2169.0195	31227.7	30342.6
946.5148	2170.526	31175.1	30290.7
946.6498	2172.0317	31042.65	30156.65
946.7846	2173.5367	30925.05	30039.5
946.9195	2175.0409	30851.8	29966
947.0543	2176.5445	30817.3	29933.7
947.1891	2178.0473	30690.3	29804.1
947.3239	2179.5494	30549.65	29660.45
947.4587	2181.0507	30443.95	29559.6
947.5934	2182.5513	30365.9	29481.65
947.7281	2184.0512	30296.55	29410.3
947.8628	2185.5504	30186.2	29299.55
947.9974	2187.0488	30001.2	29115.15
948.132	2188.5465	29953.6	29067.3
948.2666	2190.0435	29832.95	28946.15
948.4012	2191.5397	29695.45	28811.05
948.5357	2193.0353	29609.45	28723.35
948.6702	2194.5301	29450.25	28564.05
948.8047	2196.0241	29374.75	28488.9
948.9392	2197.5175	29348.5	28463.65
949.0736	2199.0101	29191	28301.65
949.208	2200.502	29003.1	28119
949.3424	2201.9931	28923.5	28037.8
949.4767	2203.4835	28837.7	27951.2
949.611	2204.9733	28776.65	27886.05
949.7453	2206.4622	28686.7	27801.75
949.8796	2207.9505	28596.35	27708.4
950.0138	2209.438	28420.3	27537.9
950.148	2210.9248	28333.35	27448.2
950.2822	2212.4109	28273.65	27388.95
950.4164	2213.8962	28145.45	27257.5
950.5505	2215.3809	28110.5	27223.8
950.6846	2216.8648	28057	27171.25
950.8186	2218.3479	27975.2	27085.8
950.9527	2219.8304	27843.9	26955.55
951.0867	2221.3121	27713.4	26826.15
951.2207	2222.7931	27615.6	26732.65
951.3546	2224.2733	27493.5	26605.75
951.4886	2225.7529	27386.1	26500.3
951.6225	2227.2317	27293.05	26403.1
951.7563	2228.7098	27269.85	26386.6
951.8902	2230.1872	27123.85	26237.85
952.024	2231.6638	27089.7	26203.15
952.1578	2233.1397	26997.95	26106.65
952.2916	2234.6149	26889.55	26004.2
952.4253	2236.0894	26789.95	25905.2
952.559	2237.5632	26789.9	25902.8
952.6927	2239.0362	26630.15	25744.25
952.8263	2240.5085	26554.6	25668.7
952.9599	2241.9801	26452.3	25565.4
953.0935	2243.4509	26399.6	25514.7
953.2271	2244.921	26262.55	25376.3
953.3606	2246.3904	26209.05	25320.6
953.4941	2247.8591	26085.8	25200.05
953.6276	2249.3271	26022.15	25135.2
953.7611	2250.7943	25910.7	25023.05
953.8945	2252.2608	25785.85	24900.5
954.0279	2253.7266	25766.45	24882.5
954.1612	2255.1917	25686.95	24801.35
954.2946	2256.656	25559	24673.1
954.4279	2258.1197	25456.55	24573.8
954.5612	2259.5826	25391.15	24503.4
954.6944	2261.0447	25382.85	24496.05
954.8276	2262.5062	25268.85	24382.55
954.9608	2263.9669	25247.2	24355.65
955.094	2265.4269	25178.65	24294.25
955.2271	2266.8862	25101.85	24219.35
955.3602	2268.3448	25023.95	24138.75
955.4933	2269.8026	24980.1	24094.8
955.6264	2271.2598	24878.95	23992.5
955.7594	2272.7162	24771.45	23886.6
955.8924	2274.1719	24686.6	23801.25
956.0253	2275.6268	24658.9	23771.9
956.1583	2277.0811	24616.1	23730.1
956.2912	2278.5346	24487.75	23603.75
956.4241	2279.9874	24423.1	23536.75
956.5569	2281.4395	24410.75	23526.3
956.6897	2282.8908	24247.25	23358
956.8225	2284.3414	24230.05	23343.85
956.9553	2285.7914	24174.15	23289.4
957.088	2287.2406	24074.35	23189.45
957.2207	2288.689	24021.05	23134.85
957.3534	2290.1368	23952.15	23065.8
957.486	2291.5838	23831	22942.35
957.6186	2293.0302	23779.75	22891.75
957.7512	2294.4758	23670.3	22784.5
957.8838	2295.9206	23552.2	22666.1
958.0163	2297.3648	23515.4	22629.2
958.1488	2298.8082	23502.85	22615.55
958.2813	2300.251	23439.35	22553.7
958.4137	2301.693	23315.05	22427.55
958.5461	2303.1343	23303.75	22416
958.6785	2304.5748	23194.1	22308.6
958.8108	2306.0147	23093.75	22207.15
958.9432	2307.4538	23063.1	22176.15
959.0754	2308.8922	22962.85	22078.4
959.2077	2310.3299	22922.45	22037.65
959.3399	2311.7669	22811.5	21926.55
959.4721	2313.2031	22736.15	21853.1
959.6043	2314.6387	22666.35	21781.2
959.7365	2316.0735	22579.6	21694.85
959.8686	2317.5076	22563.8	21677.65
960.0006	2318.941	22478.5	21591.2
960.1327	2320.3737	22406.95	21520.7
960.2647	2321.8056	22285.2	21397.55
960.3967	2323.2369	22221.05	21335.45
960.5287	2324.6674	22195.65	21310.05
960.6606	2326.0972	22101.35	21215.9
960.7925	2327.5263	21987.2	21102.25
960.9244	2328.9547	21907.6	21021.55
961.0562	2330.3823	21894	21005.55
961.1881	2331.8092	21847.85	20960.95
961.3198	2333.2355	21759.05	20872.15
961.4516	2334.661	21724.5	20839.3
961.5833	2336.0858	21692.05	20806.9
961.715	2337.5098	21612.4	20726.3
961.8467	2338.9332	21563.05	20677.35
961.9783	2340.3558	21514.15	20626.05
962.1099	2341.7778	21413.35	20527.05
962.2415	2343.199	21275.1	20388.65
962.373	2344.6195	21241.3	20355.25
962.5045	2346.0393	21204.05	20318.7
962.636	2347.4583	21169	20283.95
962.7675	2348.8767	21058.8	20172.3
962.8989	2350.2943	21007.75	20122.45
963.0303	2351.7113	20988.95	20102.35
963.1617	2353.1275	20903.05	20016.6
963.293	2354.543	20814.8	19920.3
963.4243	2355.9578	20753.1	19866.55
963.5556	2357.3718	20620.85	19736.05
963.6868	2358.7852	20506.3	19617
963.818	2360.1978	20468.4	19580.7
963.9492	2361.6098	20422	19538.35
964.0803	2363.021	20363.65	19474.7
964.2114	2364.4315	20285.95	19400.9
964.3425	2365.8413	20223.75	19337.85
964.4736	2367.2504	20181.75	19297.95
964.6046	2368.6587	20063.55	19178
964.7356	2370.0664	19980.75	19096.75
964.8666	2371.4733	19938.7	19051.85
964.9975	2372.8795	19898.2	19014.75
965.1284	2374.285	19798.25	18911.2
965.2593	2375.6899	19654.1	18770.65
965.3901	2377.0939	19567.45	18681.6
965.5209	2378.4973	19540.55	18657.8
965.6517	2379.9	19500.55	18613.3
965.7825	2381.3019	19383.05	18498.85
965.9132	2382.7032	19387.95	18503.75
966.0439	2384.1037	19332.2	18448.7
966.1745	2385.5035	19237.9	18352.05
966.3051	2386.9027	19172.15	18288.5
966.4357	2388.3011	19124.4	18235.7
966.5663	2389.6987	19075.05	18188.65
966.6968	2391.0957	19001.35	18116.85
966.8273	2392.492	18904.8	18023.05
966.9578	2393.8876	18790.8	17906.25
967.0882	2395.2824	18719.5	17835
967.2186	2396.6765	18686.35	17802.3
967.349	2398.07	18592.7	17708.25
967.4793	2399.4627	18525.5	17640.45
967.6097	2400.8547	18494.2	17608.5
967.7399	2402.246	18433.15	17542.15
967.8702	2403.6366	18322	17438.25
968.0004	2405.0265	18226.1	17342
968.1306	2406.4156	18165.05	17275.95
968.2607	2407.8041	18074.5	17186.2
968.3909	2409.1918	18027.15	17138.85
968.521	2410.5789	17972.05	17086.65
968.651	2411.9652	17895.4	17005.65
968.781	2413.3508	17796.75	16911.45
968.911	2414.7358	17786.9	16902
969.041	2416.12	17728.3	16844.8
969.1709	2417.5035	17652.15	16767.4
969.3008	2418.8863	17552.9	16665.75
969.4307	2420.2684	17562.7	16678.8
969.5606	2421.6497	17437	16553.4
969.6904	2423.0304	17323.7	16440.45
969.8201	2424.4104	17274.8	16389.65
969.9499	2425.7896	17231.5	16344.65
970.0796	2427.1682	17170.35	16284.75
970.2093	2428.546	17127.35	16241.5
970.3389	2429.9232	17060.75	16174.95
970.4685	2431.2996	17038.4	16151.7
970.5981	2432.6753	17011	16126.85
970.7277	2434.0503	16976.4	16091.15
970.8572	2435.4246	16879.5	15996.25
970.9867	2436.7982	16812.15	15923.5
971.1161	2438.1711	16782.55	15900
971.2456	2439.5433	16698.55	15812.6
971.375	2440.9148	16625.55	15736.55
971.5043	2442.2856	16559.85	15675.1
971.6336	2443.6557	16516.7	15629
971.7629	2445.025	16431.1	15546.2
971.8922	2446.3937	16405.85	15520.4
972.0214	2447.7617	16361.2	15476.45
972.1506	2449.1289	16303.05	15418
972.2798	2450.4955	16284.5	15397.1
972.4089	2451.8613	16224.75	15340.6
972.538	2453.2265	16204.2	15318.8
972.6671	2454.5909	16152	15267.35
972.7961	2455.9546	16056.35	15172.5
972.9251	2457.3177	15984.7	15099.5
973.0541	2458.68	15949.9	15064.45
973.1831	2460.0416	15914.6	15030.85
973.312	2461.4025	15895.15	15009.55
973.4408	2462.7627	15850.8	14953.75
973.5697	2464.1222	15772.35	14889
973.6985	2465.4811	15730.4	14844.3
973.8273	2466.8392	15687.55	14799.6
973.956	2468.1966	15654.15	14766.65
974.0847	2469.5533	15599.8	14711.55
974.2134	2470.9093	15563.55	14676.8
974.3421	2472.2645	15524.95	14637
974.4707	2473.6191	15492.3	14606.55
974.5993	2474.973	15405.95	14521.35
974.7278	2476.3262	15354.75	14467.05
974.8563	2477.6787	15267.4	14382.55
974.9848	2479.0305	15218.9	14332.6
975.1132	2480.3816	15148.65	14261.45
975.2417	2481.7319	15088.55	14200.7
975.37	2483.0816	15034.9	14149.35
975.4984	2484.4306	14997.3	14111.05
975.6267	2485.7789	14949.35	14065.85
975.755	2487.1264	14861.55	13974.05
975.8833	2488.4733	14811.1	13928.05
976.0115	2489.8195	14761.45	13868.85
976.1397	2491.165	14683.3	13793.4
976.2678	2492.5097	14690.5	13803.25
976.3959	2493.8538	14608.9	13724.85
976.524	2495.1972	14495.45	13609.95
976.6521	2496.5398	14444.9	13559.7
976.7801	2497.8818	14421.6	13534.9
976.9081	2499.2231	14358.45	13475.15
977.036	2500.5637	14296.65	13410.15
977.164	2501.9035	14230.35	13343.1
977.2918	2503.2427	14218.95	13329.95
977.4197	2504.5812	14169.55	13285.35
977.5475	2505.919	14154.1	13267.35
977.6753	2507.256	14114.2	13228.65
977.8031	2508.5924	14049.3	13165.3
977.9308	2509.9281	14012.8	13120
978.0585	2511.2631	13950	13066.55
978.1861	2512.5974	13928.75	13043.6
978.3137	2513.9309	13831.15	12946.8
978.4413	2515.2638	13806.25	12894.3
978.5689	2516.596	13733.35	12847.15
978.6964	2517.9275	13657.6	12770.2
978.8239	2519.2583	13639.4	12751.5
978.9513	2520.5884	13568.25	12681.1
979.0788	2521.9178	13552.95	12667.3
979.2062	2523.2465	13481.05	12597.9
979.3335	2524.5745	13427.1	12543.25
979.4608	2525.9018	13409.85	12524.7
979.5881	2527.2284	13368.85	12484.6
979.7154	2528.5543	13338.7	12455.25
979.8426	2529.8796	13274.35	12390.85
979.9698	2531.2041	13263	12376.4
980.0969	2532.5279	13230.1	12346.6
980.224	2533.851	13163.2	12278.55
980.3511	2535.1735	13134.55	12248.6
980.4781	2536.4952	13091.6	12208.5
980.6052	2537.8163	13046.85	12160.7
980.7321	2539.1366	13046	12160.75
980.8591	2540.4562	12980.2	12093.7
980.986	2541.7752	12950.15	12064.4
981.1129	2543.0935	12947.55	12062.35
981.2397	2544.411	12898	12012.5
981.3665	2545.7279	12863.55	11981.25
981.4933	2547.0441	12855.35	11970.9
981.62	2548.3596	12846	11957.05
981.7467	2549.6744	12792.5	11908.15
981.8734	2550.9885	12754.9	11864.1
982.0001	2552.3019	12696.6	11812.55
982.1267	2553.6146	12671.85	11785.95
982.2532	2554.9266	12617.55	11731.15
982.3798	2556.2379	12588.25	11702.45
982.5063	2557.5485	12552.55	11667.75
982.6327	2558.8585	12496.6	11605.3
982.7592	2560.1677	12500.6	11611.4
982.8856	2561.4762	12493.5	11607.45
983.0119	2562.7841	12464.6	11577.4
983.1383	2564.0913	12429.7	11548.3
983.2646	2565.3977	12397.25	11512.55
983.3908	2566.7035	12347.9	11462.45
983.517	2568.0086	12339.8	11454.95
983.6432	2569.313	12308.3	11424.55
983.7694	2570.6167	12281.85	11392.55
983.8955	2571.9197	12241.05	11356.2
984.0216	2573.222	12224.25	11337.65
984.1476	2574.5236	12172.6	11286.15
984.2737	2575.8246	12132.4	11245.6
984.3996	2577.1248	12134.05	11246.15
984.5256	2578.4244	12099.55	11214.95
984.6515	2579.7232	12106.3	11222.35
984.7774	2581.0214	12071.55	11160.65
984.9032	2582.3189	11995.25	11109.7
985.029	2583.6157	12010.4	11120.3
985.1548	2584.9118	11961.95	11075.35
985.2806	2586.2072	11920.1	11037.25
985.4063	2587.5019	11869.2	10984.6
985.5319	2588.7959	11844.3	10958.55
985.6576	2590.0893	11822.6	10936.55
985.7832	2591.3819	11804.35	10918.8
985.9087	2592.6739	11744.55	10861.55
986.0343	2593.9652	11699.75	10812.75
986.1597	2595.2557	11686.25	10801.55
986.2852	2596.5456	11617.1	10728.4
986.4106	2597.8348	11579.8	10694.25
986.536	2599.1234	11515.5	10632.2
986.6614	2600.4112	11487	10602.75
986.7867	2601.6983	11427	10540.8
986.912	2602.9848	11369.35	10485.35
987.0372	2604.2705	11366.3	10473.3
987.1624	2605.5556	11331.5	10447
987.2876	2606.84	11292.7	10409.5
987.4128	2608.1237	11250.8	10364.85
987.5379	2609.4067	11187.05	10302.75
987.6629	2610.689	11168.65	10272.85
987.788	2611.9707	11116.9	10229.75
987.913	2613.2516	11070.95	10180.95
988.0379	2614.5319	11024.1	10140
988.1629	2615.8115	10987	10102.15
988.2878	2617.0903	10945.2	10060.1
988.4126	2618.3685	10886.55	10001.7
988.5375	2619.6461	10839.15	9953.85
988.6622	2620.9229	10828.55	9943.05
988.787	2622.199	10803.15	9917.6
988.9117	2623.4745	10755.65	9869.4
989.0364	2624.7493	10699.85	9814.7
989.161	2626.0234	10694.75	9811.1
989.2857	2627.2968	10650.4	9764.7
989.4102	2628.5695	10589.2	9702.95
989.5348	2629.8415	10552.35	9668.05
989.6593	2631.1128	10517.7	9631.25
989.7837	2632.3835	10448.9	9565.25
989.9082	2633.6535	10390.8	9507.1
990.0326	2634.9228	10376.4	9491.85
990.1569	2636.1914	10330.55	9447.15
990.2812	2637.4593	10333.3	9444
990.4055	2638.7265	10282.1	9396.5
990.5298	2639.9931	10253.5	9369.45
990.654	2641.259	10211.65	9325.05
990.7782	2642.5242	10175.25	9289
990.9023	2643.7887	10158.7	9274.95
991.0264	2645.0525	10093.95	9208.95
991.1505	2646.3156	10071.45	9186
991.2745	2647.5781	10030.8	9146.35
991.3985	2648.8398	10006.25	9121.1
991.5225	2650.1009	9991.7	9068.65
991.6464	2651.3613	9951.55	9066.9
991.7703	2652.6211	9925.4	9040.1
991.8942	2653.8801	9879.3	8997.3
992.018	2655.1385	9850.55	8962.1
992.1418	2656.3961	9801.2	8916.45
992.2655	2657.6531	9828	8942.8
992.3892	2658.9094	9792.7	8909.2
992.5129	2660.1651	9760.6	8875.95
992.6366	2661.42	9730.7	8845.65
992.7602	2662.6743	9713.95	8828
992.8837	2663.9279	9693.25	8811.1
993.0073	2665.1808	9667.25	8782.75
993.1307	2666.433	9606.1	8720.65
993.2542	2667.6846	9598.65	8712.7
993.3776	2668.9354	9567.35	8680.85
993.501	2670.1856	9531.25	8644
993.6244	2671.4351	9498.95	8615.25
993.7477	2672.6839	9508.9	8622.5
993.8709	2673.9321	9463.9	8580.05
993.9942	2675.1795	9438.05	8554.8
994.1174	2676.4263	9413.35	8530.65
994.2405	2677.6724	9375.2	8493.3
994.3637	2678.9179	9334.55	8450.15
994.4868	2680.1626	9307.2	8423.75
994.6098	2681.4067	9279.5	8396.75
994.7328	2682.6501	9249	8364.8
994.8558	2683.8928	9213.55	8328.45
994.9788	2685.1348	9190.6	8307.45
995.1017	2686.3761	9141.85	8257.2
995.2245	2687.6168	9103.95	8221
995.3474	2688.8568	9068.45	8183.6
995.4702	2690.0961	9022.35	8140.6
995.5929	2691.3348	9026.35	8142.3
995.7156	2692.5727	8995.55	8110.85
995.8383	2693.81	8959.65	8076.8
995.961	2695.0466	8936.8	8052
996.0836	2696.2826	8923.65	8038.45
996.2062	2697.5178	8892.75	8006.45
996.3287	2698.7524	8851.5	7966
996.4512	2699.9863	8830.4	7942.95
996.5737	2701.2195	8771.3	7888
996.6961	2702.452	8760.75	7874.85
996.8185	2703.6839	8743.65	7860
996.9408	2704.9151	8707.75	7824.7
997.0631	2706.1456	8695	7810.1
997.1854	2707.3755	8658.8	7772.75
997.3077	2708.6046	8630	7743.3
997.4299	2709.8331	8614.05	7728
997.552	2711.0609	8570.5	7684.5
997.6742	2712.2881	8552.9	7666.75
997.7963	2713.5145	8541.55	7654.6
997.9183	2714.7403	8499.35	7614.7
998.0403	2715.9654	8479.8	7595.85
998.1623	2717.1899	8436.9	7552.6
998.2842	2718.4136	8435.45	7550.05
998.4062	2719.6367	8400.6	7516.85
998.528	2720.8591	8391.15	7501.9
998.6498	2722.0809	8356.7	7473.95
998.7716	2723.3019	8317.8	7429.55
998.8934	2724.5223	8285.5	7399.35
999.0151	2725.7421	8287.2	7401.65
999.1368	2726.9611	8261.05	7373.35
999.2584	2728.1795	8231.25	7340.65
999.38	2729.3972	8185.6	7301.6
999.5016	2730.6142	8158.15	7267.05
999.6231	2731.8306	8095.05	7209.75
999.7446	2733.0462	8061.65	7176.6
999.8661	2734.2612	8034.1	7143.9
999.9875	2735.4756	8004.2	7118.9
1000.1089	2736.6892	7935.6	7049.5
1000.2302	2737.9022	7893.85	7010
1000.3515	2739.1145	7851.1	6964.85
1000.4728	2740.3262	7852.5	6960.65
1000.594	2741.5372	7799.15	6916.1
1000.7152	2742.7475	7750.85	6865.4
1000.8363	2743.9571	7728.95	6845.25
1000.9575	2745.1661	7694.9	6807
1001.0785	2746.3744	7699.15	6814.05
1001.1996	2747.582	7671.6	6788.95
1001.3206	2748.7889	7626.9	6738.45
1001.4415	2749.9952	7594.5	6709.8
1001.5625	2751.2008	7551.8	6666.25
1001.6833	2752.4057	7546.1	6659.05
1001.8042	2753.61	7505.45	6621.8
1001.925	2754.8136	7488.25	6601.75
1002.0458	2756.0165	7442.95	6557.55
1002.1665	2757.2188	7434.55	6552.15
1002.2872	2758.4204	7404.25	6519.05
1002.4078	2759.6213	7366.65	6480
1002.5285	2760.8215	7352.3	6464.25
1002.649	2762.0211	7329.85	6443.2
1002.7696	2763.22	7286.1	6399.15
1002.8901	2764.4182	7274.2	6388.25
1003.0106	2765.6158	7264.3	6378.2
1003.131	2766.8127	7235.05	6350.5
1003.2514	2768.009	7190.55	6306.8
1003.3717	2769.2045	7197.95	6313
1003.492	2770.3994	7176.6	6289.35
1003.6123	2771.5936	7136.05	6249.15
1003.7325	2772.7872	7112.2	6229.6
1003.8527	2773.9801	7075.75	6188.8
1003.9729	2775.1723	7062.85	6161.3
1004.093	2776.3639	7040.25	6155
1004.2131	2777.5548	6999.25	6114.05
1004.3331	2778.745	6965.4	6079.65
1004.4531	2779.9346	6966.4	6083.7
1004.5731	2781.1235	6950.45	6064.7
1004.693	2782.3117	6914	6029.8
1004.8129	2783.4992	6889.65	6006.15
1004.9328	2784.6861	6861.4	5977.75
1005.0526	2785.8723	6841.1	5957.8
1005.1723	2787.0579	6817.8	5932.3
1005.2921	2788.2428	6805.7	5921.25
1005.4118	2789.427	6784.5	5901.05
1005.5314	2790.6106	6737.25	5852.5
1005.651	2791.7935	6751.95	5865.25
1005.7706	2792.9757	6726.65	5842.8
1005.8902	2794.1573	6706.35	5818.95
1006.0097	2795.3382	6692.85	5809.8
1006.1291	2796.5184	6664.3	5780.6
1006.2485	2797.698	6640.15	5752.5
1006.3679	2798.8769	6629.85	5743.95
1006.4873	2800.0551	6627.5	5742.3
1006.6066	2801.2327	6594.75	5706.85
1006.7258	2802.4096	6574	5692.95
1006.8451	2803.5859	6575.5	5689.4
1006.9642	2804.7615	6557.9	5672.25
1007.0834	2805.9364	6552.2	5668.85
1007.2025	2807.1106	6554.3	5671.6
1007.3216	2808.2842	6544.55	5658.6
1007.4406	2809.4572	6539.8	5654.85
1007.5596	2810.6294	6553	5667.1
1007.6785	2811.801	6556.2	5673.9
1007.7975	2812.972	6568.25	5685.1
1007.9163	2814.1423	6569.6	5685.3
1008.0352	2815.3119	6586.1	5703.4
1008.154	2816.4808	6597.6	5712.85
1008.2727	2817.6491	6604.25	5719.7
1008.3914	2818.8167	6635.45	5752.65
1008.5101	2819.9837	6661.6	5774.2
1008.6288	2821.15	6675.8	5790.4
1008.7474	2822.3157	6686.65	5804.45
1008.8659	2823.4807	6732.45	5848.9
1008.9844	2824.645	6751.9	5865.2
1009.1029	2825.8086	6787.05	5903.9
1009.2214	2826.9716	6803.1	5920.6
1009.3398	2828.134	6823.6	5940.85
1009.4581	2829.2957	6870.95	5985.85
1009.5764	2830.4567	6873.55	5990.3
1009.6947	2831.617	6874	5988.4
1009.813	2832.7767	6862.85	5978.9
1009.9312	2833.9358	6850.7	5966.75
1010.0493	2835.0941	6823.65	5936.65
1010.1675	2836.2519	6815.4	5932.45
1010.2855	2837.4089	6783.95	5899.95
1010.4036	2838.5653	6742.1	5857.3
1010.5216	2839.7211	6732.1	5850.35
1010.6396	2840.8761	6728.4	5843.2
1010.7575	2842.0306	6703.65	5820.1
1010.8754	2843.1843	6729.25	5843.75
1010.9932	2844.3374	6726.6	5842.25
1011.111	2845.4899	6757	5871.75
1011.2288	2846.6417	6776.6	5892.55
1011.3465	2847.7928	6822.65	5939.3
1011.4642	2848.9433	6830.1	5947
1011.5818	2850.0931	6877.3	5993.9
1011.6995	2851.2422	6906.5	6022.85
1011.817	2852.3907	6938	6052.7
1011.9345	2853.5385	6977.6	6089.4
1012.052	2854.6857	7008.75	6114.65
1012.1695	2855.8323	7017.1	6133.55
1012.2869	2856.9781	7023.6	6140.3
1012.4042	2858.1233	7043.65	6159.2
1012.5216	2859.2679	7061.6	6178.1
1012.6389	2860.4118	7077.45	6194.2
1012.7561	2861.555	7099.45	6209.05
1012.8733	2862.6976	7097.8	6212.45
1012.9905	2863.8395	7091.65	6207.1
1013.1076	2864.9808	7106	6222.4
1013.2247	2866.1214	7108.05	6226.15
1013.3417	2867.2614	7119.35	6235.7
1013.4587	2868.4007	7118.7	6234.35
1013.5757	2869.5393	7081.65	6195.9
1013.6926	2870.6773	7086.05	6198.45
1013.8095	2871.8146	7087.3	6202.05
1013.9263	2872.9513	7067.35	6180.85
1014.0431	2874.0874	7000.15	6116.75
1014.1599	2875.2227	6993.35	6110.05
1014.2766	2876.3574	6959.7	6075.55
1014.3933	2877.4915	6931.45	6047.05
1014.51	2878.6249	6897.5	6013.3
1014.6266	2879.7577	6844.05	5959
1014.7431	2880.8898	6820.15	5927.25
1014.8596	2882.0212	6786.3	5902.6
1014.9761	2883.152	6750.7	5866.15
1015.0925	2884.2821	6722.95	5840.05
1015.2089	2885.4116	6699.45	5816.1
1015.3253	2886.5405	6658.25	5776.2
1015.4416	2887.6686	6668.75	5783.6
1015.5579	2888.7962	6657.75	5774.8
1015.6741	2889.923	6627.2	5742.6
1015.7903	2891.0493	6611.7	5727.55
1015.9065	2892.1748	6621.3	5738.1
1016.0226	2893.2997	6628.65	5743.4
1016.1387	2894.424	6592.85	5709.85
1016.2547	2895.5476	6586.3	5703.55
1016.3707	2896.6706	6581.9	5698.65
1016.4866	2897.7929	6578.9	5695.7
1016.6025	2898.9145	6566.65	5680.75
1016.7184	2900.0355	6594.6	5712.3
1016.8342	2901.1559	6578.65	5696.3
1016.95	2902.2756	6613.65	5729.75
1017.0658	2903.3946	6601	5717.5
1017.1815	2904.513	6624.35	5736.5
1017.2971	2905.6308	6620.55	5737.65
1017.4127	2906.7479	6593.2	5708.7
1017.5283	2907.8643	6607.15	5725.55
1017.6439	2908.9801	6612.45	5729.5
1017.7594	2910.0953	6577.3	5693.4
1017.8748	2911.2098	6557.75	5670.6
1017.9902	2912.3236	6541.15	5649.8
1018.1056	2913.4368	6509.85	5622.4
1018.2209	2914.5494	6483.6	5600.15
1018.3362	2915.6613	6467	5577
1018.4515	2916.7725	6436.55	5551.9
1018.5667	2917.8831	6381.85	5497.3
1018.6819	2918.9931	6353.55	5469
1018.797	2920.1024	6308.15	5424.25
1018.9121	2921.211	6293.15	5410.05
1019.0271	2922.319	6251.7	5367.3
1019.1421	2923.4264	6233.35	5350.25
1019.2571	2924.5331	6194.15	5311.25
1019.372	2925.6391	6197.75	5314.8
1019.4869	2926.7445	6178.75	5295.9
1019.6017	2927.8493	6166	5282.25
1019.7165	2928.9534	6151.35	5266.65
1019.8313	2930.0569	6129.45	5242.25
1019.946	2931.1597	6131.4	5246.65
1020.0606	2932.2619	6130.7	5247.35
1020.1753	2933.3634	6098.8	5214.6
1020.2899	2934.4643	6099.8	5209.65
1020.4044	2935.5645	6098.5	5208.3
1020.5189	2936.6641	6060.4	5171.45
1020.6334	2937.763	5999.85	5117.6
1020.7478	2938.8613	5965.6	5081.25
1020.8622	2939.959	5922.45	5034
1020.9765	2941.056	5855.65	4974.35
1021.0908	2942.1523	5773.5	4889
1021.2051	2943.248	5711.8	4828.35
1021.3193	2944.3431	5620.45	4738.7
1021.4334	2945.4375	5544.3	4659.05
1021.5476	2946.5313	5454.1	4572.8
1021.6617	2947.6244	5348.6	4463.65
1021.7757	2948.7169	5266.9	4383.2
1021.8897	2949.8087	5195.9	4312.8
1022.0037	2950.8999	5102.2	4218.55
1022.1176	2951.9904	5026.7	4142.55
1022.2315	2953.0803	4956.05	4074.1
1022.3453	2954.1696	4899.4	4014.8
1022.4591	2955.2582	4851.45	3968
1022.5728	2956.3462	4812.6	3928.25
1022.6865	2957.4335	4778.25	3892.5
1022.8002	2958.5202	4722.4	3836.9
1022.9138	2959.6062	4671.7	3787.25
1023.0274	2960.6916	4641.85	3758.5
1023.141	2961.7764	4616.45	3732.65
1023.2545	2962.8605	4596.05	3711.15
1023.3679	2963.9439	4560.8	3676.9
1023.4813	2965.0267	4543.35	3658.05
1023.5947	2966.1089	4543.75	3634.55
1023.708	2967.1905	4512.65	3628.8
1023.8213	2968.2714	4494.6	3610.55
1023.9346	2969.3516	4472.15	3591.25
1024.0478	2970.4312	4450.15	3559.3
1024.1609	2971.5102	4446.35	3564.6
1024.274	2972.5885	4429.1	3546.6
1024.3871	2973.6662	4435.9	3546.65
1024.5002	2974.7432	4416.05	3532.75
1024.6132	2975.8196	4396.15	3511.2
1024.7261	2976.8954	4369.45	3486.15
1024.839	2977.9705	4358.35	3475.1
1024.9519	2979.045	4340.2	3458.15
1025.0647	2980.1188	4322.55	3441.95
1025.1775	2981.192	4290.6	3407
1025.2902	2982.2645	4275	3390.35
1025.4029	2983.3364	4230.25	3348.05
1025.5156	2984.4077	4207.65	3323.4
1025.6282	2985.4783	4193.7	3304.1
1025.7407	2986.5483	4147.45	3264.8
1025.8532	2987.6177	4102.85	3218.65
1025.9657	2988.6864	4082.3	3199.4
1026.0782	2989.7545	4049.8	3163.65
1026.1906	2990.8219	4008.2	3125.05
1026.3029	2991.8887	3973.15	3088.5
1026.4152	2992.9548	3931.7	3048.8
1026.5275	2994.0204	3907.2	3023.7
1026.6397	2995.0852	3873.35	2990.75
1026.7519	2996.1495	3839.7	2953.75
1026.864	2997.2131	3806.05	2921.5
1026.9761	2998.276	3787.5	2904.45
1027.0882	2999.3383	3757.8	2874.65
1027.2002	3000.4	3737.35	2853.5
1027.3122	3001.4611	3714.45	2830.4
1027.4241	3002.5215	3697.05	2812.85
1027.536	3003.5812	3665.55	2781.95
1027.6478	3004.6404	3634.25	2750.5
1027.7596	3005.6989	3631.9	2745.9
1027.8714	3006.7567	3610.35	2726.85
1027.9831	3007.8139	3610.05	2700.1
1028.0947	3008.8705	3573.5	2689.4
1028.2064	3009.9264	3566.45	2680.2
1028.3179	3010.9818	3552.9	2668.45
1028.4295	3012.0364	3531.35	2646.1
1028.541	3013.0905	3513.55	2631.15
1028.6524	3014.1439	3510.95	2625.5
1028.7638	3015.1966	3491.65	2606.85
1028.8752	3016.2487	3474.15	2591.3
1028.9865	3017.3002	3464.6	2575
1029.0978	3018.3511	3449	2566.5
1029.209	3019.4013	3444.5	2561.65
1029.3202	3020.4509	3435.65	2553.3
1029.4314	3021.4998	3422.7	2537.85
1029.5425	3022.5481	3411.05	2526.65
1029.6535	3023.5958	3408.35	2526.2
1029.7645	3024.6428	3402.65	2519.1
1029.8755	3025.6892	3392.55	2509.9
1029.9864	3026.735	3367.9	2485.75
1030.0973	3027.7802	3363.95	2479.8
1030.2082	3028.8247	3329.75	2447.55
1030.319	3029.8685	3336.2	2452.8
1030.4297	3030.9118	3312.9	2428
1030.5404	3031.9544	3307.1	2424.75
1030.6511	3032.9963	3314.7	2432.3
1030.7617	3034.0376	3303.6	2421.8
1030.8723	3035.0783	3299.3	2411.95
1030.9829	3036.1184	3288.5	2404.1
1031.0934	3037.1578	3284.65	2403.55
1031.2038	3038.1966	3270.45	2385.85
1031.3142	3039.2348	3256.95	2373.6
1031.4246	3040.2723	3269.65	2376.5
1031.5349	3041.3092	3249.6	2366.7
1031.6452	3042.3455	3231.55	2347.75
1031.7554	3043.3811	3223.15	2339.15
1031.8656	3044.4161	3220.5	2336.65
1031.9758	3045.4505	3200.65	2317.05
1032.0859	3046.4842	3203.3	2318.7
1032.1959	3047.5173	3176.75	2294.35
1032.3059	3048.5498	3166.4	2281.85
1032.4159	3049.5816	3164.55	2279.5
1032.5258	3050.6128	3159.3	2274.9
1032.6357	3051.6434	3132.9	2248.35
1032.7455	3052.6734	3135.1	2250.95
1032.8553	3053.7027	3129.85	2246.1
1032.9651	3054.7314	3106	2222.85
1033.0748	3055.7594	3089.2	2206.05
1033.1845	3056.7868	3097.3	2214.1
1033.2941	3057.8136	3090.35	2207.05
1033.4037	3058.8398	3059.75	2178.05
1033.5132	3059.8653	3043	2160.9
1033.6227	3060.8902	3030.95	2147.15
1033.7321	3061.9145	3028.7	2144.7
1033.8415	3062.9381	3023.1	2139.6
1033.9509	3063.9612	3030.9	2133.65
1034.0602	3064.9835	2997.35	2113.35
1034.1694	3066.0053	2986.1	2101.05
1034.2787	3067.0264	2979.05	2094
1034.3878	3068.0469	2967.1	2082.85
1034.497	3069.0668	2979.15	2091.95
1034.6061	3070.086	2948.5	2065.65
1034.7151	3071.1046	2932.7	2049.8
1034.8241	3072.1226	2937.9	2053.3
1034.9331	3073.1399	2911.65	2029.3
1035.042	3074.1567	2886.15	2001.65
1035.1508	3075.1727	2877.55	1990.6
1035.2597	3076.1882	2877.55	1994.65
1035.3684	3077.203	2864.95	1980.55
1035.4772	3078.2173	2851.6	1964.8
1035.5859	3079.2308	2832.2	1947.25
1035.6945	3080.2438	2820.95	1937.45
1035.8031	3081.2561	2814.5	1932.6
1035.9117	3082.2678	2800.1	1917.85
1036.0202	3083.2789	2780.55	1897.75
1036.1286	3084.2893	2778.2	1897.25
1036.2371	3085.2991	2766.2	1882.85
1036.3454	3086.3083	2766.95	1879.3
1036.4538	3087.3169	2743.95	1858.55
1036.562	3088.3248	2736.15	1851.2
1036.6703	3089.3321	2722	1835.25
1036.7785	3090.3388	2711.95	1829.75
1036.8866	3091.3449	2699.35	1815.2
1036.9948	3092.3503	2698.2	1812.75
1037.1028	3093.3551	2684.7	1802.9
1037.2108	3094.3593	2678.3	1796.8
1037.3188	3095.3629	2650.6	1768.1
1037.4267	3096.3658	2639.2	1756.4
1037.5346	3097.3681	2636.4	1751.95
1037.6425	3098.3698	2643.55	1759.2
1037.7503	3099.3708	2635.6	1747.05
1037.858	3100.3713	2614.1	1731.8
1037.9657	3101.3711	2607.25	1725.05
1038.0734	3102.3702	2710	1686.7
1038.181	3103.3688	2591.3	1707.9
1038.2886	3104.3667	2554.55	1673.2
1038.3961	3105.364	2553.85	1671.65
1038.5036	3106.3607	2552	1668.4
1038.611	3107.3568	2529.1	1645.2
1038.7184	3108.3522	2533.25	1650.65
1038.8257	3109.347	2523	1638.3
1038.933	3110.3412	2519.9	1631.6
1039.0403	3111.3348	2497.65	1613.2
1039.1475	3112.3277	2490.75	1606.2
1039.2547	3113.32	2475.05	1592.6
1039.3618	3114.3117	2460.05	1576.4
1039.4689	3115.3028	2465	1583.4
1039.5759	3116.2932	2439.5	1553.5
1039.6829	3117.2831	2451	1563.4
1039.7898	3118.2723	2440.25	1556.85
1039.8967	3119.2608	2419	1535.65
1040.0035	3120.2488	2418.65	1533.7
1040.1103	3121.2361	2400.85	1517.75
1040.2171	3122.2229	2403.4	1520.2
1040.3238	3123.209	2386.55	1502.3
1040.4305	3124.1944	2380	1499.75
1040.5371	3125.1793	2376.95	1492.15
1040.6437	3126.1635	2368.5	1485.65
1040.7502	3127.1471	2359.95	1476.8
1040.8567	3128.1301	2348.95	1465.25
1040.9631	3129.1125	2338.5	1453.95
1041.0695	3130.0942	2337.7	1453.65
1041.1759	3131.0753	2335.2	1445.5
1041.2822	3132.0558	2332.7	1446.1
1041.3884	3133.0357	2309.9	1425.8
1041.4946	3134.015	2304.2	1421.8
1041.6008	3134.9936	2302.4	1417.85
1041.7069	3135.9716	2322.75	1417.85
1041.813	3136.949	2295.85	1411.75
1041.919	3137.9258	2293.3	1403.2
1042.025	3138.902	2283.9	1394.3
1042.1309	3139.8775	2281.8	1396.65
1042.2368	3140.8524	2262.95	1378.75
1042.3427	3141.8267	2257.3	1370.95
1042.4485	3142.8004	2251.05	1368.5
1042.5542	3143.7735	2254	1365.95
1042.6599	3144.7459	2250.15	1363.4
1042.7656	3145.7178	2246.15	1361.9
1042.8712	3146.689	2230.4	1348.3
1042.9768	3147.6596	2205.15	1319.95
1043.0823	3148.6295	2214.55	1332.85
1043.1878	3149.5989	2208.45	1324.45
1043.2932	3150.5676	2204.35	1323.55
1043.3986	3151.5357	2206.45	1323.85
1043.5039	3152.5032	2192.4	1308.5
1043.6092	3153.4701	2183.6	1300.45
1043.7145	3154.4364	2178.8	1294.75
1043.8197	3155.402	2162.1	1277.25
1043.9248	3156.367	2156.3	1272.15
1044.03	3157.3315	2181.7	1260.2
1044.135	3158.2952	2136.35	1251.8
1044.24	3159.2584	2135.2	1253.05
1044.345	3160.221	2133.25	1250
1044.4499	3161.1829	2117.5	1235.25
1044.5548	3162.1442	2113.8	1231.05
1044.6596	3163.105	2102.7	1218.95
1044.7644	3164.065	2100.35	1215.7
1044.8692	3165.0245	2087.1	1202.8
1044.9739	3165.9834	2082.95	1200.4
1045.0785	3166.9416	2091.95	1210.4
1045.1831	3167.8993	2070.75	1187.35
1045.2877	3168.8563	2077.65	1195.15
1045.3922	3169.8127	2058.8	1175.25
1045.4966	3170.7684	2060.5	1175.05
1045.6011	3171.7236	2053.25	1166.55
1045.7054	3172.6782	2039.45	1157
1045.8098	3173.6321	2031.9	1147.05
1045.914	3174.5854	2032.35	1145.6
1046.0183	3175.5381	2013.45	1130.55
1046.1224	3176.4902	2016.5	1132.5
1046.2266	3177.4417	2009.6	1127.3
1046.3307	3178.3926	2006.3	1124.55
1046.4347	3179.3428	2003.2	1119.5
1046.5387	3180.2924	1998.65	1117.45
1046.6427	3181.2415	1984.4	1099.65
1046.7466	3182.1899	1982.6	1099.35
1046.8504	3183.1377	1967.8	1084
1046.9542	3184.0848	1968.45	1079.8
1047.058	3185.0314	1964.05	1080.4
1047.1617	3185.9773	1953.95	1068
1047.2654	3186.9227	1945.6	1062.3
1047.369	3187.8674	1944.85	1061.8
1047.4726	3188.8115	1941.65	1054.45
1047.5761	3189.755	1923.05	1040.7
1047.6796	3190.6979	1923.4	1039.4
1047.783	3191.6402	1918.8	1035.45
1047.8864	3192.5818	1915.85	1032
1047.9898	3193.5229	1930.2	1029.65
1048.0931	3194.4633	1902.6	1019.3
1048.1963	3195.4031	1901.9	1018.4
1048.2995	3196.3423	1894.5	1012.5
1048.4027	3197.2809	1888.85	1006.95
1048.5058	3198.2189	1887.55	1003.6
1048.6089	3199.1563	1886.4	988.15
1048.7119	3200.0931	1870.55	988.55
1048.8148	3201.0292	1871.45	989.55
1048.9178	3201.9648	1866.55	985.8
1049.0206	3202.8997	1856.55	971.4
1049.1235	3203.834	1850.75	968.65
1049.2262	3204.7677	1854.75	973.45
1049.329	3205.7008	1840.7	956.95
1049.4317	3206.6333	1838.8	956.25
1049.5343	3207.5652	1832.6	946.95
1049.6369	3208.4964	1830.35	946.35
1049.7394	3209.4271	1825.75	942.15
1049.8419	3210.3571	1819.4	935.25
1049.9444	3211.2865	1819.95	936.5
1050.0468	3212.2154	1806.4	923.5
1050.1491	3213.1436	1809.05	923.15
1050.2514	3214.0712	1805.65	914.95
1050.3537	3214.9982	1804.35	920.6
1050.4559	3215.9246	1796.55	912.35
1050.5581	3216.8503	1792.3	910.05
1050.6602	3217.7755	1783.95	901.95
1050.7623	3218.7001	1784.8	901.25
1050.8643	3219.624	1777	893.4
1050.9663	3220.5473	1763.3	880.25
1051.0682	3221.4701	1757.9	873.25
1051.1701	3222.3922	1759.95	875.85
1051.2719	3223.3137	1761.65	878.6
1051.3737	3224.2346	1756.4	872.75
1051.4754	3225.1549	1740.65	857.2
1051.5771	3226.0746	1735.3	852.5
1051.6788	3226.9937	1736.95	852.95
1051.7804	3227.9121	1734.65	853.25
1051.8819	3228.83	1728.05	846.9
1051.9834	3229.7473	1718.4	835.45
1052.0849	3230.6639	1728.9	844.75
1052.1863	3231.5799	1705.9	823.7
1052.2876	3232.4954	1700.5	816.8
1052.3889	3233.4102	1695.35	813.1
1052.4902	3234.3244	1700.35	817.55
1052.5914	3235.238	1695.8	813.25
1052.6926	3236.151	1717.9	811.65
1052.7937	3237.0634	1682.9	801.3
1052.8948	3237.9752	1674.1	790.7
1052.9958	3238.8864	1675.45	793.55
1053.0968	3239.797	1671	787.25
1053.1977	3240.7069	1667	781.35
1053.2986	3241.6163	1657.7	772.65
1053.3994	3242.5251	1655.35	770.7
1053.5002	3243.4332	1652.45	771.35
1053.6009	3244.3408	1645.55	762.55
1053.7016	3245.2477	1643.1	759.7
1053.8022	3246.154	1642.5	761.65
1053.9028	3247.0598	1624.3	740.8
1054.0034	3247.9649	1619.75	736.75
1054.1039	3248.8694	1622.05	738.35
1054.2043	3249.7733	1626.35	743.45
1054.3047	3250.6766	1615.5	732.95
1054.4051	3251.5793	1617.2	731.5
1054.5054	3252.4814	1606.95	723.6
1054.6056	3253.3829	1592.5	710
1054.7058	3254.2838	1593.45	710.3
1054.806	3255.1841	1591.65	708.5
1054.9061	3256.0838	1587.15	704.2
1055.0061	3256.9829	1578.65	697.1
1055.1062	3257.8814	1574.4	689.35
1055.2061	3258.7792	1567.1	682.75
1055.306	3259.6765	1568.55	685.15
1055.4059	3260.5731	1557.9	675.8
1055.5057	3261.4692	1545.2	662.3
1055.6055	3262.3647	1534.1	649
1055.7052	3263.2595	1526.35	644.15
1055.8049	3264.1538	1519.8	637.85
1055.9045	3265.0474	1508.75	623
1056.0041	3265.9404	1495.3	612.2
1056.1036	3266.8329	1490.15	607.2
1056.2031	3267.7247	1487.35	592.9
1056.3025	3268.616	1465	584.2
1056.4019	3269.5066	1453.3	571.1
1056.5013	3270.3966	1440.8	556.95
1056.6005	3271.286	1410.05	528.35
