Software Version:	3.9.2.0
Unit SN:	10000200
Spectrometer SN:	6960
Date:	3/6/2024 10:01:01 AM
Data Line Index:	25
Spectral Points:	2048
Integration time (ms):	125
Averages:	20
Delay (ms):	30
Sequence Number:	1
Processing:	dark subtract
Laser Power (mW):	305
Laser Current (mA):	825
Laser Diode Temp (C):	25.1
Laser Case Temp (C):	24.6
System Temp (C):	24.5
Spectrometer Temp (C):	22
CCD Temp (C):	-0.002
Secondary Temp (C):	20.01
Heatsink Temp (C):	18.383
CCDPCB Temp (C):	31.071
SecondaryPCB Temp (C):	26.436

Wavelength	RamanShift	Raw Counts	Dark Subtracted
787.061	30.1047	698.35	288.95
787.2016	32.3739	711.05	304.8
787.3422	34.6426	723.3	316.35
787.4828	36.9109	742.85	333.1
787.6235	39.1787	774	359.95
787.7642	41.4461	797.3	379.3
787.9049	43.7131	825.9	406.3
788.0456	45.9796	853.2	429.45
788.1863	48.2456	884.8	458.8
788.3271	50.5112	903.75	471.65
788.4679	52.7764	943.2	510.1
788.6087	55.0411	976.85	535.75
788.7496	57.3054	1013.75	569.25
788.8904	59.5692	1041.9	595.3
789.0313	61.8326	1083.05	636.25
789.1722	64.0955	1125.95	674.6
789.3132	66.3579	1179.85	724.35
789.4541	68.6199	1250.8	790.6
789.5951	70.8815	1368.5	903.3
789.7361	73.1426	1639.25	1169.8
789.8771	75.4032	2279.05	1807.15
790.0181	77.6634	3961.2	3486.5
790.1592	79.9231	8099.4	7618.4
790.3003	82.1824	19751	19261.15
790.4414	84.4412	38334.9	37828.6
790.5825	86.6995	50301.25	49777.85
790.7237	88.9574	57138.65	56595.45
790.8648	91.2148	61351.2	60796.3
791.006	93.4717	62289.65	61726.8
791.1472	95.7282	62723.8	62156.6
791.2885	97.9842	62943.75	62378.15
791.4297	100.2398	62932.05	62359.5
791.571	102.4949	62938.4	62364.4
791.7123	104.7495	62970.95	62393.95
791.8536	107.0036	62864.05	62286.75
791.9949	109.2573	63100.35	62522.6
792.1363	111.5105	62945.75	62367.4
792.2777	113.7632	63022.3	62442.1
792.4191	116.0154	63145.5	62550.65
792.5605	118.2672	63311.15	62722.9
792.7019	120.5185	63325.9	62738.2
792.8434	122.7693	63320.85	62728.8
792.9849	125.0197	63087.1	62490.85
793.1264	127.2696	63518.75	62920.55
793.2679	129.519	63442.05	62837.2
793.4094	131.7679	63622.7	63016.65
793.551	134.0163	63238	62628.65
793.6926	136.2642	63415.75	62805.3
793.8342	138.5117	63653.4	63036.8
793.9758	140.7587	63590	62974.4
794.1175	143.0052	63574.55	62957
794.2591	145.2512	63370.9	62749.1
794.4008	147.4967	63627.95	63007.1
794.5425	149.7417	63551.7	62924.45
794.6842	151.9863	63561.05	62933
794.826	154.2304	63442.75	62816.35
794.9677	156.4739	63551.65	62913.45
795.1095	158.717	63721.45	63082.7
795.2513	160.9596	63608.55	62964.9
795.3931	163.2017	63429.7	62786.65
795.535	165.4433	63662.1	63015.7
795.6768	167.6844	63556.7	62908.9
795.8187	169.925	63664.35	63014.65
795.9606	172.1651	63543.25	62889.6
796.1025	174.4047	63611.9	62954.1
796.2445	176.6439	63588.9	62929.9
796.3864	178.8825	63540.05	62877
796.5284	181.1206	63742.5	63073.15
796.6704	183.3582	63703.15	63033.85
796.8124	185.5954	63643.3	62972.85
796.9544	187.832	63661.55	62988.55
797.0965	190.0681	63518.45	62842.05
797.2386	192.3037	63755.9	63074.85
797.3806	194.5388	63956.7	63270.75
797.5228	196.7734	63453.45	62764.2
797.6649	199.0075	63942.05	63252.05
797.807	201.2411	63762.25	63074.65
797.9492	203.4742	64025.45	63335
798.0914	205.7068	63949.35	63251.15
798.2336	207.9389	63953.35	63254.65
798.3758	210.1704	63918.65	63229.1
798.518	212.4015	64095	63413.95
798.6603	214.632	63889.9	63214.85
798.8025	216.862	64109.75	63438.3
798.9448	219.0915	63984.4	63307.65
799.0871	221.3205	63962.4	63281.85
799.2294	223.549	64141.8	63466.75
799.3718	225.777	64112.3	63437.9
799.5141	228.0044	64197.05	63514.45
799.6565	230.2314	64132.75	63449.1
799.7989	232.4578	64122.45	63436
799.9413	234.6837	64167.25	63472.45
800.0837	236.909	64426.15	63727.8
800.2262	239.1339	64021.7	63297.6
800.3687	241.3582	64223.35	63517.1
800.5111	243.582	64243	63504.45
800.6536	245.8053	64227	63500.3
800.7961	248.0281	64253.45	63531.9
800.9387	250.2503	64311.65	63586.55
801.0812	252.472	64191.1	63463.5
801.2238	254.6932	64264.3	63537.95
801.3664	256.9139	64231.6	63505.8
801.509	259.134	64444.35	63711.5
801.6516	261.3536	64184.85	63457.75
801.7942	263.5727	64335.15	63602.8
801.9369	265.7912	64256.35	63524.05
802.0795	268.0092	64290.5	63557.2
802.2222	270.2267	64329.2	63598
802.3649	272.4436	64217.95	63481.95
802.5076	274.6601	64330.8	63586
802.6504	276.8759	64372.35	63631.5
802.7931	279.0913	64310.35	63570.3
802.9359	281.3061	64341.85	63598.9
803.0787	283.5204	64341.95	63593.55
803.2215	285.7341	64345.5	63596.35
803.3643	287.9473	64441.5	63683.45
803.5071	290.16	64349.75	63598.65
803.6499	292.3721	64420.65	63677.4
803.7928	294.5837	64318.7	63570.75
803.9357	296.7947	64244.05	63498.05
804.0786	299.0052	64431.2	63682.95
804.2215	301.2152	64357.75	63609.55
804.3644	303.4246	64432.5	63687.1
804.5074	305.6334	64435.05	63687.9
804.6503	307.8418	64320.25	63567
804.7933	310.0495	64333.1	63575.65
804.9363	312.2568	64318.25	63562.95
805.0793	314.4635	64324.3	63566.65
805.2223	316.6696	64383.9	63625.25
805.3653	318.8752	64438.6	63667.1
805.5084	321.0802	64192.7	63429.8
805.6514	323.2847	64332.35	63570.3
805.7945	325.4887	64317.9	63554.75
805.9376	327.692	64249.75	63480.9
806.0807	329.8949	64336.85	63571.95
806.2238	332.0972	64293.7	63525.9
806.367	334.2989	64332.6	63560.1
806.5101	336.5001	64399	63626.25
806.6533	338.7007	64219.4	63450.65
806.7965	340.9008	64306.95	63532.6
806.9397	343.1003	64340.75	63565.1
807.0829	345.2992	64407.2	63630.75
807.2261	347.4976	64309.4	63532.5
807.3693	349.6955	64348.9	63564.8
807.5126	351.8927	64264.1	63482.55
807.6559	354.0895	64366.05	63570
807.7991	356.2856	64357.15	63573.8
807.9424	358.4812	64408.85	63625.55
808.0857	360.6763	64280.4	63492.4
808.2291	362.8707	64397	63609.3
808.3724	365.0646	64330.6	63541.35
808.5158	367.258	64336.5	63542.2
808.6591	369.4508	64248.3	63446.6
808.8025	371.643	64394.2	63595.55
808.9459	373.8346	64327.45	63528.75
809.0893	376.0257	64343.55	63543.35
809.2327	378.2162	64302.6	63501.1
809.3762	380.4062	64192.65	63393
809.5196	382.5956	64297.9	63498.55
809.6631	384.7844	64285.85	63496.6
809.8066	386.9726	64351.6	63560.75
809.9501	389.1603	64340.85	63550.45
810.0936	391.3474	64249.35	63430.2
810.2371	393.5339	64341.05	63547.15
810.3806	395.7199	64171.95	63379.55
810.5241	397.9052	64203.3	63409.95
810.6677	400.09	64244.8	63450.7
810.8113	402.2743	64329.9	63537
810.9548	404.4579	64220.9	63423.3
811.0984	406.641	64227.75	63428.35
811.2421	408.8235	64266.2	63465.55
811.3857	411.0054	64263.3	63462.1
811.5293	413.1868	64302.6	63496.95
811.673	415.3675	64253.1	63443.25
811.8166	417.5477	64272.3	63461.85
811.9603	419.7273	64247.9	63435.4
812.104	421.9064	64232.1	63411.9
812.2477	424.0848	64243	63429.9
812.3914	426.2627	64324.45	63513.3
812.5351	428.4399	64200	63389.3
812.6788	430.6166	64074.1	63257.7
812.8226	432.7928	64236.05	63415.85
812.9663	434.9683	64115.05	63299.2
813.1101	437.1432	64092.1	63270.6
813.2539	439.3176	64213.95	63398.45
813.3977	441.4914	64027.4	63212.2
813.5415	443.6645	64048.9	63232.45
813.6853	445.8371	64081.85	63261.05
813.8291	448.0091	63987.4	63164.1
813.973	450.1806	63945.95	63127.7
814.1168	452.3514	63990.9	63170.75
814.2607	454.5216	63864.55	63036.4
814.4046	456.6913	63967.6	63143.9
814.5485	458.8603	64014.2	63192.1
814.6924	461.0288	63852.5	63032.4
814.8363	463.1967	63981.5	63163.25
814.9802	465.3639	63971.7	63150.45
815.1241	467.5306	63729.3	62905.7
815.2681	469.6967	63850.6	63030.45
815.412	471.8622	63943.4	63120.3
815.556	474.0271	63868.45	63047.85
815.7	476.1914	63885.75	63061.8
815.844	478.3551	63884.45	63059.9
815.988	480.5182	64038.65	63213.75
816.132	482.6807	63808.3	62982
816.276	484.8426	63842.35	63022.45
816.4201	487.0039	64008.15	63185.1
816.5641	489.1647	63986.75	63160.25
816.7082	491.3248	63803.8	62977.1
816.8522	493.4843	64020.4	63192.95
816.9963	495.6432	64030.35	63202.4
817.1404	497.8015	63804.15	62970.95
817.2845	499.9592	63916	63084.7
817.4286	502.1163	63963.6	63130.6
817.5727	504.2728	63935.85	63101.15
817.7168	506.4287	63910.65	63080.1
817.861	508.5839	63792.1	62963.25
818.0051	510.7386	63870.55	63041.3
818.1493	512.8927	63926.55	63089.65
818.2935	515.0461	63872.85	63039.55
818.4377	517.199	63972.95	63137.45
818.5818	519.3512	63869.6	63032.4
818.726	521.5029	63859.25	63017
818.8703	523.6539	63877.9	63040.1
819.0145	525.8043	63714.1	62871.85
819.1587	527.9541	63855.25	63010.55
819.303	530.1033	63858.85	63016.95
819.4472	532.2519	63781.25	62939
819.5915	534.3999	63879.65	63036.35
819.7357	536.5472	63926.05	63085.25
819.88	538.694	63703.1	62866.7
820.0243	540.8401	63831	62987.7
820.1686	542.9856	63847.75	63000.3
820.3129	545.1305	63917.05	63067.9
820.4572	547.2748	63784.4	62935.5
820.6016	549.4185	63770	62917.2
820.7459	551.5615	63889.55	63038.55
820.8902	553.704	63850.35	63001.1
821.0346	555.8458	63771.15	62921.8
821.1789	557.987	63779.9	62935.75
821.3233	560.1276	63811.75	62963.75
821.4677	562.2675	63780.4	62933.7
821.6121	564.4069	63784.15	62935
821.7565	566.5456	63874.65	63029.3
821.9009	568.6837	63719.55	62871.3
822.0453	570.8212	63771.3	62923.7
822.1897	572.958	63596.65	62745.4
822.3342	575.0942	63761.8	62915.3
822.4786	577.2299	63633.15	62788.55
822.6231	579.3648	63609.6	62767.95
822.7675	581.4992	63572.95	62733.7
822.912	583.6329	63549.1	62706.65
823.0565	585.766	63547.4	62703.85
823.201	587.8985	63604.3	62760.65
823.3454	590.0304	63389.15	62516.6
823.4899	592.1616	63541.25	62688.05
823.6345	594.2922	63451.9	62595.75
823.779	596.4222	63331.35	62475.2
823.9235	598.5515	63394.3	62537.35
824.068	600.6802	63472.05	62616.7
824.2126	602.8083	63278.4	62422.35
824.3571	604.9358	63299.6	62443.45
824.5017	607.0626	63415.95	62559.9
824.6462	609.1888	63172.15	62311.75
824.7908	611.3144	63328.95	62467.7
824.9354	613.4393	63279.95	62418.1
825.08	615.5636	63124.75	62265.35
825.2246	617.6873	63256.1	62397.6
825.3692	619.8103	63090.4	62228.85
825.5138	621.9327	63259.8	62397.35
825.6584	624.0544	63269.35	62411.65
825.803	626.1756	63186.9	62328.9
825.9477	628.2961	63178.75	62319.4
826.0923	630.4159	63093.5	62227.65
826.237	632.5351	63013.8	62150
826.3816	634.6537	63299.25	62438.15
826.5263	636.7716	63010.15	62144.7
826.6709	638.8889	63090.5	62221.15
826.8156	641.0056	63078.05	62211.85
826.9603	643.1216	63091.15	62224.9
827.105	645.237	63160.25	62294.75
827.2497	647.3518	62996.45	62132.35
827.3944	649.4659	63054.85	62190.65
827.5391	651.5793	63076.1	62215.15
827.6838	653.6922	63107.25	62247.45
827.8285	655.8043	62861.15	61998.7
827.9733	657.9159	63171.1	62304.3
828.118	660.0268	62621.7	61757.5
828.2627	662.137	62948.35	62080.95
828.4075	664.2466	62968.65	62096.85
828.5522	666.3556	62876.75	62006.9
828.697	668.4639	62955.6	62087.95
828.8418	670.5716	62809.05	61942
828.9865	672.6786	62907.45	62039.35
829.1313	674.785	62725.4	61851.6
829.2761	676.8907	62771.85	61898.65
829.4209	678.9958	62849.8	61982
829.5657	681.1002	62855.75	61985.3
829.7105	683.204	62637	61761.95
829.8553	685.3072	62525.45	61654.45
830.0001	687.4097	62620.35	61748.25
830.1449	689.5115	62562.5	61690.2
830.2898	691.6127	62737.55	61866.8
830.4346	693.7132	62536.3	61668.9
830.5794	695.8131	62603.8	61713.85
830.7243	697.9123	62620.9	61747.9
830.8691	700.0109	62667.05	61791.8
831.014	702.1089	62386.15	61513.85
831.1588	704.2061	62426.65	61554.25
831.3037	706.3028	62477.15	61600.3
831.4486	708.3987	62504.05	61627.85
831.5935	710.4941	62398.55	61524.4
831.7383	712.5887	62560.35	61687.85
831.8832	714.6827	62397.3	61518
832.0281	716.7761	62511.85	61637.15
832.173	718.8688	62568.2	61693.35
832.3179	720.9608	62345.8	61466
832.4628	723.0522	62378.15	61495.65
832.6077	725.1429	62256.55	61378.25
832.7527	727.233	62679.1	61802.6
832.8976	729.3224	62068.5	61189.85
833.0425	731.4112	62265.35	61389.5
833.1874	733.4993	62262.65	61385.05
833.3324	735.5867	62258.35	61379.4
833.4773	737.6735	62121.9	61240.85
833.6222	739.7596	61994.25	61110.6
833.7672	741.845	61991.85	61110.9
833.9122	743.9298	62163.85	61280.7
834.0571	746.014	61959.4	61080.9
834.2021	748.0974	61833.2	60948.2
834.347	750.1802	62098	61210.7
834.492	752.2624	61707.55	60826.4
834.637	754.3439	61728.5	60843.2
834.782	756.4247	61803.2	60912.3
834.9269	758.5048	61618.3	60737.9
835.0719	760.5843	61676	60791
835.2169	762.6631	61739.1	60853.7
835.3619	764.7413	61628.5	60743.75
835.5069	766.8188	61610.7	60724.45
835.6519	768.8956	61671	60787.65
835.7969	770.9718	61658.75	60778.75
835.9419	773.0473	61581.9	60697.5
836.0869	775.1221	61435.25	60551.7
836.232	777.1962	61431.05	60550.8
836.377	779.2697	61210.95	60325.45
836.522	781.3426	61290	60387.55
836.667	783.4147	61295.5	60411.05
836.8121	785.4862	61228.9	60341.85
836.9571	787.557	61056.8	60170.65
837.1021	789.6271	61272.45	60383.7
837.2472	791.6966	61093.8	60207
837.3922	793.7654	60902.1	60017.05
837.5373	795.8335	60976.85	60087.2
837.6823	797.901	61020.25	60134.35
837.8274	799.9678	60891.7	60005.6
837.9724	802.0339	60775.7	59890.2
838.1175	804.0993	60801.55	59904
838.2626	806.1641	60714.35	59826.45
838.4076	808.2282	60659.5	59774.4
838.5527	810.2916	60584.4	59696.55
838.6978	812.3544	60727.95	59843.65
838.8428	814.4164	60419.3	59533.15
838.9879	816.4778	60450.3	59562.25
839.133	818.5385	60435.7	59546.95
839.2781	820.5986	60408.55	59520.05
839.4232	822.658	60450.75	59559.2
839.5682	824.7166	60437.6	59546.4
839.7133	826.7747	60218.4	59330.7
839.8584	828.832	60333.95	59441.35
840.0035	830.8886	60451.6	59558.85
840.1486	832.9446	60408.85	59516.65
840.2937	834.9999	59942.05	59053.3
840.4388	837.0545	60116.3	59224.3
840.5839	839.1085	60202.85	59312.3
840.729	841.1618	60099.45	59206.25
840.8741	843.2143	59792.45	58902.95
841.0192	845.2662	59773.85	58881.9
841.1643	847.3175	59959.7	59068.35
841.3095	849.368	59495.45	58605.3
841.4546	851.4179	59808.05	58917.15
841.5997	853.467	59487	58596.1
841.7448	855.5155	59638.55	58748.6
841.8899	857.5633	59394.95	58503.3
842.0351	859.6105	59284.4	58391.5
842.1802	861.6569	59414.1	58524.2
842.3253	863.7027	59125.95	58230.35
842.4704	865.7478	59193.6	58299.75
842.6156	867.7922	59082.6	58188.8
842.7607	869.8359	59269.4	58378.3
842.9058	871.8789	58931.95	58039.75
843.0509	873.9212	59090.65	58166.2
843.1961	875.9629	59060.25	58167.5
843.3412	878.0039	58987.05	58092.5
843.4863	880.0441	58888.1	57998.8
843.6315	882.0837	58883.6	57989.65
843.7766	884.1226	58883.35	57988.1
843.9218	886.1609	58882.2	57989.8
844.0669	888.1984	58820.8	57926.8
844.212	890.2352	59047.5	58152.5
844.3572	892.2714	58698.9	57800.25
844.5023	894.3069	58850.25	57954
844.6475	896.3416	58647.65	57752.15
844.7926	898.3757	58629.75	57735.35
844.9377	900.4091	58327.95	57430
845.0829	902.4418	58688.15	57787.65
845.228	904.4739	58378.75	57481.35
845.3732	906.5052	58470	57572.95
845.5183	908.5358	58283.15	57386.9
845.6635	910.5658	58206.85	57307.65
845.8086	912.595	58225.55	57327.2
845.9538	914.6236	57921.3	57027.25
846.0989	916.6515	58320.1	57425.3
846.2441	918.6786	57820.05	56924.3
846.3892	920.7051	57919	57019.45
846.5344	922.7309	57915.95	57016.9
846.6795	924.756	57881.05	56983.2
846.8246	926.7804	57729.95	56828.9
846.9698	928.8041	57450.8	56550.9
847.1149	930.8272	57608.6	56711.45
847.2601	932.8495	57558.25	56660.45
847.4052	934.8711	57363.8	56466.4
847.5504	936.892	57244	56345.75
847.6955	938.9123	57243.7	56343.45
847.8407	940.9318	57123.25	56222.9
847.9858	942.9506	57064.4	56167.7
848.131	944.9688	57062.05	56163.3
848.2761	946.9862	56795.5	55899.9
848.4213	949.003	56810.35	55911.1
848.5664	951.019	56586.45	55687.85
848.7115	953.0344	56624.2	55725.75
848.8567	955.0491	56505.6	55607.3
849.0018	957.063	56597.9	55698
849.147	959.0763	56598.75	55699.75
849.2921	961.0888	56429.4	55528.6
849.4373	963.1007	56577.6	55678.4
849.5824	965.1119	56458.75	55560.85
849.7275	967.1223	56399.95	55507.1
849.8727	969.1321	56433.5	55539
850.0178	971.1412	56268.9	55379
850.1629	973.1495	56139.85	55243.1
850.3081	975.1572	56179.5	55246
850.4532	977.1641	56120.6	55220.05
850.5983	979.1704	56060.1	55160.15
850.7435	981.1759	56001.15	55095.25
850.8886	983.1808	55946.7	55045.4
851.0337	985.1849	55878.6	54968.75
851.1788	987.1884	55800.05	54897.15
851.324	989.1911	55844.05	54943.55
851.4691	991.1932	55676.6	54777.05
851.6142	993.1945	55626.85	54728.3
851.7593	995.1951	55540.15	54642.15
851.9045	997.1951	55447.25	54541.7
852.0496	999.1943	55366.8	54467.2
852.1947	1001.1928	55252.15	54350.75
852.3398	1003.1906	55177.25	54277.35
852.4849	1005.1877	55058.6	54157.65
852.63	1007.1841	54948.4	54046.6
852.7751	1009.1798	54907.4	54006.2
852.9202	1011.1748	54791	53892
853.0653	1013.1691	54734	53835.4
853.2104	1015.1627	54562.7	53660.35
853.3555	1017.1556	54445.5	53545.65
853.5006	1019.1477	54414.15	53515.3
853.6457	1021.1392	54233	53336.1
853.7908	1023.1299	54093.85	53197.7
853.9359	1025.12	54052.55	53155.9
854.081	1027.1093	53893.6	53003.85
854.2261	1029.0979	53900.15	53012.95
854.3712	1031.0859	53853	52961.6
854.5163	1033.0731	53719.65	52822.65
854.6613	1035.0596	53670.1	52770.45
854.8064	1037.0454	53519.5	52620.8
854.9515	1039.0304	53455.05	52554.25
855.0965	1041.0148	53345.75	52446.05
855.2416	1042.9985	53300	52398.15
855.3867	1044.9814	53276.95	52377.4
855.5317	1046.9636	53120.65	52219.25
855.6768	1048.9452	53057.75	52159.4
855.8219	1050.926	53028.25	52129.8
855.9669	1052.9061	52976.25	52077.5
856.112	1054.8855	52877.85	51975.55
856.257	1056.8642	52798.1	51896.5
856.4021	1058.8421	52840.4	51936.95
856.5471	1060.8194	52741.3	51842.75
856.6921	1062.7959	52716.15	51815.35
856.8372	1064.7717	52660.9	51761.05
856.9822	1066.7469	52636.65	51734.55
857.1272	1068.7213	52583.9	51680.1
857.2723	1070.695	52544.55	51643.65
857.4173	1072.6679	52415.8	51511.85
857.5623	1074.6402	52423.4	51524.1
857.7073	1076.6117	52367.9	51458.55
857.8523	1078.5826	52335.2	51435.25
857.9973	1080.5527	52277.5	51376.75
858.1423	1082.5221	52209.6	51309.95
858.2873	1084.4908	52157.5	51254.7
858.4323	1086.4587	52081.5	51179.3
858.5773	1088.426	52032.5	51130.45
858.7223	1090.3925	52003.4	51092.95
858.8673	1092.3584	51978.8	51076.85
859.0123	1094.3235	51812.7	50915.7
859.1573	1096.2879	51749.45	50847.3
859.3022	1098.2515	51716.85	50815.1
859.4472	1100.2145	51724.85	50825.15
859.5922	1102.1767	51633.4	50729.2
859.7371	1104.1382	51654.05	50754.15
859.8821	1106.099	51596.75	50695.05
860.027	1108.0591	51545.05	50643.55
860.172	1110.0185	51471.7	50569.1
860.3169	1111.9771	51481.75	50581.8
860.4619	1113.9351	51361.25	50459.7
860.6068	1115.8923	51274.3	50372.05
860.7517	1117.8488	51194.05	50290.85
860.8967	1119.8045	51053.65	50150.5
861.0416	1121.7596	51063.15	50162.15
861.1865	1123.7139	50897.05	49999
861.3314	1125.6675	50865.95	49965.75
861.4763	1127.6204	50908	50008.7
861.6212	1129.5726	50763.25	49860.9
861.7661	1131.524	50766.75	49865.15
861.911	1133.4748	50705.6	49801.2
862.0559	1135.4248	50593	49688.85
862.2008	1137.3741	50587.3	49686.65
862.3457	1139.3226	50487.35	49584
862.4905	1141.2705	50465.6	49563.6
862.6354	1143.2176	50378.8	49472.95
862.7803	1145.164	50252.35	49348.25
862.9251	1147.1097	50257.6	49358.25
863.07	1149.0546	50217.75	49316.55
863.2148	1150.9989	50217.85	49316.4
863.3597	1152.9424	50108	49204.55
863.5045	1154.8852	50139.55	49240.5
863.6493	1156.8272	50014.8	49114.55
863.7942	1158.7686	50119.75	49209.8
863.939	1160.7092	49913.2	49009.95
864.0838	1162.6491	49878.9	48977.9
864.2286	1164.5883	49907.9	49007.25
864.3734	1166.5267	49777.1	48875.3
864.5182	1168.4644	49825.4	48924.05
864.663	1170.4014	49775.55	48867.75
864.8078	1172.3377	49859.25	48959.75
864.9526	1174.2732	49835.75	48933.6
865.0974	1176.2081	49791.2	48891.95
865.2421	1178.1421	49752.3	48846.95
865.3869	1180.0755	49873.4	48974.25
865.5317	1182.0082	49776.05	48876.05
865.6764	1183.9401	49753.1	48849.45
865.8212	1185.8713	49601.65	48701.3
865.9659	1187.8017	49552.6	48655.45
866.1106	1189.7315	49534.75	48642.75
866.2554	1191.6605	49338.95	48441.4
866.4001	1193.5888	49192.35	48297.4
866.5448	1195.5163	49133	48236.3
866.6895	1197.4432	49096.6	48193.9
866.8342	1199.3693	48991.25	48091.85
866.9789	1201.2947	48895.85	47987.7
867.1236	1203.2193	48863.4	47960.65
867.2683	1205.1432	48788.35	47889.25
867.413	1207.0664	48723.15	47820
867.5576	1208.9889	48662.55	47757.25
867.7023	1210.9106	48569.45	47669.35
867.847	1212.8316	48490.15	47590.6
867.9916	1214.7519	48479.3	47570.3
868.1363	1216.6715	48328.15	47427.25
868.2809	1218.5903	48368.25	47468.9
868.4255	1220.5084	48279.8	47377.35
868.5701	1222.4257	48272.2	47372.3
868.7148	1224.3424	48220.75	47321.05
868.8594	1226.2583	48146.95	47244.9
869.004	1228.1735	48104.6	47204.2
869.1486	1230.0879	48001	47099.4
869.2932	1232.0016	47986.3	47087.3
869.4377	1233.9146	47940.65	47038.05
869.5823	1235.8269	47919.5	47018.75
869.7269	1237.7384	47883.8	46980.7
869.8715	1239.6492	47769.2	46870.2
870.016	1241.5592	47715.95	46815.1
870.1606	1243.4686	47652.45	46751.05
870.3051	1245.3772	47632	46730.85
870.4496	1247.285	47608	46707.75
870.5941	1249.1922	47535.9	46631.35
870.7387	1251.0986	47531.6	46633.4
870.8832	1253.0042	47434.25	46534.15
871.0277	1254.9092	47420.75	46516.7
871.1722	1256.8134	47339.9	46442.15
871.3167	1258.7169	47399.85	46497.2
871.4611	1260.6196	47294.8	46394.8
871.6056	1262.5216	47318.95	46418.15
871.7501	1264.4229	47299	46397.9
871.8945	1266.3234	47313.65	46412.6
872.039	1268.2232	47300.1	46397.4
872.1834	1270.1223	47241.8	46340.5
872.3278	1272.0207	47197.85	46295.4
872.4723	1273.9183	47127.4	46219.6
872.6167	1275.8151	47093.6	46193.6
872.7611	1277.7113	47065.85	46164.65
872.9055	1279.6067	46986.6	46088.95
873.0499	1281.5014	46920.65	46019.1
873.1943	1283.3953	46969.2	46069.5
873.3386	1285.2885	46978.05	46076.45
873.483	1287.181	47010.6	46109.8
873.6274	1289.0727	47058.75	46158.15
873.7717	1290.9637	47029.5	46129.4
873.9161	1292.854	47069.55	46169.9
874.0604	1294.7435	46984.85	46081.75
874.2047	1296.6323	46951.75	46049.25
874.349	1298.5204	46914.85	46007.8
874.4933	1300.4077	46863.25	45962.45
874.6376	1302.2943	46799.4	45897.6
874.7819	1304.1802	46762.2	45863
874.9262	1306.0653	46643.7	45743.25
875.0705	1307.9497	46577.1	45675.1
875.2147	1309.8333	46517.1	45616.7
875.359	1311.7162	46474.8	45575.6
875.5032	1313.5984	46452.95	45549.45
875.6475	1315.4798	46311	45410.55
875.7917	1317.3605	46265.8	45350
875.9359	1319.2405	46254.05	45350.65
876.0801	1321.1197	46125.1	45223.75
876.2243	1322.9982	46096.7	45193.5
876.3685	1324.876	46046.6	45145.75
876.5127	1326.753	45956.6	45054.3
876.6569	1328.6293	45967.95	45065
876.801	1330.5048	45904.35	45002.7
876.9452	1332.3796	45787.75	44885.55
877.0893	1334.2537	45751.85	44826.95
877.2335	1336.127	45762.15	44862
877.3776	1337.9996	45671.65	44772.05
877.5217	1339.8714	45697.45	44796
877.6658	1341.7426	45544.8	44600.15
877.8099	1343.6129	45581.35	44681.65
877.954	1345.4826	45522.05	44620.25
878.0981	1347.3515	45403.15	44500.75
878.2422	1349.2196	45443.8	44541.9
878.3862	1351.087	45446.75	44544.25
878.5303	1352.9537	45406	44504.2
878.6743	1354.8197	45410.75	44511.35
878.8184	1356.6849	45412.5	44513.25
878.9624	1358.5493	45361.2	44459.2
879.1064	1360.4131	45303.4	44404.8
879.2504	1362.276	45357.15	44458.05
879.3944	1364.1383	45230.85	44328.95
879.5384	1365.9998	45081.55	44173.75
879.6823	1367.8606	45089.85	44189.3
879.8263	1369.7206	44908.5	44005.1
879.9702	1371.5799	44804.8	43901.1
880.1142	1373.4384	44692.85	43792.9
880.2581	1375.2962	44665.65	43764.55
880.402	1377.1533	44376.8	43476.9
880.5459	1379.0096	44282.95	43384.65
880.6898	1380.8652	44182	43282.35
880.8337	1382.7201	44075.3	43176.6
880.9776	1384.5742	43977.4	43076.7
881.1215	1386.4275	43727.95	42824.7
881.2653	1388.2802	43755.5	42855.75
881.4092	1390.132	43744.15	42845.6
881.553	1391.9832	43545.85	42642.05
881.6968	1393.8336	43373.45	42473.55
881.8406	1395.6832	43315.4	42412.75
881.9844	1397.5322	43316.6	42416.1
882.1282	1399.3803	43182.45	42277.75
882.272	1401.2278	43116.1	42214.25
882.4158	1403.0745	43042.3	42140.95
882.5595	1404.9204	42910.7	42011.55
882.7033	1406.7656	42901.2	42003.65
882.847	1408.6101	42730.85	41829.15
882.9908	1410.4538	42699.8	41800
883.1345	1412.2968	42695.8	41793.35
883.2782	1414.139	42565.65	41666.1
883.4219	1415.9805	42598.6	41699
883.5656	1417.8213	42452.7	41545.2
883.7092	1419.6613	42499.55	41600.95
883.8529	1421.5006	42435.15	41535.15
883.9965	1423.3391	42404.5	41507.25
884.1402	1425.1769	42328.75	41427.4
884.2838	1427.0139	42465.5	41563.75
884.4274	1428.8502	42444.15	41541.65
884.571	1430.6858	42520.9	41622.55
884.7146	1432.5206	42545.4	41645.35
884.8582	1434.3547	42504.5	41604.6
885.0018	1436.188	42445.4	41545.7
885.1453	1438.0206	42467.45	41566.85
885.2889	1439.8524	42376.05	41474.9
885.4324	1441.6835	42311.35	41411.95
885.5759	1443.5139	42304.55	41400.6
885.7194	1445.3435	42157.85	41256.5
885.8629	1447.1724	42170.95	41274.2
886.0064	1449.0005	42030.85	41132.5
886.1499	1450.8279	42048.65	41149.2
886.2933	1452.6545	42026.05	41127.55
886.4368	1454.4804	41981.15	41083.3
886.5802	1456.3056	41926.5	41020.9
886.7237	1458.13	41908.8	41013.65
886.8671	1459.9536	41883.15	40983.55
887.0105	1461.7766	41787.8	40888.85
887.1539	1463.5987	41620.7	40719.85
887.2972	1465.4202	41518.45	40620.45
887.4406	1467.2409	41394.2	40492.85
887.584	1469.0608	41323.45	40423.8
887.7273	1470.88	41253.5	40354.35
887.8706	1472.6984	41213.6	40316.05
888.0139	1474.5161	41033	40130.6
888.1572	1476.3331	41008.75	40109.95
888.3005	1478.1493	40955.1	40054.45
888.4438	1479.9648	40922.05	40021.5
888.5871	1481.7795	40854.25	39956.55
888.7303	1483.5935	40847.5	39948.4
888.8736	1485.4067	40727.1	39827.1
889.0168	1487.2192	40785.55	39886.25
889.16	1489.031	40701.55	39799.9
889.3032	1490.842	40643.85	39743.25
889.4464	1492.6522	40649.1	39750.8
889.5896	1494.4618	40565.75	39667.3
889.7327	1496.2705	40549.35	39647.5
889.8759	1498.0785	40463.85	39563.25
890.019	1499.8858	40437.3	39537.95
890.1622	1501.6924	40418.25	39520.2
890.3053	1503.4981	40346.15	39448.05
890.4484	1505.3032	40292.05	39392.2
890.5914	1507.1075	40226.55	39328.5
890.7345	1508.911	40217.25	39319.25
890.8776	1510.7138	40137.15	39239.7
891.0206	1512.5159	40096.3	39197.1
891.1637	1514.3172	39998.35	39099.15
891.3067	1516.1178	39974.7	39081.35
891.4497	1517.9176	39946.5	39046.95
891.5927	1519.7166	39859.85	38962.9
891.7357	1521.515	39786.15	38882.25
891.8786	1523.3126	39691.6	38795.1
892.0216	1525.1094	39693.7	38794.5
892.1645	1526.9055	39625.8	38730.75
892.3074	1528.7008	39548.5	38650.15
892.4503	1530.4954	39386.5	38486.1
892.5932	1532.2893	39450.4	38555.45
892.7361	1534.0824	39286.35	38386.75
892.879	1535.8747	39240.05	38345.05
893.0218	1537.6663	39269.7	38371.55
893.1647	1539.4572	39052.4	38155.75
893.3075	1541.2473	39033.65	38137.1
893.4503	1543.0367	38945.5	38049.75
893.5931	1544.8253	38876.7	37976.4
893.7359	1546.6132	38910	38011.85
893.8787	1548.4003	38773	37870
894.0214	1550.1867	38773.7	37868.2
894.1642	1551.9723	38720.65	37819.55
894.3069	1553.7572	38735	37838.85
894.4496	1555.5414	38728.75	37835.4
894.5923	1557.3247	38557.2	37665.1
894.735	1559.1074	38642.15	37750.4
894.8777	1560.8893	38522.1	37629.9
895.0204	1562.6705	38553.35	37660.5
895.163	1564.4509	38469.3	37574.6
895.3056	1566.2305	38419	37526.65
895.4482	1568.0094	38527.6	37636.45
895.5908	1569.7876	38448.95	37559.1
895.7334	1571.565	38351.5	37457.75
895.876	1573.3417	38367.7	37475
896.0186	1575.1176	38321.2	37431.2
896.1611	1576.8928	38217.05	37326.6
896.3036	1578.6672	38105.2	37215.55
896.4461	1580.4409	38081.55	37192.55
896.5886	1582.2138	37954.15	37063.25
896.7311	1583.986	37951.65	37057.55
896.8736	1585.7575	37910.75	37020.25
897.0161	1587.5282	37873.45	36984.5
897.1585	1589.2981	37877.45	36989.4
897.3009	1591.0673	37783.55	36895.05
897.4433	1592.8358	37768.35	36880.85
897.5857	1594.6035	37763.4	36872.05
897.7281	1596.3704	37722.75	36829.75
897.8705	1598.1366	37590.25	36699.8
898.0128	1599.9021	37535.2	36645.15
898.1551	1601.6668	37571.95	36680.25
898.2975	1603.4308	37498.2	36606.5
898.4398	1605.194	37520.05	36624.75
898.5821	1606.9564	37361.4	36474.3
898.7243	1608.7182	37467.7	36575.55
898.8666	1610.4791	37407.85	36522.8
899.0088	1612.2394	37503.15	36618.15
899.1511	1613.9988	37425.9	36540
899.2933	1615.7576	37571.95	36685.85
899.4355	1617.5156	37547.75	36651.2
899.5776	1619.2728	37613.95	36722.4
899.7198	1621.0293	37406.7	36516.15
899.862	1622.785	37350.35	36457.6
900.0041	1624.54	37279.6	36387.7
900.1462	1626.2942	37050.95	36161.5
900.2883	1628.0477	36748.2	35858.85
900.4304	1629.8005	36485.95	35593.55
900.5725	1631.5525	36569.35	35680.65
900.7145	1633.3037	36243.9	35356.55
900.8566	1635.0542	36176.8	35288.8
900.9986	1636.804	36201.6	35314.6
901.1406	1638.553	35957.2	35026.8
901.2826	1640.3013	35943.7	35054.8
901.4245	1642.0488	35742.45	34851.95
901.5665	1643.7955	35822.05	34936.1
901.7085	1645.5416	35704.55	34816.15
901.8504	1647.2868	35617.65	34730.45
901.9923	1649.0313	35712.5	34825.7
902.1342	1650.7751	35651	34762.75
902.2761	1652.5181	35539.65	34651.9
902.4179	1654.2604	35506.5	34619.6
902.5598	1656.0019	35548.1	34662.7
902.7016	1657.7427	35558.7	34670.75
902.8434	1659.4828	35661.05	34773.65
902.9852	1661.222	35522.2	34631.35
903.127	1662.9606	35579.55	34691.75
903.2687	1664.6984	35331.2	34441.45
903.4105	1666.4354	35280.15	34390.05
903.5522	1668.1717	34887.45	33999.45
903.6939	1669.9072	34578.1	33690.65
903.8356	1671.642	34434.2	33543.1
903.9773	1673.3761	34323.7	33434.7
904.119	1675.1094	34101.8	33214.3
904.2606	1676.8419	33955.7	33067.8
904.4022	1678.5737	33825.55	32937.35
904.5439	1680.3048	33672.5	32784.55
904.6855	1682.0351	33512.6	32623.7
904.827	1683.7646	33390.55	32497.1
904.9686	1685.4934	33383.1	32496.85
905.1101	1687.2215	33081.85	32192.65
905.2517	1688.9488	33139.05	32252.5
905.3932	1690.6754	32649.15	31761.95
905.5347	1692.4012	32831	31943.4
905.6761	1694.1263	32807.75	31920.4
905.8176	1695.8506	32577.6	31689.95
905.9591	1697.5742	32542.5	31658.3
906.1005	1699.297	32401.95	31517.9
906.2419	1701.0191	32380.5	31495.5
906.3833	1702.7404	32140.85	31252.5
906.5246	1704.461	31979.1	31090.2
906.666	1706.1808	31987.1	31098.3
906.8073	1707.8999	31890.2	31003.35
906.9487	1709.6182	31796.3	30909.1
907.09	1711.3358	31764.85	30879.2
907.2313	1713.0527	31657.3	30773.2
907.3725	1714.7688	31570.85	30680.85
907.5138	1716.4841	31344	30455.05
907.655	1718.1987	31401.05	30510.85
907.7962	1719.9126	31247	30362.4
907.9374	1721.6257	31247.7	30363.05
908.0786	1723.338	31182.35	30297.15
908.2198	1725.0496	30905.7	30020.05
908.3609	1726.7605	30924.05	30037.25
908.502	1728.4706	30803.25	29915.85
908.6431	1730.18	30761.05	29874.85
908.7842	1731.8886	30691.8	29807.65
908.9253	1733.5964	30576.25	29688.3
909.0664	1735.3036	30607.3	29719.85
909.2074	1737.0099	30507.8	29620.85
909.3484	1738.7156	30365.3	29481.05
909.4894	1740.4204	30295.75	29407.1
909.6304	1742.1246	30296.9	29409.25
909.7714	1743.8279	30267.85	29385.6
909.9123	1745.5306	30226.1	29340
910.0532	1747.2325	29995.85	29113.7
910.1941	1748.9336	29919.95	29034.6
910.335	1750.634	29853.4	28968.55
910.4759	1752.3336	29893.15	29009.65
910.6168	1754.0325	29789.55	28906.25
910.7576	1755.7307	29778.35	28893.8
910.8984	1757.4281	29681.65	28795.4
911.0392	1759.1247	29693.3	28796.95
911.18	1760.8206	29551.85	28660.4
911.3208	1762.5158	29560.95	28670.9
911.4615	1764.2102	29439.35	28555.05
911.6022	1765.9039	29326	28440.85
911.7429	1767.5968	29355	28473.2
911.8836	1769.289	29240.95	28358.15
912.0243	1770.9804	29205	28318.45
912.1649	1772.6711	29161.4	28274.15
912.3056	1774.361	29070.45	28182.8
912.4462	1776.0502	29026.1	28138.7
912.5868	1777.7386	28902.9	28013.75
912.7274	1779.4263	28877	27993.2
912.8679	1781.1132	28900.15	28017.7
913.0084	1782.7994	28740.7	27854.75
913.149	1784.4849	28772.85	27891.5
913.2895	1786.1696	28594.85	27692.55
913.4299	1787.8535	28554	27669.85
913.5704	1789.5367	28525	27643
913.7108	1791.2192	28437.35	27553.85
913.8513	1792.9009	28319.35	27403.05
913.9917	1794.5818	28312.25	27426.2
914.132	1796.2621	28206.35	27323.95
914.2724	1797.9415	28128.1	27242.35
914.4128	1799.6202	28093.8	27208.6
914.5531	1801.2982	28035.75	27150
914.6934	1802.9755	27949	27060.7
914.8337	1804.6519	27871.9	26987.9
914.9739	1806.3277	27878.75	26996.55
915.1142	1808.0027	27663.5	26779.45
915.2544	1809.6769	27705.95	26823.25
915.3946	1811.3504	27640.3	26757.2
915.5348	1813.0231	27510.05	26623.75
915.675	1814.6951	27557.4	26676.45
915.8151	1816.3664	27516.55	26630
915.9553	1818.0369	27405	26520.1
916.0954	1819.7067	27340.5	26455.95
916.2355	1821.3757	27331.8	26444.1
916.3755	1823.044	27186.45	26300.85
916.5156	1824.7115	27134.75	26250.35
916.6556	1826.3783	27007.75	26122.85
916.7956	1828.0443	26980.5	26096.75
916.9356	1829.7096	26918.3	26032.7
917.0756	1831.3741	26839.5	25952.15
917.2155	1833.0379	26835.3	25952.3
917.3555	1834.701	26727.05	25841.05
917.4954	1836.3633	26676.85	25792.75
917.6353	1838.0248	26685.35	25799.65
917.7751	1839.6856	26607	25722.2
917.915	1841.3457	26533	25651.35
918.0548	1843.005	26559.9	25675.35
918.1946	1844.6636	26428.25	25545.1
918.3344	1846.3214	26329.25	25447.05
918.4742	1847.9785	26342.9	25460.5
918.6139	1849.6349	26263.4	25378.15
918.7537	1851.2904	26291.2	25396.05
918.8934	1852.9453	26166.25	25278.75
919.0331	1854.5994	26128.95	25243.25
919.1727	1856.2528	26107.75	25217.3
919.3124	1857.9054	25972.9	25087.95
919.452	1859.5572	25966.85	25082.85
919.5916	1861.2083	25929.4	25042.8
919.7312	1862.8587	25971.9	25085.3
919.8708	1864.5084	25834.1	24947.75
920.0103	1866.1572	25827.15	24942.1
920.1498	1867.8054	25682.85	24796.55
920.2893	1869.4528	25646.4	24759.6
920.4288	1871.0994	25503.95	24618.9
920.5683	1872.7453	25459.95	24569.8
920.7077	1874.3905	25493.85	24601.35
920.8471	1876.0349	25387.15	24502.05
920.9865	1877.6786	25392.85	24503.5
921.1259	1879.3215	25304.3	24420.05
921.2653	1880.9637	25318.85	24430.6
921.4046	1882.6051	25200.6	24316.9
921.5439	1884.2458	25159.6	24271.35
921.6832	1885.8858	25065.45	24179.45
921.8225	1887.525	25054	24168.45
921.9617	1889.1634	24950.25	24066.2
922.101	1890.8011	24836.35	23952.8
922.2402	1892.4381	24782.3	23895.8
922.3794	1894.0743	24820.3	23936.65
922.5185	1895.7098	24749.8	23864.2
922.6577	1897.3446	24657	23772.9
922.7968	1898.9786	24609.5	23720.4
922.9359	1900.6118	24513.15	23628.8
923.075	1902.2443	24406.05	23520.2
923.214	1903.8761	24418.5	23532.9
923.3531	1905.5071	24275.6	23390.25
923.4921	1907.1374	24104.9	23220.4
923.6311	1908.7669	24112.25	23227.75
923.77	1910.3957	24129.7	23245.75
923.909	1912.0237	23976.05	23091.5
924.0479	1913.651	23892.95	23010
924.1868	1915.2776	23845.45	22961.55
924.3257	1916.9034	23747.4	22864
924.4646	1918.5285	23673.6	22789.4
924.6034	1920.1528	23613.4	22727.85
924.7422	1921.7764	23553.95	22671.05
924.881	1923.3992	23475.55	22592.35
925.0198	1925.0213	23327.4	22443.25
925.1586	1926.6427	23251.7	22369.5
925.2973	1928.2633	23351.1	22222.05
925.436	1929.8832	23177.75	22289.6
925.5747	1931.5023	23059.4	22176.5
925.7134	1933.1207	23006.65	22121.4
925.852	1934.7383	22959.6	22073.85
925.9906	1936.3552	22840.9	21958.15
926.1292	1937.9714	22827.15	21944.75
926.2678	1939.5868	22724.45	21837.9
926.4064	1941.2015	22594.55	21710.65
926.5449	1942.8154	22543.65	21657.7
926.6834	1944.4286	22441.45	21556.45
926.8219	1946.041	22382.45	21473.95
926.9604	1947.6528	22271.75	21384
927.0988	1949.2637	22206.4	21324.45
927.2372	1950.8739	22118.45	21235.65
927.3756	1952.4834	22114.65	21231.2
927.514	1954.0921	22089.05	21205.6
927.6523	1955.7001	21976.45	21087.85
927.7907	1957.3074	21913.85	21033.7
927.929	1958.9139	21832.5	20949.55
928.0673	1960.5197	21764.65	20880
928.2055	1962.1247	21669.45	20787.15
928.3438	1963.729	21588.75	20705.15
928.482	1965.3325	21576.4	20671.15
928.6202	1966.9353	21470.3	20589.45
928.7584	1968.5374	21369.15	20485.95
928.8965	1970.1387	21303.3	20420.55
929.0346	1971.7393	21229.2	20345.95
929.1727	1973.3392	21167.25	20283.65
929.3108	1974.9383	21106.5	20224.95
929.4489	1976.5366	21016.55	20135.65
929.5869	1978.1342	20987.45	20105.85
929.7249	1979.7311	20946.85	20063.9
929.8629	1981.3273	20855.25	19973.3
930.0009	1982.9227	20822.8	19940.5
930.1388	1984.5173	20740.8	19859.65
930.2767	1986.1112	20668.1	19785.05
930.4146	1987.7044	20625.85	19743.8
930.5525	1989.2968	20534	19652.4
930.6904	1990.8885	20491.5	19607.45
930.8282	1992.4795	20454	19570.95
930.966	1994.0697	20377.05	19495.9
931.1038	1995.6592	20334.95	19452.6
931.2415	1997.2479	20254.55	19373.75
931.3793	1998.8359	20203.4	19323.25
931.517	2000.4232	20130.65	19252.5
931.6547	2002.0097	20104.2	19224.05
931.7923	2003.5955	19970.1	19090.55
931.93	2005.1805	19969.2	19087.4
932.0676	2006.7648	19933.3	19051.35
932.2052	2008.3484	19871.05	18990.2
932.3427	2009.9312	19874	18990.4
932.4803	2011.5133	19729.5	18851.35
932.6178	2013.0946	19712.1	18831.5
932.7553	2014.6752	19647.55	18770
932.8928	2016.2551	19622.35	18740.95
933.0302	2017.8342	19500.5	18619.55
933.1676	2019.4126	19460.2	18580.25
933.305	2020.9902	19348.65	18471.2
933.4424	2022.5672	19352.45	18472.25
933.5798	2024.1433	19307.3	18422.25
933.7171	2025.7188	19221.65	18344.1
933.8544	2027.2935	19200.6	18320.1
933.9917	2028.8674	19135.95	18256.8
934.129	2030.4406	19035.75	18156.1
934.2662	2032.0131	18924.05	18045.65
934.4034	2033.5849	18904.8	18020.4
934.5406	2035.1559	18880.65	18002.1
934.6778	2036.7261	18852.8	17974.5
934.8149	2038.2957	18800.6	17919
934.952	2039.8645	18769.1	17888.6
935.0891	2041.4325	18757.6	17871.75
935.2262	2042.9998	18658.85	17779.2
935.3632	2044.5664	18626.25	17742.8
935.5002	2046.1323	18616.15	17736.85
935.6372	2047.6974	18520	17640.5
935.7742	2049.2617	18496.05	17617
935.9111	2050.8254	18454.25	17567.8
936.048	2052.3883	18427.2	17547.9
936.1849	2053.9504	18345.95	17466.1
936.3218	2055.5118	18285.9	17406.15
936.4586	2057.0725	18223.85	17339.75
936.5955	2058.6325	18180.95	17300.6
936.7323	2060.1917	18119.95	17242.35
936.869	2061.7502	18092.05	17209.55
937.0058	2063.3079	17997.75	17117.55
937.1425	2064.8649	17964.4	17080.05
937.2792	2066.4212	17890.5	17011.35
937.4159	2067.9767	17834.35	16956.9
937.5525	2069.5315	17745.65	16865.65
937.6891	2071.0856	17700.7	16821.4
937.8257	2072.6389	17639.35	16760.85
937.9623	2074.1915	17557.4	16679
938.0989	2075.7433	17497.05	16614.95
938.2354	2077.2945	17464.4	16586.2
938.3719	2078.8448	17427.35	16548
938.5084	2080.3945	17377.8	16499
938.6448	2081.9434	17346.8	16464.2
938.7812	2083.4916	17288.25	16406.55
938.9176	2085.039	17221.65	16339.5
939.054	2086.5857	17195.6	16311.8
939.1903	2088.1317	17188.45	16305.25
939.3267	2089.677	17092.5	16207.4
939.463	2091.2215	17044.5	16163.15
939.5992	2092.7652	17002.7	16118.4
939.7355	2094.3083	16985.1	16102.85
939.8717	2095.8506	16953.7	16073.25
940.0079	2097.3921	16953.7	16072.6
940.1441	2098.933	16839.25	15956.9
940.2802	2100.4731	16835.65	15956.2
940.4163	2102.0124	16801.6	15899.85
940.5524	2103.5511	16791.9	15909.45
940.6885	2105.089	16732.1	15848.15
940.8245	2106.6261	16708.95	15828.35
940.9606	2108.1626	16640.8	15758.45
941.0965	2109.6983	16602.3	15692.7
941.2325	2111.2332	16540.15	15657.15
941.3684	2112.7675	16533.25	15648.55
941.5044	2114.301	16452.05	15567.3
941.6403	2115.8337	16443.1	15561.6
941.7761	2117.3657	16386.35	15503.35
941.912	2118.897	16338.5	15456.55
942.0478	2120.4276	16290.5	15400.9
942.1835	2121.9575	16238.15	15357
942.3193	2123.4866	16247.35	15353.4
942.455	2125.0149	16180.65	15298.25
942.5907	2126.5426	16092.2	15209.95
942.7264	2128.0695	16053.6	15169.9
942.8621	2129.5956	16026.05	15145.6
942.9977	2131.1211	16001.05	15118.25
943.1333	2132.6458	15961.55	15080.2
943.2689	2134.1698	15950.5	15070.35
943.4044	2135.693	15873.7	14988.25
943.54	2137.2155	15831.2	14946.1
943.6755	2138.7373	15775.15	14892.5
943.8109	2140.2584	15729	14847.65
943.9464	2141.7787	15689.05	14804.4
944.0818	2143.2983	15623.85	14745.4
944.2172	2144.8171	15539.5	14660.9
944.3526	2146.3353	15533.7	14651.7
944.4879	2147.8527	15484	14602.6
944.6232	2149.3693	15468.75	14586.8
944.7585	2150.8853	15401.3	14518.1
944.8938	2152.4005	15329.3	14444.8
945.029	2153.9149	15314.75	14431
945.1642	2155.4287	15266.25	14381.15
945.2994	2156.9417	15252.85	14370.3
945.4346	2158.454	15183.15	14301
945.5697	2159.9655	15129.45	14248.2
945.7048	2161.4764	15147.95	14267.25
945.8399	2162.9865	15085.9	14205.05
945.9749	2164.4958	15052.35	14170.85
946.1099	2166.0045	14955.65	14070.3
946.2449	2167.5124	14989.7	14107.05
946.3799	2169.0195	14906.75	14024.95
946.5148	2170.526	14898.1	14013.7
946.6498	2172.0317	14837	13955.3
946.7846	2173.5367	14825.2	13941.55
946.9195	2175.0409	14759.15	13878.8
947.0543	2176.5445	14765.65	13883.2
947.1891	2178.0473	14686.2	13802.65
947.3239	2179.5494	14633.45	13749.65
947.4587	2181.0507	14589.5	13708.85
947.5934	2182.5513	14546.15	13663.2
947.7281	2184.0512	14495.8	13613.3
947.8628	2185.5504	14491.35	13609.5
947.9974	2187.0488	14405.35	13524.4
948.132	2188.5465	14348.4	13468.4
948.2666	2190.0435	14297.05	13416
948.4012	2191.5397	14242.3	13361.95
948.5357	2193.0353	14198	13318.3
948.6702	2194.5301	14134.1	13250.65
948.8047	2196.0241	14098.15	13216.2
948.9392	2197.5175	14061.45	13176.45
949.0736	2199.0101	13985.5	13097.4
949.208	2200.502	13954.55	13074.3
949.3424	2201.9931	13886.35	13005.75
949.4767	2203.4835	13845.4	12963.2
949.611	2204.9733	13853.15	12966.3
949.7453	2206.4622	13816.4	12937.3
949.8796	2207.9505	13736.9	12854
950.0138	2209.438	13686.35	12809.25
950.148	2210.9248	13625.05	12743.05
950.2822	2212.4109	13619.85	12738.2
950.4164	2213.8962	13555.9	12668.65
950.5505	2215.3809	13525.85	12643.25
950.6846	2216.8648	13526.7	12640.9
950.8186	2218.3479	13471.6	12582.6
950.9527	2219.8304	13401.9	12514
951.0867	2221.3121	13358.45	12473.45
951.2207	2222.7931	13311.5	12428.5
951.3546	2224.2733	13254.6	12371.25
951.4886	2225.7529	13215.35	12333.2
951.6225	2227.2317	13195.7	12311.4
951.7563	2228.7098	13186.2	12305.6
951.8902	2230.1872	13081.6	12202.9
952.024	2231.6638	13063.15	12182.7
952.1578	2233.1397	13056.6	12168.75
952.2916	2234.6149	13022.45	12142.25
952.4253	2236.0894	12947.1	12063.7
952.559	2237.5632	12929.85	12038.2
952.6927	2239.0362	12869.45	11986
952.8263	2240.5085	12834.3	11953
952.9599	2241.9801	12800.65	11918.9
953.0935	2243.4509	12746.85	11864.35
953.2271	2244.921	12684.85	11800.2
953.3606	2246.3904	12632.6	11747.2
953.4941	2247.8591	12607.25	11724.65
953.6276	2249.3271	12607.3	11726.45
953.7611	2250.7943	12552.1	11669.65
953.8945	2252.2608	12517.25	11634.35
954.0279	2253.7266	12477.55	11594.9
954.1612	2255.1917	12429.25	11545.95
954.2946	2256.656	12378.6	11498.15
954.4279	2258.1197	12348.75	11466.6
954.5612	2259.5826	12314.55	11431.05
954.6944	2261.0447	12297.65	11416.1
954.8276	2262.5062	12250.3	11364.65
954.9608	2263.9669	12215.7	11330.05
955.094	2265.4269	12182.2	11301.15
955.2271	2266.8862	12127.2	11244.05
955.3602	2268.3448	12138.1	11257.4
955.4933	2269.8026	12091.75	11209.5
955.6264	2271.2598	12059	11178.35
955.7594	2272.7162	12029.8	11148.1
955.8924	2274.1719	12004.2	11120.2
956.0253	2275.6268	11980.25	11099.55
956.1583	2277.0811	11923.55	11039.3
956.2912	2278.5346	11902.55	11020.15
956.4241	2279.9874	11867.4	10985.25
956.5569	2281.4395	11870.75	10989.65
956.6897	2282.8908	11815.75	10929.45
956.8225	2284.3414	11791.65	10907.8
956.9553	2285.7914	11735.8	10855.1
957.088	2287.2406	11692.15	10808.75
957.2207	2288.689	11682.9	10799.75
957.3534	2290.1368	11641.3	10756.55
957.486	2291.5838	11598.1	10711.2
957.6186	2293.0302	11571.9	10686.5
957.7512	2294.4758	11533.15	10649.6
957.8838	2295.9206	11486.3	10601.85
958.0163	2297.3648	11455	10572.6
958.1488	2298.8082	11451	10569.05
958.2813	2300.251	11395.5	10514.15
958.4137	2301.693	11356	10473.15
958.5461	2303.1343	11327.8	10444.8
958.6785	2304.5748	11300.85	10419.7
958.8108	2306.0147	11271.4	10389.5
958.9432	2307.4538	11236.2	10350.55
959.0754	2308.8922	11177.05	10298.9
959.2077	2310.3299	11176.1	10294.75
959.3399	2311.7669	11145.65	10265.15
959.4721	2313.2031	11110.95	10227.65
959.6043	2314.6387	11041.85	10158.45
959.7365	2316.0735	11009.95	10128.15
959.8686	2317.5076	11026.25	10143.3
960.0006	2318.941	10983.5	10100.35
960.1327	2320.3737	10948.45	10064.3
960.2647	2321.8056	10930.05	10043.7
960.3967	2323.2369	10894.9	10010.85
960.5287	2324.6674	10840.7	9956.7
960.6606	2326.0972	10819.25	9934.65
960.7925	2327.5263	10784.65	9901.6
960.9244	2328.9547	10762.8	9881.1
961.0562	2330.3823	10727	9844.3
961.1881	2331.8092	10712.65	9825.5
961.3198	2333.2355	10674.4	9789.95
961.4516	2334.661	10636.2	9751.7
961.5833	2336.0858	10617.95	9733.6
961.715	2337.5098	10575.9	9694.7
961.8467	2338.9332	10573.4	9690.8
961.9783	2340.3558	10522	9635.1
962.1099	2341.7778	10503.05	9620.7
962.2415	2343.199	10424.5	9541.3
962.373	2344.6195	10433.15	9551.65
962.5045	2346.0393	10377.4	9497.05
962.636	2347.4583	10384.25	9501.25
962.7675	2348.8767	10311.15	9427.7
962.8989	2350.2943	10316.1	9431.7
963.0303	2351.7113	10316.9	9433.8
963.1617	2353.1275	10257	9369.7
963.293	2354.543	10229.25	9336.95
963.4243	2355.9578	10195.95	9311.15
963.5556	2357.3718	10149.25	9267.75
963.6868	2358.7852	10091	9205.8
963.818	2360.1978	10054.5	9171.45
963.9492	2361.6098	10036.85	9153.9
964.0803	2363.021	10017.35	9129.8
964.2114	2364.4315	9979.7	9095.45
964.3425	2365.8413	9987.65	9101.95
964.4736	2367.2504	9909.55	9029.1
964.6046	2368.6587	9863.85	8980.15
964.7356	2370.0664	9822.75	8939.9
964.8666	2371.4733	9825.9	8943.45
964.9975	2372.8795	9793.25	8909.6
965.1284	2374.285	9747.6	8866.5
965.2593	2375.6899	9694.9	8812.65
965.3901	2377.0939	9688.45	8806.55
965.5209	2378.4973	9635.5	8752.65
965.6517	2379.9	9606.05	8723.75
965.7825	2381.3019	9560.65	8678.45
965.9132	2382.7032	9549.35	8668.85
966.0439	2384.1037	9524.65	8646.45
966.1745	2385.5035	9500.45	8621.25
966.3051	2386.9027	9451.15	8569.45
966.4357	2388.3011	9423.45	8541.1
966.5663	2389.6987	9399.05	8518.2
966.6968	2391.0957	9359.05	8480.1
966.8273	2392.492	9337.65	8455.95
966.9578	2393.8876	9301.85	8418.05
967.0882	2395.2824	9251.4	8366.9
967.2186	2396.6765	9232.8	8352.15
967.349	2398.07	9196.65	8315.3
967.4793	2399.4627	9179.15	8293.25
967.6097	2400.8547	9149.9	8270
967.7399	2402.246	9128.45	8241.3
967.8702	2403.6366	9071.6	8190.15
968.0004	2405.0265	9026.9	8144.2
968.1306	2406.4156	9030.9	8144.9
968.2607	2407.8041	8974.55	8087.6
968.3909	2409.1918	8929.25	8045.65
968.521	2410.5789	8897.3	8014.1
968.651	2411.9652	8858.15	7972.95
968.781	2413.3508	8850.6	7969.6
968.911	2414.7358	8813.35	7928.85
969.041	2416.12	8789.55	7907.7
969.1709	2417.5035	8743.55	7860.7
969.3008	2418.8863	8713.15	7830.15
969.4307	2420.2684	8676	7794.3
969.5606	2421.6497	8648.7	7766.75
969.6904	2423.0304	8617.4	7736.8
969.8201	2424.4104	8615	7732.2
969.9499	2425.7896	8569.85	7684.7
970.0796	2427.1682	8548.15	7666.35
970.2093	2428.546	8527.25	7642.5
970.3389	2429.9232	8520.8	7636.5
970.4685	2431.2996	8489.75	7608.8
970.5981	2432.6753	8452.55	7569.9
970.7277	2434.0503	8429.95	7546.05
970.8572	2435.4246	8391.75	7510.4
970.9867	2436.7982	8372.6	7488.15
971.1161	2438.1711	8350.25	7469.4
971.2456	2439.5433	8336.9	7452.2
971.375	2440.9148	8306.6	7418
971.5043	2442.2856	8273.05	7391.35
971.6336	2443.6557	8260.4	7377.45
971.7629	2445.025	8228	7346.05
971.8922	2446.3937	8185.55	7304.5
972.0214	2447.7617	8174.9	7290.1
972.1506	2449.1289	8151.4	7270.35
972.2798	2450.4955	8144.85	7258.95
972.4089	2451.8613	8098.7	7218.25
972.538	2453.2265	8071.9	7189.55
972.6671	2454.5909	8048.45	7162.75
972.7961	2455.9546	8033.05	7151.1
972.9251	2457.3177	8026.4	7143.15
973.0541	2458.68	7996.7	7111.65
973.1831	2460.0416	7980.3	7097.15
973.312	2461.4025	7970.2	7084.9
973.4408	2462.7627	7936.65	7045.3
973.5697	2464.1222	7921.15	7040.25
973.6985	2465.4811	7889.25	7005.8
973.8273	2466.8392	7871.1	6988.85
973.956	2468.1966	7852.85	6968.35
974.0847	2469.5533	7818.2	6933.35
974.2134	2470.9093	7825.6	6942.25
974.3421	2472.2645	7809.85	6925.85
974.4707	2473.6191	7755.4	6874.75
974.5993	2474.973	7733.5	6849.7
974.7278	2476.3262	7712.75	6828.3
974.8563	2477.6787	7686.95	6804.95
974.9848	2479.0305	7652.45	6770.9
975.1132	2480.3816	7629.65	6745.1
975.2417	2481.7319	7607.05	6726.25
975.37	2483.0816	7569.75	6685.6
975.4984	2484.4306	7534.2	6650.05
975.6267	2485.7789	7511.35	6629.95
975.755	2487.1264	7499.8	6616.3
975.8833	2488.4733	7455.4	6573.95
976.0115	2489.8195	7434	6547.55
976.1397	2491.165	7399.15	6514.35
976.2678	2492.5097	7392.45	6510.4
976.3959	2493.8538	7356.85	6476.55
976.524	2495.1972	7319.6	6437.05
976.6521	2496.5398	7295.5	6410.9
976.7801	2497.8818	7298.55	6413.5
976.9081	2499.2231	7259.45	6376.85
977.036	2500.5637	7235.5	6352.5
977.164	2501.9035	7248.55	6365.5
977.2918	2503.2427	7189	6301.1
977.4197	2504.5812	7175.3	6293
977.5475	2505.919	7166.45	6282.7
977.6753	2507.256	7138.35	6256.8
977.8031	2508.5924	7105.2	6223.5
977.9308	2509.9281	7086.1	6196.5
978.0585	2511.2631	7056.65	6172.95
978.1861	2512.5974	7056.4	6175.15
978.3137	2513.9309	7021.75	6139.45
978.4413	2515.2638	7031.5	6119.6
978.5689	2516.596	6979.35	6096.85
978.6964	2517.9275	6942.9	6058
978.8239	2519.2583	6938.5	6055.85
978.9513	2520.5884	6882.55	5998.9
979.0788	2521.9178	6849.65	5968.85
979.2062	2523.2465	6855.75	5973.15
979.3335	2524.5745	6838.45	5956.9
979.4608	2525.9018	6830	5947
979.5881	2527.2284	6794.55	5912.7
979.7154	2528.5543	6776.55	5895.55
979.8426	2529.8796	6767.75	5885.1
979.9698	2531.2041	6739.85	5858.75
980.0969	2532.5279	6729.85	5847.65
980.224	2533.851	6712.15	5830.3
980.3511	2535.1735	6691.3	5809.85
980.4781	2536.4952	6679.5	5795.75
980.6052	2537.8163	6670.85	5789.15
980.7321	2539.1366	6634.9	5751.9
980.8591	2540.4562	6611.1	5726.4
980.986	2541.7752	6635.2	5751.8
981.1129	2543.0935	6607.1	5723.65
981.2397	2544.411	6588.5	5704.2
981.3665	2545.7279	6584.7	5704.25
981.4933	2547.0441	6558.5	5675.4
981.62	2548.3596	6559.9	5674.35
981.7467	2549.6744	6529.85	5647.8
981.8734	2550.9885	6531.75	5639.4
982.0001	2552.3019	6484.7	5604
982.1267	2553.6146	6473.25	5591.75
982.2532	2554.9266	6464.05	5583.35
982.3798	2556.2379	6435.35	5550.55
982.5063	2557.5485	6430.7	5549.95
982.6327	2558.8585	6421.3	5531.85
982.7592	2560.1677	6412.65	5528.4
982.8856	2561.4762	6392.45	5511.05
983.0119	2562.7841	6368.05	5482.15
983.1383	2564.0913	6348.15	5464.15
983.2646	2565.3977	6328.5	5446.8
983.3908	2566.7035	6318	5434.15
983.517	2568.0086	6331	5447.85
983.6432	2569.313	6313.45	5430.25
983.7694	2570.6167	6288.9	5402.9
983.8955	2571.9197	6268.15	5387.95
984.0216	2573.222	6262.8	5377.75
984.1476	2574.5236	6254.1	5370.1
984.2737	2575.8246	6238.4	5354.7
984.3996	2577.1248	6212.3	5325.2
984.5256	2578.4244	6207.35	5325.5
984.6515	2579.7232	6198.3	5314.25
984.7774	2581.0214	6234.25	5312.1
984.9032	2582.3189	6174.95	5295.95
985.029	2583.6157	6173.5	5285.75
985.1548	2584.9118	6146.4	5264.75
985.2806	2586.2072	6133.55	5250.65
985.4063	2587.5019	6130.9	5246.5
985.5319	2588.7959	6096.3	5213.4
985.6576	2590.0893	6064	5179.7
985.7832	2591.3819	6093.1	5211.4
985.9087	2592.6739	6042.55	5161.5
986.0343	2593.9652	6037.9	5153.45
986.1597	2595.2557	5981.8	5100.15
986.2852	2596.5456	5996.2	5110.9
986.4106	2597.8348	5976.85	5095.45
986.536	2599.1234	5958.65	5075.4
986.6614	2600.4112	5914.35	5029.7
986.7867	2601.6983	5906	5023.3
986.912	2602.9848	5901.05	5018.3
987.0372	2604.2705	5870.8	4981.35
987.1624	2605.5556	5875.5	4992.95
987.2876	2606.84	5841.9	4960.45
987.4128	2608.1237	5820.85	4936.75
987.5379	2609.4067	5796.45	4913
987.6629	2610.689	5778.55	4888.5
987.788	2611.9707	5758.25	4873.6
987.913	2613.2516	5727.75	4839.75
988.0379	2614.5319	5694.2	4813.65
988.1629	2615.8115	5678.95	4793.45
988.2878	2617.0903	5664.55	4781
988.4126	2618.3685	5645.2	4763.05
988.5375	2619.6461	5626.4	4745.6
988.6622	2620.9229	5617.55	4736.45
988.787	2622.199	5609.4	4726.1
988.9117	2623.4745	5573.45	4689.45
989.0364	2624.7493	5560.55	4680
989.161	2626.0234	5540.65	4658.65
989.2857	2627.2968	5534.85	4651.9
989.4102	2628.5695	5520.3	4637.55
989.5348	2629.8415	5492.25	4610.85
989.6593	2631.1128	5481.85	4598.85
989.7837	2632.3835	5436.3	4554.45
989.9082	2633.6535	5418.9	4538
990.0326	2634.9228	5419.05	4537.85
990.1569	2636.1914	5411.4	4527.95
990.2812	2637.4593	5399	4510.55
990.4055	2638.7265	5367.1	4484.15
990.5298	2639.9931	5341.9	4460.25
990.654	2641.259	5324.1	4442
990.7782	2642.5242	5322.5	4437.95
990.9023	2643.7887	5310.9	4428
991.0264	2645.0525	5277.45	4395.05
991.1505	2646.3156	5276.85	4394.05
991.2745	2647.5781	5230.9	4351.9
991.3985	2648.8398	5243.8	4363.65
991.5225	2650.1009	5238.2	4321.35
991.6464	2651.3613	5207.65	4325.85
991.7703	2652.6211	5190.9	4307.6
991.8942	2653.8801	5186.1	4306.3
992.018	2655.1385	5179.75	4293.9
992.1418	2656.3961	5175.1	4293.9
992.2655	2657.6531	5160.6	4279.65
992.3892	2658.9094	5140.45	4258.25
992.5129	2660.1651	5126.3	4246.65
992.6366	2661.42	5115.4	4234.15
992.7602	2662.6743	5087.95	4204.65
992.8837	2663.9279	5091.25	4212
993.0073	2665.1808	5073.75	4192.5
993.1307	2666.433	5072.45	4189.4
993.2542	2667.6846	5058.05	4174.9
993.3776	2668.9354	5014.25	4130.4
993.501	2670.1856	5026.8	4143.85
993.6244	2671.4351	5008.55	4125.9
993.7477	2672.6839	4992.65	4110.35
993.8709	2673.9321	4975.7	4093.5
993.9942	2675.1795	4967.75	4084.8
994.1174	2676.4263	4950	4071
994.2405	2677.6724	4934.9	4055.55
994.3637	2678.9179	4935.7	4053.85
994.4868	2680.1626	4911.55	4030.2
994.6098	2681.4067	4920.4	4039.6
994.7328	2682.6501	4899.2	4016.65
994.8558	2683.8928	4856.35	3974.5
994.9788	2685.1348	4859.2	3980.35
995.1017	2686.3761	4818.2	3938.7
995.2245	2687.6168	4804.65	3923.7
995.3474	2688.8568	4812.2	3930.5
995.4702	2690.0961	4801.9	3921.25
995.5929	2691.3348	4805.8	3925
995.7156	2692.5727	4752.35	3870.85
995.8383	2693.81	4750.3	3867.2
995.961	2695.0466	4736.35	3855.5
996.0836	2696.2826	4722.8	3839.2
996.2062	2697.5178	4735.2	3833.3
996.3287	2698.7524	4694.7	3814.9
996.4512	2699.9863	4700.15	3815.5
996.5737	2701.2195	4668.55	3788.8
996.6961	2702.452	4663.2	3780.6
996.8185	2703.6839	4652.6	3769.95
996.9408	2704.9151	4638.5	3756.5
997.0631	2706.1456	4622.55	3740.6
997.1854	2707.3755	4608.7	3726.65
997.3077	2708.6046	4608.9	3725.5
997.4299	2709.8331	4594.95	3713.75
997.552	2711.0609	4561.2	3680.7
997.6742	2712.2881	4558.75	3676.8
997.7963	2713.5145	4544.45	3660.9
997.9183	2714.7403	4552.4	3670.2
998.0403	2715.9654	4530.05	3647.95
998.1623	2717.1899	4514.55	3632.6
998.2842	2718.4136	4521	3639.75
998.4062	2719.6367	4498.75	3619
998.528	2720.8591	4497.25	3609
998.6498	2722.0809	4467.25	3584.8
998.7716	2723.3019	4452.7	3570.2
998.8934	2724.5223	4453.8	3571.45
999.0151	2725.7421	4440.6	3556.65
999.1368	2726.9611	4418.75	3534.55
999.2584	2728.1795	4427.6	3541.6
999.38	2729.3972	4409.9	3527.85
999.5016	2730.6142	4383.3	3488.4
999.6231	2731.8306	4347.45	3468.3
999.7446	2733.0462	4349.95	3468.05
999.8661	2734.2612	4326.35	3440.8
999.9875	2735.4756	4298.5	3417.15
1000.1089	2736.6892	4284.85	3403.2
1000.2302	2737.9022	4242.2	3362.45
1000.3515	2739.1145	4231.35	3350.2
1000.4728	2740.3262	4217.7	3328.55
1000.594	2741.5372	4224.5	3344.25
1000.7152	2742.7475	4190.15	3308.95
1000.8363	2743.9571	4178.2	3294.85
1000.9575	2745.1661	4161.65	3276.2
1001.0785	2746.3744	4164.9	3283.1
1001.1996	2747.582	4133.1	3252
1001.3206	2748.7889	4119.75	3236.15
1001.4415	2749.9952	4110.55	3229.35
1001.5625	2751.2008	4107.5	3226.5
1001.6833	2752.4057	4070.5	3184.1
1001.8042	2753.61	4068.1	3186.45
1001.925	2754.8136	4053.05	3167.85
1002.0458	2756.0165	4049.2	3170.15
1002.1665	2757.2188	4030.7	3149.35
1002.2872	2758.4204	4036.6	3153.8
1002.4078	2759.6213	4017.1	3134.65
1002.5285	2760.8215	3986.65	3103.1
1002.649	2762.0211	3977.2	3095.3
1002.7696	2763.22	3956.55	3070.75
1002.8901	2764.4182	3958.3	3076.6
1003.0106	2765.6158	3950.35	3069.2
1003.131	2766.8127	3933.05	3050.15
1003.2514	2768.009	3920.4	3039.45
1003.3717	2769.2045	3920.35	3038.15
1003.492	2770.3994	3915.1	3032.25
1003.6123	2771.5936	3898.55	3014.6
1003.7325	2772.7872	3868.25	2990.1
1003.8527	2773.9801	3866.6	2982.8
1003.9729	2775.1723	3862.75	2964.5
1004.093	2776.3639	3842.7	2963.7
1004.2131	2777.5548	3839.55	2956.5
1004.3331	2778.745	3806.85	2924.4
1004.4531	2779.9346	3810.85	2929.55
1004.5731	2781.1235	3790.6	2908.85
1004.693	2782.3117	3794.1	2914.2
1004.8129	2783.4992	3774.65	2894.75
1004.9328	2784.6861	3772.55	2889.55
1005.0526	2785.8723	3769.6	2887.25
1005.1723	2787.0579	3745.05	2863
1005.2921	2788.2428	3730.5	2850.3
1005.4118	2789.427	3726.55	2847.5
1005.5314	2790.6106	3716.4	2833.5
1005.651	2791.7935	3701.2	2823
1005.7706	2792.9757	3700.1	2820.05
1005.8902	2794.1573	3699.5	2817.05
1006.0097	2795.3382	3684.65	2805.5
1006.1291	2796.5184	3663.85	2783.8
1006.2485	2797.698	3673.9	2792.25
1006.3679	2798.8769	3671.4	2790.85
1006.4873	2800.0551	3648.1	2765.75
1006.6066	2801.2327	3654.9	2770.95
1006.7258	2802.4096	3644.5	2764.75
1006.8451	2803.5859	3632.4	2750.75
1006.9642	2804.7615	3633.55	2752.6
1007.0834	2805.9364	3617.45	2737.1
1007.2025	2807.1106	3641.05	2762.05
1007.3216	2808.2842	3637.25	2756.3
1007.4406	2809.4572	3634.45	2754.6
1007.5596	2810.6294	3639.1	2757
1007.6785	2811.801	3630.65	2750.2
1007.7975	2812.972	3645.55	2765.35
1007.9163	2814.1423	3649	2770.2
1008.0352	2815.3119	3686.25	2804.2
1008.154	2816.4808	3676.4	2794.9
1008.2727	2817.6491	3698.6	2817.1
1008.3914	2818.8167	3707.65	2828.6
1008.5101	2819.9837	3720.45	2835.1
1008.6288	2821.15	3723.3	2844.3
1008.7474	2822.3157	3740.2	2859.95
1008.8659	2823.4807	3758.35	2878.5
1008.9844	2824.645	3787.1	2903.25
1009.1029	2825.8086	3803.05	2921.55
1009.2214	2826.9716	3809.15	2929.7
1009.3398	2828.134	3824.5	2945.05
1009.4581	2829.2957	3842	2961.85
1009.5764	2830.4567	3855.9	2977.3
1009.6947	2831.617	3860.25	2979.95
1009.813	2832.7767	3853	2974.05
1009.9312	2833.9358	3857.4	2977.85
1010.0493	2835.0941	3822.2	2939.55
1010.1675	2836.2519	3819.1	2939.05
1010.2855	2837.4089	3806.25	2924.05
1010.4036	2838.5653	3794.25	2916.2
1010.5216	2839.7211	3793.55	2914.8
1010.6396	2840.8761	3757.95	2875.35
1010.7575	2842.0306	3774.85	2894.8
1010.8754	2843.1843	3757.65	2876.8
1010.9932	2844.3374	3780.2	2898.95
1011.111	2845.4899	3791.35	2909.9
1011.2288	2846.6417	3803.45	2924.45
1011.3465	2847.7928	3833.35	2953.45
1011.4642	2848.9433	3839.1	2959.55
1011.5818	2850.0931	3869.25	2988.35
1011.6995	2851.2422	3881.35	3000.15
1011.817	2852.3907	3899	3018.75
1011.9345	2853.5385	3926	3044.45
1012.052	2854.6857	3941.8	3051.5
1012.1695	2855.8323	3953.95	3074.45
1012.2869	2856.9781	3953.5	3073.45
1012.4042	2858.1233	3971.55	3090.15
1012.5216	2859.2679	3979.35	3098.55
1012.6389	2860.4118	3977	3096.35
1012.7561	2861.555	4013.2	3130.4
1012.8733	2862.6976	4021.05	3141.1
1012.9905	2863.8395	4022.8	3142.45
1013.1076	2864.9808	4030.9	3152
1013.2247	2866.1214	4045.85	3165.9
1013.3417	2867.2614	4037.05	3156.05
1013.4587	2868.4007	4023.35	3141.55
1013.5757	2869.5393	4019.6	3136.45
1013.6926	2870.6773	4027.05	3143.25
1013.8095	2871.8146	4031.6	3146.9
1013.9263	2872.9513	4008.6	3126.15
1014.0431	2874.0874	3996.6	3118.95
1014.1599	2875.2227	3970.95	3090.75
1014.2766	2876.3574	3955.6	3074.55
1014.3933	2877.4915	3951.15	3070.8
1014.51	2878.6249	3916.6	3036.3
1014.6266	2879.7577	3897.15	3016.55
1014.7431	2880.8898	3878.8	2989.5
1014.8596	2882.0212	3870.55	2992.95
1014.9761	2883.152	3850.15	2969.7
1015.0925	2884.2821	3852.3	2974.3
1015.2089	2885.4116	3826.1	2946.2
1015.3253	2886.5405	3826.5	2947.1
1015.4416	2887.6686	3826.5	2942.75
1015.5579	2888.7962	3803.15	2925.7
1015.6741	2889.923	3797.15	2918.1
1015.7903	2891.0493	3798.6	2918.75
1015.9065	2892.1748	3794.8	2913.7
1016.0226	2893.2997	3794.2	2914.2
1016.1387	2894.424	3800.5	2923.4
1016.2547	2895.5476	3789.1	2909.5
1016.3707	2896.6706	3792.85	2914
1016.4866	2897.7929	3784.45	2903.05
1016.6025	2898.9145	3785.6	2904.65
1016.7184	2900.0355	3792.1	2911.9
1016.8342	2901.1559	3795.75	2915.25
1016.95	2902.2756	3792.5	2913.25
1017.0658	2903.3946	3805.45	2926.85
1017.1815	2904.513	3819.3	2936.55
1017.2971	2905.6308	3807.1	2928.95
1017.4127	2906.7479	3804.6	2922.6
1017.5283	2907.8643	3811.3	2929.75
1017.6439	2908.9801	3802.8	2923.95
1017.7594	2910.0953	3811.45	2931.75
1017.8748	2911.2098	3803.2	2919.85
1017.9902	2912.3236	3779.2	2890.65
1018.1056	2913.4368	3772.65	2887.4
1018.2209	2914.5494	3747.15	2867.95
1018.3362	2915.6613	3733	2847.75
1018.4515	2916.7725	3725.95	2843.85
1018.5667	2917.8831	3698.5	2817.15
1018.6819	2918.9931	3671.55	2787.5
1018.797	2920.1024	3658.1	2778.6
1018.9121	2921.211	3653.8	2774.15
1019.0271	2922.319	3630.9	2748.8
1019.1421	2923.4264	3616.8	2739.05
1019.2571	2924.5331	3603.7	2725.4
1019.372	2925.6391	3607.15	2729.2
1019.4869	2926.7445	3594.75	2715.1
1019.6017	2927.8493	3592.65	2711.55
1019.7165	2928.9534	3574.1	2695.5
1019.8313	2930.0569	3573.6	2689.45
1019.946	2931.1597	3571.2	2691.5
1020.0606	2932.2619	3550.5	2671.05
1020.1753	2933.3634	3547.3	2668.95
1020.2899	2934.4643	3557.1	2670
1020.4044	2935.5645	3555.6	2670.5
1020.5189	2936.6641	3524.85	2643.75
1020.6334	2937.763	3500.05	2622.85
1020.7478	2938.8613	3484.35	2604.05
1020.8622	2939.959	3466.65	2582.45
1020.9765	2941.056	3430.3	2551.9
1021.0908	2942.1523	3391.3	2510.4
1021.2051	2943.248	3337.2	2456.05
1021.3193	2944.3431	3294.4	2415.3
1021.4334	2945.4375	3237.15	2358.15
1021.5476	2946.5313	3193.9	2314.4
1021.6617	2947.6244	3151.85	2273.1
1021.7757	2948.7169	3102.35	2222.25
1021.8897	2949.8087	3056.1	2175.35
1022.0037	2950.8999	3009.7	2129.05
1022.1176	2951.9904	2969.35	2089.35
1022.2315	2953.0803	2929.6	2048.55
1022.3453	2954.1696	2907.8	2029.15
1022.4591	2955.2582	2875.85	1997.35
1022.5728	2956.3462	2839.1	1960.55
1022.6865	2957.4335	2822.2	1939.8
1022.8002	2958.5202	2804.35	1923
1022.9138	2959.6062	2779.45	1901.1
1023.0274	2960.6916	2763.45	1882.45
1023.141	2961.7764	2752.25	1872.3
1023.2545	2962.8605	2732.55	1851.6
1023.3679	2963.9439	2724.5	1845.3
1023.4813	2965.0267	2708.35	1828.05
1023.5947	2966.1089	2725.15	1821.35
1023.708	2967.1905	2702.3	1824.75
1023.8213	2968.2714	2679.85	1800.65
1023.9346	2969.3516	2667.25	1788.55
1024.0478	2970.4312	2678.85	1791.35
1024.1609	2971.5102	2661.85	1783.8
1024.274	2972.5885	2667	1787.4
1024.3871	2973.6662	2664.45	1778.65
1024.5002	2974.7432	2660.05	1781.05
1024.6132	2975.8196	2645.75	1765.1
1024.7261	2976.8954	2639.1	1760.45
1024.839	2977.9705	2617.4	1739.2
1024.9519	2979.045	2629.1	1752.5
1025.0647	2980.1188	2606.7	1727.6
1025.1775	2981.192	2601.2	1723.7
1025.2902	2982.2645	2577.2	1697.25
1025.4029	2983.3364	2564.85	1684.3
1025.5156	2984.4077	2549.25	1672.55
1025.6282	2985.4783	2535.85	1650.1
1025.7407	2986.5483	2509.8	1632
1025.8532	2987.6177	2495	1616.05
1025.9657	2988.6864	2482.85	1602.55
1026.0782	2989.7545	2456.85	1578.6
1026.1906	2990.8219	2439.9	1559.2
1026.3029	2991.8887	2428.15	1546.9
1026.4152	2992.9548	2406.05	1525.05
1026.5275	2994.0204	2383.85	1507.55
1026.6397	2995.0852	2356.5	1479.4
1026.7519	2996.1495	2354.75	1473.75
1026.864	2997.2131	2329.05	1451.25
1026.9761	2998.276	2311.4	1433.3
1027.0882	2999.3383	2307.75	1428.1
1027.2002	3000.4	2288.55	1408.3
1027.3122	3001.4611	2269.5	1390.85
1027.4241	3002.5215	2266.4	1388.05
1027.536	3003.5812	2255	1375.4
1027.6478	3004.6404	2234.1	1354.4
1027.7596	3005.6989	2239.15	1356.4
1027.8714	3006.7567	2227	1347.6
1027.9831	3007.8139	2242.55	1334.1
1028.0947	3008.8705	2205.8	1327.45
1028.2064	3009.9264	2189.55	1304.3
1028.3179	3010.9818	2182.95	1305.8
1028.4295	3012.0364	2184.05	1303.9
1028.541	3013.0905	2161.7	1281.75
1028.6524	3014.1439	2156.6	1277.45
1028.7638	3015.1966	2158.45	1280.15
1028.8752	3016.2487	2155.9	1278.1
1028.9865	3017.3002	2152.85	1270.4
1029.0978	3018.3511	2139	1260.1
1029.209	3019.4013	2136.15	1257.05
1029.3202	3020.4509	2126	1247.8
1029.4314	3021.4998	2127.5	1247.5
1029.5425	3022.5481	2120.35	1239.85
1029.6535	3023.5958	2118.8	1240.95
1029.7645	3024.6428	2103.95	1224.1
1029.8755	3025.6892	2100.65	1222.9
1029.9864	3026.735	2107	1229
1030.0973	3027.7802	2102.55	1223.05
1030.2082	3028.8247	2090.25	1209.95
1030.319	3029.8685	2092.65	1212.85
1030.4297	3030.9118	2084.75	1202.55
1030.5404	3031.9544	2075.85	1198.55
1030.6511	3032.9963	2072.15	1192.45
1030.7617	3034.0376	2060.9	1181.75
1030.8723	3035.0783	2058.65	1178.25
1030.9829	3036.1184	2061.4	1180.85
1031.0934	3037.1578	2061.35	1183.9
1031.2038	3038.1966	2059.3	1180.5
1031.3142	3039.2348	2049.9	1173.65
1031.4246	3040.2723	2054.45	1166.6
1031.5349	3041.3092	2043.15	1166
1031.6452	3042.3455	2042.05	1160.85
1031.7554	3043.3811	2036.2	1155.95
1031.8656	3044.4161	2032.8	1151.85
1031.9758	3045.4505	2021.2	1144.65
1032.0859	3046.4842	2014.9	1133.8
1032.1959	3047.5173	2008.25	1130.3
1032.3059	3048.5498	2009.25	1129.85
1032.4159	3049.5816	2002.2	1124.4
1032.5258	3050.6128	2000.8	1121.35
1032.6357	3051.6434	1999.75	1120.2
1032.7455	3052.6734	1979.55	1098.5
1032.8553	3053.7027	1984.65	1105.6
1032.9651	3054.7314	1981.5	1103.45
1033.0748	3055.7594	1966.25	1089.5
1033.1845	3056.7868	1963.45	1085
1033.2941	3057.8136	1964.2	1085.1
1033.4037	3058.8398	1950.15	1073.65
1033.5132	3059.8653	1952.95	1073.35
1033.6227	3060.8902	1942.95	1065.4
1033.7321	3061.9145	1934.7	1055.05
1033.8415	3062.9381	1924.65	1046.1
1033.9509	3063.9612	1943.25	1049.2
1034.0602	3064.9835	1923.8	1044.5
1034.1694	3066.0053	1921.75	1040.9
1034.2787	3067.0264	1914.75	1036.9
1034.3878	3068.0469	1908.8	1027.65
1034.497	3069.0668	1902.7	1022.1
1034.6061	3070.086	1900.9	1022.5
1034.7151	3071.1046	1896.6	1018.25
1034.8241	3072.1226	1886.65	1006.25
1034.9331	3073.1399	1874.15	995.35
1035.042	3074.1567	1863.6	985.45
1035.1508	3075.1727	1865.4	983.5
1035.2597	3076.1882	1861.65	985
1035.3684	3077.203	1855.5	975.45
1035.4772	3078.2173	1848.6	968.75
1035.5859	3079.2308	1842.15	958.35
1035.6945	3080.2438	1837.05	955.7
1035.8031	3081.2561	1823.05	942.25
1035.9117	3082.2678	1821.65	943.05
1036.0202	3083.2789	1807.85	929.3
1036.1286	3084.2893	1805.5	927.4
1036.2371	3085.2991	1805.95	927
1036.3454	3086.3083	1806.75	924.75
1036.4538	3087.3169	1799.75	918.55
1036.562	3088.3248	1791.6	911.4
1036.6703	3089.3321	1789.8	911.15
1036.7785	3090.3388	1777.95	900.35
1036.8866	3091.3449	1766.75	888.9
1036.9948	3092.3503	1765.7	886.15
1037.1028	3093.3551	1761.6	883.7
1037.2108	3094.3593	1754.2	876.95
1037.3188	3095.3629	1758.25	880.3
1037.4267	3096.3658	1746.7	867.6
1037.5346	3097.3681	1737.1	858.7
1037.6425	3098.3698	1737.6	858.1
1037.7503	3099.3708	1735.25	851.15
1037.858	3100.3713	1726.6	847.85
1037.9657	3101.3711	1722.3	843.95
1038.0734	3102.3702	1826.85	811.55
1038.181	3103.3688	1711.55	831.85
1038.2886	3104.3667	1701.8	825.35
1038.3961	3105.364	1697.6	818.5
1038.5036	3106.3607	1692.85	811.7
1038.611	3107.3568	1696.25	818
1038.7184	3108.3522	1688.2	809.55
1038.8257	3109.347	1687.85	805.9
1038.933	3110.3412	1679.15	796.85
1039.0403	3111.3348	1665.1	787.85
1039.1475	3112.3277	1660.6	781.7
1039.2547	3113.32	1661.35	783.1
1039.3618	3114.3117	1658.9	779.55
1039.4689	3115.3028	1645.75	766.8
1039.5759	3116.2932	1645.15	765.15
1039.6829	3117.2831	1647.3	764.65
1039.7898	3118.2723	1641.4	763.4
1039.8967	3119.2608	1633	754.85
1040.0035	3120.2488	1624.35	745.45
1040.1103	3121.2361	1623.15	744.7
1040.2171	3122.2229	1623.85	746.75
1040.3238	3123.209	1617.8	736
1040.4305	3124.1944	1612.1	735.7
1040.5371	3125.1793	1609.6	728.15
1040.6437	3126.1635	1605.35	726.15
1040.7502	3127.1471	1592.4	714.05
1040.8567	3128.1301	1595.9	717.1
1040.9631	3129.1125	1589.15	710.25
1041.0695	3130.0942	1589.35	710.95
1041.1759	3131.0753	1596.45	710.55
1041.2822	3132.0558	1592.95	713.2
1041.3884	3133.0357	1578.05	699.9
1041.4946	3134.015	1582.5	702.8
1041.6008	3134.9936	1576.6	695.55
1041.7069	3135.9716	1589.8	690
1041.813	3136.949	1566.45	689.3
1041.919	3137.9258	1573.85	689.95
1042.025	3138.902	1561.85	677.4
1042.1309	3139.8775	1567.45	688.8
1042.2368	3140.8524	1561.1	682.55
1042.3427	3141.8267	1557.75	674.95
1042.4485	3142.8004	1557.45	678.8
1042.5542	3143.7735	1552.4	668.1
1042.6599	3144.7459	1544.95	663.4
1042.7656	3145.7178	1543.1	663.5
1042.8712	3146.689	1539.1	661.75
1042.9768	3147.6596	1531.15	648.95
1043.0823	3148.6295	1529.65	651.5
1043.1878	3149.5989	1519.45	643.8
1043.2932	3150.5676	1522.6	645.2
1043.3986	3151.5357	1530.6	653.75
1043.5039	3152.5032	1513.05	634.55
1043.6092	3153.4701	1512.55	634.75
1043.7145	3154.4364	1513.45	633.6
1043.8197	3155.402	1506.65	630.05
1043.9248	3156.367	1507.15	628.65
1044.03	3157.3315	1532.65	616.3
1044.135	3158.2952	1496.45	618.85
1044.24	3159.2584	1484.95	604.7
1044.345	3160.221	1488.15	608.2
1044.4499	3161.1829	1487.8	608.15
1044.5548	3162.1442	1485.95	608.85
1044.6596	3163.105	1478.35	599.5
1044.7644	3164.065	1466.75	588.95
1044.8692	3165.0245	1472.95	590.55
1044.9739	3165.9834	1464.75	590.1
1045.0785	3166.9416	1465.45	587.6
1045.1831	3167.8993	1461.4	582.3
1045.2877	3168.8563	1460.95	583.2
1045.3922	3169.8127	1455.45	576.4
1045.4966	3170.7684	1446.45	569.9
1045.6011	3171.7236	1447.35	565.65
1045.7054	3172.6782	1444.15	565.4
1045.8098	3173.6321	1435.1	556.35
1045.914	3174.5854	1446.6	563.6
1046.0183	3175.5381	1440.3	562.25
1046.1224	3176.4902	1433.9	556.2
1046.2266	3177.4417	1432.15	554.4
1046.3307	3178.3926	1428.1	551.25
1046.4347	3179.3428	1424.35	546.05
1046.5387	3180.2924	1423.3	545.7
1046.6427	3181.2415	1414.85	537.25
1046.7466	3182.1899	1422.2	541.7
1046.8504	3183.1377	1400.1	524.2
1046.9542	3184.0848	1412.95	532.3
1047.058	3185.0314	1406.55	528.65
1047.1617	3185.9773	1403.65	525.95
1047.2654	3186.9227	1397.8	518.2
1047.369	3187.8674	1390.75	511.5
1047.4726	3188.8115	1399.3	514.8
1047.5761	3189.755	1388.05	509.55
1047.6796	3190.6979	1389.7	512.8
1047.783	3191.6402	1382.25	505.05
1047.8864	3192.5818	1387.55	510.75
1047.9898	3193.5229	1394.2	499.25
1048.0931	3194.4633	1369.9	491.7
1048.1963	3195.4031	1381.65	503.45
1048.2995	3196.3423	1376.5	496.7
1048.4027	3197.2809	1371.65	494.5
1048.5058	3198.2189	1370.85	491.55
1048.6089	3199.1563	1389.55	492.8
1048.7119	3200.0931	1365.4	490.7
1048.8148	3201.0292	1361.75	485.15
1048.9178	3201.9648	1359.75	479.9
1049.0206	3202.8997	1363.85	482.1
1049.1235	3203.834	1354.35	477.8
1049.2262	3204.7677	1346.3	470.1
1049.329	3205.7008	1353.1	473.6
1049.4317	3206.6333	1344	467
1049.5343	3207.5652	1341.55	461.15
1049.6369	3208.4964	1345.25	467.25
1049.7394	3209.4271	1337.2	459.95
1049.8419	3210.3571	1335.85	457.4
1049.9444	3211.2865	1330.7	449.25
1050.0468	3212.2154	1331.7	454.2
1050.1491	3213.1436	1332.45	450.2
1050.2514	3214.0712	1333.95	447.6
1050.3537	3214.9982	1325.1	444.9
1050.4559	3215.9246	1327.05	448.5
1050.5581	3216.8503	1319	442.95
1050.6602	3217.7755	1318.7	437.75
1050.7623	3218.7001	1318.95	440.55
1050.8643	3219.624	1312.25	433.65
1050.9663	3220.5473	1316.5	437.55
1051.0682	3221.4701	1309.5	430.55
1051.1701	3222.3922	1311.25	429.5
1051.2719	3223.3137	1307.35	431.6
1051.3737	3224.2346	1302	423.45
1051.4754	3225.1549	1299.5	422.3
1051.5771	3226.0746	1299.5	420.75
1051.6788	3226.9937	1295.5	416.5
1051.7804	3227.9121	1293.75	414.5
1051.8819	3228.83	1294.25	416.65
1051.9834	3229.7473	1294.85	415.25
1052.0849	3230.6639	1288.1	408.45
1052.1863	3231.5799	1284.65	406.1
1052.2876	3232.4954	1283.05	404.25
1052.3889	3233.4102	1278.8	401.5
1052.4902	3234.3244	1277.95	398.7
1052.5914	3235.238	1274.15	396.2
1052.6926	3236.151	1292.55	389.15
1052.7937	3237.0634	1273.3	394.75
1052.8948	3237.9752	1265.1	386.6
1052.9958	3238.8864	1261.1	381.7
1053.0968	3239.797	1260.45	384.05
1053.1977	3240.7069	1260.55	380.75
1053.2986	3241.6163	1263.6	385.5
1053.3994	3242.5251	1253.2	376.35
1053.5002	3243.4332	1258.3	380.95
1053.6009	3244.3408	1255.1	377
1053.7016	3245.2477	1253.6	374.8
1053.8022	3246.154	1247.3	369.3
1053.9028	3247.0598	1244.65	366.25
1054.0034	3247.9649	1245.6	367.05
1054.1039	3248.8694	1239.05	361.5
1054.2043	3249.7733	1238.8	360.85
1054.3047	3250.6766	1238.35	360
1054.4051	3251.5793	1236.65	356.85
1054.5054	3252.4814	1235.3	357.85
1054.6056	3253.3829	1226.25	347.55
1054.7058	3254.2838	1221.45	341.35
1054.806	3255.1841	1230.15	355.6
1054.9061	3256.0838	1218.6	339.45
1055.0061	3256.9829	1216.8	337.7
1055.1062	3257.8814	1218.2	336.85
1055.2061	3258.7792	1213.95	333.4
1055.306	3259.6765	1209.05	332.2
1055.4059	3260.5731	1204.4	325.75
1055.5057	3261.4692	1204.2	324.3
1055.6055	3262.3647	1201.85	323.05
1055.7052	3263.2595	1193.95	313.7
1055.8049	3264.1538	1193.1	315.1
1055.9045	3265.0474	1182.2	303.1
1056.0041	3265.9404	1180.4	302.15
1056.1036	3266.8329	1179.55	303.5
1056.2031	3267.7247	1177.85	288.6
1056.3025	3268.616	1163.75	286.6
1056.4019	3269.5066	1156.25	276.5
1056.5013	3270.3966	1151.1	270.65
1056.6005	3271.286	1139.95	263.35
