Software Version:	3.9.2.0
Unit SN:	10000200
Spectrometer SN:	6960
Date:	3/6/2024 10:57:13 AM
Data Line Index:	25
Spectral Points:	2048
Integration time (ms):	125
Averages:	20
Delay (ms):	30
Sequence Number:	1
Processing:	dark subtract
Laser Power (mW):	295
Laser Current (mA):	823
Laser Diode Temp (C):	25.1
Laser Case Temp (C):	27.9
System Temp (C):	27.8
Spectrometer Temp (C):	25.2
CCD Temp (C):	0.012
Secondary Temp (C):	20.01
Heatsink Temp (C):	23.561
CCDPCB Temp (C):	37.107
SecondaryPCB Temp (C):	34.473

Wavelength	RamanShift	Raw Counts	Dark Subtracted
787.061	30.1047	1098.05	686.55
787.2016	32.3739	1138.45	727.6
787.3422	34.6426	1172.85	760.05
787.4828	36.9109	1217.95	802.8
787.6235	39.1787	1272.7	852.8
787.7642	41.4461	1338.75	914.3
787.9049	43.7131	1396.05	968.1
788.0456	45.9796	1453.6	1023.85
788.1863	48.2456	1523.85	1089.55
788.3271	50.5112	1596.55	1157.4
788.4679	52.7764	1658.95	1217.95
788.6087	55.0411	1734.75	1289.2
788.7496	57.3054	1819.3	1369.15
788.8904	59.5692	1899.75	1448
789.0313	61.8326	2001.1	1544.9
789.1722	64.0955	2110.55	1650.05
789.3132	66.3579	2234.7	1770.85
789.4541	68.6199	2381.7	1913.6
789.5951	70.8815	2623.8	2153.4
789.7361	73.1426	3108.1	2632.2
789.8771	75.4032	4343.5	3863.5
790.0181	77.6634	7516.35	7030.85
790.1592	79.9231	15662.6	15172.4
790.3003	82.1824	50978.35	50480.25
790.4414	84.4412	65535	65019.55
790.5825	86.6995	65535	64997.4
790.7237	88.9574	65535	64975.3
790.8648	91.2148	65535	64958.05
791.006	93.4717	65535	64949.95
791.1472	95.7282	65535	64941.5
791.2885	97.9842	65535	64942
791.4297	100.2398	65535	64937.6
791.571	102.4949	65535	64930.3
791.7123	104.7495	65535	64929.3
791.8536	107.0036	65535	64928.4
791.9949	109.2573	65535	64932.1
792.1363	111.5105	65535	64931
792.2777	113.7632	65535	64926.85
792.4191	116.0154	65535	64913.35
792.5605	118.2672	65535	64922.1
792.7019	120.5185	65535	64920.35
792.8434	122.7693	65535	64919.05
792.9849	125.0197	65535	64912.85
793.1264	127.2696	65535	64913.55
793.2679	129.519	65535	64910.2
793.4094	131.7679	65535	64908
793.551	134.0163	65535	64902.65
793.6926	136.2642	65535	64898.35
793.8342	138.5117	65535	64890.65
793.9758	140.7587	65535	64895.55
794.1175	143.0052	65535	64893.95
794.2591	145.2512	65535	64890.3
794.4008	147.4967	65535	64892.85
794.5425	149.7417	65535	64888.2
794.6842	151.9863	65535	64884.65
794.826	154.2304	65535	64882.75
794.9677	156.4739	65535	64875.55
795.1095	158.717	65535	64876.85
795.2513	160.9596	65535	64872.25
795.3931	163.2017	65535	64869.05
795.535	165.4433	65535	64865.6
795.6768	167.6844	65535	64863.2
795.8187	169.925	65535	64863.6
795.9606	172.1651	65535	64859.95
796.1025	174.4047	65535	64855.05
796.2445	176.6439	65535	64854.85
796.3864	178.8825	65535	64854.2
796.5284	181.1206	65535	64845.05
796.6704	183.3582	65535	64845.3
796.8124	185.5954	65535	64844.5
796.9544	187.832	65535	64838.35
797.0965	190.0681	65535	64835.5
797.2386	192.3037	65535	64832.55
797.3806	194.5388	65535	64834.65
797.5228	196.7734	65535	64826.6
797.6649	199.0075	65535	64823.05
797.807	201.2411	65535	64822.8
797.9492	203.4742	65535	64822.5
798.0914	205.7068	65535	64821.05
798.2336	207.9389	65535	64823.95
798.3758	210.1704	65535	64815.4
798.518	212.4015	65535	64813.4
798.6603	214.632	65535	64820.15
798.8025	216.862	65535	64829.75
798.9448	219.0915	65535	64836.1
799.0871	221.3205	65535	64832.2
799.2294	223.549	65535	64835.05
799.3718	225.777	65535	64834.95
799.5141	228.0044	65535	64831.15
799.6565	230.2314	65535	64835.8
799.7989	232.4578	65535	64830.4
799.9413	234.6837	65535	64821.35
800.0837	236.909	65535	64820.65
800.2262	239.1339	65535	64799.8
800.3687	241.3582	65535	64809.25
800.5111	243.582	65535	64783.8
800.6536	245.8053	65535	64795.95
800.7961	248.0281	65535	64801.75
800.9387	250.2503	65535	64798.25
801.0812	252.472	65535	64789.55
801.2238	254.6932	65535	64787.55
801.3664	256.9139	65535	64786.95
801.509	259.134	65535	64785.05
801.6516	261.3536	65535	64787.35
801.7942	263.5727	65535	64785.15
801.9369	265.7912	65535	64785.6
802.0795	268.0092	65535	64786.35
802.2222	270.2267	65535	64787.8
802.3649	272.4436	65535	64783.9
802.5076	274.6601	65535	64772.6
802.6504	276.8759	65535	64781.45
802.7931	279.0913	65535	64775
802.9359	281.3061	65535	64776.7
803.0787	283.5204	65535	64771.8
803.2215	285.7341	65535	64771.15
803.3643	287.9473	65535	64758.65
803.5071	290.16	65535	64763
803.6499	292.3721	65535	64771.35
803.7928	294.5837	65535	64769.8
803.9357	296.7947	65535	64769.95
804.0786	299.0052	65535	64770.75
804.2215	301.2152	65535	64762.55
804.3644	303.4246	65535	64770.25
804.5074	305.6334	65535	64769.2
804.6503	307.8418	65535	64765
804.7933	310.0495	65535	64764.5
804.9363	312.2568	65535	64764.15
805.0793	314.4635	65535	64763.2
805.2223	316.6696	65535	64761
805.3653	318.8752	65535	64750.8
805.5084	321.0802	65535	64757.15
805.6514	323.2847	65535	64757.6
805.7945	325.4887	65535	64757
805.9376	327.692	65535	64754.85
806.0807	329.8949	65535	64753.4
806.2238	332.0972	65535	64752.05
806.367	334.2989	65535	64745.6
806.5101	336.5001	65535	64752.8
806.6533	338.7007	65535	64748.45
806.7965	340.9008	65535	64748.55
806.9397	343.1003	65535	64746.05
807.0829	345.2992	65535	64740.9
807.2261	347.4976	65535	64741.7
807.3693	349.6955	65535	64739.4
807.5126	351.8927	65535	64737.3
807.6559	354.0895	65535	64725.9
807.7991	356.2856	65535	64738.5
807.9424	358.4812	65535	64739.15
808.0857	360.6763	65535	64736.8
808.2291	362.8707	65535	64733.55
808.3724	365.0646	65535	64733.6
808.5158	367.258	65535	64729.15
808.6591	369.4508	65535	64725.5
808.8025	371.643	65535	64725.05
808.9459	373.8346	65535	64723.85
809.0893	376.0257	65535	64722.5
809.2327	378.2162	65535	64722.5
809.3762	380.4062	65535	64716.35
809.5196	382.5956	65535	64716.15
809.6631	384.7844	65535	64721.4
809.8066	386.9726	65535	64717.2
809.9501	389.1603	65535	64723.8
810.0936	391.3474	65535	64681.8
810.2371	393.5339	65535	64720.7
810.3806	395.7199	65535	64728.95
810.5241	397.9052	65535	64729.8
810.6677	400.09	65535	64729.05
810.8113	402.2743	65535	64728.9
810.9548	404.4579	65535	64726
811.0984	406.641	65535	64726.85
811.2421	408.8235	65535	64725.05
811.3857	411.0054	65535	64721.2
811.5293	413.1868	65535	64719.9
811.673	415.3675	65535	64722.5
811.8166	417.5477	65535	64718.1
811.9603	419.7273	65535	64714.4
812.104	421.9064	65535	64704.8
812.2477	424.0848	65535	64710.4
812.3914	426.2627	65535	64711.6
812.5351	428.4399	65535	64707.65
812.6788	430.6166	65535	64709.05
812.8226	432.7928	65535	64705.1
812.9663	434.9683	65535	64704.9
813.1101	437.1432	65535	64700.95
813.2539	439.3176	65535	64701.85
813.3977	441.4914	65535	64703.1
813.5415	443.6645	65535	64700.25
813.6853	445.8371	65535	64701.85
813.8291	448.0091	65535	64704.7
813.973	450.1806	65535	64701
814.1168	452.3514	65535	64697.1
814.2607	454.5216	65535	64692.95
814.4046	456.6913	65535	64698.15
814.5485	458.8603	65535	64698
814.6924	461.0288	65535	64699
814.8363	463.1967	65535	64698.85
814.9802	465.3639	65535	64696.75
815.1241	467.5306	65535	64698.2
815.2681	469.6967	65535	64695.4
815.412	471.8622	65535	64696.1
815.556	474.0271	65535	64697.9
815.7	476.1914	65535	64693.7
815.844	478.3551	65535	64696.65
815.988	480.5182	65535	64697.35
816.132	482.6807	65535	64695.55
816.276	484.8426	65535	64697
816.4201	487.0039	65535	64693.35
816.5641	489.1647	65535	64691
816.7082	491.3248	65535	64691.65
816.8522	493.4843	65535	64690.5
816.9963	495.6432	65535	64695.05
817.1404	497.8015	65535	64687.55
817.2845	499.9592	65535	64689.4
817.4286	502.1163	65535	64689.55
817.5727	504.2728	65535	64687.15
817.7168	506.4287	65535	64694.15
817.861	508.5839	65535	64691.6
818.0051	510.7386	65535	64689.8
818.1493	512.8927	65535	64685.85
818.2935	515.0461	65535	64685.55
818.4377	517.199	65535	64686.55
818.5818	519.3512	65535	64685.45
818.726	521.5029	65535	64677.85
818.8703	523.6539	65535	64687.2
819.0145	525.8043	65535	64683.05
819.1587	527.9541	65535	64680.95
819.303	530.1033	65535	64684.9
819.4472	532.2519	65535	64680.8
819.5915	534.3999	65535	64678.75
819.7357	536.5472	65535	64679.75
819.88	538.694	65535	64680.35
820.0243	540.8401	65535	64680.9
820.1686	542.9856	65535	64679.85
820.3129	545.1305	65535	64678.55
820.4572	547.2748	65535	64676.6
820.6016	549.4185	65535	64671.6
820.7459	551.5615	65535	64673.6
820.8902	553.704	65535	64671.65
821.0346	555.8458	65535	64676.35
821.1789	557.987	65535	64674.6
821.3233	560.1276	65535	64675
821.4677	562.2675	65535	64677.15
821.6121	564.4069	65535	64676.5
821.7565	566.5456	65535	64679.6
821.9009	568.6837	65535	64676.8
822.0453	570.8212	65535	64675.35
822.1897	572.958	65535	64674.75
822.3342	575.0942	65535	64677.4
822.4786	577.2299	65535	64677.45
822.6231	579.3648	65535	64676.3
822.7675	581.4992	65535	64680.6
822.912	583.6329	65535	64677.2
823.0565	585.766	65535	64675.75
823.201	587.8985	65535	64678.7
823.3454	590.0304	65535	64651.35
823.4899	592.1616	65535	64671.85
823.6345	594.2922	65535	64674.1
823.779	596.4222	65535	64671.35
823.9235	598.5515	65535	64670.65
824.068	600.6802	65535	64671.95
824.2126	602.8083	65535	64670.95
824.3571	604.9358	65535	64669.55
824.5017	607.0626	65535	64668.85
824.6462	609.1888	65535	64669.3
824.7908	611.3144	65535	64668.95
824.9354	613.4393	65535	64668.6
825.08	615.5636	65535	64668.55
825.2246	617.6873	65535	64670.8
825.3692	619.8103	65535	64667.65
825.5138	621.9327	65535	64666.6
825.6584	624.0544	65535	64667.5
825.803	626.1756	65535	64668.9
825.9477	628.2961	65535	64665.8
826.0923	630.4159	65535	64666.85
826.237	632.5351	65535	64667.55
826.3816	634.6537	65535	64663.45
826.5263	636.7716	65535	64663.25
826.6709	638.8889	65535	64662.9
826.8156	641.0056	65535	64663.05
826.9603	643.1216	65535	64664.75
827.105	645.237	65535	64659.95
827.2497	647.3518	65535	64664.1
827.3944	649.4659	65535	64662.65
827.5391	651.5793	65535	64663.8
827.6838	653.6922	65535	64664.6
827.8285	655.8043	65535	64665.05
827.9733	657.9159	65535	64661.55
828.118	660.0268	65535	64658.85
828.2627	662.137	65535	64660.85
828.4075	664.2466	65535	64662.05
828.5522	666.3556	65535	64661.3
828.697	668.4639	65535	64658.05
828.8418	670.5716	65535	64658.8
828.9865	672.6786	65535	64662.35
829.1313	674.785	65535	64661.05
829.2761	676.8907	65535	64658.45
829.4209	678.9958	65535	64663.6
829.5657	681.1002	65535	64655.7
829.7105	683.204	65535	64654.75
829.8553	685.3072	65535	64656.35
830.0001	687.4097	65535	64658.4
830.1449	689.5115	65535	64653.3
830.2898	691.6127	65535	64659.35
830.4346	693.7132	65535	64654.85
830.5794	695.8131	65535	64648.95
830.7243	697.9123	65535	64652.85
830.8691	700.0109	65535	64652.85
831.014	702.1089	65535	64657.95
831.1588	704.2061	65535	64656.55
831.3037	706.3028	65535	64652.45
831.4486	708.3987	65535	64660.85
831.5935	710.4941	65535	64657.65
831.7383	712.5887	65535	64656.65
831.8832	714.6827	65535	64650.1
832.0281	716.7761	65535	64653.8
832.173	718.8688	65535	64653.9
832.3179	720.9608	65535	64650.15
832.4628	723.0522	65535	64652.2
832.6077	725.1429	65535	64651.9
832.7527	727.233	65535	64653.2
832.8976	729.3224	65535	64652.35
833.0425	731.4112	65535	64650.25
833.1874	733.4993	65535	64648.15
833.3324	735.5867	65535	64648.5
833.4773	737.6735	65535	64650.5
833.6222	739.7596	65535	64649.4
833.7672	741.845	65535	64651.3
833.9122	743.9298	65535	64649.75
834.0571	746.014	65535	64651.3
834.2021	748.0974	65535	64649.3
834.347	750.1802	65535	64647.8
834.492	752.2624	65535	64650.7
834.637	754.3439	65535	64647.65
834.782	756.4247	65535	64642.8
834.9269	758.5048	65535	64653.4
835.0719	760.5843	65535	64648.8
835.2169	762.6631	65535	64648.75
835.3619	764.7413	65535	64651.65
835.5069	766.8188	65535	64647.85
835.6519	768.8956	65535	64646.25
835.7969	770.9718	65535	64649.1
835.9419	773.0473	65535	64648.25
836.0869	775.1221	65535	64651.45
836.232	777.1962	65535	64649.45
836.377	779.2697	65535	64647.75
836.522	781.3426	65535	64628.2
836.667	783.4147	65535	64646.95
836.8121	785.4862	65535	64647.65
836.9571	787.557	65535	64646.8
837.1021	789.6271	65535	64648.75
837.2472	791.6966	65535	64649.35
837.3922	793.7654	65535	64645.85
837.5373	795.8335	65535	64646.55
837.6823	797.901	65535	64646.25
837.8274	799.9678	65535	64644.9
837.9724	802.0339	65535	64648.35
838.1175	804.0993	65535	64636.65
838.2626	806.1641	65535	64645.95
838.4076	808.2282	65535	64645.9
838.5527	810.2916	65535	64643.8
838.6978	812.3544	65535	64648.4
838.8428	814.4164	65535	64648.05
838.9879	816.4778	65535	64645.7
839.133	818.5385	65535	64646.15
839.2781	820.5986	65535	64647.35
839.4232	822.658	65535	64644.4
839.5682	824.7166	65535	64646.2
839.7133	826.7747	65535	64647.05
839.8584	828.832	65535	64646.4
840.0035	830.8886	65535	64646.35
840.1486	832.9446	65535	64644.25
840.2937	834.9999	65535	64646.3
840.4388	837.0545	65535	64643.95
840.5839	839.1085	65535	64644.55
840.729	841.1618	65535	64640.65
840.8741	843.2143	65535	64645.1
841.0192	845.2662	65535	64644.75
841.1643	847.3175	65535	64646.9
841.3095	849.368	65535	64645.4
841.4546	851.4179	65535	64643.7
841.5997	853.467	65535	64643.2
841.7448	855.5155	65535	64642.45
841.8899	857.5633	65535	64645.8
842.0351	859.6105	65535	64644.1
842.1802	861.6569	65535	64644.35
842.3253	863.7027	65535	64644.05
842.4704	865.7478	65535	64643.95
842.6156	867.7922	65535	64644.7
842.7607	869.8359	65535	64643.15
842.9058	871.8789	65535	64641.9
843.0509	873.9212	65535	64610.5
843.1961	875.9629	65535	64642.55
843.3412	878.0039	65535	64642.75
843.4863	880.0441	65535	64644.1
843.6315	882.0837	65535	64642.7
843.7766	884.1226	65535	64641.05
843.9218	886.1609	65535	64641.5
844.0669	888.1984	65535	64642.4
844.212	890.2352	65535	64643.8
844.3572	892.2714	65535	64639.8
844.5023	894.3069	65535	64641.4
844.6475	896.3416	65535	64644.05
844.7926	898.3757	65535	64641.95
844.9377	900.4091	65535	64640.25
845.0829	902.4418	65535	64638.25
845.228	904.4739	65535	64637.45
845.3732	906.5052	65535	64641.75
845.5183	908.5358	65535	64641.55
845.6635	910.5658	65535	64639.35
845.8086	912.595	65535	64641.95
845.9538	914.6236	65535	64641.25
846.0989	916.6515	65535	64641.65
846.2441	918.6786	65535	64638.65
846.3892	920.7051	65535	64639.35
846.5344	922.7309	65535	64639.25
846.6795	924.756	65535	64639.75
846.8246	926.7804	65535	64639.95
846.9698	928.8041	65535	64640.65
847.1149	930.8272	65535	64643.2
847.2601	932.8495	65535	64638.5
847.4052	934.8711	65535	64638.75
847.5504	936.892	65535	64638.15
847.6955	938.9123	65535	64635.85
847.8407	940.9318	65535	64640.35
847.9858	942.9506	65535	64639.85
848.131	944.9688	65535	64640.8
848.2761	946.9862	65535	64642.95
848.4213	949.003	65535	64639.9
848.5664	951.019	65535	64638.9
848.7115	953.0344	65535	64640.85
848.8567	955.0491	65535	64638
849.0018	957.063	65535	64639.8
849.147	959.0763	65535	64639.35
849.2921	961.0888	65535	64636.8
849.4373	963.1007	65535	64641.3
849.5824	965.1119	65535	64640.2
849.7275	967.1223	65535	64644.1
849.8727	969.1321	65535	64639.7
850.0178	971.1412	65535	64639.75
850.1629	973.1495	65535	64639.95
850.3081	975.1572	65535	64605.85
850.4532	977.1641	65535	64639
850.5983	979.1704	65535	64638.85
850.7435	981.1759	65535	64639
850.8886	983.1808	65535	64639.6
851.0337	985.1849	65535	64629.3
851.1788	987.1884	65535	64636.3
851.324	989.1911	65535	64635.6
851.4691	991.1932	65535	64637.75
851.6142	993.1945	65535	64639.95
851.7593	995.1951	65535	64635.9
851.9045	997.1951	65535	64635.35
852.0496	999.1943	65535	64640.6
852.1947	1001.1928	65535	64639.45
852.3398	1003.1906	65535	64640.35
852.4849	1005.1877	65535	64637.15
852.63	1007.1841	65535	64640.3
852.7751	1009.1798	65535	64638.25
852.9202	1011.1748	65535	64639.35
853.0653	1013.1691	65535	64638.45
853.2104	1015.1627	65535	64639.1
853.3555	1017.1556	65535	64639.85
853.5006	1019.1477	65535	64638.4
853.6457	1021.1392	65535	64640.3
853.7908	1023.1299	65535	64641.5
853.9359	1025.12	65535	64637.55
854.081	1027.1093	65535	64638.9
854.2261	1029.0979	65535	64641.8
854.3712	1031.0859	65535	64640.4
854.5163	1033.0731	65535	64639
854.6613	1035.0596	65535	64640.05
854.8064	1037.0454	65535	64639.05
854.9515	1039.0304	65535	64637.65
855.0965	1041.0148	65535	64638.4
855.2416	1042.9985	65535	64637.1
855.3867	1044.9814	65535	64637.45
855.5317	1046.9636	65535	64638
855.6768	1048.9452	65535	64639.4
855.8219	1050.926	65535	64639.15
855.9669	1052.9061	65535	64641.3
856.112	1054.8855	65535	64639.95
856.257	1056.8642	65535	64640.45
856.4021	1058.8421	65535	64634.95
856.5471	1060.8194	65535	64636.75
856.6921	1062.7959	65535	64639.35
856.8372	1064.7717	65535	64638.45
856.9822	1066.7469	65535	64635.9
857.1272	1068.7213	65535	64635.25
857.2723	1070.695	65535	64638.5
857.4173	1072.6679	65535	64637.8
857.5623	1074.6402	65535	64635.75
857.7073	1076.6117	65535	64634.45
857.8523	1078.5826	65535	64636.45
857.9973	1080.5527	65535	64635.95
858.1423	1082.5221	65535	64638.4
858.2873	1084.4908	65535	64636.75
858.4323	1086.4587	65535	64639.15
858.5773	1088.426	65535	64634.85
858.7223	1090.3925	65535	64633.3
858.8673	1092.3584	65535	64636.25
859.0123	1094.3235	65535	64638.05
859.1573	1096.2879	65535	64636.65
859.3022	1098.2515	65535	64637.5
859.4472	1100.2145	65535	64639.75
859.5922	1102.1767	65535	64635.1
859.7371	1104.1382	65535	64636.95
859.8821	1106.099	65535	64635.6
860.027	1108.0591	65535	64637.7
860.172	1110.0185	65535	64636.15
860.3169	1111.9771	65535	64638.45
860.4619	1113.9351	65535	64637.3
860.6068	1115.8923	65535	64637.45
860.7517	1117.8488	65535	64636.4
860.8967	1119.8045	65535	64635.6
861.0416	1121.7596	65535	64639.45
861.1865	1123.7139	65535	64637.9
861.3314	1125.6675	65535	64639.6
861.4763	1127.6204	65535	64637.75
861.6212	1129.5726	65535	64636.2
861.7661	1131.524	65535	64637.15
861.911	1133.4748	65535	64637.65
862.0559	1135.4248	65535	64637.6
862.2008	1137.3741	65535	64637.85
862.3457	1139.3226	65535	64635.5
862.4905	1141.2705	65535	64637.05
862.6354	1143.2176	65535	64630.8
862.7803	1145.164	65535	64633.6
862.9251	1147.1097	65535	64639
863.07	1149.0546	65535	64636.2
863.2148	1150.9989	65535	64636.1
863.3597	1152.9424	65535	64634.35
863.5045	1154.8852	65535	64633.9
863.6493	1156.8272	65535	64638.5
863.7942	1158.7686	65535	64630.3
863.939	1160.7092	65535	64636.8
864.0838	1162.6491	65535	64634.75
864.2286	1164.5883	65535	64639.55
864.3734	1166.5267	65535	64638.5
864.5182	1168.4644	65535	64636.5
864.663	1170.4014	65535	64631.15
864.8078	1172.3377	65535	64638.4
864.9526	1174.2732	65535	64636.3
865.0974	1176.2081	65535	64639.75
865.2421	1178.1421	65535	64633.5
865.3869	1180.0755	65535	64637.05
865.5317	1182.0082	65535	64636.6
865.6764	1183.9401	65535	64635.9
865.8212	1185.8713	65535	64637.7
865.9659	1187.8017	65535	64640.4
866.1106	1189.7315	65535	64638.75
866.2554	1191.6605	65535	64611.5
866.4001	1193.5888	65535	64636.95
866.5448	1195.5163	65535	64637.15
866.6895	1197.4432	65535	64634.55
866.8342	1199.3693	65535	64635.95
866.9789	1201.2947	65535	64635.6
867.1236	1203.2193	65535	64636
867.2683	1205.1432	65535	64636.45
867.413	1207.0664	65535	64636.6
867.5576	1208.9889	65535	64636.25
867.7023	1210.9106	65535	64636.75
867.847	1212.8316	65535	64638.75
867.9916	1214.7519	65535	64627.85
868.1363	1216.6715	65535	64636.4
868.2809	1218.5903	65535	64637.55
868.4255	1220.5084	65535	64637.05
868.5701	1222.4257	65535	64638.15
868.7148	1224.3424	65535	64639.95
868.8594	1226.2583	65535	64634.55
869.004	1228.1735	65535	64634.5
869.1486	1230.0879	65535	64637.2
869.2932	1232.0016	65535	64637.65
869.4377	1233.9146	65535	64636.25
869.5823	1235.8269	65535	64637.8
869.7269	1237.7384	65535	64636.95
869.8715	1239.6492	65535	64637.6
870.016	1241.5592	65535	64635
870.1606	1243.4686	65535	64637.6
870.3051	1245.3772	65535	64636.05
870.4496	1247.285	65535	64634.8
870.5941	1249.1922	65535	64637.5
870.7387	1251.0986	65535	64635.35
870.8832	1253.0042	65535	64636.3
871.0277	1254.9092	65535	64636.9
871.1722	1256.8134	65535	64639.55
871.3167	1258.7169	65535	64634.25
871.4611	1260.6196	65535	64638.7
871.6056	1262.5216	65535	64637.2
871.7501	1264.4229	65535	64635.5
871.8945	1266.3234	65535	64638.35
872.039	1268.2232	65535	64638.2
872.1834	1270.1223	65535	64634.7
872.3278	1272.0207	65535	64635
872.4723	1273.9183	65535	64631.2
872.6167	1275.8151	65535	64638.6
872.7611	1277.7113	65535	64635.95
872.9055	1279.6067	65535	64639.6
873.0499	1281.5014	65535	64635.1
873.1943	1283.3953	65535	64635.6
873.3386	1285.2885	65535	64637
873.483	1287.181	65535	64636.35
873.6274	1289.0727	65535	64639.75
873.7717	1290.9637	65535	64638.85
873.9161	1292.854	65535	64637.15
874.0604	1294.7435	65535	64634.85
874.2047	1296.6323	65535	64635.9
874.349	1298.5204	65535	64630.45
874.4933	1300.4077	65535	64635.7
874.6376	1302.2943	65535	64635.55
874.7819	1304.1802	65535	64639.3
874.9262	1306.0653	65535	64634.45
875.0705	1307.9497	65535	64637.25
875.2147	1309.8333	65535	64637.25
875.359	1311.7162	65535	64635.45
875.5032	1313.5984	65535	64635.2
875.6475	1315.4798	65535	64625.65
875.7917	1317.3605	65535	64620.55
875.9359	1319.2405	65535	64632.15
876.0801	1321.1197	65535	64635.35
876.2243	1322.9982	65535	64631.1
876.3685	1324.876	65535	64637.35
876.5127	1326.753	65535	64635.8
876.6569	1328.6293	65535	64634.2
876.801	1330.5048	65535	64635.8
876.9452	1332.3796	65535	64637.3
877.0893	1334.2537	65535	64611.75
877.2335	1336.127	65535	64635.35
877.3776	1337.9996	65535	64637.95
877.5217	1339.8714	65535	64635.35
877.6658	1341.7426	65535	64590.45
877.8099	1343.6129	65535	64636.2
877.954	1345.4826	65535	64635.5
878.0981	1347.3515	65535	64633.4
878.2422	1349.2196	65535	64635.65
878.3862	1351.087	65535	64636.9
878.5303	1352.9537	65535	64635.35
878.6743	1354.8197	65535	64637.75
878.8184	1356.6849	65535	64634.95
878.9624	1358.5493	65535	64635.55
879.1064	1360.4131	65535	64635.6
879.2504	1362.276	65535	64636.4
879.3944	1364.1383	65535	64636.8
879.5384	1365.9998	65535	64631.8
879.6823	1367.8606	65535	64635.7
879.8263	1369.7206	65535	64636.7
879.9702	1371.5799	65535	64634.5
880.1142	1373.4384	65535	64636.9
880.2581	1375.2962	65535	64634.55
880.402	1377.1533	65535	64637.45
880.5459	1379.0096	65535	64635.1
880.6898	1380.8652	65535	64636.85
880.8337	1382.7201	65535	64637.4
880.9776	1384.5742	65535	64635.65
881.1215	1386.4275	65535	64635.95
881.2653	1388.2802	65535	64636.4
881.4092	1390.132	65535	64636.05
881.553	1391.9832	65535	64635.5
881.6968	1393.8336	65535	64636.9
881.8406	1395.6832	65535	64634.05
881.9844	1397.5322	65535	64636.45
882.1282	1399.3803	65535	64631.1
882.272	1401.2278	65535	64635.75
882.4158	1403.0745	65535	64634.45
882.5595	1404.9204	65535	64639.25
882.7033	1406.7656	65535	64637.95
882.847	1408.6101	65535	64634.3
882.9908	1410.4538	65535	64636.95
883.1345	1412.2968	65535	64638.25
883.2782	1414.139	65535	64635.95
883.4219	1415.9805	65535	64637.65
883.5656	1417.8213	65535	64631.4
883.7092	1419.6613	65535	64638.05
883.8529	1421.5006	65535	64636.35
883.9965	1423.3391	65535	64637.25
884.1402	1425.1769	65535	64636.7
884.2838	1427.0139	65535	64636.65
884.4274	1428.8502	65535	64636.55
884.571	1430.6858	65535	64635.55
884.7146	1432.5206	65535	64635.5
884.8582	1434.3547	65535	64636.35
885.0018	1436.188	65535	64635.75
885.1453	1438.0206	65535	64635.65
885.2889	1439.8524	65535	64637.05
885.4324	1441.6835	65535	64638.2
885.5759	1443.5139	65535	64633.25
885.7194	1445.3435	65535	64635.45
885.8629	1447.1724	65535	64638.45
886.0064	1449.0005	65535	64637.5
886.1499	1450.8279	65535	64634.05
886.2933	1452.6545	65535	64635.35
886.4368	1454.4804	65535	64637.8
886.5802	1456.3056	65535	64629.05
886.7237	1458.13	65535	64638.1
886.8671	1459.9536	65535	64635.9
887.0105	1461.7766	65535	64637
887.1539	1463.5987	65535	64637.6
887.2972	1465.4202	65535	64635.3
887.4406	1467.2409	65535	64636.45
887.584	1469.0608	65535	64637.65
887.7273	1470.88	65535	64637.15
887.8706	1472.6984	65535	64637.3
888.0139	1474.5161	65535	64633.35
888.1572	1476.3331	65535	64636.8
888.3005	1478.1493	65535	64635.45
888.4438	1479.9648	65535	64639.15
888.5871	1481.7795	65535	64638.8
888.7303	1483.5935	65535	64639.35
888.8736	1485.4067	65535	64638.4
889.0168	1487.2192	65535	64634.6
889.16	1489.031	65535	64636.55
889.3032	1490.842	65535	64636.9
889.4464	1492.6522	65535	64639.35
889.5896	1494.4618	65535	64637.35
889.7327	1496.2705	65535	64636.55
889.8759	1498.0785	65535	64636.45
890.019	1499.8858	65535	64634.5
890.1622	1501.6924	65535	64639.05
890.3053	1503.4981	65535	64638
890.4484	1505.3032	65535	64636.8
890.5914	1507.1075	65535	64637.65
890.7345	1508.911	65535	64637.95
890.8776	1510.7138	65535	64636.3
891.0206	1512.5159	65535	64638.75
891.1637	1514.3172	65535	64637.2
891.3067	1516.1178	65535	64635.1
891.4497	1517.9176	65535	64634
891.5927	1519.7166	65535	64639.2
891.7357	1521.515	65535	64633.7
891.8786	1523.3126	65535	64636.1
892.0216	1525.1094	65535	64634.8
892.1645	1526.9055	65535	64638.65
892.3074	1528.7008	65535	64637.8
892.4503	1530.4954	65532.95	64630.5
892.5932	1532.2893	65535	64637.8
892.7361	1534.0824	65534.35	64632.45
892.879	1535.8747	65516.85	64618.05
893.0218	1537.6663	65535	64636.5
893.1647	1539.4572	65435.7	64537.6
893.3075	1541.2473	65499.15	64602.85
893.4503	1543.0367	65497.1	64599.8
893.5931	1544.8253	65483.4	64581.4
893.7359	1546.6132	65497.55	64599.7
893.8787	1548.4003	65456.7	64548.55
894.0214	1550.1867	65412.2	64505.35
894.1642	1551.9723	65370.95	64470.4
894.3069	1553.7572	65399.65	64503.9
894.4496	1555.5414	65455.55	64559.25
894.5923	1557.3247	64893.3	63995.75
894.735	1559.1074	65404.6	64507.5
894.8777	1560.8893	65213.6	64319.1
895.0204	1562.6705	65299.3	64401.25
895.163	1564.4509	64938.65	64043
895.3056	1566.2305	65123.85	64229.05
895.4482	1568.0094	65306.85	64411.95
895.5908	1569.7876	65157.4	64262.05
895.7334	1571.565	64907.65	64011.95
895.876	1573.3417	65070.8	64175.75
896.0186	1575.1176	65003.8	64107.95
896.1611	1576.8928	64872.35	63976.55
896.3036	1578.6672	64523.9	63627.55
896.4461	1580.4409	64759.7	63865.1
896.5886	1582.2138	64143.05	63245.55
896.7311	1583.986	64301.3	63403.8
896.8736	1585.7575	63657.9	62764.5
897.0161	1587.5282	63845.75	62951.85
897.1585	1589.2981	63879.35	62985.8
897.3009	1591.0673	63196.85	62301.65
897.4433	1592.8358	62729.6	61836.35
897.5857	1594.6035	63243.15	62345.6
897.7281	1596.3704	63313.6	62416.8
897.8705	1598.1366	62325.2	61429.85
898.0128	1599.9021	61848.8	60954.1
898.1551	1601.6668	62541.1	61644.45
898.2975	1603.4308	62157.2	61259.75
898.4398	1605.194	62340.85	61440.65
898.5821	1606.9564	61247.75	60350.85
898.7243	1608.7182	61829.35	60932.3
898.8666	1610.4791	61255.75	60362.35
899.0088	1612.2394	61753.75	60860.85
899.1511	1613.9988	61137.35	60243.25
899.2933	1615.7576	61891.25	60999.55
899.4355	1617.5156	61865.15	60963.15
899.5776	1619.2728	62655.5	61760.7
899.7198	1621.0293	61388.35	60495.35
899.862	1622.785	61434.4	60536.55
900.0041	1624.54	61857.35	60958.7
900.1462	1626.2942	61162.9	60267.35
900.2883	1628.0477	60167.35	59269.6
900.4304	1629.8005	59496.7	58598.85
900.5725	1631.5525	60016.45	59123.9
900.7145	1633.3037	58860.05	57962.9
900.8566	1635.0542	58864.05	57970.05
900.9986	1636.804	59133.45	58237.7
901.1406	1638.553	58254.6	57251.2
901.2826	1640.3013	58434.3	57538.9
901.4245	1642.0488	57725.55	56830.55
901.5665	1643.7955	58056.65	57164.4
901.7085	1645.5416	57621.9	56727.35
901.8504	1647.2868	57281.95	56388.3
901.9923	1649.0313	57884.5	56988.9
902.1342	1650.7751	57506.4	56607.95
902.2761	1652.5181	57200.35	56305.85
902.4179	1654.2604	57294.75	56400
902.5598	1656.0019	57725.3	56830.65
902.7016	1657.7427	57481.6	56587.7
902.8434	1659.4828	58049	57153.45
902.9852	1661.222	57768.15	56870.25
903.127	1662.9606	58069.55	57174.1
903.2687	1664.6984	57465.35	56567.65
903.4105	1666.4354	57408.3	56514.5
903.5522	1668.1717	56376.35	55481.45
903.6939	1669.9072	55685.8	54790.4
903.8356	1671.642	55317.6	54421
903.9773	1673.3761	54914.85	54021.6
904.119	1675.1094	54656.1	53762.2
904.2606	1676.8419	54134.5	53240.25
904.4022	1678.5737	53864.15	52969.95
904.5439	1680.3048	53636.95	52744.75
904.6855	1682.0351	53318.95	52425.45
904.827	1683.7646	52979.15	52082.85
904.9686	1685.4934	52942.15	52048.1
905.1101	1687.2215	52257.85	51362.3
905.2517	1688.9488	52487.7	51593.7
905.3932	1690.6754	51587.3	50693.35
905.5347	1692.4012	51788.3	50894.85
905.6761	1694.1263	51701	50809.5
905.8176	1695.8506	51434.7	50541.85
905.9591	1697.5742	51223	50330.3
906.1005	1699.297	51023.25	50128.9
906.2419	1701.0191	50740.55	49849.1
906.3833	1702.7404	50492.55	49598.9
906.5246	1704.461	50180.75	49285.05
906.666	1706.1808	50012.2	49117.75
906.8073	1707.8999	49974.25	49078.7
906.9487	1709.6182	49770.45	48874.95
907.09	1711.3358	49579.1	48685.8
907.2313	1713.0527	49364.4	48473.05
907.3725	1714.7688	49248.35	48348.65
907.5138	1716.4841	48896.2	48000.05
907.655	1718.1987	48884.65	47986.95
907.7962	1719.9126	48657.75	47765
907.9374	1721.6257	48478.7	47582.85
908.0786	1723.338	48460.85	47567.4
908.2198	1725.0496	48055.6	47162.1
908.3609	1726.7605	47907.85	47013.5
908.502	1728.4706	47790.8	46898.5
908.6431	1730.18	47479.35	46581.7
908.7842	1731.8886	47422.95	46529.9
908.9253	1733.5964	47255.7	46342.4
909.0664	1735.3036	47113.9	46218.35
909.2074	1737.0099	46975.8	46084.65
909.3484	1738.7156	46847.2	45956.6
909.4894	1740.4204	46599.7	45702.6
909.6304	1742.1246	46488.65	45593.55
909.7714	1743.8279	46377.2	45483.75
909.9123	1745.5306	46220.15	45326.75
910.0532	1747.2325	46001.65	45107.05
910.1941	1748.9336	45909	45018.6
910.335	1750.634	45669.05	44775.6
910.4759	1752.3336	45550.6	44656.85
910.6168	1754.0325	45490.15	44597.75
910.7576	1755.7307	45412.55	44521.1
910.8984	1757.4281	45334.4	44441.85
911.0392	1759.1247	45187.35	44286.75
911.18	1760.8206	45047.4	44149.8
911.3208	1762.5158	44943.95	44047.95
911.4615	1764.2102	44729.05	43836
911.6022	1765.9039	44588.75	43694.25
911.7429	1767.5968	44460.2	43566.85
911.8836	1769.289	44279.7	43385.8
912.0243	1770.9804	44211.25	43318.75
912.1649	1772.6711	44147.25	43253.95
912.3056	1774.361	43953.25	43060.55
912.4462	1776.0502	43872.25	42981.55
912.5868	1777.7386	43721.6	42828.5
912.7274	1779.4263	43584.9	42691.95
912.8679	1781.1132	43527.7	42634.9
913.0084	1782.7994	43363.5	42467.75
913.149	1784.4849	43276.75	42385.55
913.2895	1786.1696	43097.15	42201.55
913.4299	1787.8535	42976.35	42084.15
913.5704	1789.5367	42778.7	41887.1
913.7108	1791.2192	42751.25	41859.3
913.8513	1792.9009	42511.65	41587.6
913.9917	1794.5818	42444	41550.65
914.132	1796.2621	42346.3	41455.35
914.2724	1797.9415	42213.9	41321.4
914.4128	1799.6202	42005.7	41113.4
914.5531	1801.2982	41932.55	41039.9
914.6934	1802.9755	41828.3	40935
914.8337	1804.6519	41845.6	40953.6
914.9739	1806.3277	41575.75	40683.3
915.1142	1808.0027	41323.5	40430.5
915.2544	1809.6769	41270.4	40376.4
915.3946	1811.3504	41146.25	40252.95
915.5348	1813.0231	41004.95	40113
915.675	1814.6951	40962.1	40071.1
915.8151	1816.3664	40890.75	39996.9
915.9553	1818.0369	40810.1	39918.25
916.0954	1819.7067	40670.85	39780.1
916.2355	1821.3757	40606.5	39712.25
916.3755	1823.044	40489.1	39596.85
916.5156	1824.7115	40323.85	39432.1
916.6556	1826.3783	40154.5	39263.3
916.7956	1828.0443	40029.8	39140.3
916.9356	1829.7096	39925.95	39033.55
917.0756	1831.3741	39884.3	38987.8
917.2155	1833.0379	39772.35	38880.2
917.3555	1834.701	39653.9	38757.5
917.4954	1836.3633	39560.5	38668.65
917.6353	1838.0248	39411.95	38519.9
917.7751	1839.6856	39275	38382.4
917.915	1841.3457	39287.6	38396.25
918.0548	1843.005	39129.85	38238.4
918.1946	1844.6636	39030.35	38140.45
918.3344	1846.3214	38855.45	37963.75
918.4742	1847.9785	38805.6	37914.25
918.6139	1849.6349	38715.05	37822
918.7537	1851.2904	38651.65	37749.6
918.8934	1852.9453	38424.85	37531.65
919.0331	1854.5994	38341.2	37447.55
919.1727	1856.2528	38379.3	37481.8
919.3124	1857.9054	38211.55	37318.95
919.452	1859.5572	38178.2	37286.9
919.5916	1861.2083	38050.7	37157.9
919.7312	1862.8587	37997.45	37104.45
919.8708	1864.5084	37855.15	36961.4
920.0103	1866.1572	37691.75	36802.95
920.1498	1867.8054	37582.4	36689.85
920.2893	1869.4528	37542.75	36651.65
920.4288	1871.0994	37444.55	36550.2
920.5683	1872.7453	37338.75	36446.95
920.7077	1874.3905	37173.55	36273.55
920.8471	1876.0349	37049.8	36158.05
920.9865	1877.6786	37066.55	36171.6
921.1259	1879.3215	37060.5	36169.45
921.2653	1880.9637	36854.85	35959.6
921.4046	1882.6051	36769.55	35876.75
921.5439	1884.2458	36664.05	35769.1
921.6832	1885.8858	36496.55	35604.6
921.8225	1887.525	36441.5	35549.75
921.9617	1889.1634	36241.95	35351.6
922.101	1890.8011	36098.15	35207.45
922.2402	1892.4381	36007.65	35115.3
922.3794	1894.0743	36021.1	35129.85
922.5185	1895.7098	35876.5	34984.05
922.6577	1897.3446	35814.8	34920.35
922.7968	1898.9786	35669.2	34773.85
922.9359	1900.6118	35573.85	34681.1
923.075	1902.2443	35415.5	34520.4
923.214	1903.8761	35346.2	34453.1
923.3531	1905.5071	35101.8	34208.9
923.4921	1907.1374	35013.35	34118.95
923.6311	1908.7669	34922.25	34029.8
923.77	1910.3957	34889.95	33996.1
923.909	1912.0237	34622.8	33730.4
924.0479	1913.651	34549.75	33655.8
924.1868	1915.2776	34427.1	33536.4
924.3257	1916.9034	34304.95	33413.25
924.4646	1918.5285	34144	33254.8
924.6034	1920.1528	33960.55	33069.2
924.7422	1921.7764	33917.3	33027.05
924.881	1923.3992	33758.2	32868.8
925.0198	1925.0213	33512.8	32620.25
925.1586	1926.6427	33392.35	32501.45
925.2973	1928.2633	33412.65	32412.45
925.436	1929.8832	33181.3	32287.75
925.5747	1931.5023	33031.7	32140.6
925.7134	1933.1207	32990.15	32098
925.852	1934.7383	32882.05	31989.45
925.9906	1936.3552	32761.5	31869.5
926.1292	1937.9714	32662.75	31770.65
926.2678	1939.5868	32485.1	31590.15
926.4064	1941.2015	32368.7	31476.3
926.5449	1942.8154	32241.45	31348.45
926.6834	1944.4286	32050.45	31158.05
926.8219	1946.041	31949.15	31035.9
926.9604	1947.6528	31764.35	30867.95
927.0988	1949.2637	31665.75	30775
927.2372	1950.8739	31586.2	30692.1
927.3756	1952.4834	31484.75	30592.5
927.514	1954.0921	31423.65	30531.35
927.6523	1955.7001	31237.35	30341.7
927.7907	1957.3074	31135.45	30243.85
927.929	1958.9139	31004.2	30112.4
928.0673	1960.5197	30920.15	30027.85
928.2055	1962.1247	30758.3	29867.4
928.3438	1963.729	30641.2	29752.75
928.482	1965.3325	30492.75	29578.75
928.6202	1966.9353	30361.6	29468.9
928.7584	1968.5374	30320.6	29429.9
928.8965	1970.1387	30183	29291.6
929.0346	1971.7393	30050.8	29158.9
929.1727	1973.3392	29971.95	29079
929.3108	1974.9383	29866.95	28975.45
929.4489	1976.5366	29694.5	28802.3
929.5869	1978.1342	29702.6	28810.8
929.7249	1979.7311	29581.45	28689.3
929.8629	1981.3273	29521.9	28629.35
930.0009	1982.9227	29406.9	28513.2
930.1388	1984.5173	29231.4	28340.7
930.2767	1986.1112	29144.2	28253.7
930.4146	1987.7044	29059.6	28169.2
930.5525	1989.2968	28945.85	28053
930.6904	1990.8885	28868.75	27974.45
930.8282	1992.4795	28770.5	27878.1
930.966	1994.0697	28617.75	27724.8
931.1038	1995.6592	28547.2	27657.85
931.2415	1997.2479	28451.85	27560.35
931.3793	1998.8359	28342.2	27450.1
931.517	2000.4232	28213.4	27323.1
931.6547	2002.0097	28116.15	27224.9
931.7923	2003.5955	27965.4	27073.9
931.93	2005.1805	27946.7	27054
932.0676	2006.7648	27844.95	26953.65
932.2052	2008.3484	27744.1	26852.5
932.3427	2009.9312	27777.85	26882.9
932.4803	2011.5133	27616.6	26726.75
932.6178	2013.0946	27550.9	26658.7
932.7553	2014.6752	27460.3	26570.25
932.8928	2016.2551	27401.55	26510.2
933.0302	2017.8342	27231.15	26341.6
933.1676	2019.4126	27105.4	26214.4
933.305	2020.9902	26984.35	26093.95
933.4424	2022.5672	26932.3	26039.7
933.5798	2024.1433	26878	25980.2
933.7171	2025.7188	26792.95	25904.1
933.8544	2027.2935	26732.8	25842.4
933.9917	2028.8674	26557.5	25666.05
934.129	2030.4406	26466	25576.35
934.2662	2032.0131	26365.8	25475.85
934.4034	2033.5849	26302.1	25402.15
934.5406	2035.1559	26227.55	25336.4
934.6778	2036.7261	26164.65	25272.15
934.8149	2038.2957	26076.85	25187.3
934.952	2039.8645	26010.7	25120.7
935.0891	2041.4325	26000.6	25104.65
935.2262	2042.9998	25842.2	24951.15
935.3632	2044.5664	25774.85	24882.5
935.5002	2046.1323	25684.6	24794.6
935.6372	2047.6974	25615.75	24724.2
935.7742	2049.2617	25510.5	24620.05
935.9111	2050.8254	25518.65	24606.1
936.048	2052.3883	25478.2	24586.35
936.1849	2053.9504	25343	24450.55
936.3218	2055.5118	25246.3	24354.6
936.4586	2057.0725	25121.75	24228.15
936.5955	2058.6325	25084.35	24191.7
936.7323	2060.1917	24982.2	24090.25
936.869	2061.7502	24933.25	24037.9
937.0058	2063.3079	24805.05	23914.85
937.1425	2064.8649	24745.65	23849.35
937.2792	2066.4212	24677.15	23785.15
937.4159	2067.9767	24591.95	23702.9
937.5525	2069.5315	24449.9	23559.5
937.6891	2071.0856	24353.6	23463.05
937.8257	2072.6389	24233.35	23341.55
937.9623	2074.1915	24143.85	23254.9
938.0989	2075.7433	24025.85	23131.95
938.2354	2077.2945	23979.65	23088.5
938.3719	2078.8448	23864.65	22974.5
938.5084	2080.3945	23808.1	22916.5
938.6448	2081.9434	23779	22888.1
938.7812	2083.4916	23689.25	22796.3
938.9176	2085.039	23588.2	22692.8
939.054	2086.5857	23542.6	22649.2
939.1903	2088.1317	23445.05	22552.2
939.3267	2089.677	23367.1	22475.65
939.463	2091.2215	23294	22403
939.5992	2092.7652	23222.55	22330.45
939.7355	2094.3083	23157.85	22266.3
939.8717	2095.8506	23107.6	22217.45
940.0079	2097.3921	23085	22195.05
940.1441	2098.933	22989.3	22097.2
940.2802	2100.4731	22950.25	22059.2
940.4163	2102.0124	22889.25	21990.4
940.5524	2103.5511	22806.2	21913.15
940.6885	2105.089	22731.75	21841.15
940.8245	2106.6261	22679.45	21788.6
940.9606	2108.1626	22582.6	21690.15
941.0965	2109.6983	22577.35	21657.7
941.2325	2111.2332	22494.55	21601.95
941.3684	2112.7675	22414.65	21522.5
941.5044	2114.301	22332.55	21439.3
941.6403	2115.8337	22272.9	21379.25
941.7761	2117.3657	22188.6	21297.1
941.912	2118.897	22169.1	21275.85
942.0478	2120.4276	22087.6	21187.55
942.1835	2121.9575	21994.55	21101.8
942.3193	2123.4866	21964.8	21060.05
942.455	2125.0149	21864.8	20972.4
942.5907	2126.5426	21759.05	20867.55
942.7264	2128.0695	21715.9	20821
942.8621	2129.5956	21654.2	20764.95
942.9977	2131.1211	21625.6	20728.5
943.1333	2132.6458	21513.55	20624.65
943.2689	2134.1698	21483.95	20591.85
943.4044	2135.693	21402.8	20509.95
943.54	2137.2155	21383.35	20490.25
943.6755	2138.7373	21302.05	20409.2
943.8109	2140.2584	21221.85	20330.05
943.9464	2141.7787	21161.25	20264.95
944.0818	2143.2983	21031.65	20141.45
944.2172	2144.8171	20914.1	20022.45
944.3526	2146.3353	20888.55	19996.8
944.4879	2147.8527	20786.5	19897
944.6232	2149.3693	20794.45	19900.55
944.7585	2150.8853	20677.9	19785.75
944.8938	2152.4005	20576.35	19684.5
945.029	2153.9149	20536.3	19642.9
945.1642	2155.4287	20463.8	19572.1
945.2994	2156.9417	20405.2	19512.5
945.4346	2158.454	20347.3	19452.8
945.5697	2159.9655	20283.5	19393.3
945.7048	2161.4764	20253.35	19362.45
945.8399	2162.9865	20199.8	19306.45
945.9749	2164.4958	20140.65	19248.9
946.1099	2166.0045	20034.25	19140.7
946.2449	2167.5124	20013.15	19120.7
946.3799	2169.0195	19961.55	19069.35
946.5148	2170.526	19936.45	19045.05
946.6498	2172.0317	19826.4	18935.35
946.7846	2173.5367	19783.2	18892.05
946.9195	2175.0409	19716.5	18825.8
947.0543	2176.5445	19701.4	18810.45
947.1891	2178.0473	19633.55	18741.25
947.3239	2179.5494	19529.1	18635.15
947.4587	2181.0507	19450.6	18559.05
947.5934	2182.5513	19392.85	18500.75
947.7281	2184.0512	19376.4	18485.45
947.8628	2185.5504	19269.55	18378.75
947.9974	2187.0488	19150.65	18260.2
948.132	2188.5465	19088.4	18196.2
948.2666	2190.0435	19022.75	18129.1
948.4012	2191.5397	18962.6	18070.3
948.5357	2193.0353	18911.8	18021.45
948.6702	2194.5301	18820.85	17927.9
948.8047	2196.0241	18734.05	17839.95
948.9392	2197.5175	18704.3	17813
949.0736	2199.0101	18585.6	17688.5
949.208	2200.502	18485.45	17596.15
949.3424	2201.9931	18401	17509.45
949.4767	2203.4835	18338.75	17444.45
949.611	2204.9733	18308	17412.25
949.7453	2206.4622	18261.25	17369.7
949.8796	2207.9505	18205.6	17312.7
950.0138	2209.438	18096.3	17204.35
950.148	2210.9248	18066.25	17173.65
950.2822	2212.4109	17975.1	17084.55
950.4164	2213.8962	17887.6	16991.7
950.5505	2215.3809	17847.4	16953.4
950.6846	2216.8648	17843.5	16952.35
950.8186	2218.3479	17776	16879.1
950.9527	2219.8304	17689.45	16794.45
951.0867	2221.3121	17618.85	16724.45
951.2207	2222.7931	17548.8	16657.55
951.3546	2224.2733	17499.05	16609
951.4886	2225.7529	17413.4	16521.05
951.6225	2227.2317	17351.1	16455.15
951.7563	2228.7098	17309.75	16417.5
951.8902	2230.1872	17240.45	16348.95
952.024	2231.6638	17226.95	16336.45
952.1578	2233.1397	17142.05	16244.95
952.2916	2234.6149	17091.9	16200.85
952.4253	2236.0894	17042.7	16149.9
952.559	2237.5632	16996	16095.8
952.6927	2239.0362	16896.55	16003.35
952.8263	2240.5085	16795.8	15902.9
952.9599	2241.9801	16749.75	15856.8
953.0935	2243.4509	16710.9	15818.35
953.2271	2244.921	16639.15	15747.2
953.3606	2246.3904	16602.7	15709.25
953.4941	2247.8591	16545.85	15654.45
953.6276	2249.3271	16485.4	15595.55
953.7611	2250.7943	16423.05	15530.95
953.8945	2252.2608	16351.25	15460.8
954.0279	2253.7266	16340.25	15448.8
954.1612	2255.1917	16275.35	15384.15
954.2946	2256.656	16201.7	15308.15
954.4279	2258.1197	16146.3	15255.9
954.5612	2259.5826	16085.25	15192
954.6944	2261.0447	16067.9	15172.4
954.8276	2262.5062	15988.3	15095.8
954.9608	2263.9669	15948.1	15052.9
955.094	2265.4269	15938.55	15047
955.2271	2266.8862	15821.3	14929.6
955.3602	2268.3448	15824.5	14933.5
955.4933	2269.8026	15750.2	14858.6
955.6264	2271.2598	15704.15	14813.3
955.7594	2272.7162	15673.9	14783.25
955.8924	2274.1719	15614.65	14721.85
956.0253	2275.6268	15568.15	14677.3
956.1583	2277.0811	15525.1	14632.75
956.2912	2278.5346	15473.7	14582.9
956.4241	2279.9874	15409.45	14517.5
956.5569	2281.4395	15384	14492.45
956.6897	2282.8908	15333.15	14437.6
956.8225	2284.3414	15306.3	14414.1
956.9553	2285.7914	15216.75	14326.9
957.088	2287.2406	15193.9	14298.15
957.2207	2288.689	15107.9	14215.85
957.3534	2290.1368	15069.2	14177.05
957.486	2291.5838	15042.75	14149.4
957.6186	2293.0302	14982.25	14088.45
957.7512	2294.4758	14924.65	14031.55
957.8838	2295.9206	14873.2	13979.45
958.0163	2297.3648	14806.1	13913.25
958.1488	2298.8082	14768.1	13874.45
958.2813	2300.251	14755.75	13863.55
958.4137	2301.693	14693.75	13799.55
958.5461	2303.1343	14671.5	13778.55
958.6785	2304.5748	14634.75	13745
958.8108	2306.0147	14544.85	13652.35
958.9432	2307.4538	14502.8	13608.3
959.0754	2308.8922	14483.45	13592.7
959.2077	2310.3299	14414.9	13523.7
959.3399	2311.7669	14376.05	13485
959.4721	2313.2031	14309.85	13417.65
959.6043	2314.6387	14258.6	13367.35
959.7365	2316.0735	14191.95	13299.1
959.8686	2317.5076	14158.55	13265.45
960.0006	2318.941	14118.65	13227.35
960.1327	2320.3737	14089.3	13197.65
960.2647	2321.8056	14018.05	13124.65
960.3967	2323.2369	13984.9	13091.85
960.5287	2324.6674	13953.5	13057.75
960.6606	2326.0972	13885.2	12990.95
960.7925	2327.5263	13831.3	12938.35
960.9244	2328.9547	13795.3	12901.6
961.0562	2330.3823	13765.7	12873.2
961.1881	2331.8092	13730.75	12835.4
961.3198	2333.2355	13637.65	12745.4
961.4516	2334.661	13626.8	12734.1
961.5833	2336.0858	13593.05	12699.25
961.715	2337.5098	13562.55	12672.25
961.8467	2338.9332	13518.35	12625.1
961.9783	2340.3558	13454.4	12558.8
962.1099	2341.7778	13432.3	12540.35
962.2415	2343.199	13374.85	12482.2
962.373	2344.6195	13337.9	12445.25
962.5045	2346.0393	13305.85	12415.15
962.636	2347.4583	13276.25	12383.35
962.7675	2348.8767	13236.7	12345
962.8989	2350.2943	13180.85	12289.15
963.0303	2351.7113	13134.3	12241.1
963.1617	2353.1275	13089.5	12196.7
963.293	2354.543	13041.65	12126.65
963.4243	2355.9578	12987.3	12096.9
963.5556	2357.3718	12917.6	12025.6
963.6868	2358.7852	12869.5	11975.95
963.818	2360.1978	12798.45	11904.7
963.9492	2361.6098	12789.5	11897
964.0803	2363.021	12734.8	11840.35
964.2114	2364.4315	12708.55	11815.2
964.3425	2365.8413	12656.6	11760.65
964.4736	2367.2504	12603	11710.5
964.6046	2368.6587	12533.95	11640.8
964.7356	2370.0664	12473.6	11584.85
964.8666	2371.4733	12454.8	11562.9
964.9975	2372.8795	12413.6	11521.95
965.1284	2374.285	12359.3	11467.05
965.2593	2375.6899	12289	11398.3
965.3901	2377.0939	12216.5	11324.4
965.5209	2378.4973	12155.05	11263.95
965.6517	2379.9	12125.15	11233.05
965.7825	2381.3019	12090.4	11200.15
965.9132	2382.7032	12090.45	11200.45
966.0439	2384.1037	12047.35	11158.8
966.1745	2385.5035	11982.05	11092.45
966.3051	2386.9027	11949.3	11057.55
966.4357	2388.3011	11884.6	10990.3
966.5663	2389.6987	11856.65	10965.25
966.6968	2391.0957	11827.55	10936.15
966.8273	2392.492	11775.7	10884.5
966.9578	2393.8876	11690.3	10797.6
967.0882	2395.2824	11638.7	10747.65
967.2186	2396.6765	11611.6	10719.8
967.349	2398.07	11568.3	10677.8
967.4793	2399.4627	11505.8	10612.65
967.6097	2400.8547	11490.65	10600.7
967.7399	2402.246	11444.5	10548.45
967.8702	2403.6366	11361.8	10471.15
968.0004	2405.0265	11314.85	10424.15
968.1306	2406.4156	11325.6	10430.65
968.2607	2407.8041	11259.05	10364.25
968.3909	2409.1918	11217.3	10324.45
968.521	2410.5789	11157.1	10267.3
968.651	2411.9652	11123	10229.45
968.781	2413.3508	11080.9	10189.5
968.911	2414.7358	11042.35	10151.6
969.041	2416.12	10995.65	10105.45
969.1709	2417.5035	10972.65	10082
969.3008	2418.8863	10933.5	10039.75
969.4307	2420.2684	10898	10008.4
969.5606	2421.6497	10837.3	9946.15
969.6904	2423.0304	10765.1	9873.65
969.8201	2424.4104	10734.6	9843.7
969.9499	2425.7896	10729.65	9832.3
970.0796	2427.1682	10690.25	9799.1
970.2093	2428.546	10619.6	9726.95
970.3389	2429.9232	10624.35	9731.95
970.4685	2431.2996	10591.2	9701.45
970.5981	2432.6753	10572.65	9681.35
970.7277	2434.0503	10553.05	9662.6
970.8572	2435.4246	10479.25	9586.9
970.9867	2436.7982	10427.65	9535
971.1161	2438.1711	10412.3	9520.65
971.2456	2439.5433	10397.9	9505.1
971.375	2440.9148	10318.75	9425.7
971.5043	2442.2856	10275.55	9384
971.6336	2443.6557	10272.6	9381.1
971.7629	2445.025	10215.95	9324
971.8922	2446.3937	10187.75	9297.05
972.0214	2447.7617	10165.6	9273.55
972.1506	2449.1289	10143.5	9253.4
972.2798	2450.4955	10116.1	9219.3
972.4089	2451.8613	10076.95	9185.25
972.538	2453.2265	10045.55	9154.8
972.6671	2454.5909	10031.8	9139.75
972.7961	2455.9546	9989.4	9098.35
972.9251	2457.3177	9943.75	9054.25
973.0541	2458.68	9919.1	9025.2
973.1831	2460.0416	9906.1	9015.05
973.312	2461.4025	9894.1	9000.8
973.4408	2462.7627	9863.05	8960.1
973.5697	2464.1222	9836.55	8944.55
973.6985	2465.4811	9798.4	8905.3
973.8273	2466.8392	9757.15	8864.9
973.956	2468.1966	9711.8	8816.8
974.0847	2469.5533	9716.6	8823.6
974.2134	2470.9093	9692.8	8800.9
974.3421	2472.2645	9648.3	8753.5
974.4707	2473.6191	9614.55	8724.55
974.5993	2474.973	9585.5	8695.05
974.7278	2476.3262	9534.8	8643.05
974.8563	2477.6787	9494.5	8603
974.9848	2479.0305	9458.6	8566.75
975.1132	2480.3816	9432	8539.9
975.2417	2481.7319	9371.65	8479.65
975.37	2483.0816	9342.75	8448.1
975.4984	2484.4306	9318.5	8425.8
975.6267	2485.7789	9282.25	8389.95
975.755	2487.1264	9229.5	8337.7
975.8833	2488.4733	9197.9	8309.1
976.0115	2489.8195	9149.6	8252.5
976.1397	2491.165	9129.9	8234.05
976.2678	2492.5097	9122.05	8229.4
976.3959	2493.8538	9059.8	8168.65
976.524	2495.1972	9042.55	8149.05
976.6521	2496.5398	8983	8091.5
976.7801	2497.8818	8966.35	8073
976.9081	2499.2231	8898.7	8005.9
977.036	2500.5637	8872.9	7979.4
977.164	2501.9035	8857.35	7966.8
977.2918	2503.2427	8836.65	7941.2
977.4197	2504.5812	8807.3	7918
977.5475	2505.919	8771.15	7878.2
977.6753	2507.256	8779.1	7888.4
977.8031	2508.5924	8733.75	7840.75
977.9308	2509.9281	8689.05	7789.85
978.0585	2511.2631	8649.95	7758.2
978.1861	2512.5974	8634.7	7743.4
978.3137	2513.9309	8599.45	7706.95
978.4413	2515.2638	8594.6	7669.4
978.5689	2516.596	8553.65	7662.5
978.6964	2517.9275	8487.5	7592.95
978.8239	2519.2583	8478.65	7585.05
978.9513	2520.5884	8431.3	7535.65
979.0788	2521.9178	8404.45	7513.4
979.2062	2523.2465	8378.5	7485.75
979.3335	2524.5745	8351.7	7458.35
979.4608	2525.9018	8332.15	7439.05
979.5881	2527.2284	8298.45	7408.3
979.7154	2528.5543	8259.35	7368.55
979.8426	2529.8796	8251.45	7359.7
979.9698	2531.2041	8218.7	7325.5
980.0969	2532.5279	8202.85	7311.65
980.224	2533.851	8204.15	7311.55
980.3511	2535.1735	8165	7274.15
980.4781	2536.4952	8142.7	7252.1
980.6052	2537.8163	8116.3	7224.25
980.7321	2539.1366	8104.25	7212.2
980.8591	2540.4562	8068.6	7176.7
980.986	2541.7752	8056.95	7165.55
981.1129	2543.0935	8023.5	7131.4
981.2397	2544.411	8007.05	7116.1
981.3665	2545.7279	7961.85	7071.3
981.4933	2547.0441	7971.15	7079.85
981.62	2548.3596	7960.1	7065.35
981.7467	2549.6744	7946.35	7055
981.8734	2550.9885	7905.75	7013.85
982.0001	2552.3019	7865.55	6972.15
982.1267	2553.6146	7861.2	6970.2
982.2532	2554.9266	7829.75	6936.65
982.3798	2556.2379	7792.55	6900.55
982.5063	2557.5485	7791.8	6901.35
982.6327	2558.8585	7776	6874.9
982.7592	2560.1677	7765.85	6867.9
982.8856	2561.4762	7718.4	6826.75
983.0119	2562.7841	7728.65	6832.15
983.1383	2564.0913	7684.45	6794.25
983.2646	2565.3977	7683.65	6791.75
983.3908	2566.7035	7680.45	6788.9
983.517	2568.0086	7651.85	6759.4
983.6432	2569.313	7627.75	6736.9
983.7694	2570.6167	7611.25	6716.05
983.8955	2571.9197	7589.6	6697.55
984.0216	2573.222	7577.95	6682.2
984.1476	2574.5236	7571.8	6680.4
984.2737	2575.8246	7551	6655
984.3996	2577.1248	7519.55	6624.75
984.5256	2578.4244	7504.1	6614.3
984.6515	2579.7232	7511.9	6621.45
984.7774	2581.0214	7506.8	6574.65
984.9032	2582.3189	7469	6578
985.029	2583.6157	7451.9	6554.75
985.1548	2584.9118	7427.6	6536.3
985.2806	2586.2072	7407.2	6515.05
985.4063	2587.5019	7377.95	6487.25
985.5319	2588.7959	7365.55	6474.05
985.6576	2590.0893	7350.8	6456.35
985.7832	2591.3819	7326.2	6434.8
985.9087	2592.6739	7308.7	6418.9
986.0343	2593.9652	7297.35	6405.05
986.1597	2595.2557	7266.25	6374.2
986.2852	2596.5456	7243.75	6350.2
986.4106	2597.8348	7194.5	6304.85
986.536	2599.1234	7173.6	6280.8
986.6614	2600.4112	7147.1	6255.35
986.7867	2601.6983	7145	6250.75
986.912	2602.9848	7112.75	6218.7
987.0372	2604.2705	7076.05	6179.3
987.1624	2605.5556	7075.15	6184.75
987.2876	2606.84	7041.35	6148.45
987.4128	2608.1237	7017.15	6124.8
987.5379	2609.4067	7002.9	6110.35
987.6629	2610.689	6952.5	6050.5
987.788	2611.9707	6943	6047.15
987.913	2613.2516	6918.5	6021.6
988.0379	2614.5319	6892.2	6001.9
988.1629	2615.8115	6875.15	5984.1
988.2878	2617.0903	6809.8	5917.15
988.4126	2618.3685	6790.05	5897.75
988.5375	2619.6461	6775.55	5882.3
988.6622	2620.9229	6748.1	5855.75
988.787	2622.199	6747	5852.5
988.9117	2623.4745	6722.9	5831.4
989.0364	2624.7493	6694.8	5802.2
989.161	2626.0234	6670.75	5780
989.2857	2627.2968	6661.85	5769.95
989.4102	2628.5695	6634.6	5741.6
989.5348	2629.8415	6600.05	5709.3
989.6593	2631.1128	6584	5690.1
989.7837	2632.3835	6553.85	5663.5
989.9082	2633.6535	6526.25	5636.2
990.0326	2634.9228	6505.05	5613.55
990.1569	2636.1914	6478.85	5587.9
990.2812	2637.4593	6470.55	5573.55
990.4055	2638.7265	6453.9	5561.5
990.5298	2639.9931	6417.45	5523.8
990.654	2641.259	6398.9	5504.2
990.7782	2642.5242	6367.9	5475.7
990.9023	2643.7887	6359.85	5467.95
991.0264	2645.0525	6345.9	5453.7
991.1505	2646.3156	6313.2	5420.15
991.2745	2647.5781	6298.05	5406.8
991.3985	2648.8398	6280.6	5390.55
991.5225	2650.1009	6250.55	5349.95
991.6464	2651.3613	6239.95	5347.05
991.7703	2652.6211	6228.15	5336.5
991.8942	2653.8801	6203.5	5312.15
992.018	2655.1385	6201.15	5306.4
992.1418	2656.3961	6163	5271.3
992.2655	2657.6531	6164.4	5273.95
992.3892	2658.9094	6134.1	5243.65
992.5129	2660.1651	6119.1	5227.05
992.6366	2661.42	6115.65	5224.9
992.7602	2662.6743	6109.45	5215.35
992.8837	2663.9279	6091.25	5198.9
993.0073	2665.1808	6055.3	5161.55
993.1307	2666.433	6040.1	5148
993.2542	2667.6846	6019.8	5127.9
993.3776	2668.9354	6006	5110.8
993.501	2670.1856	5991.05	5097.95
993.6244	2671.4351	5972.9	5081.4
993.7477	2672.6839	5974.85	5080.75
993.8709	2673.9321	5948.3	5057.9
993.9942	2675.1795	5919.9	5029.7
994.1174	2676.4263	5917.45	5025.25
994.2405	2677.6724	5885.85	4995.4
994.3637	2678.9179	5882.6	4991
994.4868	2680.1626	5871.05	4980.55
994.6098	2681.4067	5846.25	4954.2
994.7328	2682.6501	5858.95	4965.7
994.8558	2683.8928	5831.75	4940.7
994.9788	2685.1348	5815.85	4925.4
995.1017	2686.3761	5781.8	4891.15
995.2245	2687.6168	5763.2	4871.6
995.3474	2688.8568	5736.8	4844.75
995.4702	2690.0961	5715.5	4824.45
995.5929	2691.3348	5685.3	4794.05
995.7156	2692.5727	5684.25	4792.3
995.8383	2693.81	5651.55	4759.2
995.961	2695.0466	5638.3	4747.6
996.0836	2696.2826	5626.55	4733.95
996.2062	2697.5178	5624.4	4731.15
996.3287	2698.7524	5603.7	4714.05
996.4512	2699.9863	5580	4685.7
996.5737	2701.2195	5576.45	4685.85
996.6961	2702.452	5553.1	4660.4
996.8185	2703.6839	5542.75	4650.8
996.9408	2704.9151	5522.7	4631.9
997.0631	2706.1456	5503.25	4611.05
997.1854	2707.3755	5494.75	4602
997.3077	2708.6046	5490.4	4596.2
997.4299	2709.8331	5467.45	4577.1
997.552	2711.0609	5468.15	4574.9
997.6742	2712.2881	5462.65	4569.85
997.7963	2713.5145	5428.45	4533.35
997.9183	2714.7403	5435.45	4544.25
998.0403	2715.9654	5391.85	4498.7
998.1623	2717.1899	5405.4	4498.3
998.2842	2718.4136	5413.4	4523.65
998.4062	2719.6367	5395.7	4504.35
998.528	2720.8591	5399.2	4501.3
998.6498	2722.0809	5373.45	4483.2
998.7716	2723.3019	5379	4483.6
998.8934	2724.5223	5372.6	4479.85
999.0151	2725.7421	5345.6	4452.05
999.1368	2726.9611	5336.9	4444.4
999.2584	2728.1795	5309.9	4411.3
999.38	2729.3972	5300.65	4410.45
999.5016	2730.6142	5292.8	4394.25
999.6231	2731.8306	5243.25	4351.6
999.7446	2733.0462	5198.6	4305.05
999.8661	2734.2612	5195.85	4299.15
999.9875	2735.4756	5141.9	4248.6
1000.1089	2736.6892	5112.95	4220.35
1000.2302	2737.9022	5088.85	4197.2
1000.3515	2739.1145	5064.35	4173.5
1000.4728	2740.3262	5051.8	4155.25
1000.594	2741.5372	4999.2	4107.9
1000.7152	2742.7475	4951.3	4056.7
1000.8363	2743.9571	4944.05	4050.2
1000.9575	2745.1661	4938.25	4041.1
1001.0785	2746.3744	4904.45	4011.6
1001.1996	2747.582	4890.7	4000.3
1001.3206	2748.7889	4857.7	3964.25
1001.4415	2749.9952	4831.15	3939.2
1001.5625	2751.2008	4812.55	3919.95
1001.6833	2752.4057	4815.65	3921.7
1001.8042	2753.61	4787.2	3894.2
1001.925	2754.8136	4769.6	3875.95
1002.0458	2756.0165	4751.5	3858.75
1002.1665	2757.2188	4751.1	3859.15
1002.2872	2758.4204	4737.2	3846.85
1002.4078	2759.6213	4713.65	3818.75
1002.5285	2760.8215	4716.45	3820.35
1002.649	2762.0211	4693.6	3798.65
1002.7696	2763.22	4688.05	3793.3
1002.8901	2764.4182	4650.4	3755.75
1003.0106	2765.6158	4637.95	3745.85
1003.131	2766.8127	4617.25	3726.55
1003.2514	2768.009	4598.5	3705.55
1003.3717	2769.2045	4606.05	3711.75
1003.492	2770.3994	4597.15	3702.6
1003.6123	2771.5936	4581.95	3688.45
1003.7325	2772.7872	4544.35	3653.8
1003.8527	2773.9801	4537.8	3645.6
1003.9729	2775.1723	4538.45	3631.7
1004.093	2776.3639	4507.45	3615.45
1004.2131	2777.5548	4495.3	3598.05
1004.3331	2778.745	4488.7	3596.6
1004.4531	2779.9346	4463.1	3570.95
1004.5731	2781.1235	4464.15	3571.6
1004.693	2782.3117	4452.1	3561.3
1004.8129	2783.4992	4428.15	3537.6
1004.9328	2784.6861	4430.55	3538.45
1005.0526	2785.8723	4422.7	3529.35
1005.1723	2787.0579	4405.2	3513.15
1005.2921	2788.2428	4403.1	3511.15
1005.4118	2789.427	4399.45	3508.5
1005.5314	2790.6106	4406.95	3516.75
1005.651	2791.7935	4393.35	3499.7
1005.7706	2792.9757	4383	3491.05
1005.8902	2794.1573	4373.35	3478.8
1006.0097	2795.3382	4381.9	3490.05
1006.1291	2796.5184	4380.95	3491.85
1006.2485	2797.698	4387.25	3494.75
1006.3679	2798.8769	4390.35	3497.95
1006.4873	2800.0551	4395.75	3503.45
1006.6066	2801.2327	4384.4	3490.95
1006.7258	2802.4096	4405.45	3515.15
1006.8451	2803.5859	4414.3	3521.4
1006.9642	2804.7615	4418.05	3525.1
1007.0834	2805.9364	4438.35	3546.3
1007.2025	2807.1106	4444.5	3553.55
1007.3216	2808.2842	4467	3575.9
1007.4406	2809.4572	4469.95	3576.2
1007.5596	2810.6294	4503.8	3610.15
1007.6785	2811.801	4539.4	3647.95
1007.7975	2812.972	4577.9	3687.2
1007.9163	2814.1423	4613.3	3721.3
1008.0352	2815.3119	4632.6	3739.4
1008.154	2816.4808	4683.95	3792.55
1008.2727	2817.6491	4711.75	3820.35
1008.3914	2818.8167	4753.9	3862
1008.5101	2819.9837	4785.8	3888.8
1008.6288	2821.15	4822.7	3930.85
1008.7474	2822.3157	4840.8	3949.25
1008.8659	2823.4807	4890.55	3999.25
1008.9844	2824.645	4942.35	4050.3
1009.1029	2825.8086	4970.05	4079.15
1009.2214	2826.9716	4999.9	4109.3
1009.3398	2828.134	5022.4	4131.7
1009.4581	2829.2957	5055.5	4163
1009.5764	2830.4567	5073.35	4182.8
1009.6947	2831.617	5096	4202.15
1009.813	2832.7767	5086.6	4197.9
1009.9312	2833.9358	5070.4	4180.3
1010.0493	2835.0941	5057.25	4166.05
1010.1675	2836.2519	5063.95	4173.75
1010.2855	2837.4089	5035.1	4142.8
1010.4036	2838.5653	5028.1	4135.7
1010.5216	2839.7211	5020.2	4129.4
1010.6396	2840.8761	5019.2	4125.15
1010.7575	2842.0306	5011.8	4120.95
1010.8754	2843.1843	5073.15	4180.85
1010.9932	2844.3374	5088.15	4197.6
1011.111	2845.4899	5124.3	4231.7
1011.2288	2846.6417	5190.85	4302.45
1011.3465	2847.7928	5256.6	4364.7
1011.4642	2848.9433	5360.75	4469.5
1011.5818	2850.0931	5428	4536.9
1011.6995	2851.2422	5474.7	4579.4
1011.817	2852.3907	5558.4	4664.75
1011.9345	2853.5385	5606.1	4712.8
1012.052	2854.6857	5680.8	4764.45
1012.1695	2855.8323	5709.6	4820.55
1012.2869	2856.9781	5741.7	4851.1
1012.4042	2858.1233	5772.3	4879.25
1012.5216	2859.2679	5820.3	4927.3
1012.6389	2860.4118	5851.05	4959.05
1012.7561	2861.555	5879.2	4982.35
1012.8733	2862.6976	5917.8	5025.4
1012.9905	2863.8395	5921.05	5028.75
1013.1076	2864.9808	5940	5049.35
1013.2247	2866.1214	5943.25	5052.05
1013.3417	2867.2614	5967.85	5076.2
1013.4587	2868.4007	5959.9	5065.8
1013.5757	2869.5393	5951.25	5057.3
1013.6926	2870.6773	5984.05	5091.2
1013.8095	2871.8146	5967.9	5074.8
1013.9263	2872.9513	5964.1	5069
1014.0431	2874.0874	5949.3	5056.6
1014.1599	2875.2227	5923.15	5029.95
1014.2766	2876.3574	5898.75	5007.9
1014.3933	2877.4915	5862.45	4972.8
1014.51	2878.6249	5816.4	4926.4
1014.6266	2879.7577	5790.35	4898.85
1014.7431	2880.8898	5765.3	4861.3
1014.8596	2882.0212	5737.75	4848.05
1014.9761	2883.152	5705.35	4814.05
1015.0925	2884.2821	5692.75	4801.7
1015.2089	2885.4116	5675.35	4786.3
1015.3253	2886.5405	5655.4	4764.5
1015.4416	2887.6686	5663.5	4767.55
1015.5579	2888.7962	5632.6	4741.2
1015.6741	2889.923	5625.7	4733.5
1015.7903	2891.0493	5638	4749.2
1015.9065	2892.1748	5638.25	4747.15
1016.0226	2893.2997	5655.75	4764.55
1016.1387	2894.424	5649.8	4759.8
1016.2547	2895.5476	5670.3	4777.15
1016.3707	2896.6706	5692.15	4801.2
1016.4866	2897.7929	5723.85	4831.25
1016.6025	2898.9145	5736.85	4843.5
1016.7184	2900.0355	5734	4841.45
1016.8342	2901.1559	5757.75	4866.15
1016.95	2902.2756	5816.15	4920.9
1017.0658	2903.3946	5837.35	4945.7
1017.1815	2904.513	5830.95	4935.65
1017.2971	2905.6308	5863.05	4972.9
1017.4127	2906.7479	5863.4	4971.6
1017.5283	2907.8643	5876	4984.65
1017.6439	2908.9801	5878	4987.85
1017.7594	2910.0953	5863.3	4973.45
1017.8748	2911.2098	5875.35	4980.5
1017.9902	2912.3236	5868	4966
1018.1056	2913.4368	5843	4947.65
1018.2209	2914.5494	5817.85	4926.05
1018.3362	2915.6613	5784.05	4885
1018.4515	2916.7725	5737.9	4846.65
1018.5667	2917.8831	5725.05	4832.75
1018.6819	2918.9931	5660.95	4767.75
1018.797	2920.1024	5634.75	4742.35
1018.9121	2921.211	5616.9	4725.3
1019.0271	2922.319	5585.35	4694.6
1019.1421	2923.4264	5555.35	4664.75
1019.2571	2924.5331	5532.1	4643.05
1019.372	2925.6391	5512.05	4621.35
1019.4869	2926.7445	5494.85	4604.45
1019.6017	2927.8493	5466.55	4575.2
1019.7165	2928.9534	5473.3	4581.1
1019.8313	2930.0569	5438.4	4544.9
1019.946	2931.1597	5441.9	4547.8
1020.0606	2932.2619	5418.85	4526.1
1020.1753	2933.3634	5390.4	4500
1020.2899	2934.4643	5378.4	4481.25
1020.4044	2935.5645	5369.55	4470.95
1020.5189	2936.6641	5303.75	4406.95
1020.6334	2937.763	5262.4	4371.5
1020.7478	2938.8613	5212.8	4324.35
1020.8622	2939.959	5140.65	4244.65
1020.9765	2941.056	5068	4177.95
1021.0908	2942.1523	4965.7	4074.35
1021.2051	2943.248	4880.8	3990.45
1021.3193	2944.3431	4768.5	3878.2
1021.4334	2945.4375	4645.6	3752.7
1021.5476	2946.5313	4545.5	3656.75
1021.6617	2947.6244	4440.4	3548.8
1021.7757	2948.7169	4328.5	3435.7
1021.8897	2949.8087	4233.55	3342.3
1022.0037	2950.8999	4126.85	3236.8
1022.1176	2951.9904	4041.1	3151.2
1022.2315	2953.0803	3950.5	3059.25
1022.3453	2954.1696	3876.4	2983
1022.4591	2955.2582	3812.1	2921.2
1022.5728	2956.3462	3769.45	2878.05
1022.6865	2957.4335	3715.35	2822.4
1022.8002	2958.5202	3677.1	2783.5
1022.9138	2959.6062	3642.15	2749.5
1023.0274	2960.6916	3613.4	2723.85
1023.141	2961.7764	3585.2	2693.1
1023.2545	2962.8605	3544.45	2653.15
1023.3679	2963.9439	3536.4	2642.95
1023.4813	2965.0267	3520.5	2627.15
1023.5947	2966.1089	3503.8	2591.85
1023.708	2967.1905	3479	2589.05
1023.8213	2968.2714	3462	2570.7
1023.9346	2969.3516	3468.2	2579.5
1024.0478	2970.4312	3461.3	2561.75
1024.1609	2971.5102	3446.75	2556.7
1024.274	2972.5885	3440.2	2551.1
1024.3871	2973.6662	3431.7	2537.55
1024.5002	2974.7432	3416.8	2527.65
1024.6132	2975.8196	3411.65	2519.65
1024.7261	2976.8954	3406.75	2517.75
1024.839	2977.9705	3378.85	2488
1024.9519	2979.045	3355.45	2463.8
1025.0647	2980.1188	3339.45	2447.75
1025.1775	2981.192	3306.25	2413.2
1025.2902	2982.2645	3290.7	2397.9
1025.4029	2983.3364	3254.55	2362.35
1025.5156	2984.4077	3208.55	2317.25
1025.6282	2985.4783	3191.05	2297
1025.7407	2986.5483	3147.7	2258.65
1025.8532	2987.6177	3112.45	2222.8
1025.9657	2988.6864	3062.55	2170.9
1026.0782	2989.7545	3030.7	2138.6
1026.1906	2990.8219	2980.75	2089.4
1026.3029	2991.8887	2961.35	2068
1026.4152	2992.9548	2923.6	2031.4
1026.5275	2994.0204	2873.7	1983.7
1026.6397	2995.0852	2836.65	1946.6
1026.7519	2996.1495	2807.7	1915.55
1026.864	2997.2131	2780.65	1889.5
1026.9761	2998.276	2762.65	1871.85
1027.0882	2999.3383	2743.2	1851.35
1027.2002	3000.4	2712.65	1818.6
1027.3122	3001.4611	2689.55	1798.8
1027.4241	3002.5215	2678.2	1788.15
1027.536	3003.5812	2649.9	1759.75
1027.6478	3004.6404	2646.35	1755.85
1027.7596	3005.6989	2632.3	1736.85
1027.8714	3006.7567	2623.4	1731.1
1027.9831	3007.8139	2621.35	1709.55
1028.0947	3008.8705	2584.5	1692.75
1028.2064	3009.9264	2578.25	1683.6
1028.3179	3010.9818	2582.95	1690.2
1028.4295	3012.0364	2561.55	1670.95
1028.541	3013.0905	2552.65	1662.75
1028.6524	3014.1439	2540.8	1649.4
1028.7638	3015.1966	2547.5	1657.45
1028.8752	3016.2487	2521.3	1630.2
1028.9865	3017.3002	2537.45	1639.1
1029.0978	3018.3511	2521.25	1631.55
1029.209	3019.4013	2517.5	1625.35
1029.3202	3020.4509	2521.45	1633.05
1029.4314	3021.4998	2506.2	1615.95
1029.5425	3022.5481	2504.05	1612.75
1029.6535	3023.5958	2493.9	1604.35
1029.7645	3024.6428	2500	1606.4
1029.8755	3025.6892	2494.25	1604.4
1029.9864	3026.735	2486.65	1594.45
1030.0973	3027.7802	2490	1598.05
1030.2082	3028.8247	2494.75	1605.1
1030.319	3029.8685	2479.7	1588.65
1030.4297	3030.9118	2467.35	1576.95
1030.5404	3031.9544	2463.35	1573.8
1030.6511	3032.9963	2467.15	1576.4
1030.7617	3034.0376	2476.55	1586.65
1030.8723	3035.0783	2475.1	1581.15
1030.9829	3036.1184	2464.4	1572.35
1031.0934	3037.1578	2478.35	1586.35
1031.2038	3038.1966	2458.25	1565.1
1031.3142	3039.2348	2469.35	1579.7
1031.4246	3040.2723	2466.8	1567.3
1031.5349	3041.3092	2443.3	1552.15
1031.6452	3042.3455	2436.25	1544.75
1031.7554	3043.3811	2430.6	1539.6
1031.8656	3044.4161	2425.55	1532.95
1031.9758	3045.4505	2412.5	1523.3
1032.0859	3046.4842	2409.6	1518.8
1032.1959	3047.5173	2388.25	1498.05
1032.3059	3048.5498	2382.25	1492.6
1032.4159	3049.5816	2380.2	1486.75
1032.5258	3050.6128	2360.6	1468.3
1032.6357	3051.6434	2358.9	1465.25
1032.7455	3052.6734	2351.85	1459.35
1032.8553	3053.7027	2333.4	1443
1032.9651	3054.7314	2315.15	1425.1
1033.0748	3055.7594	2316.2	1426.35
1033.1845	3056.7868	2306.05	1415.8
1033.2941	3057.8136	2283.7	1394.15
1033.4037	3058.8398	2276.35	1385.25
1033.5132	3059.8653	2270.05	1378.6
1033.6227	3060.8902	2256.35	1365.45
1033.7321	3061.9145	2246.35	1354.55
1033.8415	3062.9381	2243.85	1351.95
1033.9509	3063.9612	2243.15	1338.25
1034.0602	3064.9835	2225.6	1333.95
1034.1694	3066.0053	2213.75	1322.85
1034.2787	3067.0264	2198.5	1307.05
1034.3878	3068.0469	2206.45	1314.35
1034.497	3069.0668	2190.2	1297.15
1034.6061	3070.086	2163.3	1272.1
1034.7151	3071.1046	2163.45	1273.85
1034.8241	3072.1226	2150.45	1257.75
1034.9331	3073.1399	2139.45	1249.95
1035.042	3074.1567	2125.75	1233.3
1035.1508	3075.1727	2112.55	1221.55
1035.2597	3076.1882	2083.7	1194.65
1035.3684	3077.203	2078.15	1187.1
1035.4772	3078.2173	2074.9	1184.15
1035.5859	3079.2308	2068.9	1175.8
1035.6945	3080.2438	2048.45	1154.8
1035.8031	3081.2561	2034.65	1143.9
1035.9117	3082.2678	2017.95	1128.45
1036.0202	3083.2789	2012.4	1122.9
1036.1286	3084.2893	2002.95	1113.95
1036.2371	3085.2991	1990.25	1099.95
1036.3454	3086.3083	1999.05	1102.85
1036.4538	3087.3169	1978.2	1087.5
1036.562	3088.3248	1983.1	1089.55
1036.6703	3089.3321	1963.5	1071.1
1036.7785	3090.3388	1954.9	1064.55
1036.8866	3091.3449	1948.2	1055.65
1036.9948	3092.3503	1943.15	1052.25
1037.1028	3093.3551	1934.35	1046.4
1037.2108	3094.3593	1926.9	1037.4
1037.3188	3095.3629	1918.6	1028.55
1037.4267	3096.3658	1901.5	1010
1037.5346	3097.3681	1898.45	1005.9
1037.6425	3098.3698	1892.05	1000.2
1037.7503	3099.3708	1893.25	995.6
1037.858	3100.3713	1882.45	992.85
1037.9657	3101.3711	1876.55	986.85
1038.0734	3102.3702	1973.9	968.65
1038.181	3103.3688	1883.1	990.65
1038.2886	3104.3667	1860.55	972.85
1038.3961	3105.364	1852.35	961.55
1038.5036	3106.3607	1842.8	950.05
1038.611	3107.3568	1839.45	946.25
1038.7184	3108.3522	1822.55	932.75
1038.8257	3109.347	1830.5	939.15
1038.933	3110.3412	1827.55	933.85
1039.0403	3111.3348	1809.6	919.9
1039.1475	3112.3277	1806.45	915.55
1039.2547	3113.32	1803.75	912.9
1039.3618	3114.3117	1801.05	909.85
1039.4689	3115.3028	1789.05	899.5
1039.5759	3116.2932	1785.2	892.4
1039.6829	3117.2831	1782.05	887.05
1039.7898	3118.2723	1784.7	892.55
1039.8967	3119.2608	1770.15	880.2
1040.0035	3120.2488	1769.8	877.7
1040.1103	3121.2361	1761.4	870.55
1040.2171	3122.2229	1750.85	859.4
1040.3238	3123.209	1744	855.1
1040.4305	3124.1944	1744.3	853.6
1040.5371	3125.1793	1743.85	853.35
1040.6437	3126.1635	1740.5	851.05
1040.7502	3127.1471	1729.15	838.05
1040.8567	3128.1301	1724.1	835.5
1040.9631	3129.1125	1727.8	839.25
1041.0695	3130.0942	1715.95	825.7
1041.1759	3131.0753	1733.5	835.55
1041.2822	3132.0558	1715.1	819.6
1041.3884	3133.0357	1706.35	817.2
1041.4946	3134.015	1710.75	819.8
1041.6008	3134.9936	1705.15	814
1041.7069	3135.9716	1707.3	796.8
1041.813	3136.949	1690.05	800.95
1041.919	3137.9258	1695.1	800.4
1042.025	3138.902	1687.7	792.25
1042.1309	3139.8775	1673.65	782.8
1042.2368	3140.8524	1670.6	781.05
1042.3427	3141.8267	1677.45	783.6
1042.4485	3142.8004	1664.5	773.95
1042.5542	3143.7735	1673.25	777.8
1042.6599	3144.7459	1658.15	767.25
1042.7656	3145.7178	1655.45	765.1
1042.8712	3146.689	1650	761.5
1042.9768	3147.6596	1655.9	764.8
1043.0823	3148.6295	1647.95	757.7
1043.1878	3149.5989	1640.65	750
1043.2932	3150.5676	1630.8	740.8
1043.3986	3151.5357	1626.9	738.6
1043.5039	3152.5032	1627.85	740.1
1043.6092	3153.4701	1619.2	728.15
1043.7145	3154.4364	1617.9	722.85
1043.8197	3155.402	1608.25	717.5
1043.9248	3156.367	1613.5	721.75
1044.03	3157.3315	1642.7	707.15
1044.135	3158.2952	1604.35	713.6
1044.24	3159.2584	1584.85	694.5
1044.345	3160.221	1595.95	704.85
1044.4499	3161.1829	1593.85	703.8
1044.5548	3162.1442	1582.95	694.15
1044.6596	3163.105	1578	688.8
1044.7644	3164.065	1577.05	686.8
1044.8692	3165.0245	1569.95	676.45
1044.9739	3165.9834	1560.5	669.8
1045.0785	3166.9416	1563.6	674.35
1045.1831	3167.8993	1561.55	668.95
1045.2877	3168.8563	1557.05	666.35
1045.3922	3169.8127	1541.05	652.1
1045.4966	3170.7684	1545.05	655.85
1045.6011	3171.7236	1539.75	648.5
1045.7054	3172.6782	1545.55	655.45
1045.8098	3173.6321	1537.85	645.75
1045.914	3174.5854	1537.05	641.95
1046.0183	3175.5381	1530.65	639.1
1046.1224	3176.4902	1521.15	630.2
1046.2266	3177.4417	1527.85	638.25
1046.3307	3178.3926	1517.9	627.45
1046.4347	3179.3428	1520.65	631.5
1046.5387	3180.2924	1516.1	627.85
1046.6427	3181.2415	1512.95	621.55
1046.7466	3182.1899	1513.15	622.75
1046.8504	3183.1377	1507.15	617.2
1046.9542	3184.0848	1504.4	611.1
1047.058	3185.0314	1497.55	607.3
1047.1617	3185.9773	1492.6	600.5
1047.2654	3186.9227	1489.55	599.05
1047.369	3187.8674	1489.55	598.5
1047.4726	3188.8115	1486.45	593.7
1047.5761	3189.755	1482.25	591.1
1047.6796	3190.6979	1471.5	580.75
1047.783	3191.6402	1474.5	584.6
1047.8864	3192.5818	1467.55	577.85
1047.9898	3193.5229	1494.6	581.5
1048.0931	3194.4633	1466.8	575.45
1048.1963	3195.4031	1462.8	570.95
1048.2995	3196.3423	1461	570.1
1048.4027	3197.2809	1457.85	566.85
1048.5058	3198.2189	1459.45	569.65
1048.6089	3199.1563	1458.4	561.7
1048.7119	3200.0931	1444.8	556.15
1048.8148	3201.0292	1435.5	546.6
1048.9178	3201.9648	1442.4	552.7
1049.0206	3202.8997	1448.6	556.25
1049.1235	3203.834	1438.5	549.05
1049.2262	3204.7677	1433.25	542.95
1049.329	3205.7008	1427.8	535.5
1049.4317	3206.6333	1426.8	536.65
1049.5343	3207.5652	1425.8	531.95
1049.6369	3208.4964	1419.7	530.15
1049.7394	3209.4271	1422.15	532.65
1049.8419	3210.3571	1413.9	523.45
1049.9444	3211.2865	1417.9	526.75
1050.0468	3212.2154	1412.5	522.25
1050.1491	3213.1436	1414.8	522.95
1050.2514	3214.0712	1404.9	506.8
1050.3537	3214.9982	1404.15	516.15
1050.4559	3215.9246	1402.25	512
1050.5581	3216.8503	1398.85	510.1
1050.6602	3217.7755	1398.8	509.6
1050.7623	3218.7001	1398.6	509.8
1050.8643	3219.624	1393.8	503.25
1050.9663	3220.5473	1398.85	510.3
1051.0682	3221.4701	1388.95	497.05
1051.1701	3222.3922	1383.5	491.35
1051.2719	3223.3137	1379	488.85
1051.3737	3224.2346	1382.8	492.55
1051.4754	3225.1549	1375.3	486.15
1051.5771	3226.0746	1366.8	476.3
1051.6788	3226.9937	1367.45	479.4
1051.7804	3227.9121	1370.1	482.3
1051.8819	3228.83	1369.75	479.1
1051.9834	3229.7473	1361.3	470.8
1052.0849	3230.6639	1359.2	468.35
1052.1863	3231.5799	1352.1	462.3
1052.2876	3232.4954	1356.35	465.9
1052.3889	3233.4102	1349.8	461.3
1052.4902	3234.3244	1340.5	451
1052.5914	3235.238	1347.2	459.25
1052.6926	3236.151	1366.9	453.55
1052.7937	3237.0634	1344.35	454.15
1052.8948	3237.9752	1335.5	446.25
1052.9958	3238.8864	1337.25	447.4
1053.0968	3239.797	1338.55	448
1053.1977	3240.7069	1326.9	435.65
1053.2986	3241.6163	1327.95	435.65
1053.3994	3242.5251	1329.15	439.8
1053.5002	3243.4332	1325.2	435.75
1053.6009	3244.3408	1320	432.35
1053.7016	3245.2477	1309.35	419.4
1053.8022	3246.154	1318	426.85
1053.9028	3247.0598	1317.8	427.15
1054.0034	3247.9649	1304.3	414.6
1054.1039	3248.8694	1304.15	415.5
1054.2043	3249.7733	1303.35	415.9
1054.3047	3250.6766	1300	410.6
1054.4051	3251.5793	1303.3	410.05
1054.5054	3252.4814	1292.6	402.95
1054.6056	3253.3829	1293.65	404.95
1054.7058	3254.2838	1287.65	397
1054.806	3255.1841	1287.2	397.25
1054.9061	3256.0838	1292.9	402.1
1055.0061	3256.9829	1286.45	397.2
1055.1062	3257.8814	1281.5	389.05
1055.2061	3258.7792	1271.8	380.15
1055.306	3259.6765	1272.75	383.7
1055.4059	3260.5731	1268.15	379.75
1055.5057	3261.4692	1263.45	373.9
1055.6055	3262.3647	1258.9	369.5
1055.7052	3263.2595	1249.2	359.55
1055.8049	3264.1538	1251.85	362.75
1055.9045	3265.0474	1245.05	353.35
1056.0041	3265.9404	1243.05	354.85
1056.1036	3266.8329	1231.55	341.75
1056.2031	3267.7247	1236.15	336.05
1056.3025	3268.616	1216.7	328.35
1056.4019	3269.5066	1206.6	317.75
1056.5013	3270.3966	1205.3	313.95
1056.6005	3271.286	1190	302.45
