Software Version:	3.9.2.0
Unit SN:	10000200
Spectrometer SN:	6960
Date:	3/6/2024 10:39:23 AM
Data Line Index:	25
Spectral Points:	2048
Integration time (ms):	125
Averages:	20
Delay (ms):	30
Sequence Number:	1
Processing:	dark subtract
Laser Power (mW):	300
Laser Current (mA):	823
Laser Diode Temp (C):	25.1
Laser Case Temp (C):	26.9
System Temp (C):	26.6
Spectrometer Temp (C):	24.1
CCD Temp (C):	0.004
Secondary Temp (C):	20.019
Heatsink Temp (C):	22.296
CCDPCB Temp (C):	36.318
SecondaryPCB Temp (C):	32.739

Wavelength	RamanShift	Raw Counts	Dark Subtracted
787.061	30.1047	1144.25	730.8
787.2016	32.3739	1172.8	762.05
787.3422	34.6426	1223.1	809.8
787.4828	36.9109	1267.4	852.45
787.6235	39.1787	1332.5	915.05
787.7642	41.4461	1392.85	969.25
787.9049	43.7131	1449.35	1021.65
788.0456	45.9796	1524.75	1092.5
788.1863	48.2456	1593.2	1158.65
788.3271	50.5112	1662	1224.5
788.4679	52.7764	1736.65	1297.8
788.6087	55.0411	1814.65	1371.95
788.7496	57.3054	1908.5	1457.6
788.8904	59.5692	1996.55	1546.15
789.0313	61.8326	2095.25	1640.75
789.1722	64.0955	2197.4	1740.15
789.3132	66.3579	2326.35	1862.6
789.4541	68.6199	2490.7	2025.2
789.5951	70.8815	2744.45	2274.9
789.7361	73.1426	3284.35	2812.65
789.8771	75.4032	4634.45	4155.3
790.0181	77.6634	8080.3	7595.75
790.1592	79.9231	17258.85	16768.1
790.3003	82.1824	56418.35	55916.95
790.4414	84.4412	65535	65015.6
790.5825	86.6995	65535	64983.15
790.7237	88.9574	65535	64959.9
790.8648	91.2148	65535	64940.55
791.006	93.4717	65535	64925.2
791.1472	95.7282	65535	64919.6
791.2885	97.9842	65535	64914.75
791.4297	100.2398	65535	64910.65
791.571	102.4949	65535	64909.55
791.7123	104.7495	65535	64903.95
791.8536	107.0036	65535	64905.35
791.9949	109.2573	65535	64911.9
792.1363	111.5105	65535	64906.35
792.2777	113.7632	65535	64900.4
792.4191	116.0154	65535	64889.6
792.5605	118.2672	65535	64895.95
792.7019	120.5185	65535	64897.4
792.8434	122.7693	65535	64895.3
792.9849	125.0197	65535	64893.55
793.1264	127.2696	65535	64889.35
793.2679	129.519	65535	64880.4
793.4094	131.7679	65535	64884
793.551	134.0163	65535	64879
793.6926	136.2642	65535	64874.25
793.8342	138.5117	65535	64864.1
793.9758	140.7587	65535	64869.25
794.1175	143.0052	65535	64869
794.2591	145.2512	65535	64867.15
794.4008	147.4967	65535	64866.35
794.5425	149.7417	65535	64864.05
794.6842	151.9863	65535	64859.9
794.826	154.2304	65535	64854.8
794.9677	156.4739	65535	64850.75
795.1095	158.717	65535	64853.8
795.2513	160.9596	65535	64846.4
795.3931	163.2017	65535	64848
795.535	165.4433	65535	64840.65
795.6768	167.6844	65535	64840.4
795.8187	169.925	65535	64839.05
795.9606	172.1651	65535	64837.95
796.1025	174.4047	65535	64830.95
796.2445	176.6439	65535	64835.1
796.3864	178.8825	65535	64828
796.5284	181.1206	65535	64824.55
796.6704	183.3582	65535	64821.7
796.8124	185.5954	65535	64817.25
796.9544	187.832	65535	64814.05
797.0965	190.0681	65535	64815.35
797.2386	192.3037	65535	64810.05
797.3806	194.5388	65535	64807.15
797.5228	196.7734	65535	64805.4
797.6649	199.0075	65535	64801.85
797.807	201.2411	65535	64799.75
797.9492	203.4742	65535	64798.25
798.0914	205.7068	65535	64798.6
798.2336	207.9389	65535	64792.7
798.3758	210.1704	65535	64795.65
798.518	212.4015	65535	64795.35
798.6603	214.632	65535	64806.75
798.8025	216.862	65535	64811.15
798.9448	219.0915	65535	64811.35
799.0871	221.3205	65535	64814.35
799.2294	223.549	65535	64816.3
799.3718	225.777	65535	64819.05
799.5141	228.0044	65535	64815.4
799.6565	230.2314	65535	64812.25
799.7989	232.4578	65535	64808
799.9413	234.6837	65535	64801.25
800.0837	236.909	65535	64800.25
800.2262	239.1339	65535	64773.65
800.3687	241.3582	65535	64788.1
800.5111	243.582	65535	64759.35
800.6536	245.8053	65535	64775.05
800.7961	248.0281	65535	64775.35
800.9387	250.2503	65535	64771.7
801.0812	252.472	65535	64771.3
801.2238	254.6932	65535	64768.45
801.3664	256.9139	65535	64766.8
801.509	259.134	65535	64764.9
801.6516	261.3536	65535	64763.15
801.7942	263.5727	65535	64764.65
801.9369	265.7912	65535	64761.25
802.0795	268.0092	65535	64763.1
802.2222	270.2267	65535	64758.25
802.3649	272.4436	65535	64763.7
802.5076	274.6601	65535	64755.9
802.6504	276.8759	65535	64755.3
802.7931	279.0913	65535	64754
802.9359	281.3061	65535	64752.65
803.0787	283.5204	65535	64750.7
803.2215	285.7341	65535	64745.5
803.3643	287.9473	65535	64735.8
803.5071	290.16	65535	64740.7
803.6499	292.3721	65535	64745.35
803.7928	294.5837	65535	64746.35
803.9357	296.7947	65535	64749
804.0786	299.0052	65535	64747.5
804.2215	301.2152	65535	64745.7
804.3644	303.4246	65535	64748.15
804.5074	305.6334	65535	64752.2
804.6503	307.8418	65535	64742.55
804.7933	310.0495	65535	64740.9
804.9363	312.2568	65535	64744.6
805.0793	314.4635	65535	64741
805.2223	316.6696	65535	64739.65
805.3653	318.8752	65535	64730.05
805.5084	321.0802	65535	64736.9
805.6514	323.2847	65535	64734.8
805.7945	325.4887	65535	64738.65
805.9376	327.692	65535	64732.95
806.0807	329.8949	65535	64732.3
806.2238	332.0972	65535	64731.9
806.367	334.2989	65535	64730.15
806.5101	336.5001	65535	64726.05
806.6533	338.7007	65535	64730.3
806.7965	340.9008	65535	64729.9
806.9397	343.1003	65535	64723.95
807.0829	345.2992	65535	64723.55
807.2261	347.4976	65535	64721.45
807.3693	349.6955	65535	64717.1
807.5126	351.8927	65535	64720.3
807.6559	354.0895	65535	64708.25
807.7991	356.2856	65535	64717.6
807.9424	358.4812	65535	64719.55
808.0857	360.6763	65535	64716.15
808.2291	362.8707	65535	64712.5
808.3724	365.0646	65535	64708.65
808.5158	367.258	65535	64707.25
808.6591	369.4508	65535	64703.7
808.8025	371.643	65535	64705.7
808.9459	373.8346	65535	64704.4
809.0893	376.0257	65535	64702.65
809.2327	378.2162	65535	64703.6
809.3762	380.4062	65535	64695.8
809.5196	382.5956	65535	64700.45
809.6631	384.7844	65535	64702.8
809.8066	386.9726	65535	64701.2
809.9501	389.1603	65535	64703.15
810.0936	391.3474	65535	64663.5
810.2371	393.5339	65535	64703.4
810.3806	395.7199	65535	64707.85
810.5241	397.9052	65535	64707.3
810.6677	400.09	65535	64706.85
810.8113	402.2743	65535	64705.85
810.9548	404.4579	65535	64708.7
811.0984	406.641	65535	64704.95
811.2421	408.8235	65535	64706.05
811.3857	411.0054	65535	64703.95
811.5293	413.1868	65535	64703.8
811.673	415.3675	65535	64698.75
811.8166	417.5477	65535	64697.7
811.9603	419.7273	65535	64695.1
812.104	421.9064	65535	64686.25
812.2477	424.0848	65535	64692.8
812.3914	426.2627	65535	64688.9
812.5351	428.4399	65535	64687.9
812.6788	430.6166	65535	64686.7
812.8226	432.7928	65535	64688.35
812.9663	434.9683	65535	64686.5
813.1101	437.1432	65535	64682.75
813.2539	439.3176	65535	64684.5
813.3977	441.4914	65535	64685.8
813.5415	443.6645	65535	64682.55
813.6853	445.8371	65535	64684.7
813.8291	448.0091	65535	64686.25
813.973	450.1806	65535	64684.65
814.1168	452.3514	65535	64683
814.2607	454.5216	65535	64678.2
814.4046	456.6913	65535	64682.5
814.5485	458.8603	65535	64679.5
814.6924	461.0288	65535	64685.2
814.8363	463.1967	65535	64681.95
814.9802	465.3639	65535	64678
815.1241	467.5306	65535	64679.75
815.2681	469.6967	65535	64683.55
815.412	471.8622	65535	64682.15
815.556	474.0271	65535	64683.35
815.7	476.1914	65535	64678
815.844	478.3551	65535	64678.95
815.988	480.5182	65535	64676.05
816.132	482.6807	65535	64680.85
816.276	484.8426	65535	64683.05
816.4201	487.0039	65535	64676.75
816.5641	489.1647	65535	64677.35
816.7082	491.3248	65535	64674.25
816.8522	493.4843	65535	64679.2
816.9963	495.6432	65535	64676.05
817.1404	497.8015	65535	64673.45
817.2845	499.9592	65535	64673.65
817.4286	502.1163	65535	64670.2
817.5727	504.2728	65535	64674.65
817.7168	506.4287	65535	64674.25
817.861	508.5839	65535	64672.2
818.0051	510.7386	65535	64673.4
818.1493	512.8927	65535	64668.6
818.2935	515.0461	65535	64670.5
818.4377	517.199	65535	64672.25
818.5818	519.3512	65535	64670.85
818.726	521.5029	65535	64666.4
818.8703	523.6539	65535	64669.35
819.0145	525.8043	65535	64667.85
819.1587	527.9541	65535	64668.9
819.303	530.1033	65535	64664.6
819.4472	532.2519	65535	64668.25
819.5915	534.3999	65535	64665.05
819.7357	536.5472	65535	64666.15
819.88	538.694	65535	64664.95
820.0243	540.8401	65535	64664.65
820.1686	542.9856	65535	64662.75
820.3129	545.1305	65535	64662.9
820.4572	547.2748	65535	64658.7
820.6016	549.4185	65535	64657.9
820.7459	551.5615	65535	64657.55
820.8902	553.704	65535	64658
821.0346	555.8458	65535	64662.15
821.1789	557.987	65535	64660.9
821.3233	560.1276	65535	64660.85
821.4677	562.2675	65535	64659.95
821.6121	564.4069	65535	64663.4
821.7565	566.5456	65535	64658.85
821.9009	568.6837	65535	64659.8
822.0453	570.8212	65535	64662.45
822.1897	572.958	65535	64661.7
822.3342	575.0942	65535	64662.5
822.4786	577.2299	65535	64660.45
822.6231	579.3648	65535	64661.8
822.7675	581.4992	65535	64662.75
822.912	583.6329	65535	64664.75
823.0565	585.766	65535	64663.9
823.201	587.8985	65535	64665.1
823.3454	590.0304	65535	64638.6
823.4899	592.1616	65535	64658.5
823.6345	594.2922	65535	64656.65
823.779	596.4222	65535	64654.15
823.9235	598.5515	65535	64657
824.068	600.6802	65535	64654.8
824.2126	602.8083	65535	64657.6
824.3571	604.9358	65535	64653.1
824.5017	607.0626	65535	64650.75
824.6462	609.1888	65535	64654.05
824.7908	611.3144	65535	64651
824.9354	613.4393	65535	64653.6
825.08	615.5636	65535	64652.95
825.2246	617.6873	65535	64651.4
825.3692	619.8103	65535	64648.45
825.5138	621.9327	65535	64650
825.6584	624.0544	65535	64654.8
825.803	626.1756	65535	64653.4
825.9477	628.2961	65535	64653.25
826.0923	630.4159	65535	64651.15
826.237	632.5351	65535	64649.4
826.3816	634.6537	65535	64648.65
826.5263	636.7716	65535	64644.85
826.6709	638.8889	65535	64645.85
826.8156	641.0056	65535	64648.4
826.9603	643.1216	65535	64647.45
827.105	645.237	65535	64647
827.2497	647.3518	65535	64646.2
827.3944	649.4659	65535	64646.65
827.5391	651.5793	65535	64648.3
827.6838	653.6922	65535	64650.45
827.8285	655.8043	65535	64647.85
827.9733	657.9159	65535	64646.6
828.118	660.0268	65535	64645.95
828.2627	662.137	65535	64647.6
828.4075	664.2466	65535	64642.7
828.5522	666.3556	65535	64649.3
828.697	668.4639	65535	64644.5
828.8418	670.5716	65535	64647.35
828.9865	672.6786	65535	64643.2
829.1313	674.785	65535	64645.3
829.2761	676.8907	65535	64644.75
829.4209	678.9958	65535	64646.6
829.5657	681.1002	65535	64645.3
829.7105	683.204	65535	64637.1
829.8553	685.3072	65535	64644.3
830.0001	687.4097	65535	64644.15
830.1449	689.5115	65535	64641.5
830.2898	691.6127	65535	64643.45
830.4346	693.7132	65535	64642.9
830.5794	695.8131	65535	64632.2
830.7243	697.9123	65535	64637.15
830.8691	700.0109	65535	64641.2
831.014	702.1089	65535	64640.65
831.1588	704.2061	65535	64640.3
831.3037	706.3028	65535	64639.55
831.4486	708.3987	65535	64641.5
831.5935	710.4941	65535	64642.85
831.7383	712.5887	65535	64641.4
831.8832	714.6827	65535	64635.5
832.0281	716.7761	65535	64640.9
832.173	718.8688	65535	64639.25
832.3179	720.9608	65535	64637
832.4628	723.0522	65535	64631.9
832.6077	725.1429	65535	64640.5
832.7527	727.233	65535	64638.75
832.8976	729.3224	65535	64638.3
833.0425	731.4112	65535	64636.5
833.1874	733.4993	65535	64635.9
833.3324	735.5867	65535	64634.75
833.4773	737.6735	65535	64638.65
833.6222	739.7596	65535	64637.65
833.7672	741.845	65535	64636.3
833.9122	743.9298	65535	64636
834.0571	746.014	65535	64636.65
834.2021	748.0974	65535	64635.05
834.347	750.1802	65535	64636.95
834.492	752.2624	65535	64636.5
834.637	754.3439	65535	64634.55
834.782	756.4247	65535	64625.4
834.9269	758.5048	65535	64637.5
835.0719	760.5843	65535	64634.35
835.2169	762.6631	65535	64635.75
835.3619	764.7413	65535	64637.75
835.5069	766.8188	65535	64636.9
835.6519	768.8956	65535	64637.5
835.7969	770.9718	65535	64637.6
835.9419	773.0473	65535	64640.1
836.0869	775.1221	65535	64635.45
836.232	777.1962	65535	64635
836.377	779.2697	65535	64633.3
836.522	781.3426	65535	64616.7
836.667	783.4147	65535	64635.05
836.8121	785.4862	65535	64634.15
836.9571	787.557	65535	64634.15
837.1021	789.6271	65535	64634.15
837.2472	791.6966	65535	64636
837.3922	793.7654	65535	64634.95
837.5373	795.8335	65535	64634.35
837.6823	797.901	65535	64633.05
837.8274	799.9678	65535	64633.05
837.9724	802.0339	65535	64635.55
838.1175	804.0993	65535	64626.55
838.2626	806.1641	65535	64632.7
838.4076	808.2282	65535	64633.05
838.5527	810.2916	65535	64629
838.6978	812.3544	65535	64634.7
838.8428	814.4164	65535	64634.45
838.9879	816.4778	65535	64632.75
839.133	818.5385	65535	64632.6
839.2781	820.5986	65535	64631
839.4232	822.658	65535	64632.45
839.5682	824.7166	65535	64635.25
839.7133	826.7747	65535	64633.45
839.8584	828.832	65535	64634.8
840.0035	830.8886	65535	64631.9
840.1486	832.9446	65535	64633.45
840.2937	834.9999	65535	64636.3
840.4388	837.0545	65535	64628.6
840.5839	839.1085	65535	64630.35
840.729	841.1618	65535	64628.75
840.8741	843.2143	65535	64632.95
841.0192	845.2662	65535	64629.3
841.1643	847.3175	65535	64633.25
841.3095	849.368	65535	64632.85
841.4546	851.4179	65535	64632.15
841.5997	853.467	65535	64633.15
841.7448	855.5155	65535	64630
841.8899	857.5633	65535	64633.75
842.0351	859.6105	65535	64629.6
842.1802	861.6569	65535	64630.75
842.3253	863.7027	65535	64631.5
842.4704	865.7478	65535	64630.9
842.6156	867.7922	65535	64634.4
842.7607	869.8359	65535	64629.95
842.9058	871.8789	65535	64629.25
843.0509	873.9212	65535	64598.7
843.1961	875.9629	65535	64631.1
843.3412	878.0039	65535	64630.6
843.4863	880.0441	65535	64629.2
843.6315	882.0837	65535	64631.05
843.7766	884.1226	65535	64627.05
843.9218	886.1609	65535	64630.3
844.0669	888.1984	65535	64630.4
844.212	890.2352	65535	64632.2
844.3572	892.2714	65535	64625.7
844.5023	894.3069	65535	64629.6
844.6475	896.3416	65535	64625.9
844.7926	898.3757	65535	64630.6
844.9377	900.4091	65535	64627.65
845.0829	902.4418	65535	64626.65
845.228	904.4739	65535	64626.2
845.3732	906.5052	65535	64626.85
845.5183	908.5358	65535	64628.8
845.6635	910.5658	65535	64626
845.8086	912.595	65535	64628.5
845.9538	914.6236	65535	64627.3
846.0989	916.6515	65535	64631.2
846.2441	918.6786	65535	64628.3
846.3892	920.7051	65535	64627.2
846.5344	922.7309	65535	64631.15
846.6795	924.756	65535	64626.2
846.8246	926.7804	65535	64626.85
846.9698	928.8041	65535	64625.9
847.1149	930.8272	65535	64627.25
847.2601	932.8495	65535	64627.3
847.4052	934.8711	65535	64626.45
847.5504	936.892	65535	64625.25
847.6955	938.9123	65535	64627.5
847.8407	940.9318	65535	64629.3
847.9858	942.9506	65535	64626
848.131	944.9688	65535	64629.5
848.2761	946.9862	65535	64629.15
848.4213	949.003	65535	64627.1
848.5664	951.019	65535	64629.8
848.7115	953.0344	65535	64631.05
848.8567	955.0491	65535	64627.25
849.0018	957.063	65535	64628.9
849.147	959.0763	65535	64626.3
849.2921	961.0888	65535	64626.4
849.4373	963.1007	65535	64629.7
849.5824	965.1119	65535	64631.15
849.7275	967.1223	65535	64632.75
849.8727	969.1321	65535	64630.15
850.0178	971.1412	65535	64631.65
850.1629	973.1495	65535	64627.2
850.3081	975.1572	65535	64577.2
850.4532	977.1641	65535	64625.6
850.5983	979.1704	65535	64626.8
850.7435	981.1759	65535	64626.55
850.8886	983.1808	65535	64625.65
851.0337	985.1849	65535	64618.45
851.1788	987.1884	65535	64625.3
851.324	989.1911	65535	64625.05
851.4691	991.1932	65535	64625.25
851.6142	993.1945	65535	64626.35
851.7593	995.1951	65535	64627.75
851.9045	997.1951	65535	64621.7
852.0496	999.1943	65535	64625.8
852.1947	1001.1928	65535	64626.4
852.3398	1003.1906	65535	64628.85
852.4849	1005.1877	65535	64628.05
852.63	1007.1841	65535	64626.55
852.7751	1009.1798	65535	64629
852.9202	1011.1748	65535	64627.95
853.0653	1013.1691	65535	64628.35
853.2104	1015.1627	65535	64628.65
853.3555	1017.1556	65535	64628.25
853.5006	1019.1477	65535	64627.1
853.6457	1021.1392	65535	64629.9
853.7908	1023.1299	65535	64629.05
853.9359	1025.12	65535	64631
854.081	1027.1093	65535	64634.1
854.2261	1029.0979	65535	64633.95
854.3712	1031.0859	65535	64631.4
854.5163	1033.0731	65535	64631.85
854.6613	1035.0596	65535	64630.3
854.8064	1037.0454	65535	64628.7
854.9515	1039.0304	65535	64627.65
855.0965	1041.0148	65535	64627.05
855.2416	1042.9985	65535	64625.95
855.3867	1044.9814	65535	64629.45
855.5317	1046.9636	65535	64626.35
855.6768	1048.9452	65535	64629.4
855.8219	1050.926	65535	64628
855.9669	1052.9061	65535	64628.65
856.112	1054.8855	65535	64626.7
856.257	1056.8642	65535	64630.3
856.4021	1058.8421	65535	64625.7
856.5471	1060.8194	65535	64625.9
856.6921	1062.7959	65535	64629.2
856.8372	1064.7717	65535	64627.65
856.9822	1066.7469	65535	64628.8
857.1272	1068.7213	65535	64626.3
857.2723	1070.695	65535	64630.4
857.4173	1072.6679	65535	64628
857.5623	1074.6402	65535	64628.75
857.7073	1076.6117	65535	64624.5
857.8523	1078.5826	65535	64627.9
857.9973	1080.5527	65535	64625.4
858.1423	1082.5221	65535	64629.45
858.2873	1084.4908	65535	64629.05
858.4323	1086.4587	65535	64626.3
858.5773	1088.426	65535	64626.8
858.7223	1090.3925	65535	64623.7
858.8673	1092.3584	65535	64630.9
859.0123	1094.3235	65535	64630.7
859.1573	1096.2879	65535	64631.6
859.3022	1098.2515	65535	64625.95
859.4472	1100.2145	65535	64630.75
859.5922	1102.1767	65535	64628.4
859.7371	1104.1382	65535	64630
859.8821	1106.099	65535	64627.35
860.027	1108.0591	65535	64628.2
860.172	1110.0185	65535	64623.2
860.3169	1111.9771	65535	64628.55
860.4619	1113.9351	65535	64625.4
860.6068	1115.8923	65535	64627.7
860.7517	1117.8488	65535	64628.95
860.8967	1119.8045	65535	64628
861.0416	1121.7596	65535	64629.75
861.1865	1123.7139	65535	64629.35
861.3314	1125.6675	65535	64630.4
861.4763	1127.6204	65535	64628.65
861.6212	1129.5726	65535	64626.7
861.7661	1131.524	65535	64630.1
861.911	1133.4748	65535	64627.9
862.0559	1135.4248	65535	64626.3
862.2008	1137.3741	65535	64628.5
862.3457	1139.3226	65535	64627.65
862.4905	1141.2705	65535	64629.1
862.6354	1143.2176	65535	64624.25
862.7803	1145.164	65535	64626.2
862.9251	1147.1097	65535	64628.25
863.07	1149.0546	65535	64627.25
863.2148	1150.9989	65535	64626.55
863.3597	1152.9424	65535	64627.45
863.5045	1154.8852	65535	64628.35
863.6493	1156.8272	65535	64627.25
863.7942	1158.7686	65535	64621.95
863.939	1160.7092	65535	64630.25
864.0838	1162.6491	65535	64627.25
864.2286	1164.5883	65535	64629.4
864.3734	1166.5267	65535	64626.9
864.5182	1168.4644	65535	64627.5
864.663	1170.4014	65535	64622.9
864.8078	1172.3377	65535	64630.55
864.9526	1174.2732	65535	64629.55
865.0974	1176.2081	65535	64628.6
865.2421	1178.1421	65535	64623.15
865.3869	1180.0755	65535	64629.4
865.5317	1182.0082	65535	64630.6
865.6764	1183.9401	65535	64629.4
865.8212	1185.8713	65535	64629.7
865.9659	1187.8017	65535	64631
866.1106	1189.7315	65535	64632.3
866.2554	1191.6605	65535	64601.85
866.4001	1193.5888	65535	64630.95
866.5448	1195.5163	65535	64630.25
866.6895	1197.4432	65535	64629.35
866.8342	1199.3693	65535	64630.65
866.9789	1201.2947	65535	64629.2
867.1236	1203.2193	65535	64628.8
867.2683	1205.1432	65535	64628.4
867.413	1207.0664	65535	64629.25
867.5576	1208.9889	65535	64627.05
867.7023	1210.9106	65535	64629.25
867.847	1212.8316	65535	64628.35
867.9916	1214.7519	65535	64621.35
868.1363	1216.6715	65535	64630.85
868.2809	1218.5903	65535	64628.8
868.4255	1220.5084	65535	64628.65
868.5701	1222.4257	65535	64630.45
868.7148	1224.3424	65535	64629.65
868.8594	1226.2583	65535	64622.3
869.004	1228.1735	65535	64631.35
869.1486	1230.0879	65535	64629.1
869.2932	1232.0016	65535	64630.55
869.4377	1233.9146	65535	64627.15
869.5823	1235.8269	65535	64629.75
869.7269	1237.7384	65535	64629.15
869.8715	1239.6492	65535	64631.2
870.016	1241.5592	65535	64630.1
870.1606	1243.4686	65535	64631.3
870.3051	1245.3772	65535	64631.8
870.4496	1247.285	65535	64628.85
870.5941	1249.1922	65535	64628.4
870.7387	1251.0986	65535	64629.85
870.8832	1253.0042	65535	64630.05
871.0277	1254.9092	65535	64629
871.1722	1256.8134	65535	64631.7
871.3167	1258.7169	65535	64628.55
871.4611	1260.6196	65535	64631.15
871.6056	1262.5216	65535	64629.6
871.7501	1264.4229	65535	64632
871.8945	1266.3234	65535	64630.25
872.039	1268.2232	65535	64628.45
872.1834	1270.1223	65535	64627.2
872.3278	1272.0207	65535	64628.65
872.4723	1273.9183	65535	64622.7
872.6167	1275.8151	65535	64630
872.7611	1277.7113	65535	64629.2
872.9055	1279.6067	65535	64629.2
873.0499	1281.5014	65535	64631.8
873.1943	1283.3953	65535	64626.6
873.3386	1285.2885	65535	64629.45
873.483	1287.181	65535	64629.35
873.6274	1289.0727	65535	64632.1
873.7717	1290.9637	65535	64631
873.9161	1292.854	65535	64631.8
874.0604	1294.7435	65535	64630
874.2047	1296.6323	65535	64627.85
874.349	1298.5204	65535	64628.45
874.4933	1300.4077	65535	64629.5
874.6376	1302.2943	65535	64633.55
874.7819	1304.1802	65535	64630.65
874.9262	1306.0653	65535	64629.6
875.0705	1307.9497	65535	64630.7
875.2147	1309.8333	65535	64628.35
875.359	1311.7162	65535	64630.2
875.5032	1313.5984	65535	64628.5
875.6475	1315.4798	65535	64619.6
875.7917	1317.3605	65535	64615.25
875.9359	1319.2405	65535	64630.45
876.0801	1321.1197	65535	64629.55
876.2243	1322.9982	65535	64626.05
876.3685	1324.876	65535	64631.6
876.5127	1326.753	65535	64627.3
876.6569	1328.6293	65535	64627.95
876.801	1330.5048	65535	64628.05
876.9452	1332.3796	65535	64632.25
877.0893	1334.2537	65535	64604.95
877.2335	1336.127	65535	64630.85
877.3776	1337.9996	65535	64629.4
877.5217	1339.8714	65535	64629.3
877.6658	1341.7426	65535	64588.45
877.8099	1343.6129	65535	64627.65
877.954	1345.4826	65535	64628.85
878.0981	1347.3515	65535	64628.6
878.2422	1349.2196	65535	64630.5
878.3862	1351.087	65535	64628.25
878.5303	1352.9537	65535	64628.45
878.6743	1354.8197	65535	64629.65
878.8184	1356.6849	65535	64627.15
878.9624	1358.5493	65535	64628.95
879.1064	1360.4131	65535	64629.4
879.2504	1362.276	65535	64629.45
879.3944	1364.1383	65535	64630.3
879.5384	1365.9998	65535	64625.3
879.6823	1367.8606	65535	64631
879.8263	1369.7206	65535	64630.25
879.9702	1371.5799	65535	64628.4
880.1142	1373.4384	65535	64628.65
880.2581	1375.2962	65535	64629.55
880.402	1377.1533	65535	64629.55
880.5459	1379.0096	65535	64631.85
880.6898	1380.8652	65535	64631.7
880.8337	1382.7201	65535	64630.35
880.9776	1384.5742	65535	64630.65
881.1215	1386.4275	65535	64628.1
881.2653	1388.2802	65535	64630.55
881.4092	1390.132	65535	64632.1
881.553	1391.9832	65535	64627.35
881.6968	1393.8336	65535	64630
881.8406	1395.6832	65535	64630.3
881.9844	1397.5322	65535	64630.75
882.1282	1399.3803	65535	64625.6
882.272	1401.2278	65535	64631.75
882.4158	1403.0745	65535	64632.75
882.5595	1404.9204	65535	64634.85
882.7033	1406.7656	65535	64632.3
882.847	1408.6101	65535	64628.6
882.9908	1410.4538	65535	64627.6
883.1345	1412.2968	65535	64630.1
883.2782	1414.139	65535	64633
883.4219	1415.9805	65535	64633.55
883.5656	1417.8213	65535	64622.65
883.7092	1419.6613	65535	64629.45
883.8529	1421.5006	65535	64630.95
883.9965	1423.3391	65535	64630.55
884.1402	1425.1769	65535	64631.35
884.2838	1427.0139	65535	64631
884.4274	1428.8502	65535	64629.75
884.571	1430.6858	65535	64633.85
884.7146	1432.5206	65535	64628.85
884.8582	1434.3547	65535	64629.9
885.0018	1436.188	65535	64631.95
885.1453	1438.0206	65535	64632.05
885.2889	1439.8524	65535	64629.6
885.4324	1441.6835	65535	64629.75
885.5759	1443.5139	65535	64626.85
885.7194	1445.3435	65535	64629.95
885.8629	1447.1724	65535	64630.95
886.0064	1449.0005	65535	64630.7
886.1499	1450.8279	65535	64630.5
886.2933	1452.6545	65535	64630.4
886.4368	1454.4804	65535	64634.25
886.5802	1456.3056	65535	64626.05
886.7237	1458.13	65535	64630.5
886.8671	1459.9536	65535	64630.95
887.0105	1461.7766	65535	64631.45
887.1539	1463.5987	65535	64629.15
887.2972	1465.4202	65535	64629.25
887.4406	1467.2409	65535	64629.1
887.584	1469.0608	65535	64633.75
887.7273	1470.88	65535	64630.35
887.8706	1472.6984	65535	64630.85
888.0139	1474.5161	65535	64627.6
888.1572	1476.3331	65535	64632.4
888.3005	1478.1493	65535	64632.35
888.4438	1479.9648	65535	64630.5
888.5871	1481.7795	65535	64628.5
888.7303	1483.5935	65535	64635.4
888.8736	1485.4067	65535	64630.7
889.0168	1487.2192	65535	64629.7
889.16	1489.031	65535	64634
889.3032	1490.842	65535	64630.1
889.4464	1492.6522	65535	64632.9
889.5896	1494.4618	65535	64631
889.7327	1496.2705	65535	64629.4
889.8759	1498.0785	65535	64630.3
890.019	1499.8858	65535	64630.3
890.1622	1501.6924	65535	64630.6
890.3053	1503.4981	65535	64632.65
890.4484	1505.3032	65535	64631.9
890.5914	1507.1075	65535	64631.7
890.7345	1508.911	65535	64633
890.8776	1510.7138	65535	64632.45
891.0206	1512.5159	65535	64633.75
891.1637	1514.3172	65535	64631.25
891.3067	1516.1178	65535	64634.1
891.4497	1517.9176	65535	64629.45
891.5927	1519.7166	65535	64632
891.7357	1521.515	65535	64625.9
891.8786	1523.3126	65535	64630.9
892.0216	1525.1094	65535	64629.45
892.1645	1526.9055	65535	64632.6
892.3074	1528.7008	65535	64631.9
892.4503	1530.4954	65535	64626.5
892.5932	1532.2893	65535	64632.8
892.7361	1534.0824	65535	64628.45
892.879	1535.8747	65535	64633.45
893.0218	1537.6663	65535	64633.55
893.1647	1539.4572	65535	64633.05
893.3075	1541.2473	65535	64633.3
893.4503	1543.0367	65535	64636.2
893.5931	1544.8253	65535	64629.15
893.7359	1546.6132	65535	64630.9
893.8787	1548.4003	65535	64623.95
894.0214	1550.1867	65535	64623.9
894.1642	1551.9723	65535	64630.65
894.3069	1553.7572	65535	64632.15
894.4496	1555.5414	65535	64634.5
894.5923	1557.3247	65535	64632.85
894.735	1559.1074	65535	64634.3
894.8777	1560.8893	65535	64636.15
895.0204	1562.6705	65535	64634.25
895.163	1564.4509	65535	64634.9
895.3056	1566.2305	65535	64636.15
895.4482	1568.0094	65535	64635.1
895.5908	1569.7876	65535	64634.15
895.7334	1571.565	65535	64636.1
895.876	1573.3417	65535	64635.4
896.0186	1575.1176	65535	64634.8
896.1611	1576.8928	65535	64635.4
896.3036	1578.6672	65535	64637.4
896.4461	1580.4409	65535	64638.65
896.5886	1582.2138	65535	64631.2
896.7311	1583.986	65535	64636.4
896.8736	1585.7575	65535	64637.1
897.0161	1587.5282	65535	64636.75
897.1585	1589.2981	65535	64638.65
897.3009	1591.0673	65535	64634.7
897.4433	1592.8358	65535	64635.55
897.5857	1594.6035	65535	64633.7
897.7281	1596.3704	65535	64638.05
897.8705	1598.1366	65535	64638.3
898.0128	1599.9021	65535	64637.3
898.1551	1601.6668	65535	64634.8
898.2975	1603.4308	65535	64635.05
898.4398	1605.194	65535	64630.6
898.5821	1606.9564	65535	64637.7
898.7243	1608.7182	65535	64635.75
898.8666	1610.4791	65535	64639.1
899.0088	1612.2394	65535	64640.5
899.1511	1613.9988	65535	64637.2
899.2933	1615.7576	65535	64637.65
899.4355	1617.5156	65535	64631.45
899.5776	1619.2728	65535	64638.6
899.7198	1621.0293	65535	64638.55
899.862	1622.785	65535	64632.85
900.0041	1624.54	65535	64633.2
900.1462	1626.2942	65535	64635.7
900.2883	1628.0477	65535	64635.25
900.4304	1629.8005	65531.65	64631.75
900.5725	1631.5525	65535	64638.1
900.7145	1633.3037	65530.65	64633
900.8566	1635.0542	65526.65	64630
900.9986	1636.804	65535	64636.4
901.1406	1638.553	65512.95	64532.65
901.2826	1640.3013	65523.55	64625.55
901.4245	1642.0488	65492.9	64595.3
901.5665	1643.7955	65523.95	64628.65
901.7085	1645.5416	65509.1	64611.85
901.8504	1647.2868	65445.15	64548.1
901.9923	1649.0313	65519.5	64622.2
902.1342	1650.7751	65496.9	64597
902.2761	1652.5181	65441.75	64545.3
902.4179	1654.2604	65464.85	64567.8
902.5598	1656.0019	65483.25	64588.9
902.7016	1657.7427	65465.7	64570.55
902.8434	1659.4828	65516.05	64619.25
902.9852	1661.222	65450.15	64552.85
903.127	1662.9606	65520	64623.7
903.2687	1664.6984	65437.2	64540.95
903.4105	1666.4354	65486.9	64589.95
903.5522	1668.1717	65331.4	64434.45
903.6939	1669.9072	64982.9	64087.2
903.8356	1671.642	65038.25	64138.55
903.9773	1673.3761	64912.2	64015.05
904.119	1675.1094	64829.3	63932.85
904.2606	1676.8419	64134.9	63237.35
904.4022	1678.5737	64479.55	63582.2
904.5439	1680.3048	64186.1	63291.25
904.6855	1682.0351	63889.3	62994.85
904.827	1683.7646	63600.8	62701.6
904.9686	1685.4934	63976.25	63081.15
905.1101	1687.2215	62337.8	61440.35
905.2517	1688.9488	63548.75	62652.1
905.3932	1690.6754	61151.7	60256
905.5347	1692.4012	62398.5	61502.1
905.6761	1694.1263	62627	61730.85
905.8176	1695.8506	61462.45	60564.05
905.9591	1697.5742	61628	60733
906.1005	1699.297	61366.4	60469.95
906.2419	1701.0191	61556.65	60660.75
906.3833	1702.7404	60365.25	59471.9
906.5246	1704.461	59966.55	59072.05
906.666	1706.1808	60624.7	59725.65
906.8073	1707.8999	60276.6	59382
906.9487	1709.6182	59917.95	59022.1
907.09	1711.3358	59869.8	58972.7
907.2313	1713.0527	59671.8	58777.95
907.3725	1714.7688	59754.65	58854.1
907.5138	1716.4841	58590.1	57692.35
907.655	1718.1987	58992.95	58092.05
907.7962	1719.9126	58678.95	57785.15
907.9374	1721.6257	58837.8	57940.45
908.0786	1723.338	58847.85	57951.05
908.2198	1725.0496	57612.55	56716.45
908.3609	1726.7605	57749.25	56854.8
908.502	1728.4706	57388.95	56493.9
908.6431	1730.18	57642.25	56747.4
908.7842	1731.8886	57235.75	56339.9
908.9253	1733.5964	56827.55	55912.55
909.0664	1735.3036	57344.25	56447.95
909.2074	1737.0099	56876.5	55981.55
909.3484	1738.7156	56367	55475.55
909.4894	1740.4204	56237.3	55338.45
909.6304	1742.1246	56337.4	55441.25
909.7714	1743.8279	56324.85	55429.95
909.9123	1745.5306	56333.95	55440
910.0532	1747.2325	55287.4	54394.55
910.1941	1748.9336	55296.05	54403.05
910.335	1750.634	55291.15	54394.4
910.4759	1752.3336	55613.55	54717.6
910.6168	1754.0325	54914.75	54021.05
910.7576	1755.7307	55304.7	54410.3
910.8984	1757.4281	54667.5	53772.45
911.0392	1759.1247	54986.35	54082.9
911.18	1760.8206	54314.45	53416.8
911.3208	1762.5158	54390.7	53491.9
911.4615	1764.2102	54321.4	53427.3
911.6022	1765.9039	54055.35	53161.25
911.7429	1767.5968	53971.65	53079.8
911.8836	1769.289	53732.6	52838.3
912.0243	1770.9804	53704.35	52809.5
912.1649	1772.6711	53557.65	52661.55
912.3056	1774.361	53356	52459.75
912.4462	1776.0502	53291.3	52397.3
912.5868	1777.7386	52959.05	52061.05
912.7274	1779.4263	52915.35	52020.95
912.8679	1781.1132	52903.7	52010
913.0084	1782.7994	52634.5	51738.95
913.149	1784.4849	52706.8	51810.7
913.2895	1786.1696	52182.05	51282
913.4299	1787.8535	52185.95	51294.35
913.5704	1789.5367	52127.4	51234.65
913.7108	1791.2192	51875.15	50981.55
913.8513	1792.9009	51762.2	50835.55
913.9917	1794.5818	51668.95	50771.8
914.132	1796.2621	51474.65	50582.5
914.2724	1797.9415	51353.15	50458.7
914.4128	1799.6202	51196.3	50302.65
914.5531	1801.2982	51176.05	50280.75
914.6934	1802.9755	50888.05	49993.85
914.8337	1804.6519	50819.05	49925.75
914.9739	1806.3277	50669.1	49776.35
915.1142	1808.0027	50214.65	49323.8
915.2544	1809.6769	50273.75	49380.55
915.3946	1811.3504	50207.8	49312
915.5348	1813.0231	49898.7	49003.95
915.675	1814.6951	49982.65	49089.45
915.8151	1816.3664	49915.45	49018.5
915.9553	1818.0369	49757.1	48861.35
916.0954	1819.7067	49554.7	48661.35
916.2355	1821.3757	49613.9	48718.95
916.3755	1823.044	49300.05	48404
916.5156	1824.7115	49134.1	48239.35
916.6556	1826.3783	48943.2	48049.45
916.7956	1828.0443	48831.75	47938.75
916.9356	1829.7096	48679.25	47784.5
917.0756	1831.3741	48578.15	47681.3
917.2155	1833.0379	48447.6	47554.6
917.3555	1834.701	48331.75	47435.95
917.4954	1836.3633	48205.4	47310.95
917.6353	1838.0248	48098.95	47204.1
917.7751	1839.6856	47979.8	47086.9
917.915	1841.3457	47879.65	46986.3
918.0548	1843.005	47761.2	46868.25
918.1946	1844.6636	47649.65	46756.7
918.3344	1846.3214	47480.55	46586.55
918.4742	1847.9785	47522.8	46630.05
918.6139	1849.6349	47299.1	46404.45
918.7537	1851.2904	47234.4	46332.55
918.8934	1852.9453	47096.05	46200.55
919.0331	1854.5994	46897.1	46000.25
919.1727	1856.2528	46943.85	46045.3
919.3124	1857.9054	46746.9	45855.55
919.452	1859.5572	46660.1	45768.8
919.5916	1861.2083	46579.05	45684.2
919.7312	1862.8587	46593.1	45698.55
919.8708	1864.5084	46313.05	45418.5
920.0103	1866.1572	46151.85	45258.45
920.1498	1867.8054	45928.95	45032.85
920.2893	1869.4528	45902.15	45006.85
920.4288	1871.0994	45719.55	44824.25
920.5683	1872.7453	45658.35	44764.25
920.7077	1874.3905	45543.25	44643
920.8471	1876.0349	45410	44515.4
920.9865	1877.6786	45341.75	44447.15
921.1259	1879.3215	45265.95	44373.85
921.2653	1880.9637	45128.7	44230.85
921.4046	1882.6051	45075.75	44180.5
921.5439	1884.2458	44907	44009.95
921.6832	1885.8858	44679.55	43783.9
921.8225	1887.525	44660.4	43766.05
921.9617	1889.1634	44430.05	43536.6
922.101	1890.8011	44276.3	43383.05
922.2402	1892.4381	44126.85	43235.25
922.3794	1894.0743	44157.2	43262.45
922.5185	1895.7098	43962.25	43069.85
922.6577	1897.3446	43857.65	42963.65
922.7968	1898.9786	43711.7	42814.45
922.9359	1900.6118	43604.15	42712.55
923.075	1902.2443	43342.75	42447.55
923.214	1903.8761	43260.3	42367.1
923.3531	1905.5071	43032.05	42137.4
923.4921	1907.1374	42830.65	41936.1
923.6311	1908.7669	42853.3	41960.1
923.77	1910.3957	42752.3	41859.65
923.909	1912.0237	42446.5	41554.1
924.0479	1913.651	42346	41449.6
924.1868	1915.2776	42249.55	41357.1
924.3257	1916.9034	42045.65	41153.1
924.4646	1918.5285	41858.5	40965.85
924.6034	1920.1528	41668.4	40777.6
924.7422	1921.7764	41658.1	40767
924.881	1923.3992	41495.1	40602.4
925.0198	1925.0213	41196.95	40303.1
925.1586	1926.6427	40989.65	40099.05
925.2973	1928.2633	41023.15	40012.35
925.436	1929.8832	40808.2	39914.55
925.5747	1931.5023	40600.05	39705.55
925.7134	1933.1207	40545.45	39653.45
925.852	1934.7383	40414.1	39520.15
925.9906	1936.3552	40238.25	39348.8
926.1292	1937.9714	40135.1	39242.75
926.2678	1939.5868	39999.05	39103.6
926.4064	1941.2015	39771.95	38878.3
926.5449	1942.8154	39654.3	38758.35
926.6834	1944.4286	39439.15	38544.1
926.8219	1946.041	39244.15	38331.95
926.9604	1947.6528	39043.65	38146.7
927.0988	1949.2637	39038.95	38146.3
927.2372	1950.8739	38822.8	37928.7
927.3756	1952.4834	38792.5	37899.3
927.514	1954.0921	38643.15	37750.55
927.6523	1955.7001	38477.7	37579.7
927.7907	1957.3074	38385.35	37494.2
927.929	1958.9139	38206.85	37316.6
928.0673	1960.5197	38101.65	37205.7
928.2055	1962.1247	37940.7	37047.5
928.3438	1963.729	37743.15	36850.75
928.482	1965.3325	37592.85	36677.85
928.6202	1966.9353	37466.15	36574.35
928.7584	1968.5374	37354.9	36460.7
928.8965	1970.1387	37202.1	36308.8
929.0346	1971.7393	37036.9	36144.6
929.1727	1973.3392	36941.55	36046.35
929.3108	1974.9383	36870.35	35978.85
929.4489	1976.5366	36612.3	35721.45
929.5869	1978.1342	36566.8	35673.7
929.7249	1979.7311	36458.8	35565.45
929.8629	1981.3273	36342	35448.35
930.0009	1982.9227	36263.55	35370.55
930.1388	1984.5173	36045.45	35154.9
930.2767	1986.1112	35952.65	35062.35
930.4146	1987.7044	35848.45	34955.75
930.5525	1989.2968	35745.05	34852.2
930.6904	1990.8885	35691.1	34794.8
930.8282	1992.4795	35559.45	34665.3
930.966	1994.0697	35383.2	34490.9
931.1038	1995.6592	35241.6	34350.65
931.2415	1997.2479	35114.9	34224.2
931.3793	1998.8359	35051.3	34157
931.517	2000.4232	34842.65	33952.15
931.6547	2002.0097	34735.65	33845.35
931.7923	2003.5955	34605.5	33712.7
931.93	2005.1805	34570.1	33676.95
932.0676	2006.7648	34411.2	33521.1
932.2052	2008.3484	34278.6	33385.75
932.3427	2009.9312	34318.35	33426.2
932.4803	2011.5133	34143.9	33254.15
932.6178	2013.0946	34043.95	33153.15
932.7553	2014.6752	33920.3	33031.95
932.8928	2016.2551	33839.7	32947.4
933.0302	2017.8342	33651.1	32760.55
933.1676	2019.4126	33513.35	32624.7
933.305	2020.9902	33401.95	32513.1
933.4424	2022.5672	33337.95	32446.45
933.5798	2024.1433	33241.7	32344.15
933.7171	2025.7188	33138.95	32247.65
933.8544	2027.2935	33047.35	32156.5
933.9917	2028.8674	32885.45	31995.4
934.129	2030.4406	32766.3	31875.9
934.2662	2032.0131	32594.15	31703.1
934.4034	2033.5849	32510.05	31616.65
934.5406	2035.1559	32429.35	31538.65
934.6778	2036.7261	32382.65	31490.85
934.8149	2038.2957	32256.05	31364.3
934.952	2039.8645	32238.6	31349.1
935.0891	2041.4325	32224.55	31331.4
935.2262	2042.9998	32000.5	31110.5
935.3632	2044.5664	31927.85	31037.25
935.5002	2046.1323	31838.55	30947.65
935.6372	2047.6974	31733.9	30843.45
935.7742	2049.2617	31613.4	30724.05
935.9111	2050.8254	31594.7	30683.35
936.048	2052.3883	31524.8	30633.2
936.1849	2053.9504	31421.4	30528.05
936.3218	2055.5118	31273.9	30379.9
936.4586	2057.0725	31136.25	30241.65
936.5955	2058.6325	31068.25	30176.6
936.7323	2060.1917	30954.95	30064.6
936.869	2061.7502	30854.45	29960.7
937.0058	2063.3079	30720.7	29831.55
937.1425	2064.8649	30618.6	29723.5
937.2792	2066.4212	30543.3	29650.95
937.4159	2067.9767	30468.15	29578.7
937.5525	2069.5315	30324.15	29432.2
937.6891	2071.0856	30197.1	29306.75
937.8257	2072.6389	30080.95	29188.75
937.9623	2074.1915	29945.65	29056.2
938.0989	2075.7433	29754.3	28862.2
938.2354	2077.2945	29731.15	28840.05
938.3719	2078.8448	29622.5	28730.95
938.5084	2080.3945	29532.3	28640.9
938.6448	2081.9434	29482	28590.05
938.7812	2083.4916	29331.75	28438.95
938.9176	2085.039	29272.5	28379.7
939.054	2086.5857	29212.85	28320.3
939.1903	2088.1317	29141.35	28248.85
939.3267	2089.677	28983.4	28091.35
939.463	2091.2215	28979.1	28084.85
939.5992	2092.7652	28850.65	27956.4
939.7355	2094.3083	28732.25	27839.3
939.8717	2095.8506	28684.85	27793.05
940.0079	2097.3921	28669.05	27778.8
940.1441	2098.933	28523.15	27633.1
940.2802	2100.4731	28469.9	27578.45
940.4163	2102.0124	28380.45	27482.6
940.5524	2103.5511	28284.1	27391.75
940.6885	2105.089	28319.15	27426.8
940.8245	2106.6261	28160.55	27269.75
940.9606	2108.1626	28051.8	27159.35
941.0965	2109.6983	28040	27119.6
941.2325	2111.2332	27924.5	27032.2
941.3684	2112.7675	27854.35	26962.5
941.5044	2114.301	27738.8	26845.1
941.6403	2115.8337	27737.05	26844.25
941.7761	2117.3657	27624.65	26733.05
941.912	2118.897	27599.4	26706.15
942.0478	2120.4276	27490.45	26592.7
942.1835	2121.9575	27315.85	26423.75
942.3193	2123.4866	27341.3	26435.5
942.455	2125.0149	27203.15	26308.05
942.5907	2126.5426	27069.2	26177.95
942.7264	2128.0695	27011.15	26116
942.8621	2129.5956	26914.95	26027.5
942.9977	2131.1211	26872.85	25976.75
943.1333	2132.6458	26793.85	25902.25
943.2689	2134.1698	26702.9	25809.7
943.4044	2135.693	26622.85	25726.7
943.54	2137.2155	26541.1	25645.8
943.6755	2138.7373	26492.95	25601.4
943.8109	2140.2584	26391.3	25499.35
943.9464	2141.7787	26299.15	25404.45
944.0818	2143.2983	26177.2	25288.1
944.2172	2144.8171	26037.15	25147.4
944.3526	2146.3353	26000.55	25108.2
944.4879	2147.8527	25867.05	24977.1
944.6232	2149.3693	25870.45	24978.8
944.7585	2150.8853	25734.1	24841.4
944.8938	2152.4005	25620.05	24728.15
945.029	2153.9149	25519.75	24628.1
945.1642	2155.4287	25462.3	24572.05
945.2994	2156.9417	25451.1	24558.95
945.4346	2158.454	25330.7	24436
945.5697	2159.9655	25262.25	24371.05
945.7048	2161.4764	25245.9	24353.9
945.8399	2162.9865	25143.6	24252.65
945.9749	2164.4958	25062.45	24170.6
946.1099	2166.0045	24974.2	24078.9
946.2449	2167.5124	24923.2	24033.15
946.3799	2169.0195	24882.2	23992.15
946.5148	2170.526	24796.9	23907.1
946.6498	2172.0317	24729.8	23839.3
946.7846	2173.5367	24618.9	23725.65
946.9195	2175.0409	24586.35	23695
947.0543	2176.5445	24551.6	23661.2
947.1891	2178.0473	24458	23564.85
947.3239	2179.5494	24320	23426.55
947.4587	2181.0507	24259.8	23365.75
947.5934	2182.5513	24150.9	23259.2
947.7281	2184.0512	24106.4	23215.9
947.8628	2185.5504	24004.25	23113.7
947.9974	2187.0488	23846.3	22955.2
948.132	2188.5465	23781.05	22887.2
948.2666	2190.0435	23743.05	22852.2
948.4012	2191.5397	23639.3	22748
948.5357	2193.0353	23518	22626.35
948.6702	2194.5301	23426.65	22533.65
948.8047	2196.0241	23370.2	22477.65
948.9392	2197.5175	23307.65	22415.1
949.0736	2199.0101	23200.6	22304.15
949.208	2200.502	23053.25	22164
949.3424	2201.9931	22997.45	22106
949.4767	2203.4835	22908.6	22017.05
949.611	2204.9733	22887.6	21989.9
949.7453	2206.4622	22808.25	21917.15
949.8796	2207.9505	22696.4	21800.85
950.0138	2209.438	22595.15	21704.4
950.148	2210.9248	22516.85	21623.6
950.2822	2212.4109	22430.65	21539.5
950.4164	2213.8962	22357.4	21463.35
950.5505	2215.3809	22304.55	21411.1
950.6846	2216.8648	22231.35	21338.85
950.8186	2218.3479	22154.3	21258.35
950.9527	2219.8304	22027.7	21134.75
951.0867	2221.3121	21971	21075.55
951.2207	2222.7931	21880.65	20990.75
951.3546	2224.2733	21810.65	20917.85
951.4886	2225.7529	21746.95	20855.3
951.6225	2227.2317	21691.75	20794.6
951.7563	2228.7098	21667.15	20775.2
951.8902	2230.1872	21501.9	20612.4
952.024	2231.6638	21448.35	20557.65
952.1578	2233.1397	21382.6	20483.9
952.2916	2234.6149	21321.75	20431.05
952.4253	2236.0894	21239.7	20346.4
952.559	2237.5632	21227.75	20327.1
952.6927	2239.0362	21103.6	20210
952.8263	2240.5085	21023.8	20130.2
952.9599	2241.9801	20945.7	20053.25
953.0935	2243.4509	20894.9	20003.6
953.2271	2244.921	20803.35	19911.65
953.3606	2246.3904	20739.7	19846.9
953.4941	2247.8591	20659.7	19767.65
953.6276	2249.3271	20583	19691.2
953.7611	2250.7943	20544.65	19651.85
953.8945	2252.2608	20429.3	19538
954.0279	2253.7266	20376.2	19486.35
954.1612	2255.1917	20364.9	19473.45
954.2946	2256.656	20230.9	19338.3
954.4279	2258.1197	20192	19302.7
954.5612	2259.5826	20148.05	19254.6
954.6944	2261.0447	20093.85	19201.15
954.8276	2262.5062	19969.4	19075.25
954.9608	2263.9669	19954	19060.15
955.094	2265.4269	19879.85	18987.35
955.2271	2266.8862	19802.2	18910.65
955.3602	2268.3448	19784.75	18894.35
955.4933	2269.8026	19725.55	18833.45
955.6264	2271.2598	19645.75	18753.95
955.7594	2272.7162	19579.8	18688.6
955.8924	2274.1719	19513.75	18622.6
956.0253	2275.6268	19435.15	18544.65
956.1583	2277.0811	19430.7	18537.8
956.2912	2278.5346	19340.75	18450.6
956.4241	2279.9874	19278.3	18387.6
956.5569	2281.4395	19271.7	18381.65
956.6897	2282.8908	19163.85	18267.75
956.8225	2284.3414	19150.95	18259
956.9553	2285.7914	19039.65	18148.3
957.088	2287.2406	18971.6	18079.25
957.2207	2288.689	18935.7	18043.25
957.3534	2290.1368	18881.45	17986.75
957.486	2291.5838	18812.8	17918.5
957.6186	2293.0302	18768.35	17875.3
957.7512	2294.4758	18651.85	17758.75
957.8838	2295.9206	18596.7	17706.05
958.0163	2297.3648	18536.7	17646.15
958.1488	2298.8082	18541.8	17650.3
958.2813	2300.251	18464.4	17573.25
958.4137	2301.693	18366.55	17471.85
958.5461	2303.1343	18355.4	17462.9
958.6785	2304.5748	18243.4	17349.95
958.8108	2306.0147	18176.15	17282.7
958.9432	2307.4538	18161	17266.15
959.0754	2308.8922	18115.65	17228.6
959.2077	2310.3299	18007.3	17115.65
959.3399	2311.7669	17937.5	17047.85
959.4721	2313.2031	17905.75	17014.1
959.6043	2314.6387	17844.15	16952.05
959.7365	2316.0735	17786.45	16893.15
959.8686	2317.5076	17761.9	16868.75
960.0006	2318.941	17681	16786.25
960.1327	2320.3737	17635.35	16743.3
960.2647	2321.8056	17584.1	16690.5
960.3967	2323.2369	17486.8	16593.9
960.5287	2324.6674	17476.15	16581.4
960.6606	2326.0972	17383.45	16489.65
960.7925	2327.5263	17320.45	16428.6
960.9244	2328.9547	17265.05	16372.35
961.0562	2330.3823	17225.75	16332.05
961.1881	2331.8092	17242.85	16350
961.3198	2333.2355	17076.55	16184.5
961.4516	2334.661	17042.15	16149.95
961.5833	2336.0858	17036.35	16141.05
961.715	2337.5098	16966.2	16074.15
961.8467	2338.9332	16944.9	16051.9
961.9783	2340.3558	16882.55	15988.9
962.1099	2341.7778	16817.8	15925.25
962.2415	2343.199	16723.4	15830.5
962.373	2344.6195	16699.95	15807.9
962.5045	2346.0393	16630.55	15739.2
962.636	2347.4583	16618.05	15724.15
962.7675	2348.8767	16557.15	15664.6
962.8989	2350.2943	16498.85	15607.05
963.0303	2351.7113	16456.5	15562.25
963.1617	2353.1275	16405	15512.5
963.293	2354.543	16331.55	15431.1
963.4243	2355.9578	16285.25	15393.3
963.5556	2357.3718	16157.1	15266
963.6868	2358.7852	16106.85	15212.75
963.818	2360.1978	16077.1	15184.85
963.9492	2361.6098	16061.95	15172.8
964.0803	2363.021	16003.55	15108.05
964.2114	2364.4315	15970.4	15079.55
964.3425	2365.8413	15871.7	14979.45
964.4736	2367.2504	15817.95	14925.85
964.6046	2368.6587	15742.7	14851
964.7356	2370.0664	15649.35	14758.75
964.8666	2371.4733	15605.3	14715.9
964.9975	2372.8795	15558.4	14666.75
965.1284	2374.285	15478.8	14586.7
965.2593	2375.6899	15388.4	14500
965.3901	2377.0939	15360.4	14470.3
965.5209	2378.4973	15309.55	14418.4
965.6517	2379.9	15250.7	14359.35
965.7825	2381.3019	15187.75	14297.15
965.9132	2382.7032	15148.45	14257.05
966.0439	2384.1037	15081.45	14189.9
966.1745	2385.5035	15007.6	14116.65
966.3051	2386.9027	14959.2	14068.4
966.4357	2388.3011	14934.05	14040.85
966.5663	2389.6987	14884.2	13992.9
966.6968	2391.0957	14804.05	13914.5
966.8273	2392.492	14776.15	13887.65
966.9578	2393.8876	14676.3	13784.95
967.0882	2395.2824	14599.9	13710.25
967.2186	2396.6765	14541.65	13652.4
967.349	2398.07	14469.75	13580
967.4793	2399.4627	14444.15	13551.75
967.6097	2400.8547	14408.05	13517.15
967.7399	2402.246	14329.7	13433.45
967.8702	2403.6366	14280.95	13389.35
968.0004	2405.0265	14226.9	13336.6
968.1306	2406.4156	14146.55	13254.15
968.2607	2407.8041	14080.1	13186.25
968.3909	2409.1918	14050.55	13155.95
968.521	2410.5789	13983.8	13093.75
968.651	2411.9652	13945.5	13051.05
968.781	2413.3508	13877.65	12986.4
968.911	2414.7358	13827.45	12936
969.041	2416.12	13777.8	12889.25
969.1709	2417.5035	13754.95	12864.6
969.3008	2418.8863	13706.45	12812
969.4307	2420.2684	13662.15	12770.4
969.5606	2421.6497	13574.8	12682.3
969.6904	2423.0304	13540	12650.25
969.8201	2424.4104	13469.2	12579.25
969.9499	2425.7896	13433.05	12538.6
970.0796	2427.1682	13395.2	12506.05
970.2093	2428.546	13361.35	12470
970.3389	2429.9232	13329.3	12435.1
970.4685	2431.2996	13272	12382.5
970.5981	2432.6753	13265.85	12374.2
970.7277	2434.0503	13211.65	12321.3
970.8572	2435.4246	13143.05	12253
970.9867	2436.7982	13102.3	12208.1
971.1161	2438.1711	13064	12173.9
971.2456	2439.5433	13039.1	12145.7
971.375	2440.9148	12967.2	12068.15
971.5043	2442.2856	12889.2	11997.75
971.6336	2443.6557	12880.65	11987.7
971.7629	2445.025	12819.9	11927.45
971.8922	2446.3937	12787.05	11895.6
972.0214	2447.7617	12741.15	11849.8
972.1506	2449.1289	12728.75	11838.6
972.2798	2450.4955	12674.5	11779.5
972.4089	2451.8613	12635.15	11743.9
972.538	2453.2265	12599.4	11707.4
972.6671	2454.5909	12572.15	11680.35
972.7961	2455.9546	12508.75	11620.35
972.9251	2457.3177	12458.9	11567.85
973.0541	2458.68	12415.95	11522.75
973.1831	2460.0416	12404.15	11513.2
973.312	2461.4025	12388.25	11495.55
973.4408	2462.7627	12354.7	11451.7
973.5697	2464.1222	12324.85	11434.2
973.6985	2465.4811	12255.75	11364.75
973.8273	2466.8392	12229.65	11339.2
973.956	2468.1966	12180.9	11287.2
974.0847	2469.5533	12151.45	11257.2
974.2134	2470.9093	12121.05	11226.7
974.3421	2472.2645	12072.2	11179.65
974.4707	2473.6191	12042.55	11150.5
974.5993	2474.973	11995.15	11103.2
974.7278	2476.3262	11960.7	11069.6
974.8563	2477.6787	11901.35	11011.1
974.9848	2479.0305	11830.3	10939.7
975.1132	2480.3816	11825.15	10931.95
975.2417	2481.7319	11776.4	10885.8
975.37	2483.0816	11715.05	10822.25
975.4984	2484.4306	11671.5	10778.35
975.6267	2485.7789	11616.95	10725.65
975.755	2487.1264	11575.9	10683.45
975.8833	2488.4733	11519.9	10631.45
976.0115	2489.8195	11502.65	10596.2
976.1397	2491.165	11448.6	10552.8
976.2678	2492.5097	11390.25	10495.35
976.3959	2493.8538	11354.9	10465.25
976.524	2495.1972	11324	10433.15
976.6521	2496.5398	11285.2	10392.65
976.7801	2497.8818	11235.55	10341.05
976.9081	2499.2231	11202.35	10310.3
977.036	2500.5637	11150.55	10258
977.164	2501.9035	11099.8	10206.4
977.2918	2503.2427	11069.35	10174.3
977.4197	2504.5812	11028.45	10137
977.5475	2505.919	11003.35	10109.3
977.6753	2507.256	10989	10098.1
977.8031	2508.5924	10926.75	10033.8
977.9308	2509.9281	10881.9	9985.2
978.0585	2511.2631	10844.9	9952.65
978.1861	2512.5974	10803.85	9912.2
978.3137	2513.9309	10767.45	9876.35
978.4413	2515.2638	10746.55	9827.2
978.5689	2516.596	10723.6	9833.9
978.6964	2517.9275	10672.55	9779.05
978.8239	2519.2583	10631.2	9738.35
978.9513	2520.5884	10575.2	9683.1
979.0788	2521.9178	10532.9	9642.35
979.2062	2523.2465	10489.05	9599.45
979.3335	2524.5745	10463.8	9573.35
979.4608	2525.9018	10410.1	9518.65
979.5881	2527.2284	10396.15	9506.45
979.7154	2528.5543	10355.1	9464.9
979.8426	2529.8796	10345.7	9455.65
979.9698	2531.2041	10332.85	9443.2
980.0969	2532.5279	10299.75	9408.6
980.224	2533.851	10269.2	9377.25
980.3511	2535.1735	10233.9	9342.55
980.4781	2536.4952	10208.4	9318.5
980.6052	2537.8163	10182.65	9290.75
980.7321	2539.1366	10128.7	9236.9
980.8591	2540.4562	10101.85	9210.65
980.986	2541.7752	10114.4	9222.25
981.1129	2543.0935	10064.45	9175.45
981.2397	2544.411	10045.6	9153.65
981.3665	2545.7279	10007.85	9117.9
981.4933	2547.0441	9993.55	9103.2
981.62	2548.3596	9985.8	9089.15
981.7467	2549.6744	9922.7	9033.1
981.8734	2550.9885	9924.4	9028.85
982.0001	2552.3019	9885.95	8994.1
982.1267	2553.6146	9847.05	8955
982.2532	2554.9266	9817.55	8926.45
982.3798	2556.2379	9793.95	8899.85
982.5063	2557.5485	9776.3	8887.55
982.6327	2558.8585	9752.85	8854.3
982.7592	2560.1677	9716.8	8821.35
982.8856	2561.4762	9712.65	8818.75
983.0119	2562.7841	9691.95	8796.85
983.1383	2564.0913	9649.4	8758.8
983.2646	2565.3977	9635.15	8744.2
983.3908	2566.7035	9595.15	8705.2
983.517	2568.0086	9595	8704.05
983.6432	2569.313	9565.15	8671.65
983.7694	2570.6167	9532.15	8638.4
983.8955	2571.9197	9487.6	8596.95
984.0216	2573.222	9486	8592.15
984.1476	2574.5236	9473.9	8579.65
984.2737	2575.8246	9419.9	8524.75
984.3996	2577.1248	9418.05	8524.6
984.5256	2578.4244	9413.4	8522.35
984.6515	2579.7232	9380.4	8490.3
984.7774	2581.0214	9376.6	8463.25
984.9032	2582.3189	9340.75	8451
985.029	2583.6157	9311.9	8415.9
985.1548	2584.9118	9284.9	8392.45
985.2806	2586.2072	9262.35	8371.35
985.4063	2587.5019	9239.5	8347.55
985.5319	2588.7959	9207.55	8315.7
985.6576	2590.0893	9200.75	8306.65
985.7832	2591.3819	9166.25	8277.05
985.9087	2592.6739	9115.65	8226.1
986.0343	2593.9652	9112.1	8220.5
986.1597	2595.2557	9079.95	8188.45
986.2852	2596.5456	9044.8	8151.2
986.4106	2597.8348	9014.6	8122.95
986.536	2599.1234	8964.3	8073
986.6614	2600.4112	8955.75	8064.15
986.7867	2601.6983	8937.5	8040.9
986.912	2602.9848	8897.25	8005.5
987.0372	2604.2705	8862.95	7965.55
987.1624	2605.5556	8832.15	7938.35
987.2876	2606.84	8781.85	7889.75
987.4128	2608.1237	8786.95	7894.75
987.5379	2609.4067	8710.3	7820.2
987.6629	2610.689	8708.15	7808.1
987.788	2611.9707	8667.25	7772.05
987.913	2613.2516	8633.95	7738.55
988.0379	2614.5319	8573.3	7681.15
988.1629	2615.8115	8560.75	7669.45
988.2878	2617.0903	8531.8	7639.95
988.4126	2618.3685	8498.2	7606.45
988.5375	2619.6461	8457.1	7567.3
988.6622	2620.9229	8440.4	7547.9
988.787	2622.199	8418.3	7523.6
988.9117	2623.4745	8393.35	7500.5
989.0364	2624.7493	8359.6	7468.45
989.161	2626.0234	8334.65	7442.95
989.2857	2627.2968	8298.7	7407.95
989.4102	2628.5695	8270.75	7378.35
989.5348	2629.8415	8225.35	7334.05
989.6593	2631.1128	8194.45	7300
989.7837	2632.3835	8160.3	7268.7
989.9082	2633.6535	8151	7258.4
990.0326	2634.9228	8107.05	7217.8
990.1569	2636.1914	8078.65	7186.4
990.2812	2637.4593	8055.2	7163.45
990.4055	2638.7265	8003.45	7111.25
990.5298	2639.9931	7983.5	7092.1
990.654	2641.259	7992.5	7101.45
990.7782	2642.5242	7949.2	7056.6
990.9023	2643.7887	7919.5	7028.6
991.0264	2645.0525	7896.8	7007.05
991.1505	2646.3156	7878.85	6986.25
991.2745	2647.5781	7824.15	6933
991.3985	2648.8398	7834.15	6945.25
991.5225	2650.1009	7797.95	6899.1
991.6464	2651.3613	7780.3	6889.15
991.7703	2652.6211	7741.5	6849.2
991.8942	2653.8801	7737.75	6847.4
992.018	2655.1385	7724.65	6830.55
992.1418	2656.3961	7680.25	6787.4
992.2655	2657.6531	7692.25	6801.2
992.3892	2658.9094	7622.6	6729.9
992.5129	2660.1651	7632.6	6741.35
992.6366	2661.42	7607.4	6716.15
992.7602	2662.6743	7598.4	6706.15
992.8837	2663.9279	7566.15	6674.95
993.0073	2665.1808	7540.85	6649.25
993.1307	2666.433	7522.35	6630.55
993.2542	2667.6846	7503.7	6612.9
993.3776	2668.9354	7481.65	6584.35
993.501	2670.1856	7450.25	6557.85
993.6244	2671.4351	7448.1	6557.45
993.7477	2672.6839	7419.85	6528.1
993.8709	2673.9321	7392.5	6500.8
993.9942	2675.1795	7400.9	6510.1
994.1174	2676.4263	7359.2	6470.55
994.2405	2677.6724	7326.4	6434.85
994.3637	2678.9179	7310.5	6417.4
994.4868	2680.1626	7282.1	6391.4
994.6098	2681.4067	7253.6	6361.55
994.7328	2682.6501	7259	6366.3
994.8558	2683.8928	7210.5	6319.25
994.9788	2685.1348	7188.6	6297.15
995.1017	2686.3761	7174.8	6285
995.2245	2687.6168	7125.2	6234.7
995.3474	2688.8568	7118.25	6227.15
995.4702	2690.0961	7079.85	6190.4
995.5929	2691.3348	7077.45	6187.9
995.7156	2692.5727	7045.5	6152.8
995.8383	2693.81	7008.1	6114.75
995.961	2695.0466	6994.75	6106.1
996.0836	2696.2826	6987.25	6093.85
996.2062	2697.5178	6972.6	6079.3
996.3287	2698.7524	6956.1	6064.85
996.4512	2699.9863	6932.9	6039.65
996.5737	2701.2195	6902.75	6013.5
996.6961	2702.452	6874.25	5981.7
996.8185	2703.6839	6839.15	5946.45
996.9408	2704.9151	6830.35	5940.2
997.0631	2706.1456	6813.15	5920.4
997.1854	2707.3755	6799.65	5907
997.3077	2708.6046	6791.95	5898.6
997.4299	2709.8331	6758.75	5866.25
997.552	2711.0609	6745.85	5854.3
997.6742	2712.2881	6733.4	5843.15
997.7963	2713.5145	6732.55	5838.35
997.9183	2714.7403	6715.65	5825.95
998.0403	2715.9654	6695.45	5802.2
998.1623	2717.1899	6696.65	5789.15
998.2842	2718.4136	6656.7	5764.8
998.4062	2719.6367	6653.35	5763.75
998.528	2720.8591	6631.45	5730.9
998.6498	2722.0809	6628.3	5737.4
998.7716	2723.3019	6600.45	5706.75
998.8934	2724.5223	6604.9	5713.6
999.0151	2725.7421	6581.3	5691
999.1368	2726.9611	6547.4	5653.6
999.2584	2728.1795	6541.6	5645.3
999.38	2729.3972	6523.35	5633.55
999.5016	2730.6142	6478.9	5574.4
999.6231	2731.8306	6440.4	5548.15
999.7446	2733.0462	6419.65	5526.85
999.8661	2734.2612	6368.15	5472.8
999.9875	2735.4756	6339.3	5447.25
1000.1089	2736.6892	6303.65	5411.55
1000.2302	2737.9022	6258.25	5368.55
1000.3515	2739.1145	6223.55	5332.6
1000.4728	2740.3262	6199.7	5299.6
1000.594	2741.5372	6152.95	5262.1
1000.7152	2742.7475	6115.6	5224.65
1000.8363	2743.9571	6104.9	5212.35
1000.9575	2745.1661	6078.05	5183.35
1001.0785	2746.3744	6060.1	5168.2
1001.1996	2747.582	6037.85	5146.75
1001.3206	2748.7889	5989.7	5097.65
1001.4415	2749.9952	5963.75	5073.65
1001.5625	2751.2008	5959.9	5067.35
1001.6833	2752.4057	5938.9	5044.8
1001.8042	2753.61	5911.45	5019.85
1001.925	2754.8136	5904.35	5009.8
1002.0458	2756.0165	5867.4	4975.8
1002.1665	2757.2188	5871.3	4981.5
1002.2872	2758.4204	5838.35	4948
1002.4078	2759.6213	5802.7	4908.55
1002.5285	2760.8215	5804.8	4909.15
1002.649	2762.0211	5783.5	4890.75
1002.7696	2763.22	5750.35	4855.3
1002.8901	2764.4182	5754.15	4861.4
1003.0106	2765.6158	5729.85	4839.9
1003.131	2766.8127	5702.5	4810.7
1003.2514	2768.009	5671.75	4781.65
1003.3717	2769.2045	5672.1	4782.25
1003.492	2770.3994	5651.6	4757.75
1003.6123	2771.5936	5617.9	4727.85
1003.7325	2772.7872	5610.45	4721.2
1003.8527	2773.9801	5568.55	4675
1003.9729	2775.1723	5566	4659.7
1004.093	2776.3639	5534.6	4644.6
1004.2131	2777.5548	5532.7	4637.9
1004.3331	2778.745	5518.05	4627.25
1004.4531	2779.9346	5499.8	4609.15
1004.5731	2781.1235	5488.8	4597.25
1004.693	2782.3117	5472.6	4582.05
1004.8129	2783.4992	5447.45	4558.25
1004.9328	2784.6861	5444.1	4552.9
1005.0526	2785.8723	5421.7	4529.25
1005.1723	2787.0579	5418	4525.35
1005.2921	2788.2428	5418.7	4526.6
1005.4118	2789.427	5414.75	4523.95
1005.5314	2790.6106	5399.2	4508.75
1005.651	2791.7935	5382	4491.3
1005.7706	2792.9757	5359.1	4472.35
1005.8902	2794.1573	5343.8	4451.85
1006.0097	2795.3382	5355.25	4465.95
1006.1291	2796.5184	5340.5	4451.75
1006.2485	2797.698	5338.65	4446.5
1006.3679	2798.8769	5334.5	4444.4
1006.4873	2800.0551	5356.2	4464.3
1006.6066	2801.2327	5337.4	4443.25
1006.7258	2802.4096	5333.65	4443.85
1006.8451	2803.5859	5340.35	4449.55
1006.9642	2804.7615	5341.95	4453.5
1007.0834	2805.9364	5347.95	4458.6
1007.2025	2807.1106	5360.25	4470.35
1007.3216	2808.2842	5367.2	4476.8
1007.4406	2809.4572	5369.45	4477.95
1007.5596	2810.6294	5407.6	4516
1007.6785	2811.801	5448.05	4558.35
1007.7975	2812.972	5447.25	4558.15
1007.9163	2814.1423	5483.4	4591.15
1008.0352	2815.3119	5513.55	4622.55
1008.154	2816.4808	5554.2	4663.85
1008.2727	2817.6491	5585.1	4692.45
1008.3914	2818.8167	5604.45	4715.45
1008.5101	2819.9837	5669.05	4775.25
1008.6288	2821.15	5693.7	4802.25
1008.7474	2822.3157	5732.3	4840.8
1008.8659	2823.4807	5738.1	4846.25
1008.9844	2824.645	5799.85	4907.9
1009.1029	2825.8086	5792.7	4903.45
1009.2214	2826.9716	5841.15	4951.65
1009.3398	2828.134	5842.4	4951.9
1009.4581	2829.2957	5892.3	5001.6
1009.5764	2830.4567	5910.35	5020.45
1009.6947	2831.617	5909.8	5016.75
1009.813	2832.7767	5930.1	5040.35
1009.9312	2833.9358	5903.75	5017
1010.0493	2835.0941	5892.05	5001.25
1010.1675	2836.2519	5874.25	4983
1010.2855	2837.4089	5855.05	4961.6
1010.4036	2838.5653	5824.1	4934.35
1010.5216	2839.7211	5819.45	4928.25
1010.6396	2840.8761	5806.15	4915.1
1010.7575	2842.0306	5831.35	4942.3
1010.8754	2843.1843	5851.35	4960.2
1010.9932	2844.3374	5903.85	5013.35
1011.111	2845.4899	5936.25	5045.35
1011.2288	2846.6417	6003.3	5115.15
1011.3465	2847.7928	6077.25	5187.5
1011.4642	2848.9433	6133.75	5244.2
1011.5818	2850.0931	6198.6	5309.3
1011.6995	2851.2422	6256.45	5363.5
1011.817	2852.3907	6313.4	5421.65
1011.9345	2853.5385	6374.2	5482.2
1012.052	2854.6857	6433.5	5517.8
1012.1695	2855.8323	6453.7	5564.55
1012.2869	2856.9781	6503.15	5612.25
1012.4042	2858.1233	6538.7	5649.4
1012.5216	2859.2679	6558	5668.9
1012.6389	2860.4118	6606.85	5716.1
1012.7561	2861.555	6611.2	5714.05
1012.8733	2862.6976	6617.05	5723.5
1012.9905	2863.8395	6633.65	5743
1013.1076	2864.9808	6653.4	5763.1
1013.2247	2866.1214	6647.05	5759.65
1013.3417	2867.2614	6659.45	5769.95
1013.4587	2868.4007	6667.55	5774.8
1013.5757	2869.5393	6644.3	5752.05
1013.6926	2870.6773	6644.05	5750.8
1013.8095	2871.8146	6638.45	5741.85
1013.9263	2872.9513	6642.1	5750.4
1014.0431	2874.0874	6621.5	5729.1
1014.1599	2875.2227	6607.55	5717.55
1014.2766	2876.3574	6575.05	5684.3
1014.3933	2877.4915	6521	5630.95
1014.51	2878.6249	6490.5	5600.55
1014.6266	2879.7577	6458.4	5567.75
1014.7431	2880.8898	6429.55	5529.5
1014.8596	2882.0212	6378.25	5487.4
1014.9761	2883.152	6372.65	5481.25
1015.0925	2884.2821	6341.4	5451.2
1015.2089	2885.4116	6320.15	5430.95
1015.3253	2886.5405	6311.4	5422.05
1015.4416	2887.6686	6315.85	5423.95
1015.5579	2888.7962	6291.15	5401
1015.6741	2889.923	6275.9	5386.9
1015.7903	2891.0493	6282.8	5392.9
1015.9065	2892.1748	6274.9	5384.85
1016.0226	2893.2997	6275.8	5385.3
1016.1387	2894.424	6275.55	5386.45
1016.2547	2895.5476	6281.8	5390.75
1016.3707	2896.6706	6283.65	5394.65
1016.4866	2897.7929	6317.9	5425.15
1016.6025	2898.9145	6320.8	5430.75
1016.7184	2900.0355	6339.75	5448.25
1016.8342	2901.1559	6358.2	5468
1016.95	2902.2756	6382.75	5492.3
1017.0658	2903.3946	6393.1	5505.1
1017.1815	2904.513	6419.7	5527.4
1017.2971	2905.6308	6421.9	5532.75
1017.4127	2906.7479	6423.1	5534.7
1017.5283	2907.8643	6448.15	5556.95
1017.6439	2908.9801	6456.3	5565.6
1017.7594	2910.0953	6461.1	5571.2
1017.8748	2911.2098	6420.25	5526.15
1017.9902	2912.3236	6415.35	5518.7
1018.1056	2913.4368	6394.35	5500.65
1018.2209	2914.5494	6363.05	5472
1018.3362	2915.6613	6315.55	5420.1
1018.4515	2916.7725	6274.8	5383.7
1018.5667	2917.8831	6239.45	5349.5
1018.6819	2918.9931	6212.35	5320.7
1018.797	2920.1024	6166.85	5275.3
1018.9121	2921.211	6140.95	5250.75
1019.0271	2922.319	6098.3	5206.05
1019.1421	2923.4264	6074.9	5185.2
1019.2571	2924.5331	6069.9	5181.45
1019.372	2925.6391	6012.95	5122.1
1019.4869	2926.7445	5995.45	5106.3
1019.6017	2927.8493	6001.35	5111.65
1019.7165	2928.9534	5973.8	5083.1
1019.8313	2930.0569	5982.2	5089.75
1019.946	2931.1597	5956.65	5062.9
1020.0606	2932.2619	5938.1	5048.15
1020.1753	2933.3634	5930.75	5042.25
1020.2899	2934.4643	5898.75	5002.15
1020.4044	2935.5645	5882.95	4985.3
1020.5189	2936.6641	5831.2	4935.45
1020.6334	2937.763	5777.5	4889.05
1020.7478	2938.8613	5725.4	4834.35
1020.8622	2939.959	5650.3	4755.75
1020.9765	2941.056	5561	4670.25
1021.0908	2942.1523	5460.5	4569.9
1021.2051	2943.248	5384.85	4496.15
1021.3193	2944.3431	5279.65	4391.3
1021.4334	2945.4375	5158.65	4266.15
1021.5476	2946.5313	5063.25	4173.8
1021.6617	2947.6244	4938.6	4047.85
1021.7757	2948.7169	4843.65	3952.9
1021.8897	2949.8087	4728.4	3839.1
1022.0037	2950.8999	4644.15	3753.35
1022.1176	2951.9904	4549.3	3658.75
1022.2315	2953.0803	4440	3547.95
1022.3453	2954.1696	4385.5	3493.55
1022.4591	2955.2582	4323.7	3432.95
1022.5728	2956.3462	4267.35	3376.25
1022.6865	2957.4335	4203.3	3311.25
1022.8002	2958.5202	4179.3	3285.6
1022.9138	2959.6062	4148.95	3257.75
1023.0274	2960.6916	4113.5	3224.3
1023.141	2961.7764	4067.8	3175.2
1023.2545	2962.8605	4053.9	3164.4
1023.3679	2963.9439	4043.75	3154.9
1023.4813	2965.0267	4014.1	3124.45
1023.5947	2966.1089	4018.35	3103.65
1023.708	2967.1905	3965.65	3075.7
1023.8213	2968.2714	3968.8	3079.65
1023.9346	2969.3516	3953.6	3064.85
1024.0478	2970.4312	3964.85	3069.1
1024.1609	2971.5102	3926.55	3035.35
1024.274	2972.5885	3911.9	3022.75
1024.3871	2973.6662	3924.1	3029.45
1024.5002	2974.7432	3901.55	3012
1024.6132	2975.8196	3876.65	2985.3
1024.7261	2976.8954	3847.35	2956.95
1024.839	2977.9705	3838.6	2948.8
1024.9519	2979.045	3817.2	2928.7
1025.0647	2980.1188	3784.5	2894.8
1025.1775	2981.192	3774.45	2884.95
1025.2902	2982.2645	3744	2853.4
1025.4029	2983.3364	3707.7	2818.35
1025.5156	2984.4077	3674.9	2785
1025.6282	2985.4783	3643.95	2749.2
1025.7407	2986.5483	3598.05	2710.15
1025.8532	2987.6177	3569.35	2681.9
1025.9657	2988.6864	3515.8	2626
1026.0782	2989.7545	3473.35	2583.55
1026.1906	2990.8219	3442.25	2552.05
1026.3029	2991.8887	3401	2505.8
1026.4152	2992.9548	3373.9	2484.35
1026.5275	2994.0204	3330.55	2442.15
1026.6397	2995.0852	3285.6	2398.05
1026.7519	2996.1495	3260.6	2370.95
1026.864	2997.2131	3226.95	2336.05
1026.9761	2998.276	3203.45	2314.75
1027.0882	2999.3383	3171.7	2281.6
1027.2002	3000.4	3150.45	2260.05
1027.3122	3001.4611	3138.65	2247.25
1027.4241	3002.5215	3114.85	2224.95
1027.536	3003.5812	3083.15	2194.8
1027.6478	3004.6404	3075.85	2187.6
1027.7596	3005.6989	3060.05	2166.9
1027.8714	3006.7567	3051	2162.1
1027.9831	3007.8139	3044.85	2132.25
1028.0947	3008.8705	3008.45	2118.2
1028.2064	3009.9264	2999.5	2105.1
1028.3179	3010.9818	2992.5	2103.4
1028.4295	3012.0364	2970.15	2080.2
1028.541	3013.0905	2965.4	2076.4
1028.6524	3014.1439	2956.55	2067.2
1028.7638	3015.1966	2958.85	2070.7
1028.8752	3016.2487	2934.45	2042.05
1028.9865	3017.3002	2938.5	2045.8
1029.0978	3018.3511	2921.75	2033
1029.209	3019.4013	2912.25	2021.6
1029.3202	3020.4509	2929.4	2040.3
1029.4314	3021.4998	2916.95	2027.15
1029.5425	3022.5481	2908.3	2018.75
1029.6535	3023.5958	2889.5	2001.6
1029.7645	3024.6428	2894.3	2004
1029.8755	3025.6892	2888.65	1999.65
1029.9864	3026.735	2883.15	1992.7
1030.0973	3027.7802	2870.3	1981.7
1030.2082	3028.8247	2854.3	1963.1
1030.319	3029.8685	2856.25	1964.9
1030.4297	3030.9118	2872.15	1981.25
1030.5404	3031.9544	2869.8	1981.25
1030.6511	3032.9963	2860.15	1972.8
1030.7617	3034.0376	2847.1	1958.1
1030.8723	3035.0783	2843.1	1952.3
1030.9829	3036.1184	2843.15	1951.8
1031.0934	3037.1578	2842.4	1953.85
1031.2038	3038.1966	2847.65	1954.7
1031.3142	3039.2348	2833.55	1944.5
1031.4246	3040.2723	2824.85	1926.05
1031.5349	3041.3092	2811.95	1923.6
1031.6452	3042.3455	2798.9	1909.5
1031.7554	3043.3811	2795	1904.45
1031.8656	3044.4161	2785.55	1896.9
1031.9758	3045.4505	2778.35	1889.85
1032.0859	3046.4842	2773.7	1884.95
1032.1959	3047.5173	2742.3	1852.15
1032.3059	3048.5498	2743.1	1851.85
1032.4159	3049.5816	2729.45	1838.9
1032.5258	3050.6128	2720.3	1828.5
1032.6357	3051.6434	2718.3	1827.8
1032.7455	3052.6734	2699.6	1807.3
1032.8553	3053.7027	2677.5	1788.25
1032.9651	3054.7314	2681.15	1789.85
1033.0748	3055.7594	2670.1	1781.65
1033.1845	3056.7868	2648.2	1755.65
1033.2941	3057.8136	2637	1748.35
1033.4037	3058.8398	2629.65	1741.5
1033.5132	3059.8653	2618.8	1728.8
1033.6227	3060.8902	2604	1714.7
1033.7321	3061.9145	2598.3	1710.9
1033.8415	3062.9381	2583.75	1693.65
1033.9509	3063.9612	2593.55	1688.05
1034.0602	3064.9835	2567.2	1676.65
1034.1694	3066.0053	2545.45	1654.9
1034.2787	3067.0264	2545.45	1657.6
1034.3878	3068.0469	2523.3	1633.6
1034.497	3069.0668	2508.95	1615.85
1034.6061	3070.086	2508.45	1621.15
1034.7151	3071.1046	2484.85	1594.7
1034.8241	3072.1226	2479.4	1589.75
1034.9331	3073.1399	2465.1	1576.7
1035.042	3074.1567	2444.6	1554.85
1035.1508	3075.1727	2434.6	1541.9
1035.2597	3076.1882	2415.45	1525.6
1035.3684	3077.203	2411.95	1524.75
1035.4772	3078.2173	2397.6	1508.85
1035.5859	3079.2308	2371.95	1481.35
1035.6945	3080.2438	2373.25	1482.05
1035.8031	3081.2561	2347.9	1458.35
1035.9117	3082.2678	2341.15	1450.9
1036.0202	3083.2789	2335.5	1447.05
1036.1286	3084.2893	2313.9	1424.9
1036.2371	3085.2991	2312	1422.7
1036.3454	3086.3083	2300.2	1405.6
1036.4538	3087.3169	2285.15	1393
1036.562	3088.3248	2280.45	1390.05
1036.6703	3089.3321	2276.2	1384.4
1036.7785	3090.3388	2260.2	1371.7
1036.8866	3091.3449	2260.1	1371.5
1036.9948	3092.3503	2247.75	1357.05
1037.1028	3093.3551	2237.05	1349.8
1037.2108	3094.3593	2231	1341.6
1037.3188	3095.3629	2214.1	1323.75
1037.4267	3096.3658	2205.05	1312.45
1037.5346	3097.3681	2206.75	1316.15
1037.6425	3098.3698	2195.15	1300.75
1037.7503	3099.3708	2183.75	1287.7
1037.858	3100.3713	2177.35	1289
1037.9657	3101.3711	2167.05	1278.05
1038.0734	3102.3702	2282.1	1254.65
1038.181	3103.3688	2154.8	1262.6
1038.2886	3104.3667	2148.8	1259.6
1038.3961	3105.364	2144.45	1255.45
1038.5036	3106.3607	2134.75	1244.4
1038.611	3107.3568	2126.75	1235.2
1038.7184	3108.3522	2108.15	1221.15
1038.8257	3109.347	2109.1	1216.8
1038.933	3110.3412	2105.35	1211.8
1039.0403	3111.3348	2091.3	1201.7
1039.1475	3112.3277	2083.45	1194.05
1039.2547	3113.32	2074.2	1186.5
1039.3618	3114.3117	2071.6	1180.55
1039.4689	3115.3028	2065.4	1177.7
1039.5759	3116.2932	2063.85	1172.5
1039.6829	3117.2831	2059.5	1163.95
1039.7898	3118.2723	2046.4	1156.8
1039.8967	3119.2608	2041.85	1149.6
1040.0035	3120.2488	2035.6	1147.4
1040.1103	3121.2361	2030.7	1141.6
1040.2171	3122.2229	2020.4	1132.65
1040.3238	3123.209	2010.95	1120.75
1040.4305	3124.1944	2005.4	1118
1040.5371	3125.1793	2002	1111.35
1040.6437	3126.1635	1993.25	1103.25
1040.7502	3127.1471	1983	1094.7
1040.8567	3128.1301	1972.7	1083.45
1040.9631	3129.1125	1972.4	1082.05
1041.0695	3130.0942	1968.6	1079.55
1041.1759	3131.0753	1974.9	1077.55
1041.2822	3132.0558	1962.25	1070.25
1041.3884	3133.0357	1952.5	1063.7
1041.4946	3134.015	1952.7	1063.1
1041.6008	3134.9936	1943.35	1053.2
1041.7069	3135.9716	1959.95	1050.05
1041.813	3136.949	1927.6	1036.45
1041.919	3137.9258	1935.25	1040.45
1042.025	3138.902	1931.05	1035.25
1042.1309	3139.8775	1921.9	1032.35
1042.2368	3140.8524	1925.45	1037.05
1042.3427	3141.8267	1907.45	1015.35
1042.4485	3142.8004	1902.2	1010.45
1042.5542	3143.7735	1902.2	1006.5
1042.6599	3144.7459	1900.65	1007.3
1042.7656	3145.7178	1886.25	995.9
1042.8712	3146.689	1886.3	997.1
1042.9768	3147.6596	1881.35	990.55
1043.0823	3148.6295	1886.7	997.35
1043.1878	3149.5989	1870.4	980.35
1043.2932	3150.5676	1872.5	985.75
1043.3986	3151.5357	1859.15	972.4
1043.5039	3152.5032	1843.35	954.55
1043.6092	3153.4701	1842.95	953.6
1043.7145	3154.4364	1840.75	947.75
1043.8197	3155.402	1832.65	945.05
1043.9248	3156.367	1829.8	937.7
1044.03	3157.3315	1863.65	931.6
1044.135	3158.2952	1825.85	936.45
1044.24	3159.2584	1818.7	929.4
1044.345	3160.221	1811.85	921.4
1044.4499	3161.1829	1808.75	918.35
1044.5548	3162.1442	1791.95	902.55
1044.6596	3163.105	1796.7	907.85
1044.7644	3164.065	1787.4	897.2
1044.8692	3165.0245	1787.45	897.25
1044.9739	3165.9834	1780.75	891.95
1045.0785	3166.9416	1773.85	885.4
1045.1831	3167.8993	1770.65	883.35
1045.2877	3168.8563	1761.4	871
1045.3922	3169.8127	1760.55	873.15
1045.4966	3170.7684	1751.55	862.3
1045.6011	3171.7236	1751.05	859.95
1045.7054	3172.6782	1744.75	854.75
1045.8098	3173.6321	1742.4	852.05
1045.914	3174.5854	1740.15	845.35
1046.0183	3175.5381	1727.15	837.05
1046.1224	3176.4902	1727.2	840.65
1046.2266	3177.4417	1724.05	836.35
1046.3307	3178.3926	1711	823.75
1046.4347	3179.3428	1708.2	821.7
1046.5387	3180.2924	1702.45	813.7
1046.6427	3181.2415	1694.6	804.6
1046.7466	3182.1899	1694.65	804
1046.8504	3183.1377	1697.2	806.85
1046.9542	3184.0848	1691.2	798.85
1047.058	3185.0314	1687.25	797.65
1047.1617	3185.9773	1673.35	783.3
1047.2654	3186.9227	1668	779.4
1047.369	3187.8674	1673.85	784
1047.4726	3188.8115	1674.1	781.85
1047.5761	3189.755	1667.65	779.6
1047.6796	3190.6979	1653.75	765
1047.783	3191.6402	1651.35	763.5
1047.8864	3192.5818	1658.55	769.2
1047.9898	3193.5229	1665.95	763.7
1048.0931	3194.4633	1644.05	755.3
1048.1963	3195.4031	1642.65	752.25
1048.2995	3196.3423	1637.3	749.7
1048.4027	3197.2809	1631	742.15
1048.5058	3198.2189	1623.2	735.3
1048.6089	3199.1563	1633.75	738.9
1048.7119	3200.0931	1625.15	735.75
1048.8148	3201.0292	1617.2	729.35
1048.9178	3201.9648	1617.35	730.2
1049.0206	3202.8997	1612.45	719.75
1049.1235	3203.834	1600.15	710.7
1049.2262	3204.7677	1608.95	720.8
1049.329	3205.7008	1597.6	707.3
1049.4317	3206.6333	1600.1	713.6
1049.5343	3207.5652	1586.65	697.4
1049.6369	3208.4964	1591.75	702.55
1049.7394	3209.4271	1592.5	702.8
1049.8419	3210.3571	1583.75	694.8
1049.9444	3211.2865	1577.55	688.85
1050.0468	3212.2154	1578.55	687.7
1050.1491	3213.1436	1565.8	674.35
1050.2514	3214.0712	1573.45	677.5
1050.3537	3214.9982	1559.55	671.65
1050.4559	3215.9246	1559.5	668.9
1050.5581	3216.8503	1550.85	662.35
1050.6602	3217.7755	1551.1	662.75
1050.7623	3218.7001	1549.5	661.65
1050.8643	3219.624	1552.25	661.85
1050.9663	3220.5473	1552.95	663.15
1051.0682	3221.4701	1547.35	658.15
1051.1701	3222.3922	1541	649.45
1051.2719	3223.3137	1530	640.85
1051.3737	3224.2346	1526.55	637.15
1051.4754	3225.1549	1522	634.6
1051.5771	3226.0746	1515.45	627.1
1051.6788	3226.9937	1516.95	629.1
1051.7804	3227.9121	1522.15	632.65
1051.8819	3228.83	1509.4	623.15
1051.9834	3229.7473	1509.45	620
1052.0849	3230.6639	1506.85	617.2
1052.1863	3231.5799	1510.55	622.4
1052.2876	3232.4954	1495.75	604.45
1052.3889	3233.4102	1496.05	607.5
1052.4902	3234.3244	1489.6	600.85
1052.5914	3235.238	1487.95	598.5
1052.6926	3236.151	1510.65	597.15
1052.7937	3237.0634	1481.4	592.55
1052.8948	3237.9752	1476.6	588.75
1052.9958	3238.8864	1468.5	578.2
1053.0968	3239.797	1473.6	582.8
1053.1977	3240.7069	1461.25	570.25
1053.2986	3241.6163	1456.15	564.6
1053.3994	3242.5251	1458.4	568.75
1053.5002	3243.4332	1462.35	575.05
1053.6009	3244.3408	1456.1	567.75
1053.7016	3245.2477	1445.4	557.05
1053.8022	3246.154	1449.6	558.15
1053.9028	3247.0598	1441.3	551.25
1054.0034	3247.9649	1437.75	549.8
1054.1039	3248.8694	1432.35	542.8
1054.2043	3249.7733	1434.6	545.25
1054.3047	3250.6766	1433.45	542.9
1054.4051	3251.5793	1422.2	531.35
1054.5054	3252.4814	1423.65	536
1054.6056	3253.3829	1423.8	535.15
1054.7058	3254.2838	1414.85	528.35
1054.806	3255.1841	1411.25	523.35
1054.9061	3256.0838	1411.5	521.85
1055.0061	3256.9829	1403.45	514.5
1055.1062	3257.8814	1397.05	505
1055.2061	3258.7792	1399.55	508.05
1055.306	3259.6765	1391.2	501.4
1055.4059	3260.5731	1383.65	494.6
1055.5057	3261.4692	1383.6	495.95
1055.6055	3262.3647	1369.1	480.9
1055.7052	3263.2595	1368.6	481.75
1055.8049	3264.1538	1359.25	469.7
1055.9045	3265.0474	1358.35	468.75
1056.0041	3265.9404	1344.15	456.65
1056.1036	3266.8329	1334.7	446.95
1056.2031	3267.7247	1336.6	439.55
1056.3025	3268.616	1325.9	438.55
1056.4019	3269.5066	1305.15	418.15
1056.5013	3270.3966	1298.65	409.15
1056.6005	3271.286	1286.7	398.4
