Software Version:	3.9.2.0
Unit SN:	10000200
Spectrometer SN:	6960
Date:	3/6/2024 10:59:33 AM
Data Line Index:	25
Spectral Points:	2048
Integration time (ms):	125
Averages:	20
Delay (ms):	30
Sequence Number:	1
Processing:	dark subtract
Laser Power (mW):	300
Laser Current (mA):	822
Laser Diode Temp (C):	25.1
Laser Case Temp (C):	28.1
System Temp (C):	28
Spectrometer Temp (C):	25.4
CCD Temp (C):	0
Secondary Temp (C):	20.001
Heatsink Temp (C):	23.721
CCDPCB Temp (C):	36.929
SecondaryPCB Temp (C):	34.64

Wavelength	RamanShift	Raw Counts	Dark Subtracted
787.061	30.1047	1079.5	663.9
787.2016	32.3739	1107.2	694.8
787.3422	34.6426	1147.35	733.6
787.4828	36.9109	1198.9	783.5
787.6235	39.1787	1254.2	833.8
787.7642	41.4461	1308.65	883.85
787.9049	43.7131	1362.7	937.05
788.0456	45.9796	1431.25	1001
788.1863	48.2456	1496.95	1063.6
788.3271	50.5112	1571.45	1132.75
788.4679	52.7764	1629.35	1188.45
788.6087	55.0411	1698.8	1251.55
788.7496	57.3054	1784.6	1335.2
788.8904	59.5692	1865.55	1414.4
789.0313	61.8326	1957.55	1503.3
789.1722	64.0955	2059.05	1599.05
789.3132	66.3579	2179.2	1714.9
789.4541	68.6199	2322.25	1855.05
789.5951	70.8815	2567.8	2097.95
789.7361	73.1426	3042.3	2568.1
789.8771	75.4032	4236	3753.95
790.0181	77.6634	7299.6	6814.45
790.1592	79.9231	15126.45	14635.05
790.3003	82.1824	48778.7	48277.15
790.4414	84.4412	65535	65017.95
790.5825	86.6995	65535	64995.35
790.7237	88.9574	65535	64975.45
790.8648	91.2148	65535	64959.1
791.006	93.4717	65535	64946.8
791.1472	95.7282	65535	64941.25
791.2885	97.9842	65535	64937.95
791.4297	100.2398	65535	64939.3
791.571	102.4949	65535	64934.15
791.7123	104.7495	65535	64930.35
791.8536	107.0036	65535	64927.55
791.9949	109.2573	65535	64932.4
792.1363	111.5105	65535	64926.2
792.2777	113.7632	65535	64927.8
792.4191	116.0154	65535	64916.35
792.5605	118.2672	65535	64923.75
792.7019	120.5185	65535	64915.75
792.8434	122.7693	65535	64917.5
792.9849	125.0197	65535	64913.6
793.1264	127.2696	65535	64911.65
793.2679	129.519	65535	64906.65
793.4094	131.7679	65535	64903.1
793.551	134.0163	65535	64904.65
793.6926	136.2642	65535	64898.85
793.8342	138.5117	65535	64889
793.9758	140.7587	65535	64896.65
794.1175	143.0052	65535	64892.45
794.2591	145.2512	65535	64891.45
794.4008	147.4967	65535	64892.35
794.5425	149.7417	65535	64886.8
794.6842	151.9863	65535	64884.3
794.826	154.2304	65535	64878.3
794.9677	156.4739	65535	64873.45
795.1095	158.717	65535	64876.35
795.2513	160.9596	65535	64872
795.3931	163.2017	65535	64869.6
795.535	165.4433	65535	64868.35
795.6768	167.6844	65535	64867.35
795.8187	169.925	65535	64863.2
795.9606	172.1651	65535	64857.95
796.1025	174.4047	65535	64856.9
796.2445	176.6439	65535	64856.95
796.3864	178.8825	65535	64849.15
796.5284	181.1206	65535	64849.35
796.6704	183.3582	65535	64842.3
796.8124	185.5954	65535	64841.8
796.9544	187.832	65535	64840.65
797.0965	190.0681	65535	64837.15
797.2386	192.3037	65535	64833.85
797.3806	194.5388	65535	64827.95
797.5228	196.7734	65535	64828.95
797.6649	199.0075	65535	64827.3
797.807	201.2411	65535	64822.85
797.9492	203.4742	65535	64822.35
798.0914	205.7068	65535	64824.15
798.2336	207.9389	65535	64820.75
798.3758	210.1704	65535	64814.6
798.518	212.4015	65535	64815.55
798.6603	214.632	65535	64822.45
798.8025	216.862	65535	64832.55
798.9448	219.0915	65535	64836.85
799.0871	221.3205	65535	64833.35
799.2294	223.549	65535	64838.2
799.3718	225.777	65535	64837.9
799.5141	228.0044	65535	64834
799.6565	230.2314	65535	64835.15
799.7989	232.4578	65535	64830.45
799.9413	234.6837	65535	64824.7
800.0837	236.909	65535	64824.35
800.2262	239.1339	65535	64799.95
800.3687	241.3582	65535	64812.5
800.5111	243.582	65535	64783.1
800.6536	245.8053	65535	64794.2
800.7961	248.0281	65535	64797.8
800.9387	250.2503	65535	64794.15
801.0812	252.472	65535	64791.75
801.2238	254.6932	65535	64787.35
801.3664	256.9139	65535	64792.05
801.509	259.134	65535	64787.65
801.6516	261.3536	65535	64789
801.7942	263.5727	65535	64782.75
801.9369	265.7912	65535	64787.7
802.0795	268.0092	65535	64782.15
802.2222	270.2267	65535	64783.7
802.3649	272.4436	65535	64784.2
802.5076	274.6601	65535	64776.45
802.6504	276.8759	65535	64775.55
802.7931	279.0913	65535	64775.4
802.9359	281.3061	65535	64775.75
803.0787	283.5204	65535	64773.1
803.2215	285.7341	65535	64770.3
803.3643	287.9473	65535	64758.15
803.5071	290.16	65535	64759.45
803.6499	292.3721	65535	64771.75
803.7928	294.5837	65535	64768.35
803.9357	296.7947	65535	64770.55
804.0786	299.0052	65535	64768.2
804.2215	301.2152	65535	64764.95
804.3644	303.4246	65535	64769.2
804.5074	305.6334	65535	64770.7
804.6503	307.8418	65535	64761.45
804.7933	310.0495	65535	64766.8
804.9363	312.2568	65535	64766
805.0793	314.4635	65535	64763.95
805.2223	316.6696	65535	64761.85
805.3653	318.8752	65535	64749.1
805.5084	321.0802	65535	64757.6
805.6514	323.2847	65535	64755.1
805.7945	325.4887	65535	64757.55
805.9376	327.692	65535	64755.5
806.0807	329.8949	65535	64752.2
806.2238	332.0972	65535	64756
806.367	334.2989	65535	64750.1
806.5101	336.5001	65535	64748.65
806.6533	338.7007	65535	64746.95
806.7965	340.9008	65535	64745.4
806.9397	343.1003	65535	64748.4
807.0829	345.2992	65535	64744.15
807.2261	347.4976	65535	64746.85
807.3693	349.6955	65535	64738.55
807.5126	351.8927	65535	64739.15
807.6559	354.0895	65535	64728.55
807.7991	356.2856	65535	64738.9
807.9424	358.4812	65535	64739.45
808.0857	360.6763	65535	64736.8
808.2291	362.8707	65535	64735.5
808.3724	365.0646	65535	64730.6
808.5158	367.258	65535	64729.35
808.6591	369.4508	65535	64725.45
808.8025	371.643	65535	64728.9
808.9459	373.8346	65535	64721.85
809.0893	376.0257	65535	64721.95
809.2327	378.2162	65535	64720.55
809.3762	380.4062	65535	64718.2
809.5196	382.5956	65535	64719.75
809.6631	384.7844	65535	64719.65
809.8066	386.9726	65535	64722.4
809.9501	389.1603	65535	64725.05
810.0936	391.3474	65535	64681.4
810.2371	393.5339	65535	64724.4
810.3806	395.7199	65535	64728.6
810.5241	397.9052	65535	64730.65
810.6677	400.09	65535	64729.05
810.8113	402.2743	65535	64730.1
810.9548	404.4579	65535	64724.45
811.0984	406.641	65535	64724.4
811.2421	408.8235	65535	64721.75
811.3857	411.0054	65535	64722.55
811.5293	413.1868	65535	64720.05
811.673	415.3675	65535	64719.95
811.8166	417.5477	65535	64720.3
811.9603	419.7273	65535	64715.2
812.104	421.9064	65535	64706.65
812.2477	424.0848	65535	64710.45
812.3914	426.2627	65535	64705.95
812.5351	428.4399	65535	64708
812.6788	430.6166	65535	64706.95
812.8226	432.7928	65535	64705.45
812.9663	434.9683	65535	64703
813.1101	437.1432	65535	64702.8
813.2539	439.3176	65535	64703.8
813.3977	441.4914	65535	64701.7
813.5415	443.6645	65535	64702.7
813.6853	445.8371	65535	64704.55
813.8291	448.0091	65535	64703
813.973	450.1806	65535	64703.15
814.1168	452.3514	65535	64698.6
814.2607	454.5216	65535	64692.85
814.4046	456.6913	65535	64699.15
814.5485	458.8603	65535	64701.2
814.6924	461.0288	65535	64701.6
814.8363	463.1967	65535	64700.35
814.9802	465.3639	65535	64697.55
815.1241	467.5306	65535	64697.15
815.2681	469.6967	65535	64696.1
815.412	471.8622	65535	64698.35
815.556	474.0271	65535	64698.35
815.7	476.1914	65535	64694.75
815.844	478.3551	65535	64695.6
815.988	480.5182	65535	64694.3
816.132	482.6807	65535	64696.6
816.276	484.8426	65535	64696.55
816.4201	487.0039	65535	64696.9
816.5641	489.1647	65535	64695.65
816.7082	491.3248	65535	64695.35
816.8522	493.4843	65535	64693.7
816.9963	495.6432	65535	64692.8
817.1404	497.8015	65535	64689.15
817.2845	499.9592	65535	64689
817.4286	502.1163	65535	64691.65
817.5727	504.2728	65535	64687.15
817.7168	506.4287	65535	64693.3
817.861	508.5839	65535	64690.9
818.0051	510.7386	65535	64687.75
818.1493	512.8927	65535	64684.5
818.2935	515.0461	65535	64689.5
818.4377	517.199	65535	64688.25
818.5818	519.3512	65535	64684
818.726	521.5029	65535	64678.5
818.8703	523.6539	65535	64683.65
819.0145	525.8043	65535	64684.45
819.1587	527.9541	65535	64678.25
819.303	530.1033	65535	64682.35
819.4472	532.2519	65535	64682.65
819.5915	534.3999	65535	64678.45
819.7357	536.5472	65535	64682.6
819.88	538.694	65535	64680.85
820.0243	540.8401	65535	64676.8
820.1686	542.9856	65535	64677.55
820.3129	545.1305	65535	64673.1
820.4572	547.2748	65535	64676.4
820.6016	549.4185	65535	64677.6
820.7459	551.5615	65535	64674.85
820.8902	553.704	65535	64676.95
821.0346	555.8458	65535	64676.95
821.1789	557.987	65535	64678.1
821.3233	560.1276	65535	64678.25
821.4677	562.2675	65535	64679.7
821.6121	564.4069	65535	64680.95
821.7565	566.5456	65535	64678.9
821.9009	568.6837	65535	64676.15
822.0453	570.8212	65535	64676.6
822.1897	572.958	65535	64673.45
822.3342	575.0942	65535	64679.2
822.4786	577.2299	65535	64677.15
822.6231	579.3648	65535	64677.15
822.7675	581.4992	65535	64678.25
822.912	583.6329	65535	64679.25
823.0565	585.766	65535	64676.1
823.201	587.8985	65535	64681.05
823.3454	590.0304	65535	64652.95
823.4899	592.1616	65535	64671.75
823.6345	594.2922	65535	64672.55
823.779	596.4222	65535	64672.2
823.9235	598.5515	65535	64669.1
824.068	600.6802	65535	64668.45
824.2126	602.8083	65535	64669.85
824.3571	604.9358	65535	64671.8
824.5017	607.0626	65535	64672
824.6462	609.1888	65535	64668.75
824.7908	611.3144	65535	64668.2
824.9354	613.4393	65535	64666.7
825.08	615.5636	65535	64668.55
825.2246	617.6873	65535	64669.95
825.3692	619.8103	65535	64666.5
825.5138	621.9327	65535	64666.65
825.6584	624.0544	65535	64670.75
825.803	626.1756	65535	64670.65
825.9477	628.2961	65535	64667.15
826.0923	630.4159	65535	64666.95
826.237	632.5351	65535	64664.05
826.3816	634.6537	65535	64666.5
826.5263	636.7716	65535	64664.1
826.6709	638.8889	65535	64664.85
826.8156	641.0056	65535	64665.65
826.9603	643.1216	65535	64663.95
827.105	645.237	65535	64661.4
827.2497	647.3518	65535	64662
827.3944	649.4659	65535	64664.65
827.5391	651.5793	65535	64662.8
827.6838	653.6922	65535	64662.7
827.8285	655.8043	65535	64663.55
827.9733	657.9159	65535	64662.25
828.118	660.0268	65535	64660.2
828.2627	662.137	65535	64660.55
828.4075	664.2466	65535	64659.1
828.5522	666.3556	65535	64662.2
828.697	668.4639	65535	64658.8
828.8418	670.5716	65535	64663.25
828.9865	672.6786	65535	64659.35
829.1313	674.785	65535	64657.65
829.2761	676.8907	65535	64655.5
829.4209	678.9958	65535	64662.85
829.5657	681.1002	65535	64659
829.7105	683.204	65535	64657.1
829.8553	685.3072	65535	64657.15
830.0001	687.4097	65535	64658.7
830.1449	689.5115	65535	64653.05
830.2898	691.6127	65535	64659.1
830.4346	693.7132	65535	64656.35
830.5794	695.8131	65535	64649.55
830.7243	697.9123	65535	64655.05
830.8691	700.0109	65535	64653.85
831.014	702.1089	65535	64658.85
831.1588	704.2061	65535	64658.5
831.3037	706.3028	65535	64654.75
831.4486	708.3987	65535	64658.35
831.5935	710.4941	65535	64655.7
831.7383	712.5887	65535	64654.85
831.8832	714.6827	65535	64650.05
832.0281	716.7761	65535	64653.65
832.173	718.8688	65535	64654.8
832.3179	720.9608	65535	64651.9
832.4628	723.0522	65535	64649
832.6077	725.1429	65535	64652.95
832.7527	727.233	65535	64653
832.8976	729.3224	65535	64653.95
833.0425	731.4112	65535	64651.3
833.1874	733.4993	65535	64649.4
833.3324	735.5867	65535	64652.5
833.4773	737.6735	65535	64649.7
833.6222	739.7596	65535	64650.6
833.7672	741.845	65535	64651.2
833.9122	743.9298	65535	64650.2
834.0571	746.014	65535	64651.8
834.2021	748.0974	65535	64648.95
834.347	750.1802	65535	64649.8
834.492	752.2624	65535	64652.5
834.637	754.3439	65535	64648.8
834.782	756.4247	65535	64640.45
834.9269	758.5048	65535	64649.55
835.0719	760.5843	65535	64646.95
835.2169	762.6631	65535	64648.5
835.3619	764.7413	65535	64651.6
835.5069	766.8188	65535	64647.7
835.6519	768.8956	65535	64645.95
835.7969	770.9718	65535	64650.95
835.9419	773.0473	65535	64647.4
836.0869	775.1221	65535	64647.95
836.232	777.1962	65535	64650.2
836.377	779.2697	65535	64649.15
836.522	781.3426	65535	64629.3
836.667	783.4147	65535	64646.5
836.8121	785.4862	65535	64649.15
836.9571	787.557	65535	64648.75
837.1021	789.6271	65535	64645.45
837.2472	791.6966	65535	64648.25
837.3922	793.7654	65535	64648.1
837.5373	795.8335	65535	64650.3
837.6823	797.901	65535	64646.4
837.8274	799.9678	65535	64647.75
837.9724	802.0339	65535	64648.05
838.1175	804.0993	65535	64637.2
838.2626	806.1641	65535	64644.85
838.4076	808.2282	65535	64645.6
838.5527	810.2916	65535	64644.1
838.6978	812.3544	65535	64648.1
838.8428	814.4164	65535	64647.65
838.9879	816.4778	65535	64645
839.133	818.5385	65535	64647.25
839.2781	820.5986	65535	64646.25
839.4232	822.658	65535	64644.5
839.5682	824.7166	65535	64643.95
839.7133	826.7747	65535	64647.15
839.8584	828.832	65535	64645.45
840.0035	830.8886	65535	64641.5
840.1486	832.9446	65535	64646.15
840.2937	834.9999	65535	64647.75
840.4388	837.0545	65535	64641.2
840.5839	839.1085	65535	64645.1
840.729	841.1618	65535	64643.1
840.8741	843.2143	65535	64646.05
841.0192	845.2662	65535	64643.9
841.1643	847.3175	65535	64645.7
841.3095	849.368	65535	64644.55
841.4546	851.4179	65535	64646.65
841.5997	853.467	65535	64645
841.7448	855.5155	65535	64642.45
841.8899	857.5633	65535	64643.8
842.0351	859.6105	65535	64642.15
842.1802	861.6569	65535	64647.3
842.3253	863.7027	65535	64643
842.4704	865.7478	65535	64644.05
842.6156	867.7922	65535	64643.55
842.7607	869.8359	65535	64642.8
842.9058	871.8789	65535	64644.6
843.0509	873.9212	65535	64611.45
843.1961	875.9629	65535	64643.15
843.3412	878.0039	65535	64642
843.4863	880.0441	65535	64643.5
843.6315	882.0837	65535	64642.8
843.7766	884.1226	65535	64639.5
843.9218	886.1609	65535	64643.8
844.0669	888.1984	65535	64642.35
844.212	890.2352	65535	64644.65
844.3572	892.2714	65535	64638.45
844.5023	894.3069	65535	64641.15
844.6475	896.3416	65535	64642.05
844.7926	898.3757	65535	64642.25
844.9377	900.4091	65535	64642.55
845.0829	902.4418	65535	64633.45
845.228	904.4739	65535	64640.3
845.3732	906.5052	65535	64639
845.5183	908.5358	65535	64641.9
845.6635	910.5658	65535	64639
845.8086	912.595	65535	64640.65
845.9538	914.6236	65535	64640.55
846.0989	916.6515	65535	64643.65
846.2441	918.6786	65535	64639.5
846.3892	920.7051	65535	64637.8
846.5344	922.7309	65535	64639.5
846.6795	924.756	65535	64639.8
846.8246	926.7804	65535	64639.6
846.9698	928.8041	65535	64638.8
847.1149	930.8272	65535	64639.9
847.2601	932.8495	65535	64640.65
847.4052	934.8711	65535	64639.75
847.5504	936.892	65535	64638.95
847.6955	938.9123	65535	64638.55
847.8407	940.9318	65535	64640.6
847.9858	942.9506	65535	64639.25
848.131	944.9688	65535	64637.2
848.2761	946.9862	65535	64639.35
848.4213	949.003	65535	64641.9
848.5664	951.019	65535	64640.8
848.7115	953.0344	65535	64639.05
848.8567	955.0491	65535	64637.55
849.0018	957.063	65535	64641.75
849.147	959.0763	65535	64640.65
849.2921	961.0888	65535	64638.7
849.4373	963.1007	65535	64638.75
849.5824	965.1119	65535	64639.65
849.7275	967.1223	65535	64642.2
849.8727	969.1321	65535	64639.9
850.0178	971.1412	65535	64640.15
850.1629	973.1495	65535	64640.8
850.3081	975.1572	65535	64609.2
850.4532	977.1641	65535	64639.55
850.5983	979.1704	65535	64638.35
850.7435	981.1759	65535	64634.35
850.8886	983.1808	65535	64636.4
851.0337	985.1849	65535	64625.45
851.1788	987.1884	65535	64635
851.324	989.1911	65535	64636.55
851.4691	991.1932	65535	64639.15
851.6142	993.1945	65535	64641.9
851.7593	995.1951	65535	64639.7
851.9045	997.1951	65535	64633.4
852.0496	999.1943	65535	64639.95
852.1947	1001.1928	65535	64636.3
852.3398	1003.1906	65535	64640
852.4849	1005.1877	65535	64634.7
852.63	1007.1841	65535	64636.35
852.7751	1009.1798	65535	64641.2
852.9202	1011.1748	65535	64637.65
853.0653	1013.1691	65535	64637.8
853.2104	1015.1627	65535	64639.55
853.3555	1017.1556	65535	64637.85
853.5006	1019.1477	65535	64638.35
853.6457	1021.1392	65535	64640.65
853.7908	1023.1299	65535	64640.4
853.9359	1025.12	65535	64639.25
854.081	1027.1093	65535	64639.65
854.2261	1029.0979	65535	64644.15
854.3712	1031.0859	65535	64640.95
854.5163	1033.0731	65535	64639.45
854.6613	1035.0596	65535	64641.55
854.8064	1037.0454	65535	64639.15
854.9515	1039.0304	65535	64638.05
855.0965	1041.0148	65535	64637.1
855.2416	1042.9985	65535	64636.7
855.3867	1044.9814	65535	64638.5
855.5317	1046.9636	65535	64636.75
855.6768	1048.9452	65535	64639.85
855.8219	1050.926	65535	64639.8
855.9669	1052.9061	65535	64640.8
856.112	1054.8855	65535	64637.35
856.257	1056.8642	65535	64638.5
856.4021	1058.8421	65535	64634.6
856.5471	1060.8194	65535	64640
856.6921	1062.7959	65535	64639.15
856.8372	1064.7717	65535	64636.95
856.9822	1066.7469	65535	64636.65
857.1272	1068.7213	65535	64634.75
857.2723	1070.695	65535	64639.4
857.4173	1072.6679	65535	64636.05
857.5623	1074.6402	65535	64638
857.7073	1076.6117	65535	64631.85
857.8523	1078.5826	65535	64637.5
857.9973	1080.5527	65535	64637.25
858.1423	1082.5221	65535	64637.95
858.2873	1084.4908	65535	64639.1
858.4323	1086.4587	65535	64636.4
858.5773	1088.426	65535	64640.15
858.7223	1090.3925	65535	64632.3
858.8673	1092.3584	65535	64636.7
859.0123	1094.3235	65535	64638.5
859.1573	1096.2879	65535	64634.45
859.3022	1098.2515	65535	64637.35
859.4472	1100.2145	65535	64640
859.5922	1102.1767	65535	64636.3
859.7371	1104.1382	65535	64637.35
859.8821	1106.099	65535	64638.8
860.027	1108.0591	65535	64638.85
860.172	1110.0185	65535	64634.35
860.3169	1111.9771	65535	64638.85
860.4619	1113.9351	65535	64637.25
860.6068	1115.8923	65535	64639
860.7517	1117.8488	65535	64637.15
860.8967	1119.8045	65535	64637.2
861.0416	1121.7596	65535	64635.1
861.1865	1123.7139	65535	64638.1
861.3314	1125.6675	65535	64637.7
861.4763	1127.6204	65535	64637.55
861.6212	1129.5726	65535	64634.15
861.7661	1131.524	65535	64638.2
861.911	1133.4748	65535	64635.9
862.0559	1135.4248	65535	64635.1
862.2008	1137.3741	65535	64636.85
862.3457	1139.3226	65535	64635.55
862.4905	1141.2705	65535	64637.9
862.6354	1143.2176	65535	64630.45
862.7803	1145.164	65535	64634.9
862.9251	1147.1097	65535	64637.05
863.07	1149.0546	65535	64634.4
863.2148	1150.9989	65535	64633.35
863.3597	1152.9424	65535	64637.55
863.5045	1154.8852	65535	64637.1
863.6493	1156.8272	65535	64637.6
863.7942	1158.7686	65535	64627.75
863.939	1160.7092	65535	64636.15
864.0838	1162.6491	65535	64635.7
864.2286	1164.5883	65535	64636.75
864.3734	1166.5267	65535	64636.7
864.5182	1168.4644	65535	64637.55
864.663	1170.4014	65535	64631.35
864.8078	1172.3377	65535	64638.95
864.9526	1174.2732	65535	64639.45
865.0974	1176.2081	65535	64639.5
865.2421	1178.1421	65535	64631.8
865.3869	1180.0755	65535	64639.25
865.5317	1182.0082	65535	64638.3
865.6764	1183.9401	65535	64635.85
865.8212	1185.8713	65535	64637.8
865.9659	1187.8017	65535	64640
866.1106	1189.7315	65535	64639
866.2554	1191.6605	65535	64610.2
866.4001	1193.5888	65535	64638
866.5448	1195.5163	65535	64639.15
866.6895	1197.4432	65535	64637.2
866.8342	1199.3693	65535	64637.1
866.9789	1201.2947	65535	64636.4
867.1236	1203.2193	65535	64638.35
867.2683	1205.1432	65535	64637.6
867.413	1207.0664	65535	64636.1
867.5576	1208.9889	65535	64634.6
867.7023	1210.9106	65535	64638.5
867.847	1212.8316	65535	64638.75
867.9916	1214.7519	65535	64626.25
868.1363	1216.6715	65535	64636.25
868.2809	1218.5903	65535	64639.45
868.4255	1220.5084	65535	64638.55
868.5701	1222.4257	65535	64638.55
868.7148	1224.3424	65535	64638.75
868.8594	1226.2583	65535	64632.45
869.004	1228.1735	65535	64635.9
869.1486	1230.0879	65535	64636.4
869.2932	1232.0016	65535	64636.1
869.4377	1233.9146	65535	64635.45
869.5823	1235.8269	65535	64637.1
869.7269	1237.7384	65535	64638.95
869.8715	1239.6492	65535	64637.75
870.016	1241.5592	65535	64635.65
870.1606	1243.4686	65535	64637.5
870.3051	1245.3772	65535	64637
870.4496	1247.285	65535	64637
870.5941	1249.1922	65535	64638
870.7387	1251.0986	65535	64637.2
870.8832	1253.0042	65535	64637.6
871.0277	1254.9092	65535	64637.7
871.1722	1256.8134	65535	64639.15
871.3167	1258.7169	65535	64636.15
871.4611	1260.6196	65535	64638.5
871.6056	1262.5216	65535	64636.2
871.7501	1264.4229	65535	64638.3
871.8945	1266.3234	65535	64634.5
872.039	1268.2232	65535	64637
872.1834	1270.1223	65535	64637.5
872.3278	1272.0207	65535	64636.7
872.4723	1273.9183	65535	64633.7
872.6167	1275.8151	65535	64638.75
872.7611	1277.7113	65535	64635.9
872.9055	1279.6067	65535	64638.1
873.0499	1281.5014	65535	64634.65
873.1943	1283.3953	65535	64636.8
873.3386	1285.2885	65535	64638.4
873.483	1287.181	65535	64634.65
873.6274	1289.0727	65535	64639.5
873.7717	1290.9637	65535	64637.4
873.9161	1292.854	65535	64637.2
874.0604	1294.7435	65535	64637.35
874.2047	1296.6323	65535	64636.4
874.349	1298.5204	65535	64636.45
874.4933	1300.4077	65535	64634.7
874.6376	1302.2943	65535	64638.25
874.7819	1304.1802	65535	64637.1
874.9262	1306.0653	65535	64634.7
875.0705	1307.9497	65535	64635.75
875.2147	1309.8333	65535	64637.5
875.359	1311.7162	65535	64636.95
875.5032	1313.5984	65535	64634.4
875.6475	1315.4798	65535	64626.25
875.7917	1317.3605	65535	64622.35
875.9359	1319.2405	65535	64635.65
876.0801	1321.1197	65535	64632.95
876.2243	1322.9982	65535	64633.6
876.3685	1324.876	65535	64637.3
876.5127	1326.753	65535	64636
876.6569	1328.6293	65535	64634.1
876.801	1330.5048	65535	64635.5
876.9452	1332.3796	65535	64635.7
877.0893	1334.2537	65535	64611.5
877.2335	1336.127	65535	64635.85
877.3776	1337.9996	65535	64635.4
877.5217	1339.8714	65535	64637.7
877.6658	1341.7426	65535	64592.55
877.8099	1343.6129	65535	64636.45
877.954	1345.4826	65535	64637.2
878.0981	1347.3515	65535	64634.6
878.2422	1349.2196	65535	64635.15
878.3862	1351.087	65535	64638.3
878.5303	1352.9537	65535	64635.65
878.6743	1354.8197	65535	64636.15
878.8184	1356.6849	65535	64637.1
878.9624	1358.5493	65535	64637.9
879.1064	1360.4131	65535	64637.75
879.2504	1362.276	65535	64638
879.3944	1364.1383	65535	64637.65
879.5384	1365.9998	65535	64629.8
879.6823	1367.8606	65535	64635
879.8263	1369.7206	65535	64635.8
879.9702	1371.5799	65535	64633.85
880.1142	1373.4384	65535	64635.95
880.2581	1375.2962	65535	64638.55
880.402	1377.1533	65535	64638.1
880.5459	1379.0096	65535	64636.4
880.6898	1380.8652	65535	64635.75
880.8337	1382.7201	65535	64636.8
880.9776	1384.5742	65535	64633.5
881.1215	1386.4275	65535	64634.35
881.2653	1388.2802	65535	64636.35
881.4092	1390.132	65535	64636.9
881.553	1391.9832	65535	64635.35
881.6968	1393.8336	65535	64635.15
881.8406	1395.6832	65535	64638.1
881.9844	1397.5322	65535	64637.55
882.1282	1399.3803	65535	64630.2
882.272	1401.2278	65535	64637.25
882.4158	1403.0745	65535	64635.6
882.5595	1404.9204	65535	64638.8
882.7033	1406.7656	65535	64637.25
882.847	1408.6101	65535	64635.75
882.9908	1410.4538	65535	64638.2
883.1345	1412.2968	65535	64636.45
883.2782	1414.139	65535	64637.8
883.4219	1415.9805	65535	64637.25
883.5656	1417.8213	65535	64630.45
883.7092	1419.6613	65535	64639.75
883.8529	1421.5006	65535	64634.6
883.9965	1423.3391	65535	64637.35
884.1402	1425.1769	65535	64634.35
884.2838	1427.0139	65535	64634.3
884.4274	1428.8502	65535	64637.4
884.571	1430.6858	65535	64635.75
884.7146	1432.5206	65535	64638.1
884.8582	1434.3547	65535	64635.55
885.0018	1436.188	65535	64635.7
885.1453	1438.0206	65535	64635.35
885.2889	1439.8524	65535	64638.1
885.4324	1441.6835	65535	64635.15
885.5759	1443.5139	65535	64635.25
885.7194	1445.3435	65535	64636.7
885.8629	1447.1724	65535	64635.8
886.0064	1449.0005	65535	64634.75
886.1499	1450.8279	65535	64634.95
886.2933	1452.6545	65535	64638.45
886.4368	1454.4804	65535	64635.8
886.5802	1456.3056	65535	64631.3
886.7237	1458.13	65535	64637.45
886.8671	1459.9536	65535	64636.8
887.0105	1461.7766	65535	64636.65
887.1539	1463.5987	65535	64637.05
887.2972	1465.4202	65535	64636.75
887.4406	1467.2409	65535	64636.4
887.584	1469.0608	65535	64638.8
887.7273	1470.88	65535	64637.8
887.8706	1472.6984	65535	64639.65
888.0139	1474.5161	65535	64636.05
888.1572	1476.3331	65535	64638.15
888.3005	1478.1493	65535	64637.35
888.4438	1479.9648	65535	64636.95
888.5871	1481.7795	65535	64637.2
888.7303	1483.5935	65535	64638.8
888.8736	1485.4067	65535	64637.3
889.0168	1487.2192	65535	64637.3
889.16	1489.031	65535	64633.65
889.3032	1490.842	65535	64637.3
889.4464	1492.6522	65535	64637.05
889.5896	1494.4618	65535	64635.3
889.7327	1496.2705	65535	64636
889.8759	1498.0785	65535	64638.65
890.019	1499.8858	65535	64636.45
890.1622	1501.6924	65535	64638
890.3053	1503.4981	65535	64639.45
890.4484	1505.3032	65535	64634.75
890.5914	1507.1075	65533.55	64637.2
890.7345	1508.911	65535	64635.3
890.8776	1510.7138	65533.5	64635.5
891.0206	1512.5159	65535	64637.3
891.1637	1514.3172	65516.2	64619.3
891.3067	1516.1178	65523.4	64626.75
891.4497	1517.9176	65531.6	64630.75
891.5927	1519.7166	65520.35	64621.95
891.7357	1521.515	65515.55	64611.55
891.8786	1523.3126	65458.55	64559.15
892.0216	1525.1094	65517.95	64620.45
892.1645	1526.9055	65488	64594
892.3074	1528.7008	65501.8	64604.2
892.4503	1530.4954	65436.6	64533
892.5932	1532.2893	65484.4	64589.55
892.7361	1534.0824	65412.4	64510.55
892.879	1535.8747	65351.5	64452.05
893.0218	1537.6663	65499.55	64601.7
893.1647	1539.4572	65144.15	64245.1
893.3075	1541.2473	65325.5	64428.5
893.4503	1543.0367	65288.25	64392.9
893.5931	1544.8253	65222.65	64321.95
893.7359	1546.6132	65262.75	64362.9
893.8787	1548.4003	65124.65	64218.25
894.0214	1550.1867	65058.1	64150.9
894.1642	1551.9723	64972.45	64070.5
894.3069	1553.7572	64979.55	64083.1
894.4496	1555.5414	65121.3	64224.6
894.5923	1557.3247	63858.4	62960.75
894.735	1559.1074	64990.05	64093.95
894.8777	1560.8893	64538.4	63641.6
895.0204	1562.6705	64790.6	63896.1
895.163	1564.4509	63935.25	63039.3
895.3056	1566.2305	64360.4	63465.7
895.4482	1568.0094	64842.95	63948.4
895.5908	1569.7876	64445.8	63551.15
895.7334	1571.565	63884.05	62987.8
895.876	1573.3417	64223.35	63327.3
896.0186	1575.1176	64017.7	63123.05
896.1611	1576.8928	63741.8	62845.85
896.3036	1578.6672	63095.8	62202.9
896.4461	1580.4409	63469.9	62576.6
896.5886	1582.2138	62568.4	61670.2
896.7311	1583.986	62784.15	61888.9
896.8736	1585.7575	61959.7	61064.95
897.0161	1587.5282	62100.05	61205.45
897.1585	1589.2981	62223.05	61329
897.3009	1591.0673	61449.55	60554.4
897.4433	1592.8358	60945.35	60049.75
897.5857	1594.6035	61405.35	60507.5
897.7281	1596.3704	61517.25	60621.1
897.8705	1598.1366	60588.5	59692.25
898.0128	1599.9021	60080.2	59184.8
898.1551	1601.6668	60693.3	59797.5
898.2975	1603.4308	60302.5	59406.8
898.4398	1605.194	60569.4	59670.4
898.5821	1606.9564	59420.4	58524.75
898.7243	1608.7182	59990.7	59091.5
898.8666	1610.4791	59416.95	58524
899.0088	1612.2394	59907.4	59015.35
899.1511	1613.9988	59359.2	58464.8
899.2933	1615.7576	59997.6	59103.45
899.4355	1617.5156	59975.4	59075.1
899.5776	1619.2728	60777.15	59882.6
899.7198	1621.0293	59638.5	58743.85
899.862	1622.785	59626.1	58728.65
900.0041	1624.54	60028.9	59131.35
900.1462	1626.2942	59387.75	58492.75
900.2883	1628.0477	58341.85	57445.5
900.4304	1629.8005	57795.05	56897.85
900.5725	1631.5525	58225.85	57331.5
900.7145	1633.3037	57220.6	56327.3
900.8566	1635.0542	57171.85	56276.4
900.9986	1636.804	57261.25	56366.8
901.1406	1638.553	56538.45	55537.6
901.2826	1640.3013	56654.5	55758.2
901.4245	1642.0488	56052.1	55157.4
901.5665	1643.7955	56244.65	55349.95
901.7085	1645.5416	55931.6	55038
901.8504	1647.2868	55694.35	54803.05
901.9923	1649.0313	56083.8	55189.7
902.1342	1650.7751	55812.05	54914.2
902.2761	1652.5181	55489.6	54596.5
902.4179	1654.2604	55597.6	54701.2
902.5598	1656.0019	56026.35	55133.95
902.7016	1657.7427	55901.55	55009.5
902.8434	1659.4828	56381.05	55487.1
902.9852	1661.222	56255.2	55359.6
903.127	1662.9606	56351.75	55456.25
903.2687	1664.6984	55877.15	54980.8
903.4105	1666.4354	55743.1	54847.15
903.5522	1668.1717	54737.15	53841.5
903.6939	1669.9072	54088.8	53195.35
903.8356	1671.642	53713.4	52815.5
903.9773	1673.3761	53335	52442.05
904.119	1675.1094	52968.35	52074.9
904.2606	1676.8419	52565.45	51671.3
904.4022	1678.5737	52258.95	51364.25
904.5439	1680.3048	51968.45	51074.1
904.6855	1682.0351	51683.7	50791.65
904.827	1683.7646	51338.35	50442.15
904.9686	1685.4934	51279.35	50384.5
905.1101	1687.2215	50780.5	49887.2
905.2517	1688.9488	50844.85	49951
905.3932	1690.6754	50210.8	49318
905.5347	1692.4012	50253.05	49358.95
905.6761	1694.1263	50071.95	49178.7
905.8176	1695.8506	49921.35	49028.45
905.9591	1697.5742	49658.3	48764.95
906.1005	1699.297	49471.2	48578.15
906.2419	1701.0191	49198.8	48307.2
906.3833	1702.7404	48971.1	48080.4
906.5246	1704.461	48709.95	47816.75
906.666	1706.1808	48519.75	47624.1
906.8073	1707.8999	48419.55	47525
906.9487	1709.6182	48239.6	47347.35
907.09	1711.3358	48069.45	47177.45
907.2313	1713.0527	47897.65	47008.2
907.3725	1714.7688	47706.2	46808.5
907.5138	1716.4841	47460.05	46565.1
907.655	1718.1987	47397.1	46498.2
907.7962	1719.9126	47234.7	46343.5
907.9374	1721.6257	47017.45	46121.85
908.0786	1723.338	46947.85	46052.7
908.2198	1725.0496	46598.1	45706.15
908.3609	1726.7605	46530.55	45637.65
908.502	1728.4706	46331.8	45438.1
908.6431	1730.18	46076.95	45181.4
908.7842	1731.8886	45959.75	45069.15
908.9253	1733.5964	45855.55	44942.4
909.0664	1735.3036	45741.75	44846.05
909.2074	1737.0099	45573.7	44682.5
909.3484	1738.7156	45467.15	44577.6
909.4894	1740.4204	45225.9	44330.2
909.6304	1742.1246	45068.25	44175.35
909.7714	1743.8279	45001.9	44110.6
909.9123	1745.5306	44943.95	44050.1
910.0532	1747.2325	44672.7	43782.8
910.1941	1748.9336	44509.3	43618.4
910.335	1750.634	44326.05	43432.75
910.4759	1752.3336	44233.2	43344
910.6168	1754.0325	44154.6	43264.65
910.7576	1755.7307	44021.25	43131.1
910.8984	1757.4281	43951.65	43059
911.0392	1759.1247	43865.5	42964.9
911.18	1760.8206	43756.65	42858.45
911.3208	1762.5158	43629.3	42733.65
911.4615	1764.2102	43403.9	42512.9
911.6022	1765.9039	43202.3	42312.4
911.7429	1767.5968	43125.85	42234.8
911.8836	1769.289	42959.35	42066.95
912.0243	1770.9804	42889.15	41997.3
912.1649	1772.6711	42837.75	41943.55
912.3056	1774.361	42682.95	41788.8
912.4462	1776.0502	42603.75	41710.55
912.5868	1777.7386	42422.6	41530.15
912.7274	1779.4263	42341.05	41448.75
912.8679	1781.1132	42232.95	41343.05
913.0084	1782.7994	42055.1	41161.95
913.149	1784.4849	41949.85	41056.65
913.2895	1786.1696	41791.95	40894
913.4299	1787.8535	41673.8	40780.9
913.5704	1789.5367	41513.4	40620.8
913.7108	1791.2192	41447.8	40556.9
913.8513	1792.9009	41282.75	40358.05
913.9917	1794.5818	41203.3	40311
914.132	1796.2621	41061.8	40170.55
914.2724	1797.9415	40990.5	40097.25
914.4128	1799.6202	40798	39905.3
914.5531	1801.2982	40750.6	39858.45
914.6934	1802.9755	40715.2	39822.3
914.8337	1804.6519	40572.2	39677.75
914.9739	1806.3277	40311.25	39418.3
915.1142	1808.0027	40120.7	39230.8
915.2544	1809.6769	40126.55	39231.6
915.3946	1811.3504	39962.85	39070.55
915.5348	1813.0231	39914.2	39019.9
915.675	1814.6951	39797.3	38906.4
915.8151	1816.3664	39766.9	38871.95
915.9553	1818.0369	39663.2	38771.25
916.0954	1819.7067	39470.4	38577.35
916.2355	1821.3757	39377.5	38482.8
916.3755	1823.044	39258.55	38365.15
916.5156	1824.7115	39191.1	38297.2
916.6556	1826.3783	38948.75	38057.7
916.7956	1828.0443	38848.3	37956.5
916.9356	1829.7096	38798.4	37904.15
917.0756	1831.3741	38706.1	37808.65
917.2155	1833.0379	38566.3	37673.6
917.3555	1834.701	38405.7	37512.3
917.4954	1836.3633	38332.55	37440.8
917.6353	1838.0248	38249.1	37356.1
917.7751	1839.6856	38126.85	37235.25
917.915	1841.3457	38089	37197.5
918.0548	1843.005	37960.85	37069.3
918.1946	1844.6636	37879.75	36988.2
918.3344	1846.3214	37780.65	36887.5
918.4742	1847.9785	37729.95	36836.8
918.6139	1849.6349	37595.55	36701.1
918.7537	1851.2904	37525.1	36623.75
918.8934	1852.9453	37378.55	36486.45
919.0331	1854.5994	37253.55	36358.05
919.1727	1856.2528	37309.1	36411.35
919.3124	1857.9054	37091.85	36199.35
919.452	1859.5572	36999.8	36108.05
919.5916	1861.2083	36963	36071.65
919.7312	1862.8587	36867.5	35974.15
919.8708	1864.5084	36803.85	35910.2
920.0103	1866.1572	36645.25	35754.85
920.1498	1867.8054	36502.8	35609.25
920.2893	1869.4528	36454.5	35562.1
920.4288	1871.0994	36298.5	35407.55
920.5683	1872.7453	36215.4	35323.1
920.7077	1874.3905	36083.5	35186.35
920.8471	1876.0349	35983.3	35090.45
920.9865	1877.6786	35977.55	35084.2
921.1259	1879.3215	35929.45	35036.7
921.2653	1880.9637	35846.35	34952.95
921.4046	1882.6051	35750.1	34858.1
921.5439	1884.2458	35622.35	34726.85
921.6832	1885.8858	35450.45	34557.2
921.8225	1887.525	35337.75	34444.55
921.9617	1889.1634	35146.9	34252.4
922.101	1890.8011	35106.15	34214.45
922.2402	1892.4381	35039.1	34145.85
922.3794	1894.0743	34941.8	34049.2
922.5185	1895.7098	34858.9	33966.4
922.6577	1897.3446	34753.3	33859.8
922.7968	1898.9786	34655.45	33757.95
922.9359	1900.6118	34520.85	33630.15
923.075	1902.2443	34354	33458.55
923.214	1903.8761	34285.25	33392.6
923.3531	1905.5071	34065.55	33173
923.4921	1907.1374	33922.75	33030.8
923.6311	1908.7669	33928.7	33037.35
923.77	1910.3957	33866.5	32976.25
923.909	1912.0237	33611.85	32719.9
924.0479	1913.651	33556.25	32663.1
924.1868	1915.2776	33465.05	32574.4
924.3257	1916.9034	33293.05	32402.9
924.4646	1918.5285	33138.35	32247.1
924.6034	1920.1528	32924.5	32032.15
924.7422	1921.7764	32946.35	32054
924.881	1923.3992	32785.3	31896.1
925.0198	1925.0213	32563.65	31671.05
925.1586	1926.6427	32399.85	31509.85
925.2973	1928.2633	32427.15	31428.45
925.436	1929.8832	32262.65	31366.9
925.5747	1931.5023	32091.25	31199.6
925.7134	1933.1207	31988.45	31096
925.852	1934.7383	31991.3	31098.9
925.9906	1936.3552	31819.5	30928.75
926.1292	1937.9714	31686.75	30793.35
926.2678	1939.5868	31593.5	30699.5
926.4064	1941.2015	31370.8	30477.8
926.5449	1942.8154	31256.65	30363.45
926.6834	1944.4286	31105.75	30213.55
926.8219	1946.041	30973.05	30063.3
926.9604	1947.6528	30826.85	29929.35
927.0988	1949.2637	30732.25	29840.8
927.2372	1950.8739	30625.6	29734.8
927.3756	1952.4834	30555.05	29662.75
927.514	1954.0921	30537.15	29645.4
927.6523	1955.7001	30341.3	29444.8
927.7907	1957.3074	30262.85	29372.55
927.929	1958.9139	30135.7	29242.55
928.0673	1960.5197	30065.5	29171.4
928.2055	1962.1247	29903.7	29011.2
928.3438	1963.729	29714.25	28824.1
928.482	1965.3325	29643.9	28728.9
928.6202	1966.9353	29553.4	28663.6
928.7584	1968.5374	29406.05	28514.9
928.8965	1970.1387	29337.55	28446.6
929.0346	1971.7393	29191.5	28301.05
929.1727	1973.3392	29087.75	28197.5
929.3108	1974.9383	28998.5	28109.5
929.4489	1976.5366	28795.95	27902.05
929.5869	1978.1342	28847.5	27955.5
929.7249	1979.7311	28774	27879.95
929.8629	1981.3273	28682.5	27790.45
930.0009	1982.9227	28529.75	27636.4
930.1388	1984.5173	28450.35	27558
930.2767	1986.1112	28294.4	27404.2
930.4146	1987.7044	28191.45	27303.2
930.5525	1989.2968	28067.7	27178.5
930.6904	1990.8885	28024.55	27129.7
930.8282	1992.4795	27944.75	27052.15
930.966	1994.0697	27850.1	26958.85
931.1038	1995.6592	27714.05	26823.15
931.2415	1997.2479	27640.1	26748
931.3793	1998.8359	27518.65	26626
931.517	2000.4232	27405.6	26514.25
931.6547	2002.0097	27321.2	26430.55
931.7923	2003.5955	27176.6	26285.15
931.93	2005.1805	27195.7	26302.8
932.0676	2006.7648	27069.6	26178.5
932.2052	2008.3484	26966.25	26074.85
932.3427	2009.9312	27029.4	26136.95
932.4803	2011.5133	26842.55	25952.5
932.6178	2013.0946	26750.3	25859.4
932.7553	2014.6752	26639.95	25748.7
932.8928	2016.2551	26627	25735.4
933.0302	2017.8342	26453.3	25562.75
933.1676	2019.4126	26363.65	25473
933.305	2020.9902	26196.6	25308.1
933.4424	2022.5672	26185.9	25293.75
933.5798	2024.1433	26117.75	25219
933.7171	2025.7188	26045.8	25155.9
933.8544	2027.2935	25959.65	25068.45
933.9917	2028.8674	25850.15	24957.4
934.129	2030.4406	25721.45	24831.25
934.2662	2032.0131	25625.85	24735.5
934.4034	2033.5849	25528.25	24627.8
934.5406	2035.1559	25468.55	24578.2
934.6778	2036.7261	25433.65	24544.75
934.8149	2038.2957	25306.25	24414.55
934.952	2039.8645	25294.05	24403.55
935.0891	2041.4325	25276.8	24383.5
935.2262	2042.9998	25111.1	24220.95
935.3632	2044.5664	25051.8	24158.45
935.5002	2046.1323	24936.75	24047.05
935.6372	2047.6974	24853.15	23962.65
935.7742	2049.2617	24840.55	23949.85
935.9111	2050.8254	24810.25	23899
936.048	2052.3883	24751.5	23860.6
936.1849	2053.9504	24625.4	23735.8
936.3218	2055.5118	24533.7	23643
936.4586	2057.0725	24405.4	23512
936.5955	2058.6325	24349	23456.55
936.7323	2060.1917	24244.95	23354.1
936.869	2061.7502	24212.65	23318.6
937.0058	2063.3079	24139.35	23249.45
937.1425	2064.8649	24008.65	23113.5
937.2792	2066.4212	23976.45	23086.45
937.4159	2067.9767	23895.7	23004.25
937.5525	2069.5315	23779.45	22889.8
937.6891	2071.0856	23687.85	22796.85
937.8257	2072.6389	23597.4	22705.95
937.9623	2074.1915	23441.8	22552.2
938.0989	2075.7433	23322.85	22430.1
938.2354	2077.2945	23287.95	22398.35
938.3719	2078.8448	23238.9	22349.15
938.5084	2080.3945	23131.7	22241.35
938.6448	2081.9434	23101.95	22210.45
938.7812	2083.4916	23002.45	22112.15
938.9176	2085.039	22902.25	22008.5
939.054	2086.5857	22849	21955.6
939.1903	2088.1317	22814.35	21921.8
939.3267	2089.677	22780.7	21887.55
939.463	2091.2215	22692.45	21801.8
939.5992	2092.7652	22578.8	21686.3
939.7355	2094.3083	22540.55	21648
939.8717	2095.8506	22474.5	21584.25
940.0079	2097.3921	22448.9	21558.15
940.1441	2098.933	22327.3	21435.3
940.2802	2100.4731	22252.5	21359.6
940.4163	2102.0124	22272.75	21373.35
940.5524	2103.5511	22192.45	21302.7
940.6885	2105.089	22138.45	21248.75
940.8245	2106.6261	22067.1	21175
940.9606	2108.1626	21981.65	21089.65
941.0965	2109.6983	21952.8	21031.65
941.2325	2111.2332	21865.2	20972
941.3684	2112.7675	21791.7	20900.65
941.5044	2114.301	21679.15	20786.2
941.6403	2115.8337	21678.9	20788
941.7761	2117.3657	21590.9	20700.65
941.912	2118.897	21559	20666.5
942.0478	2120.4276	21466.4	20569.45
942.1835	2121.9575	21333	20441
942.3193	2123.4866	21392.95	20488.05
942.455	2125.0149	21286.1	20391.75
942.5907	2126.5426	21147.6	20257
942.7264	2128.0695	21109.1	20214.25
942.8621	2129.5956	21065.9	20177
942.9977	2131.1211	20989.85	20095.4
943.1333	2132.6458	20926.25	20034.7
943.2689	2134.1698	20880.2	19988.05
943.4044	2135.693	20826.7	19931.8
943.54	2137.2155	20790.05	19895.8
943.6755	2138.7373	20745.1	19853.65
943.8109	2140.2584	20623.3	19731.05
943.9464	2141.7787	20577.2	19681
944.0818	2143.2983	20458.5	19566.65
944.2172	2144.8171	20331.3	19441
944.3526	2146.3353	20313.25	19418.4
944.4879	2147.8527	20202.25	19311
944.6232	2149.3693	20244.95	19355.85
944.7585	2150.8853	20123.35	19230.85
944.8938	2152.4005	20009.25	19115.85
945.029	2153.9149	20000.2	19106.7
945.1642	2155.4287	19921	19029.85
945.2994	2156.9417	19862.15	18970.75
945.4346	2158.454	19803.8	18909.95
945.5697	2159.9655	19714.2	18823.35
945.7048	2161.4764	19701.55	18808.85
945.8399	2162.9865	19637	18745.35
945.9749	2164.4958	19570.5	18675.9
946.1099	2166.0045	19500.85	18605.25
946.2449	2167.5124	19475.65	18585.1
946.3799	2169.0195	19375.25	18484.6
946.5148	2170.526	19361.5	18469.85
946.6498	2172.0317	19306.85	18416.25
946.7846	2173.5367	19238.05	18344.1
946.9195	2175.0409	19170.35	18279
947.0543	2176.5445	19182.95	18293.55
947.1891	2178.0473	19089.7	18198.6
947.3239	2179.5494	18963.5	18068.65
947.4587	2181.0507	18895.5	18003.5
947.5934	2182.5513	18879.1	17986.6
947.7281	2184.0512	18812.2	17919.85
947.8628	2185.5504	18732.9	17842.7
947.9974	2187.0488	18642.45	17752.8
948.132	2188.5465	18579.25	17686.7
948.2666	2190.0435	18499.55	17608.8
948.4012	2191.5397	18440.4	17548.75
948.5357	2193.0353	18398.9	17508.5
948.6702	2194.5301	18318.9	17426.4
948.8047	2196.0241	18242.15	17349.2
948.9392	2197.5175	18212.4	17320.95
949.0736	2199.0101	18090.15	17194.05
949.208	2200.502	18010.1	17119.8
949.3424	2201.9931	17912.85	17020.55
949.4767	2203.4835	17863.05	16970.15
949.611	2204.9733	17818.8	16920.9
949.7453	2206.4622	17784.65	16893.65
949.8796	2207.9505	17702.95	16808.85
950.0138	2209.438	17591.75	16701.1
950.148	2210.9248	17554.2	16661.7
950.2822	2212.4109	17469.15	16577.9
950.4164	2213.8962	17438.9	16545
950.5505	2215.3809	17403.8	16512.15
950.6846	2216.8648	17348.8	16457.6
950.8186	2218.3479	17305.7	16409.15
950.9527	2219.8304	17211	16316.4
951.0867	2221.3121	17152.65	16258.65
951.2207	2222.7931	17104.05	16213.75
951.3546	2224.2733	17027.5	16136.2
951.4886	2225.7529	16959.75	16066.15
951.6225	2227.2317	16884.95	15990.35
951.7563	2228.7098	16842.3	15953.45
951.8902	2230.1872	16776.1	15885
952.024	2231.6638	16736.05	15846.95
952.1578	2233.1397	16675.55	15778.4
952.2916	2234.6149	16621.35	15730.45
952.4253	2236.0894	16590	15697.5
952.559	2237.5632	16551	15648.3
952.6927	2239.0362	16441.9	15551.25
952.8263	2240.5085	16387.75	15497.05
952.9599	2241.9801	16341.5	15450
953.0935	2243.4509	16266.2	15375
953.2271	2244.921	16215.25	15322.9
953.3606	2246.3904	16158	15265.1
953.4941	2247.8591	16115.65	15224.65
953.6276	2249.3271	16051.9	15161.25
953.7611	2250.7943	15988.2	15095.35
953.8945	2252.2608	15928.7	15037.25
954.0279	2253.7266	15910.6	15019.35
954.1612	2255.1917	15850.45	14957.6
954.2946	2256.656	15756.75	14863.3
954.4279	2258.1197	15728.6	14837.25
954.5612	2259.5826	15676.75	14780.65
954.6944	2261.0447	15646.85	14755.8
954.8276	2262.5062	15555.15	14662.55
954.9608	2263.9669	15538.5	14646.55
955.094	2265.4269	15510.4	14618.65
955.2271	2266.8862	15455.65	14564.7
955.3602	2268.3448	15397.55	14505.3
955.4933	2269.8026	15377.9	14484.3
955.6264	2271.2598	15313.65	14420.45
955.7594	2272.7162	15264.4	14374.1
955.8924	2274.1719	15193.6	14301.2
956.0253	2275.6268	15153.4	14262.45
956.1583	2277.0811	15115.9	14223.85
956.2912	2278.5346	15067.45	14177.1
956.4241	2279.9874	15026.7	14134.95
956.5569	2281.4395	14988.3	14097.6
956.6897	2282.8908	14919.95	14024.55
956.8225	2284.3414	14901.6	14006.9
956.9553	2285.7914	14838.35	13949.15
957.088	2287.2406	14785.7	13891.1
957.2207	2288.689	14742.2	13850
957.3534	2290.1368	14694.35	13800.75
957.486	2291.5838	14651.85	13760.35
957.6186	2293.0302	14603.85	13711.75
957.7512	2294.4758	14529.5	13637.95
957.8838	2295.9206	14447.45	13553.7
958.0163	2297.3648	14380.75	13487.5
958.1488	2298.8082	14401.4	13508.2
958.2813	2300.251	14361.75	13469.9
958.4137	2301.693	14298.9	13404.45
958.5461	2303.1343	14305.55	13414.75
958.6785	2304.5748	14233.95	13343.3
958.8108	2306.0147	14198.05	13304.85
958.9432	2307.4538	14142.7	13249
959.0754	2308.8922	14113.35	13222.25
959.2077	2310.3299	14044.1	13152.25
959.3399	2311.7669	13983.8	13093.2
959.4721	2313.2031	13910.15	13018.7
959.6043	2314.6387	13879.8	12986.15
959.7365	2316.0735	13845.7	12952.85
959.8686	2317.5076	13784.55	12892
960.0006	2318.941	13768.75	12877.75
960.1327	2320.3737	13725.6	12835.7
960.2647	2321.8056	13699.25	12804.65
960.3967	2323.2369	13614.1	12720.4
960.5287	2324.6674	13570.9	12675.95
960.6606	2326.0972	13531.6	12637.65
960.7925	2327.5263	13483.3	12592.65
960.9244	2328.9547	13444.25	12552.15
961.0562	2330.3823	13375.6	12484.25
961.1881	2331.8092	13383.55	12488.35
961.3198	2333.2355	13331.8	12438.65
961.4516	2334.661	13310.4	12417.95
961.5833	2336.0858	13237.35	12344.9
961.715	2337.5098	13193.95	12302.4
961.8467	2338.9332	13169.9	12277.8
961.9783	2340.3558	13109.7	12214.85
962.1099	2341.7778	13081.25	12192.1
962.2415	2343.199	13027.45	12131.85
962.373	2344.6195	13012.6	12120.9
962.5045	2346.0393	12954.9	12063
962.636	2347.4583	12938.95	12046.05
962.7675	2348.8767	12851.55	11958.15
962.8989	2350.2943	12838.9	11945.2
963.0303	2351.7113	12765.55	11872.5
963.1617	2353.1275	12741	11849.3
963.293	2354.543	12764.3	11847.6
963.4243	2355.9578	12666.75	11775.4
963.5556	2357.3718	12566.5	11676.7
963.6868	2358.7852	12513.05	11619.95
963.818	2360.1978	12498.35	11604.95
963.9492	2361.6098	12482.6	11590.45
964.0803	2363.021	12426.75	11531.2
964.2114	2364.4315	12379.3	11486.9
964.3425	2365.8413	12340.95	11448.1
964.4736	2367.2504	12272.2	11380.7
964.6046	2368.6587	12238.5	11348.15
964.7356	2370.0664	12165.4	11274
964.8666	2371.4733	12137	11245.95
964.9975	2372.8795	12103.05	11211.15
965.1284	2374.285	12054.9	11162.3
965.2593	2375.6899	11978.15	11087.75
965.3901	2377.0939	11927.25	11035.7
965.5209	2378.4973	11882.7	10993
965.6517	2379.9	11824.05	10931.75
965.7825	2381.3019	11787.7	10899.05
965.9132	2382.7032	11769.45	10877.85
966.0439	2384.1037	11753.65	10863.6
966.1745	2385.5035	11685.6	10795.85
966.3051	2386.9027	11633.8	10743.1
966.4357	2388.3011	11601.2	10705.5
966.5663	2389.6987	11544.05	10652
966.6968	2391.0957	11519.1	10629
966.8273	2392.492	11449.4	10561.1
966.9578	2393.8876	11408.4	10516.4
967.0882	2395.2824	11334.15	10442.25
967.2186	2396.6765	11299.95	10408.35
967.349	2398.07	11250.1	10360.85
967.4793	2399.4627	11240.65	10351.05
967.6097	2400.8547	11189.9	10298.5
967.7399	2402.246	11180.9	10285.9
967.8702	2403.6366	11100.55	10209.15
968.0004	2405.0265	11045.4	10154.1
968.1306	2406.4156	11005.55	10111.5
968.2607	2407.8041	10964.9	10071.45
968.3909	2409.1918	10927.45	10035.75
968.521	2410.5789	10877.5	9985.25
968.651	2411.9652	10818.05	9924.35
968.781	2413.3508	10786.25	9895.5
968.911	2414.7358	10764.7	9872.9
969.041	2416.12	10709.05	9819.15
969.1709	2417.5035	10676.2	9787.1
969.3008	2418.8863	10615.6	9723.75
969.4307	2420.2684	10627.95	9737.6
969.5606	2421.6497	10583.5	9691.4
969.6904	2423.0304	10533.6	9642.9
969.8201	2424.4104	10516.2	9625.15
969.9499	2425.7896	10452.2	9553.5
970.0796	2427.1682	10414.25	9523.25
970.2093	2428.546	10396.5	9504.85
970.3389	2429.9232	10359.85	9467.35
970.4685	2431.2996	10330.55	9438.85
970.5981	2432.6753	10280.6	9390.2
970.7277	2434.0503	10251.4	9358
970.8572	2435.4246	10185.35	9294.5
970.9867	2436.7982	10158.25	9264.8
971.1161	2438.1711	10140.4	9249.3
971.2456	2439.5433	10120	9227.45
971.375	2440.9148	10060.2	9169.5
971.5043	2442.2856	10019.7	9128.55
971.6336	2443.6557	10001.75	9110.2
971.7629	2445.025	9952.55	9061.3
971.8922	2446.3937	9932.45	9039.85
972.0214	2447.7617	9879.65	8988.2
972.1506	2449.1289	9902.3	9010.35
972.2798	2450.4955	9864.55	8970.3
972.4089	2451.8613	9830.6	8940.35
972.538	2453.2265	9788.85	8895.95
972.6671	2454.5909	9786.95	8895.3
972.7961	2455.9546	9758.15	8867.85
972.9251	2457.3177	9727.95	8837.65
973.0541	2458.68	9676.15	8781.25
973.1831	2460.0416	9655.8	8764.7
973.312	2461.4025	9658.3	8766.55
973.4408	2462.7627	9620.5	8716.75
973.5697	2464.1222	9571.25	8680
973.6985	2465.4811	9551.65	8659.8
973.8273	2466.8392	9502.9	8611
973.956	2468.1966	9506.6	8613.5
974.0847	2469.5533	9479	8584.45
974.2134	2470.9093	9449.65	8558.65
974.3421	2472.2645	9413.8	8521.9
974.4707	2473.6191	9373.2	8481.65
974.5993	2474.973	9307.65	8415.05
974.7278	2476.3262	9291.8	8398.2
974.8563	2477.6787	9263.3	8370.5
974.9848	2479.0305	9219.15	8330.3
975.1132	2480.3816	9173.95	8282.35
975.2417	2481.7319	9133.35	8241.6
975.37	2483.0816	9117.85	8224.7
975.4984	2484.4306	9086.95	8194.9
975.6267	2485.7789	9064.3	8173.4
975.755	2487.1264	9005.05	8113.5
975.8833	2488.4733	8972.05	8080.4
976.0115	2489.8195	8938.5	8040.55
976.1397	2491.165	8897.35	8002.85
976.2678	2492.5097	8867.95	7975.35
976.3959	2493.8538	8851.85	7961.7
976.524	2495.1972	8814.45	7923
976.6521	2496.5398	8762	7868.15
976.7801	2497.8818	8753.45	7858.5
976.9081	2499.2231	8735.5	7844
977.036	2500.5637	8667.85	7775.15
977.164	2501.9035	8652.85	7759.3
977.2918	2503.2427	8641.95	7746.05
977.4197	2504.5812	8589.6	7701
977.5475	2505.919	8563.25	7669.6
977.6753	2507.256	8559.2	7668.15
977.8031	2508.5924	8485.8	7595.65
977.9308	2509.9281	8462.25	7564.95
978.0585	2511.2631	8436.9	7544.7
978.1861	2512.5974	8437.9	7546.3
978.3137	2513.9309	8396.5	7503.55
978.4413	2515.2638	8380.65	7454.65
978.5689	2516.596	8327.25	7435.4
978.6964	2517.9275	8303.45	7411.35
978.8239	2519.2583	8263.35	7372.2
978.9513	2520.5884	8242.55	7349.2
979.0788	2521.9178	8219.45	7327.7
979.2062	2523.2465	8190.75	7300.8
979.3335	2524.5745	8139.45	7248.45
979.4608	2525.9018	8117.85	7227.65
979.5881	2527.2284	8102.15	7211.25
979.7154	2528.5543	8073.75	7183.2
979.8426	2529.8796	8037.1	7144.7
979.9698	2531.2041	8038.3	7147.5
980.0969	2532.5279	7995.9	7106
980.224	2533.851	7989.5	7097.4
980.3511	2535.1735	7979.55	7090.45
980.4781	2536.4952	7950.5	7059.25
980.6052	2537.8163	7933.6	7040.9
980.7321	2539.1366	7891.8	6999.65
980.8591	2540.4562	7864.75	6972.5
980.986	2541.7752	7881.35	6990.8
981.1129	2543.0935	7848.2	6956.85
981.2397	2544.411	7833	6940.7
981.3665	2545.7279	7800.5	6910.1
981.4933	2547.0441	7775.05	6882.85
981.62	2548.3596	7759	6862.8
981.7467	2549.6744	7755.35	6866.7
981.8734	2550.9885	7741.05	6847.55
982.0001	2552.3019	7684.3	6793.25
982.1267	2553.6146	7668.95	6778.35
982.2532	2554.9266	7660.5	6768.25
982.3798	2556.2379	7629.75	6736.9
982.5063	2557.5485	7613.9	6722.9
982.6327	2558.8585	7596.15	6698.75
982.7592	2560.1677	7591.5	6695.05
982.8856	2561.4762	7575.9	6683.8
983.0119	2562.7841	7545.8	6650.65
983.1383	2564.0913	7526.85	6635.85
983.2646	2565.3977	7513.85	6623.3
983.3908	2566.7035	7493.8	6601.7
983.517	2568.0086	7474.8	6580.7
983.6432	2569.313	7450.15	6557.05
983.7694	2570.6167	7437.9	6541.8
983.8955	2571.9197	7403.5	6513.35
984.0216	2573.222	7391.4	6497.1
984.1476	2574.5236	7385.5	6492.1
984.2737	2575.8246	7366.15	6472.4
984.3996	2577.1248	7326.05	6433.4
984.5256	2578.4244	7329.3	6437.35
984.6515	2579.7232	7308.2	6417.35
984.7774	2581.0214	7324.25	6407.45
984.9032	2582.3189	7294.75	6404.05
985.029	2583.6157	7252.3	6355.1
985.1548	2584.9118	7242.25	6349.25
985.2806	2586.2072	7227.15	6337.15
985.4063	2587.5019	7213.55	6323.25
985.5319	2588.7959	7175.2	6285.4
985.6576	2590.0893	7188.25	6293.05
985.7832	2591.3819	7156.3	6265.75
985.9087	2592.6739	7139.4	6249.65
986.0343	2593.9652	7128.1	6235.2
986.1597	2595.2557	7095.9	6203.9
986.2852	2596.5456	7054.45	6160.75
986.4106	2597.8348	7051.7	6160.05
986.536	2599.1234	7020.15	6129.5
986.6614	2600.4112	6995.7	6104
986.7867	2601.6983	6972.35	6077.95
986.912	2602.9848	6947.25	6055.4
987.0372	2604.2705	6909.65	6009.6
987.1624	2605.5556	6895.9	6004.95
987.2876	2606.84	6864.9	5972.85
987.4128	2608.1237	6845.6	5953.2
987.5379	2609.4067	6840	5948.7
987.6629	2610.689	6828.75	5926.75
987.788	2611.9707	6756.65	5861.35
987.913	2613.2516	6774.45	5877.05
988.0379	2614.5319	6732.2	5840.6
988.1629	2615.8115	6700.3	5808.65
988.2878	2617.0903	6677.45	5786.95
988.4126	2618.3685	6657.45	5766.7
988.5375	2619.6461	6641.7	5748.25
988.6622	2620.9229	6618.4	5726.7
988.787	2622.199	6609.55	5716.95
988.9117	2623.4745	6553.4	5659.1
989.0364	2624.7493	6544.5	5652.45
989.161	2626.0234	6530.9	5639.15
989.2857	2627.2968	6505.3	5612.45
989.4102	2628.5695	6477.55	5585
989.5348	2629.8415	6441.4	5547.95
989.6593	2631.1128	6422.05	5528.75
989.7837	2632.3835	6383.05	5493.15
989.9082	2633.6535	6361.75	5469.5
990.0326	2634.9228	6346.95	5457.45
990.1569	2636.1914	6329.1	5435.75
990.2812	2637.4593	6315.15	5417.65
990.4055	2638.7265	6302	5411
990.5298	2639.9931	6278.6	5386.4
990.654	2641.259	6268.4	5375.45
990.7782	2642.5242	6225.15	5331.8
990.9023	2643.7887	6218.3	5326.25
991.0264	2645.0525	6210.85	5319.1
991.1505	2646.3156	6192.15	5301.5
991.2745	2647.5781	6167.35	5276.9
991.3985	2648.8398	6131.7	5240.75
991.5225	2650.1009	6126.85	5230.25
991.6464	2651.3613	6098.45	5205.3
991.7703	2652.6211	6081	5187.7
991.8942	2653.8801	6059.15	5168.3
992.018	2655.1385	6047.6	5152.4
992.1418	2656.3961	6029.7	5136.65
992.2655	2657.6531	5996.85	5105.25
992.3892	2658.9094	5989	5097
992.5129	2660.1651	5993.45	5101.9
992.6366	2661.42	5983.3	5089.3
992.7602	2662.6743	5965.5	5071.3
992.8837	2663.9279	5945.25	5054.15
993.0073	2665.1808	5918.5	5025.45
993.1307	2666.433	5904.6	5011.7
993.2542	2667.6846	5892.8	5000.55
993.3776	2668.9354	5882.85	4988.15
993.501	2670.1856	5852.6	4958.6
993.6244	2671.4351	5860.55	4968
993.7477	2672.6839	5852.6	4959.1
993.8709	2673.9321	5831.2	4940
993.9942	2675.1795	5819.1	4926.55
994.1174	2676.4263	5798.6	4908.45
994.2405	2677.6724	5773.1	4881.15
994.3637	2678.9179	5751.85	4860.85
994.4868	2680.1626	5749.4	4859.4
994.6098	2681.4067	5714.6	4822.25
994.7328	2682.6501	5719.3	4827.25
994.8558	2683.8928	5688.3	4795.15
994.9788	2685.1348	5674.5	4784.4
995.1017	2686.3761	5645.15	4753.95
995.2245	2687.6168	5609.55	4717.75
995.3474	2688.8568	5593.95	4703.55
995.4702	2690.0961	5573.4	4681
995.5929	2691.3348	5577.15	4685.4
995.7156	2692.5727	5550.6	4659.5
995.8383	2693.81	5543.65	4651.85
995.961	2695.0466	5518.6	4629.25
996.0836	2696.2826	5501.4	4606.95
996.2062	2697.5178	5514.75	4622.6
996.3287	2698.7524	5488	4596.85
996.4512	2699.9863	5467.65	4574.85
996.5737	2701.2195	5447.6	4556.75
996.6961	2702.452	5427.05	4533.35
996.8185	2703.6839	5413.5	4521.55
996.9408	2704.9151	5403.1	4510.65
997.0631	2706.1456	5391.85	4499.4
997.1854	2707.3755	5378.9	4485.5
997.3077	2708.6046	5354.9	4459.45
997.4299	2709.8331	5340.7	4448.95
997.552	2711.0609	5335.3	4444.75
997.6742	2712.2881	5341.3	4448.25
997.7963	2713.5145	5327.95	4436.65
997.9183	2714.7403	5308.15	4417.05
998.0403	2715.9654	5302.9	4410.15
998.1623	2717.1899	5285.4	4378.25
998.2842	2718.4136	5296.75	4404.2
998.4062	2719.6367	5296.2	4404.3
998.528	2720.8591	5292.85	4395
998.6498	2722.0809	5269.85	4378.2
998.7716	2723.3019	5274.5	4380.55
998.8934	2724.5223	5262.45	4369.25
999.0151	2725.7421	5254.2	4359.8
999.1368	2726.9611	5236.7	4342.45
999.2584	2728.1795	5206.85	4311.75
999.38	2729.3972	5199.35	4309.45
999.5016	2730.6142	5188.5	4288.05
999.6231	2731.8306	5142.75	4250.85
999.7446	2733.0462	5101.25	4208.85
999.8661	2734.2612	5057.85	4160.1
999.9875	2735.4756	5042.1	4149.2
1000.1089	2736.6892	5011.6	4119
1000.2302	2737.9022	4972.5	4082.65
1000.3515	2739.1145	4945.45	4055.15
1000.4728	2740.3262	4937.45	4037.3
1000.594	2741.5372	4871.1	3980.2
1000.7152	2742.7475	4871.1	3977.75
1000.8363	2743.9571	4846.9	3953.05
1000.9575	2745.1661	4808.1	3912.45
1001.0785	2746.3744	4799.65	3906
1001.1996	2747.582	4779.95	3886.65
1001.3206	2748.7889	4764.8	3872
1001.4415	2749.9952	4739.5	3849.05
1001.5625	2751.2008	4710.55	3818.2
1001.6833	2752.4057	4719.7	3826.85
1001.8042	2753.61	4693.65	3801.7
1001.925	2754.8136	4674.35	3779.9
1002.0458	2756.0165	4659.45	3767.85
1002.1665	2757.2188	4646.65	3757.3
1002.2872	2758.4204	4618.6	3726.45
1002.4078	2759.6213	4624.25	3733.2
1002.5285	2760.8215	4627.4	3731.25
1002.649	2762.0211	4601.1	3706.85
1002.7696	2763.22	4573.15	3677.9
1002.8901	2764.4182	4565.4	3672.15
1003.0106	2765.6158	4564.25	3672.7
1003.131	2766.8127	4526.35	3632.45
1003.2514	2768.009	4507.35	3616.05
1003.3717	2769.2045	4520.6	3629.2
1003.492	2770.3994	4486.15	3591.45
1003.6123	2771.5936	4489.35	3596.45
1003.7325	2772.7872	4463.45	3573.6
1003.8527	2773.9801	4446.5	3552.55
1003.9729	2775.1723	4437.35	3530
1004.093	2776.3639	4407.95	3516.3
1004.2131	2777.5548	4391.55	3497.25
1004.3331	2778.745	4386.35	3494.05
1004.4531	2779.9346	4373.35	3481.8
1004.5731	2781.1235	4384.85	3494.1
1004.693	2782.3117	4361.15	3470.3
1004.8129	2783.4992	4349.05	3458.4
1004.9328	2784.6861	4360.8	3469.2
1005.0526	2785.8723	4350.95	3458.4
1005.1723	2787.0579	4346.75	3454.3
1005.2921	2788.2428	4342	3449.65
1005.4118	2789.427	4325.45	3433.85
1005.5314	2790.6106	4320.6	3429.35
1005.651	2791.7935	4311.45	3418.55
1005.7706	2792.9757	4306.9	3416.15
1005.8902	2794.1573	4308.3	3415.8
1006.0097	2795.3382	4295.65	3405.85
1006.1291	2796.5184	4305.8	3417.35
1006.2485	2797.698	4311.2	3420.2
1006.3679	2798.8769	4322.4	3430.55
1006.4873	2800.0551	4325	3433.15
1006.6066	2801.2327	4334.5	3439.65
1006.7258	2802.4096	4316.5	3427.5
1006.8451	2803.5859	4317.2	3426.55
1006.9642	2804.7615	4342.3	3450.3
1007.0834	2805.9364	4344.8	3454.55
1007.2025	2807.1106	4354.25	3462.7
1007.3216	2808.2842	4366.8	3476
1007.4406	2809.4572	4397.55	3506.05
1007.5596	2810.6294	4426.15	3532.25
1007.6785	2811.801	4463.45	3573.2
1007.7975	2812.972	4503.5	3613.2
1007.9163	2814.1423	4533.75	3644.85
1008.0352	2815.3119	4580.05	3689
1008.154	2816.4808	4602.05	3711.95
1008.2727	2817.6491	4625.85	3733.5
1008.3914	2818.8167	4662.25	3770.4
1008.5101	2819.9837	4709.7	3813.95
1008.6288	2821.15	4746.25	3853.5
1008.7474	2822.3157	4776.1	3886.15
1008.8659	2823.4807	4824.25	3932.35
1008.9844	2824.645	4837.9	3947.1
1009.1029	2825.8086	4877.35	3985.15
1009.2214	2826.9716	4895.75	4006.25
1009.3398	2828.134	4963.1	4071.35
1009.4581	2829.2957	4989.35	4096.65
1009.5764	2830.4567	5009.9	4120.5
1009.6947	2831.617	5010.5	4118.2
1009.813	2832.7767	5000.65	4109.35
1009.9312	2833.9358	4983.15	4093.1
1010.0493	2835.0941	4991.9	4097.15
1010.1675	2836.2519	4989	4097.4
1010.2855	2837.4089	4960.5	4066.4
1010.4036	2838.5653	4950.15	4059.75
1010.5216	2839.7211	4941	4049.75
1010.6396	2840.8761	4945.85	4053.15
1010.7575	2842.0306	4937.6	4044.6
1010.8754	2843.1843	4960.1	4070.25
1010.9932	2844.3374	5012.65	4119.8
1011.111	2845.4899	5046.9	4153.85
1011.2288	2846.6417	5129.7	4237.2
1011.3465	2847.7928	5191.8	4300.85
1011.4642	2848.9433	5277.8	4387.5
1011.5818	2850.0931	5336.4	4446.4
1011.6995	2851.2422	5427.5	4534.95
1011.817	2852.3907	5489.55	4598.2
1011.9345	2853.5385	5538	4646.15
1012.052	2854.6857	5616.35	4698
1012.1695	2855.8323	5615.85	4725.25
1012.2869	2856.9781	5689.6	4797.3
1012.4042	2858.1233	5705	4814.35
1012.5216	2859.2679	5742.05	4851.35
1012.6389	2860.4118	5776.6	4884.5
1012.7561	2861.555	5812.8	4916.95
1012.8733	2862.6976	5834.55	4940.5
1012.9905	2863.8395	5866.05	4977.15
1013.1076	2864.9808	5862.05	4973.2
1013.2247	2866.1214	5880.25	4990
1013.3417	2867.2614	5878.6	4986.7
1013.4587	2868.4007	5884.7	4992.4
1013.5757	2869.5393	5888.2	4994.35
1013.6926	2870.6773	5895.35	5002.1
1013.8095	2871.8146	5890.6	4994
1013.9263	2872.9513	5889.8	4997.15
1014.0431	2874.0874	5855.8	4963.8
1014.1599	2875.2227	5862.3	4971.35
1014.2766	2876.3574	5804.6	4913.45
1014.3933	2877.4915	5801	4910.5
1014.51	2878.6249	5742.2	4853.35
1014.6266	2879.7577	5713.25	4821.9
1014.7431	2880.8898	5706.45	4804.65
1014.8596	2882.0212	5670	4778.1
1014.9761	2883.152	5645.95	4753.35
1015.0925	2884.2821	5622.05	4732
1015.2089	2885.4116	5594.95	4706.3
1015.3253	2886.5405	5591.3	4701.8
1015.4416	2887.6686	5584.55	4690.25
1015.5579	2888.7962	5573.6	4682.25
1015.6741	2889.923	5570.2	4679.6
1015.7903	2891.0493	5559.1	4669.95
1015.9065	2892.1748	5582.4	4691.5
1016.0226	2893.2997	5573.35	4680.55
1016.1387	2894.424	5570	4680.05
1016.2547	2895.5476	5576.95	4686.55
1016.3707	2896.6706	5608.15	4717.6
1016.4866	2897.7929	5629.75	4737.3
1016.6025	2898.9145	5655.75	4763.35
1016.7184	2900.0355	5682.9	4792.1
1016.8342	2901.1559	5691.75	4800.15
1016.95	2902.2756	5728.3	4831.85
1017.0658	2903.3946	5747.55	4854.6
1017.1815	2904.513	5760.15	4865.55
1017.2971	2905.6308	5783.75	4891.8
1017.4127	2906.7479	5804.9	4913.35
1017.5283	2907.8643	5803.15	4912.35
1017.6439	2908.9801	5815	4925.75
1017.7594	2910.0953	5811.45	4919.55
1017.8748	2911.2098	5790.35	4897
1017.9902	2912.3236	5791.85	4892.25
1018.1056	2913.4368	5777.9	4882.4
1018.2209	2914.5494	5749.85	4859.6
1018.3362	2915.6613	5704.7	4806.85
1018.4515	2916.7725	5679.25	4785.35
1018.5667	2917.8831	5641	4749.65
1018.6819	2918.9931	5607.05	4714.1
1018.797	2920.1024	5568.75	4677
1018.9121	2921.211	5547.25	4654.2
1019.0271	2922.319	5514.75	4624.25
1019.1421	2923.4264	5501.7	4610.85
1019.2571	2924.5331	5455.05	4564.5
1019.372	2925.6391	5446.3	4556.35
1019.4869	2926.7445	5429.2	4539.15
1019.6017	2927.8493	5414.6	4524.2
1019.7165	2928.9534	5397.5	4505.9
1019.8313	2930.0569	5391.8	4495.9
1019.946	2931.1597	5386.75	4494.9
1020.0606	2932.2619	5368.25	4479.05
1020.1753	2933.3634	5345.25	4454.6
1020.2899	2934.4643	5330.8	4431.9
1020.4044	2935.5645	5306.7	4409.05
1020.5189	2936.6641	5260.35	4364.25
1020.6334	2937.763	5208.2	4318.15
1020.7478	2938.8613	5152.05	4262.05
1020.8622	2939.959	5089.55	4195.6
1020.9765	2941.056	5005	4115.7
1021.0908	2942.1523	4905.45	4013.65
1021.2051	2943.248	4808.15	3916
1021.3193	2944.3431	4697.9	3807.35
1021.4334	2945.4375	4610.3	3718.95
1021.5476	2946.5313	4494.65	3605.2
1021.6617	2947.6244	4382.7	3491.35
1021.7757	2948.7169	4275.8	3383.05
1021.8897	2949.8087	4156.4	3265.2
1022.0037	2950.8999	4063.1	3172.65
1022.1176	2951.9904	3978.65	3088.8
1022.2315	2953.0803	3897.85	3005.85
1022.3453	2954.1696	3817.85	2924.6
1022.4591	2955.2582	3757.85	2868.8
1022.5728	2956.3462	3714.1	2823.55
1022.6865	2957.4335	3646.4	2753.7
1022.8002	2958.5202	3621.7	2726.5
1022.9138	2959.6062	3586.7	2696.35
1023.0274	2960.6916	3547.85	2657.55
1023.141	2961.7764	3514.25	2624.15
1023.2545	2962.8605	3497.65	2606.1
1023.3679	2963.9439	3488.45	2596.6
1023.4813	2965.0267	3469.1	2577.75
1023.5947	2966.1089	3472.45	2557.15
1023.708	2967.1905	3443.1	2553.25
1023.8213	2968.2714	3433.05	2540.85
1023.9346	2969.3516	3413.05	2522
1024.0478	2970.4312	3423.05	2523.95
1024.1609	2971.5102	3406.25	2515.45
1024.274	2972.5885	3397.2	2507.2
1024.3871	2973.6662	3406.9	2512.1
1024.5002	2974.7432	3398.7	2509.75
1024.6132	2975.8196	3370	2479.2
1024.7261	2976.8954	3359.45	2471.15
1024.839	2977.9705	3340.95	2449.25
1024.9519	2979.045	3326.75	2434.15
1025.0647	2980.1188	3301.95	2411.45
1025.1775	2981.192	3262.8	2374
1025.2902	2982.2645	3243.55	2351.2
1025.4029	2983.3364	3226.85	2335.8
1025.5156	2984.4077	3179.6	2289.1
1025.6282	2985.4783	3147.15	2251.15
1025.7407	2986.5483	3096.8	2206.6
1025.8532	2987.6177	3064.6	2173.55
1025.9657	2988.6864	3024.55	2133.15
1026.0782	2989.7545	2986.95	2094.95
1026.1906	2990.8219	2957.8	2068.2
1026.3029	2991.8887	2912.65	2019.05
1026.4152	2992.9548	2870.3	1979.45
1026.5275	2994.0204	2838.05	1947.95
1026.6397	2995.0852	2819.05	1930.35
1026.7519	2996.1495	2779.65	1888.05
1026.864	2997.2131	2748.6	1857.9
1026.9761	2998.276	2723.05	1830.6
1027.0882	2999.3383	2696.4	1806.1
1027.2002	3000.4	2657.35	1764.3
1027.3122	3001.4611	2648.8	1759
1027.4241	3002.5215	2630.1	1740.65
1027.536	3003.5812	2612.6	1722.2
1027.6478	3004.6404	2608.4	1718.6
1027.7596	3005.6989	2588.95	1693.4
1027.8714	3006.7567	2564.55	1674.45
1027.9831	3007.8139	2581.3	1670.5
1028.0947	3008.8705	2547.15	1655.55
1028.2064	3009.9264	2541.85	1649.55
1028.3179	3010.9818	2521.65	1632.1
1028.4295	3012.0364	2516.4	1626.8
1028.541	3013.0905	2511.7	1621.95
1028.6524	3014.1439	2507.5	1617.35
1028.7638	3015.1966	2493.8	1604.35
1028.8752	3016.2487	2501.05	1610.6
1028.9865	3017.3002	2498.55	1601.1
1029.0978	3018.3511	2488.45	1598.05
1029.209	3019.4013	2483.4	1594.55
1029.3202	3020.4509	2471.95	1581.5
1029.4314	3021.4998	2474.5	1584
1029.5425	3022.5481	2471.8	1580.7
1029.6535	3023.5958	2470.8	1580.8
1029.7645	3024.6428	2456.45	1562.8
1029.8755	3025.6892	2456.95	1565.65
1029.9864	3026.735	2459.25	1568.25
1030.0973	3027.7802	2455.5	1563.85
1030.2082	3028.8247	2443.65	1552.45
1030.319	3029.8685	2450.4	1560.35
1030.4297	3030.9118	2439.9	1548.1
1030.5404	3031.9544	2437	1548.6
1030.6511	3032.9963	2432.3	1543.55
1030.7617	3034.0376	2441.25	1551.95
1030.8723	3035.0783	2443.1	1550.65
1030.9829	3036.1184	2425.3	1532.6
1031.0934	3037.1578	2433	1542.4
1031.2038	3038.1966	2431.85	1542.15
1031.3142	3039.2348	2424.4	1534.95
1031.4246	3040.2723	2431.4	1532.3
1031.5349	3041.3092	2422.25	1530.4
1031.6452	3042.3455	2411.4	1520.95
1031.7554	3043.3811	2400.85	1510.05
1031.8656	3044.4161	2387	1497.3
1031.9758	3045.4505	2376.4	1487.15
1032.0859	3046.4842	2380.55	1490.7
1032.1959	3047.5173	2367.35	1476.35
1032.3059	3048.5498	2352.8	1462
1032.4159	3049.5816	2347.25	1458.9
1032.5258	3050.6128	2327.35	1435.4
1032.6357	3051.6434	2326.4	1435.5
1032.7455	3052.6734	2314.05	1423.45
1032.8553	3053.7027	2305.1	1414.95
1032.9651	3054.7314	2296.9	1408.65
1033.0748	3055.7594	2277.1	1386.4
1033.1845	3056.7868	2281.8	1392
1033.2941	3057.8136	2253.9	1364.95
1033.4037	3058.8398	2262.45	1372.4
1033.5132	3059.8653	2238.3	1348.35
1033.6227	3060.8902	2234.65	1344.65
1033.7321	3061.9145	2222.5	1333
1033.8415	3062.9381	2203.5	1313.5
1033.9509	3063.9612	2219.7	1312.05
1034.0602	3064.9835	2194.15	1302.55
1034.1694	3066.0053	2189.35	1296.95
1034.2787	3067.0264	2170.75	1281.3
1034.3878	3068.0469	2173.3	1280.7
1034.497	3069.0668	2158.2	1264.4
1034.6061	3070.086	2139.1	1251
1034.7151	3071.1046	2128.15	1234.85
1034.8241	3072.1226	2116.9	1223.1
1034.9331	3073.1399	2110.4	1218.65
1035.042	3074.1567	2091.9	1201.7
1035.1508	3075.1727	2080.75	1187.7
1035.2597	3076.1882	2074.75	1185.3
1035.3684	3077.203	2060.95	1171.05
1035.4772	3078.2173	2050.05	1159.3
1035.5859	3079.2308	2031.8	1138.65
1035.6945	3080.2438	2017.15	1124.95
1035.8031	3081.2561	2004.6	1115
1035.9117	3082.2678	1997.75	1108.55
1036.0202	3083.2789	1991.2	1101.55
1036.1286	3084.2893	1979.65	1089.9
1036.2371	3085.2991	1966.35	1074.8
1036.3454	3086.3083	1957.95	1062.95
1036.4538	3087.3169	1947	1054.45
1036.562	3088.3248	1948.1	1055.15
1036.6703	3089.3321	1930.85	1038.85
1036.7785	3090.3388	1924.8	1035.95
1036.8866	3091.3449	1910.7	1020.8
1036.9948	3092.3503	1911.9	1017.75
1037.1028	3093.3551	1896.2	1007
1037.2108	3094.3593	1906.05	1015.6
1037.3188	3095.3629	1887.7	998.35
1037.4267	3096.3658	1874.95	982.75
1037.5346	3097.3681	1873.25	983.45
1037.6425	3098.3698	1876.1	982.6
1037.7503	3099.3708	1868.5	971.35
1037.858	3100.3713	1857.3	967.4
1037.9657	3101.3711	1843.6	954.8
1038.0734	3102.3702	1950.5	944.9
1038.181	3103.3688	1855.7	964.15
1038.2886	3104.3667	1828.3	939.55
1038.3961	3105.364	1839.35	949.65
1038.5036	3106.3607	1820.8	929.9
1038.611	3107.3568	1811.35	918.3
1038.7184	3108.3522	1809.1	920
1038.8257	3109.347	1809.1	916.3
1038.933	3110.3412	1804.7	909.95
1039.0403	3111.3348	1792.45	902.35
1039.1475	3112.3277	1782.45	891.15
1039.2547	3113.32	1778.45	888.1
1039.3618	3114.3117	1769.4	878.95
1039.4689	3115.3028	1772.35	881.6
1039.5759	3116.2932	1769.15	874.1
1039.6829	3117.2831	1766	867.7
1039.7898	3118.2723	1755.1	866.65
1039.8967	3119.2608	1749.2	859.25
1040.0035	3120.2488	1742.75	852.2
1040.1103	3121.2361	1735.2	845.85
1040.2171	3122.2229	1732.6	842.5
1040.3238	3123.209	1726	834.45
1040.4305	3124.1944	1724.35	833.6
1040.5371	3125.1793	1728.5	836.45
1040.6437	3126.1635	1707.35	816.7
1040.7502	3127.1471	1716.6	825.05
1040.8567	3128.1301	1703.8	813.6
1040.9631	3129.1125	1695.85	804.5
1041.0695	3130.0942	1698.15	807.85
1041.1759	3131.0753	1697.9	800
1041.2822	3132.0558	1694.85	801.65
1041.3884	3133.0357	1694.65	803.25
1041.4946	3134.015	1680.75	788.75
1041.6008	3134.9936	1679.35	787.35
1041.7069	3135.9716	1692.5	782.05
1041.813	3136.949	1670.05	780.1
1041.919	3137.9258	1675.75	781.6
1042.025	3138.902	1667.25	770.75
1042.1309	3139.8775	1653.6	762.1
1042.2368	3140.8524	1654.1	764.5
1042.3427	3141.8267	1652.2	759.7
1042.4485	3142.8004	1651.45	759.45
1042.5542	3143.7735	1643.8	747
1042.6599	3144.7459	1642.55	750.35
1042.7656	3145.7178	1639.75	748.8
1042.8712	3146.689	1634.15	744.4
1042.9768	3147.6596	1632.65	741.45
1043.0823	3148.6295	1631.75	742.55
1043.1878	3149.5989	1624	734.85
1043.2932	3150.5676	1625.2	736.05
1043.3986	3151.5357	1606.2	718.2
1043.5039	3152.5032	1607.55	717.4
1043.6092	3153.4701	1598	708.85
1043.7145	3154.4364	1600.15	707.45
1043.8197	3155.402	1600	711.55
1043.9248	3156.367	1591.15	699.95
1044.03	3157.3315	1635.5	701.6
1044.135	3158.2952	1581.2	689.9
1044.24	3159.2584	1575.45	684.2
1044.345	3160.221	1571.65	680.95
1044.4499	3161.1829	1564.25	675.95
1044.5548	3162.1442	1570.4	680.8
1044.6596	3163.105	1555.3	664.8
1044.7644	3164.065	1560.2	670.3
1044.8692	3165.0245	1564.15	671.5
1044.9739	3165.9834	1549.6	660.6
1045.0785	3166.9416	1546.85	658.75
1045.1831	3167.8993	1545.45	655.45
1045.2877	3168.8563	1533.8	642.25
1045.3922	3169.8127	1532.55	642.1
1045.4966	3170.7684	1527.6	636.4
1045.6011	3171.7236	1527.9	635.7
1045.7054	3172.6782	1520.6	630.4
1045.8098	3173.6321	1523.1	632.85
1045.914	3174.5854	1519.25	626.45
1046.0183	3175.5381	1515.5	625.15
1046.1224	3176.4902	1505	615.75
1046.2266	3177.4417	1503.45	613.95
1046.3307	3178.3926	1501.3	614.55
1046.4347	3179.3428	1499.95	611.25
1046.5387	3180.2924	1500.95	610.85
1046.6427	3181.2415	1493.9	603.6
1046.7466	3182.1899	1495.55	604.9
1046.8504	3183.1377	1481.75	592.7
1046.9542	3184.0848	1486.85	594.55
1047.058	3185.0314	1468.25	578.4
1047.1617	3185.9773	1475.85	586.15
1047.2654	3186.9227	1481.1	591.85
1047.369	3187.8674	1469.55	579.1
1047.4726	3188.8115	1474.95	578.75
1047.5761	3189.755	1462.85	573.6
1047.6796	3190.6979	1458.2	567.8
1047.783	3191.6402	1458.45	570.4
1047.8864	3192.5818	1456.15	566.85
1047.9898	3193.5229	1476.95	562.7
1048.0931	3194.4633	1453.8	563.8
1048.1963	3195.4031	1449.05	560.15
1048.2995	3196.3423	1444.2	553.6
1048.4027	3197.2809	1444.4	553.8
1048.5058	3198.2189	1439.75	548.9
1048.6089	3199.1563	1434.5	537.05
1048.7119	3200.0931	1431.8	542.55
1048.8148	3201.0292	1435.3	547.8
1048.9178	3201.9648	1419.9	532.5
1049.0206	3202.8997	1423.6	532.1
1049.1235	3203.834	1417.2	526.45
1049.2262	3204.7677	1418.65	528.25
1049.329	3205.7008	1415.3	524.4
1049.4317	3206.6333	1413.7	525.25
1049.5343	3207.5652	1420.25	529.35
1049.6369	3208.4964	1408.8	519.1
1049.7394	3209.4271	1402.15	511.6
1049.8419	3210.3571	1400.5	512.2
1049.9444	3211.2865	1403.55	512.65
1050.0468	3212.2154	1396.5	506.5
1050.1491	3213.1436	1395.7	503.2
1050.2514	3214.0712	1392.95	496.85
1050.3537	3214.9982	1394.35	503.85
1050.4559	3215.9246	1385.35	495.35
1050.5581	3216.8503	1382.45	492
1050.6602	3217.7755	1385.8	496.5
1050.7623	3218.7001	1379.5	490.2
1050.8643	3219.624	1377.15	486.05
1050.9663	3220.5473	1373.65	483.45
1051.0682	3221.4701	1373	480.75
1051.1701	3222.3922	1368.35	478.2
1051.2719	3223.3137	1371.65	482.3
1051.3737	3224.2346	1368.05	479.3
1051.4754	3225.1549	1363.1	473.85
1051.5771	3226.0746	1364.8	475.8
1051.6788	3226.9937	1359.85	469.2
1051.7804	3227.9121	1356.95	466.35
1051.8819	3228.83	1356.85	465.7
1051.9834	3229.7473	1350.8	458.65
1052.0849	3230.6639	1345.95	455.5
1052.1863	3231.5799	1348.8	460.55
1052.2876	3232.4954	1346.9	456.4
1052.3889	3233.4102	1338.3	448.9
1052.4902	3234.3244	1333.65	443.65
1052.5914	3235.238	1341.15	451.1
1052.6926	3236.151	1351.85	441.05
1052.7937	3237.0634	1330.65	440.35
1052.8948	3237.9752	1327.25	438.4
1052.9958	3238.8864	1330.7	438.6
1053.0968	3239.797	1322.1	432.7
1053.1977	3240.7069	1324.5	435.6
1053.2986	3241.6163	1322.2	431.3
1053.3994	3242.5251	1312.6	423.65
1053.5002	3243.4332	1317.55	429.85
1053.6009	3244.3408	1308	417.85
1053.7016	3245.2477	1304	414.7
1053.8022	3246.154	1306.65	415
1053.9028	3247.0598	1307.7	416.1
1054.0034	3247.9649	1299.45	410.25
1054.1039	3248.8694	1297.75	409.25
1054.2043	3249.7733	1297.85	409.5
1054.3047	3250.6766	1289.85	400.75
1054.4051	3251.5793	1290.5	398.85
1054.5054	3252.4814	1286.85	399.8
1054.6056	3253.3829	1285.35	396.45
1054.7058	3254.2838	1281.85	390.6
1054.806	3255.1841	1273.8	385.55
1054.9061	3256.0838	1276	385.05
1055.0061	3256.9829	1270.25	382.85
1055.1062	3257.8814	1269.65	379.05
1055.2061	3258.7792	1269.8	379.45
1055.306	3259.6765	1257.85	366.65
1055.4059	3260.5731	1254.35	365.5
1055.5057	3261.4692	1256.55	368.35
1055.6055	3262.3647	1247.35	357.4
1055.7052	3263.2595	1247.35	358.45
1055.8049	3264.1538	1239.85	353.8
1055.9045	3265.0474	1242.35	352.85
1056.0041	3265.9404	1230.05	342.3
1056.1036	3266.8329	1215.45	325
1056.2031	3267.7247	1225.5	326.75
1056.3025	3268.616	1212.75	323.5
1056.4019	3269.5066	1203.65	315.35
1056.5013	3270.3966	1191.7	301.3
1056.6005	3271.286	1186.5	298.85
