Software Version:	3.9.2.0
Unit SN:	10000200
Spectrometer SN:	6960
Date:	3/6/2024 9:49:47 AM
Data Line Index:	25
Spectral Points:	2048
Integration time (ms):	125
Averages:	20
Delay (ms):	30
Sequence Number:	1
Processing:	dark subtract
Laser Power (mW):	305
Laser Current (mA):	823
Laser Diode Temp (C):	25.1
Laser Case Temp (C):	24.3
System Temp (C):	24.1
Spectrometer Temp (C):	21.7
CCD Temp (C):	-0.005
Secondary Temp (C):	20.008
Heatsink Temp (C):	18.063
CCDPCB Temp (C):	30.793
SecondaryPCB Temp (C):	25.98

Wavelength	RamanShift	Raw Counts	Dark Subtracted
787.061	30.1047	448.25	39
787.2016	32.3739	447.9	41.8
787.3422	34.6426	449.15	40.45
787.4828	36.9109	453.45	46.35
787.6235	39.1787	457.85	44.7
787.7642	41.4461	470.25	53.85
787.9049	43.7131	472.95	51.15
788.0456	45.9796	480.5	59.95
788.1863	48.2456	486.5	61.55
788.3271	50.5112	496.25	67.05
788.4679	52.7764	504.3	71.8
788.6087	55.0411	509.65	70.35
788.7496	57.3054	521.2	75.65
788.8904	59.5692	526.8	82.85
789.0313	61.8326	535.5	90.55
789.1722	64.0955	544.2	96.05
789.3132	66.3579	553.65	99.95
789.4541	68.6199	569.05	109.15
789.5951	70.8815	591.8	128.1
789.7361	73.1426	636.15	167.15
789.8771	75.4032	751.65	280.95
790.0181	77.6634	1021.15	548.1
790.1592	79.9231	1674.5	1196.4
790.3003	82.1824	3033.15	2549.45
790.4414	84.4412	5440.25	4943.9
790.5825	86.6995	8690.65	8181.4
790.7237	88.9574	11907.45	11386.35
790.8648	91.2148	14298.4	13769.4
791.006	93.4717	15620.5	15085.65
791.1472	95.7282	16221.5	15684.8
791.2885	97.9842	16502.1	15960.75
791.4297	100.2398	16612.3	16069.4
791.571	102.4949	16685.3	16139.8
791.7123	104.7495	16677.35	16131.05
791.8536	107.0036	16641.4	16091.2
791.9949	109.2573	16678.5	16131.05
792.1363	111.5105	16692.3	16139.55
792.2777	113.7632	16676.9	16123.15
792.4191	116.0154	16675	16112.15
792.5605	118.2672	16728	16171.3
792.7019	120.5185	16711.4	16154.2
792.8434	122.7693	16738.1	16172.85
792.9849	125.0197	16778.05	16210.05
793.1264	127.2696	16781.05	16210.9
793.2679	129.519	16834.5	16259.6
793.4094	131.7679	16867.05	16287.2
793.551	134.0163	16909.25	16332.2
793.6926	136.2642	16978.7	16394.6
793.8342	138.5117	16945	16362.45
793.9758	140.7587	16958.45	16372.8
794.1175	143.0052	16968.25	16377.4
794.2591	145.2512	16970.55	16381.35
794.4008	147.4967	16936	16342.7
794.5425	149.7417	16938.9	16345.5
794.6842	151.9863	16908.65	16309.8
794.826	154.2304	16914.15	16311.85
794.9677	156.4739	16900.2	16290.8
795.1095	158.717	16956.1	16344.85
795.2513	160.9596	16971.15	16356.8
795.3931	163.2017	16946.1	16330.5
795.535	165.4433	16983.75	16364.35
795.6768	167.6844	16965.85	16347.25
795.8187	169.925	16977.2	16356
795.9606	172.1651	16923.85	16297.4
796.1025	174.4047	16962.75	16333.1
796.2445	176.6439	16961.75	16330.6
796.3864	178.8825	16918.65	16286.4
796.5284	181.1206	16937.65	16298.95
796.6704	183.3582	16962.55	16317.5
796.8124	185.5954	16997.95	16356.3
796.9544	187.832	17007.7	16358.65
797.0965	190.0681	17054.75	16405.55
797.2386	192.3037	17100.6	16444.4
797.3806	194.5388	17089.6	16431.75
797.5228	196.7734	17114.8	16458.2
797.6649	199.0075	17191.65	16533.75
797.807	201.2411	17259.15	16600.3
797.9492	203.4742	17287.35	16624.2
798.0914	205.7068	17361.65	16695.05
798.2336	207.9389	17378.1	16710.2
798.3758	210.1704	17397.45	16734.45
798.518	212.4015	17370.05	16720.1
798.6603	214.632	17401	16756.6
798.8025	216.862	17450.8	16805.3
798.9448	219.0915	17483.05	16835.8
799.0871	221.3205	17499.85	16850.7
799.2294	223.549	17545.05	16902.3
799.3718	225.777	17571.1	16924.7
799.5141	228.0044	17580	16928.95
799.6565	230.2314	17606.9	16952.65
799.7989	232.4578	17612.85	16954.6
799.9413	234.6837	17624.8	16958.7
800.0837	236.909	17637.15	16969.3
800.2262	239.1339	17686.25	16993
800.3687	241.3582	17679.4	16999.55
800.5111	243.582	17689.25	16977.25
800.6536	245.8053	17726.8	17029.2
800.7961	248.0281	17701.7	17009
800.9387	250.2503	17703.95	17007.15
801.0812	252.472	17749.65	17052.8
801.2238	254.6932	17783.6	17089.8
801.3664	256.9139	17756.65	17059.15
801.509	259.134	17773.05	17070.3
801.6516	261.3536	17774.35	17073.7
801.7942	263.5727	17850.75	17146.5
801.9369	265.7912	17831.65	17128.85
802.0795	268.0092	17851.15	17150.9
802.2222	270.2267	17889.15	17188.65
802.3649	272.4436	17897.55	17193.9
802.5076	274.6601	17941.7	17224.35
802.6504	276.8759	17923.7	17214.7
802.7931	279.0913	17979.8	17270.45
802.9359	281.3061	17982.05	17269.35
803.0787	283.5204	18012.65	17295.45
803.2215	285.7341	18025.35	17304.3
803.3643	287.9473	18080.55	17350.4
803.5071	290.16	18030.25	17309.35
803.6499	292.3721	17998.1	17281.9
803.7928	294.5837	18006.4	17286.45
803.9357	296.7947	17992.1	17271.25
804.0786	299.0052	17981.8	17265.35
804.2215	301.2152	17932.85	17210.3
804.3644	303.4246	17975.35	17255.55
804.5074	305.6334	17960	17241.75
804.6503	307.8418	17947.6	17220.95
804.7933	310.0495	17925.8	17200.95
804.9363	312.2568	17904.95	17181
805.0793	314.4635	17831.5	17103.75
805.2223	316.6696	17797.3	17069.25
805.3653	318.8752	17737.3	17000.3
805.5084	321.0802	17723.95	16990.85
805.6514	323.2847	17726.85	16993.45
805.7945	325.4887	17708.75	16971.75
805.9376	327.692	17661.55	16924.75
806.0807	329.8949	17755.8	17016.75
806.2238	332.0972	17740.3	17002.8
806.367	334.2989	17783.5	17040.65
806.5101	336.5001	17730.75	16986.75
806.6533	338.7007	17750.2	17005.85
806.7965	340.9008	17777.6	17032
806.9397	343.1003	17713.35	16964.65
807.0829	345.2992	17667	16919.95
807.2261	347.4976	17681.6	16933.85
807.3693	349.6955	17668.45	16916.5
807.5126	351.8927	17682.8	16928.35
807.6559	354.0895	17614.9	16850.75
807.7991	356.2856	17646.35	16887.2
807.9424	358.4812	17590.5	16832.35
808.0857	360.6763	17646.95	16889.75
808.2291	362.8707	17588.35	16828.1
808.3724	365.0646	17640	16878.4
808.5158	367.258	17576.9	16809.85
808.6591	369.4508	17542.8	16775.6
808.8025	371.643	17598.85	16831.75
808.9459	373.8346	17548.5	16776.05
809.0893	376.0257	17543.7	16772.5
809.2327	378.2162	17542.55	16772.95
809.3762	380.4062	17531.95	16760
809.5196	382.5956	17484.7	16713.65
809.6631	384.7844	17467.7	16699.5
809.8066	386.9726	17414.15	16648.7
809.9501	389.1603	17400.1	16635.9
810.0936	391.3474	17392.65	16595.65
810.2371	393.5339	17349.5	16586.05
810.3806	395.7199	17294.1	16529.3
810.5241	397.9052	17331.25	16566.05
810.6677	400.09	17285.05	16516.1
810.8113	402.2743	17314.4	16548.3
810.9548	404.4579	17322.95	16556.55
811.0984	406.641	17349.8	16576.25
811.2421	408.8235	17370.85	16596.95
811.3857	411.0054	17392.25	16615.9
811.5293	413.1868	17497.8	16717.9
811.673	415.3675	17498.25	16715.75
811.8166	417.5477	17501.35	16717.7
811.9603	419.7273	17466.25	16681.15
812.104	421.9064	17362.75	16568.75
812.2477	424.0848	17251.65	16466.8
812.3914	426.2627	17217.7	16433.45
812.5351	428.4399	17158.2	16371.35
812.6788	430.6166	17121.55	16331.4
812.8226	432.7928	17055.55	16265.95
812.9663	434.9683	16991.95	16200.7
813.1101	437.1432	16966.05	16173.3
813.2539	439.3176	16893.75	16102.25
813.3977	441.4914	16865	16075
813.5415	443.6645	16841.1	16048.5
813.6853	445.8371	16736.7	15943
813.8291	448.0091	16742.15	15947.45
813.973	450.1806	16686.9	15891.75
814.1168	452.3514	16618.15	15822.5
814.2607	454.5216	16624.55	15821.5
814.4046	456.6913	16538.15	15738.3
814.5485	458.8603	16560.85	15763.45
814.6924	461.0288	16547.35	15749.45
814.8363	463.1967	16485.9	15687.95
814.9802	465.3639	16531.4	15731.55
815.1241	467.5306	16475.95	15677.8
815.2681	469.6967	16477.2	15681.7
815.412	471.8622	16406.65	15609.95
815.556	474.0271	16397.6	15598
815.7	476.1914	16413.55	15610.45
815.844	478.3551	16391	15589.55
815.988	480.5182	16409.2	15608.7
816.132	482.6807	16394.5	15594.05
816.276	484.8426	16400.8	15601.1
816.4201	487.0039	16412.8	15611.25
816.5641	489.1647	16401.15	15593.4
816.7082	491.3248	16480.25	15673.05
816.8522	493.4843	16457.45	15651.05
816.9963	495.6432	16438.95	15635.6
817.1404	497.8015	16364.6	15553
817.2845	499.9592	16389.95	15580.95
817.4286	502.1163	16360.05	15551.7
817.5727	504.2728	16294.7	15486.15
817.7168	506.4287	16307.45	15499.7
817.861	508.5839	16284.7	15476.7
818.0051	510.7386	16260.15	15448.6
818.1493	512.8927	16274.4	15458.7
818.2935	515.0461	16281.35	15467.7
818.4377	517.199	16261.25	15446.5
818.5818	519.3512	16234.9	15422.1
818.726	521.5029	16284.45	15463.5
818.8703	523.6539	16269.3	15453
819.0145	525.8043	16279.95	15463.35
819.1587	527.9541	16231.45	15411.5
819.303	530.1033	16191.65	15373.95
819.4472	532.2519	16141.05	15323.4
819.5915	534.3999	16144.5	15321.25
819.7357	536.5472	16108.35	15288.9
819.88	538.694	16085.95	15267.1
820.0243	540.8401	16102.65	15281.2
820.1686	542.9856	16081.2	15258
820.3129	545.1305	16074.2	15250.5
820.4572	547.2748	16114.55	15291.85
820.6016	549.4185	16113.8	15287.5
820.7459	551.5615	16073.8	15248.05
820.8902	553.704	16074.45	15250.2
821.0346	555.8458	16014.9	15193.65
821.1789	557.987	16027.45	15205.45
821.3233	560.1276	16045.45	15221.45
821.4677	562.2675	16058.8	15237.55
821.6121	564.4069	16067.85	15245.35
821.7565	566.5456	16029.75	15204.5
821.9009	568.6837	16039.85	15216.65
822.0453	570.8212	15971.95	15147.8
822.1897	572.958	15902.35	15073.1
822.3342	575.0942	15857.55	15031
822.4786	577.2299	15801.85	14977.2
822.6231	579.3648	15743.25	14919.95
822.7675	581.4992	15674.75	14851.45
822.912	583.6329	15645.9	14822.3
823.0565	585.766	15627.15	14803.45
823.201	587.8985	15590.15	14763.85
823.3454	590.0304	15580.25	14741.35
823.4899	592.1616	15553.05	14721.05
823.6345	594.2922	15543.6	14711.6
823.779	596.4222	15471.5	14638.25
823.9235	598.5515	15430.7	14597.75
824.068	600.6802	15387.7	14556.35
824.2126	602.8083	15302.8	14468
824.3571	604.9358	15309.25	14475.8
824.5017	607.0626	15250.25	14415.05
824.6462	609.1888	15229.45	14391.6
824.7908	611.3144	15217.6	14380.2
824.9354	613.4393	15230.35	14393.95
825.08	615.5636	15243.35	14405.65
825.2246	617.6873	15233.25	14395.8
825.3692	619.8103	15248.15	14409.8
825.5138	621.9327	15200.65	14358.7
825.6584	624.0544	15205.65	14370.55
825.803	626.1756	15186.1	14348.95
825.9477	628.2961	15120.6	14282.7
826.0923	630.4159	15080.35	14239.35
826.237	632.5351	15070.8	14231
826.3816	634.6537	15041.7	14203.9
826.5263	636.7716	15029.4	14185.7
826.6709	638.8889	15048.85	14205
826.8156	641.0056	15058.2	14217.2
826.9603	643.1216	15016.35	14172.4
827.105	645.237	15034.95	14191
827.2497	647.3518	14985.65	14141.9
827.3944	649.4659	14986.55	14149.1
827.5391	651.5793	14930.7	14087.7
827.6838	653.6922	14893.8	14054.3
827.8285	655.8043	14869.1	14028.15
827.9733	657.9159	14858	14014.15
828.118	660.0268	14839.25	13994.8
828.2627	662.137	14787.05	13942.65
828.4075	664.2466	14761	13913.15
828.5522	666.3556	14769.8	13921.3
828.697	668.4639	14722.55	13874.35
828.8418	670.5716	14743.85	13898.3
828.9865	672.6786	14712.5	13865.65
829.1313	674.785	14688.7	13840.15
829.2761	676.8907	14630.5	13782.9
829.4209	678.9958	14660.2	13814.15
829.5657	681.1002	14573.35	13723.85
829.7105	683.204	14576.75	13722.15
829.8553	685.3072	14590.85	13738.25
830.0001	687.4097	14536.35	13686.45
830.1449	689.5115	14536	13683.65
830.2898	691.6127	14494.45	13645.1
830.4346	693.7132	14476.6	13629.6
830.5794	695.8131	14507.95	13651.1
830.7243	697.9123	14504.8	13651.55
830.8691	700.0109	14464.3	13610.9
831.014	702.1089	14467.25	13614.3
831.1588	704.2061	14441.55	13588.95
831.3037	706.3028	14432.3	13577.55
831.4486	708.3987	14432.6	13582.25
831.5935	710.4941	14405.1	13551.4
831.7383	712.5887	14402.15	13549.55
831.8832	714.6827	14407.3	13547.45
832.0281	716.7761	14394.6	13539.2
832.173	718.8688	14405.05	13551.4
832.3179	720.9608	14331.25	13471.85
832.4628	723.0522	14377.85	13518.95
832.6077	725.1429	14333.05	13476.1
832.7527	727.233	14317.45	13460.75
832.8976	729.3224	14355.9	13498.15
833.0425	731.4112	14328.2	13470.5
833.1874	733.4993	14306.15	13448.25
833.3324	735.5867	14268.95	13413.8
833.4773	737.6735	14224.6	13366.05
833.6222	739.7596	14155.4	13295.45
833.7672	741.845	14156.85	13297.15
833.9122	743.9298	14148.85	13290.2
834.0571	746.014	14107.15	13248
834.2021	748.0974	14106.75	13246.7
834.347	750.1802	14067.3	13206.45
834.492	752.2624	14004.9	13144.65
834.637	754.3439	13977.5	13114.35
834.782	756.4247	13903.55	13032.6
834.9269	758.5048	13871.1	13011.1
835.0719	760.5843	13856	12993.4
835.2169	762.6631	13825.65	12965.3
835.3619	764.7413	13839	12979.4
835.5069	766.8188	13853.35	12990.15
835.6519	768.8956	13847.7	12983.9
835.7969	770.9718	13875.15	13011.9
835.9419	773.0473	13792.1	12929.45
836.0869	775.1221	13772.05	12911
836.232	777.1962	13704.25	12839.25
836.377	779.2697	13704.05	12837.55
836.522	781.3426	13735.6	12850.85
836.667	783.4147	13693.65	12829.8
836.8121	785.4862	13709.45	12846.1
836.9571	787.557	13658.3	12792.9
837.1021	789.6271	13611.3	12745.95
837.2472	791.6966	13505	12639
837.3922	793.7654	13454.05	12588.5
837.5373	795.8335	13409.7	12546.45
837.6823	797.901	13344.4	12479.05
837.8274	799.9678	13327.4	12462.45
837.9724	802.0339	13322.7	12458.7
838.1175	804.0993	13310.4	12435.3
838.2626	806.1641	13270.5	12403.35
838.4076	808.2282	13231.5	12365.95
838.5527	810.2916	13200.45	12330.65
838.6978	812.3544	13214	12349.3
838.8428	814.4164	13164.2	12300.95
838.9879	816.4778	13165.65	12296.7
839.133	818.5385	13148.9	12279.2
839.2781	820.5986	13139.25	12274.5
839.4232	822.658	13153.45	12286.55
839.5682	824.7166	13168.45	12301.65
839.7133	826.7747	13204.5	12337.2
839.8584	828.832	13199.1	12329.7
840.0035	830.8886	13184.35	12314.8
840.1486	832.9446	13201.35	12332.5
840.2937	834.9999	13133.4	12266.05
840.4388	837.0545	13106	12232.15
840.5839	839.1085	13055.5	12184.85
840.729	841.1618	13016.6	12143.1
840.8741	843.2143	12949.8	12080.25
841.0192	845.2662	12904.25	12034.85
841.1643	847.3175	12884.25	12014.3
841.3095	849.368	12839.55	11967.6
841.4546	851.4179	12826.85	11957.6
841.5997	853.467	12760.45	11889.1
841.7448	855.5155	12778.05	11908.5
841.8899	857.5633	12763.1	11890.3
842.0351	859.6105	12728.4	11857.2
842.1802	861.6569	12678.1	11806.2
842.3253	863.7027	12668.75	11795.25
842.4704	865.7478	12654.4	11783.25
842.6156	867.7922	12661.25	11786.2
842.7607	869.8359	12639	11766.8
842.9058	871.8789	12614.7	11739.25
843.0509	873.9212	12625.15	11721.1
843.1961	875.9629	12555.8	11684.25
843.3412	878.0039	12558.6	11685.05
843.4863	880.0441	12582.75	11709.85
843.6315	882.0837	12556.75	11681.5
843.7766	884.1226	12542.9	11668.25
843.9218	886.1609	12564.1	11690
844.0669	888.1984	12557.5	11684.4
844.212	890.2352	12598.35	11725.4
844.3572	892.2714	12586.35	11710.4
844.5023	894.3069	12556.4	11681.05
844.6475	896.3416	12503.8	11627.75
844.7926	898.3757	12480.5	11607.6
844.9377	900.4091	12461.9	11582.7
845.0829	902.4418	12458.8	11577.75
845.228	904.4739	12390.9	11516.85
845.3732	906.5052	12401.75	11526.1
845.5183	908.5358	12371.3	11494.3
845.6635	910.5658	12337.75	11460
845.8086	912.595	12305.9	11428.6
845.9538	914.6236	12261.95	11387.05
846.0989	916.6515	12219.65	11345.65
846.2441	918.6786	12199.15	11324.15
846.3892	920.7051	12168.65	11290
846.5344	922.7309	12186.1	11308.55
846.6795	924.756	12133.8	11257.1
846.8246	926.7804	12114.6	11234.95
846.9698	928.8041	12059.05	11179.6
847.1149	930.8272	12065.4	11186.4
847.2601	932.8495	12000.15	11120.3
847.4052	934.8711	12015.15	11134.35
847.5504	936.892	11966.25	11091.35
847.6955	938.9123	11923.35	11044.4
847.8407	940.9318	11936.75	11058.45
847.9858	942.9506	11919.15	11041.75
848.131	944.9688	11856.05	10975.95
848.2761	946.9862	11822.25	10943.55
848.4213	949.003	11766.25	10887.45
848.5664	951.019	11738.5	10858.45
848.7115	953.0344	11714.95	10837.35
848.8567	955.0491	11671.6	10789.75
849.0018	957.063	11684.6	10805.05
849.147	959.0763	11681.35	10804.2
849.2921	961.0888	11632.45	10753.8
849.4373	963.1007	11607.9	10728.45
849.5824	965.1119	11614.75	10736.15
849.7275	967.1223	11616.85	10743.8
849.8727	969.1321	11585.2	10707.35
850.0178	971.1412	11565.15	10687.95
850.1629	973.1495	11530.85	10653.7
850.3081	975.1572	11539.95	10617.3
850.4532	977.1641	11535.45	10657.35
850.5983	979.1704	11503.05	10620.45
850.7435	981.1759	11436.75	10555.45
850.8886	983.1808	11447.15	10565.7
851.0337	985.1849	11384.7	10495.25
851.1788	987.1884	11371.3	10488.25
851.324	989.1911	11374.65	10491.5
851.4691	991.1932	11359.9	10478.3
851.6142	993.1945	11291.1	10411.8
851.7593	995.1951	11247.75	10366.9
851.9045	997.1951	11242.55	10354.95
852.0496	999.1943	11198	10318.15
852.1947	1001.1928	11148.55	10267.05
852.3398	1003.1906	11100.5	10220.55
852.4849	1005.1877	11106.1	10222.75
852.63	1007.1841	11059.4	10178.1
852.7751	1009.1798	11044.8	10163.25
852.9202	1011.1748	10995.2	10113.5
853.0653	1013.1691	10946.15	10065
853.2104	1015.1627	10911.65	10030.35
853.3555	1017.1556	10842.5	9960.1
853.5006	1019.1477	10808.65	9924.85
853.6457	1021.1392	10734.25	9852.7
853.7908	1023.1299	10709.8	9831.3
853.9359	1025.12	10689.65	9809.1
854.081	1027.1093	10634.65	9758.4
854.2261	1029.0979	10610.05	9732.95
854.3712	1031.0859	10575.45	9699.45
854.5163	1033.0731	10570.05	9691.55
854.6613	1035.0596	10514.95	9635.7
854.8064	1037.0454	10492.25	9613.35
854.9515	1039.0304	10478.15	9595.6
855.0965	1041.0148	10430	9549.05
855.2416	1042.9985	10365.65	9482.05
855.3867	1044.9814	10382.95	9502.15
855.5317	1046.9636	10333.45	9447.65
855.6768	1048.9452	10281.55	9401.45
855.8219	1050.926	10286.3	9406.45
855.9669	1052.9061	10256.05	9372.45
856.112	1054.8855	10235.4	9353.8
856.257	1056.8642	10206.7	9325.65
856.4021	1058.8421	10207.65	9321.65
856.5471	1060.8194	10175.4	9291.25
856.6921	1062.7959	10168.9	9287.95
856.8372	1064.7717	10137.9	9253.8
856.9822	1066.7469	10132.45	9247.3
857.1272	1068.7213	10120.9	9236
857.2723	1070.695	10104.75	9223.65
857.4173	1072.6679	10057.5	9175.05
857.5623	1074.6402	10051.35	9168.25
857.7073	1076.6117	10060.35	9170.45
857.8523	1078.5826	10040.5	9156.85
857.9973	1080.5527	9984.05	9096.65
858.1423	1082.5221	9947.3	9063.15
858.2873	1084.4908	9919.7	9035
858.4323	1086.4587	9870.05	8986.1
858.5773	1088.426	9867.85	8982.75
858.7223	1090.3925	9832.55	8942.1
858.8673	1092.3584	9839.45	8954.6
859.0123	1094.3235	9786	8901.95
859.1573	1096.2879	9780.25	8893.3
859.3022	1098.2515	9762.25	8879.15
859.4472	1100.2145	9758.1	8873.1
859.5922	1102.1767	9738.5	8851.35
859.7371	1104.1382	9748.9	8863.15
859.8821	1106.099	9759.25	8872.3
860.027	1108.0591	9755.1	8871.05
860.172	1110.0185	9768.3	8881.6
860.3169	1111.9771	9776.05	8891.2
860.4619	1113.9351	9731.8	8848.05
860.6068	1115.8923	9749.75	8865.1
860.7517	1117.8488	9731.7	8845.9
860.8967	1119.8045	9665.1	8778.55
861.0416	1121.7596	9626.15	8742.55
861.1865	1123.7139	9545.2	8661.05
861.3314	1125.6675	9511.25	8627.25
861.4763	1127.6204	9509.65	8627.6
861.6212	1129.5726	9493.7	8608.15
861.7661	1131.524	9465.15	8581.4
861.911	1133.4748	9451.6	8568.1
862.0559	1135.4248	9403.3	8518.15
862.2008	1137.3741	9364.95	8477.65
862.3457	1139.3226	9325.3	8438.75
862.4905	1141.2705	9316.1	8431.7
862.6354	1143.2176	9290.45	8399.3
862.7803	1145.164	9278.95	8391.8
862.9251	1147.1097	9236.85	8352.2
863.07	1149.0546	9224.8	8337.25
863.2148	1150.9989	9199.45	8315.7
863.3597	1152.9424	9186.1	8300.6
863.5045	1154.8852	9159.35	8272.75
863.6493	1156.8272	9153.35	8270.55
863.7942	1158.7686	9148.35	8254.65
863.939	1160.7092	9124.35	8237.8
864.0838	1162.6491	9078.45	8188.5
864.2286	1164.5883	9089.8	8205.35
864.3734	1166.5267	9062	8174.7
864.5182	1168.4644	9068.1	8182.25
864.663	1170.4014	9059	8168.6
864.8078	1172.3377	9099.2	8214.55
864.9526	1174.2732	9082.95	8199
865.0974	1176.2081	9139.5	8257.1
865.2421	1178.1421	9169.95	8280.75
865.3869	1180.0755	9208.9	8320.6
865.5317	1182.0082	9211.85	8326.45
865.6764	1183.9401	9180.45	8292.45
865.8212	1185.8713	9112.15	8227.9
865.9659	1187.8017	9056.95	8173.25
866.1106	1189.7315	8981.1	8101.5
866.2554	1191.6605	8892.35	8009.65
866.4001	1193.5888	8841	7957.55
866.5448	1195.5163	8832.1	7948.45
866.6895	1197.4432	8775.25	7888.1
866.8342	1199.3693	8736.05	7851.45
866.9789	1201.2947	8702.9	7809.9
867.1236	1203.2193	8669.6	7781.55
867.2683	1205.1432	8666.5	7782.7
867.413	1207.0664	8651.8	7766.7
867.5576	1208.9889	8622.1	7732.25
867.7023	1210.9106	8599.05	7712.7
867.847	1212.8316	8547.4	7662.2
867.9916	1214.7519	8556.2	7662.4
868.1363	1216.6715	8512.65	7625.4
868.2809	1218.5903	8524.9	7639.1
868.4255	1220.5084	8498.85	7612.05
868.5701	1222.4257	8498.55	7612.1
868.7148	1224.3424	8475.65	7589.05
868.8594	1226.2583	8470.45	7579.2
869.004	1228.1735	8468.95	7582.75
869.1486	1230.0879	8419.9	7534.15
869.2932	1232.0016	8437.65	7550.6
869.4377	1233.9146	8429.95	7541.2
869.5823	1235.8269	8432.8	7547.8
869.7269	1237.7384	8421.95	7535.75
869.8715	1239.6492	8421.65	7536.2
870.016	1241.5592	8392.75	7508.2
870.1606	1243.4686	8384.15	7498.05
870.3051	1245.3772	8411.6	7526.4
870.4496	1247.285	8431.85	7544.4
870.5941	1249.1922	8441.9	7554.8
870.7387	1251.0986	8469.45	7583
870.8832	1253.0042	8489.8	7601.65
871.0277	1254.9092	8521.7	7634
871.1722	1256.8134	8559.95	7673.95
871.3167	1258.7169	8569.45	7681.4
871.4611	1260.6196	8562.7	7677.9
871.6056	1262.5216	8562.15	7672.75
871.7501	1264.4229	8521.4	7636.3
871.8945	1266.3234	8524.9	7638.4
872.039	1268.2232	8482.4	7594.3
872.1834	1270.1223	8437.9	7551.05
872.3278	1272.0207	8412.3	7525.95
872.4723	1273.9183	8379.3	7484.85
872.6167	1275.8151	8390.15	7504.2
872.7611	1277.7113	8375.6	7488.6
872.9055	1279.6067	8383.6	7498.3
873.0499	1281.5014	8445.1	7555.9
873.1943	1283.3953	8503.95	7613.95
873.3386	1285.2885	8608.85	7724.2
873.483	1287.181	8672.4	7787.35
873.6274	1289.0727	8729.65	7843.95
873.7717	1290.9637	8676.9	7789.2
873.9161	1292.854	8649.65	7762.55
874.0604	1294.7435	8548.5	7661.5
874.2047	1296.6323	8507.75	7619.75
874.349	1298.5204	8445.45	7554.95
874.4933	1300.4077	8397.25	7507.55
874.6376	1302.2943	8367.1	7480.1
874.7819	1304.1802	8342.45	7455.4
874.9262	1306.0653	8316.2	7426.9
875.0705	1307.9497	8281.25	7393.5
875.2147	1309.8333	8264.35	7377.8
875.359	1311.7162	8250.8	7362.55
875.5032	1313.5984	8219	7328.05
875.6475	1315.4798	8190.45	7302.1
875.7917	1317.3605	8191.45	7288.7
875.9359	1319.2405	8165.25	7277.85
876.0801	1321.1197	8100.65	7210.65
876.2243	1322.9982	8093.85	7200.95
876.3685	1324.876	8055.15	7168.1
876.5127	1326.753	7978.4	7089.65
876.6569	1328.6293	7921.3	7032.95
876.801	1330.5048	7892.5	7001.1
876.9452	1332.3796	7858.35	6972.35
877.0893	1334.2537	7822.2	6908.4
877.2335	1336.127	7780.8	6890.5
877.3776	1337.9996	7742	6855.35
877.5217	1339.8714	7724.85	6836.3
877.6658	1341.7426	7726.9	6791.9
877.8099	1343.6129	7706.1	6818.6
877.954	1345.4826	7656.85	6767.55
878.0981	1347.3515	7682.05	6791.15
878.2422	1349.2196	7641.85	6751.75
878.3862	1351.087	7653.45	6765.05
878.5303	1352.9537	7649.2	6759.95
878.6743	1354.8197	7629.3	6741.75
878.8184	1356.6849	7650.7	6761.6
878.9624	1358.5493	7622.1	6732.7
879.1064	1360.4131	7612.7	6723.35
879.2504	1362.276	7599.4	6711.4
879.3944	1364.1383	7600.7	6713.45
879.5384	1365.9998	7598.75	6706.7
879.6823	1367.8606	7560.05	6671.6
879.8263	1369.7206	7564.5	6676.25
879.9702	1371.5799	7562.85	6675.25
880.1142	1373.4384	7521.1	6630.85
880.2581	1375.2962	7497.15	6607.5
880.402	1377.1533	7441.6	6552.75
880.5459	1379.0096	7387.2	6500.9
880.6898	1380.8652	7380.2	6493.3
880.8337	1382.7201	7329.95	6443.3
880.9776	1384.5742	7273	6385.35
881.1215	1386.4275	7240.2	6348.7
881.2653	1388.2802	7203.4	6315.65
881.4092	1390.132	7174.35	6286.65
881.553	1391.9832	7187.1	6297.35
881.6968	1393.8336	7128.9	6239.6
881.8406	1395.6832	7131.9	6242.85
881.9844	1397.5322	7096.3	6205.3
882.1282	1399.3803	7080.5	6187.65
882.272	1401.2278	7042.95	6154.3
882.4158	1403.0745	7040.6	6152.3
882.5595	1404.9204	6994.65	6108.6
882.7033	1406.7656	6965.75	6078.45
882.847	1408.6101	6951.85	6063.35
882.9908	1410.4538	6916.5	6027.7
883.1345	1412.2968	6903.5	6014.1
883.2782	1414.139	6873.65	5986.25
883.4219	1415.9805	6873.7	5985.8
883.5656	1417.8213	6855.6	5960.85
883.7092	1419.6613	6844.65	5956.75
883.8529	1421.5006	6845.1	5956.25
883.9965	1423.3391	6848.1	5960.7
884.1402	1425.1769	6846.9	5957.6
884.2838	1427.0139	6863.7	5973.35
884.4274	1428.8502	6889.7	5999.75
884.571	1430.6858	6910.15	6021
884.7146	1432.5206	6914.4	6026.55
884.8582	1434.3547	6906.2	6014.45
885.0018	1436.188	6898.65	6013.5
885.1453	1438.0206	6878.45	5990.15
885.2889	1439.8524	6850.15	5962
885.4324	1441.6835	6831.75	5946.45
885.5759	1443.5139	6826.3	5934.4
885.7194	1445.3435	6777.25	5889.7
885.8629	1447.1724	6808.5	5919.7
886.0064	1449.0005	6789.5	5900.75
886.1499	1450.8279	6765.15	5874.95
886.2933	1452.6545	6755.4	5867.7
886.4368	1454.4804	6748.85	5862.35
886.5802	1456.3056	6761.2	5864
886.7237	1458.13	6718.85	5830.55
886.8671	1459.9536	6712.5	5824.05
887.0105	1461.7766	6681.8	5795.1
887.1539	1463.5987	6668.15	5779.4
887.2972	1465.4202	6628.45	5740.5
887.4406	1467.2409	6577.05	5687.75
887.584	1469.0608	6552.95	5665.25
887.7273	1470.88	6527.6	5637.9
887.8706	1472.6984	6494.5	5606.25
888.0139	1474.5161	6474.4	5585.15
888.1572	1476.3331	6458.25	5571.35
888.3005	1478.1493	6437.6	5548.15
888.4438	1479.9648	6430.7	5541.4
888.5871	1481.7795	6400.25	5513.5
888.7303	1483.5935	6405.85	5516.95
888.8736	1485.4067	6384	5498.05
889.0168	1487.2192	6373.8	5487.75
889.16	1489.031	6377.1	5484.15
889.3032	1490.842	6350.15	5463.1
889.4464	1492.6522	6347	5457.3
889.5896	1494.4618	6339.05	5451.85
889.7327	1496.2705	6315.65	5428.25
889.8759	1498.0785	6293.6	5405.65
890.019	1499.8858	6292.15	5402.05
890.1622	1501.6924	6248.85	5361.05
890.3053	1503.4981	6241.9	5354.55
890.4484	1505.3032	6246.1	5358.35
890.5914	1507.1075	6234.8	5345.45
890.7345	1508.911	6189.55	5302.15
890.8776	1510.7138	6201	5313.55
891.0206	1512.5159	6151.4	5261.15
891.1637	1514.3172	6138.85	5252.7
891.3067	1516.1178	6127.35	5242.15
891.4497	1517.9176	6098.7	5209.45
891.5927	1519.7166	6080.6	5195
891.7357	1521.515	6070.6	5174.4
891.8786	1523.3126	6062.75	5176.05
892.0216	1525.1094	6044.05	5155.8
892.1645	1526.9055	6008.55	5120.6
892.3074	1528.7008	5992.7	5103.95
892.4503	1530.4954	5955	5066.55
892.5932	1532.2893	5933.4	5048.1
892.7361	1534.0824	5920.6	5028.5
892.879	1535.8747	5905.25	5017.8
893.0218	1537.6663	5885.85	4998.45
893.1647	1539.4572	5857.1	4970.45
893.3075	1541.2473	5873.05	4983.7
893.4503	1543.0367	5841.8	4955.1
893.5931	1544.8253	5789.95	4898.9
893.7359	1546.6132	5789.35	4899.9
893.8787	1548.4003	5778.35	4883.4
894.0214	1550.1867	5768.75	4870.3
894.1642	1551.9723	5754.55	4862.4
894.3069	1553.7572	5748.6	4861.2
894.4496	1555.5414	5732	4845.05
894.5923	1557.3247	5725.05	4837.4
894.735	1559.1074	5738	4853.8
894.8777	1560.8893	5737.15	4850.5
895.0204	1562.6705	5736.5	4848.35
895.163	1564.4509	5726.4	4842
895.3056	1566.2305	5717.3	4835.65
895.4482	1568.0094	5705.7	4821.85
895.5908	1569.7876	5689.05	4804.95
895.7334	1571.565	5687	4801.95
895.876	1573.3417	5674.6	4790.65
896.0186	1575.1176	5650.1	4764.25
896.1611	1576.8928	5634.8	4751.05
896.3036	1578.6672	5624.1	4743.1
896.4461	1580.4409	5619.45	4738.1
896.5886	1582.2138	5623.75	4736.9
896.7311	1583.986	5623.25	4737.35
896.8736	1585.7575	5640.05	4755.55
897.0161	1587.5282	5634.9	4752.15
897.1585	1589.2981	5643.9	4762.3
897.3009	1591.0673	5625.4	4741.75
897.4433	1592.8358	5614.55	4731.45
897.5857	1594.6035	5610.75	4722.8
897.7281	1596.3704	5582.55	4697.1
897.8705	1598.1366	5567.85	4683.45
898.0128	1599.9021	5547.75	4662.8
898.1551	1601.6668	5516.05	4628.9
898.2975	1603.4308	5481.95	4597.2
898.4398	1605.194	5472.15	4581.3
898.5821	1606.9564	5461.5	4578.25
898.7243	1608.7182	5481	4594.6
898.8666	1610.4791	5481.4	4600.7
899.0088	1612.2394	5517.95	4637.95
899.1511	1613.9988	5561.1	4680.25
899.2933	1615.7576	5594	4710.8
899.4355	1617.5156	5614.95	4725.35
899.5776	1619.2728	5576.8	4691.7
899.7198	1621.0293	5501.1	4618.35
899.862	1622.785	5443.8	4555.25
900.0041	1624.54	5363.9	4477.3
900.1462	1626.2942	5287.1	4401.9
900.2883	1628.0477	5197.9	4311.5
900.4304	1629.8005	5147	4261.1
900.5725	1631.5525	5087.4	4205.15
900.7145	1633.3037	5072.6	4192.35
900.8566	1635.0542	5033.5	4150.55
900.9986	1636.804	4983.6	4102.7
901.1406	1638.553	5035.05	4061.2
901.2826	1640.3013	4928.35	4045.15
901.4245	1642.0488	4906.6	4022.3
901.5665	1643.7955	4884.35	4001.2
901.7085	1645.5416	4852.7	3970.8
901.8504	1647.2868	4845.55	3962.65
901.9923	1649.0313	4818.4	3934.2
902.1342	1650.7751	4799.8	3914.95
902.2761	1652.5181	4798	3916.75
902.4179	1654.2604	4771.45	3887.75
902.5598	1656.0019	4765.65	3884.25
902.7016	1657.7427	4765.45	3881.55
902.8434	1659.4828	4759.8	3876.8
902.9852	1661.222	4752.5	3867.35
903.127	1662.9606	4751.95	3870.35
903.2687	1664.6984	4762	3876.35
903.4105	1666.4354	4783.65	3898.85
903.5522	1668.1717	4735.65	3848.45
903.6939	1669.9072	4686.3	3803.5
903.8356	1671.642	4661.55	3774.55
903.9773	1673.3761	4618.95	3736.15
904.119	1675.1094	4582.65	3699.5
904.2606	1676.8419	4569.95	3685.65
904.4022	1678.5737	4536.65	3653
904.5439	1680.3048	4524.15	3639.95
904.6855	1682.0351	4503.3	3620.5
904.827	1683.7646	4468.9	3581.9
904.9686	1685.4934	4451.55	3566.6
905.1101	1687.2215	4426.75	3543.4
905.2517	1688.9488	4403.65	3521.65
905.3932	1690.6754	4389.95	3507.15
905.5347	1692.4012	4390.75	3507.6
905.6761	1694.1263	4367.15	3482.35
905.8176	1695.8506	4355	3469.75
905.9591	1697.5742	4335.95	3454.35
906.1005	1699.297	4322.6	3438.35
906.2419	1701.0191	4284.35	3405.45
906.3833	1702.7404	4287.55	3404.8
906.5246	1704.461	4264.1	3380.1
906.666	1706.1808	4237.35	3351.7
906.8073	1707.8999	4226.95	3342.5
906.9487	1709.6182	4247.2	3361.7
907.09	1711.3358	4219.05	3337.25
907.2313	1713.0527	4196.8	3315.9
907.3725	1714.7688	4180.45	3294.2
907.5138	1716.4841	4174.1	3290.1
907.655	1718.1987	4175.2	3286.85
907.7962	1719.9126	4156.55	3277.5
907.9374	1721.6257	4148.55	3263.7
908.0786	1723.338	4143.6	3260.85
908.2198	1725.0496	4123.7	3240.05
908.3609	1726.7605	4131.4	3245.95
908.502	1728.4706	4107.85	3223.55
908.6431	1730.18	4087.1	3202.65
908.7842	1731.8886	4085.85	3204.1
908.9253	1733.5964	4094.55	3206.3
909.0664	1735.3036	4089.55	3204.55
909.2074	1737.0099	4087.2	3204.3
909.3484	1738.7156	4074.5	3192.9
909.4894	1740.4204	4050.35	3166.4
909.6304	1742.1246	4060.95	3177.3
909.7714	1743.8279	4049	3166
909.9123	1745.5306	4039.95	3156.65
910.0532	1747.2325	4029.3	3148.25
910.1941	1748.9336	4034.85	3153.45
910.335	1750.634	4015.9	3131.1
910.4759	1752.3336	4022.45	3139.9
910.6168	1754.0325	4002.15	3123.05
910.7576	1755.7307	3994.45	3113.45
910.8984	1757.4281	4002.65	3118.25
911.0392	1759.1247	4008.6	3115.9
911.18	1760.8206	4002.85	3115.3
911.3208	1762.5158	3979.5	3092.15
911.4615	1764.2102	3967.15	3083.3
911.6022	1765.9039	3966.3	3083.2
911.7429	1767.5968	3957.45	3075.75
911.8836	1769.289	3945.5	3061.1
912.0243	1770.9804	3949.35	3067.25
912.1649	1772.6711	3935.85	3052.3
912.3056	1774.361	3915.15	3033.05
912.4462	1776.0502	3926.6	3043.65
912.5868	1777.7386	3907.8	3022.2
912.7274	1779.4263	3918.6	3035.7
912.8679	1781.1132	3898.25	3017.05
913.0084	1782.7994	3888.2	3005.4
913.149	1784.4849	3878.6	2997.75
913.2895	1786.1696	3893.55	2990.65
913.4299	1787.8535	3865.3	2987.6
913.5704	1789.5367	3857.65	2975.2
913.7108	1791.2192	3837.05	2953.7
913.8513	1792.9009	3871.7	2961.35
913.9917	1794.5818	3850.15	2967.05
914.132	1796.2621	3822.75	2942.1
914.2724	1797.9415	3824.95	2944.05
914.4128	1799.6202	3816.7	2930.55
914.5531	1801.2982	3819.15	2937.6
914.6934	1802.9755	3797.15	2912.6
914.8337	1804.6519	3792	2909.9
914.9739	1806.3277	3771.4	2888.75
915.1142	1808.0027	3751.25	2872.1
915.2544	1809.6769	3745.35	2864.1
915.3946	1811.3504	3735.45	2852.55
915.5348	1813.0231	3741.65	2858.4
915.675	1814.6951	3735.85	2854.95
915.8151	1816.3664	3730.2	2845.2
915.9553	1818.0369	3735.7	2853.65
916.0954	1819.7067	3739.1	2856.25
916.2355	1821.3757	3733.75	2849
916.3755	1823.044	3706.55	2822.4
916.5156	1824.7115	3692.5	2809
916.6556	1826.3783	3695.15	2812.05
916.7956	1828.0443	3677.95	2796.8
916.9356	1829.7096	3675.4	2791.75
917.0756	1831.3741	3667.95	2784.25
917.2155	1833.0379	3668.9	2787.6
917.3555	1834.701	3649.75	2768.6
917.4954	1836.3633	3651.9	2767
917.6353	1838.0248	3617.35	2734.1
917.7751	1839.6856	3637.25	2756.15
917.915	1841.3457	3633.15	2750
918.0548	1843.005	3627.15	2746.65
918.1946	1844.6636	3626	2743.65
918.3344	1846.3214	3615.05	2731.95
918.4742	1847.9785	3609.6	2728.8
918.6139	1849.6349	3606.65	2722.45
918.7537	1851.2904	3598.7	2708.1
918.8934	1852.9453	3594.1	2712.8
919.0331	1854.5994	3575.8	2691.4
919.1727	1856.2528	3589.05	2700.9
919.3124	1857.9054	3582.85	2699.6
919.452	1859.5572	3561.7	2681.95
919.5916	1861.2083	3555.9	2674.6
919.7312	1862.8587	3557	2674.3
919.8708	1864.5084	3555.1	2672.25
920.0103	1866.1572	3542	2659.15
920.1498	1867.8054	3532.95	2647
920.2893	1869.4528	3515.7	2633.95
920.4288	1871.0994	3530.1	2648.1
920.5683	1872.7453	3511.25	2627.05
920.7077	1874.3905	3520.3	2629.85
920.8471	1876.0349	3489.9	2606.6
920.9865	1877.6786	3499.75	2614.45
921.1259	1879.3215	3492.7	2608.95
921.2653	1880.9637	3497.7	2613.35
921.4046	1882.6051	3490.05	2607.6
921.5439	1884.2458	3465.6	2581.15
921.6832	1885.8858	3465.2	2584.05
921.8225	1887.525	3463	2579.95
921.9617	1889.1634	3449.85	2566.4
922.101	1890.8011	3425.85	2540.75
922.2402	1892.4381	3415.2	2530.55
922.3794	1894.0743	3421.5	2540.3
922.5185	1895.7098	3444.8	2560.7
922.6577	1897.3446	3416.3	2531.15
922.7968	1898.9786	3417.65	2532.05
922.9359	1900.6118	3407.8	2525.15
923.075	1902.2443	3404.95	2520.05
923.214	1903.8761	3393	2510.1
923.3531	1905.5071	3368.1	2485.2
923.4921	1907.1374	3364.25	2480.35
923.6311	1908.7669	3374.85	2491.95
923.77	1910.3957	3366.55	2482.35
923.909	1912.0237	3351.55	2469.05
924.0479	1913.651	3349.1	2466.05
924.1868	1915.2776	3327.3	2445.1
924.3257	1916.9034	3327.8	2447.9
924.4646	1918.5285	3321.45	2440.35
924.6034	1920.1528	3302.6	2418.25
924.7422	1921.7764	3307.65	2424.9
924.881	1923.3992	3295.7	2412.25
925.0198	1925.0213	3290.05	2407.25
925.1586	1926.6427	3269.55	2389.3
925.2973	1928.2633	3446.55	2350.3
925.436	1929.8832	3287.7	2402.9
925.5747	1931.5023	3256.6	2374.85
925.7134	1933.1207	3244.65	2360.7
925.852	1934.7383	3243.35	2359.65
925.9906	1936.3552	3246.05	2363.35
926.1292	1937.9714	3241.7	2361.25
926.2678	1939.5868	3224.2	2339.85
926.4064	1941.2015	3217.3	2333.35
926.5449	1942.8154	3198	2313.2
926.6834	1944.4286	3187.45	2305.1
926.8219	1946.041	3207.75	2303.65
926.9604	1947.6528	3178.85	2291.2
927.0988	1949.2637	3173.3	2291.5
927.2372	1950.8739	3179.85	2295.95
927.3756	1952.4834	3160.2	2278.65
927.514	1954.0921	3157.5	2274.55
927.6523	1955.7001	3155.8	2270.65
927.7907	1957.3074	3163.35	2282.2
927.929	1958.9139	3132	2250
928.0673	1960.5197	3138.5	2257.35
928.2055	1962.1247	3112.9	2231.05
928.3438	1963.729	3120.5	2238.95
928.482	1965.3325	3140.4	2236.5
928.6202	1966.9353	3104.8	2224.35
928.7584	1968.5374	3107.2	2226.05
928.8965	1970.1387	3110.7	2228.35
929.0346	1971.7393	3085.45	2203.05
929.1727	1973.3392	3095	2212.2
929.3108	1974.9383	3061.45	2180
929.4489	1976.5366	3071.15	2190.3
929.5869	1978.1342	3065.5	2185.2
929.7249	1979.7311	3065.35	2186.25
929.8629	1981.3273	3046.95	2165.2
930.0009	1982.9227	3060.75	2177.75
930.1388	1984.5173	3036.05	2156.85
930.2767	1986.1112	3035.4	2154
930.4146	1987.7044	3033.2	2154.1
930.5525	1989.2968	3024.1	2140.2
930.6904	1990.8885	3024.1	2140.5
930.8282	1992.4795	3021.2	2138.3
930.966	1994.0697	3001.35	2122.75
931.1038	1995.6592	3003.95	2124.9
931.2415	1997.2479	3006.3	2124.55
931.3793	1998.8359	2983.95	2102.55
931.517	2000.4232	2978	2099.6
931.6547	2002.0097	2985.6	2106.25
931.7923	2003.5955	2977.15	2096.75
931.93	2005.1805	2965.85	2084.1
932.0676	2006.7648	2972.7	2094.05
932.2052	2008.3484	2958.2	2077.4
932.3427	2009.9312	2975	2094.7
932.4803	2011.5133	2941.9	2063.05
932.6178	2013.0946	2962.45	2082.05
932.7553	2014.6752	2952.7	2077.5
932.8928	2016.2551	2932.1	2051.05
933.0302	2017.8342	2927.35	2047.65
933.1676	2019.4126	2926.4	2047.2
933.305	2020.9902	2926.5	2048.4
933.4424	2022.5672	2924.65	2044.05
933.5798	2024.1433	2925.25	2039.75
933.7171	2025.7188	2901.2	2023.5
933.8544	2027.2935	2890.55	2009.9
933.9917	2028.8674	2889.1	2009.8
934.129	2030.4406	2895.95	2015.15
934.2662	2032.0131	2877	1997.5
934.4034	2033.5849	2894.6	2012.1
934.5406	2035.1559	2874.15	1995.9
934.6778	2036.7261	2872.85	1994.2
934.8149	2038.2957	2882.5	2003.85
934.952	2039.8645	2877.4	1996.55
935.0891	2041.4325	2871.75	1990.85
935.2262	2042.9998	2869.3	1987.8
935.3632	2044.5664	2862.6	1981.35
935.5002	2046.1323	2843.3	1965.95
935.6372	2047.6974	2844.5	1967.55
935.7742	2049.2617	2845.95	1966.05
935.9111	2050.8254	2856.75	1971.3
936.048	2052.3883	2850.9	1970.9
936.1849	2053.9504	2839.2	1958.35
936.3218	2055.5118	2849.2	1969.3
936.4586	2057.0725	2841.7	1957.5
936.5955	2058.6325	2829	1950.3
936.7323	2060.1917	2826.8	1949.7
936.869	2061.7502	2829.75	1948.15
937.0058	2063.3079	2811.05	1933.2
937.1425	2064.8649	2804.05	1921.5
937.2792	2066.4212	2819.05	1939.7
937.4159	2067.9767	2816.85	1937.7
937.5525	2069.5315	2797.2	1917.15
937.6891	2071.0856	2799.4	1920.15
937.8257	2072.6389	2791.9	1910.4
937.9623	2074.1915	2772.65	1893.75
938.0989	2075.7433	2777.75	1896.15
938.2354	2077.2945	2768.7	1890
938.3719	2078.8448	2761.35	1881.3
938.5084	2080.3945	2768.6	1889.65
938.6448	2081.9434	2763.2	1884.9
938.7812	2083.4916	2760.55	1880.55
938.9176	2085.039	2747.65	1864.85
939.054	2086.5857	2753.85	1870.4
939.1903	2088.1317	2750	1868.05
939.3267	2089.677	2754.85	1872.1
939.463	2091.2215	2735.9	1856.2
939.5992	2092.7652	2736.35	1856.1
939.7355	2094.3083	2734.5	1853.45
939.8717	2095.8506	2736.55	1859.05
940.0079	2097.3921	2737.75	1858.9
940.1441	2098.933	2719.55	1841.6
940.2802	2100.4731	2730.35	1851.85
940.4163	2102.0124	2742.05	1844.45
940.5524	2103.5511	2719.9	1838.8
940.6885	2105.089	2708.75	1829.6
940.8245	2106.6261	2722.5	1840.6
940.9606	2108.1626	2718.3	1836.9
941.0965	2109.6983	2732.15	1824.15
941.2325	2111.2332	2706.75	1826.45
941.3684	2112.7675	2705.1	1823.25
941.5044	2114.301	2715.05	1832.85
941.6403	2115.8337	2691.1	1807.95
941.7761	2117.3657	2697.45	1818.6
941.912	2118.897	2695.35	1812.6
942.0478	2120.4276	2705.1	1819.7
942.1835	2121.9575	2690	1810.75
942.3193	2123.4866	2689.3	1794.8
942.455	2125.0149	2677.2	1794.5
942.5907	2126.5426	2664.05	1784.6
942.7264	2128.0695	2669.8	1783.9
942.8621	2129.5956	2659.55	1782.65
942.9977	2131.1211	2667.1	1782.5
943.1333	2132.6458	2650.4	1770.95
943.2689	2134.1698	2659.4	1780.25
943.4044	2135.693	2644.25	1762.3
943.54	2137.2155	2658	1777.1
943.6755	2138.7373	2654.3	1774.4
943.8109	2140.2584	2641.05	1763.45
943.9464	2141.7787	2638.4	1754.15
944.0818	2143.2983	2622.8	1744.4
944.2172	2144.8171	2620.2	1743.1
944.3526	2146.3353	2636	1754.3
944.4879	2147.8527	2623.35	1743.3
944.6232	2149.3693	2622.5	1743.1
944.7585	2150.8853	2626.1	1745.4
944.8938	2152.4005	2598.5	1717.7
945.029	2153.9149	2618.95	1737.3
945.1642	2155.4287	2595.7	1715.95
945.2994	2156.9417	2596.45	1715.9
945.4346	2158.454	2593.15	1711.95
945.5697	2159.9655	2590.5	1711
945.7048	2161.4764	2584.35	1704.55
945.8399	2162.9865	2571.25	1690.25
945.9749	2164.4958	2568.9	1687
946.1099	2166.0045	2572.6	1690.1
946.2449	2167.5124	2578.6	1699.4
946.3799	2169.0195	2583.35	1703.9
946.5148	2170.526	2563.25	1681.75
946.6498	2172.0317	2558.1	1677.05
946.7846	2173.5367	2560.9	1678.85
946.9195	2175.0409	2563.35	1685.35
947.0543	2176.5445	2547.35	1669
947.1891	2178.0473	2536.55	1655.05
947.3239	2179.5494	2540.45	1656.9
947.4587	2181.0507	2532.8	1653.4
947.5934	2182.5513	2524.5	1645.15
947.7281	2184.0512	2524.55	1644.9
947.8628	2185.5504	2522.15	1640.75
947.9974	2187.0488	2507.55	1627.6
948.132	2188.5465	2507.5	1628.45
948.2666	2190.0435	2503.35	1622.55
948.4012	2191.5397	2501	1623.35
948.5357	2193.0353	2488.05	1607.95
948.6702	2194.5301	2475.85	1595.5
948.8047	2196.0241	2480.1	1599.5
948.9392	2197.5175	2477.45	1596.25
949.0736	2199.0101	2472.75	1588.55
949.208	2200.502	2476.35	1597.5
949.3424	2201.9931	2449.55	1569.45
949.4767	2203.4835	2459.2	1577.85
949.611	2204.9733	2463.2	1578.4
949.7453	2206.4622	2455.25	1576.65
949.8796	2207.9505	2455.65	1573.55
950.0138	2209.438	2433.35	1556.55
950.148	2210.9248	2437.65	1557.3
950.2822	2212.4109	2426.85	1547.85
950.4164	2213.8962	2420.45	1537.5
950.5505	2215.3809	2419.8	1537.95
950.6846	2216.8648	2417.35	1536.65
950.8186	2218.3479	2417.2	1535.3
950.9527	2219.8304	2416.1	1532.2
951.0867	2221.3121	2397.15	1514.9
951.2207	2222.7931	2396.95	1517.2
951.3546	2224.2733	2401.65	1522.45
951.4886	2225.7529	2377.85	1497.75
951.6225	2227.2317	2383.7	1501.2
951.7563	2228.7098	2371.05	1493.45
951.8902	2230.1872	2368.8	1486.75
952.024	2231.6638	2378.2	1499.1
952.1578	2233.1397	2367.95	1482.85
952.2916	2234.6149	2356.95	1478.6
952.4253	2236.0894	2350.45	1470.05
952.559	2237.5632	2358.6	1467.5
952.6927	2239.0362	2348	1467.65
952.8263	2240.5085	2344.55	1463.8
952.9599	2241.9801	2331.45	1450.5
953.0935	2243.4509	2335.05	1454.8
953.2271	2244.921	2333	1451.85
953.3606	2246.3904	2318.65	1435.35
953.4941	2247.8591	2321.8	1441.5
953.6276	2249.3271	2313.45	1432.65
953.7611	2250.7943	2318.15	1439.5
953.8945	2252.2608	2299.5	1417.65
954.0279	2253.7266	2307.85	1425.7
954.1612	2255.1917	2290.5	1410.95
954.2946	2256.656	2299.85	1421.4
954.4279	2258.1197	2282.15	1402.9
954.5612	2259.5826	2289.95	1408.25
954.6944	2261.0447	2281.6	1399.7
954.8276	2262.5062	2280.45	1398.05
954.9608	2263.9669	2276.85	1395.65
955.094	2265.4269	2283.8	1404.35
955.2271	2266.8862	2263.45	1382.25
955.3602	2268.3448	2266.55	1385.8
955.4933	2269.8026	2258.9	1380.05
955.6264	2271.2598	2257.05	1376.65
955.7594	2272.7162	2242.4	1362.85
955.8924	2274.1719	2245.85	1365.95
956.0253	2275.6268	2235.6	1355.4
956.1583	2277.0811	2235.25	1354.95
956.2912	2278.5346	2238.7	1358.65
956.4241	2279.9874	2240.3	1360
956.5569	2281.4395	2231.3	1352.9
956.6897	2282.8908	2233.5	1346.9
956.8225	2284.3414	2226.3	1345.85
956.9553	2285.7914	2217.95	1337.4
957.088	2287.2406	2205.7	1325.2
957.2207	2288.689	2209.2	1327.05
957.3534	2290.1368	2215	1334.05
957.486	2291.5838	2198.9	1315.7
957.6186	2293.0302	2206.05	1323.75
957.7512	2294.4758	2200	1319.2
957.8838	2295.9206	2188.65	1308
958.0163	2297.3648	2185.5	1306.25
958.1488	2298.8082	2180.45	1297.35
958.2813	2300.251	2178.85	1298.75
958.4137	2301.693	2167.45	1282
958.5461	2303.1343	2177.6	1296.85
958.6785	2304.5748	2176.15	1295.75
958.8108	2306.0147	2168.6	1289.7
958.9432	2307.4538	2161.45	1278.05
959.0754	2308.8922	2146.45	1268
959.2077	2310.3299	2156.35	1276.15
959.3399	2311.7669	2155	1274.7
959.4721	2313.2031	2142.15	1261.15
959.6043	2314.6387	2148.8	1266.25
959.7365	2316.0735	2133.2	1250.9
959.8686	2317.5076	2137.25	1256.55
960.0006	2318.941	2130.75	1249.45
960.1327	2320.3737	2127.55	1245.35
960.2647	2321.8056	2131.55	1247.6
960.3967	2323.2369	2120.3	1238.6
960.5287	2324.6674	2119.6	1236
960.6606	2326.0972	2114.2	1231.7
960.7925	2327.5263	2114.6	1234.05
960.9244	2328.9547	2099.8	1217.5
961.0562	2330.3823	2111.8	1229.8
961.1881	2331.8092	2108.95	1224.1
961.3198	2333.2355	2093.2	1211.95
961.4516	2334.661	2100.45	1217.4
961.5833	2336.0858	2087.25	1204.15
961.715	2337.5098	2085.65	1206
961.8467	2338.9332	2077.9	1197.35
961.9783	2340.3558	2076.55	1190.6
962.1099	2341.7778	2076.1	1196.95
962.2415	2343.199	2058.6	1175.6
962.373	2344.6195	2051.85	1171.3
962.5045	2346.0393	2062.45	1181.2
962.636	2347.4583	2055.65	1175.3
962.7675	2348.8767	2052.1	1170.25
962.8989	2350.2943	2051.35	1170.2
963.0303	2351.7113	2048.5	1164.8
963.1617	2353.1275	2038.1	1157.2
963.293	2354.543	2038.3	1146.8
963.4243	2355.9578	2043.05	1159.8
963.5556	2357.3718	2025.7	1146.4
963.6868	2358.7852	2021.6	1137.15
963.818	2360.1978	2011.5	1130.35
963.9492	2361.6098	2014.05	1133.1
964.0803	2363.021	2018.45	1136
964.2114	2364.4315	2006.15	1126.65
964.3425	2365.8413	2007.85	1126.55
964.4736	2367.2504	1991	1111.05
964.6046	2368.6587	1986.85	1106.1
964.7356	2370.0664	1979.4	1098.6
964.8666	2371.4733	1977.7	1098.7
964.9975	2372.8795	1963.05	1083.1
965.1284	2374.285	1971.1	1089.9
965.2593	2375.6899	1962.95	1080.9
965.3901	2377.0939	1967.65	1088.3
965.5209	2378.4973	1957.9	1078.4
965.6517	2379.9	1944.4	1060.85
965.7825	2381.3019	1946	1065.6
965.9132	2382.7032	1941.65	1061.7
966.0439	2384.1037	1944.5	1064.6
966.1745	2385.5035	1939.6	1059.75
966.3051	2386.9027	1932.5	1051.55
966.4357	2388.3011	1935	1051.45
966.5663	2389.6987	1918.25	1037.2
966.6968	2391.0957	1917	1036.3
966.8273	2392.492	1916.65	1034.6
966.9578	2393.8876	1914.05	1030.3
967.0882	2395.2824	1904.6	1023.75
967.2186	2396.6765	1901.85	1019.35
967.349	2398.07	1895	1012.5
967.4793	2399.4627	1900.35	1017.15
967.6097	2400.8547	1891	1009.05
967.7399	2402.246	1895.25	1007.1
967.8702	2403.6366	1889.35	1009.15
968.0004	2405.0265	1871.3	990.25
968.1306	2406.4156	1866.55	981.6
968.2607	2407.8041	1862.95	978.95
968.3909	2409.1918	1863.1	977.5
968.521	2410.5789	1860.05	976.6
968.651	2411.9652	1859.45	975.55
968.781	2413.3508	1861.6	981.25
968.911	2414.7358	1841.55	959
969.041	2416.12	1844.2	963.65
969.1709	2417.5035	1847.15	966.75
969.3008	2418.8863	1840.65	958.85
969.4307	2420.2684	1837.85	956.55
969.5606	2421.6497	1830.6	948.6
969.6904	2423.0304	1832.8	952.7
969.8201	2424.4104	1812.5	928.6
969.9499	2425.7896	1819.15	936.85
970.0796	2427.1682	1820.65	939.25
970.2093	2428.546	1807.75	925.45
970.3389	2429.9232	1810.15	925.7
970.4685	2431.2996	1816.9	935.75
970.5981	2432.6753	1810.6	927.8
970.7277	2434.0503	1808.35	926.45
970.8572	2435.4246	1795.25	913.8
970.9867	2436.7982	1803.65	919.65
971.1161	2438.1711	1790.8	909.2
971.2456	2439.5433	1793	911.55
971.375	2440.9148	1786.95	900.15
971.5043	2442.2856	1783.3	903.9
971.6336	2443.6557	1787	904.1
971.7629	2445.025	1778.45	895.85
971.8922	2446.3937	1774.55	891.9
972.0214	2447.7617	1768.75	887.15
972.1506	2449.1289	1771.2	888.45
972.2798	2450.4955	1779.65	895.25
972.4089	2451.8613	1758.7	878.4
972.538	2453.2265	1759.7	877.55
972.6671	2454.5909	1759.7	878.05
972.7961	2455.9546	1752.85	871.3
972.9251	2457.3177	1750.6	867.45
973.0541	2458.68	1756.75	872.4
973.1831	2460.0416	1749.45	866.65
973.312	2461.4025	1754.15	870.8
973.4408	2462.7627	1750.65	858.35
973.5697	2464.1222	1745.5	864.9
973.6985	2465.4811	1740.4	857.85
973.8273	2466.8392	1741.6	859.3
973.956	2468.1966	1742.5	859.55
974.0847	2469.5533	1736.9	853.95
974.2134	2470.9093	1727.2	845.4
974.3421	2472.2645	1732.3	850.2
974.4707	2473.6191	1725.2	843.6
974.5993	2474.973	1723.4	841.45
974.7278	2476.3262	1729.1	846
974.8563	2477.6787	1715.3	835.05
974.9848	2479.0305	1715.5	834.15
975.1132	2480.3816	1703.7	820.15
975.2417	2481.7319	1705.75	823.6
975.37	2483.0816	1708.35	826.45
975.4984	2484.4306	1704.05	821.85
975.6267	2485.7789	1688.55	807.7
975.755	2487.1264	1681.75	798.45
975.8833	2488.4733	1685.35	806.9
976.0115	2489.8195	1694.3	806.75
976.1397	2491.165	1685.4	801.15
976.2678	2492.5097	1676.75	794.7
976.3959	2493.8538	1673.15	791.55
976.524	2495.1972	1666.3	784.15
976.6521	2496.5398	1669.5	787.35
976.7801	2497.8818	1664.75	781.8
976.9081	2499.2231	1660.95	781.1
977.036	2500.5637	1655.55	771.3
977.164	2501.9035	1661.8	778.45
977.2918	2503.2427	1659.35	773
977.4197	2504.5812	1647.05	765.7
977.5475	2505.919	1646.75	763.7
977.6753	2507.256	1647.55	764.7
977.8031	2508.5924	1654.75	773.55
977.9308	2509.9281	1654.2	766.05
978.0585	2511.2631	1632.55	753.35
978.1861	2512.5974	1638.45	760.85
978.3137	2513.9309	1636.75	756.25
978.4413	2515.2638	1654.9	743.45
978.5689	2516.596	1629.2	747.6
978.6964	2517.9275	1622.45	740.05
978.8239	2519.2583	1616.5	733.75
978.9513	2520.5884	1617.2	733.45
979.0788	2521.9178	1613.25	732.6
979.2062	2523.2465	1617.8	735.9
979.3335	2524.5745	1604.75	724.95
979.4608	2525.9018	1598.4	716
979.5881	2527.2284	1601.75	723.2
979.7154	2528.5543	1605	723.6
979.8426	2529.8796	1592.45	711.95
979.9698	2531.2041	1595.9	715.2
980.0969	2532.5279	1590.15	707.95
980.224	2533.851	1596.7	712.5
980.3511	2535.1735	1585.65	705.95
980.4781	2536.4952	1585.4	705.1
980.6052	2537.8163	1587.2	705.55
980.7321	2539.1366	1582.3	701.25
980.8591	2540.4562	1582.95	698.25
980.986	2541.7752	1581.1	702.2
981.1129	2543.0935	1577.45	694.9
981.2397	2544.411	1583.8	701.85
981.3665	2545.7279	1578.85	697.2
981.4933	2547.0441	1568.45	687.75
981.62	2548.3596	1579.15	693.4
981.7467	2549.6744	1564.6	682.55
981.8734	2550.9885	1572.4	682.35
982.0001	2552.3019	1561.85	681.35
982.1267	2553.6146	1556.2	673.25
982.2532	2554.9266	1556.25	673.5
982.3798	2556.2379	1560.35	677.75
982.5063	2557.5485	1547.35	666.45
982.6327	2558.8585	1562.15	672.2
982.7592	2560.1677	1559.15	674.8
982.8856	2561.4762	1539.95	658.35
983.0119	2562.7841	1546.5	662.1
983.1383	2564.0913	1541.35	659.8
983.2646	2565.3977	1540.65	660.8
983.3908	2566.7035	1545.05	665
983.517	2568.0086	1541.05	658.45
983.6432	2569.313	1548.2	665
983.7694	2570.6167	1550.65	667.65
983.8955	2571.9197	1544.15	663.8
984.0216	2573.222	1536.65	652.35
984.1476	2574.5236	1533.6	650.65
984.2737	2575.8246	1527.75	642.8
984.3996	2577.1248	1528.6	643.1
984.5256	2578.4244	1521.95	640.9
984.6515	2579.7232	1531.9	651
984.7774	2581.0214	1546.95	640.25
984.9032	2582.3189	1518.65	638.5
985.029	2583.6157	1518.45	633.1
985.1548	2584.9118	1521.05	640
985.2806	2586.2072	1519.85	639.45
985.4063	2587.5019	1510.2	628.6
985.5319	2588.7959	1517.05	635.55
985.6576	2590.0893	1515.6	633.1
985.7832	2591.3819	1507.2	625.05
985.9087	2592.6739	1500.95	619.35
986.0343	2593.9652	1504.6	622.85
986.1597	2595.2557	1502.3	619.55
986.2852	2596.5456	1496.35	613.75
986.4106	2597.8348	1497.4	616.8
986.536	2599.1234	1488.55	607.65
986.6614	2600.4112	1486.55	604.85
986.7867	2601.6983	1480.6	595.55
986.912	2602.9848	1485.2	602.75
987.0372	2604.2705	1488.6	600
987.1624	2605.5556	1475.8	591.7
987.2876	2606.84	1478.75	596.8
987.4128	2608.1237	1471.25	588.4
987.5379	2609.4067	1473.4	592.55
987.6629	2610.689	1482.15	592.45
987.788	2611.9707	1468.55	585.45
987.913	2613.2516	1464.6	577.7
988.0379	2614.5319	1460.7	580.75
988.1629	2615.8115	1454.9	572.8
988.2878	2617.0903	1451.75	569.8
988.4126	2618.3685	1450.75	567.4
988.5375	2619.6461	1451.95	571.5
988.6622	2620.9229	1450.55	568.95
988.787	2622.199	1446.4	564.35
988.9117	2623.4745	1441.25	558.65
989.0364	2624.7493	1437.6	556.5
989.161	2626.0234	1425.1	543.95
989.2857	2627.2968	1442.85	561.9
989.4102	2628.5695	1437.3	555.75
989.5348	2629.8415	1431.6	551.4
989.6593	2631.1128	1422	538.15
989.7837	2632.3835	1419.9	540.4
989.9082	2633.6535	1422.9	541.1
990.0326	2634.9228	1423.65	541.5
990.1569	2636.1914	1420.45	539.7
990.2812	2637.4593	1424.3	537.55
990.4055	2638.7265	1418.3	536.4
990.5298	2639.9931	1411.85	531.15
990.654	2641.259	1410.15	528.65
990.7782	2642.5242	1410.6	529
990.9023	2643.7887	1410.95	529.95
991.0264	2645.0525	1403.2	522.75
991.1505	2646.3156	1404	522.2
991.2745	2647.5781	1396.65	514.2
991.3985	2648.8398	1397.15	515.5
991.5225	2650.1009	1402.25	513.5
991.6464	2651.3613	1392.3	510.35
991.7703	2652.6211	1388.05	506.45
991.8942	2653.8801	1384.25	505
992.018	2655.1385	1394.05	511.45
992.1418	2656.3961	1381.25	500.65
992.2655	2657.6531	1379.15	498.2
992.3892	2658.9094	1385.3	504.8
992.5129	2660.1651	1382.95	503.6
992.6366	2661.42	1377.6	496.45
992.7602	2662.6743	1374.3	491.95
992.8837	2663.9279	1379.25	498
993.0073	2665.1808	1379.65	496.4
993.1307	2666.433	1377.2	496.9
993.2542	2667.6846	1369.35	487.75
993.3776	2668.9354	1371.25	487.75
993.501	2670.1856	1371.7	489.75
993.6244	2671.4351	1368.6	488.2
993.7477	2672.6839	1372.9	490.05
993.8709	2673.9321	1352.25	472.6
993.9942	2675.1795	1363.95	482
994.1174	2676.4263	1359.35	480.15
994.2405	2677.6724	1360.85	479.8
994.3637	2678.9179	1354.8	474.75
994.4868	2680.1626	1354.6	473.3
994.6098	2681.4067	1356.35	477.25
994.7328	2682.6501	1351.45	471.25
994.8558	2683.8928	1346.8	465.9
994.9788	2685.1348	1341.3	460.95
995.1017	2686.3761	1342.25	461.8
995.2245	2687.6168	1343.4	460.6
995.3474	2688.8568	1337.25	455.35
995.4702	2690.0961	1339.25	460.55
995.5929	2691.3348	1344.25	461.15
995.7156	2692.5727	1340	458.4
995.8383	2693.81	1329.3	449.65
995.961	2695.0466	1325.55	446
996.0836	2696.2826	1328.7	447.8
996.2062	2697.5178	1329.85	446.55
996.3287	2698.7524	1323.65	440.7
996.4512	2699.9863	1331.4	448.25
996.5737	2701.2195	1314.8	435.15
996.6961	2702.452	1323.1	441.1
996.8185	2703.6839	1324.75	441.4
996.9408	2704.9151	1320.6	440.5
997.0631	2706.1456	1312.9	432.05
997.1854	2707.3755	1316.45	434.7
997.3077	2708.6046	1316.25	433.8
997.4299	2709.8331	1317.85	436.75
997.552	2711.0609	1310.35	429.65
997.6742	2712.2881	1304.55	424.55
997.7963	2713.5145	1308.25	425.65
997.9183	2714.7403	1309.85	431.4
998.0403	2715.9654	1304.1	422.75
998.1623	2717.1899	1319.35	425.6
998.2842	2718.4136	1305.8	427.35
998.4062	2719.6367	1300.2	418.5
998.528	2720.8591	1301.7	415.95
998.6498	2722.0809	1299.55	418.35
998.7716	2723.3019	1300.7	416.75
998.8934	2724.5223	1295.45	414.3
999.0151	2725.7421	1290.2	406.35
999.1368	2726.9611	1288.9	406.3
999.2584	2728.1795	1288.2	404.1
999.38	2729.3972	1288.8	408.65
999.5016	2730.6142	1295.55	400.15
999.6231	2731.8306	1280.65	397.7
999.7446	2733.0462	1280.35	397.9
999.8661	2734.2612	1281.95	396.6
999.9875	2735.4756	1281.2	399.55
1000.1089	2736.6892	1276.9	394.55
1000.2302	2737.9022	1271.2	393.25
1000.3515	2739.1145	1263.1	382.9
1000.4728	2740.3262	1271	383.05
1000.594	2741.5372	1263.85	384.15
1000.7152	2742.7475	1258.2	376.1
1000.8363	2743.9571	1266.45	385.5
1000.9575	2745.1661	1261.2	376.8
1001.0785	2746.3744	1258.85	377.45
1001.1996	2747.582	1251.35	372.4
1001.3206	2748.7889	1253.45	370.15
1001.4415	2749.9952	1256.9	376.8
1001.5625	2751.2008	1252.75	369.95
1001.6833	2752.4057	1249	366.55
1001.8042	2753.61	1251.4	369.9
1001.925	2754.8136	1250.2	367.75
1002.0458	2756.0165	1243.9	362.8
1002.1665	2757.2188	1239.6	361.2
1002.2872	2758.4204	1239.3	357.85
1002.4078	2759.6213	1241.45	358.45
1002.5285	2760.8215	1242.7	356.6
1002.649	2762.0211	1241.35	359.15
1002.7696	2763.22	1235.65	354.15
1002.8901	2764.4182	1233.8	351.85
1003.0106	2765.6158	1233.55	354.35
1003.131	2766.8127	1225.95	345.45
1003.2514	2768.009	1229.6	348
1003.3717	2769.2045	1232.2	350.3
1003.492	2770.3994	1233.25	350.8
1003.6123	2771.5936	1226.75	345.7
1003.7325	2772.7872	1217.6	338.4
1003.8527	2773.9801	1223.3	341.4
1003.9729	2775.1723	1240.8	342.45
1004.093	2776.3639	1220.75	341.25
1004.2131	2777.5548	1222.15	339.7
1004.3331	2778.745	1216.4	333.95
1004.4531	2779.9346	1212	332.05
1004.5731	2781.1235	1207.7	328.05
1004.693	2782.3117	1212.2	332.45
1004.8129	2783.4992	1208.8	328.8
1004.9328	2784.6861	1211.7	332.15
1005.0526	2785.8723	1211.95	330.75
1005.1723	2787.0579	1204.25	323.5
1005.2921	2788.2428	1200.7	321.2
1005.4118	2789.427	1202.3	322.85
1005.5314	2790.6106	1203.1	322.8
1005.651	2791.7935	1203.4	322.5
1005.7706	2792.9757	1199.4	320.95
1005.8902	2794.1573	1199.45	315.45
1006.0097	2795.3382	1197.05	316.9
1006.1291	2796.5184	1194.45	315.1
1006.2485	2797.698	1195.15	314.5
1006.3679	2798.8769	1194.6	312.75
1006.4873	2800.0551	1185.2	304.15
1006.6066	2801.2327	1187.75	305.45
1006.7258	2802.4096	1186.9	305.55
1006.8451	2803.5859	1183.45	303.1
1006.9642	2804.7615	1191.95	312.1
1007.0834	2805.9364	1187.65	308.05
1007.2025	2807.1106	1185.15	303.4
1007.3216	2808.2842	1183	302.55
1007.4406	2809.4572	1188.4	311.55
1007.5596	2810.6294	1187.5	304.65
1007.6785	2811.801	1180.4	301.3
1007.7975	2812.972	1181.65	304.1
1007.9163	2814.1423	1182.35	303
1008.0352	2815.3119	1181.9	303.6
1008.154	2816.4808	1178.45	300.85
1008.2727	2817.6491	1181.9	301.2
1008.3914	2818.8167	1183.9	305.25
1008.5101	2819.9837	1192.55	309
1008.6288	2821.15	1183.65	302.2
1008.7474	2822.3157	1187.4	308.75
1008.8659	2823.4807	1192.15	312.45
1008.9844	2824.645	1195.35	313.05
1009.1029	2825.8086	1198.8	317.9
1009.2214	2826.9716	1201.7	322.3
1009.3398	2828.134	1201.1	321.3
1009.4581	2829.2957	1206.4	326.85
1009.5764	2830.4567	1207	327.65
1009.6947	2831.617	1217.95	338.45
1009.813	2832.7767	1216.3	336.15
1009.9312	2833.9358	1215.6	338
1010.0493	2835.0941	1210.45	326.9
1010.1675	2836.2519	1210.05	333.05
1010.2855	2837.4089	1208.8	326.25
1010.4036	2838.5653	1198.65	320.2
1010.5216	2839.7211	1198.2	319.65
1010.6396	2840.8761	1202.1	319
1010.7575	2842.0306	1198.05	318.95
1010.8754	2843.1843	1195.7	315
1010.9932	2844.3374	1190.9	312.9
1011.111	2845.4899	1194.8	312.05
1011.2288	2846.6417	1194.75	316.9
1011.3465	2847.7928	1200.2	321.65
1011.4642	2848.9433	1199.55	318.85
1011.5818	2850.0931	1198.2	318.5
1011.6995	2851.2422	1196.1	314.75
1011.817	2852.3907	1197.9	318.65
1011.9345	2853.5385	1196.35	316
1012.052	2854.6857	1206.15	316.55
1012.1695	2855.8323	1198.65	321.55
1012.2869	2856.9781	1199.8	321.05
1012.4042	2858.1233	1195.95	316.1
1012.5216	2859.2679	1196.2	315.25
1012.6389	2860.4118	1200.25	320.85
1012.7561	2861.555	1206.15	320.05
1012.8733	2862.6976	1208.2	328.9
1012.9905	2863.8395	1204.55	325.5
1013.1076	2864.9808	1204.15	327.05
1013.2247	2866.1214	1198.7	319.05
1013.3417	2867.2614	1204.6	323.25
1013.4587	2868.4007	1205.55	324.25
1013.5757	2869.5393	1200.75	318.35
1013.6926	2870.6773	1204.4	322.05
1013.8095	2871.8146	1210.3	328.45
1013.9263	2872.9513	1206.85	327.25
1014.0431	2874.0874	1197.15	316.25
1014.1599	2875.2227	1193.7	314.55
1014.2766	2876.3574	1200.2	320.1
1014.3933	2877.4915	1199.15	322.4
1014.51	2878.6249	1197.35	319.9
1014.6266	2879.7577	1206.4	326.35
1014.7431	2880.8898	1215.35	325.35
1014.8596	2882.0212	1203.35	326.1
1014.9761	2883.152	1205.2	323.45
1015.0925	2884.2821	1198.65	319.6
1015.2089	2885.4116	1199.2	320.2
1015.3253	2886.5405	1205	326.15
1015.4416	2887.6686	1205.4	324.25
1015.5579	2888.7962	1199.95	321.65
1015.6741	2889.923	1195.8	316.85
1015.7903	2891.0493	1195.5	317.65
1015.9065	2892.1748	1204.55	323.8
1016.0226	2893.2997	1198.5	318.45
1016.1387	2894.424	1194.5	316.55
1016.2547	2895.5476	1194.45	315.45
1016.3707	2896.6706	1195.05	315.5
1016.4866	2897.7929	1191.55	311.7
1016.6025	2898.9145	1194.3	313.55
1016.7184	2900.0355	1192.65	311.7
1016.8342	2901.1559	1193.85	313.1
1016.95	2902.2756	1187.9	309.8
1017.0658	2903.3946	1183.35	304.5
1017.1815	2904.513	1184.95	303.2
1017.2971	2905.6308	1182.2	305.5
1017.4127	2906.7479	1182.25	300.6
1017.5283	2907.8643	1183.95	301.9
1017.6439	2908.9801	1187.05	306.9
1017.7594	2910.0953	1177.95	297.9
1017.8748	2911.2098	1183.6	301.6
1017.9902	2912.3236	1184.35	296.75
1018.1056	2913.4368	1179.05	297.75
1018.2209	2914.5494	1177.15	298.3
1018.3362	2915.6613	1173.8	288.4
1018.4515	2916.7725	1179.6	298.9
1018.5667	2917.8831	1168.5	286.25
1018.6819	2918.9931	1165.4	282.85
1018.797	2920.1024	1165.9	284.85
1018.9121	2921.211	1161.5	282.8
1019.0271	2922.319	1163.3	282.4
1019.1421	2923.4264	1161.2	282.1
1019.2571	2924.5331	1153.55	276.9
1019.372	2925.6391	1150.8	272.6
1019.4869	2926.7445	1151.2	273.55
1019.6017	2927.8493	1156.85	275.65
1019.7165	2928.9534	1157.6	280.25
1019.8313	2930.0569	1157.2	275
1019.946	2931.1597	1156.95	278.5
1020.0606	2932.2619	1159.1	279.35
1020.1753	2933.3634	1158.6	279.4
1020.2899	2934.4643	1163.7	276.2
1020.4044	2935.5645	1164.05	278.3
1020.5189	2936.6641	1160.85	276.15
1020.6334	2937.763	1155.8	277.35
1020.7478	2938.8613	1157.9	277.35
1020.8622	2939.959	1157.85	270.7
1020.9765	2941.056	1151.15	272
1021.0908	2942.1523	1149.15	267.35
1021.2051	2943.248	1136.9	256.9
1021.3193	2944.3431	1131.8	253.6
1021.4334	2945.4375	1129.1	248.8
1021.5476	2946.5313	1121.25	242.65
1021.6617	2947.6244	1120.8	241.15
1021.7757	2948.7169	1117.05	236.7
1021.8897	2949.8087	1106.25	226
1022.0037	2950.8999	1109.35	232.25
1022.1176	2951.9904	1102.55	224.65
1022.2315	2953.0803	1098.05	219.45
1022.3453	2954.1696	1092.35	213.1
1022.4591	2955.2582	1090.8	211.8
1022.5728	2956.3462	1088.9	210.4
1022.6865	2957.4335	1086.75	206.85
1022.8002	2958.5202	1092.95	212.1
1022.9138	2959.6062	1084.5	206.75
1023.0274	2960.6916	1080.5	202.25
1023.141	2961.7764	1084.85	204.85
1023.2545	2962.8605	1081.6	200.85
1023.3679	2963.9439	1079.15	201.5
1023.4813	2965.0267	1079.4	198.65
1023.5947	2966.1089	1102	200.2
1023.708	2967.1905	1081.9	203.05
1023.8213	2968.2714	1073.3	195.9
1023.9346	2969.3516	1078.6	199.9
1024.0478	2970.4312	1082.35	195.85
1024.1609	2971.5102	1081.1	203.5
1024.274	2972.5885	1070.9	191.8
1024.3871	2973.6662	1076	193.15
1024.5002	2974.7432	1073.2	194.65
1024.6132	2975.8196	1073.85	194.75
1024.7261	2976.8954	1072.35	194.6
1024.839	2977.9705	1073.75	194.35
1024.9519	2979.045	1069.25	188.6
1025.0647	2980.1188	1069.9	192.45
1025.1775	2981.192	1064.05	183.45
1025.2902	2982.2645	1065.9	186.5
1025.4029	2983.3364	1065.25	186.75
1025.5156	2984.4077	1062.7	184.4
1025.6282	2985.4783	1073.75	188.4
1025.7407	2986.5483	1059	180.45
1025.8532	2987.6177	1056.95	179.7
1025.9657	2988.6864	1054.3	174.05
1026.0782	2989.7545	1050.1	169.55
1026.1906	2990.8219	1050.75	173.1
1026.3029	2991.8887	1046.9	163.9
1026.4152	2992.9548	1048.4	168.8
1026.5275	2994.0204	1045.2	165.9
1026.6397	2995.0852	1035.7	159
1026.7519	2996.1495	1042.95	162.1
1026.864	2997.2131	1041.15	163.35
1026.9761	2998.276	1036.9	157.2
1027.0882	2999.3383	1036.85	158.9
1027.2002	3000.4	1036.95	156.6
1027.3122	3001.4611	1027.4	149.05
1027.4241	3002.5215	1024.55	146.05
1027.536	3003.5812	1029.9	150.05
1027.6478	3004.6404	1027.35	150.6
1027.7596	3005.6989	1030.5	148.05
1027.8714	3006.7567	1025.8	146.85
1027.9831	3007.8139	1049.45	145.45
1028.0947	3008.8705	1028.95	148.85
1028.2064	3009.9264	1027.25	144.6
1028.3179	3010.9818	1023.1	143.15
1028.4295	3012.0364	1022.1	142
1028.541	3013.0905	1021.75	142.6
1028.6524	3014.1439	1023.3	144.5
1028.7638	3015.1966	1019.65	142.3
1028.8752	3016.2487	1018.25	139.35
1028.9865	3017.3002	1022.55	136.5
1029.0978	3018.3511	1016.95	137.6
1029.209	3019.4013	1015.65	136.25
1029.3202	3020.4509	1017.35	137.25
1029.4314	3021.4998	1021.2	139.3
1029.5425	3022.5481	1013.4	135.7
1029.6535	3023.5958	1012.7	132.85
1029.7645	3024.6428	1014.5	133.9
1029.8755	3025.6892	1010.5	133.2
1029.9864	3026.735	1012.3	134.05
1030.0973	3027.7802	1013.45	136.2
1030.2082	3028.8247	1010.1	132.9
1030.319	3029.8685	1010.85	132.05
1030.4297	3030.9118	1011.2	132.05
1030.5404	3031.9544	1008.45	130.05
1030.6511	3032.9963	1006.6	128.4
1030.7617	3034.0376	1006.75	128.65
1030.8723	3035.0783	1009.6	127.65
1030.9829	3036.1184	1005.15	125.1
1031.0934	3037.1578	1002.55	124.95
1031.2038	3038.1966	1007.4	125.95
1031.3142	3039.2348	1000.5	123.65
1031.4246	3040.2723	1013.85	125.7
1031.5349	3041.3092	1006.95	129.7
1031.6452	3042.3455	1005.65	126.5
1031.7554	3043.3811	1001.4	123
1031.8656	3044.4161	1006.2	124.7
1031.9758	3045.4505	1001.85	125.15
1032.0859	3046.4842	1001.95	124.4
1032.1959	3047.5173	1000.75	123.65
1032.3059	3048.5498	999.95	121.8
1032.4159	3049.5816	999.8	119.95
1032.5258	3050.6128	997.6	116.6
1032.6357	3051.6434	999.95	119.35
1032.7455	3052.6734	1000.85	122.1
1032.8553	3053.7027	996.65	116.3
1032.9651	3054.7314	996.2	117.25
1033.0748	3055.7594	998.7	121.25
1033.1845	3056.7868	995.55	115.45
1033.2941	3057.8136	999.8	120.95
1033.4037	3058.8398	998.3	121.15
1033.5132	3059.8653	994.8	117.2
1033.6227	3060.8902	995	115.85
1033.7321	3061.9145	994.8	116.55
1033.8415	3062.9381	998.65	119.05
1033.9509	3063.9612	1010.25	116.45
1034.0602	3064.9835	996.9	118.45
1034.1694	3066.0053	993.55	112.35
1034.2787	3067.0264	994.3	115.65
1034.3878	3068.0469	995.35	115.25
1034.497	3069.0668	994.85	113.85
1034.6061	3070.086	992.85	115.4
1034.7151	3071.1046	996.2	116.8
1034.8241	3072.1226	994	114.15
1034.9331	3073.1399	993.15	114.3
1035.042	3074.1567	989.7	111.2
1035.1508	3075.1727	989.55	108.85
1035.2597	3076.1882	988.7	111.25
1035.3684	3077.203	984.2	104.8
1035.4772	3078.2173	991.35	112.3
1035.5859	3079.2308	995	113.35
1035.6945	3080.2438	987.4	107.6
1035.8031	3081.2561	987.2	108.65
1035.9117	3082.2678	985	107.95
1036.0202	3083.2789	986.35	105.75
1036.1286	3084.2893	980.45	102.05
1036.2371	3085.2991	982.5	102.9
1036.3454	3086.3083	992.2	109.75
1036.4538	3087.3169	981.45	102.35
1036.562	3088.3248	984.3	103.85
1036.6703	3089.3321	980	98.45
1036.7785	3090.3388	981.85	103.9
1036.8866	3091.3449	976.1	99.1
1036.9948	3092.3503	982.1	103.1
1037.1028	3093.3551	979.95	103.6
1037.2108	3094.3593	977	98.75
1037.3188	3095.3629	976.55	97.6
1037.4267	3096.3658	978.9	98.8
1037.5346	3097.3681	975.95	96.05
1037.6425	3098.3698	981.35	100.55
1037.7503	3099.3708	983.95	98.15
1037.858	3100.3713	975.35	98.35
1037.9657	3101.3711	974.2	95.3
1038.0734	3102.3702	1109.15	93.6
1038.181	3103.3688	977.95	97.5
1038.2886	3104.3667	975.45	96.85
1038.3961	3105.364	972.7	94.4
1038.5036	3106.3607	972.05	91.5
1038.611	3107.3568	971.7	89.65
1038.7184	3108.3522	970.1	91.5
1038.8257	3109.347	969.15	89.5
1038.933	3110.3412	970.75	88.8
1039.0403	3111.3348	965.15	85.75
1039.1475	3112.3277	964.8	83.65
1039.2547	3113.32	965.05	87.55
1039.3618	3114.3117	968	88.05
1039.4689	3115.3028	965.1	86.85
1039.5759	3116.2932	970.3	89.55
1039.6829	3117.2831	969.9	85.75
1039.7898	3118.2723	964.25	86
1039.8967	3119.2608	964.4	84.9
1040.0035	3120.2488	965.45	84.65
1040.1103	3121.2361	962.8	86.15
1040.2171	3122.2229	963.1	85.85
1040.3238	3123.209	961.85	82.65
1040.4305	3124.1944	960.25	80.25
1040.5371	3125.1793	961	80.8
1040.6437	3126.1635	959.85	82.6
1040.7502	3127.1471	958.4	81.65
1040.8567	3128.1301	956.9	80.4
1040.9631	3129.1125	956.7	80.95
1041.0695	3130.0942	959.6	80.8
1041.1759	3131.0753	965.2	79.2
1041.2822	3132.0558	962.25	80.55
1041.3884	3133.0357	956.35	78
1041.4946	3134.015	958.4	78
1041.6008	3134.9936	955.7	75.85
1041.7069	3135.9716	977.4	77.25
1041.813	3136.949	956.65	77.5
1041.919	3137.9258	958.8	76.05
1042.025	3138.902	959.3	74.25
1042.1309	3139.8775	954.6	75.1
1042.2368	3140.8524	956.05	77.1
1042.3427	3141.8267	953.3	74.1
1042.4485	3142.8004	955.8	77.2
1042.5542	3143.7735	961.25	76.6
1042.6599	3144.7459	956.25	75.4
1042.7656	3145.7178	954.4	74.65
1042.8712	3146.689	951.3	72.2
1042.9768	3147.6596	955.95	75.2
1043.0823	3148.6295	952.8	73.85
1043.1878	3149.5989	951.8	74.4
1043.2932	3150.5676	949.25	71.95
1043.3986	3151.5357	949.35	72.8
1043.5039	3152.5032	950.95	73.2
1043.6092	3153.4701	949.2	71.7
1043.7145	3154.4364	952.1	69.4
1043.8197	3155.402	949.35	72
1043.9248	3156.367	947.7	68.25
1044.03	3157.3315	984.7	68.5
1044.135	3158.2952	946.75	69.55
1044.24	3159.2584	948.05	70.2
1044.345	3160.221	949.7	70.3
1044.4499	3161.1829	945.2	68
1044.5548	3162.1442	946.1	67.3
1044.6596	3163.105	947.55	70.8
1044.7644	3164.065	945.85	66.75
1044.8692	3165.0245	948	68.65
1044.9739	3165.9834	945.25	66.5
1045.0785	3166.9416	943.9	66.8
1045.1831	3167.8993	945	65.75
1045.2877	3168.8563	942.2	62.55
1045.3922	3169.8127	941.7	61.85
1045.4966	3170.7684	941.9	64.55
1045.6011	3171.7236	942.85	61.15
1045.7054	3172.6782	941.05	64.15
1045.8098	3173.6321	943.8	65.15
1045.914	3174.5854	945.45	62.25
1046.0183	3175.5381	939.2	61.55
1046.1224	3176.4902	937.5	58.4
1046.2266	3177.4417	939.35	62.8
1046.3307	3178.3926	940.8	61.55
1046.4347	3179.3428	938.85	60.4
1046.5387	3180.2924	939.95	61.35
1046.6427	3181.2415	940.25	59.65
1046.7466	3182.1899	941.6	63.05
1046.8504	3183.1377	939.85	61.75
1046.9542	3184.0848	942.1	59.9
1047.058	3185.0314	937.65	58.95
1047.1617	3185.9773	936.85	57.3
1047.2654	3186.9227	937.4	59.6
1047.369	3187.8674	934.8	56.35
1047.4726	3188.8115	940.45	58
1047.5761	3189.755	936.5	59.2
1047.6796	3190.6979	932.5	55.35
1047.783	3191.6402	936.05	57.3
1047.8864	3192.5818	933.5	54.75
1047.9898	3193.5229	953.2	56.1
1048.0931	3194.4633	936.55	57.4
1048.1963	3195.4031	932.85	54
1048.2995	3196.3423	934.4	56.45
1048.4027	3197.2809	931.35	52.7
1048.5058	3198.2189	934.7	56
1048.6089	3199.1563	952.15	57.85
1048.7119	3200.0931	934.35	57.4
1048.8148	3201.0292	928.65	52.45
1048.9178	3201.9648	934.45	55.6
1049.0206	3202.8997	932.35	49.2
1049.1235	3203.834	934.35	55.8
1049.2262	3204.7677	932.2	53.6
1049.329	3205.7008	934.8	54.8
1049.4317	3206.6333	931.45	55.65
1049.5343	3207.5652	933.15	51.85
1049.6369	3208.4964	930.2	51.55
1049.7394	3209.4271	928.3	50.95
1049.8419	3210.3571	926.4	48.1
1049.9444	3211.2865	931.6	52.95
1050.0468	3212.2154	931.1	51.8
1050.1491	3213.1436	933.55	52.95
1050.2514	3214.0712	932.9	47.75
1050.3537	3214.9982	929.65	52.85
1050.4559	3215.9246	929.4	48.65
1050.5581	3216.8503	927.65	48.3
1050.6602	3217.7755	929.65	50.5
1050.7623	3218.7001	927.7	48.85
1050.8643	3219.624	927.3	47.35
1050.9663	3220.5473	927.95	49.95
1051.0682	3221.4701	929.3	48.95
1051.1701	3222.3922	928.85	49
1051.2719	3223.3137	927.1	48.25
1051.3737	3224.2346	927.5	50.65
1051.4754	3225.1549	925.85	50.3
1051.5771	3226.0746	926.1	47
1051.6788	3226.9937	924.4	47.15
1051.7804	3227.9121	923.8	45.25
1051.8819	3228.83	924.3	46.8
1051.9834	3229.7473	926	47.8
1052.0849	3230.6639	926.1	46.45
1052.1863	3231.5799	925.6	47.65
1052.2876	3232.4954	925.95	47.25
1052.3889	3233.4102	925.6	48.25
1052.4902	3234.3244	924.2	44.8
1052.5914	3235.238	923.6	44.75
1052.6926	3236.151	945.8	42.9
1052.7937	3237.0634	922.05	44.5
1052.8948	3237.9752	924.2	45.35
1052.9958	3238.8864	922.3	43.7
1053.0968	3239.797	921.3	42.5
1053.1977	3240.7069	922.85	43.85
1053.2986	3241.6163	921.95	40.8
1053.3994	3242.5251	921.55	43.75
1053.5002	3243.4332	921.1	46.05
1053.6009	3244.3408	919.65	39.85
1053.7016	3245.2477	918.15	39
1053.8022	3246.154	922.5	41.3
1053.9028	3247.0598	921.45	43.05
1054.0034	3247.9649	918.8	39.65
1054.1039	3248.8694	920.3	40.95
1054.2043	3249.7733	919.55	40.8
1054.3047	3250.6766	919.7	39.35
1054.4051	3251.5793	922.4	44.25
1054.5054	3252.4814	915.9	38.15
1054.6056	3253.3829	917.7	39.2
1054.7058	3254.2838	916.15	37.8
1054.806	3255.1841	917.55	40.5
1054.9061	3256.0838	918.35	40.3
1055.0061	3256.9829	915.45	38.15
1055.1062	3257.8814	918.7	37.85
1055.2061	3258.7792	918.45	37.55
1055.306	3259.6765	916.8	36.45
1055.4059	3260.5731	916.75	37.55
1055.5057	3261.4692	913.15	35.6
1055.6055	3262.3647	914.45	35.15
1055.7052	3263.2595	916.1	36.65
1055.8049	3264.1538	913.75	35.4
1055.9045	3265.0474	914.85	36.1
1056.0041	3265.9404	910.5	31.25
1056.1036	3266.8329	910.95	34.25
1056.2031	3267.7247	918.45	30.65
1056.3025	3268.616	909.6	33.7
1056.4019	3269.5066	910.55	32.45
1056.5013	3270.3966	910.55	31.95
1056.6005	3271.286	907.4	29.3
