Software Version:	3.9.2.0
Unit SN:	10000200
Spectrometer SN:	6960
Date:	3/6/2024 10:42:54 AM
Data Line Index:	25
Spectral Points:	2048
Integration time (ms):	125
Averages:	20
Delay (ms):	30
Sequence Number:	1
Processing:	dark subtract
Laser Power (mW):	305
Laser Current (mA):	822
Laser Diode Temp (C):	25.1
Laser Case Temp (C):	27.1
System Temp (C):	26.9
Spectrometer Temp (C):	24.3
CCD Temp (C):	0.002
Secondary Temp (C):	20.011
Heatsink Temp (C):	22.72
CCDPCB Temp (C):	36.451
SecondaryPCB Temp (C):	33.728

Wavelength	RamanShift	Raw Counts	Dark Subtracted
787.061	30.1047	1127.65	715
787.2016	32.3739	1163.7	752.65
787.3422	34.6426	1208.95	797.1
787.4828	36.9109	1258.95	843.9
787.6235	39.1787	1315.45	899.35
787.7642	41.4461	1376.8	955.1
787.9049	43.7131	1443.4	1017.35
788.0456	45.9796	1504.5	1076.6
788.1863	48.2456	1571.55	1137.15
788.3271	50.5112	1641.05	1201.8
788.4679	52.7764	1713.5	1273.4
788.6087	55.0411	1791.85	1348.3
788.7496	57.3054	1883.9	1437.5
788.8904	59.5692	1962.75	1510
789.0313	61.8326	2066.35	1612.25
789.1722	64.0955	2179.1	1721.35
789.3132	66.3579	2314.35	1852.15
789.4541	68.6199	2459.75	1993.9
789.5951	70.8815	2716.4	2247.3
789.7361	73.1426	3220.55	2746.25
789.8771	75.4032	4551.95	4071.9
790.0181	77.6634	7959.75	7475.1
790.1592	79.9231	16779	16290.05
790.3003	82.1824	54969.6	54469.8
790.4414	84.4412	65535	65017.85
790.5825	86.6995	65535	64990.9
790.7237	88.9574	65535	64967.7
790.8648	91.2148	65535	64950
791.006	93.4717	65535	64934.75
791.1472	95.7282	65535	64929.4
791.2885	97.9842	65535	64928.05
791.4297	100.2398	65535	64923.85
791.571	102.4949	65535	64922.4
791.7123	104.7495	65535	64913.25
791.8536	107.0036	65535	64915.9
791.9949	109.2573	65535	64916.45
792.1363	111.5105	65535	64915.05
792.2777	113.7632	65535	64912.6
792.4191	116.0154	65535	64903.15
792.5605	118.2672	65535	64908.4
792.7019	120.5185	65535	64911.2
792.8434	122.7693	65535	64906.35
792.9849	125.0197	65535	64899.75
793.1264	127.2696	65535	64899.4
793.2679	129.519	65535	64893.3
793.4094	131.7679	65535	64893.9
793.551	134.0163	65535	64887.75
793.6926	136.2642	65535	64887.35
793.8342	138.5117	65535	64876.75
793.9758	140.7587	65535	64882.15
794.1175	143.0052	65535	64879.9
794.2591	145.2512	65535	64880.2
794.4008	147.4967	65535	64876.1
794.5425	149.7417	65535	64874
794.6842	151.9863	65535	64871.3
794.826	154.2304	65535	64869.6
794.9677	156.4739	65535	64863.85
795.1095	158.717	65535	64864.3
795.2513	160.9596	65535	64857.95
795.3931	163.2017	65535	64859.7
795.535	165.4433	65535	64857.15
795.6768	167.6844	65535	64853.6
795.8187	169.925	65535	64852.2
795.9606	172.1651	65535	64845.65
796.1025	174.4047	65535	64843.3
796.2445	176.6439	65535	64842.1
796.3864	178.8825	65535	64838.95
796.5284	181.1206	65535	64835.4
796.6704	183.3582	65535	64829.95
796.8124	185.5954	65535	64829.95
796.9544	187.832	65535	64825.5
797.0965	190.0681	65535	64823.85
797.2386	192.3037	65535	64821.3
797.3806	194.5388	65535	64819.65
797.5228	196.7734	65535	64814.35
797.6649	199.0075	65535	64811.75
797.807	201.2411	65535	64810.55
797.9492	203.4742	65535	64815.8
798.0914	205.7068	65535	64810
798.2336	207.9389	65535	64803.95
798.3758	210.1704	65535	64803.25
798.518	212.4015	65535	64805.15
798.6603	214.632	65535	64811.6
798.8025	216.862	65535	64822.65
798.9448	219.0915	65535	64823.45
799.0871	221.3205	65535	64821.7
799.2294	223.549	65535	64825.75
799.3718	225.777	65535	64826.05
799.5141	228.0044	65535	64823.35
799.6565	230.2314	65535	64825.1
799.7989	232.4578	65535	64819.85
799.9413	234.6837	65535	64812.1
800.0837	236.909	65535	64808.2
800.2262	239.1339	65535	64785.2
800.3687	241.3582	65535	64798.65
800.5111	243.582	65535	64766.25
800.6536	245.8053	65535	64780.25
800.7961	248.0281	65535	64788.9
800.9387	250.2503	65535	64779.8
801.0812	252.472	65535	64775.6
801.2238	254.6932	65535	64776.05
801.3664	256.9139	65535	64777.8
801.509	259.134	65535	64772.65
801.6516	261.3536	65535	64776.6
801.7942	263.5727	65535	64771.1
801.9369	265.7912	65535	64774.95
802.0795	268.0092	65535	64769.55
802.2222	270.2267	65535	64767.9
802.3649	272.4436	65535	64770.35
802.5076	274.6601	65535	64761.8
802.6504	276.8759	65535	64769
802.7931	279.0913	65535	64764.5
802.9359	281.3061	65535	64764.5
803.0787	283.5204	65535	64758.4
803.2215	285.7341	65535	64757.4
803.3643	287.9473	65535	64742.35
803.5071	290.16	65535	64751.55
803.6499	292.3721	65535	64757.95
803.7928	294.5837	65535	64756.15
803.9357	296.7947	65535	64760.5
804.0786	299.0052	65535	64757.15
804.2215	301.2152	65535	64757.95
804.3644	303.4246	65535	64758
804.5074	305.6334	65535	64757.65
804.6503	307.8418	65535	64751.05
804.7933	310.0495	65535	64752.6
804.9363	312.2568	65535	64754.25
805.0793	314.4635	65535	64757.25
805.2223	316.6696	65535	64752.2
805.3653	318.8752	65535	64739.6
805.5084	321.0802	65535	64746.85
805.6514	323.2847	65535	64747.75
805.7945	325.4887	65535	64745.7
805.9376	327.692	65535	64742.05
806.0807	329.8949	65535	64740.25
806.2238	332.0972	65535	64740.75
806.367	334.2989	65535	64736.2
806.5101	336.5001	65535	64736.8
806.6533	338.7007	65535	64736
806.7965	340.9008	65535	64732.5
806.9397	343.1003	65535	64736.5
807.0829	345.2992	65535	64734.05
807.2261	347.4976	65535	64732.7
807.3693	349.6955	65535	64726.35
807.5126	351.8927	65535	64726.65
807.6559	354.0895	65535	64715.7
807.7991	356.2856	65535	64726.45
807.9424	358.4812	65535	64724.7
808.0857	360.6763	65535	64726.2
808.2291	362.8707	65535	64723.7
808.3724	365.0646	65535	64718.1
808.5158	367.258	65535	64719.65
808.6591	369.4508	65535	64716.65
808.8025	371.643	65535	64712.85
808.9459	373.8346	65535	64713.3
809.0893	376.0257	65535	64708.7
809.2327	378.2162	65535	64709.65
809.3762	380.4062	65535	64707.85
809.5196	382.5956	65535	64707.35
809.6631	384.7844	65535	64710.55
809.8066	386.9726	65535	64711.55
809.9501	389.1603	65535	64716.25
810.0936	391.3474	65535	64674.85
810.2371	393.5339	65535	64712.4
810.3806	395.7199	65535	64717.3
810.5241	397.9052	65535	64720
810.6677	400.09	65535	64720.4
810.8113	402.2743	65535	64717.9
810.9548	404.4579	65535	64717.05
811.0984	406.641	65535	64715.1
811.2421	408.8235	65535	64717.45
811.3857	411.0054	65535	64715.45
811.5293	413.1868	65535	64712.95
811.673	415.3675	65535	64708.15
811.8166	417.5477	65535	64709.6
811.9603	419.7273	65535	64706.65
812.104	421.9064	65535	64697
812.2477	424.0848	65535	64698.55
812.3914	426.2627	65535	64698.8
812.5351	428.4399	65535	64701.65
812.6788	430.6166	65535	64697.05
812.8226	432.7928	65535	64691.5
812.9663	434.9683	65535	64695.95
813.1101	437.1432	65535	64691.85
813.2539	439.3176	65535	64694.9
813.3977	441.4914	65535	64691.85
813.5415	443.6645	65535	64688.75
813.6853	445.8371	65535	64692.9
813.8291	448.0091	65535	64692.9
813.973	450.1806	65535	64694.7
814.1168	452.3514	65535	64694.5
814.2607	454.5216	65535	64683.5
814.4046	456.6913	65535	64690
814.5485	458.8603	65535	64689.75
814.6924	461.0288	65535	64690.05
814.8363	463.1967	65535	64689.1
814.9802	465.3639	65535	64689.4
815.1241	467.5306	65535	64685.35
815.2681	469.6967	65535	64689.7
815.412	471.8622	65535	64689.15
815.556	474.0271	65535	64689.25
815.7	476.1914	65535	64685.95
815.844	478.3551	65535	64686.1
815.988	480.5182	65535	64688.75
816.132	482.6807	65535	64685.85
816.276	484.8426	65535	64685
816.4201	487.0039	65535	64688.45
816.5641	489.1647	65535	64681.2
816.7082	491.3248	65535	64683.55
816.8522	493.4843	65535	64683.3
816.9963	495.6432	65535	64681.55
817.1404	497.8015	65535	64680.55
817.2845	499.9592	65535	64681.85
817.4286	502.1163	65535	64681.3
817.5727	504.2728	65535	64680.05
817.7168	506.4287	65535	64681.85
817.861	508.5839	65535	64682.75
818.0051	510.7386	65535	64680.55
818.1493	512.8927	65535	64678.35
818.2935	515.0461	65535	64676.75
818.4377	517.199	65535	64678.9
818.5818	519.3512	65535	64678.55
818.726	521.5029	65535	64672.55
818.8703	523.6539	65535	64676.85
819.0145	525.8043	65535	64674.45
819.1587	527.9541	65535	64671.65
819.303	530.1033	65535	64673.05
819.4472	532.2519	65535	64671.45
819.5915	534.3999	65535	64672.3
819.7357	536.5472	65535	64674.4
819.88	538.694	65535	64675.15
820.0243	540.8401	65535	64670.65
820.1686	542.9856	65535	64667.7
820.3129	545.1305	65535	64665.75
820.4572	547.2748	65535	64666.8
820.6016	549.4185	65535	64665.5
820.7459	551.5615	65535	64664.8
820.8902	553.704	65535	64664.45
821.0346	555.8458	65535	64669.55
821.1789	557.987	65535	64666.7
821.3233	560.1276	65535	64669.95
821.4677	562.2675	65535	64669.45
821.6121	564.4069	65535	64670.85
821.7565	566.5456	65535	64669.4
821.9009	568.6837	65535	64671.4
822.0453	570.8212	65535	64669.75
822.1897	572.958	65535	64665.95
822.3342	575.0942	65535	64670.5
822.4786	577.2299	65535	64671.8
822.6231	579.3648	65535	64671.1
822.7675	581.4992	65535	64671
822.912	583.6329	65535	64670.85
823.0565	585.766	65535	64668.9
823.201	587.8985	65535	64669.25
823.3454	590.0304	65535	64647.9
823.4899	592.1616	65535	64661.4
823.6345	594.2922	65535	64665.2
823.779	596.4222	65535	64664.05
823.9235	598.5515	65535	64662.45
824.068	600.6802	65535	64660.45
824.2126	602.8083	65535	64660.35
824.3571	604.9358	65535	64664
824.5017	607.0626	65535	64661.15
824.6462	609.1888	65535	64662.3
824.7908	611.3144	65535	64658.2
824.9354	613.4393	65535	64661.45
825.08	615.5636	65535	64660.4
825.2246	617.6873	65535	64661.15
825.3692	619.8103	65535	64660.4
825.5138	621.9327	65535	64658.2
825.6584	624.0544	65535	64659
825.803	626.1756	65535	64661.9
825.9477	628.2961	65535	64658.6
826.0923	630.4159	65535	64658.35
826.237	632.5351	65535	64659.55
826.3816	634.6537	65535	64656.95
826.5263	636.7716	65535	64655.7
826.6709	638.8889	65535	64654.7
826.8156	641.0056	65535	64656.1
826.9603	643.1216	65535	64653.1
827.105	645.237	65535	64650.5
827.2497	647.3518	65535	64655.3
827.3944	649.4659	65535	64657.2
827.5391	651.5793	65535	64655.05
827.6838	653.6922	65535	64657.4
827.8285	655.8043	65535	64655.5
827.9733	657.9159	65535	64654.7
828.118	660.0268	65535	64655.7
828.2627	662.137	65535	64652.25
828.4075	664.2466	65535	64652.95
828.5522	666.3556	65535	64651.55
828.697	668.4639	65535	64650.1
828.8418	670.5716	65535	64655.2
828.9865	672.6786	65535	64654.25
829.1313	674.785	65535	64651.8
829.2761	676.8907	65535	64650.65
829.4209	678.9958	65535	64652.7
829.5657	681.1002	65535	64650.75
829.7105	683.204	65535	64647.4
829.8553	685.3072	65535	64648.8
830.0001	687.4097	65535	64650.2
830.1449	689.5115	65535	64647.15
830.2898	691.6127	65535	64653.4
830.4346	693.7132	65535	64648.85
830.5794	695.8131	65535	64640.1
830.7243	697.9123	65535	64646.3
830.8691	700.0109	65535	64646.2
831.014	702.1089	65535	64650
831.1588	704.2061	65535	64648.35
831.3037	706.3028	65535	64648.05
831.4486	708.3987	65535	64645.6
831.5935	710.4941	65535	64649
831.7383	712.5887	65535	64645.15
831.8832	714.6827	65535	64645.55
832.0281	716.7761	65535	64647.5
832.173	718.8688	65535	64645.2
832.3179	720.9608	65535	64643.3
832.4628	723.0522	65535	64641.15
832.6077	725.1429	65535	64645.45
832.7527	727.233	65535	64646.9
832.8976	729.3224	65535	64645.55
833.0425	731.4112	65535	64644.55
833.1874	733.4993	65535	64643.15
833.3324	735.5867	65535	64645.3
833.4773	737.6735	65535	64644.55
833.6222	739.7596	65535	64644.15
833.7672	741.845	65535	64642.5
833.9122	743.9298	65535	64639.6
834.0571	746.014	65535	64644.3
834.2021	748.0974	65535	64640.65
834.347	750.1802	65535	64642.75
834.492	752.2624	65535	64641.3
834.637	754.3439	65535	64644.5
834.782	756.4247	65535	64634.5
834.9269	758.5048	65535	64643.75
835.0719	760.5843	65535	64642.65
835.2169	762.6631	65535	64643.85
835.3619	764.7413	65535	64644.3
835.5069	766.8188	65535	64641.25
835.6519	768.8956	65535	64642.4
835.7969	770.9718	65535	64643.5
835.9419	773.0473	65535	64642.7
836.0869	775.1221	65535	64642.2
836.232	777.1962	65535	64643
836.377	779.2697	65535	64638.45
836.522	781.3426	65535	64623.6
836.667	783.4147	65535	64639.75
836.8121	785.4862	65535	64642.8
836.9571	787.557	65535	64638.6
837.1021	789.6271	65535	64641.2
837.2472	791.6966	65535	64640.85
837.3922	793.7654	65535	64638.85
837.5373	795.8335	65535	64641.6
837.6823	797.901	65535	64643.75
837.8274	799.9678	65535	64637.55
837.9724	802.0339	65535	64642.7
838.1175	804.0993	65535	64631.3
838.2626	806.1641	65535	64642.3
838.4076	808.2282	65535	64642.35
838.5527	810.2916	65535	64636.05
838.6978	812.3544	65535	64642.2
838.8428	814.4164	65535	64642.35
838.9879	816.4778	65535	64639.25
839.133	818.5385	65535	64639.1
839.2781	820.5986	65535	64641.1
839.4232	822.658	65535	64639.9
839.5682	824.7166	65535	64641.6
839.7133	826.7747	65535	64640.45
839.8584	828.832	65535	64637.95
840.0035	830.8886	65535	64637.4
840.1486	832.9446	65535	64640.45
840.2937	834.9999	65535	64639.55
840.4388	837.0545	65535	64638.25
840.5839	839.1085	65535	64638.6
840.729	841.1618	65535	64633.6
840.8741	843.2143	65535	64635.7
841.0192	845.2662	65535	64636.75
841.1643	847.3175	65535	64638.5
841.3095	849.368	65535	64637.75
841.4546	851.4179	65535	64639.1
841.5997	853.467	65535	64640.95
841.7448	855.5155	65535	64638.5
841.8899	857.5633	65535	64638.6
842.0351	859.6105	65535	64638.2
842.1802	861.6569	65535	64638.05
842.3253	863.7027	65535	64637
842.4704	865.7478	65535	64637.2
842.6156	867.7922	65535	64633.45
842.7607	869.8359	65535	64635.65
842.9058	871.8789	65535	64636.2
843.0509	873.9212	65535	64606.7
843.1961	875.9629	65535	64638.35
843.3412	878.0039	65535	64634.65
843.4863	880.0441	65535	64636.8
843.6315	882.0837	65535	64635.45
843.7766	884.1226	65535	64637.1
843.9218	886.1609	65535	64637.2
844.0669	888.1984	65535	64636.3
844.212	890.2352	65535	64638.75
844.3572	892.2714	65535	64630.5
844.5023	894.3069	65535	64635.15
844.6475	896.3416	65535	64634.85
844.7926	898.3757	65535	64636.15
844.9377	900.4091	65535	64635.65
845.0829	902.4418	65535	64631.55
845.228	904.4739	65535	64634.7
845.3732	906.5052	65535	64634.2
845.5183	908.5358	65535	64635.85
845.6635	910.5658	65535	64633.05
845.8086	912.595	65535	64636.65
845.9538	914.6236	65535	64636.05
846.0989	916.6515	65535	64635.1
846.2441	918.6786	65535	64635
846.3892	920.7051	65535	64632
846.5344	922.7309	65535	64634.15
846.6795	924.756	65535	64637.25
846.8246	926.7804	65535	64631.5
846.9698	928.8041	65535	64632.15
847.1149	930.8272	65535	64635.2
847.2601	932.8495	65535	64631.95
847.4052	934.8711	65535	64632.5
847.5504	936.892	65535	64633.35
847.6955	938.9123	65535	64634.65
847.8407	940.9318	65535	64637.2
847.9858	942.9506	65535	64634.75
848.131	944.9688	65535	64635.15
848.2761	946.9862	65535	64634.5
848.4213	949.003	65535	64633.85
848.5664	951.019	65535	64631.8
848.7115	953.0344	65535	64632.95
848.8567	955.0491	65535	64632.05
849.0018	957.063	65535	64633.25
849.147	959.0763	65535	64634.3
849.2921	961.0888	65535	64632.4
849.4373	963.1007	65535	64632.65
849.5824	965.1119	65535	64636.05
849.7275	967.1223	65535	64635.55
849.8727	969.1321	65535	64633.85
850.0178	971.1412	65535	64635.6
850.1629	973.1495	65535	64633.65
850.3081	975.1572	65535	64588.2
850.4532	977.1641	65535	64635.1
850.5983	979.1704	65535	64632.5
850.7435	981.1759	65535	64629.85
850.8886	983.1808	65535	64631.5
851.0337	985.1849	65535	64620.8
851.1788	987.1884	65535	64632.05
851.324	989.1911	65535	64630.8
851.4691	991.1932	65535	64633.25
851.6142	993.1945	65535	64636.5
851.7593	995.1951	65535	64633.5
851.9045	997.1951	65535	64627.35
852.0496	999.1943	65535	64634.5
852.1947	1001.1928	65535	64631.85
852.3398	1003.1906	65535	64633.85
852.4849	1005.1877	65535	64631.8
852.63	1007.1841	65535	64637.65
852.7751	1009.1798	65535	64633.1
852.9202	1011.1748	65535	64635.6
853.0653	1013.1691	65535	64634.2
853.2104	1015.1627	65535	64631.85
853.3555	1017.1556	65535	64634.65
853.5006	1019.1477	65535	64629.8
853.6457	1021.1392	65535	64635.6
853.7908	1023.1299	65535	64636.55
853.9359	1025.12	65535	64635.15
854.081	1027.1093	65535	64637.65
854.2261	1029.0979	65535	64637.85
854.3712	1031.0859	65535	64637.25
854.5163	1033.0731	65535	64632.8
854.6613	1035.0596	65535	64632.75
854.8064	1037.0454	65535	64635
854.9515	1039.0304	65535	64635.25
855.0965	1041.0148	65535	64633.95
855.2416	1042.9985	65535	64632.9
855.3867	1044.9814	65535	64635.45
855.5317	1046.9636	65535	64630.65
855.6768	1048.9452	65535	64632.75
855.8219	1050.926	65535	64633.95
855.9669	1052.9061	65535	64634.9
856.112	1054.8855	65535	64632.85
856.257	1056.8642	65535	64631.55
856.4021	1058.8421	65535	64628.8
856.5471	1060.8194	65535	64632.65
856.6921	1062.7959	65535	64634.35
856.8372	1064.7717	65535	64632.6
856.9822	1066.7469	65535	64632.55
857.1272	1068.7213	65535	64629.6
857.2723	1070.695	65535	64632.6
857.4173	1072.6679	65535	64634.7
857.5623	1074.6402	65535	64634.2
857.7073	1076.6117	65535	64629.85
857.8523	1078.5826	65535	64635.1
857.9973	1080.5527	65535	64628.15
858.1423	1082.5221	65535	64632.8
858.2873	1084.4908	65535	64632.55
858.4323	1086.4587	65535	64630.8
858.5773	1088.426	65535	64632.1
858.7223	1090.3925	65535	64629.15
858.8673	1092.3584	65535	64633.85
859.0123	1094.3235	65535	64634.75
859.1573	1096.2879	65535	64634.55
859.3022	1098.2515	65535	64635.9
859.4472	1100.2145	65535	64631.45
859.5922	1102.1767	65535	64632.6
859.7371	1104.1382	65535	64634.9
859.8821	1106.099	65535	64631.25
860.027	1108.0591	65535	64634.65
860.172	1110.0185	65535	64633.95
860.3169	1111.9771	65535	64634.55
860.4619	1113.9351	65535	64632.95
860.6068	1115.8923	65535	64633.3
860.7517	1117.8488	65535	64631.05
860.8967	1119.8045	65535	64632.15
861.0416	1121.7596	65535	64633.5
861.1865	1123.7139	65535	64636
861.3314	1125.6675	65535	64635.65
861.4763	1127.6204	65535	64632
861.6212	1129.5726	65535	64631.75
861.7661	1131.524	65535	64634.35
861.911	1133.4748	65535	64633.8
862.0559	1135.4248	65535	64630.95
862.2008	1137.3741	65535	64633.55
862.3457	1139.3226	65535	64634.1
862.4905	1141.2705	65535	64632.55
862.6354	1143.2176	65535	64628.8
862.7803	1145.164	65535	64632.15
862.9251	1147.1097	65535	64632.7
863.07	1149.0546	65535	64633.05
863.2148	1150.9989	65535	64633.55
863.3597	1152.9424	65535	64633.3
863.5045	1154.8852	65535	64633.3
863.6493	1156.8272	65535	64633.4
863.7942	1158.7686	65535	64624.5
863.939	1160.7092	65535	64631.95
864.0838	1162.6491	65535	64631.15
864.2286	1164.5883	65535	64633.15
864.3734	1166.5267	65535	64633.15
864.5182	1168.4644	65535	64633.1
864.663	1170.4014	65535	64629
864.8078	1172.3377	65535	64632.3
864.9526	1174.2732	65535	64633.65
865.0974	1176.2081	65535	64634
865.2421	1178.1421	65535	64632.1
865.3869	1180.0755	65535	64634.75
865.5317	1182.0082	65535	64634.45
865.6764	1183.9401	65535	64630.75
865.8212	1185.8713	65535	64637.2
865.9659	1187.8017	65535	64634.25
866.1106	1189.7315	65535	64636.25
866.2554	1191.6605	65535	64609.2
866.4001	1193.5888	65535	64635.15
866.5448	1195.5163	65535	64635.2
866.6895	1197.4432	65535	64635.1
866.8342	1199.3693	65535	64636.55
866.9789	1201.2947	65535	64633.55
867.1236	1203.2193	65535	64630.15
867.2683	1205.1432	65535	64633.15
867.413	1207.0664	65535	64633.25
867.5576	1208.9889	65535	64631.6
867.7023	1210.9106	65535	64633.45
867.847	1212.8316	65535	64633.8
867.9916	1214.7519	65535	64624.35
868.1363	1216.6715	65535	64634.65
868.2809	1218.5903	65535	64631.8
868.4255	1220.5084	65535	64631.6
868.5701	1222.4257	65535	64633.7
868.7148	1224.3424	65535	64633.6
868.8594	1226.2583	65535	64628
869.004	1228.1735	65535	64632.35
869.1486	1230.0879	65535	64633.9
869.2932	1232.0016	65535	64633.35
869.4377	1233.9146	65535	64630.8
869.5823	1235.8269	65535	64633.8
869.7269	1237.7384	65535	64634.25
869.8715	1239.6492	65535	64633.35
870.016	1241.5592	65535	64632.45
870.1606	1243.4686	65535	64631.75
870.3051	1245.3772	65535	64635.8
870.4496	1247.285	65535	64631.45
870.5941	1249.1922	65535	64633.2
870.7387	1251.0986	65535	64637.15
870.8832	1253.0042	65535	64634.85
871.0277	1254.9092	65535	64635.15
871.1722	1256.8134	65535	64636.45
871.3167	1258.7169	65535	64634.4
871.4611	1260.6196	65535	64634.05
871.6056	1262.5216	65535	64632.1
871.7501	1264.4229	65535	64635.6
871.8945	1266.3234	65535	64634.05
872.039	1268.2232	65535	64633.7
872.1834	1270.1223	65535	64632.65
872.3278	1272.0207	65535	64632.75
872.4723	1273.9183	65535	64628.8
872.6167	1275.8151	65535	64634.3
872.7611	1277.7113	65535	64632.9
872.9055	1279.6067	65535	64636.7
873.0499	1281.5014	65535	64630.8
873.1943	1283.3953	65535	64632.5
873.3386	1285.2885	65535	64636.45
873.483	1287.181	65535	64632.45
873.6274	1289.0727	65535	64633.1
873.7717	1290.9637	65535	64632.05
873.9161	1292.854	65535	64636.05
874.0604	1294.7435	65535	64634.45
874.2047	1296.6323	65535	64633
874.349	1298.5204	65535	64630.55
874.4933	1300.4077	65535	64632.25
874.6376	1302.2943	65535	64633.7
874.7819	1304.1802	65535	64637.5
874.9262	1306.0653	65535	64631.7
875.0705	1307.9497	65535	64635.1
875.2147	1309.8333	65535	64634.45
875.359	1311.7162	65535	64632.1
875.5032	1313.5984	65535	64630.65
875.6475	1315.4798	65535	64613.4
875.7917	1317.3605	65535	64619.3
875.9359	1319.2405	65535	64633.85
876.0801	1321.1197	65535	64631.8
876.2243	1322.9982	65535	64628.55
876.3685	1324.876	65535	64633.7
876.5127	1326.753	65535	64632.7
876.6569	1328.6293	65535	64634.3
876.801	1330.5048	65535	64631.8
876.9452	1332.3796	65535	64636.25
877.0893	1334.2537	65535	64609
877.2335	1336.127	65535	64632.65
877.3776	1337.9996	65535	64633.05
877.5217	1339.8714	65535	64631.65
877.6658	1341.7426	65535	64589.8
877.8099	1343.6129	65535	64632.4
877.954	1345.4826	65535	64634.25
878.0981	1347.3515	65535	64630.25
878.2422	1349.2196	65535	64632.25
878.3862	1351.087	65535	64636.25
878.5303	1352.9537	65535	64634.4
878.6743	1354.8197	65535	64633.75
878.8184	1356.6849	65535	64633.65
878.9624	1358.5493	65535	64632.6
879.1064	1360.4131	65535	64635.55
879.2504	1362.276	65535	64633.9
879.3944	1364.1383	65535	64634.75
879.5384	1365.9998	65535	64629.4
879.6823	1367.8606	65535	64633.35
879.8263	1369.7206	65535	64633.4
879.9702	1371.5799	65535	64632.05
880.1142	1373.4384	65535	64633.2
880.2581	1375.2962	65535	64634.6
880.402	1377.1533	65535	64634.9
880.5459	1379.0096	65535	64634.05
880.6898	1380.8652	65535	64632.9
880.8337	1382.7201	65535	64634.95
880.9776	1384.5742	65535	64633
881.1215	1386.4275	65535	64632.55
881.2653	1388.2802	65535	64635.25
881.4092	1390.132	65535	64634.5
881.553	1391.9832	65535	64633.6
881.6968	1393.8336	65535	64633.35
881.8406	1395.6832	65535	64633.1
881.9844	1397.5322	65535	64634.15
882.1282	1399.3803	65535	64631.3
882.272	1401.2278	65535	64634.4
882.4158	1403.0745	65535	64633.9
882.5595	1404.9204	65535	64635.75
882.7033	1406.7656	65535	64636.05
882.847	1408.6101	65535	64633.45
882.9908	1410.4538	65535	64633.3
883.1345	1412.2968	65535	64635.15
883.2782	1414.139	65535	64634.75
883.4219	1415.9805	65535	64634.2
883.5656	1417.8213	65535	64626.05
883.7092	1419.6613	65535	64633.45
883.8529	1421.5006	65535	64631.45
883.9965	1423.3391	65535	64615.6
884.1402	1425.1769	65535	64633.3
884.2838	1427.0139	65535	64632.45
884.4274	1428.8502	65535	64634.6
884.571	1430.6858	65535	64632.95
884.7146	1432.5206	65535	64634.9
884.8582	1434.3547	65535	64635.5
885.0018	1436.188	65535	64634.6
885.1453	1438.0206	65535	64631.2
885.2889	1439.8524	65535	64634.75
885.4324	1441.6835	65535	64630.3
885.5759	1443.5139	65535	64630.1
885.7194	1445.3435	65535	64632.8
885.8629	1447.1724	65535	64633.85
886.0064	1449.0005	65535	64637.15
886.1499	1450.8279	65535	64632.75
886.2933	1452.6545	65535	64635.55
886.4368	1454.4804	65535	64636.35
886.5802	1456.3056	65535	64628.25
886.7237	1458.13	65535	64635.7
886.8671	1459.9536	65535	64636.3
887.0105	1461.7766	65535	64636.05
887.1539	1463.5987	65535	64633.2
887.2972	1465.4202	65535	64632.7
887.4406	1467.2409	65535	64633.7
887.584	1469.0608	65535	64635.1
887.7273	1470.88	65535	64634.9
887.8706	1472.6984	65535	64634.55
888.0139	1474.5161	65535	64633.05
888.1572	1476.3331	65535	64636.5
888.3005	1478.1493	65535	64633.55
888.4438	1479.9648	65535	64636.55
888.5871	1481.7795	65535	64633.7
888.7303	1483.5935	65535	64635.75
888.8736	1485.4067	65535	64634.25
889.0168	1487.2192	65535	64632.6
889.16	1489.031	65535	64634
889.3032	1490.842	65535	64636
889.4464	1492.6522	65535	64635.65
889.5896	1494.4618	65535	64634.35
889.7327	1496.2705	65535	64636.75
889.8759	1498.0785	65535	64634.65
890.019	1499.8858	65535	64635.35
890.1622	1501.6924	65535	64636.55
890.3053	1503.4981	65535	64635.6
890.4484	1505.3032	65535	64632.3
890.5914	1507.1075	65535	64637.2
890.7345	1508.911	65535	64635.9
890.8776	1510.7138	65535	64632.35
891.0206	1512.5159	65535	64633.4
891.1637	1514.3172	65535	64636
891.3067	1516.1178	65535	64635.55
891.4497	1517.9176	65535	64631.95
891.5927	1519.7166	65535	64635.25
891.7357	1521.515	65535	64630.3
891.8786	1523.3126	65535	64635.15
892.0216	1525.1094	65535	64632.2
892.1645	1526.9055	65535	64637.4
892.3074	1528.7008	65535	64635.1
892.4503	1530.4954	65535	64629.75
892.5932	1532.2893	65535	64636.2
892.7361	1534.0824	65535	64633.4
892.879	1535.8747	65535	64636.35
893.0218	1537.6663	65535	64636.05
893.1647	1539.4572	65535	64634.25
893.3075	1541.2473	65535	64635.75
893.4503	1543.0367	65535	64637.05
893.5931	1544.8253	65535	64634.75
893.7359	1546.6132	65535	64633.9
893.8787	1548.4003	65535	64628.7
894.0214	1550.1867	65535	64627.35
894.1642	1551.9723	65535	64631.7
894.3069	1553.7572	65535	64635.65
894.4496	1555.5414	65535	64636.5
894.5923	1557.3247	65535	64637.25
894.735	1559.1074	65535	64638.1
894.8777	1560.8893	65535	64637.05
895.0204	1562.6705	65535	64635.9
895.163	1564.4509	65535	64638.15
895.3056	1566.2305	65535	64639.5
895.4482	1568.0094	65535	64637.3
895.5908	1569.7876	65535	64637.15
895.7334	1571.565	65535	64639.15
895.876	1573.3417	65535	64637.55
896.0186	1575.1176	65535	64637.45
896.1611	1576.8928	65535	64636.85
896.3036	1578.6672	65535	64641.05
896.4461	1580.4409	65535	64640.2
896.5886	1582.2138	65535	64636.2
896.7311	1583.986	65535	64637.65
896.8736	1585.7575	65532.9	64635.65
897.0161	1587.5282	65535	64638.75
897.1585	1589.2981	65535	64640.85
897.3009	1591.0673	65523	64623.7
897.4433	1592.8358	65500.2	64604.2
897.5857	1594.6035	65521.6	64624.05
897.7281	1596.3704	65522.5	64625.35
897.8705	1598.1366	65463.95	64568.55
898.0128	1599.9021	65398.3	64502.3
898.1551	1601.6668	65501.5	64600.3
898.2975	1603.4308	65461.9	64566.25
898.4398	1605.194	65463.05	64563.2
898.5821	1606.9564	65240.4	64344.75
898.7243	1608.7182	65378.45	64480.55
898.8666	1610.4791	65227.35	64333.05
899.0088	1612.2394	65391.75	64497.4
899.1511	1613.9988	65143.55	64249.15
899.2933	1615.7576	65404.95	64509.9
899.4355	1617.5156	65400.9	64499.85
899.5776	1619.2728	65501.2	64606.25
899.7198	1621.0293	65252.75	64357.35
899.862	1622.785	65282	64383.25
900.0041	1624.54	65397.55	64500.75
900.1462	1626.2942	65168.35	64272.35
900.2883	1628.0477	64740.15	63842.85
900.4304	1629.8005	64078.25	63178.95
900.5725	1631.5525	64690.85	63794.1
900.7145	1633.3037	63724.8	62827.45
900.8566	1635.0542	63588.4	62691.3
900.9986	1636.804	64136.55	63242.7
901.1406	1638.553	63022.85	62047.7
901.2826	1640.3013	63393.9	62497.35
901.4245	1642.0488	62637.4	61742.15
901.5665	1643.7955	63221.8	62329.35
901.7085	1645.5416	62636.35	61741.6
901.8504	1647.2868	62121.7	61227.85
901.9923	1649.0313	63055	62159.9
902.1342	1650.7751	62515.15	61615.75
902.2761	1652.5181	62117.5	61222.5
902.4179	1654.2604	62206	61309.7
902.5598	1656.0019	62582.15	61689.65
902.7016	1657.7427	62347.3	61451.5
902.8434	1659.4828	63004.6	62110.4
902.9852	1661.222	62397.5	61501.95
903.127	1662.9606	63135.35	62243.3
903.2687	1664.6984	62129.45	61233.8
903.4105	1666.4354	62437.05	61541.15
903.5522	1668.1717	61294.8	60398.8
903.6939	1669.9072	60378.65	59484.6
903.8356	1671.642	60223.75	59326.45
903.9773	1673.3761	59898.6	59002.45
904.119	1675.1094	59602.45	58708
904.2606	1676.8419	58906.85	58012.3
904.4022	1678.5737	58881.5	57986.15
904.5439	1680.3048	58567.45	57671.65
904.6855	1682.0351	58191.05	57296.45
904.827	1683.7646	57847.65	56951.05
904.9686	1685.4934	58080.9	57187.1
905.1101	1687.2215	56870.05	55973.95
905.2517	1688.9488	57644.9	56750.45
905.3932	1690.6754	55997.25	55104
905.5347	1692.4012	56639.65	55746.85
905.6761	1694.1263	56551.65	55657
905.8176	1695.8506	56086.35	55191.3
905.9591	1697.5742	56033.45	55139.35
906.1005	1699.297	55734.25	54841.15
906.2419	1701.0191	55751	54858.8
906.3833	1702.7404	55058.9	54164.8
906.5246	1704.461	54805.75	53911.55
906.666	1706.1808	54862.7	53967.85
906.8073	1707.8999	54692.9	53796.55
906.9487	1709.6182	54396.15	53503.4
907.09	1711.3358	54259.05	53364.4
907.2313	1713.0527	54039.25	53146.85
907.3725	1714.7688	54017.75	53118.1
907.5138	1716.4841	53275.25	52379.65
907.655	1718.1987	53488.1	52590.05
907.7962	1719.9126	53163.9	52273.45
907.9374	1721.6257	53113.75	52220.4
908.0786	1723.338	53212.8	52319.5
908.2198	1725.0496	52429.95	51534.3
908.3609	1726.7605	52389.7	51493.85
908.502	1728.4706	52196.75	51302.3
908.6431	1730.18	52024.8	51127.95
908.7842	1731.8886	51884.3	50990.8
908.9253	1733.5964	51654.35	50742.05
909.0664	1735.3036	51730.65	50834.7
909.2074	1737.0099	51501.55	50608.15
909.3484	1738.7156	51188.15	50296.05
909.4894	1740.4204	50923.7	50028.95
909.6304	1742.1246	50965.55	50069.1
909.7714	1743.8279	50834.95	49942.3
909.9123	1745.5306	50777	49883.5
910.0532	1747.2325	50318.2	49427
910.1941	1748.9336	50232.5	49340.3
910.335	1750.634	50038.5	49142.75
910.4759	1752.3336	50055.3	49160.95
910.6168	1754.0325	49837.35	48945.7
910.7576	1755.7307	49761.65	48869.15
910.8984	1757.4281	49572.15	48678.6
911.0392	1759.1247	49601.65	48700.6
911.18	1760.8206	49311	48413.55
911.3208	1762.5158	49239.1	48341.4
911.4615	1764.2102	49073.55	48181.65
911.6022	1765.9039	48867.9	47977
911.7429	1767.5968	48758.65	47866.35
911.8836	1769.289	48552.55	47658.95
912.0243	1770.9804	48435.5	47542.7
912.1649	1772.6711	48377.65	47486
912.3056	1774.361	48208.85	47313.8
912.4462	1776.0502	48137.25	47243.85
912.5868	1777.7386	47925.1	47028.25
912.7274	1779.4263	47764.5	46869.6
912.8679	1781.1132	47717.25	46824.45
913.0084	1782.7994	47533.45	46639.15
913.149	1784.4849	47451.35	46559.05
913.2895	1786.1696	47225.95	46327.8
913.4299	1787.8535	47144.7	46251.75
913.5704	1789.5367	46983.7	46091.5
913.7108	1791.2192	46870.65	45977.3
913.8513	1792.9009	46710.7	45788
913.9917	1794.5818	46565.2	45669.75
914.132	1796.2621	46449.2	45558.05
914.2724	1797.9415	46318.05	45425.6
914.4128	1799.6202	46149.25	45258.3
914.5531	1801.2982	46064.9	45171.2
914.6934	1802.9755	45961.85	45066.3
914.8337	1804.6519	45825.65	44935.05
914.9739	1806.3277	45592.05	44702
915.1142	1808.0027	45367.6	44475.65
915.2544	1809.6769	45343.95	44451.95
915.3946	1811.3504	45175.7	44281.95
915.5348	1813.0231	45025.65	44131
915.675	1814.6951	45048.05	44155.75
915.8151	1816.3664	44958.55	44065.35
915.9553	1818.0369	44802.5	43908.65
916.0954	1819.7067	44682.1	43790.6
916.2355	1821.3757	44522.45	43629.25
916.3755	1823.044	44394.45	43502.4
916.5156	1824.7115	44265.8	43374.15
916.6556	1826.3783	44078.1	43186.85
916.7956	1828.0443	43977.6	43086.3
916.9356	1829.7096	43815.2	42921
917.0756	1831.3741	43825.65	42929.05
917.2155	1833.0379	43669.9	42775.95
917.3555	1834.701	43490.45	42595.2
917.4954	1836.3633	43419.25	42527.45
917.6353	1838.0248	43272.55	42378.65
917.7751	1839.6856	43187.15	42294.75
917.915	1841.3457	43082.95	42194.8
918.0548	1843.005	42919.55	42027.55
918.1946	1844.6636	42893	42001.35
918.3344	1846.3214	42700.35	41807.35
918.4742	1847.9785	42685.35	41791.8
918.6139	1849.6349	42549.6	41655.15
918.7537	1851.2904	42509.95	41607.85
918.8934	1852.9453	42279.85	41384.8
919.0331	1854.5994	42111.1	41216.95
919.1727	1856.2528	42201.4	41305.75
919.3124	1857.9054	42000.4	41107.95
919.452	1859.5572	41973.55	41083.55
919.5916	1861.2083	41837.65	40944
919.7312	1862.8587	41813.85	40921.75
919.8708	1864.5084	41652.95	40760.05
920.0103	1866.1572	41499.25	40606.9
920.1498	1867.8054	41302.2	40410.75
920.2893	1869.4528	41263.85	40369.7
920.4288	1871.0994	41136.85	40243.2
920.5683	1872.7453	41010.4	40116.85
920.7077	1874.3905	40911.6	40013.8
920.8471	1876.0349	40747.35	39855.5
920.9865	1877.6786	40733.25	39839.95
921.1259	1879.3215	40681.85	39790.75
921.2653	1880.9637	40521.7	39627.9
921.4046	1882.6051	40418.4	39525.75
921.5439	1884.2458	40354.15	39459.95
921.6832	1885.8858	40150.45	39256.95
921.8225	1887.525	40059.75	39165.65
921.9617	1889.1634	39889.6	38997.7
922.101	1890.8011	39654.05	38763.65
922.2402	1892.4381	39606.4	38715.1
922.3794	1894.0743	39532.25	38638.9
922.5185	1895.7098	39424.7	38530.55
922.6577	1897.3446	39366.7	38472.8
922.7968	1898.9786	39229.2	38331.2
922.9359	1900.6118	39134.45	38243.85
923.075	1902.2443	38883.75	37989.25
923.214	1903.8761	38803.9	37909.7
923.3531	1905.5071	38518.45	37625.25
923.4921	1907.1374	38441.4	37550.2
923.6311	1908.7669	38392.15	37501.85
923.77	1910.3957	38316.65	37425.05
923.909	1912.0237	38072	37180.55
924.0479	1913.651	37971.5	37078.65
924.1868	1915.2776	37827.8	36936.8
924.3257	1916.9034	37699.65	36807.95
924.4646	1918.5285	37510.3	36619.25
924.6034	1920.1528	37336.35	36443.25
924.7422	1921.7764	37305.05	36413.1
924.881	1923.3992	37128.3	36237.45
925.0198	1925.0213	36917.6	36026.65
925.1586	1926.6427	36744.5	35856.15
925.2973	1928.2633	36734.25	35725.75
925.436	1929.8832	36518.8	35624.7
925.5747	1931.5023	36354.65	35461.45
925.7134	1933.1207	36287.4	35394.25
925.852	1934.7383	36174.35	35279.85
925.9906	1936.3552	36027.8	35136.85
926.1292	1937.9714	35933.1	35040.35
926.2678	1939.5868	35780.25	34886
926.4064	1941.2015	35519.75	34627.95
926.5449	1942.8154	35452.25	34559.75
926.6834	1944.4286	35314.55	34422.85
926.8219	1946.041	35198.5	34288.45
926.9604	1947.6528	34918.85	34021.1
927.0988	1949.2637	34881.9	33990.1
927.2372	1950.8739	34760.45	33867.6
927.3756	1952.4834	34713.6	33821.1
927.514	1954.0921	34619.75	33727.15
927.6523	1955.7001	34489.9	33594.05
927.7907	1957.3074	34342.4	33449.55
927.929	1958.9139	34150	33257.25
928.0673	1960.5197	34077.2	33184
928.2055	1962.1247	33878.85	32987.15
928.3438	1963.729	33707.15	32815.2
928.482	1965.3325	33651.2	32737.55
928.6202	1966.9353	33508.8	32617.1
928.7584	1968.5374	33404.05	32512.65
928.8965	1970.1387	33217.5	32325.1
929.0346	1971.7393	33092.7	32200.85
929.1727	1973.3392	32990	32099.4
929.3108	1974.9383	32923.85	32031.4
929.4489	1976.5366	32733.6	31840.6
929.5869	1978.1342	32708.85	31816.3
929.7249	1979.7311	32553.6	31659.7
929.8629	1981.3273	32461	31570.8
930.0009	1982.9227	32367.35	31474.35
930.1388	1984.5173	32250.15	31358.7
930.2767	1986.1112	32055.8	31166.95
930.4146	1987.7044	32040.2	31150.9
930.5525	1989.2968	31930.2	31037.9
930.6904	1990.8885	31858.95	30963.8
930.8282	1992.4795	31741.1	30846.95
930.966	1994.0697	31569.4	30676.85
931.1038	1995.6592	31491.15	30599.4
931.2415	1997.2479	31387.8	30496.2
931.3793	1998.8359	31262.8	30372.15
931.517	2000.4232	31100.85	30210.55
931.6547	2002.0097	30996.8	30108.95
931.7923	2003.5955	30882.2	29991.5
931.93	2005.1805	30827.25	29933.7
932.0676	2006.7648	30745.65	29854.4
932.2052	2008.3484	30568.15	29676.45
932.3427	2009.9312	30628.4	29737.5
932.4803	2011.5133	30431.5	29542.8
932.6178	2013.0946	30368	29478.2
932.7553	2014.6752	30221.15	29331.2
932.8928	2016.2551	30193.2	29301.15
933.0302	2017.8342	30012.25	29121.85
933.1676	2019.4126	29925.2	29034.85
933.305	2020.9902	29779.25	28888.8
933.4424	2022.5672	29737.85	28844.55
933.5798	2024.1433	29659.3	28764.15
933.7171	2025.7188	29497.95	28609
933.8544	2027.2935	29413.05	28524.75
933.9917	2028.8674	29357	28468.55
934.129	2030.4406	29229.6	28338.85
934.2662	2032.0131	29052.15	28162.35
934.4034	2033.5849	28953	28053.05
934.5406	2035.1559	28912.05	28019.15
934.6778	2036.7261	28866.6	27975.2
934.8149	2038.2957	28753.15	27861.7
934.952	2039.8645	28715.2	27825.15
935.0891	2041.4325	28690.1	27797.05
935.2262	2042.9998	28490.5	27600.75
935.3632	2044.5664	28445.2	27553.05
935.5002	2046.1323	28327.6	27435.6
935.6372	2047.6974	28269.3	27378.15
935.7742	2049.2617	28188.15	27298.05
935.9111	2050.8254	28127.4	27214.55
936.048	2052.3883	28062.2	27168.55
936.1849	2053.9504	27973.6	27082.85
936.3218	2055.5118	27852.1	26960
936.4586	2057.0725	27716.2	26821.85
936.5955	2058.6325	27659.3	26767.55
936.7323	2060.1917	27542.65	26652.1
936.869	2061.7502	27507.85	26616.6
937.0058	2063.3079	27375.1	26482.95
937.1425	2064.8649	27253.6	26359.8
937.2792	2066.4212	27218.35	26324.3
937.4159	2067.9767	27095.6	26205.15
937.5525	2069.5315	26989.9	26099.2
937.6891	2071.0856	26846.15	25954.3
937.8257	2072.6389	26742.4	25849.1
937.9623	2074.1915	26614.55	25726.9
938.0989	2075.7433	26507.85	25614.75
938.2354	2077.2945	26479.3	25588.45
938.3719	2078.8448	26368.7	25478.05
938.5084	2080.3945	26308.15	25417.8
938.6448	2081.9434	26236.2	25344.95
938.7812	2083.4916	26116	25224.6
938.9176	2085.039	26022.8	25129.2
939.054	2086.5857	25951.35	25059.25
939.1903	2088.1317	25872.1	24980
939.3267	2089.677	25783.9	24891.8
939.463	2091.2215	25712.45	24819.55
939.5992	2092.7652	25638.35	24746.1
939.7355	2094.3083	25550.85	24658.45
939.8717	2095.8506	25482.85	24592.85
940.0079	2097.3921	25489.8	24601.05
940.1441	2098.933	25381.45	24491.1
940.2802	2100.4731	25305.45	24414.65
940.4163	2102.0124	25265.65	24366
940.5524	2103.5511	25221.05	24329.05
940.6885	2105.089	25148.25	24257.65
940.8245	2106.6261	25069.55	24178.2
940.9606	2108.1626	24980.2	24089.45
941.0965	2109.6983	24907.3	23988.65
941.2325	2111.2332	24829	23937.85
941.3684	2112.7675	24760.55	23867.65
941.5044	2114.301	24655.75	23761.45
941.6403	2115.8337	24651.6	23760.25
941.7761	2117.3657	24555.75	23663.65
941.912	2118.897	24496.8	23605.25
942.0478	2120.4276	24363.9	23467.95
942.1835	2121.9575	24288.15	23395.35
942.3193	2123.4866	24240.9	23336.55
942.455	2125.0149	24163.1	23269.65
942.5907	2126.5426	24008.95	23116.15
942.7264	2128.0695	23971.45	23077.15
942.8621	2129.5956	23913.15	23023.4
942.9977	2131.1211	23834.75	22939.5
943.1333	2132.6458	23789.45	22900.25
943.2689	2134.1698	23704.95	22813.1
943.4044	2135.693	23662.2	22768.05
943.54	2137.2155	23621.6	22729.5
943.6755	2138.7373	23555.1	22662.95
943.8109	2140.2584	23437.1	22546.45
943.9464	2141.7787	23349.85	22454.5
944.0818	2143.2983	23225.85	22334.9
944.2172	2144.8171	23042.25	22155.65
944.3526	2146.3353	23061.2	22170.35
944.4879	2147.8527	22926.7	22036.9
944.6232	2149.3693	22938.2	22047.15
944.7585	2150.8853	22862.75	21970.75
944.8938	2152.4005	22716.2	21825.05
945.029	2153.9149	22688.15	21796.05
945.1642	2155.4287	22644.1	21752.8
945.2994	2156.9417	22576.9	21684.95
945.4346	2158.454	22480.3	21587.15
945.5697	2159.9655	22416.85	21526.7
945.7048	2161.4764	22359.5	21469.4
945.8399	2162.9865	22263.05	21372.9
945.9749	2164.4958	22249.75	21358.1
946.1099	2166.0045	22137.25	21242.35
946.2449	2167.5124	22091.05	21200.35
946.3799	2169.0195	22015.9	21124.85
946.5148	2170.526	22006.25	21113.2
946.6498	2172.0317	21909.1	21017.55
946.7846	2173.5367	21832.25	20940.55
946.9195	2175.0409	21774.4	20884.95
947.0543	2176.5445	21747.55	20858.5
947.1891	2178.0473	21670	20778.6
947.3239	2179.5494	21558.6	20664.05
947.4587	2181.0507	21429.5	20537.95
947.5934	2182.5513	21406.75	20515.15
947.7281	2184.0512	21354.6	20461.45
947.8628	2185.5504	21283.3	20390.7
947.9974	2187.0488	21133.55	20243
948.132	2188.5465	21125.95	20234.75
948.2666	2190.0435	21002.45	20111.75
948.4012	2191.5397	20955.85	20063.55
948.5357	2193.0353	20891.9	20000.25
948.6702	2194.5301	20743.35	19851.15
948.8047	2196.0241	20705.55	19814.3
948.9392	2197.5175	20658.8	19767.4
949.0736	2199.0101	20532.25	19637.5
949.208	2200.502	20433	19542.15
949.3424	2201.9931	20388.15	19499.1
949.4767	2203.4835	20275.65	19383.7
949.611	2204.9733	20187.05	19290.55
949.7453	2206.4622	20164.15	19273.3
949.8796	2207.9505	20093.7	19198.3
950.0138	2209.438	19948.2	19059.45
950.148	2210.9248	19933.75	19040.95
950.2822	2212.4109	19862.65	18973.1
950.4164	2213.8962	19786.95	18893.6
950.5505	2215.3809	19742.4	18849.25
950.6846	2216.8648	19689.55	18798.7
950.8186	2218.3479	19597.1	18699.9
950.9527	2219.8304	19522.6	18628.15
951.0867	2221.3121	19454.55	18561.5
951.2207	2222.7931	19400.4	18507.65
951.3546	2224.2733	19328.35	18438.2
951.4886	2225.7529	19287.35	18396.45
951.6225	2227.2317	19171.05	18278.8
951.7563	2228.7098	19129.65	18239.05
951.8902	2230.1872	19029.65	18138.65
952.024	2231.6638	19003	18111.9
952.1578	2233.1397	18930.65	18034.4
952.2916	2234.6149	18868.35	17977.2
952.4253	2236.0894	18791.25	17899.05
952.559	2237.5632	18749.7	17848.5
952.6927	2239.0362	18699.1	17809.5
952.8263	2240.5085	18611.55	17721.3
952.9599	2241.9801	18522	17630.95
953.0935	2243.4509	18478.65	17588.8
953.2271	2244.921	18403.15	17510.7
953.3606	2246.3904	18306.2	17411.05
953.4941	2247.8591	18263.3	17371.4
953.6276	2249.3271	18254	17362.8
953.7611	2250.7943	18179.6	17285.65
953.8945	2252.2608	18088	17195.2
954.0279	2253.7266	18026.55	17133.95
954.1612	2255.1917	17939.45	17048.35
954.2946	2256.656	17871.6	16980.9
954.4279	2258.1197	17839.55	16950
954.5612	2259.5826	17769.6	16878.75
954.6944	2261.0447	17762.45	16868.75
954.8276	2262.5062	17661.85	16768.5
954.9608	2263.9669	17632.1	16736.1
955.094	2265.4269	17605.8	16714.1
955.2271	2266.8862	17490.3	16599.75
955.3602	2268.3448	17474.85	16583.85
955.4933	2269.8026	17453.45	16561.2
955.6264	2271.2598	17373.65	16481
955.7594	2272.7162	17311.3	16421.65
955.8924	2274.1719	17272.05	16380.9
956.0253	2275.6268	17181.15	16289.7
956.1583	2277.0811	17152.8	16261.85
956.2912	2278.5346	17093.5	16200.75
956.4241	2279.9874	17018.45	16126.55
956.5569	2281.4395	17009.45	16117.95
956.6897	2282.8908	16911.8	16015.95
956.8225	2284.3414	16914.3	16021.1
956.9553	2285.7914	16838.2	15947.4
957.088	2287.2406	16767.75	15875.4
957.2207	2288.689	16739.85	15846.85
957.3534	2290.1368	16708.95	15816.25
957.486	2291.5838	16606.4	15712.3
957.6186	2293.0302	16565.4	15673.6
957.7512	2294.4758	16468.1	15577.25
957.8838	2295.9206	16400.4	15506.4
958.0163	2297.3648	16382.6	15491.3
958.1488	2298.8082	16349.9	15458.1
958.2813	2300.251	16322.1	15430.35
958.4137	2301.693	16253.05	15359.05
958.5461	2303.1343	16229.7	15337.8
958.6785	2304.5748	16139.2	15248.85
958.8108	2306.0147	16061.1	15171.2
958.9432	2307.4538	16052.6	15158.4
959.0754	2308.8922	15998.2	15108.85
959.2077	2310.3299	15951.8	15060.05
959.3399	2311.7669	15885.85	14994.45
959.4721	2313.2031	15803.5	14911.25
959.6043	2314.6387	15783.8	14890.6
959.7365	2316.0735	15698.15	14806.15
959.8686	2317.5076	15666.4	14776.2
960.0006	2318.941	15611.65	14720.65
960.1327	2320.3737	15562.45	14669.6
960.2647	2321.8056	15504.3	14611.3
960.3967	2323.2369	15450.5	14557.85
960.5287	2324.6674	15439.3	14545.55
960.6606	2326.0972	15375.05	14482.4
960.7925	2327.5263	15291.65	14399.6
960.9244	2328.9547	15252.95	14360.75
961.0562	2330.3823	15180.7	14288.55
961.1881	2331.8092	15190.3	14296.2
961.3198	2333.2355	15074.6	14182.6
961.4516	2334.661	15080.5	14190.05
961.5833	2336.0858	15042.9	14148.85
961.715	2337.5098	14988.3	14097.6
961.8467	2338.9332	14938.95	14047.75
961.9783	2340.3558	14880.35	13985.55
962.1099	2341.7778	14849.2	13957.5
962.2415	2343.199	14786.85	13892.8
962.373	2344.6195	14712.8	13822.45
962.5045	2346.0393	14687.25	13796.05
962.636	2347.4583	14709.95	13818.05
962.7675	2348.8767	14626.55	13733.7
962.8989	2350.2943	14566.8	13673.6
963.0303	2351.7113	14547.15	13654.15
963.1617	2353.1275	14465	13573.3
963.293	2354.543	14426.85	13528.25
963.4243	2355.9578	14371	13479.1
963.5556	2357.3718	14281	13391.4
963.6868	2358.7852	14237.4	13342.9
963.818	2360.1978	14169.7	13277.15
963.9492	2361.6098	14134.35	13243.25
964.0803	2363.021	14068.6	13175.2
964.2114	2364.4315	14041.65	13152.6
964.3425	2365.8413	13984.95	13094.25
964.4736	2367.2504	13963.4	13073.85
964.6046	2368.6587	13869.65	12977.35
964.7356	2370.0664	13810.35	12920.65
964.8666	2371.4733	13773.1	12882
964.9975	2372.8795	13714.75	12823.25
965.1284	2374.285	13647.6	12757.25
965.2593	2375.6899	13564.2	12673.95
965.3901	2377.0939	13515.75	12624.8
965.5209	2378.4973	13473.35	12583.5
965.6517	2379.9	13441.95	12549.3
965.7825	2381.3019	13389.25	12497.1
965.9132	2382.7032	13350.8	12461.15
966.0439	2384.1037	13299.35	12409.65
966.1745	2385.5035	13255.7	12365.85
966.3051	2386.9027	13199.4	12310.4
966.4357	2388.3011	13160.95	12265.95
966.5663	2389.6987	13140.7	12249.65
966.6968	2391.0957	13059	12169.95
966.8273	2392.492	12995.85	12107.3
966.9578	2393.8876	12919.1	12027.15
967.0882	2395.2824	12876.45	11984.3
967.2186	2396.6765	12815.85	11925.7
967.349	2398.07	12762.9	11873.3
967.4793	2399.4627	12738.85	11848.1
967.6097	2400.8547	12673.75	11783.9
967.7399	2402.246	12633.4	11738.45
967.8702	2403.6366	12554.85	11662.75
968.0004	2405.0265	12520.85	11632.2
968.1306	2406.4156	12507.8	11613.4
968.2607	2407.8041	12433.6	11542.15
968.3909	2409.1918	12367.3	11475.3
968.521	2410.5789	12326.05	11436.1
968.651	2411.9652	12295.6	11402.6
968.781	2413.3508	12235.2	11345.75
968.911	2414.7358	12213.9	11322.05
969.041	2416.12	12171.5	11281.35
969.1709	2417.5035	12131.8	11243.25
969.3008	2418.8863	12053.25	11160.3
969.4307	2420.2684	12016.55	11126.5
969.5606	2421.6497	11976.95	11084.65
969.6904	2423.0304	11925	11035.2
969.8201	2424.4104	11897.85	11008.4
969.9499	2425.7896	11841.85	10947.25
970.0796	2427.1682	11806.7	10917.7
970.2093	2428.546	11799.8	10909.85
970.3389	2429.9232	11758.2	10866.6
970.4685	2431.2996	11714.3	10824.4
970.5981	2432.6753	11676.1	10784.75
970.7277	2434.0503	11635.95	10745.75
970.8572	2435.4246	11582.05	10691.75
970.9867	2436.7982	11539.4	10646.75
971.1161	2438.1711	11499.15	10609.7
971.2456	2439.5433	11480.15	10588.1
971.375	2440.9148	11400.15	10507.55
971.5043	2442.2856	11347.05	10455.85
971.6336	2443.6557	11331.05	10440.3
971.7629	2445.025	11286	10396.3
971.8922	2446.3937	11255.25	10365.25
972.0214	2447.7617	11220.15	10329
972.1506	2449.1289	11189.1	10298.8
972.2798	2450.4955	11165.9	10270.8
972.4089	2451.8613	11109	10219.95
972.538	2453.2265	11087	10196.35
972.6671	2454.5909	11076.85	10186.2
972.7961	2455.9546	11053.6	10164
972.9251	2457.3177	10986.45	10096.65
973.0541	2458.68	10936.4	10043.7
973.1831	2460.0416	10928.45	10035.5
973.312	2461.4025	10914.25	10021.95
973.4408	2462.7627	10849.4	9948
973.5697	2464.1222	10832.6	9942.85
973.6985	2465.4811	10776.25	9886.35
973.8273	2466.8392	10745.05	9856
973.956	2468.1966	10734	9841.45
974.0847	2469.5533	10717.95	9825.15
974.2134	2470.9093	10699.35	9806.7
974.3421	2472.2645	10637.9	9747.15
974.4707	2473.6191	10591.7	9699.75
974.5993	2474.973	10564.3	9673.2
974.7278	2476.3262	10535.35	9642.75
974.8563	2477.6787	10468	9578.25
974.9848	2479.0305	10397.8	9508.35
975.1132	2480.3816	10398.6	9504.4
975.2417	2481.7319	10369.85	9478.15
975.37	2483.0816	10312.05	9419.95
975.4984	2484.4306	10308.95	9416.3
975.6267	2485.7789	10261.4	9373.2
975.755	2487.1264	10179.65	9287.3
975.8833	2488.4733	10163	9273
976.0115	2489.8195	10121	9214.55
976.1397	2491.165	10098.7	9204.3
976.2678	2492.5097	10058.95	9166.25
976.3959	2493.8538	9982.2	9092.2
976.524	2495.1972	9934.7	9045.2
976.6521	2496.5398	9908.25	9017.15
976.7801	2497.8818	9870.7	8975.8
976.9081	2499.2231	9826.3	8936.15
977.036	2500.5637	9808.9	8915.1
977.164	2501.9035	9793.3	8902.35
977.2918	2503.2427	9735.95	8842.4
977.4197	2504.5812	9719	8826.6
977.5475	2505.919	9717.65	8826.95
977.6753	2507.256	9654.75	8765.85
977.8031	2508.5924	9631.25	8741.05
977.9308	2509.9281	9581.45	8684.45
978.0585	2511.2631	9565.05	8674.35
978.1861	2512.5974	9541.3	8649.55
978.3137	2513.9309	9503.35	8612
978.4413	2515.2638	9489.4	8571.45
978.5689	2516.596	9437.85	8549.3
978.6964	2517.9275	9382.25	8490.9
978.8239	2519.2583	9370.75	8478.8
978.9513	2520.5884	9309.8	8416.95
979.0788	2521.9178	9287.6	8397.1
979.2062	2523.2465	9231.85	8341.7
979.3335	2524.5745	9192	8301.15
979.4608	2525.9018	9157	8265.05
979.5881	2527.2284	9153.15	8263
979.7154	2528.5543	9131.35	8240.7
979.8426	2529.8796	9083.65	8190.5
979.9698	2531.2041	9066.55	8176.25
980.0969	2532.5279	9051.8	8161.3
980.224	2533.851	9048.4	8157.65
980.3511	2535.1735	9002.75	8113.85
980.4781	2536.4952	8971.8	8083.2
980.6052	2537.8163	8946	8054.5
980.7321	2539.1366	8929.5	8040.85
980.8591	2540.4562	8895.15	8002.85
980.986	2541.7752	8883.3	7994.05
981.1129	2543.0935	8863.65	7974.95
981.2397	2544.411	8870.65	7978
981.3665	2545.7279	8814.85	7923.7
981.4933	2547.0441	8796.15	7903.7
981.62	2548.3596	8796.9	7903.2
981.7467	2549.6744	8763.75	7871.5
981.8734	2550.9885	8719.95	7826.2
982.0001	2552.3019	8689.15	7799.05
982.1267	2553.6146	8688.95	7797.05
982.2532	2554.9266	8670.45	7779.9
982.3798	2556.2379	8605.75	7713.9
982.5063	2557.5485	8612.2	7720.65
982.6327	2558.8585	8577.75	7679.55
982.7592	2560.1677	8564.6	7668.75
982.8856	2561.4762	8537.25	7645.6
983.0119	2562.7841	8516.75	7624.25
983.1383	2564.0913	8479.05	7588.7
983.2646	2565.3977	8490.4	7600.35
983.3908	2566.7035	8456.6	7565.15
983.517	2568.0086	8441.5	7548.4
983.6432	2569.313	8419	7527.8
983.7694	2570.6167	8377.95	7483.75
983.8955	2571.9197	8370.6	7480.75
984.0216	2573.222	8370.2	7476.4
984.1476	2574.5236	8314.2	7422.5
984.2737	2575.8246	8322.75	7427.65
984.3996	2577.1248	8291.35	7396.35
984.5256	2578.4244	8272.4	7382.55
984.6515	2579.7232	8265.85	7375.25
984.7774	2581.0214	8251.8	7335.1
984.9032	2582.3189	8222.2	7331.25
985.029	2583.6157	8205.35	7312.05
985.1548	2584.9118	8182.85	7291
985.2806	2586.2072	8147.9	7256.85
985.4063	2587.5019	8125.95	7236.4
985.5319	2588.7959	8105.5	7212.85
985.6576	2590.0893	8110.8	7220.55
985.7832	2591.3819	8058.5	7169
985.9087	2592.6739	8027.9	7138.7
986.0343	2593.9652	8017.65	7125.3
986.1597	2595.2557	7989.45	7098
986.2852	2596.5456	7954.6	7061.45
986.4106	2597.8348	7946.85	7056.55
986.536	2599.1234	7898.8	7007.85
986.6614	2600.4112	7870.85	6981.95
986.7867	2601.6983	7842.35	6949.35
986.912	2602.9848	7843.8	6953.1
987.0372	2604.2705	7794.55	6898.25
987.1624	2605.5556	7778.85	6887.1
987.2876	2606.84	7746.2	6855.7
987.4128	2608.1237	7721.85	6830.05
987.5379	2609.4067	7683.9	6792.65
987.6629	2610.689	7643.6	6743.35
987.788	2611.9707	7616.7	6722.2
987.913	2613.2516	7612.2	6718.1
988.0379	2614.5319	7584.15	6692.8
988.1629	2615.8115	7558.2	6668.4
988.2878	2617.0903	7512.7	6621.2
988.4126	2618.3685	7457.25	6566.2
988.5375	2619.6461	7443.55	6553.25
988.6622	2620.9229	7420.6	6530.1
988.787	2622.199	7396.85	6505.65
988.9117	2623.4745	7384.8	6493.35
989.0364	2624.7493	7369.3	6476
989.161	2626.0234	7357.15	6468.1
989.2857	2627.2968	7313.75	6424.55
989.4102	2628.5695	7312.5	6420.5
989.5348	2629.8415	7257.55	6367.4
989.6593	2631.1128	7203.85	6309.95
989.7837	2632.3835	7198.8	6304.65
989.9082	2633.6535	7163.35	6273
990.0326	2634.9228	7139.2	6247.95
990.1569	2636.1914	7134.7	6244.55
990.2812	2637.4593	7101.75	6205.55
990.4055	2638.7265	7074.9	6183.7
990.5298	2639.9931	7048.1	6157.05
990.654	2641.259	7036.5	6145.5
990.7782	2642.5242	7014.45	6123.3
990.9023	2643.7887	7018.75	6127.05
991.0264	2645.0525	6992.15	6099.2
991.1505	2646.3156	6949.3	6058.2
991.2745	2647.5781	6894.85	6005.7
991.3985	2648.8398	6890.35	5998.95
991.5225	2650.1009	6875.3	5974.6
991.6464	2651.3613	6856.15	5963.65
991.7703	2652.6211	6848	5955.35
991.8942	2653.8801	6801.7	5911.05
992.018	2655.1385	6770.95	5875.75
992.1418	2656.3961	6786.9	5895.9
992.2655	2657.6531	6760.2	5868.6
992.3892	2658.9094	6741.5	5849.9
992.5129	2660.1651	6725.4	5836.8
992.6366	2661.42	6718.05	5825.55
992.7602	2662.6743	6707.3	5814.25
992.8837	2663.9279	6674.45	5784.75
993.0073	2665.1808	6655.35	5763.5
993.1307	2666.433	6641.55	5749.4
993.2542	2667.6846	6625.8	5735.55
993.3776	2668.9354	6602.6	5708.05
993.501	2670.1856	6567.7	5676.15
993.6244	2671.4351	6574.35	5683.45
993.7477	2672.6839	6547.4	5654.9
993.8709	2673.9321	6524.5	5634.85
993.9942	2675.1795	6527.8	5638
994.1174	2676.4263	6501	5609.1
994.2405	2677.6724	6476.55	5586.45
994.3637	2678.9179	6471.45	5580.25
994.4868	2680.1626	6457.65	5567.1
994.6098	2681.4067	6436.25	5544
994.7328	2682.6501	6405.1	5511.85
994.8558	2683.8928	6392.95	5502.95
994.9788	2685.1348	6355.45	5464.25
995.1017	2686.3761	6339.15	5450.6
995.2245	2687.6168	6314.3	5424.45
995.3474	2688.8568	6288.85	5397.75
995.4702	2690.0961	6263	5372.95
995.5929	2691.3348	6250.2	5359.45
995.7156	2692.5727	6228.75	5336.35
995.8383	2693.81	6206.95	5315.25
995.961	2695.0466	6194.6	5305.35
996.0836	2696.2826	6170.45	5278.2
996.2062	2697.5178	6150.6	5256.9
996.3287	2698.7524	6120.15	5227.2
996.4512	2699.9863	6130.05	5237
996.5737	2701.2195	6102.3	5211.05
996.6961	2702.452	6073.1	5181.25
996.8185	2703.6839	6061.9	5169.1
996.9408	2704.9151	6065.55	5176.85
997.0631	2706.1456	6037.45	5146.85
997.1854	2707.3755	6013.2	5122.75
997.3077	2708.6046	6004	5110.5
997.4299	2709.8331	5990	5099
997.552	2711.0609	5966	5075.35
997.6742	2712.2881	5961.75	5070.25
997.7963	2713.5145	5964.55	5070.15
997.9183	2714.7403	5949.75	5059.1
998.0403	2715.9654	5945.8	5052.6
998.1623	2717.1899	5948.35	5041.4
998.2842	2718.4136	5922.45	5030.75
998.4062	2719.6367	5922	5031.65
998.528	2720.8591	5904.05	5004.4
998.6498	2722.0809	5881.1	4989.3
998.7716	2723.3019	5876.5	4981.25
998.8934	2724.5223	5878.65	4985.8
999.0151	2725.7421	5852.4	4959.25
999.1368	2726.9611	5830.2	4937.4
999.2584	2728.1795	5818.3	4921.4
999.38	2729.3972	5760.35	4869.7
999.5016	2730.6142	5748.65	4844.55
999.6231	2731.8306	5722.9	4829.95
999.7446	2733.0462	5688.2	4795.25
999.8661	2734.2612	5646.9	4751.45
999.9875	2735.4756	5621.05	4730.25
1000.1089	2736.6892	5585.3	4693.65
1000.2302	2737.9022	5531.95	4642.35
1000.3515	2739.1145	5519.7	4627.7
1000.4728	2740.3262	5496.9	4597.75
1000.594	2741.5372	5462	4570.7
1000.7152	2742.7475	5438.9	4545.7
1000.8363	2743.9571	5421.25	4528.8
1000.9575	2745.1661	5399.55	4502.5
1001.0785	2746.3744	5373.1	4481.05
1001.1996	2747.582	5340.6	4450.5
1001.3206	2748.7889	5309.25	4415.55
1001.4415	2749.9952	5298.85	4408.55
1001.5625	2751.2008	5263.75	4371.35
1001.6833	2752.4057	5258.95	4364.7
1001.8042	2753.61	5240	4348.15
1001.925	2754.8136	5206.25	4315.25
1002.0458	2756.0165	5205.2	4314.05
1002.1665	2757.2188	5208.75	4318.6
1002.2872	2758.4204	5181.9	4291.35
1002.4078	2759.6213	5137.4	4244.75
1002.5285	2760.8215	5157.2	4262
1002.649	2762.0211	5118.6	4225.55
1002.7696	2763.22	5102.75	4207.95
1002.8901	2764.4182	5093.1	4201.05
1003.0106	2765.6158	5076.25	4184.45
1003.131	2766.8127	5069.25	4177.45
1003.2514	2768.009	5040.7	4151.8
1003.3717	2769.2045	5016.9	4125.7
1003.492	2770.3994	5022.55	4129.15
1003.6123	2771.5936	4991.1	4099.1
1003.7325	2772.7872	4971.65	4081.5
1003.8527	2773.9801	4945.4	4052.8
1003.9729	2775.1723	4935.2	4028.35
1004.093	2776.3639	4914.1	4023.5
1004.2131	2777.5548	4896.55	4005.1
1004.3331	2778.745	4892.2	4002.25
1004.4531	2779.9346	4872.15	3980.6
1004.5731	2781.1235	4870.35	3980.1
1004.693	2782.3117	4842.55	3952.7
1004.8129	2783.4992	4827.05	3936.7
1004.9328	2784.6861	4828.8	3937.05
1005.0526	2785.8723	4839.75	3945.95
1005.1723	2787.0579	4814.15	3924.1
1005.2921	2788.2428	4803.85	3911.1
1005.4118	2789.427	4793.85	3903.7
1005.5314	2790.6106	4783	3892.25
1005.651	2791.7935	4796.75	3905.15
1005.7706	2792.9757	4767.65	3880.15
1005.8902	2794.1573	4758.75	3864.9
1006.0097	2795.3382	4764.65	3873.7
1006.1291	2796.5184	4763.2	3872.35
1006.2485	2797.698	4768.2	3875.7
1006.3679	2798.8769	4763.45	3872.8
1006.4873	2800.0551	4765.75	3873.4
1006.6066	2801.2327	4766.6	3874.3
1006.7258	2802.4096	4771.7	3879.45
1006.8451	2803.5859	4776.3	3884.55
1006.9642	2804.7615	4762.3	3871.75
1007.0834	2805.9364	4784.05	3894.1
1007.2025	2807.1106	4802.55	3911.9
1007.3216	2808.2842	4812.4	3920.15
1007.4406	2809.4572	4851.85	3960.3
1007.5596	2810.6294	4875.65	3984.45
1007.6785	2811.801	4897.35	4007.6
1007.7975	2812.972	4923.3	4033.1
1007.9163	2814.1423	4939.15	4050.2
1008.0352	2815.3119	4980.5	4089.9
1008.154	2816.4808	5023.35	4133.3
1008.2727	2817.6491	5071.95	4180
1008.3914	2818.8167	5098.15	4208.3
1008.5101	2819.9837	5153.3	4259.5
1008.6288	2821.15	5163.25	4272.25
1008.7474	2822.3157	5188.25	4298.8
1008.8659	2823.4807	5228.9	4340.35
1008.9844	2824.645	5270.4	4380.35
1009.1029	2825.8086	5305.4	4415.5
1009.2214	2826.9716	5320.2	4429.25
1009.3398	2828.134	5349.35	4458.5
1009.4581	2829.2957	5386.45	4497.4
1009.5764	2830.4567	5412.55	4522.15
1009.6947	2831.617	5406.35	4517
1009.813	2832.7767	5429.3	4539.6
1009.9312	2833.9358	5402.95	4511.65
1010.0493	2835.0941	5398.25	4505.3
1010.1675	2836.2519	5376.35	4486.1
1010.2855	2837.4089	5349.7	4458.5
1010.4036	2838.5653	5337.15	4446.85
1010.5216	2839.7211	5333.45	4443.1
1010.6396	2840.8761	5337.65	4443.35
1010.7575	2842.0306	5348.3	4459.3
1010.8754	2843.1843	5352.1	4463.2
1010.9932	2844.3374	5394.3	4503.95
1011.111	2845.4899	5452.2	4561.35
1011.2288	2846.6417	5528.2	4638
1011.3465	2847.7928	5591.35	4699.8
1011.4642	2848.9433	5670.9	4780.55
1011.5818	2850.0931	5741.5	4851.95
1011.6995	2851.2422	5792.6	4900.85
1011.817	2852.3907	5851.95	4960.35
1011.9345	2853.5385	5910.5	5017.8
1012.052	2854.6857	5973.55	5057.8
1012.1695	2855.8323	6002.8	5113.8
1012.2869	2856.9781	6037.3	5146.1
1012.4042	2858.1233	6074.95	5184.85
1012.5216	2859.2679	6104.95	5215.65
1012.6389	2860.4118	6126.4	5235.6
1012.7561	2861.555	6182.45	5288.2
1012.8733	2862.6976	6208.55	5316.45
1012.9905	2863.8395	6212.3	5324.2
1013.1076	2864.9808	6219.7	5328.5
1013.2247	2866.1214	6224.3	5334
1013.3417	2867.2614	6227.3	5337.65
1013.4587	2868.4007	6231.65	5339
1013.5757	2869.5393	6230.5	5338
1013.6926	2870.6773	6206.4	5314.8
1013.8095	2871.8146	6242.75	5349.75
1013.9263	2872.9513	6216.1	5323.5
1014.0431	2874.0874	6200.55	5309.05
1014.1599	2875.2227	6180.3	5289.45
1014.2766	2876.3574	6153.3	5262.4
1014.3933	2877.4915	6126.65	5237.35
1014.51	2878.6249	6082.85	5192.15
1014.6266	2879.7577	6039.45	5148.75
1014.7431	2880.8898	6013.8	5111.95
1014.8596	2882.0212	5984.4	5092.45
1014.9761	2883.152	5984.95	5094.05
1015.0925	2884.2821	5943.2	5052.6
1015.2089	2885.4116	5904.85	5014.7
1015.3253	2886.5405	5914.25	5023.5
1015.4416	2887.6686	5899.85	5007.15
1015.5579	2888.7962	5880.55	4991.25
1015.6741	2889.923	5898.65	5009.9
1015.7903	2891.0493	5905.55	5016.45
1015.9065	2892.1748	5884.65	4995.25
1016.0226	2893.2997	5889.05	4997.4
1016.1387	2894.424	5897.9	5006.9
1016.2547	2895.5476	5905.95	5017.15
1016.3707	2896.6706	5905.25	5014.6
1016.4866	2897.7929	5928.55	5037.1
1016.6025	2898.9145	5935.75	5044.8
1016.7184	2900.0355	5978.95	5086.9
1016.8342	2901.1559	6004.85	5113.75
1016.95	2902.2756	6003	5113.35
1017.0658	2903.3946	6033.65	5143.15
1017.1815	2904.513	6047.1	5154.25
1017.2971	2905.6308	6083.3	5193.5
1017.4127	2906.7479	6049.95	5157.2
1017.5283	2907.8643	6091.15	5200.55
1017.6439	2908.9801	6098.15	5207.5
1017.7594	2910.0953	6088.5	5200.45
1017.8748	2911.2098	6070.95	5177.7
1017.9902	2912.3236	6056.65	5157.85
1018.1056	2913.4368	6044.7	5150.9
1018.2209	2914.5494	6021.9	5130.95
1018.3362	2915.6613	5976	5081.05
1018.4515	2916.7725	5939.25	5047.15
1018.5667	2917.8831	5907.65	5015.3
1018.6819	2918.9931	5876.55	4983.25
1018.797	2920.1024	5836.2	4943.6
1018.9121	2921.211	5818	4928.45
1019.0271	2922.319	5792.4	4903.35
1019.1421	2923.4264	5773.9	4884
1019.2571	2924.5331	5735.7	4846.9
1019.372	2925.6391	5706.65	4815.4
1019.4869	2926.7445	5666.5	4777.7
1019.6017	2927.8493	5666.7	4775.55
1019.7165	2928.9534	5674.05	4782.2
1019.8313	2930.0569	5657.85	4763.6
1019.946	2931.1597	5632	4740.75
1020.0606	2932.2619	5598.75	4708
1020.1753	2933.3634	5578.65	4690.35
1020.2899	2934.4643	5580	4683.45
1020.4044	2935.5645	5548.8	4650.7
1020.5189	2936.6641	5498.9	4605
1020.6334	2937.763	5429.5	4540.2
1020.7478	2938.8613	5383.75	4494.5
1020.8622	2939.959	5333.75	4438.7
1020.9765	2941.056	5240.25	4351.1
1021.0908	2942.1523	5161.5	4271.35
1021.2051	2943.248	5071.4	4178.65
1021.3193	2944.3431	4958.5	4067.95
1021.4334	2945.4375	4843.5	3953.25
1021.5476	2946.5313	4736.45	3848.85
1021.6617	2947.6244	4618.05	3726.4
1021.7757	2948.7169	4514.8	3624.4
1021.8897	2949.8087	4403.55	3513.35
1022.0037	2950.8999	4314.2	3425.65
1022.1176	2951.9904	4243	3354.1
1022.2315	2953.0803	4159.1	3268.5
1022.3453	2954.1696	4073.8	3183.25
1022.4591	2955.2582	4013.1	3125.75
1022.5728	2956.3462	3963.35	3071.75
1022.6865	2957.4335	3914.85	3024.65
1022.8002	2958.5202	3855.15	2962.2
1022.9138	2959.6062	3839.5	2949.8
1023.0274	2960.6916	3802.45	2912.75
1023.141	2961.7764	3761.55	2869.1
1023.2545	2962.8605	3730.55	2839.4
1023.3679	2963.9439	3726.8	2837.9
1023.4813	2965.0267	3705.5	2812.2
1023.5947	2966.1089	3709.85	2795.4
1023.708	2967.1905	3677.3	2787.4
1023.8213	2968.2714	3654.65	2766.25
1023.9346	2969.3516	3660.6	2771.7
1024.0478	2970.4312	3658.95	2759.05
1024.1609	2971.5102	3632.4	2743.35
1024.274	2972.5885	3628.15	2740.2
1024.3871	2973.6662	3634.35	2738.1
1024.5002	2974.7432	3615.45	2725.85
1024.6132	2975.8196	3597.45	2706.55
1024.7261	2976.8954	3577.1	2688.85
1024.839	2977.9705	3554.9	2663.55
1024.9519	2979.045	3542.85	2652.3
1025.0647	2980.1188	3520.25	2631
1025.1775	2981.192	3490.35	2601.5
1025.2902	2982.2645	3475.75	2585.3
1025.4029	2983.3364	3432.55	2543.1
1025.5156	2984.4077	3391.8	2502.85
1025.6282	2985.4783	3368.25	2472.95
1025.7407	2986.5483	3321.85	2433.85
1025.8532	2987.6177	3282.8	2394.35
1025.9657	2988.6864	3239.3	2347.65
1026.0782	2989.7545	3199.2	2309.7
1026.1906	2990.8219	3168.9	2278.05
1026.3029	2991.8887	3123.9	2231.1
1026.4152	2992.9548	3090.1	2200.8
1026.5275	2994.0204	3056.6	2169.55
1026.6397	2995.0852	3025.7	2137.45
1026.7519	2996.1495	2989.15	2097.95
1026.864	2997.2131	2973.6	2082.35
1026.9761	2998.276	2932.9	2042.45
1027.0882	2999.3383	2912.35	2021.45
1027.2002	3000.4	2882.5	1991.55
1027.3122	3001.4611	2870.15	1979.2
1027.4241	3002.5215	2855.05	1963.45
1027.536	3003.5812	2822.55	1932.35
1027.6478	3004.6404	2814.1	1922.6
1027.7596	3005.6989	2800.8	1909.7
1027.8714	3006.7567	2786	1896.9
1027.9831	3007.8139	2777.2	1865.35
1028.0947	3008.8705	2760.15	1871.85
1028.2064	3009.9264	2746.35	1852.3
1028.3179	3010.9818	2728.85	1839.35
1028.4295	3012.0364	2729.1	1839.2
1028.541	3013.0905	2707.2	1817.45
1028.6524	3014.1439	2706.2	1814.5
1028.7638	3015.1966	2689.15	1800.25
1028.8752	3016.2487	2685.6	1795.1
1028.9865	3017.3002	2697.1	1804.7
1029.0978	3018.3511	2674.4	1786.55
1029.209	3019.4013	2690.1	1800.9
1029.3202	3020.4509	2667.15	1778.8
1029.4314	3021.4998	2674.9	1786.1
1029.5425	3022.5481	2662.75	1772.8
1029.6535	3023.5958	2660.75	1769.9
1029.7645	3024.6428	2654.2	1762.6
1029.8755	3025.6892	2645.5	1755.35
1029.9864	3026.735	2643.75	1753.5
1030.0973	3027.7802	2638.95	1751.9
1030.2082	3028.8247	2632.75	1744.05
1030.319	3029.8685	2631.5	1741.65
1030.4297	3030.9118	2633.3	1743.95
1030.5404	3031.9544	2623.35	1734.55
1030.6511	3032.9963	2616.45	1725.75
1030.7617	3034.0376	2628.45	1738.75
1030.8723	3035.0783	2621.1	1729.2
1030.9829	3036.1184	2629.65	1738.9
1031.0934	3037.1578	2616.7	1729.3
1031.2038	3038.1966	2616.75	1726.3
1031.3142	3039.2348	2610.2	1722.7
1031.4246	3040.2723	2604.45	1707.9
1031.5349	3041.3092	2599.15	1711.15
1031.6452	3042.3455	2588.1	1697.35
1031.7554	3043.3811	2578.5	1689.65
1031.8656	3044.4161	2558.95	1669.75
1031.9758	3045.4505	2546.5	1658.6
1032.0859	3046.4842	2546.1	1656.3
1032.1959	3047.5173	2539.9	1651.65
1032.3059	3048.5498	2525.65	1635.15
1032.4159	3049.5816	2521.05	1630.1
1032.5258	3050.6128	2510.65	1619.35
1032.6357	3051.6434	2498.2	1606.5
1032.7455	3052.6734	2487.5	1596.85
1032.8553	3053.7027	2468.1	1577.95
1032.9651	3054.7314	2462.75	1574.25
1033.0748	3055.7594	2457.25	1568.85
1033.1845	3056.7868	2444	1553.15
1033.2941	3057.8136	2435.2	1546.85
1033.4037	3058.8398	2418.8	1530.75
1033.5132	3059.8653	2416.85	1527.6
1033.6227	3060.8902	2400.75	1510.75
1033.7321	3061.9145	2393.55	1504.2
1033.8415	3062.9381	2377.4	1488.35
1033.9509	3063.9612	2384.1	1478.2
1034.0602	3064.9835	2357.75	1468.25
1034.1694	3066.0053	2359.5	1467
1034.2787	3067.0264	2341.6	1450.5
1034.3878	3068.0469	2341.85	1451.7
1034.497	3069.0668	2313.95	1421.35
1034.6061	3070.086	2301.65	1414.05
1034.7151	3071.1046	2292.4	1403.6
1034.8241	3072.1226	2278.55	1387.95
1034.9331	3073.1399	2264.15	1373.5
1035.042	3074.1567	2253.6	1363.35
1035.1508	3075.1727	2238.1	1346.25
1035.2597	3076.1882	2219.55	1328.9
1035.3684	3077.203	2207.35	1318
1035.4772	3078.2173	2205.7	1315.9
1035.5859	3079.2308	2186	1293.5
1035.6945	3080.2438	2180.65	1290
1035.8031	3081.2561	2159.05	1268.9
1035.9117	3082.2678	2146.55	1257.05
1036.0202	3083.2789	2146.45	1257.55
1036.1286	3084.2893	2134.35	1244.35
1036.2371	3085.2991	2127.6	1236.4
1036.3454	3086.3083	2112.55	1217.05
1036.4538	3087.3169	2099.8	1209.7
1036.562	3088.3248	2091.05	1200.85
1036.6703	3089.3321	2085.65	1194.3
1036.7785	3090.3388	2078.15	1191.3
1036.8866	3091.3449	2059.75	1169.6
1036.9948	3092.3503	2056.75	1164.1
1037.1028	3093.3551	2056.4	1168.3
1037.2108	3094.3593	2048.7	1161.35
1037.3188	3095.3629	2032.15	1143.3
1037.4267	3096.3658	2033.3	1142.85
1037.5346	3097.3681	2018.65	1128.45
1037.6425	3098.3698	2010.1	1119.95
1037.7503	3099.3708	2004.9	1108.75
1037.858	3100.3713	1994.15	1107.1
1037.9657	3101.3711	1984.25	1093.45
1038.0734	3102.3702	2101.85	1078.5
1038.181	3103.3688	2004.55	1111.05
1038.2886	3104.3667	1965.4	1076
1038.3961	3105.364	1959.4	1070.65
1038.5036	3106.3607	1959.35	1069.8
1038.611	3107.3568	1945	1052.4
1038.7184	3108.3522	1946.3	1055.7
1038.8257	3109.347	1936.35	1047.7
1038.933	3110.3412	1931.35	1039.8
1039.0403	3111.3348	1920.4	1031.05
1039.1475	3112.3277	1912.25	1021.85
1039.2547	3113.32	1902.15	1015.05
1039.3618	3114.3117	1911.4	1021.7
1039.4689	3115.3028	1898.2	1007.75
1039.5759	3116.2932	1898.7	1007
1039.6829	3117.2831	1894.65	999.65
1039.7898	3118.2723	1880	989.85
1039.8967	3119.2608	1869	979.75
1040.0035	3120.2488	1875	985.4
1040.1103	3121.2361	1859.45	970.65
1040.2171	3122.2229	1852.15	962.7
1040.3238	3123.209	1858.1	968.65
1040.4305	3124.1944	1846.95	959.05
1040.5371	3125.1793	1842.6	953.15
1040.6437	3126.1635	1837	947.2
1040.7502	3127.1471	1832.6	942.65
1040.8567	3128.1301	1826.95	938.25
1040.9631	3129.1125	1812.95	924.5
1041.0695	3130.0942	1821	929.15
1041.1759	3131.0753	1830.75	933.7
1041.2822	3132.0558	1805.85	911.4
1041.3884	3133.0357	1809.45	919.95
1041.4946	3134.015	1794.9	903.6
1041.6008	3134.9936	1791.7	898.7
1041.7069	3135.9716	1806.6	897.9
1041.813	3136.949	1791	901.35
1041.919	3137.9258	1783	889.1
1042.025	3138.902	1793.35	899.95
1042.1309	3139.8775	1783.2	894.7
1042.2368	3140.8524	1771.7	882.1
1042.3427	3141.8267	1769.95	880
1042.4485	3142.8004	1766.8	875
1042.5542	3143.7735	1766.95	874.25
1042.6599	3144.7459	1765.85	875.45
1042.7656	3145.7178	1758.35	868.35
1042.8712	3146.689	1747.25	857.25
1042.9768	3147.6596	1748.3	856.45
1043.0823	3148.6295	1738.05	847.45
1043.1878	3149.5989	1732.95	842.1
1043.2932	3150.5676	1722.3	832.6
1043.3986	3151.5357	1723	836.35
1043.5039	3152.5032	1714.05	824.35
1043.6092	3153.4701	1720.5	832.85
1043.7145	3154.4364	1711.8	818.55
1043.8197	3155.402	1692	802.65
1043.9248	3156.367	1706.25	815.15
1044.03	3157.3315	1723	788.35
1044.135	3158.2952	1691.85	803.9
1044.24	3159.2584	1676.5	786.25
1044.345	3160.221	1679.3	788.3
1044.4499	3161.1829	1676.1	786.5
1044.5548	3162.1442	1661.65	770.8
1044.6596	3163.105	1668.45	779.25
1044.7644	3164.065	1655.6	764.45
1044.8692	3165.0245	1658.25	767.4
1044.9739	3165.9834	1652.8	765.15
1045.0785	3166.9416	1649.65	761.9
1045.1831	3167.8993	1645.7	756.5
1045.2877	3168.8563	1636.1	746.55
1045.3922	3169.8127	1635.05	745.7
1045.4966	3170.7684	1629.35	740.3
1045.6011	3171.7236	1627.65	737.4
1045.7054	3172.6782	1622.8	732.75
1045.8098	3173.6321	1615.35	723.6
1045.914	3174.5854	1615.3	720.2
1046.0183	3175.5381	1620.75	732.5
1046.1224	3176.4902	1602.2	713.4
1046.2266	3177.4417	1598.8	710.85
1046.3307	3178.3926	1600.55	712.15
1046.4347	3179.3428	1586.6	698.8
1046.5387	3180.2924	1580.5	692.75
1046.6427	3181.2415	1595.65	703.4
1046.7466	3182.1899	1587	697.15
1046.8504	3183.1377	1576.85	686.95
1046.9542	3184.0848	1576.55	683.4
1047.058	3185.0314	1571.9	681.15
1047.1617	3185.9773	1562.15	673
1047.2654	3186.9227	1561	671.9
1047.369	3187.8674	1562.3	670.95
1047.4726	3188.8115	1555.65	662.15
1047.5761	3189.755	1557.1	665.9
1047.6796	3190.6979	1544.95	655.1
1047.783	3191.6402	1549.15	660.95
1047.8864	3192.5818	1544.35	656.2
1047.9898	3193.5229	1549.55	648
1048.0931	3194.4633	1535.3	645.85
1048.1963	3195.4031	1538.55	649.3
1048.2995	3196.3423	1538.8	650.2
1048.4027	3197.2809	1529.65	640.35
1048.5058	3198.2189	1524	632.85
1048.6089	3199.1563	1528.8	634.1
1048.7119	3200.0931	1512.8	623.75
1048.8148	3201.0292	1516.7	627.95
1048.9178	3201.9648	1505.45	615.6
1049.0206	3202.8997	1512.8	619
1049.1235	3203.834	1507.2	619.4
1049.2262	3204.7677	1499.1	610.15
1049.329	3205.7008	1496.1	603.55
1049.4317	3206.6333	1490.45	603.75
1049.5343	3207.5652	1494.55	604.35
1049.6369	3208.4964	1483.6	593.95
1049.7394	3209.4271	1485.3	597.75
1049.8419	3210.3571	1481.85	592.8
1049.9444	3211.2865	1479.7	588
1050.0468	3212.2154	1485.3	595.85
1050.1491	3213.1436	1480.35	588.75
1050.2514	3214.0712	1484.25	588
1050.3537	3214.9982	1466.35	576.25
1050.4559	3215.9246	1465.35	576.8
1050.5581	3216.8503	1465.3	576.65
1050.6602	3217.7755	1454.9	565.65
1050.7623	3218.7001	1460.7	570.8
1050.8643	3219.624	1461.8	571.1
1050.9663	3220.5473	1454.1	565.8
1051.0682	3221.4701	1448.3	557.15
1051.1701	3222.3922	1448.4	556.55
1051.2719	3223.3137	1440.4	551.85
1051.3737	3224.2346	1439.7	552.1
1051.4754	3225.1549	1435	546.85
1051.5771	3226.0746	1431	543.65
1051.6788	3226.9937	1430.9	542.3
1051.7804	3227.9121	1420.15	534
1051.8819	3228.83	1425.25	533.85
1051.9834	3229.7473	1425.35	537.45
1052.0849	3230.6639	1420	531.65
1052.1863	3231.5799	1409.7	520.05
1052.2876	3232.4954	1413.15	524.4
1052.3889	3233.4102	1405.6	517.3
1052.4902	3234.3244	1414.5	525.3
1052.5914	3235.238	1405.9	517.45
1052.6926	3236.151	1422.9	510.25
1052.7937	3237.0634	1396.4	506.9
1052.8948	3237.9752	1401.05	514.95
1052.9958	3238.8864	1396.5	507.35
1053.0968	3239.797	1383.7	495.3
1053.1977	3240.7069	1389.9	500.2
1053.2986	3241.6163	1380.9	489.25
1053.3994	3242.5251	1374.75	485.35
1053.5002	3243.4332	1377.2	488.5
1053.6009	3244.3408	1376.95	487.8
1053.7016	3245.2477	1371.7	483.8
1053.8022	3246.154	1372.15	482.95
1053.9028	3247.0598	1365.05	475.35
1054.0034	3247.9649	1368.25	478.75
1054.1039	3248.8694	1352.9	463.85
1054.2043	3249.7733	1358.05	469.45
1054.3047	3250.6766	1353.25	464.3
1054.4051	3251.5793	1351.55	463.7
1054.5054	3252.4814	1352.25	465.6
1054.6056	3253.3829	1344.3	455.55
1054.7058	3254.2838	1340.4	451.5
1054.806	3255.1841	1335.45	447.95
1054.9061	3256.0838	1335.15	445.6
1055.0061	3256.9829	1325.55	438.15
1055.1062	3257.8814	1328.55	439.25
1055.2061	3258.7792	1327.6	436.4
1055.306	3259.6765	1322.4	431.95
1055.4059	3260.5731	1312.8	424.05
1055.5057	3261.4692	1306.85	417.65
1055.6055	3262.3647	1312.15	422.45
1055.7052	3263.2595	1297.95	410.1
1055.8049	3264.1538	1291.8	402.9
1055.9045	3265.0474	1281.75	391.4
1056.0041	3265.9404	1275.75	387.15
1056.1036	3266.8329	1275	387.25
1056.2031	3267.7247	1273.7	376.25
1056.3025	3268.616	1256.65	369.95
1056.4019	3269.5066	1251.3	362.7
1056.5013	3270.3966	1238.25	347.85
1056.6005	3271.286	1231.3	341.05
