Software Version:	3.9.2.0
Unit SN:	10000200
Spectrometer SN:	6960
Date:	3/6/2024 10:00:05 AM
Data Line Index:	25
Spectral Points:	2048
Integration time (ms):	125
Averages:	20
Delay (ms):	30
Sequence Number:	1
Processing:	dark subtract
Laser Power (mW):	300
Laser Current (mA):	824
Laser Diode Temp (C):	25.1
Laser Case Temp (C):	24.6
System Temp (C):	24.4
Spectrometer Temp (C):	22
CCD Temp (C):	0
Secondary Temp (C):	20.006
Heatsink Temp (C):	18.28
CCDPCB Temp (C):	31.005
SecondaryPCB Temp (C):	26.303

Wavelength	RamanShift	Raw Counts	Dark Subtracted
787.061	30.1047	694.75	285.65
787.2016	32.3739	698.4	291.1
787.3422	34.6426	716.05	308.2
787.4828	36.9109	739.2	331.1
787.6235	39.1787	762.75	349
787.7642	41.4461	786.35	367.7
787.9049	43.7131	812.1	393.7
788.0456	45.9796	841	417.45
788.1863	48.2456	866.5	439
788.3271	50.5112	897.5	464.5
788.4679	52.7764	925.95	489
788.6087	55.0411	963.4	524.5
788.7496	57.3054	997.9	553.15
788.8904	59.5692	1028.95	583.95
789.0313	61.8326	1068.55	622.25
789.1722	64.0955	1116.45	665.9
789.3132	66.3579	1165.8	708.85
789.4541	68.6199	1237.05	777.8
789.5951	70.8815	1347.85	884.45
789.7361	73.1426	1606.25	1138.6
789.8771	75.4032	2239	1768.45
790.0181	77.6634	3852.2	3377.65
790.1592	79.9231	7897.25	7418.3
790.3003	82.1824	18177.05	17688.7
790.4414	84.4412	40194.2	39686.6
790.5825	86.6995	52461.4	51937.55
790.7237	88.9574	57117.2	56580
790.8648	91.2148	59754.9	59206.7
791.006	93.4717	60620.7	60059.15
791.1472	95.7282	61005.7	60441.65
791.2885	97.9842	61221.55	60657.05
791.4297	100.2398	61236.85	60670.55
791.571	102.4949	61203.1	60632.9
791.7123	104.7495	61257.5	60683.15
791.8536	107.0036	61146	60570.25
791.9949	109.2573	61309.4	60735.85
792.1363	111.5105	61181.15	60603.15
792.2777	113.7632	61244.6	60663.25
792.4191	116.0154	61310.8	60722.4
792.5605	118.2672	61412.15	60828.95
792.7019	120.5185	61417.3	60833.45
792.8434	122.7693	61430.6	60841.95
792.9849	125.0197	61301.2	60705.45
793.1264	127.2696	61574.65	60977.8
793.2679	129.519	61561.5	60962.4
793.4094	131.7679	61671.45	61067.95
793.551	134.0163	61377.6	60774.5
793.6926	136.2642	61504.15	60897.85
793.8342	138.5117	61687.35	61073.05
793.9758	140.7587	61604.05	60991.25
794.1175	143.0052	61622.95	61006.75
794.2591	145.2512	61472.9	60856.9
794.4008	147.4967	61662.6	61043.95
794.5425	149.7417	61596	60975.8
794.6842	151.9863	61599.55	60975.25
794.826	154.2304	61479.25	60849.7
794.9677	156.4739	61564.5	60929.55
795.1095	158.717	61686.35	61050.85
795.2513	160.9596	61632.5	60994.2
795.3931	163.2017	61483.35	60842.15
795.535	165.4433	61633.75	60990.3
795.6768	167.6844	61551.95	60911.1
795.8187	169.925	61651.65	61005.2
795.9606	172.1651	61555.65	60905.55
796.1025	174.4047	61574.65	60918
796.2445	176.6439	61580.3	60926.1
796.3864	178.8825	61548.5	60889.2
796.5284	181.1206	61656	60995.15
796.6704	183.3582	61662.75	60995.6
796.8124	185.5954	61584.4	60916.55
796.9544	187.832	61619	60947.6
797.0965	190.0681	61523.2	60845.6
797.2386	192.3037	61692.85	61010.95
797.3806	194.5388	61875.25	61193.2
797.5228	196.7734	61487.35	60804.8
797.6649	199.0075	61821.5	61135
797.807	201.2411	61735.85	61051.7
797.9492	203.4742	61923.9	61235.75
798.0914	205.7068	61877.9	61186.75
798.2336	207.9389	61877.95	61181.2
798.3758	210.1704	61864.5	61173.8
798.518	212.4015	62022.65	61341.2
798.6603	214.632	61821.4	61150.6
798.8025	216.862	62036.05	61367.4
798.9448	219.0915	61957.6	61282.35
799.0871	221.3205	61928.25	61250.3
799.2294	223.549	62098.4	61427.2
799.3718	225.777	62069.2	61397.8
799.5141	228.0044	62158.9	61480.4
799.6565	230.2314	62087.45	61405.2
799.7989	232.4578	62092.15	61407.35
799.9413	234.6837	62129.55	61440.25
800.0837	236.909	62452	61760.2
800.2262	239.1339	62010.6	61291.1
800.3687	241.3582	62198.2	61494.1
800.5111	243.582	62221.95	61485.65
800.6536	245.8053	62238.2	61515.15
800.7961	248.0281	62257.9	61543.05
800.9387	250.2503	62296.45	61573.5
801.0812	252.472	62186.85	61464.05
801.2238	254.6932	62277.95	61555.2
801.3664	256.9139	62217.6	61492.25
801.509	259.134	62500.25	61770.25
801.6516	261.3536	62182.45	61454.8
801.7942	263.5727	62366.2	61635.55
801.9369	265.7912	62255.35	61526.3
802.0795	268.0092	62303.15	61572.85
802.2222	270.2267	62342.15	61611.75
802.3649	272.4436	62224.95	61498.3
802.5076	274.6601	62366.8	61625.8
802.6504	276.8759	62432.8	61694.2
802.7931	279.0913	62343.7	61606.45
802.9359	281.3061	62371.55	61631.85
803.0787	283.5204	62395.05	61651.25
803.2215	285.7341	62396.35	61649.2
803.3643	287.9473	62516.15	61761.2
803.5071	290.16	62403.85	61655.7
803.6499	292.3721	62482.15	61741.6
803.7928	294.5837	62356.75	61612.15
803.9357	296.7947	62272.05	61525.65
804.0786	299.0052	62489.45	61743.5
804.2215	301.2152	62380.4	61633.55
804.3644	303.4246	62492.75	61748.15
804.5074	305.6334	62507.45	61760.25
804.6503	307.8418	62344	61592.5
804.7933	310.0495	62373.25	61621.7
804.9363	312.2568	62348.25	61596.65
805.0793	314.4635	62309.1	61552.75
805.2223	316.6696	62390.55	61629.5
805.3653	318.8752	62483.15	61714.8
805.5084	321.0802	62169.2	61411.1
805.6514	323.2847	62317.25	61558.45
805.7945	325.4887	62289.4	61527.75
805.9376	327.692	62223.1	61459.7
806.0807	329.8949	62313.1	61546.05
806.2238	332.0972	62258.1	61489.35
806.367	334.2989	62293.2	61520.75
806.5101	336.5001	62393.45	61624.25
806.6533	338.7007	62175.5	61409.3
806.7965	340.9008	62298.55	61529.45
806.9397	343.1003	62302.4	61529.25
807.0829	345.2992	62398.95	61625.85
807.2261	347.4976	62286.85	61510.4
807.3693	349.6955	62346.95	61569.55
807.5126	351.8927	62246.7	61467.3
807.6559	354.0895	62328.4	61535.6
807.7991	356.2856	62332.45	61551.3
807.9424	358.4812	62434.3	61653.2
808.0857	360.6763	62253.2	61468.35
808.2291	362.8707	62425.4	61638.1
808.3724	365.0646	62314.25	61525.25
808.5158	367.258	62304.8	61517.9
808.6591	369.4508	62205.85	61410.8
808.8025	371.643	62373	61580.75
808.9459	373.8346	62304.6	61508.7
809.0893	376.0257	62317.5	61519
809.2327	378.2162	62257.9	61459.5
809.3762	380.4062	62104.95	61307.4
809.5196	382.5956	62227.5	61429.45
809.6631	384.7844	62221.25	61428.65
809.8066	386.9726	62287.05	61496.4
809.9501	389.1603	62284.2	61494.65
810.0936	391.3474	62160.85	61338.7
810.2371	393.5339	62301.95	61508.9
810.3806	395.7199	62112.95	61320.4
810.5241	397.9052	62142.95	61353.7
810.6677	400.09	62144	61355.1
810.8113	402.2743	62275	61483.5
810.9548	404.4579	62130.6	61334
811.0984	406.641	62158.3	61362.05
811.2421	408.8235	62228.7	61431.4
811.3857	411.0054	62233.7	61434.35
811.5293	413.1868	62229.6	61425.6
811.673	415.3675	62178.6	61371.45
811.8166	417.5477	62189.05	61383.25
811.9603	419.7273	62171.2	61364.4
812.104	421.9064	62159.2	61342.3
812.2477	424.0848	62158.35	61349.3
812.3914	426.2627	62248.65	61441.45
812.5351	428.4399	62090.25	61280.45
812.6788	430.6166	61994.75	61180.9
812.8226	432.7928	62124.35	61306.45
812.9663	434.9683	62007.7	61187.35
813.1101	437.1432	61985.35	61169.55
813.2539	439.3176	62071.35	61256.4
813.3977	441.4914	61895.65	61085.8
813.5415	443.6645	61927.85	61114.6
813.6853	445.8371	61948.4	61133.55
813.8291	448.0091	61840.95	61023.9
813.973	450.1806	61782.3	60965.15
814.1168	452.3514	61800.6	60981.1
814.2607	454.5216	61734.15	60907.7
814.4046	456.6913	61779.8	60956.45
814.5485	458.8603	61849.45	61030.65
814.6924	461.0288	61735.15	60917.65
814.8363	463.1967	61809.55	60991.6
814.9802	465.3639	61798.45	60979.25
815.1241	467.5306	61636.9	60815.6
815.2681	469.6967	61699.75	60877.45
815.412	471.8622	61765.05	60947.75
815.556	474.0271	61676.35	60857.3
815.7	476.1914	61689.65	60865.8
815.844	478.3551	61714.05	60891.1
815.988	480.5182	61841.15	61017.35
816.132	482.6807	61670.85	60848.8
816.276	484.8426	61714.1	60896.7
816.4201	487.0039	61849.35	61026.3
816.5641	489.1647	61831	61005.55
816.7082	491.3248	61669.1	60842.95
816.8522	493.4843	61826.15	61004.25
816.9963	495.6432	61838.7	61015.1
817.1404	497.8015	61670.45	60838
817.2845	499.9592	61760.35	60926.4
817.4286	502.1163	61761.6	60929.3
817.5727	504.2728	61705.15	60869.6
817.7168	506.4287	61705.3	60880.3
817.861	508.5839	61632.05	60806.45
818.0051	510.7386	61674.6	60845.2
818.1493	512.8927	61705.85	60874.35
818.2935	515.0461	61669.85	60834.8
818.4377	517.199	61772.15	60939.25
818.5818	519.3512	61678	60845.2
818.726	521.5029	61635.8	60796.3
818.8703	523.6539	61674.9	60841.15
819.0145	525.8043	61547.25	60709.75
819.1587	527.9541	61642.75	60803.45
819.303	530.1033	61624.05	60786.25
819.4472	532.2519	61579.3	60742.3
819.5915	534.3999	61656.45	60814.1
819.7357	536.5472	61717.35	60876.5
819.88	538.694	61543	60705.65
820.0243	540.8401	61632.6	60792.5
820.1686	542.9856	61642.35	60799.1
820.3129	545.1305	61694.85	60844.75
820.4572	547.2748	61593.6	60744.35
820.6016	549.4185	61593.8	60745.95
820.7459	551.5615	61649	60800.8
820.8902	553.704	61612.6	60767.55
821.0346	555.8458	61535.7	60691.55
821.1789	557.987	61587.4	60741.8
821.3233	560.1276	61606	60759.5
821.4677	562.2675	61568.8	60722.05
821.6121	564.4069	61567.35	60723.25
821.7565	566.5456	61607.8	60763.05
821.9009	568.6837	61530.05	60686.1
822.0453	570.8212	61553.7	60708.25
822.1897	572.958	61414.9	60565.65
822.3342	575.0942	61520.8	60675.15
822.4786	577.2299	61417.85	60574.65
822.6231	579.3648	61370.4	60528.65
822.7675	581.4992	61319.35	60482.05
822.912	583.6329	61304.5	60463.95
823.0565	585.766	61328.05	60486.4
823.201	587.8985	61342.2	60502.35
823.3454	590.0304	61189.25	60333
823.4899	592.1616	61272.4	60420.4
823.6345	594.2922	61216.8	60363.4
823.779	596.4222	61156.8	60300.5
823.9235	598.5515	61150.7	60296.15
824.068	600.6802	61217.85	60365.25
824.2126	602.8083	61105.8	60253.3
824.3571	604.9358	61102.1	60248.85
824.5017	607.0626	61133.05	60277.5
824.6462	609.1888	61058.35	60196.75
824.7908	611.3144	61105.85	60247.3
824.9354	613.4393	61016.2	60158.1
825.08	615.5636	61003.9	60146.15
825.2246	617.6873	61018	60161.1
825.3692	619.8103	60974.85	60115.6
825.5138	621.9327	61014.1	60154.95
825.6584	624.0544	61027.2	60171.5
825.803	626.1756	60949.25	60093.8
825.9477	628.2961	60953.65	60095.7
826.0923	630.4159	60900.3	60042.8
826.237	632.5351	60917.9	60058.05
826.3816	634.6537	61013.45	60149.15
826.5263	636.7716	60865	59998.85
826.6709	638.8889	60874.7	60009.7
826.8156	641.0056	60884.1	60021.55
826.9603	643.1216	60920.35	60055.95
827.105	645.237	60931.1	60067.35
827.2497	647.3518	60848.4	59986.6
827.3944	649.4659	60868.55	60007.05
827.5391	651.5793	60862.3	60002.5
827.6838	653.6922	60862.7	60001.5
827.8285	655.8043	60772.35	59911.15
827.9733	657.9159	60914.35	60047.2
828.118	660.0268	60657.2	59792.1
828.2627	662.137	60748.4	59883.55
828.4075	664.2466	60771.25	59898.75
828.5522	666.3556	60731.3	59863.75
828.697	668.4639	60742.1	59874.05
828.8418	670.5716	60701.05	59836.8
828.9865	672.6786	60735.9	59867.75
829.1313	674.785	60647.8	59777.55
829.2761	676.8907	60638.2	59770.75
829.4209	678.9958	60650.2	59785.05
829.5657	681.1002	60671.1	59801.5
829.7105	683.204	60590.4	59714.85
829.8553	685.3072	60531.5	59660.9
830.0001	687.4097	60564.75	59694
830.1449	689.5115	60529.8	59658.7
830.2898	691.6127	60614.95	59746.45
830.4346	693.7132	60518.05	59653.2
830.5794	695.8131	60558.35	59663.05
830.7243	697.9123	60536.85	59662.6
830.8691	700.0109	60539	59662.3
831.014	702.1089	60416.2	59545.75
831.1588	704.2061	60459.6	59584.9
831.3037	706.3028	60465.65	59589.95
831.4486	708.3987	60463	59590.55
831.5935	710.4941	60416.1	59540.65
831.7383	712.5887	60455.4	59581.95
831.8832	714.6827	60405.45	59528.95
832.0281	716.7761	60445.8	59571.55
832.173	718.8688	60451.85	59578.3
832.3179	720.9608	60358.75	59477.75
832.4628	723.0522	60398.85	59520.6
832.6077	725.1429	60347.95	59471.35
832.7527	727.233	60456.3	59580.55
832.8976	729.3224	60199.5	59322.4
833.0425	731.4112	60273.35	59396
833.1874	733.4993	60261.35	59384.05
833.3324	735.5867	60272.5	59393.2
833.4773	737.6735	60168.25	59290.65
833.6222	739.7596	60105.85	59228.15
833.7672	741.845	60087	59208.3
833.9122	743.9298	60163	59283.25
834.0571	746.014	60081.2	59206.2
834.2021	748.0974	59989.15	59108.15
834.347	750.1802	60092.95	59212.25
834.492	752.2624	59930.85	59051.25
834.637	754.3439	59916.25	59032.4
834.782	756.4247	59917.75	59029.2
834.9269	758.5048	59814.35	58932.6
835.0719	760.5843	59835.5	58954.35
835.2169	762.6631	59849.35	58967.45
835.3619	764.7413	59810.8	58931.2
835.5069	766.8188	59848.45	58963.25
835.6519	768.8956	59831.2	58945.9
835.7969	770.9718	59813.65	58933.75
835.9419	773.0473	59765.5	58884.05
836.0869	775.1221	59676.15	58795.65
836.232	777.1962	59627.45	58744.05
836.377	779.2697	59506.2	58623.3
836.522	781.3426	59545.7	58641.3
836.667	783.4147	59551.6	58665.3
836.8121	785.4862	59506.1	58622.8
836.9571	787.557	59385.6	58498.8
837.1021	789.6271	59479.75	58594.15
837.2472	791.6966	59405.15	58519.4
837.3922	793.7654	59274.05	58388.85
837.5373	795.8335	59276	58393.3
837.6823	797.901	59299.9	58414.8
837.8274	799.9678	59204.45	58317.2
837.9724	802.0339	59179.95	58294.95
838.1175	804.0993	59206.35	58309.55
838.2626	806.1641	59125.05	58237.6
838.4076	808.2282	59068.8	58184.75
838.5527	810.2916	59026.45	58140.5
838.6978	812.3544	59110.45	58226.55
838.8428	814.4164	58968.7	58084.1
838.9879	816.4778	58975.2	58087.85
839.133	818.5385	58958.9	58071.4
839.2781	820.5986	58960.55	58074.4
839.4232	822.658	58955.35	58067.7
839.5682	824.7166	58928.45	58042.3
839.7133	826.7747	58857.7	57968.25
839.8584	828.832	58899.25	58010.35
840.0035	830.8886	58903.05	58011.1
840.1486	832.9446	58899.1	58010.15
840.2937	834.9999	58705.85	57818.55
840.4388	837.0545	58782.85	57889.15
840.5839	839.1085	58788.35	57897.2
840.729	841.1618	58750	57857.85
840.8741	843.2143	58587.55	57697.8
841.0192	845.2662	58552.3	57662.85
841.1643	847.3175	58600.65	57710
841.3095	849.368	58447.75	57555.5
841.4546	851.4179	58555.8	57666.3
841.5997	853.467	58419.45	57531
841.7448	855.5155	58440.7	57550.15
841.8899	857.5633	58377.3	57486.2
842.0351	859.6105	58290.5	57399.3
842.1802	861.6569	58338.1	57446.6
842.3253	863.7027	58264.25	57370.2
842.4704	865.7478	58304.4	57414.05
842.6156	867.7922	58280.1	57389.5
842.7607	869.8359	58278.75	57387.15
842.9058	871.8789	58166.9	57274.25
843.0509	873.9212	58202.05	57275.8
843.1961	875.9629	58113.05	57217.75
843.3412	878.0039	58140.25	57245.35
843.4863	880.0441	58091.6	57202.85
843.6315	882.0837	58093.2	57199.75
843.7766	884.1226	58098.95	57206.25
843.9218	886.1609	58084.05	57192.5
844.0669	888.1984	58045.85	57152.55
844.212	890.2352	58114.25	57221.85
844.3572	892.2714	58011.2	57112.15
844.5023	894.3069	58048.85	57156.1
844.6475	896.3416	57984.4	57089.4
844.7926	898.3757	57961.3	57067.3
844.9377	900.4091	57841.35	56944.15
845.0829	902.4418	57912	57010.8
845.228	904.4739	57848.9	56953.35
845.3732	906.5052	57843.6	56947.2
845.5183	908.5358	57772.1	56877.15
845.6635	910.5658	57728.6	56831.65
845.8086	912.595	57731.75	56837
845.9538	914.6236	57627.55	56730.6
846.0989	916.6515	57755.25	56859.05
846.2441	918.6786	57590.4	56693.2
846.3892	920.7051	57589	56689.2
846.5344	922.7309	57589.55	56694
846.6795	924.756	57533.15	56639.2
846.8246	926.7804	57513.85	56614.65
846.9698	928.8041	57367.05	56470.35
847.1149	930.8272	57443.8	56548.4
847.2601	932.8495	57370.25	56471.9
847.4052	934.8711	57302.8	56404.2
847.5504	936.892	57259	56358.95
847.6955	938.9123	57228.9	56331.1
847.8407	940.9318	57171.2	56272.95
847.9858	942.9506	57126.85	56229.6
848.131	944.9688	57113.9	56217.35
848.2761	946.9862	57009.6	56109.25
848.4213	949.003	57018.3	56121.95
848.5664	951.019	56913.65	56017.65
848.7115	953.0344	56883.55	55983.05
848.8567	955.0491	56876.55	55979.85
849.0018	957.063	56875.2	55976.75
849.147	959.0763	56885.45	55988
849.2921	961.0888	56822.3	55921.95
849.4373	963.1007	56837.1	55941.75
849.5824	965.1119	56822.3	55926.45
849.7275	967.1223	56780.2	55884.85
849.8727	969.1321	56786.65	55893.9
850.0178	971.1412	56700.9	55804.45
850.1629	973.1495	56657.3	55760.3
850.3081	975.1572	56669.8	55732.1
850.4532	977.1641	56652.55	55754.45
850.5983	979.1704	56599.6	55699.5
850.7435	981.1759	56590.25	55689.75
850.8886	983.1808	56522.85	55623.55
851.0337	985.1849	56496.95	55584.8
851.1788	987.1884	56497.3	55595.3
851.324	989.1911	56446.75	55549.1
851.4691	991.1932	56416.85	55517.9
851.6142	993.1945	56357.05	55458.8
851.7593	995.1951	56314.15	55415.8
851.9045	997.1951	56300.9	55396.7
852.0496	999.1943	56257.1	55356.85
852.1947	1001.1928	56186.15	55286.65
852.3398	1003.1906	56129.85	55231.15
852.4849	1005.1877	56113.95	55214.8
852.63	1007.1841	56064.25	55167.45
852.7751	1009.1798	56028.95	55129.35
852.9202	1011.1748	55952.1	55051.25
853.0653	1013.1691	55897.05	54998.55
853.2104	1015.1627	55777.2	54876.75
853.3555	1017.1556	55774.05	54876.9
853.5006	1019.1477	55743.55	54847.05
853.6457	1021.1392	55647.05	54753.25
853.7908	1023.1299	55537.3	54642.25
853.9359	1025.12	55563.5	54669.55
854.081	1027.1093	55468.2	54580.3
854.2261	1029.0979	55426.55	54540.1
854.3712	1031.0859	55363.55	54473.95
854.5163	1033.0731	55265.55	54370.85
854.6613	1035.0596	55295.7	54400.25
854.8064	1037.0454	55202.6	54304.9
854.9515	1039.0304	55157.45	54258.55
855.0965	1041.0148	55018.3	54119.45
855.2416	1042.9985	55007.25	54106.1
855.3867	1044.9814	55045.55	54147.9
855.5317	1046.9636	54912.85	54012.8
855.6768	1048.9452	54906.5	54008.45
855.8219	1050.926	54879.4	53982.4
855.9669	1052.9061	54839.05	53941.9
856.112	1054.8855	54770.1	53871.3
856.257	1056.8642	54736.55	53836.4
856.4021	1058.8421	54678.85	53775.85
856.5471	1060.8194	54652.95	53753.9
856.6921	1062.7959	54553.15	53654.65
856.8372	1064.7717	54657.75	53755.95
856.9822	1066.7469	54600.25	53699.95
857.1272	1068.7213	54569.15	53665.75
857.2723	1070.695	54516.55	53617.9
857.4173	1072.6679	54401.15	53499.85
857.5623	1074.6402	54453.65	53554.75
857.7073	1076.6117	54359.7	53454.4
857.8523	1078.5826	54343.3	53442.65
857.9973	1080.5527	54325.45	53422.2
858.1423	1082.5221	54237.45	53336.05
858.2873	1084.4908	54247.45	53345.45
858.4323	1086.4587	54180.35	53279.05
858.5773	1088.426	54140.7	53239.6
858.7223	1090.3925	54047.45	53139.2
858.8673	1092.3584	54035.75	53134.3
859.0123	1094.3235	53932.9	53033.85
859.1573	1096.2879	53921.1	53020.45
859.3022	1098.2515	53978.55	53078.1
859.4472	1100.2145	53889.35	52990.65
859.5922	1102.1767	53845.05	52943.25
859.7371	1104.1382	53853.25	52952.55
859.8821	1106.099	53805.95	52903.9
860.027	1108.0591	53768.9	52871
860.172	1110.0185	53578.35	52680.1
860.3169	1111.9771	53759.5	52859.75
860.4619	1113.9351	53650.35	52749.8
860.6068	1115.8923	53569.4	52669.15
860.7517	1117.8488	53444.6	52541.65
860.8967	1119.8045	53328.3	52426.55
861.0416	1121.7596	53357.65	52459.5
861.1865	1123.7139	53264.2	52366.55
861.3314	1125.6675	53237.5	52339.75
861.4763	1127.6204	53195.75	52294.65
861.6212	1129.5726	53029	52124.3
861.7661	1131.524	53146	52249.95
861.911	1133.4748	53109.2	52210
862.0559	1135.4248	52945.25	52045.25
862.2008	1137.3741	52899.65	51999.5
862.3457	1139.3226	52863.5	51958.65
862.4905	1141.2705	52866.25	51966.7
862.6354	1143.2176	52821.35	51912.65
862.7803	1145.164	52598.3	51695.85
862.9251	1147.1097	52732.75	51834.35
863.07	1149.0546	52670.75	51770.7
863.2148	1150.9989	52722.05	51821.5
863.3597	1152.9424	52494.55	51591.85
863.5045	1154.8852	52631.1	51732.65
863.6493	1156.8272	52458.3	51556.2
863.7942	1158.7686	52611.2	51701.4
863.939	1160.7092	52310.1	51406.4
864.0838	1162.6491	52326.75	51425.25
864.2286	1164.5883	52412.75	51510.7
864.3734	1166.5267	52225.05	51322.8
864.5182	1168.4644	52344.7	51444.1
864.663	1170.4014	52278	51371.95
864.8078	1172.3377	52369.05	51469.2
864.9526	1174.2732	52404.65	51503.45
865.0974	1176.2081	52320.25	51419.55
865.2421	1178.1421	52247.6	51342.5
865.3869	1180.0755	52410.25	51511.9
865.5317	1182.0082	52348.65	51449.65
865.6764	1183.9401	52363.55	51464.4
865.8212	1185.8713	52127	51230.45
865.9659	1187.8017	52079.15	51182.15
866.1106	1189.7315	52065.3	51173.1
866.2554	1191.6605	51919.75	51027.15
866.4001	1193.5888	51775.8	50881.55
866.5448	1195.5163	51616.85	50718.65
866.6895	1197.4432	51593.85	50691.4
866.8342	1199.3693	51580.25	50680.8
866.9789	1201.2947	51432.8	50525.7
867.1236	1203.2193	51444.4	50545.1
867.2683	1205.1432	51285.25	50386.45
867.413	1207.0664	51262.5	50363
867.5576	1208.9889	51191.45	50285.45
867.7023	1210.9106	51175	50275.9
867.847	1212.8316	51087.35	50189.7
867.9916	1214.7519	51053	50144.8
868.1363	1216.6715	50967.8	50066.7
868.2809	1218.5903	50971.75	50071.35
868.4255	1220.5084	50897.15	49997.9
868.5701	1222.4257	50925.6	50025.95
868.7148	1224.3424	50799.35	49904.05
868.8594	1226.2583	50712.45	49806.25
869.004	1228.1735	50773.5	49872.75
869.1486	1230.0879	50642.8	49741.4
869.2932	1232.0016	50707.75	49808.05
869.4377	1233.9146	50583.15	49681.95
869.5823	1235.8269	50580.6	49679.65
869.7269	1237.7384	50524.05	49624.05
869.8715	1239.6492	50425.95	49526.85
870.016	1241.5592	50356.75	49456.75
870.1606	1243.4686	50341.15	49442.9
870.3051	1245.3772	50267.6	49368.3
870.4496	1247.285	50324.35	49422.7
870.5941	1249.1922	50182.1	49281.8
870.7387	1251.0986	50268.75	49369.25
870.8832	1253.0042	50102.6	49201.05
871.0277	1254.9092	50171.1	49271.4
871.1722	1256.8134	50032.45	49134.05
871.3167	1258.7169	50089.3	49190.85
871.4611	1260.6196	49978.6	49079.6
871.6056	1262.5216	50014.1	49113.35
871.7501	1264.4229	50061.7	49162.95
871.8945	1266.3234	50074.45	49174.85
872.039	1268.2232	50059.3	49158.95
872.1834	1270.1223	49919.35	49017.05
872.3278	1272.0207	49890.85	48992
872.4723	1273.9183	49860.95	48956.55
872.6167	1275.8151	49858	48958.4
872.7611	1277.7113	49805.65	48903.8
872.9055	1279.6067	49708.2	48808.45
873.0499	1281.5014	49685.2	48783.95
873.1943	1283.3953	49738.05	48834.3
873.3386	1285.2885	49750.8	48849.45
873.483	1287.181	49764.55	48866.8
873.6274	1289.0727	49829.85	48933.1
873.7717	1290.9637	49692.7	48792.35
873.9161	1292.854	49868.6	48968.9
874.0604	1294.7435	49760.95	48860.55
874.2047	1296.6323	49747	48846.5
874.349	1298.5204	49628.15	48726.95
874.4933	1300.4077	49672.4	48768.8
874.6376	1302.2943	49562.8	48662.25
874.7819	1304.1802	49465	48568.7
874.9262	1306.0653	49350.5	48447.15
875.0705	1307.9497	49254	48353.7
875.2147	1309.8333	49245.7	48349.5
875.359	1311.7162	49152.05	48252.35
875.5032	1313.5984	49113.85	48212.4
875.6475	1315.4798	48994.75	48095.45
875.7917	1317.3605	48991.45	48074.4
875.9359	1319.2405	48951.1	48047.75
876.0801	1321.1197	48800.8	47899.45
876.2243	1322.9982	48798.35	47891.8
876.3685	1324.876	48724.85	47825.3
876.5127	1326.753	48596.2	47695.45
876.6569	1328.6293	48712.2	47808.3
876.801	1330.5048	48605.3	47702.8
876.9452	1332.3796	48483.95	47585.4
877.0893	1334.2537	48439.1	47515.3
877.2335	1336.127	48444.35	47545.85
877.3776	1337.9996	48349.35	47450.95
877.5217	1339.8714	48361.75	47462.55
877.6658	1341.7426	48192.4	47246.4
877.8099	1343.6129	48276.35	47375.3
877.954	1345.4826	48216.3	47316.35
878.0981	1347.3515	48086.55	47182.15
878.2422	1349.2196	48166.6	47264.9
878.3862	1351.087	48123.15	47223.9
878.5303	1352.9537	48111.9	47212
878.6743	1354.8197	48097.55	47196.4
878.8184	1356.6849	48134.7	47234.95
878.9624	1358.5493	48047.25	47147.05
879.1064	1360.4131	47993	47095.4
879.2504	1362.276	48089	47190.15
879.3944	1364.1383	47919.2	47021.1
879.5384	1365.9998	47826.6	46920.15
879.6823	1367.8606	47757	46855.4
879.8263	1369.7206	47632.8	46731.8
879.9702	1371.5799	47545.95	46641.3
880.1142	1373.4384	47430.25	46530.2
880.2581	1375.2962	47431.75	46530.9
880.402	1377.1533	47179	46278.9
880.5459	1379.0096	47060.25	46160.65
880.6898	1380.8652	46942.75	46043.7
880.8337	1382.7201	46792.55	45895.15
880.9776	1384.5742	46733.8	45832.85
881.1215	1386.4275	46354.95	45453.7
881.2653	1388.2802	46437.5	45537.55
881.4092	1390.132	46452.4	45551.05
881.553	1391.9832	46176.8	45276.6
881.6968	1393.8336	45951.65	45048.65
881.8406	1395.6832	45995.25	45094.25
881.9844	1397.5322	45990.75	45090.4
882.1282	1399.3803	45711.35	44805.9
882.272	1401.2278	45707.2	44807.8
882.4158	1403.0745	45571.15	44672.95
882.5595	1404.9204	45467.9	44570.1
882.7033	1406.7656	45437.6	44537.1
882.847	1408.6101	45201.3	44302.15
882.9908	1410.4538	45233.6	44334.3
883.1345	1412.2968	45176.65	44278.55
883.2782	1414.139	44964.4	44066.35
883.4219	1415.9805	45076.5	44177.5
883.5656	1417.8213	44833.9	43928.8
883.7092	1419.6613	44956.85	44056.4
883.8529	1421.5006	44837	43935.4
883.9965	1423.3391	44741.95	43839.35
884.1402	1425.1769	44762.6	43862.55
884.2838	1427.0139	44940.7	44041.1
884.4274	1428.8502	44881.55	43980.25
884.571	1430.6858	44924.95	44023.55
884.7146	1432.5206	45116.95	44218.2
884.8582	1434.3547	44934.3	44034.75
885.0018	1436.188	44822.95	43924.5
885.1453	1438.0206	44914.85	44014.95
885.2889	1439.8524	44815.65	43911.6
885.4324	1441.6835	44683.75	43783.3
885.5759	1443.5139	44683.05	43780.5
885.7194	1445.3435	44488.05	43589.3
885.8629	1447.1724	44601.15	43702.4
886.0064	1449.0005	44372.5	43476.2
886.1499	1450.8279	44416.25	43518.5
886.2933	1452.6545	44374.1	43474.65
886.4368	1454.4804	44328.2	43432.8
886.5802	1456.3056	44220.3	43315.25
886.7237	1458.13	44195.45	43297.05
886.8671	1459.9536	44291.2	43393.4
887.0105	1461.7766	44079.05	43179.95
887.1539	1463.5987	43856.35	42955.35
887.2972	1465.4202	43768.05	42871.2
887.4406	1467.2409	43660.2	42761.75
887.584	1469.0608	43474.75	42577.25
887.7273	1470.88	43447.25	42548.75
887.8706	1472.6984	43385.65	42486.8
888.0139	1474.5161	43150.6	42248.9
888.1572	1476.3331	43190.7	42295.45
888.3005	1478.1493	43019.2	42117.2
888.4438	1479.9648	42955.4	42054.4
888.5871	1481.7795	42978.5	42079.9
888.7303	1483.5935	43013.25	42114.6
888.8736	1485.4067	42820.55	41920.25
889.0168	1487.2192	42803.25	41906.65
889.16	1489.031	42723.1	41822.95
889.3032	1490.842	42728.7	41831.3
889.4464	1492.6522	42721.6	41821.65
889.5896	1494.4618	42552.05	41650.9
889.7327	1496.2705	42591.2	41691.2
889.8759	1498.0785	42386.4	41487.85
890.019	1499.8858	42385.3	41486.1
890.1622	1501.6924	42420.15	41520.4
890.3053	1503.4981	42272	41375.7
890.4484	1505.3032	42256.65	41358.95
890.5914	1507.1075	42091.65	41191.9
890.7345	1508.911	42092.3	41192.75
890.8776	1510.7138	42038.55	41142
891.0206	1512.5159	42016.5	41117.45
891.1637	1514.3172	41728.3	40830.15
891.3067	1516.1178	41739.55	40842.25
891.4497	1517.9176	41808.75	40908.25
891.5927	1519.7166	41612.15	40714.5
891.7357	1521.515	41526.55	40623.8
891.8786	1523.3126	41435.15	40538.4
892.0216	1525.1094	41465.2	40566.95
892.1645	1526.9055	41345.6	40449.4
892.3074	1528.7008	41212.6	40315.45
892.4503	1530.4954	41032.05	40132.9
892.5932	1532.2893	41100.55	40208.05
892.7361	1534.0824	40867.3	39966.85
892.879	1535.8747	40777.4	39882.95
893.0218	1537.6663	40931.5	40036.9
893.1647	1539.4572	40506.15	39609.6
893.3075	1541.2473	40563	39666.9
893.4503	1543.0367	40524.95	39630.45
893.5931	1544.8253	40410.5	39511.45
893.7359	1546.6132	40431	39533.45
893.8787	1548.4003	40223.8	39317.85
894.0214	1550.1867	40179.05	39274.25
894.1642	1551.9723	40134.2	39235.55
894.3069	1553.7572	40148.6	39252.65
894.4496	1555.5414	40204.7	39312.9
894.5923	1557.3247	39851.2	38959.3
894.735	1559.1074	40080.7	39187.95
894.8777	1560.8893	39941.7	39047.25
895.0204	1562.6705	39901.9	39010.8
895.163	1564.4509	39750.75	38858.1
895.3056	1566.2305	39815.1	38925.3
895.4482	1568.0094	39956.85	39064.35
895.5908	1569.7876	39844.8	38953.15
895.7334	1571.565	39665	38772.7
895.876	1573.3417	39695.85	38803.05
896.0186	1575.1176	39602.95	38712.45
896.1611	1576.8928	39483.15	38591.8
896.3036	1578.6672	39329.85	38440.85
896.4461	1580.4409	39321.5	38432.15
896.5886	1582.2138	39095.3	38204.5
896.7311	1583.986	39173.5	38279.45
896.8736	1585.7575	38991.9	38102.15
897.0161	1587.5282	39057.3	38168.55
897.1585	1589.2981	39064.95	38175.9
897.3009	1591.0673	38855.8	37965.75
897.4433	1592.8358	38796.7	37906.7
897.5857	1594.6035	38900.05	38007.25
897.7281	1596.3704	38875.45	37984.2
897.8705	1598.1366	38582.8	37691.45
898.0128	1599.9021	38410.6	37520.6
898.1551	1601.6668	38580.4	37687.15
898.2975	1603.4308	38450.4	37560.1
898.4398	1605.194	38503.9	37608.45
898.5821	1606.9564	38254.85	37367.9
898.7243	1608.7182	38452.55	37561.8
898.8666	1610.4791	38333.85	37451.25
899.0088	1612.2394	38472.65	37586
899.1511	1613.9988	38348.3	37463.4
899.2933	1615.7576	38609.7	37722.25
899.4355	1617.5156	38586.75	37691.65
899.5776	1619.2728	38755.95	37865.05
899.7198	1621.0293	38328.25	37436.95
899.862	1622.785	38270.85	37379.6
900.0041	1624.54	38199.3	37308.9
900.1462	1626.2942	37863.75	36975.2
900.2883	1628.0477	37442	36549.6
900.4304	1629.8005	37130.15	36238.2
900.5725	1631.5525	37205.65	36318.15
900.7145	1633.3037	36797.1	35910.2
900.8566	1635.0542	36711.35	35825.1
900.9986	1636.804	36677.35	35790.95
901.1406	1638.553	36438.65	35503.55
901.2826	1640.3013	36358.45	35471.45
901.4245	1642.0488	36128.25	35240.4
901.5665	1643.7955	36248.7	35362.1
901.7085	1645.5416	36085.85	35200.5
901.8504	1647.2868	36002.95	35116.95
901.9923	1649.0313	36135.8	35248.1
902.1342	1650.7751	36036.7	35146.2
902.2761	1652.5181	35896.3	35009.75
902.4179	1654.2604	35869.2	34979.95
902.5598	1656.0019	35973.4	35088.1
902.7016	1657.7427	35923.65	35035.55
902.8434	1659.4828	36051.7	35161.85
902.9852	1661.222	35921.4	35033.85
903.127	1662.9606	35973.5	35088.25
903.2687	1664.6984	35654.9	34764.55
903.4105	1666.4354	35619.2	34728.2
903.5522	1668.1717	35159.4	34271.05
903.6939	1669.9072	34729.25	33838.8
903.8356	1671.642	34559.6	33667.55
903.9773	1673.3761	34371.95	33483.4
904.119	1675.1094	34158.95	33272.5
904.2606	1676.8419	33887.85	33000.55
904.4022	1678.5737	33749.1	32860
904.5439	1680.3048	33543.15	32656.55
904.6855	1682.0351	33395.4	32507.75
904.827	1683.7646	33193.05	32300.45
904.9686	1685.4934	33142.3	32256.25
905.1101	1687.2215	32870.75	31983.3
905.2517	1688.9488	32884.8	31997
905.3932	1690.6754	32472.05	31583.95
905.5347	1692.4012	32550.7	31664.1
905.6761	1694.1263	32485.85	31599.95
905.8176	1695.8506	32397.9	31508.7
905.9591	1697.5742	32270.3	31382.8
906.1005	1699.297	32081.35	31197.55
906.2419	1701.0191	31973.35	31089.5
906.3833	1702.7404	31860.6	30974.45
906.5246	1704.461	31645.7	30757.75
906.666	1706.1808	31575.05	30686.45
906.8073	1707.8999	31485	30599.05
906.9487	1709.6182	31393.05	30506.65
907.09	1711.3358	31297.3	30412.1
907.2313	1713.0527	31223.4	30342.25
907.3725	1714.7688	31079.5	30186.6
907.5138	1716.4841	30936	30048.6
907.655	1718.1987	30960.6	30070.1
907.7962	1719.9126	30844.75	29959.65
907.9374	1721.6257	30732.85	29848
908.0786	1723.338	30746.95	29861.45
908.2198	1725.0496	30501.4	29614.25
908.3609	1726.7605	30436.25	29549.9
908.502	1728.4706	30390.15	29501.75
908.6431	1730.18	30200.9	29313.2
908.7842	1731.8886	30174.2	29288.85
908.9253	1733.5964	30121.1	29231.45
909.0664	1735.3036	30063.05	29176.8
909.2074	1737.0099	30012.95	29129.55
909.3484	1738.7156	29928.8	29046.9
909.4894	1740.4204	29804.8	28917.05
909.6304	1742.1246	29727.9	28839.45
909.7714	1743.8279	29661.85	28775.6
909.9123	1745.5306	29626.55	28742.05
910.0532	1747.2325	29479.75	28595.4
910.1941	1748.9336	29429.2	28543.95
910.335	1750.634	29292	28405.35
910.4759	1752.3336	29302.55	28417.5
910.6168	1754.0325	29221.3	28337.7
910.7576	1755.7307	29158.05	28273.8
910.8984	1757.4281	29092.7	28207.9
911.0392	1759.1247	29095.65	28199.4
911.18	1760.8206	28934.9	28044.8
911.3208	1762.5158	28980.5	28089.7
911.4615	1764.2102	28850.25	27965.1
911.6022	1765.9039	28747.9	27864.3
911.7429	1767.5968	28710.55	27827.4
911.8836	1769.289	28606.5	27722.55
912.0243	1770.9804	28503.35	27617.4
912.1649	1772.6711	28488.85	27604.05
912.3056	1774.361	28438.85	27550.6
912.4462	1776.0502	28376.65	27490.95
912.5868	1777.7386	28317.8	27429.15
912.7274	1779.4263	28277.5	27392.65
912.8679	1781.1132	28219.25	27336.55
913.0084	1782.7994	28115.75	27230.55
913.149	1784.4849	28068.3	27185.75
913.2895	1786.1696	27964.55	27063.6
913.4299	1787.8535	27893.05	27010.25
913.5704	1789.5367	27836.8	26951.35
913.7108	1791.2192	27820.05	26937
913.8513	1792.9009	27740.3	26826.4
913.9917	1794.5818	27647.3	26761.2
914.132	1796.2621	27549.45	26665.55
914.2724	1797.9415	27509.2	26625.15
914.4128	1799.6202	27438.05	26554.1
914.5531	1801.2982	27392.8	26508.55
914.6934	1802.9755	27309.7	26425.9
914.8337	1804.6519	27272.05	26388
914.9739	1806.3277	27134.75	26251.95
915.1142	1808.0027	27071.55	26186.7
915.2544	1809.6769	27057.95	26175.3
915.3946	1811.3504	26985.8	26099.2
915.5348	1813.0231	26942.3	26059.95
915.675	1814.6951	26875.6	25993.6
915.8151	1816.3664	26895.65	26008.1
915.9553	1818.0369	26823.7	25940.85
916.0954	1819.7067	26718.05	25834.4
916.2355	1821.3757	26702.15	25815.95
916.3755	1823.044	26631	25745.55
916.5156	1824.7115	26530.35	25645.25
916.6556	1826.3783	26405.45	25519.85
916.7956	1828.0443	26296.8	25413.95
916.9356	1829.7096	26309.55	25424.8
917.0756	1831.3741	26296.15	25409.3
917.2155	1833.0379	26245.75	25361.95
917.3555	1834.701	26157.25	25272.15
917.4954	1836.3633	26099.15	25216
917.6353	1838.0248	26036.25	25151.2
917.7751	1839.6856	25976.65	25092.6
917.915	1841.3457	25946.1	25061.65
918.0548	1843.005	25885.9	25002.85
918.1946	1844.6636	25881.15	24997.4
918.3344	1846.3214	25803.6	24919
918.4742	1847.9785	25806.05	24923.35
918.6139	1849.6349	25697.3	24810.4
918.7537	1851.2904	25673.85	24780
918.8934	1852.9453	25577.05	24691.95
919.0331	1854.5994	25503.55	24617.1
919.1727	1856.2528	25529.45	24639.85
919.3124	1857.9054	25443.1	24555.9
919.452	1859.5572	25463.75	24579.15
919.5916	1861.2083	25353.85	24469.05
919.7312	1862.8587	25327.95	24442.9
919.8708	1864.5084	25275.3	24387.5
920.0103	1866.1572	25177.5	24293.3
920.1498	1867.8054	25080.15	24194.25
920.2893	1869.4528	25066.2	24180.1
920.4288	1871.0994	24984.1	24096.95
920.5683	1872.7453	24963.4	24077.7
920.7077	1874.3905	24907.2	24018.15
920.8471	1876.0349	24799	23914.45
920.9865	1877.6786	24796.6	23909.3
921.1259	1879.3215	24789.95	23905.65
921.2653	1880.9637	24700.3	23815.95
921.4046	1882.6051	24660.4	23776.1
921.5439	1884.2458	24575.4	23691.15
921.6832	1885.8858	24507.9	23623.05
921.8225	1887.525	24479.35	23596.05
921.9617	1889.1634	24368.7	23484.75
922.101	1890.8011	24263.15	23377.15
922.2402	1892.4381	24259.1	23376.4
922.3794	1894.0743	24236.8	23353.55
922.5185	1895.7098	24174	23289.25
922.6577	1897.3446	24090.15	23206.95
922.7968	1898.9786	24045.85	23156.4
922.9359	1900.6118	24019.65	23137
923.075	1902.2443	23900.25	23014
923.214	1903.8761	23835.85	22952.85
923.3531	1905.5071	23708.8	22821.55
923.4921	1907.1374	23660.25	22773.85
923.6311	1908.7669	23624.25	22739.2
923.77	1910.3957	23573.45	22689.65
923.909	1912.0237	23466.4	22582.3
924.0479	1913.651	23401.1	22517.65
924.1868	1915.2776	23350.7	22471.1
924.3257	1916.9034	23283.35	22400.75
924.4646	1918.5285	23142.55	22258.65
924.6034	1920.1528	23035.7	22150.55
924.7422	1921.7764	23028.5	22142.7
924.881	1923.3992	22947.05	22062.3
925.0198	1925.0213	22790.75	21907.5
925.1586	1926.6427	22734	21850.65
925.2973	1928.2633	22876.45	21748.75
925.436	1929.8832	22690.05	21801.75
925.5747	1931.5023	22528.75	21645.7
925.7134	1933.1207	22471.2	21586.85
925.852	1934.7383	22441.2	21555.7
925.9906	1936.3552	22342.1	21458.75
926.1292	1937.9714	22338.65	21455.95
926.2678	1939.5868	22219.4	21332.25
926.4064	1941.2015	22122.5	21237.45
926.5449	1942.8154	22032.85	21148.2
926.6834	1944.4286	21980.4	21094.65
926.8219	1946.041	21898.2	20989.75
926.9604	1947.6528	21768.6	20880.55
927.0988	1949.2637	21708.25	20825.3
927.2372	1950.8739	21632.95	20748.75
927.3756	1952.4834	21589.3	20708.25
927.514	1954.0921	21593.9	20709.55
927.6523	1955.7001	21497.35	20610.7
927.7907	1957.3074	21435.65	20552.5
927.929	1958.9139	21359.05	20477.55
928.0673	1960.5197	21331.35	20446.6
928.2055	1962.1247	21187.8	20305.8
928.3438	1963.729	21102.95	20221.05
928.482	1965.3325	21060.65	20157.25
928.6202	1966.9353	20952.4	20070.2
928.7584	1968.5374	20907.7	20023.8
928.8965	1970.1387	20836.75	19955.75
929.0346	1971.7393	20778.8	19894.4
929.1727	1973.3392	20732.9	19849.9
929.3108	1974.9383	20614.5	19734
929.4489	1976.5366	20530.8	19648.95
929.5869	1978.1342	20497.85	19616.15
929.7249	1979.7311	20448.65	19566.15
929.8629	1981.3273	20393.15	19512.05
930.0009	1982.9227	20338.85	19455.85
930.1388	1984.5173	20299.35	19417.35
930.2767	1986.1112	20171.35	19289.6
930.4146	1987.7044	20173.2	19292.25
930.5525	1989.2968	20123.15	19240.2
930.6904	1990.8885	20095.6	19210.05
930.8282	1992.4795	20047.4	19165.4
930.966	1994.0697	19936.45	19054.25
931.1038	1995.6592	19884.95	19004
931.2415	1997.2479	19810.05	18926.4
931.3793	1998.8359	19789.15	18908.35
931.517	2000.4232	19709	18827
931.6547	2002.0097	19633	18754.7
931.7923	2003.5955	19532.25	18650.7
931.93	2005.1805	19568.85	18688
932.0676	2006.7648	19480.4	18599.95
932.2052	2008.3484	19376.3	18495.45
932.3427	2009.9312	19428.35	18548.7
932.4803	2011.5133	19342.2	18464.8
932.6178	2013.0946	19292.05	18410.5
932.7553	2014.6752	19231.2	18351.95
932.8928	2016.2551	19208.75	18324.95
933.0302	2017.8342	19124.95	18244.75
933.1676	2019.4126	19008.85	18130.6
933.305	2020.9902	18945.7	18065.1
933.4424	2022.5672	18916.55	18036.6
933.5798	2024.1433	18846.35	17960.55
933.7171	2025.7188	18784.85	17906.75
933.8544	2027.2935	18776.2	17895.5
933.9917	2028.8674	18679.2	17799.85
934.129	2030.4406	18620.25	17741.4
934.2662	2032.0131	18565.55	17687.9
934.4034	2033.5849	18479.25	17589.85
934.5406	2035.1559	18464.85	17587.75
934.6778	2036.7261	18417.95	17538.2
934.8149	2038.2957	18401.5	17520.5
934.952	2039.8645	18339.9	17459.15
935.0891	2041.4325	18338.8	17454.1
935.2262	2042.9998	18278.2	17397.75
935.3632	2044.5664	18241.05	17359.05
935.5002	2046.1323	18156.5	17278.6
935.6372	2047.6974	18113.15	17234.6
935.7742	2049.2617	18046.3	17165.55
935.9111	2050.8254	18042.65	17159.3
936.048	2052.3883	18011.85	17131.15
936.1849	2053.9504	17981.5	17100.4
936.3218	2055.5118	17920.8	17039.3
936.4586	2057.0725	17811.9	16930.5
936.5955	2058.6325	17788.55	16909.55
936.7323	2060.1917	17738.75	16859.2
936.869	2061.7502	17692.85	16810.85
937.0058	2063.3079	17607.65	16729.4
937.1425	2064.8649	17544.1	16659.85
937.2792	2066.4212	17514.4	16633.3
937.4159	2067.9767	17490.5	16609.8
937.5525	2069.5315	17388.5	16506.15
937.6891	2071.0856	17329.55	16449.9
937.8257	2072.6389	17250.45	16368.65
937.9623	2074.1915	17200.4	16320.65
938.0989	2075.7433	17134.6	16252.6
938.2354	2077.2945	17104.05	16226.2
938.3719	2078.8448	17050.85	16170.8
938.5084	2080.3945	16957.1	16076.6
938.6448	2081.9434	16973.3	16091.85
938.7812	2083.4916	16918.5	16037.1
938.9176	2085.039	16862.1	15977.85
939.054	2086.5857	16800.45	15915.95
939.1903	2088.1317	16797.8	15913.15
939.3267	2089.677	16754.15	15869.85
939.463	2091.2215	16653.6	15772.2
939.5992	2092.7652	16660.7	15775.4
939.7355	2094.3083	16607.05	15724.4
939.8717	2095.8506	16570	15687.65
940.0079	2097.3921	16547.95	15666.95
940.1441	2098.933	16499.65	15617.4
940.2802	2100.4731	16448.45	15567.1
940.4163	2102.0124	16430.35	15532.55
940.5524	2103.5511	16405.55	15524.1
940.6885	2105.089	16377.95	15497.85
940.8245	2106.6261	16333.5	15450.95
940.9606	2108.1626	16304.15	15422.3
941.0965	2109.6983	16273.6	15363.05
941.2325	2111.2332	16191.1	15308.25
941.3684	2112.7675	16165.45	15283.35
941.5044	2114.301	16136.15	15251.85
941.6403	2115.8337	16108.25	15227.6
941.7761	2117.3657	16052.35	15170.95
941.912	2118.897	15988.9	15107.25
942.0478	2120.4276	15965.35	15075.7
942.1835	2121.9575	15871.7	14988.85
942.3193	2123.4866	15901.35	15003.4
942.455	2125.0149	15864.9	14978.7
942.5907	2126.5426	15751.35	14870.8
942.7264	2128.0695	15708.05	14822.25
942.8621	2129.5956	15680.35	14803.35
942.9977	2131.1211	15660.65	14772.45
943.1333	2132.6458	15598.8	14719.3
943.2689	2134.1698	15572.75	14690.2
943.4044	2135.693	15532.75	14648.75
943.54	2137.2155	15485.5	14598.5
943.6755	2138.7373	15477.85	14595.9
943.8109	2140.2584	15431.65	14549.15
943.9464	2141.7787	15345.3	14459
944.0818	2143.2983	15300.95	14421.5
944.2172	2144.8171	15219.35	14339.55
944.3526	2146.3353	15197.4	14315.95
944.4879	2147.8527	15148	14267.2
944.6232	2149.3693	15164.3	14283
944.7585	2150.8853	15111.65	14226.5
944.8938	2152.4005	15013.05	14129.15
945.029	2153.9149	15005.25	14121.85
945.1642	2155.4287	14935.2	14054.7
945.2994	2156.9417	14930.5	14046.85
945.4346	2158.454	14887.85	14004.35
945.5697	2159.9655	14843.7	13962.25
945.7048	2161.4764	14827.8	13946.15
945.8399	2162.9865	14762.3	13881
945.9749	2164.4958	14712.4	13830.35
946.1099	2166.0045	14659.75	13776
946.2449	2167.5124	14630.4	13750.4
946.3799	2169.0195	14619.5	13738.9
946.5148	2170.526	14613.9	13729.05
946.6498	2172.0317	14554.1	13672.5
946.7846	2173.5367	14500.1	13616.95
946.9195	2175.0409	14494.1	13614.2
947.0543	2176.5445	14467.7	13587.35
947.1891	2178.0473	14371.6	13488.6
947.3239	2179.5494	14325.3	13438.75
947.4587	2181.0507	14286.55	13405.5
947.5934	2182.5513	14241.55	13358.9
947.7281	2184.0512	14218.05	13335.55
947.8628	2185.5504	14169.75	13288.7
947.9974	2187.0488	14084.95	13204.4
948.132	2188.5465	14045.6	13165.45
948.2666	2190.0435	14012.85	13132.1
948.4012	2191.5397	13958.95	13077.25
948.5357	2193.0353	13924.8	13044.95
948.6702	2194.5301	13852.75	12970.5
948.8047	2196.0241	13811.55	12927.05
948.9392	2197.5175	13789.35	12906.5
949.0736	2199.0101	13718.3	12830.45
949.208	2200.502	13670.1	12788
949.3424	2201.9931	13612.65	12732.9
949.4767	2203.4835	13570.05	12686.2
949.611	2204.9733	13558	12669.25
949.7453	2206.4622	13550.55	12669.95
949.8796	2207.9505	13501.55	12616.3
950.0138	2209.438	13404.95	12527.4
950.148	2210.9248	13356.3	12473.35
950.2822	2212.4109	13329.2	12448.8
950.4164	2213.8962	13295	12410.55
950.5505	2215.3809	13248.75	12367.7
950.6846	2216.8648	13218.25	12334.55
950.8186	2218.3479	13195.6	12307.95
950.9527	2219.8304	13138.55	12250.9
951.0867	2221.3121	13085.25	12198.3
951.2207	2222.7931	13056.2	12173.4
951.3546	2224.2733	13004.35	12121.4
951.4886	2225.7529	12963.6	12080.45
951.6225	2227.2317	12913.7	12029.15
951.7563	2228.7098	12898.1	12018.2
951.8902	2230.1872	12850.35	11971.3
952.024	2231.6638	12820.8	11940.85
952.1578	2233.1397	12790	11902.2
952.2916	2234.6149	12703.75	11825.05
952.4253	2236.0894	12677.9	11796.45
952.559	2237.5632	12667.05	11776.3
952.6927	2239.0362	12610.7	11729.7
952.8263	2240.5085	12564.3	11683.25
952.9599	2241.9801	12502.15	11622.05
953.0935	2243.4509	12492.35	11609.4
953.2271	2244.921	12419.2	11537.45
953.3606	2246.3904	12403.65	11518.95
953.4941	2247.8591	12350.9	11468.5
953.6276	2249.3271	12331.6	11448.7
953.7611	2250.7943	12276.05	11392.1
953.8945	2252.2608	12248.75	11364.85
954.0279	2253.7266	12237.95	11354.95
954.1612	2255.1917	12194.7	11311.55
954.2946	2256.656	12156.5	11276.4
954.4279	2258.1197	12121.5	11241.75
954.5612	2259.5826	12086.75	11204.05
954.6944	2261.0447	12089.2	11205.1
954.8276	2262.5062	12017.9	11134.15
954.9608	2263.9669	11995.55	11111.3
955.094	2265.4269	11973.8	11093.7
955.2271	2266.8862	11918.8	11035.05
955.3602	2268.3448	11892.8	11009.85
955.4933	2269.8026	11855.5	10974.25
955.6264	2271.2598	11829.7	10947.4
955.7594	2272.7162	11782.85	10901.6
955.8924	2274.1719	11748.45	10865.75
956.0253	2275.6268	11733.8	10851.65
956.1583	2277.0811	11692.2	10806.75
956.2912	2278.5346	11653.65	10771.9
956.4241	2279.9874	11616.85	10734.7
956.5569	2281.4395	11608.9	10728.2
956.6897	2282.8908	11559.4	10674.95
956.8225	2284.3414	11560.9	10675
956.9553	2285.7914	11499.9	10618.75
957.088	2287.2406	11456.45	10573.6
957.2207	2288.689	11462.6	10576.3
957.3534	2290.1368	11421.3	10534.95
957.486	2291.5838	11395.25	10507.45
957.6186	2293.0302	11401.3	10516.2
957.7512	2294.4758	11328.2	10443.25
957.8838	2295.9206	11280.95	10396.75
958.0163	2297.3648	11238.25	10356.2
958.1488	2298.8082	11224.7	10340.45
958.2813	2300.251	11180.8	10297.8
958.4137	2301.693	11155.4	10267.7
958.5461	2303.1343	11154.35	10272.15
958.6785	2304.5748	11068.75	10186.8
958.8108	2306.0147	11052.4	10171.85
958.9432	2307.4538	11040.3	10157.05
959.0754	2308.8922	10970.75	10092.9
959.2077	2310.3299	10956.5	10075.3
959.3399	2311.7669	10898.9	10019
959.4721	2313.2031	10895.95	10014
959.6043	2314.6387	10840.5	9958.05
959.7365	2316.0735	10825.75	9943.1
959.8686	2317.5076	10786.8	9903.85
960.0006	2318.941	10765.35	9883.5
960.1327	2320.3737	10737.45	9854.95
960.2647	2321.8056	10736.8	9850
960.3967	2323.2369	10678.75	9795.1
960.5287	2324.6674	10663.45	9777.7
960.6606	2326.0972	10621.3	9737.25
960.7925	2327.5263	10569.95	9688.15
960.9244	2328.9547	10532.3	9647.8
961.0562	2330.3823	10517.1	9633.95
961.1881	2331.8092	10524.15	9636.2
961.3198	2333.2355	10445.75	9561.75
961.4516	2334.661	10437.1	9551.95
961.5833	2336.0858	10445.05	9560.6
961.715	2337.5098	10375.05	9492.8
961.8467	2338.9332	10348.05	9463.7
961.9783	2340.3558	10307.55	9421.1
962.1099	2341.7778	10281.95	9400.4
962.2415	2343.199	10250.9	9365.95
962.373	2344.6195	10234.05	9353.65
962.5045	2346.0393	10203.35	9322.5
962.636	2347.4583	10176.15	9293.15
962.7675	2348.8767	10145.75	9262.5
962.8989	2350.2943	10087.4	9205.35
963.0303	2351.7113	10102.2	9217.4
963.1617	2353.1275	10046.6	9160.35
963.293	2354.543	10028.25	9133.65
963.4243	2355.9578	9998.5	9114.9
963.5556	2357.3718	9938.8	9055
963.6868	2358.7852	9892.55	9007.55
963.818	2360.1978	9860.45	8977.3
963.9492	2361.6098	9864.75	8983.3
964.0803	2363.021	9838.1	8950.95
964.2114	2364.4315	9817.8	8936.05
964.3425	2365.8413	9774.6	8891.6
964.4736	2367.2504	9726.35	8846.55
964.6046	2368.6587	9698.55	8816.2
964.7356	2370.0664	9644.45	8763.05
964.8666	2371.4733	9599.5	8715.85
964.9975	2372.8795	9589.5	8706.5
965.1284	2374.285	9556.5	8674.55
965.2593	2375.6899	9519.25	8637.35
965.3901	2377.0939	9460.8	8579.3
965.5209	2378.4973	9435.95	8553.2
965.6517	2379.9	9399.25	8518
965.7825	2381.3019	9385.1	8501.35
965.9132	2382.7032	9354.35	8473.45
966.0439	2384.1037	9332.7	8452.55
966.1745	2385.5035	9298.95	8416.25
966.3051	2386.9027	9275.2	8394.15
966.4357	2388.3011	9258.7	8373.1
966.5663	2389.6987	9236.15	8355.6
966.6968	2391.0957	9180.75	8299.1
966.8273	2392.492	9150.95	8269.05
966.9578	2393.8876	9111.9	8228.9
967.0882	2395.2824	9072	8190.5
967.2186	2396.6765	9053.6	8171.45
967.349	2398.07	9027.65	8145.65
967.4793	2399.4627	8994.85	8109.95
967.6097	2400.8547	8993.25	8110.85
967.7399	2402.246	8926.25	8040.55
967.8702	2403.6366	8879	7996.3
968.0004	2405.0265	8852.3	7969.05
968.1306	2406.4156	8830.4	7942.5
968.2607	2407.8041	8814.65	7928
968.3909	2409.1918	8739.15	7854.8
968.521	2410.5789	8716.65	7834.6
968.651	2411.9652	8698.45	7811.05
968.781	2413.3508	8685.8	7804.2
968.911	2414.7358	8657.5	7774.25
969.041	2416.12	8611	7729.75
969.1709	2417.5035	8602.55	7722
969.3008	2418.8863	8551	7668.3
969.4307	2420.2684	8536.85	7653.4
969.5606	2421.6497	8484.15	7602
969.6904	2423.0304	8435.25	7554.3
969.8201	2424.4104	8443.85	7559.9
969.9499	2425.7896	8405.05	7517.7
970.0796	2427.1682	8383.25	7501.9
970.2093	2428.546	8358.15	7474.5
970.3389	2429.9232	8354.1	7470.95
970.4685	2431.2996	8327.8	7444.8
970.5981	2432.6753	8301	7416.55
970.7277	2434.0503	8281.15	7398.8
970.8572	2435.4246	8265.3	7384.95
970.9867	2436.7982	8217.75	7332.7
971.1161	2438.1711	8181.75	7301.4
971.2456	2439.5433	8159.1	7274.2
971.375	2440.9148	8113.45	7225.8
971.5043	2442.2856	8099.6	7217.25
971.6336	2443.6557	8099.4	7212.3
971.7629	2445.025	8073.8	7189.1
971.8922	2446.3937	8029.15	7145.25
972.0214	2447.7617	8004.4	7120.7
972.1506	2449.1289	7988.1	7104.9
972.2798	2450.4955	7990.9	7103.25
972.4089	2451.8613	7948.6	7065.15
972.538	2453.2265	7919	7039.3
972.6671	2454.5909	7906.9	7024
972.7961	2455.9546	7889.6	7008.7
972.9251	2457.3177	7874.4	6991.65
973.0541	2458.68	7827.35	6942.4
973.1831	2460.0416	7838.25	6953.2
973.312	2461.4025	7793.65	6910.45
973.4408	2462.7627	7814.1	6919.9
973.5697	2464.1222	7773.25	6891.4
973.6985	2465.4811	7751.55	6869.95
973.8273	2466.8392	7725.65	6844.3
973.956	2468.1966	7711.65	6830.35
974.0847	2469.5533	7674.1	6789.6
974.2134	2470.9093	7654.9	6771.7
974.3421	2472.2645	7625.95	6742.7
974.4707	2473.6191	7613.8	6731.85
974.5993	2474.973	7584.75	6701.35
974.7278	2476.3262	7557.65	6673.65
974.8563	2477.6787	7539.75	6658.55
974.9848	2479.0305	7501.1	6620.45
975.1132	2480.3816	7466.55	6582
975.2417	2481.7319	7450.15	6568.3
975.37	2483.0816	7409.6	6524.2
975.4984	2484.4306	7397.75	6514.85
975.6267	2485.7789	7366.2	6483.05
975.755	2487.1264	7351.05	6467.2
975.8833	2488.4733	7344.45	6463.25
976.0115	2489.8195	7314	6422.9
976.1397	2491.165	7263.8	6377.9
976.2678	2492.5097	7240.65	6356.55
976.3959	2493.8538	7223.5	6342.15
976.524	2495.1972	7187.05	6303
976.6521	2496.5398	7168.1	6284.05
976.7801	2497.8818	7168.55	6283.15
976.9081	2499.2231	7124.15	6240.8
977.036	2500.5637	7116.55	6231.45
977.164	2501.9035	7091.25	6206.1
977.2918	2503.2427	7043.25	6157.05
977.4197	2504.5812	7048	6166.2
977.5475	2505.919	7032.65	6148.45
977.6753	2507.256	7005.2	6121.5
977.8031	2508.5924	6974.05	6091.45
977.9308	2509.9281	6963.1	6076.55
978.0585	2511.2631	6930.9	6048.05
978.1861	2512.5974	6918.2	6036.05
978.3137	2513.9309	6888.9	6006.05
978.4413	2515.2638	6902.6	5991.6
978.5689	2516.596	6863.25	5981.05
978.6964	2517.9275	6823.25	5936.15
978.8239	2519.2583	6803.35	5921.5
978.9513	2520.5884	6772.55	5890.05
979.0788	2521.9178	6744.6	5860.05
979.2062	2523.2465	6729.95	5849.35
979.3335	2524.5745	6703.5	5821.85
979.4608	2525.9018	6688.15	5805.5
979.5881	2527.2284	6673	5790.75
979.7154	2528.5543	6655.85	5772.95
979.8426	2529.8796	6650.1	5766.75
979.9698	2531.2041	6636.2	5751.4
980.0969	2532.5279	6598.65	5718.3
980.224	2533.851	6582.45	5699.55
980.3511	2535.1735	6560.45	5677
980.4781	2536.4952	6545.35	5662.8
980.6052	2537.8163	6558.55	5677.25
980.7321	2539.1366	6533.35	5652.05
980.8591	2540.4562	6506.7	5623.35
980.986	2541.7752	6495.6	5612.5
981.1129	2543.0935	6470.15	5588.5
981.2397	2544.411	6466.8	5581.75
981.3665	2545.7279	6454.7	5573.6
981.4933	2547.0441	6462.3	5579.15
981.62	2548.3596	6450.45	5565.8
981.7467	2549.6744	6434.7	5552.3
981.8734	2550.9885	6403.5	5510.6
982.0001	2552.3019	6391.7	5509.9
982.1267	2553.6146	6361.05	5476.2
982.2532	2554.9266	6339.05	5457.1
982.3798	2556.2379	6330.15	5448.45
982.5063	2557.5485	6318.9	5435.85
982.6327	2558.8585	6302.2	5411.1
982.7592	2560.1677	6282.55	5394.6
982.8856	2561.4762	6244.9	5362.45
983.0119	2562.7841	6269.85	5382.55
983.1383	2564.0913	6257.9	5377.1
983.2646	2565.3977	6251.9	5369.85
983.3908	2566.7035	6212	5328.95
983.517	2568.0086	6212.95	5328.55
983.6432	2569.313	6202.1	5318.45
983.7694	2570.6167	6170.15	5283.5
983.8955	2571.9197	6171.25	5290.55
984.0216	2573.222	6173	5284.5
984.1476	2574.5236	6143.45	5259
984.2737	2575.8246	6127.7	5241.3
984.3996	2577.1248	6135.35	5249
984.5256	2578.4244	6118	5236.25
984.6515	2579.7232	6108.1	5224.95
984.7774	2581.0214	6095.05	5187.55
984.9032	2582.3189	6071.1	5189.45
985.029	2583.6157	6062	5174.8
985.1548	2584.9118	6062.2	5178.1
985.2806	2586.2072	6010.5	5128.7
985.4063	2587.5019	6007.45	5125
985.5319	2588.7959	5992.4	5109.55
985.6576	2590.0893	5998.05	5112.9
985.7832	2591.3819	5977.5	5095.55
985.9087	2592.6739	5955.95	5072.6
986.0343	2593.9652	5923.8	5041.05
986.1597	2595.2557	5917.65	5033.4
986.2852	2596.5456	5885.1	4999.7
986.4106	2597.8348	5870.35	4987.85
986.536	2599.1234	5853.85	4971.95
986.6614	2600.4112	5829.75	4946.85
986.7867	2601.6983	5815.85	4930
986.912	2602.9848	5807.25	4925.05
987.0372	2604.2705	5783.3	4893.45
987.1624	2605.5556	5753.45	4871.05
987.2876	2606.84	5726.9	4845
987.4128	2608.1237	5724.55	4838.3
987.5379	2609.4067	5685.05	4800.7
987.6629	2610.689	5684	4792.35
987.788	2611.9707	5666.2	4779.65
987.913	2613.2516	5656.1	4769.5
988.0379	2614.5319	5614	4733.85
988.1629	2615.8115	5582.6	4699.2
988.2878	2617.0903	5579.85	4696.15
988.4126	2618.3685	5552.9	4669.75
988.5375	2619.6461	5543.55	4662.4
988.6622	2620.9229	5520.45	4637.95
988.787	2622.199	5524.35	4642.3
988.9117	2623.4745	5490.3	4608
989.0364	2624.7493	5481.8	4599.95
989.161	2626.0234	5465.55	4584.2
989.2857	2627.2968	5436.35	4553.8
989.4102	2628.5695	5408.2	4523.85
989.5348	2629.8415	5390.4	4507.7
989.6593	2631.1128	5368.3	4485.7
989.7837	2632.3835	5353.8	4471.65
989.9082	2633.6535	5336.35	4453.35
990.0326	2634.9228	5338.8	4454.95
990.1569	2636.1914	5319.4	4438.3
990.2812	2637.4593	5283.3	4396.45
990.4055	2638.7265	5268.9	4385.75
990.5298	2639.9931	5267.2	4385.5
990.654	2641.259	5241.25	4357
990.7782	2642.5242	5240.75	4358.85
990.9023	2643.7887	5215.55	4333.65
991.0264	2645.0525	5205.4	4325.55
991.1505	2646.3156	5196.2	4312.3
991.2745	2647.5781	5160.65	4278.45
991.3985	2648.8398	5151.2	4269.65
991.5225	2650.1009	5167.35	4248.15
991.6464	2651.3613	5127.4	4245.35
991.7703	2652.6211	5104.75	4222.6
991.8942	2653.8801	5101.15	4220.1
992.018	2655.1385	5076.6	4191.35
992.1418	2656.3961	5068.85	4186.95
992.2655	2657.6531	5068.85	4188.85
992.3892	2658.9094	5039.25	4155.45
992.5129	2660.1651	5038.2	4157.35
992.6366	2661.42	5023.4	4140.8
992.7602	2662.6743	5012.15	4128.75
992.8837	2663.9279	5017.6	4136.45
993.0073	2665.1808	4985.55	4103.3
993.1307	2666.433	4985.2	4100.45
993.2542	2667.6846	4965.4	4084
993.3776	2668.9354	4950	4066.85
993.501	2670.1856	4940.1	4056.75
993.6244	2671.4351	4925.95	4042.7
993.7477	2672.6839	4908.4	4026
993.8709	2673.9321	4896.5	4014.7
993.9942	2675.1795	4894.45	4010.85
994.1174	2676.4263	4867.8	3988.05
994.2405	2677.6724	4856	3975.15
994.3637	2678.9179	4837.6	3955.45
994.4868	2680.1626	4824.85	3943.45
994.6098	2681.4067	4825.35	3942.85
994.7328	2682.6501	4798.2	3916.45
994.8558	2683.8928	4784.75	3903
994.9788	2685.1348	4776.35	3894.85
995.1017	2686.3761	4740.05	3857.85
995.2245	2687.6168	4733	3851.05
995.3474	2688.8568	4726.6	3844.05
995.4702	2690.0961	4718.15	3836.5
995.5929	2691.3348	4701.6	3818.75
995.7156	2692.5727	4673.8	3791.15
995.8383	2693.81	4661	3781.05
995.961	2695.0466	4670.8	3790.6
996.0836	2696.2826	4653.95	3769.8
996.2062	2697.5178	4650.6	3749.4
996.3287	2698.7524	4619	3735.9
996.4512	2699.9863	4605.15	3720
996.5737	2701.2195	4593.95	3714.4
996.6961	2702.452	4609.65	3725.7
996.8185	2703.6839	4584.6	3701
996.9408	2704.9151	4557.3	3677.55
997.0631	2706.1456	4541.9	3661.65
997.1854	2707.3755	4537.75	3656.6
997.3077	2708.6046	4533.8	3648.15
997.4299	2709.8331	4510.55	3627.95
997.552	2711.0609	4503.05	3621.1
997.6742	2712.2881	4499.85	3616.6
997.7963	2713.5145	4497.9	3614.5
997.9183	2714.7403	4474.7	3594.15
998.0403	2715.9654	4445.9	3563.2
998.1623	2717.1899	4454.8	3559.25
998.2842	2718.4136	4437.5	3555.7
998.4062	2719.6367	4445.1	3563.8
998.528	2720.8591	4415.8	3526.7
998.6498	2722.0809	4390.45	3510.95
998.7716	2723.3019	4386.95	3500.8
998.8934	2724.5223	4392.7	3509.9
999.0151	2725.7421	4385.35	3502.35
999.1368	2726.9611	4370.1	3486.15
999.2584	2728.1795	4354.85	3467.6
999.38	2729.3972	4331.55	3448.25
999.5016	2730.6142	4319.85	3425.35
999.6231	2731.8306	4288.4	3404.95
999.7446	2733.0462	4280.15	3396.8
999.8661	2734.2612	4273.75	3388.45
999.9875	2735.4756	4254.05	3371.1
1000.1089	2736.6892	4215.65	3332.6
1000.2302	2737.9022	4181.25	3300
1000.3515	2739.1145	4181.75	3300.9
1000.4728	2740.3262	4168.9	3277.1
1000.594	2741.5372	4153.15	3271.95
1000.7152	2742.7475	4131.4	3250.6
1000.8363	2743.9571	4119.9	3235
1000.9575	2745.1661	4096.3	3209.15
1001.0785	2746.3744	4085.25	3201.75
1001.1996	2747.582	4083.9	3201.4
1001.3206	2748.7889	4065.7	3184
1001.4415	2749.9952	4037.95	3156.45
1001.5625	2751.2008	4033.5	3152.25
1001.6833	2752.4057	4023.7	3139.65
1001.8042	2753.61	4003.75	3121.8
1001.925	2754.8136	3999.7	3116.35
1002.0458	2756.0165	3987.05	3106.4
1002.1665	2757.2188	3979.95	3098.35
1002.2872	2758.4204	3963.65	3082.05
1002.4078	2759.6213	3945.7	3062.5
1002.5285	2760.8215	3929.55	3044.45
1002.649	2762.0211	3929.85	3046.9
1002.7696	2763.22	3930.65	3047.65
1002.8901	2764.4182	3915.5	3034.05
1003.0106	2765.6158	3900.8	3019.6
1003.131	2766.8127	3889.45	3007.8
1003.2514	2768.009	3869.25	2990.05
1003.3717	2769.2045	3848.75	2965.75
1003.492	2770.3994	3857.6	2975.95
1003.6123	2771.5936	3846.05	2962.85
1003.7325	2772.7872	3815.65	2937.2
1003.8527	2773.9801	3803.95	2919.65
1003.9729	2775.1723	3807.9	2909.35
1004.093	2776.3639	3793.15	2912.55
1004.2131	2777.5548	3764.55	2882.55
1004.3331	2778.745	3768.65	2885.65
1004.4531	2779.9346	3746.7	2866.55
1004.5731	2781.1235	3733.45	2852.45
1004.693	2782.3117	3735.3	2853.95
1004.8129	2783.4992	3730.55	2850
1004.9328	2784.6861	3722.65	2843.6
1005.0526	2785.8723	3708.05	2825.6
1005.1723	2787.0579	3696.55	2815.75
1005.2921	2788.2428	3676.45	2795.5
1005.4118	2789.427	3664.75	2783.1
1005.5314	2790.6106	3655.3	2775.5
1005.651	2791.7935	3662.8	2781.35
1005.7706	2792.9757	3652.7	2772.45
1005.8902	2794.1573	3652.15	2770.55
1006.0097	2795.3382	3631.6	2751.25
1006.1291	2796.5184	3622.3	2742.3
1006.2485	2797.698	3619.5	2736.15
1006.3679	2798.8769	3605.5	2725.8
1006.4873	2800.0551	3601	2720.3
1006.6066	2801.2327	3590.7	2705.45
1006.7258	2802.4096	3587.6	2706.8
1006.8451	2803.5859	3584.35	2704.35
1006.9642	2804.7615	3580.45	2698.7
1007.0834	2805.9364	3567.25	2687.5
1007.2025	2807.1106	3574	2694.8
1007.3216	2808.2842	3572.25	2690.6
1007.4406	2809.4572	3562.85	2680.65
1007.5596	2810.6294	3591.9	2710.75
1007.6785	2811.801	3609.1	2729.75
1007.7975	2812.972	3601.8	2721.1
1007.9163	2814.1423	3615.1	2734.7
1008.0352	2815.3119	3616.25	2736.15
1008.154	2816.4808	3626.8	2749.65
1008.2727	2817.6491	3641.7	2761.05
1008.3914	2818.8167	3659.35	2780.5
1008.5101	2819.9837	3690.4	2805.6
1008.6288	2821.15	3689.55	2808.7
1008.7474	2822.3157	3707.45	2827
1008.8659	2823.4807	3721.3	2839.65
1008.9844	2824.645	3738.4	2855.6
1009.1029	2825.8086	3753.6	2873.1
1009.2214	2826.9716	3761.5	2882.15
1009.3398	2828.134	3787.35	2907.3
1009.4581	2829.2957	3785.65	2906.55
1009.5764	2830.4567	3812.5	2931.3
1009.6947	2831.617	3823.95	2943.8
1009.813	2832.7767	3824	2945.45
1009.9312	2833.9358	3799.6	2921.4
1010.0493	2835.0941	3799.2	2915.7
1010.1675	2836.2519	3780.7	2900.35
1010.2855	2837.4089	3756.5	2872.65
1010.4036	2838.5653	3754.5	2875.65
1010.5216	2839.7211	3736.15	2855.35
1010.6396	2840.8761	3733.1	2849.75
1010.7575	2842.0306	3726.5	2847.9
1010.8754	2843.1843	3735.3	2854.75
1010.9932	2844.3374	3732.15	2850.65
1011.111	2845.4899	3750.7	2869.45
1011.2288	2846.6417	3775.85	2895.25
1011.3465	2847.7928	3787.15	2908.45
1011.4642	2848.9433	3811.15	2930.6
1011.5818	2850.0931	3830.85	2951.15
1011.6995	2851.2422	3849.7	2967.9
1011.817	2852.3907	3863.4	2982.55
1011.9345	2853.5385	3885.35	3003.25
1012.052	2854.6857	3892.3	3000.85
1012.1695	2855.8323	3915.5	3037.6
1012.2869	2856.9781	3926.9	3046.8
1012.4042	2858.1233	3945.2	3064.75
1012.5216	2859.2679	3938.45	3059.25
1012.6389	2860.4118	3971.85	3092.65
1012.7561	2861.555	3979.35	3095.05
1012.8733	2862.6976	3995.6	3113.2
1012.9905	2863.8395	3991.15	3110.95
1013.1076	2864.9808	4006.45	3124.9
1013.2247	2866.1214	4014.05	3133.05
1013.3417	2867.2614	4000.15	3121.5
1013.4587	2868.4007	4010.9	3128.5
1013.5757	2869.5393	4003.75	3123
1013.6926	2870.6773	3995.3	3111.7
1013.8095	2871.8146	3993.05	3110.45
1013.9263	2872.9513	3991.1	3107.5
1014.0431	2874.0874	3976.85	3097.45
1014.1599	2875.2227	3957.75	3076.5
1014.2766	2876.3574	3940.35	3058.55
1014.3933	2877.4915	3920.8	3040.25
1014.51	2878.6249	3894.5	3016.35
1014.6266	2879.7577	3876.95	2994.65
1014.7431	2880.8898	3860.75	2970.55
1014.8596	2882.0212	3853.15	2973.15
1014.9761	2883.152	3831.2	2949.95
1015.0925	2884.2821	3814.6	2937.75
1015.2089	2885.4116	3786.6	2906.9
1015.3253	2886.5405	3791.6	2911.7
1015.4416	2887.6686	3794.6	2909.85
1015.5579	2888.7962	3771.15	2893.3
1015.6741	2889.923	3771.75	2892.95
1015.7903	2891.0493	3779.25	2900.05
1015.9065	2892.1748	3771.35	2892.15
1016.0226	2893.2997	3760.5	2881.15
1016.1387	2894.424	3762.25	2883.4
1016.2547	2895.5476	3769.35	2890.9
1016.3707	2896.6706	3763.3	2885.65
1016.4866	2897.7929	3749.05	2868.2
1016.6025	2898.9145	3753.9	2874.15
1016.7184	2900.0355	3764.8	2885.4
1016.8342	2901.1559	3769.2	2887.2
1016.95	2902.2756	3779.3	2898.8
1017.0658	2903.3946	3791.6	2910.4
1017.1815	2904.513	3771.45	2889.55
1017.2971	2905.6308	3776.25	2896.15
1017.4127	2906.7479	3790.55	2911.4
1017.5283	2907.8643	3775.45	2895.95
1017.6439	2908.9801	3799.15	2919.95
1017.7594	2910.0953	3781.3	2902.7
1017.8748	2911.2098	3771.75	2887.8
1017.9902	2912.3236	3769.85	2881.65
1018.1056	2913.4368	3759.6	2876.75
1018.2209	2914.5494	3735.5	2855.75
1018.3362	2915.6613	3715.35	2829.4
1018.4515	2916.7725	3703.55	2818.95
1018.5667	2917.8831	3687.6	2808.15
1018.6819	2918.9931	3664.35	2783.55
1018.797	2920.1024	3644.75	2765.45
1018.9121	2921.211	3639.05	2758.2
1019.0271	2922.319	3609.7	2730.15
1019.1421	2923.4264	3592.6	2712.9
1019.2571	2924.5331	3587	2708.85
1019.372	2925.6391	3570.2	2691.6
1019.4869	2926.7445	3565.55	2687.75
1019.6017	2927.8493	3567.95	2688.85
1019.7165	2928.9534	3556.35	2676.55
1019.8313	2930.0569	3555.55	2674.1
1019.946	2931.1597	3551.6	2668.9
1020.0606	2932.2619	3552.1	2673.65
1020.1753	2933.3634	3527.8	2648.1
1020.2899	2934.4643	3535.85	2649.55
1020.4044	2935.5645	3518.25	2631.95
1020.5189	2936.6641	3505.15	2621.25
1020.6334	2937.763	3489.15	2610.7
1020.7478	2938.8613	3477.35	2595.95
1020.8622	2939.959	3442.8	2558.05
1020.9765	2941.056	3414.35	2535.95
1021.0908	2942.1523	3364.9	2483.95
1021.2051	2943.248	3325.2	2445.75
1021.3193	2944.3431	3279.15	2400.85
1021.4334	2945.4375	3226.3	2344.05
1021.5476	2946.5313	3187.3	2307.25
1021.6617	2947.6244	3136.9	2256.5
1021.7757	2948.7169	3087.15	2205.5
1021.8897	2949.8087	3028.2	2147.1
1022.0037	2950.8999	3000.05	2119
1022.1176	2951.9904	2956.8	2079.4
1022.2315	2953.0803	2906.9	2025.8
1022.3453	2954.1696	2865.35	1985.9
1022.4591	2955.2582	2857.2	1977.55
1022.5728	2956.3462	2810.6	1930.5
1022.6865	2957.4335	2804	1925
1022.8002	2958.5202	2788.45	1904.95
1022.9138	2959.6062	2755.45	1875.15
1023.0274	2960.6916	2743.8	1866.4
1023.141	2961.7764	2726.65	1844.8
1023.2545	2962.8605	2698.65	1818.95
1023.3679	2963.9439	2710.35	1831.55
1023.4813	2965.0267	2698.1	1817.6
1023.5947	2966.1089	2710.1	1807.05
1023.708	2967.1905	2674.7	1795.9
1023.8213	2968.2714	2682.25	1803
1023.9346	2969.3516	2649.3	1768.95
1024.0478	2970.4312	2662.9	1775.55
1024.1609	2971.5102	2650.5	1771.95
1024.274	2972.5885	2638.55	1756.5
1024.3871	2973.6662	2643	1757.45
1024.5002	2974.7432	2644.2	1766.65
1024.6132	2975.8196	2649.9	1770.9
1024.7261	2976.8954	2628.25	1747.25
1024.839	2977.9705	2611.85	1732
1024.9519	2979.045	2601.55	1723.6
1025.0647	2980.1188	2583.35	1705.5
1025.1775	2981.192	2563.6	1685.15
1025.2902	2982.2645	2563.15	1684.6
1025.4029	2983.3364	2545.45	1664
1025.5156	2984.4077	2526.75	1648.15
1025.6282	2985.4783	2513.55	1627.9
1025.7407	2986.5483	2489.3	1609.25
1025.8532	2987.6177	2482.55	1602.5
1025.9657	2988.6864	2458.5	1577.4
1026.0782	2989.7545	2445.65	1564.5
1026.1906	2990.8219	2407.5	1529.65
1026.3029	2991.8887	2398.95	1517.75
1026.4152	2992.9548	2375.4	1495.5
1026.5275	2994.0204	2359.6	1480.35
1026.6397	2995.0852	2345.6	1469.15
1026.7519	2996.1495	2339.95	1459.75
1026.864	2997.2131	2305.85	1426.8
1026.9761	2998.276	2287.95	1406.4
1027.0882	2999.3383	2281.85	1401.75
1027.2002	3000.4	2257.8	1377.3
1027.3122	3001.4611	2254.65	1375.1
1027.4241	3002.5215	2239.05	1358.5
1027.536	3003.5812	2228.15	1350.45
1027.6478	3004.6404	2218.4	1339.85
1027.7596	3005.6989	2211.2	1330.95
1027.8714	3006.7567	2203.15	1323.65
1027.9831	3007.8139	2214.4	1313.7
1028.0947	3008.8705	2186.85	1306.4
1028.2064	3009.9264	2177.25	1294.65
1028.3179	3010.9818	2166.5	1286.65
1028.4295	3012.0364	2153.35	1273.8
1028.541	3013.0905	2151	1269.65
1028.6524	3014.1439	2151.2	1271.35
1028.7638	3015.1966	2139.35	1259.7
1028.8752	3016.2487	2135.5	1256.05
1028.9865	3017.3002	2126.2	1243.2
1029.0978	3018.3511	2121.55	1244.55
1029.209	3019.4013	2123.75	1244.65
1029.3202	3020.4509	2115.25	1237.2
1029.4314	3021.4998	2112	1233.15
1029.5425	3022.5481	2099.25	1217.7
1029.6535	3023.5958	2087.75	1208.3
1029.7645	3024.6428	2095.25	1214.25
1029.8755	3025.6892	2085.7	1208.7
1029.9864	3026.735	2081.25	1202.1
1030.0973	3027.7802	2077.6	1200.5
1030.2082	3028.8247	2064.05	1184.45
1030.319	3029.8685	2066.15	1186.5
1030.4297	3030.9118	2061.3	1181.35
1030.5404	3031.9544	2052.75	1174.75
1030.6511	3032.9963	2047.2	1166.25
1030.7617	3034.0376	2048.8	1170.5
1030.8723	3035.0783	2043.45	1161.4
1030.9829	3036.1184	2043.75	1163.75
1031.0934	3037.1578	2047.7	1170.35
1031.2038	3038.1966	2036.75	1155.2
1031.3142	3039.2348	2036.95	1159.25
1031.4246	3040.2723	2032.1	1145
1031.5349	3041.3092	2011.1	1131.45
1031.6452	3042.3455	2020.75	1139.35
1031.7554	3043.3811	2012.4	1133.5
1031.8656	3044.4161	2004.65	1122.25
1031.9758	3045.4505	1996.2	1119.75
1032.0859	3046.4842	1993.8	1112.65
1032.1959	3047.5173	1987	1109.75
1032.3059	3048.5498	1983.2	1105.15
1032.4159	3049.5816	1981.5	1101.8
1032.5258	3050.6128	1970.55	1091.8
1032.6357	3051.6434	1964.55	1082.9
1032.7455	3052.6734	1964.9	1084.15
1032.8553	3053.7027	1971.15	1093.2
1032.9651	3054.7314	1964.65	1086.35
1033.0748	3055.7594	1951.7	1073.8
1033.1845	3056.7868	1948.9	1069.55
1033.2941	3057.8136	1932.45	1053.55
1033.4037	3058.8398	1929.35	1051.55
1033.5132	3059.8653	1931.95	1054.05
1033.6227	3060.8902	1918.15	1040.45
1033.7321	3061.9145	1919.55	1041.35
1033.8415	3062.9381	1910.3	1030.45
1033.9509	3063.9612	1919.75	1024.75
1034.0602	3064.9835	1908.55	1029.95
1034.1694	3066.0053	1906.1	1024.95
1034.2787	3067.0264	1899.05	1020.65
1034.3878	3068.0469	1908.25	1028.25
1034.497	3069.0668	1884.85	1002.75
1034.6061	3070.086	1878.9	1000.2
1034.7151	3071.1046	1867.65	989.95
1034.8241	3072.1226	1860.8	978.85
1034.9331	3073.1399	1872.15	993.2
1035.042	3074.1567	1848.7	968.25
1035.1508	3075.1727	1842.5	961.15
1035.2597	3076.1882	1846.05	968.3
1035.3684	3077.203	1843.2	964.55
1035.4772	3078.2173	1827.35	945.15
1035.5859	3079.2308	1832.55	950.5
1035.6945	3080.2438	1817.45	936.25
1035.8031	3081.2561	1813.4	934.95
1035.9117	3082.2678	1803.6	924.45
1036.0202	3083.2789	1799.3	920.95
1036.1286	3084.2893	1796.25	919.9
1036.2371	3085.2991	1785.3	905.55
1036.3454	3086.3083	1788.4	904.15
1036.4538	3087.3169	1773.1	894.75
1036.562	3088.3248	1766.9	884.1
1036.6703	3089.3321	1763.95	883.05
1036.7785	3090.3388	1756.05	878.3
1036.8866	3091.3449	1757	879.9
1036.9948	3092.3503	1754.3	871.9
1037.1028	3093.3551	1743.7	865.85
1037.2108	3094.3593	1740.9	862.85
1037.3188	3095.3629	1741.35	862.75
1037.4267	3096.3658	1736.05	855.75
1037.5346	3097.3681	1724.15	847.15
1037.6425	3098.3698	1731.75	850.5
1037.7503	3099.3708	1717.95	833.25
1037.858	3100.3713	1718.05	840.45
1037.9657	3101.3711	1705.75	824.6
1038.0734	3102.3702	1824.75	810.8
1038.181	3103.3688	1701.55	821.85
1038.2886	3104.3667	1684.2	807.1
1038.3961	3105.364	1679.45	800.25
1038.5036	3106.3607	1679.9	799.25
1038.611	3107.3568	1681.15	801.65
1038.7184	3108.3522	1667.3	787.55
1038.8257	3109.347	1671.95	790.8
1038.933	3110.3412	1665.8	784.3
1039.0403	3111.3348	1650.5	772.5
1039.1475	3112.3277	1648.6	768.9
1039.2547	3113.32	1641.05	763.5
1039.3618	3114.3117	1633.15	752.7
1039.4689	3115.3028	1642.95	764.8
1039.5759	3116.2932	1640.45	757.3
1039.6829	3117.2831	1631.85	747.7
1039.7898	3118.2723	1628.6	751.8
1039.8967	3119.2608	1619.65	741.05
1040.0035	3120.2488	1616.6	736.6
1040.1103	3121.2361	1608.7	729.2
1040.2171	3122.2229	1600.7	720.65
1040.3238	3123.209	1597.55	717.3
1040.4305	3124.1944	1599.3	719.75
1040.5371	3125.1793	1601.15	720.95
1040.6437	3126.1635	1591.3	715.1
1040.7502	3127.1471	1585.4	707
1040.8567	3128.1301	1584.8	706.25
1040.9631	3129.1125	1579.15	700.1
1041.0695	3130.0942	1573	693.85
1041.1759	3131.0753	1580.85	693.9
1041.2822	3132.0558	1570.55	686.6
1041.3884	3133.0357	1561.4	682.75
1041.4946	3134.015	1566.5	686.75
1041.6008	3134.9936	1567.2	687.3
1041.7069	3135.9716	1577.95	678.45
1041.813	3136.949	1554.15	677.55
1041.919	3137.9258	1561.3	677.45
1042.025	3138.902	1548.4	662.2
1042.1309	3139.8775	1544.8	667.95
1042.2368	3140.8524	1538.65	658.25
1042.3427	3141.8267	1542.8	662.65
1042.4485	3142.8004	1531.95	650.25
1042.5542	3143.7735	1537.3	653.1
1042.6599	3144.7459	1539.4	660.3
1042.7656	3145.7178	1529	649.75
1042.8712	3146.689	1530.8	652.3
1042.9768	3147.6596	1521.55	639.75
1043.0823	3148.6295	1518.6	639.45
1043.1878	3149.5989	1509.9	630.55
1043.2932	3150.5676	1507.05	630.35
1043.3986	3151.5357	1505.4	628.5
1043.5039	3152.5032	1498.5	619.1
1043.6092	3153.4701	1501.65	622.35
1043.7145	3154.4364	1492.75	610.85
1043.8197	3155.402	1489.8	612.15
1043.9248	3156.367	1488.55	607.05
1044.03	3157.3315	1526.25	609.7
1044.135	3158.2952	1481.75	603.75
1044.24	3159.2584	1479.35	600.95
1044.345	3160.221	1478.85	598.6
1044.4499	3161.1829	1470.3	593.4
1044.5548	3162.1442	1471.45	592.8
1044.6596	3163.105	1463	585.5
1044.7644	3164.065	1464	585.75
1044.8692	3165.0245	1455.75	573.65
1044.9739	3165.9834	1453.7	577.9
1045.0785	3166.9416	1457.95	578.2
1045.1831	3167.8993	1458.35	579.25
1045.2877	3168.8563	1445.55	566.45
1045.3922	3169.8127	1436.75	558.05
1045.4966	3170.7684	1434.75	555.1
1045.6011	3171.7236	1437.1	556.1
1045.7054	3172.6782	1430	552.2
1045.8098	3173.6321	1435.2	555.3
1045.914	3174.5854	1430.8	549.05
1046.0183	3175.5381	1420	541.75
1046.1224	3176.4902	1415.5	536.85
1046.2266	3177.4417	1416.4	539.65
1046.3307	3178.3926	1411.3	533.3
1046.4347	3179.3428	1412.1	533.85
1046.5387	3180.2924	1416.1	538.55
1046.6427	3181.2415	1408.85	531.7
1046.7466	3182.1899	1403.45	522.75
1046.8504	3183.1377	1399.1	521.05
1046.9542	3184.0848	1397.7	516.4
1047.058	3185.0314	1392.65	514.75
1047.1617	3185.9773	1396.85	518
1047.2654	3186.9227	1386.6	507.35
1047.369	3187.8674	1388.45	508.35
1047.4726	3188.8115	1386.8	504.55
1047.5761	3189.755	1385.25	506.45
1047.6796	3190.6979	1379.15	500.35
1047.783	3191.6402	1372	494.55
1047.8864	3192.5818	1376.85	497.2
1047.9898	3193.5229	1389.1	493.3
1048.0931	3194.4633	1374.5	494.7
1048.1963	3195.4031	1370.85	492.1
1048.2995	3196.3423	1363.2	485.7
1048.4027	3197.2809	1362.65	483.9
1048.5058	3198.2189	1362.65	485.05
1048.6089	3199.1563	1374.75	477.8
1048.7119	3200.0931	1356.95	479.05
1048.8148	3201.0292	1346.7	468.25
1048.9178	3201.9648	1350.95	472.9
1049.0206	3202.8997	1351.8	470.85
1049.1235	3203.834	1343.4	463.95
1049.2262	3204.7677	1336.65	458.6
1049.329	3205.7008	1336.45	458.35
1049.4317	3206.6333	1335.7	458.45
1049.5343	3207.5652	1336.65	456.15
1049.6369	3208.4964	1335.7	457.25
1049.7394	3209.4271	1327.1	448.85
1049.8419	3210.3571	1326.15	448.55
1049.9444	3211.2865	1329.2	450.65
1050.0468	3212.2154	1323.95	444.35
1050.1491	3213.1436	1324	443.25
1050.2514	3214.0712	1320.1	436.05
1050.3537	3214.9982	1319.9	441.65
1050.4559	3215.9246	1316.05	435.85
1050.5581	3216.8503	1311.9	432.8
1050.6602	3217.7755	1310.55	430.4
1050.7623	3218.7001	1310.05	432.1
1050.8643	3219.624	1307.4	427.4
1050.9663	3220.5473	1308	428.6
1051.0682	3221.4701	1303.1	424.7
1051.1701	3222.3922	1306.65	426.15
1051.2719	3223.3137	1295.25	416.6
1051.3737	3224.2346	1299.3	419.6
1051.4754	3225.1549	1288.2	409.8
1051.5771	3226.0746	1295.15	416.95
1051.6788	3226.9937	1290.65	411.45
1051.7804	3227.9121	1282.7	405.3
1051.8819	3228.83	1282.8	405.45
1051.9834	3229.7473	1286.2	407.45
1052.0849	3230.6639	1284.55	405.75
1052.1863	3231.5799	1273.25	395.25
1052.2876	3232.4954	1275.95	393.6
1052.3889	3233.4102	1271	394.85
1052.4902	3234.3244	1264.4	385.3
1052.5914	3235.238	1268.9	391.45
1052.6926	3236.151	1289.3	386.35
1052.7937	3237.0634	1263.5	386.45
1052.8948	3237.9752	1265.45	386.45
1052.9958	3238.8864	1256.35	377.3
1053.0968	3239.797	1255.05	376.9
1053.1977	3240.7069	1252.2	373.3
1053.2986	3241.6163	1248.75	368.15
1053.3994	3242.5251	1249.5	373.1
1053.5002	3243.4332	1248.6	371.4
1053.6009	3244.3408	1248.05	370.95
1053.7016	3245.2477	1246.4	367.7
1053.8022	3246.154	1243.4	366
1053.9028	3247.0598	1244.55	365.55
1054.0034	3247.9649	1232.75	354.1
1054.1039	3248.8694	1229.55	351.95
1054.2043	3249.7733	1227.1	347.75
1054.3047	3250.6766	1225.2	349.55
1054.4051	3251.5793	1231.1	351.1
1054.5054	3252.4814	1222.3	343.8
1054.6056	3253.3829	1224.45	347.45
1054.7058	3254.2838	1216.6	340.9
1054.806	3255.1841	1216.25	339.1
1054.9061	3256.0838	1214.5	334.85
1055.0061	3256.9829	1214.8	337.35
1055.1062	3257.8814	1210.3	329.7
1055.2061	3258.7792	1207.25	328.25
1055.306	3259.6765	1208.15	330.05
1055.4059	3260.5731	1196.45	318.1
1055.5057	3261.4692	1192.7	313.5
1055.6055	3262.3647	1197.2	320
1055.7052	3263.2595	1185	306.5
1055.8049	3264.1538	1185	307.75
1055.9045	3265.0474	1181.75	302.85
1056.0041	3265.9404	1178.55	300.7
1056.1036	3266.8329	1168.15	291.95
1056.2031	3267.7247	1172.4	285.4
1056.3025	3268.616	1157.25	281.9
1056.4019	3269.5066	1151.3	272.5
1056.5013	3270.3966	1142.9	262.5
1056.6005	3271.286	1138.4	261.7
