Software Version:	3.9.2.0
Unit SN:	10000200
Spectrometer SN:	6960
Date:	3/6/2024 10:45:47 AM
Data Line Index:	25
Spectral Points:	2048
Integration time (ms):	125
Averages:	20
Delay (ms):	30
Sequence Number:	1
Processing:	dark subtract
Laser Power (mW):	295
Laser Current (mA):	823
Laser Diode Temp (C):	25.1
Laser Case Temp (C):	27.3
System Temp (C):	27.1
Spectrometer Temp (C):	24.5
CCD Temp (C):	0.002
Secondary Temp (C):	20.008
Heatsink Temp (C):	22.957
CCDPCB Temp (C):	36.629
SecondaryPCB Temp (C):	34.061

Wavelength	RamanShift	Raw Counts	Dark Subtracted
787.061	30.1047	1141.8	728.6
787.2016	32.3739	1174.45	762.85
787.3422	34.6426	1215.95	802.95
787.4828	36.9109	1268.1	852.95
787.6235	39.1787	1320	902.8
787.7642	41.4461	1384.65	962.35
787.9049	43.7131	1447.4	1019.9
788.0456	45.9796	1510.2	1080
788.1863	48.2456	1580.55	1147
788.3271	50.5112	1654.9	1216.85
788.4679	52.7764	1723.55	1282.35
788.6087	55.0411	1811	1368.3
788.7496	57.3054	1902.7	1453.85
788.8904	59.5692	1990.5	1540.85
789.0313	61.8326	2087.45	1632.45
789.1722	64.0955	2195.65	1737.9
789.3132	66.3579	2318.6	1855.8
789.4541	68.6199	2488.25	2019.55
789.5951	70.8815	2728.95	2260
789.7361	73.1426	3268.6	2793.5
789.8771	75.4032	4594.7	4115.3
790.0181	77.6634	7979.05	7495.45
790.1592	79.9231	16904.2	16415.55
790.3003	82.1824	55481.6	54981.3
790.4414	84.4412	65535	65017.7
790.5825	86.6995	65535	64992.85
790.7237	88.9574	65535	64965.65
790.8648	91.2148	65535	64952.3
791.006	93.4717	65535	64940.5
791.1472	95.7282	65535	64936.25
791.2885	97.9842	65535	64929.85
791.4297	100.2398	65535	64930.95
791.571	102.4949	65535	64923.3
791.7123	104.7495	65535	64921.7
791.8536	107.0036	65535	64921.55
791.9949	109.2573	65535	64919.95
792.1363	111.5105	65535	64920.85
792.2777	113.7632	65535	64918
792.4191	116.0154	65535	64903.4
792.5605	118.2672	65535	64916.25
792.7019	120.5185	65535	64914
792.8434	122.7693	65535	64911.55
792.9849	125.0197	65535	64906.95
793.1264	127.2696	65535	64903.1
793.2679	129.519	65535	64896.55
793.4094	131.7679	65535	64897.25
793.551	134.0163	65535	64892.25
793.6926	136.2642	65535	64890.8
793.8342	138.5117	65535	64880.25
793.9758	140.7587	65535	64889.35
794.1175	143.0052	65535	64884.45
794.2591	145.2512	65535	64884.6
794.4008	147.4967	65535	64883.55
794.5425	149.7417	65535	64877.85
794.6842	151.9863	65535	64879.8
794.826	154.2304	65535	64874.75
794.9677	156.4739	65535	64867.45
795.1095	158.717	65535	64867.55
795.2513	160.9596	65535	64865.9
795.3931	163.2017	65535	64861.5
795.535	165.4433	65535	64856
795.6768	167.6844	65535	64859.55
795.8187	169.925	65535	64852.55
795.9606	172.1651	65535	64852.9
796.1025	174.4047	65535	64848.5
796.2445	176.6439	65535	64846.8
796.3864	178.8825	65535	64845.65
796.5284	181.1206	65535	64839.95
796.6704	183.3582	65535	64835.65
796.8124	185.5954	65535	64834.7
796.9544	187.832	65535	64831.05
797.0965	190.0681	65535	64829.95
797.2386	192.3037	65535	64825.95
797.3806	194.5388	65535	64820.3
797.5228	196.7734	65535	64818.15
797.6649	199.0075	65535	64816.1
797.807	201.2411	65535	64817.1
797.9492	203.4742	65535	64815.15
798.0914	205.7068	65535	64813.1
798.2336	207.9389	65535	64809.6
798.3758	210.1704	65535	64808.2
798.518	212.4015	65535	64807.6
798.6603	214.632	65535	64815.15
798.8025	216.862	65535	64828.15
798.9448	219.0915	65535	64830.8
799.0871	221.3205	65535	64829.05
799.2294	223.549	65535	64833.4
799.3718	225.777	65535	64830.65
799.5141	228.0044	65535	64824
799.6565	230.2314	65535	64828.1
799.7989	232.4578	65535	64823.9
799.9413	234.6837	65535	64812.85
800.0837	236.909	65535	64818.05
800.2262	239.1339	65535	64790.05
800.3687	241.3582	65535	64804.8
800.5111	243.582	65535	64772.85
800.6536	245.8053	65535	64786.1
800.7961	248.0281	65535	64790.2
800.9387	250.2503	65535	64787.85
801.0812	252.472	65535	64782.35
801.2238	254.6932	65535	64780.55
801.3664	256.9139	65535	64778.85
801.509	259.134	65535	64776.5
801.6516	261.3536	65535	64778.15
801.7942	263.5727	65535	64772.55
801.9369	265.7912	65535	64775.3
802.0795	268.0092	65535	64778.1
802.2222	270.2267	65535	64776.3
802.3649	272.4436	65535	64776.4
802.5076	274.6601	65535	64767.45
802.6504	276.8759	65535	64772.05
802.7931	279.0913	65535	64767.25
802.9359	281.3061	65535	64770.8
803.0787	283.5204	65535	64765.55
803.2215	285.7341	65535	64760.05
803.3643	287.9473	65535	64749.9
803.5071	290.16	65535	64755.6
803.6499	292.3721	65535	64765.25
803.7928	294.5837	65535	64762.15
803.9357	296.7947	65535	64764
804.0786	299.0052	65535	64761.4
804.2215	301.2152	65535	64757.2
804.3644	303.4246	65535	64763.2
804.5074	305.6334	65535	64758.95
804.6503	307.8418	65535	64757.65
804.7933	310.0495	65535	64756.95
804.9363	312.2568	65535	64758.25
805.0793	314.4635	65535	64756.45
805.2223	316.6696	65535	64752.85
805.3653	318.8752	65535	64742.35
805.5084	321.0802	65535	64751.1
805.6514	323.2847	65535	64749.55
805.7945	325.4887	65535	64750.15
805.9376	327.692	65535	64751.6
806.0807	329.8949	65535	64745.5
806.2238	332.0972	65535	64743.35
806.367	334.2989	65535	64738.65
806.5101	336.5001	65535	64741.4
806.6533	338.7007	65535	64740.5
806.7965	340.9008	65535	64739.65
806.9397	343.1003	65535	64736
807.0829	345.2992	65535	64736.45
807.2261	347.4976	65535	64736.85
807.3693	349.6955	65535	64730.9
807.5126	351.8927	65535	64730.55
807.6559	354.0895	65535	64723.1
807.7991	356.2856	65535	64729.6
807.9424	358.4812	65535	64732
808.0857	360.6763	65535	64731.05
808.2291	362.8707	65535	64730.35
808.3724	365.0646	65535	64722.45
808.5158	367.258	65535	64723
808.6591	369.4508	65535	64717.95
808.8025	371.643	65535	64718
808.9459	373.8346	65535	64716.85
809.0893	376.0257	65535	64716.7
809.2327	378.2162	65535	64715.55
809.3762	380.4062	65535	64712.1
809.5196	382.5956	65535	64711.65
809.6631	384.7844	65535	64713.5
809.8066	386.9726	65535	64715.3
809.9501	389.1603	65535	64720.05
810.0936	391.3474	65535	64676.8
810.2371	393.5339	65535	64717.8
810.3806	395.7199	65535	64720.4
810.5241	397.9052	65535	64721.2
810.6677	400.09	65535	64723.55
810.8113	402.2743	65535	64722.5
810.9548	404.4579	65535	64719.15
811.0984	406.641	65535	64718.1
811.2421	408.8235	65535	64716.25
811.3857	411.0054	65535	64716.2
811.5293	413.1868	65535	64709.1
811.673	415.3675	65535	64709.5
811.8166	417.5477	65535	64709.1
811.9603	419.7273	65535	64708.3
812.104	421.9064	65535	64702.55
812.2477	424.0848	65535	64703.15
812.3914	426.2627	65535	64700.65
812.5351	428.4399	65535	64704.5
812.6788	430.6166	65535	64702.25
812.8226	432.7928	65535	64698.15
812.9663	434.9683	65535	64697.05
813.1101	437.1432	65535	64694.75
813.2539	439.3176	65535	64697
813.3977	441.4914	65535	64698.55
813.5415	443.6645	65535	64692.7
813.6853	445.8371	65535	64695.85
813.8291	448.0091	65535	64695.95
813.973	450.1806	65535	64696.15
814.1168	452.3514	65535	64693.5
814.2607	454.5216	65535	64685.45
814.4046	456.6913	65535	64691.2
814.5485	458.8603	65535	64695.65
814.6924	461.0288	65535	64692.2
814.8363	463.1967	65535	64695.6
814.9802	465.3639	65535	64692.2
815.1241	467.5306	65535	64690.15
815.2681	469.6967	65535	64690.2
815.412	471.8622	65535	64692.15
815.556	474.0271	65535	64692.35
815.7	476.1914	65535	64688.3
815.844	478.3551	65535	64688
815.988	480.5182	65535	64687.25
816.132	482.6807	65535	64692.8
816.276	484.8426	65535	64688.45
816.4201	487.0039	65535	64689.05
816.5641	489.1647	65535	64682.65
816.7082	491.3248	65535	64688.05
816.8522	493.4843	65535	64685.15
816.9963	495.6432	65535	64686.45
817.1404	497.8015	65535	64683.7
817.2845	499.9592	65535	64684.35
817.4286	502.1163	65535	64684.35
817.5727	504.2728	65535	64681.75
817.7168	506.4287	65535	64682.75
817.861	508.5839	65535	64684.6
818.0051	510.7386	65535	64681.45
818.1493	512.8927	65535	64675.15
818.2935	515.0461	65535	64682.35
818.4377	517.199	65535	64682.5
818.5818	519.3512	65535	64679.55
818.726	521.5029	65535	64674.1
818.8703	523.6539	65535	64677.9
819.0145	525.8043	65535	64677.05
819.1587	527.9541	65535	64677.65
819.303	530.1033	65535	64676.9
819.4472	532.2519	65535	64677.9
819.5915	534.3999	65535	64672
819.7357	536.5472	65535	64675.5
819.88	538.694	65535	64675.35
820.0243	540.8401	65535	64673.05
820.1686	542.9856	65535	64669.95
820.3129	545.1305	65535	64668.35
820.4572	547.2748	65535	64672.5
820.6016	549.4185	65535	64668.4
820.7459	551.5615	65535	64668.9
820.8902	553.704	65535	64669.9
821.0346	555.8458	65535	64673.5
821.1789	557.987	65535	64672.4
821.3233	560.1276	65535	64670.1
821.4677	562.2675	65535	64672.95
821.6121	564.4069	65535	64670.55
821.7565	566.5456	65535	64673
821.9009	568.6837	65535	64671
822.0453	570.8212	65535	64673.65
822.1897	572.958	65535	64669.65
822.3342	575.0942	65535	64670
822.4786	577.2299	65535	64672.45
822.6231	579.3648	65535	64672.9
822.7675	581.4992	65535	64668.7
822.912	583.6329	65535	64673.6
823.0565	585.766	65535	64670.3
823.201	587.8985	65535	64673.75
823.3454	590.0304	65535	64643.7
823.4899	592.1616	65535	64666.45
823.6345	594.2922	65535	64665.6
823.779	596.4222	65535	64665.6
823.9235	598.5515	65535	64661.05
824.068	600.6802	65535	64667.15
824.2126	602.8083	65535	64665.15
824.3571	604.9358	65535	64661.55
824.5017	607.0626	65535	64662.75
824.6462	609.1888	65535	64662.1
824.7908	611.3144	65535	64661.8
824.9354	613.4393	65535	64663.5
825.08	615.5636	65535	64661.4
825.2246	617.6873	65535	64663.25
825.3692	619.8103	65535	64661.25
825.5138	621.9327	65535	64660.85
825.6584	624.0544	65535	64661.5
825.803	626.1756	65535	64664.45
825.9477	628.2961	65535	64661.55
826.0923	630.4159	65535	64664.65
826.237	632.5351	65535	64660.85
826.3816	634.6537	65535	64656.8
826.5263	636.7716	65535	64660.85
826.6709	638.8889	65535	64658.65
826.8156	641.0056	65535	64658.75
826.9603	643.1216	65535	64660.8
827.105	645.237	65535	64654.55
827.2497	647.3518	65535	64658.1
827.3944	649.4659	65535	64658.45
827.5391	651.5793	65535	64659.4
827.6838	653.6922	65535	64658.65
827.8285	655.8043	65535	64659.2
827.9733	657.9159	65535	64656
828.118	660.0268	65535	64655.35
828.2627	662.137	65535	64655.05
828.4075	664.2466	65535	64652.05
828.5522	666.3556	65535	64653.5
828.697	668.4639	65535	64650.5
828.8418	670.5716	65535	64654.75
828.9865	672.6786	65535	64656.2
829.1313	674.785	65535	64653.45
829.2761	676.8907	65535	64653.85
829.4209	678.9958	65535	64657.55
829.5657	681.1002	65535	64653.3
829.7105	683.204	65535	64649.7
829.8553	685.3072	65535	64652.75
830.0001	687.4097	65535	64653.25
830.1449	689.5115	65535	64651
830.2898	691.6127	65535	64652.75
830.4346	693.7132	65535	64653.05
830.5794	695.8131	65535	64645.05
830.7243	697.9123	65535	64648.55
830.8691	700.0109	65535	64648.95
831.014	702.1089	65535	64650.9
831.1588	704.2061	65535	64651.55
831.3037	706.3028	65535	64648.7
831.4486	708.3987	65535	64650.35
831.5935	710.4941	65535	64648.25
831.7383	712.5887	65535	64650.85
831.8832	714.6827	65535	64644.95
832.0281	716.7761	65535	64649.55
832.173	718.8688	65535	64646.25
832.3179	720.9608	65535	64645.6
832.4628	723.0522	65535	64644.75
832.6077	725.1429	65535	64647.8
832.7527	727.233	65535	64649.45
832.8976	729.3224	65535	64646.7
833.0425	731.4112	65535	64645.85
833.1874	733.4993	65535	64646.85
833.3324	735.5867	65535	64643.25
833.4773	737.6735	65535	64642.7
833.6222	739.7596	65535	64644.9
833.7672	741.845	65535	64643.25
833.9122	743.9298	65535	64643.75
834.0571	746.014	65535	64648.2
834.2021	748.0974	65535	64642.75
834.347	750.1802	65535	64644.55
834.492	752.2624	65535	64647.85
834.637	754.3439	65535	64644.3
834.782	756.4247	65535	64636.1
834.9269	758.5048	65535	64644.85
835.0719	760.5843	65535	64647.4
835.2169	762.6631	65535	64643.7
835.3619	764.7413	65535	64647.5
835.5069	766.8188	65535	64645.25
835.6519	768.8956	65535	64641.2
835.7969	770.9718	65535	64644.6
835.9419	773.0473	65535	64643.35
836.0869	775.1221	65535	64643.85
836.232	777.1962	65535	64644.05
836.377	779.2697	65535	64645.1
836.522	781.3426	65535	64624.05
836.667	783.4147	65535	64639.9
836.8121	785.4862	65535	64646.95
836.9571	787.557	65535	64645.15
837.1021	789.6271	65535	64641.6
837.2472	791.6966	65535	64643.1
837.3922	793.7654	65535	64642.05
837.5373	795.8335	65535	64644.15
837.6823	797.901	65535	64642.25
837.8274	799.9678	65535	64638.35
837.9724	802.0339	65535	64643.2
838.1175	804.0993	65535	64632.25
838.2626	806.1641	65535	64642.65
838.4076	808.2282	65535	64644.55
838.5527	810.2916	65535	64640.05
838.6978	812.3544	65535	64642.7
838.8428	814.4164	65535	64642.8
838.9879	816.4778	65535	64639.85
839.133	818.5385	65535	64638.85
839.2781	820.5986	65535	64638.9
839.4232	822.658	65535	64639.7
839.5682	824.7166	65535	64640.85
839.7133	826.7747	65535	64641.55
839.8584	828.832	65535	64642.5
840.0035	830.8886	65535	64638.7
840.1486	832.9446	65535	64638.65
840.2937	834.9999	65535	64641.55
840.4388	837.0545	65535	64634.6
840.5839	839.1085	65535	64638.5
840.729	841.1618	65535	64636.5
840.8741	843.2143	65535	64638.85
841.0192	845.2662	65535	64638.6
841.1643	847.3175	65535	64641.45
841.3095	849.368	65535	64639.25
841.4546	851.4179	65535	64638.9
841.5997	853.467	65535	64640.4
841.7448	855.5155	65535	64641.7
841.8899	857.5633	65535	64639.15
842.0351	859.6105	65535	64641.85
842.1802	861.6569	65535	64641.45
842.3253	863.7027	65535	64634.4
842.4704	865.7478	65535	64636.65
842.6156	867.7922	65535	64638.3
842.7607	869.8359	65535	64637.65
842.9058	871.8789	65535	64638.25
843.0509	873.9212	65535	64605.6
843.1961	875.9629	65535	64638.65
843.3412	878.0039	65535	64639.65
843.4863	880.0441	65535	64638.5
843.6315	882.0837	65535	64638.75
843.7766	884.1226	65535	64634.4
843.9218	886.1609	65535	64639.7
844.0669	888.1984	65535	64637.7
844.212	890.2352	65535	64637.75
844.3572	892.2714	65535	64634.5
844.5023	894.3069	65535	64635.55
844.6475	896.3416	65535	64636.1
844.7926	898.3757	65535	64637.55
844.9377	900.4091	65535	64635.4
845.0829	902.4418	65535	64632.85
845.228	904.4739	65535	64635.05
845.3732	906.5052	65535	64636.75
845.5183	908.5358	65535	64637.95
845.6635	910.5658	65535	64633.9
845.8086	912.595	65535	64635.8
845.9538	914.6236	65535	64635.6
846.0989	916.6515	65535	64637.05
846.2441	918.6786	65535	64635.75
846.3892	920.7051	65535	64634.1
846.5344	922.7309	65535	64636
846.6795	924.756	65535	64633.85
846.8246	926.7804	65535	64633.5
846.9698	928.8041	65535	64634.95
847.1149	930.8272	65535	64636.35
847.2601	932.8495	65535	64634.4
847.4052	934.8711	65535	64635.85
847.5504	936.892	65535	64635.65
847.6955	938.9123	65535	64634.95
847.8407	940.9318	65535	64634.6
847.9858	942.9506	65535	64635.6
848.131	944.9688	65535	64633.7
848.2761	946.9862	65535	64635.6
848.4213	949.003	65535	64638.3
848.5664	951.019	65535	64633.4
848.7115	953.0344	65535	64636.7
848.8567	955.0491	65535	64634.85
849.0018	957.063	65535	64633.9
849.147	959.0763	65535	64635.3
849.2921	961.0888	65535	64633.95
849.4373	963.1007	65535	64635.5
849.5824	965.1119	65535	64637.4
849.7275	967.1223	65535	64635.85
849.8727	969.1321	65535	64636.65
850.0178	971.1412	65535	64634.95
850.1629	973.1495	65535	64635
850.3081	975.1572	65535	64600.9
850.4532	977.1641	65535	64634.7
850.5983	979.1704	65535	64632.55
850.7435	981.1759	65535	64631.25
850.8886	983.1808	65535	64634.3
851.0337	985.1849	65535	64624.05
851.1788	987.1884	65535	64633.3
851.324	989.1911	65535	64631.05
851.4691	991.1932	65535	64633.15
851.6142	993.1945	65535	64634.4
851.7593	995.1951	65535	64634.7
851.9045	997.1951	65535	64628.75
852.0496	999.1943	65535	64634.7
852.1947	1001.1928	65535	64633.6
852.3398	1003.1906	65535	64633.85
852.4849	1005.1877	65535	64632.65
852.63	1007.1841	65535	64634.45
852.7751	1009.1798	65535	64636
852.9202	1011.1748	65535	64635.85
853.0653	1013.1691	65535	64635
853.2104	1015.1627	65535	64634.05
853.3555	1017.1556	65535	64634.25
853.5006	1019.1477	65535	64632.15
853.6457	1021.1392	65535	64635.7
853.7908	1023.1299	65535	64634.65
853.9359	1025.12	65535	64632.75
854.081	1027.1093	65535	64638.7
854.2261	1029.0979	65535	64638.8
854.3712	1031.0859	65535	64636.25
854.5163	1033.0731	65535	64637.55
854.6613	1035.0596	65535	64634.65
854.8064	1037.0454	65535	64636.6
854.9515	1039.0304	65535	64633.6
855.0965	1041.0148	65535	64634.9
855.2416	1042.9985	65535	64633.05
855.3867	1044.9814	65535	64637.6
855.5317	1046.9636	65535	64634.4
855.6768	1048.9452	65535	64636.7
855.8219	1050.926	65535	64634.5
855.9669	1052.9061	65535	64636.95
856.112	1054.8855	65535	64633.15
856.257	1056.8642	65535	64635.2
856.4021	1058.8421	65535	64629.65
856.5471	1060.8194	65535	64632.85
856.6921	1062.7959	65535	64631.5
856.8372	1064.7717	65535	64634.45
856.9822	1066.7469	65535	64632.85
857.1272	1068.7213	65535	64632.25
857.2723	1070.695	65535	64636.55
857.4173	1072.6679	65535	64634.25
857.5623	1074.6402	65535	64634.15
857.7073	1076.6117	65535	64629.05
857.8523	1078.5826	65535	64634.7
857.9973	1080.5527	65535	64631.65
858.1423	1082.5221	65535	64631.8
858.2873	1084.4908	65535	64635.5
858.4323	1086.4587	65535	64634.35
858.5773	1088.426	65535	64634.4
858.7223	1090.3925	65535	64628.1
858.8673	1092.3584	65535	64634.1
859.0123	1094.3235	65535	64635.15
859.1573	1096.2879	65535	64635.75
859.3022	1098.2515	65535	64632.55
859.4472	1100.2145	65535	64633.5
859.5922	1102.1767	65535	64631.7
859.7371	1104.1382	65535	64632
859.8821	1106.099	65535	64630.3
860.027	1108.0591	65535	64632.45
860.172	1110.0185	65535	64632.7
860.3169	1111.9771	65535	64635.45
860.4619	1113.9351	65535	64633.25
860.6068	1115.8923	65535	64630.4
860.7517	1117.8488	65535	64633.35
860.8967	1119.8045	65535	64633.3
861.0416	1121.7596	65535	64634.8
861.1865	1123.7139	65535	64634.4
861.3314	1125.6675	65535	64635.6
861.4763	1127.6204	65535	64632.65
861.6212	1129.5726	65535	64631.15
861.7661	1131.524	65535	64635.3
861.911	1133.4748	65535	64634.15
862.0559	1135.4248	65535	64633.3
862.2008	1137.3741	65535	64635.8
862.3457	1139.3226	65535	64631.4
862.4905	1141.2705	65535	64635.7
862.6354	1143.2176	65535	64627.1
862.7803	1145.164	65535	64629.95
862.9251	1147.1097	65535	64633.5
863.07	1149.0546	65535	64634.9
863.2148	1150.9989	65535	64635.45
863.3597	1152.9424	65535	64632.65
863.5045	1154.8852	65535	64633.2
863.6493	1156.8272	65535	64633.75
863.7942	1158.7686	65535	64626.05
863.939	1160.7092	65535	64633
864.0838	1162.6491	65535	64631.85
864.2286	1164.5883	65535	64632.55
864.3734	1166.5267	65535	64632.15
864.5182	1168.4644	65535	64630.65
864.663	1170.4014	65535	64627.8
864.8078	1172.3377	65535	64634.4
864.9526	1174.2732	65535	64633.55
865.0974	1176.2081	65535	64635.45
865.2421	1178.1421	65535	64628.45
865.3869	1180.0755	65535	64633.65
865.5317	1182.0082	65535	64632.8
865.6764	1183.9401	65535	64631.85
865.8212	1185.8713	65535	64636.95
865.9659	1187.8017	65535	64632
866.1106	1189.7315	65535	64636.55
866.2554	1191.6605	65535	64606.65
866.4001	1193.5888	65535	64632.4
866.5448	1195.5163	65535	64635.25
866.6895	1197.4432	65535	64632.15
866.8342	1199.3693	65535	64634.8
866.9789	1201.2947	65535	64633.85
867.1236	1203.2193	65535	64634.05
867.2683	1205.1432	65535	64633.6
867.413	1207.0664	65535	64632.25
867.5576	1208.9889	65535	64630.5
867.7023	1210.9106	65535	64633
867.847	1212.8316	65535	64635.65
867.9916	1214.7519	65535	64622.95
868.1363	1216.6715	65535	64634.85
868.2809	1218.5903	65535	64634.7
868.4255	1220.5084	65535	64633.85
868.5701	1222.4257	65535	64635.7
868.7148	1224.3424	65535	64633.2
868.8594	1226.2583	65535	64629.1
869.004	1228.1735	65535	64633.2
869.1486	1230.0879	65535	64634.3
869.2932	1232.0016	65535	64633.15
869.4377	1233.9146	65535	64630.6
869.5823	1235.8269	65535	64633.55
869.7269	1237.7384	65535	64634.45
869.8715	1239.6492	65535	64634.5
870.016	1241.5592	65535	64634.35
870.1606	1243.4686	65535	64632.65
870.3051	1245.3772	65535	64635.1
870.4496	1247.285	65535	64632.35
870.5941	1249.1922	65535	64633.9
870.7387	1251.0986	65535	64636.1
870.8832	1253.0042	65535	64633.95
871.0277	1254.9092	65535	64632.6
871.1722	1256.8134	65535	64635.75
871.3167	1258.7169	65535	64634.15
871.4611	1260.6196	65535	64634.15
871.6056	1262.5216	65535	64633.9
871.7501	1264.4229	65535	64636.2
871.8945	1266.3234	65535	64638.2
872.039	1268.2232	65535	64632.6
872.1834	1270.1223	65535	64633.95
872.3278	1272.0207	65535	64633.25
872.4723	1273.9183	65535	64626.95
872.6167	1275.8151	65535	64633.85
872.7611	1277.7113	65535	64632.5
872.9055	1279.6067	65535	64634.3
873.0499	1281.5014	65535	64631.25
873.1943	1283.3953	65535	64631.85
873.3386	1285.2885	65535	64636.9
873.483	1287.181	65535	64633.3
873.6274	1289.0727	65535	64635.5
873.7717	1290.9637	65535	64633.85
873.9161	1292.854	65535	64631.15
874.0604	1294.7435	65535	64631.15
874.2047	1296.6323	65535	64631.75
874.349	1298.5204	65535	64631.95
874.4933	1300.4077	65535	64634.75
874.6376	1302.2943	65535	64634.8
874.7819	1304.1802	65535	64635.2
874.9262	1306.0653	65535	64631.15
875.0705	1307.9497	65535	64636.3
875.2147	1309.8333	65535	64636.9
875.359	1311.7162	65535	64634.8
875.5032	1313.5984	65535	64631.85
875.6475	1315.4798	65535	64620.15
875.7917	1317.3605	65535	64620.05
875.9359	1319.2405	65535	64632.55
876.0801	1321.1197	65535	64632.6
876.2243	1322.9982	65535	64627.8
876.3685	1324.876	65535	64635.35
876.5127	1326.753	65535	64634.7
876.6569	1328.6293	65535	64633.5
876.801	1330.5048	65535	64633.55
876.9452	1332.3796	65535	64636.05
877.0893	1334.2537	65535	64607.4
877.2335	1336.127	65535	64633.75
877.3776	1337.9996	65535	64636.3
877.5217	1339.8714	65535	64634.5
877.6658	1341.7426	65535	64589.75
877.8099	1343.6129	65535	64633.9
877.954	1345.4826	65535	64633.8
878.0981	1347.3515	65535	64633.2
878.2422	1349.2196	65535	64633.2
878.3862	1351.087	65535	64632.15
878.5303	1352.9537	65535	64633.9
878.6743	1354.8197	65535	64633.8
878.8184	1356.6849	65535	64631.4
878.9624	1358.5493	65535	64633.25
879.1064	1360.4131	65535	64634.6
879.2504	1362.276	65535	64634.7
879.3944	1364.1383	65535	64634.9
879.5384	1365.9998	65535	64627.5
879.6823	1367.8606	65535	64634.8
879.8263	1369.7206	65535	64633.85
879.9702	1371.5799	65535	64632.35
880.1142	1373.4384	65535	64632.8
880.2581	1375.2962	65535	64630.9
880.402	1377.1533	65535	64634.75
880.5459	1379.0096	65535	64633.9
880.6898	1380.8652	65535	64634.05
880.8337	1382.7201	65535	64633.1
880.9776	1384.5742	65535	64635.15
881.1215	1386.4275	65535	64635.1
881.2653	1388.2802	65535	64634.75
881.4092	1390.132	65535	64634.4
881.553	1391.9832	65535	64633.05
881.6968	1393.8336	65535	64634.15
881.8406	1395.6832	65535	64634.2
881.9844	1397.5322	65535	64632.4
882.1282	1399.3803	65535	64631
882.272	1401.2278	65535	64632.9
882.4158	1403.0745	65535	64633.2
882.5595	1404.9204	65535	64634.6
882.7033	1406.7656	65535	64635.15
882.847	1408.6101	65535	64635.55
882.9908	1410.4538	65535	64634.6
883.1345	1412.2968	65535	64634.55
883.2782	1414.139	65535	64633.05
883.4219	1415.9805	65535	64636.05
883.5656	1417.8213	65535	64627.95
883.7092	1419.6613	65535	64637.7
883.8529	1421.5006	65535	64634.6
883.9965	1423.3391	65535	64635.25
884.1402	1425.1769	65535	64634.7
884.2838	1427.0139	65535	64635.5
884.4274	1428.8502	65535	64634.9
884.571	1430.6858	65535	64634.15
884.7146	1432.5206	65535	64633.75
884.8582	1434.3547	65535	64631.7
885.0018	1436.188	65535	64632.45
885.1453	1438.0206	65535	64634.3
885.2889	1439.8524	65535	64633.65
885.4324	1441.6835	65535	64632.3
885.5759	1443.5139	65535	64631.7
885.7194	1445.3435	65535	64633.4
885.8629	1447.1724	65535	64635.55
886.0064	1449.0005	65535	64635
886.1499	1450.8279	65535	64632.5
886.2933	1452.6545	65535	64633.4
886.4368	1454.4804	65535	64635.9
886.5802	1456.3056	65535	64626.05
886.7237	1458.13	65535	64634.25
886.8671	1459.9536	65535	64634.45
887.0105	1461.7766	65535	64634.05
887.1539	1463.5987	65535	64634.15
887.2972	1465.4202	65535	64636.25
887.4406	1467.2409	65535	64634.65
887.584	1469.0608	65535	64635.2
887.7273	1470.88	65535	64633.15
887.8706	1472.6984	65535	64634
888.0139	1474.5161	65535	64632.3
888.1572	1476.3331	65535	64633.25
888.3005	1478.1493	65535	64635
888.4438	1479.9648	65535	64634.4
888.5871	1481.7795	65535	64632.2
888.7303	1483.5935	65535	64634.9
888.8736	1485.4067	65535	64633.3
889.0168	1487.2192	65535	64632.95
889.16	1489.031	65535	64632.9
889.3032	1490.842	65535	64636.25
889.4464	1492.6522	65535	64636.4
889.5896	1494.4618	65535	64633.7
889.7327	1496.2705	65535	64635.6
889.8759	1498.0785	65535	64634.5
890.019	1499.8858	65535	64633.2
890.1622	1501.6924	65535	64635.1
890.3053	1503.4981	65535	64635.2
890.4484	1505.3032	65535	64633.6
890.5914	1507.1075	65535	64636.55
890.7345	1508.911	65535	64634.95
890.8776	1510.7138	65535	64634.3
891.0206	1512.5159	65535	64635.95
891.1637	1514.3172	65535	64635.7
891.3067	1516.1178	65535	64637.15
891.4497	1517.9176	65535	64633.75
891.5927	1519.7166	65535	64637.4
891.7357	1521.515	65535	64627.75
891.8786	1523.3126	65535	64636.45
892.0216	1525.1094	65535	64633.4
892.1645	1526.9055	65535	64637.5
892.3074	1528.7008	65535	64635.55
892.4503	1530.4954	65535	64630.1
892.5932	1532.2893	65535	64637.35
892.7361	1534.0824	65535	64630
892.879	1535.8747	65535	64633.4
893.0218	1537.6663	65535	64638.3
893.1647	1539.4572	65535	64635.75
893.3075	1541.2473	65535	64634.85
893.4503	1543.0367	65535	64638
893.5931	1544.8253	65535	64632.2
893.7359	1546.6132	65535	64632.45
893.8787	1548.4003	65535	64623.7
894.0214	1550.1867	65535	64627.1
894.1642	1551.9723	65535	64630.05
894.3069	1553.7572	65535	64634.8
894.4496	1555.5414	65535	64636.1
894.5923	1557.3247	65535	64637.8
894.735	1559.1074	65535	64638.75
894.8777	1560.8893	65535	64639.55
895.0204	1562.6705	65535	64634.65
895.163	1564.4509	65535	64636.1
895.3056	1566.2305	65535	64638.2
895.4482	1568.0094	65535	64640.3
895.5908	1569.7876	65535	64637.7
895.7334	1571.565	65535	64639.15
895.876	1573.3417	65535	64637.95
896.0186	1575.1176	65535	64639.55
896.1611	1576.8928	65535	64637.45
896.3036	1578.6672	65524.7	64627.3
896.4461	1580.4409	65535	64639.85
896.5886	1582.2138	65502.55	64603.65
896.7311	1583.986	65513.95	64617.25
896.8736	1585.7575	65482.15	64586.65
897.0161	1587.5282	65495.9	64599.65
897.1585	1589.2981	65491.6	64595
897.3009	1591.0673	65405.5	64508.95
897.4433	1592.8358	65294.6	64401.45
897.5857	1594.6035	65421.95	64521.35
897.7281	1596.3704	65425.5	64528.65
897.8705	1598.1366	65198.3	64301.3
898.0128	1599.9021	65046.4	64148.7
898.1551	1601.6668	65275.65	64377.35
898.2975	1603.4308	65167.05	64266.85
898.4398	1605.194	65135.05	64233.45
898.5821	1606.9564	64694.4	63798.5
898.7243	1608.7182	64967.15	64068.65
898.8666	1610.4791	64703.7	63808.95
899.0088	1612.2394	65007.8	64113.25
899.1511	1613.9988	64598.55	63704.75
899.2933	1615.7576	65016.65	64120.65
899.4355	1617.5156	65026.95	64125.45
899.5776	1619.2728	65267.2	64368.9
899.7198	1621.0293	64743.4	63848.35
899.862	1622.785	64778.6	63879.9
900.0041	1624.54	65010.1	64110.9
900.1462	1626.2942	64621.5	63725.9
900.2883	1628.0477	63976.55	63078.35
900.4304	1629.8005	63223.3	62324.9
900.5725	1631.5525	63975.6	63079.45
900.7145	1633.3037	62814.7	61919.55
900.8566	1635.0542	62656.5	61761.75
900.9986	1636.804	63190.75	62294.8
901.1406	1638.553	61985.35	61008.45
901.2826	1640.3013	62370.15	61474.85
901.4245	1642.0488	61632.2	60735.1
901.5665	1643.7955	62145	61249.7
901.7085	1645.5416	61533.55	60637.95
901.8504	1647.2868	61024.05	60129.5
901.9923	1649.0313	61934.35	61039.35
902.1342	1650.7751	61424.35	60526
902.2761	1652.5181	60991.3	60095.4
902.4179	1654.2604	61082.5	60186.75
902.5598	1656.0019	61482.4	60590.2
902.7016	1657.7427	61274.85	60379.25
902.8434	1659.4828	61993.45	61099
902.9852	1661.222	61418.65	60522.1
903.127	1662.9606	62096.3	61202.1
903.2687	1664.6984	61098.7	60202.4
903.4105	1666.4354	61337.8	60442.4
903.5522	1668.1717	60110.95	59216.35
903.6939	1669.9072	59230.1	58334.9
903.8356	1671.642	58960.7	58063.3
903.9773	1673.3761	58688.5	57794.65
904.119	1675.1094	58417.95	57522.65
904.2606	1676.8419	57730.15	56837.3
904.4022	1678.5737	57656.95	56761.5
904.5439	1680.3048	57319.95	56423.85
904.6855	1682.0351	57044	56149.1
904.827	1683.7646	56666.55	55767.8
904.9686	1685.4934	56778.1	55882.6
905.1101	1687.2215	55686.5	54790.35
905.2517	1688.9488	56396.55	55501.8
905.3932	1690.6754	54913.65	54019.15
905.5347	1692.4012	55408.8	54513
905.6761	1694.1263	55285.65	54391.8
905.8176	1695.8506	54954.9	54059
905.9591	1697.5742	54775.9	53881.5
906.1005	1699.297	54561	53663.9
906.2419	1701.0191	54411.1	53517.6
906.3833	1702.7404	53876.7	52984.15
906.5246	1704.461	53625	52727.3
906.666	1706.1808	53591.15	52692.75
906.8073	1707.8999	53422.25	52527.5
906.9487	1709.6182	53155.05	52260.2
907.09	1711.3358	53055.15	52161.75
907.2313	1713.0527	52828.75	51935.7
907.3725	1714.7688	52742.05	51842.3
907.5138	1716.4841	52192.45	51297.7
907.655	1718.1987	52264	51363.85
907.7962	1719.9126	52023.85	51132.4
907.9374	1721.6257	51909.95	51013.7
908.0786	1723.338	51946.1	51051.3
908.2198	1725.0496	51260.85	50367.7
908.3609	1726.7605	51199.35	50305.55
908.502	1728.4706	51000.85	50106.45
908.6431	1730.18	50838.5	49940.15
908.7842	1731.8886	50687.45	49794.2
908.9253	1733.5964	50496.45	49582.15
909.0664	1735.3036	50504.5	49607.95
909.2074	1737.0099	50351.45	49457.5
909.3484	1738.7156	50023.3	49130.4
909.4894	1740.4204	49801.45	48906.7
909.6304	1742.1246	49752.85	48858.95
909.7714	1743.8279	49611.15	48715.8
909.9123	1745.5306	49597.3	48701.3
910.0532	1747.2325	49230.7	48336.55
910.1941	1748.9336	49096.45	48201.65
910.335	1750.634	48886.65	47990.15
910.4759	1752.3336	48802.4	47910.5
910.6168	1754.0325	48655	47764.45
910.7576	1755.7307	48563.05	47670.15
910.8984	1757.4281	48445.3	47551.1
911.0392	1759.1247	48345.25	47443.05
911.18	1760.8206	48164.6	47263.95
911.3208	1762.5158	48080.3	47184.4
911.4615	1764.2102	47911.2	47020
911.6022	1765.9039	47729.85	46836.65
911.7429	1767.5968	47603.65	46708.9
911.8836	1769.289	47390.65	46496.8
912.0243	1770.9804	47296.05	46400.7
912.1649	1772.6711	47212.8	46319.5
912.3056	1774.361	47091.95	46198.75
912.4462	1776.0502	46947.85	46055.1
912.5868	1777.7386	46851.05	45956.5
912.7274	1779.4263	46639.95	45745.8
912.8679	1781.1132	46536.25	45643.95
913.0084	1782.7994	46359.65	45465.75
913.149	1784.4849	46262.1	45369.15
913.2895	1786.1696	45999.55	45099.95
913.4299	1787.8535	45990.15	45098.55
913.5704	1789.5367	45818.35	44923.7
913.7108	1791.2192	45758.5	44864.25
913.8513	1792.9009	45554.7	44630.15
913.9917	1794.5818	45415.5	44519.8
914.132	1796.2621	45309.15	44417.45
914.2724	1797.9415	45207.75	44315.25
914.4128	1799.6202	45037.25	44143.45
914.5531	1801.2982	44967.3	44073.2
914.6934	1802.9755	44804.4	43908.9
914.8337	1804.6519	44739.7	43845.7
914.9739	1806.3277	44466.55	43574.8
915.1142	1808.0027	44217.95	43324.75
915.2544	1809.6769	44217.95	43323.6
915.3946	1811.3504	44100.05	43205.2
915.5348	1813.0231	43982.65	43088.05
915.675	1814.6951	43886.95	42995.5
915.8151	1816.3664	43823.2	42926.8
915.9553	1818.0369	43670.25	42776.9
916.0954	1819.7067	43563.1	42670.05
916.2355	1821.3757	43438.4	42544.1
916.3755	1823.044	43380.8	42488.9
916.5156	1824.7115	43160.4	42265.45
916.6556	1826.3783	42970.55	42077.25
916.7956	1828.0443	42830.55	41939
916.9356	1829.7096	42726.8	41832.6
917.0756	1831.3741	42668.7	41771.1
917.2155	1833.0379	42499.5	41606.75
917.3555	1834.701	42376.75	41481.5
917.4954	1836.3633	42250.65	41357.95
917.6353	1838.0248	42169.55	41274.8
917.7751	1839.6856	42096.8	41204.45
917.915	1841.3457	42006.1	41114.65
918.0548	1843.005	41887.65	40993.5
918.1946	1844.6636	41731.85	40840.95
918.3344	1846.3214	41633.75	40742.1
918.4742	1847.9785	41595.25	40702
918.6139	1849.6349	41408.8	40514.7
918.7537	1851.2904	41347.1	40445.2
918.8934	1852.9453	41217.9	40323.3
919.0331	1854.5994	41048.1	40152.35
919.1727	1856.2528	41061.15	40164.45
919.3124	1857.9054	40897.2	40001.5
919.452	1859.5572	40865.05	39973.7
919.5916	1861.2083	40713.9	39821.2
919.7312	1862.8587	40732.6	39839.25
919.8708	1864.5084	40543.25	39650.35
920.0103	1866.1572	40411.35	39518.25
920.1498	1867.8054	40238.5	39347.6
920.2893	1869.4528	40168.1	39275.85
920.4288	1871.0994	40045.1	39150.7
920.5683	1872.7453	39905.85	39010.65
920.7077	1874.3905	39787.1	38886.8
920.8471	1876.0349	39649.7	38756.05
920.9865	1877.6786	39626.65	38734.05
921.1259	1879.3215	39642.15	38748.3
921.2653	1880.9637	39417	38522.25
921.4046	1882.6051	39342.9	38450.9
921.5439	1884.2458	39274.15	38379.2
921.6832	1885.8858	39079.6	38187.4
921.8225	1887.525	38977.9	38084.4
921.9617	1889.1634	38796.5	37903.3
922.101	1890.8011	38638.5	37743.8
922.2402	1892.4381	38575.45	37682.4
922.3794	1894.0743	38528.45	37636.7
922.5185	1895.7098	38383.4	37492.4
922.6577	1897.3446	38255.15	37363.05
922.7968	1898.9786	38155.35	37260.4
922.9359	1900.6118	38087.55	37193.85
923.075	1902.2443	37815.9	36918.95
923.214	1903.8761	37770.3	36876.35
923.3531	1905.5071	37491.2	36598.35
923.4921	1907.1374	37383.85	36491.85
923.6311	1908.7669	37347.7	36452.5
923.77	1910.3957	37215.9	36322.45
923.909	1912.0237	37033.2	36139.85
924.0479	1913.651	36954.7	36062.45
924.1868	1915.2776	36834.6	35944.65
924.3257	1916.9034	36667.95	35776.65
924.4646	1918.5285	36492	35601.35
924.6034	1920.1528	36278.6	35386.75
924.7422	1921.7764	36288.75	35396.05
924.881	1923.3992	36105.5	35212.35
925.0198	1925.0213	35853.9	34962.6
925.1586	1926.6427	35682.9	34790.95
925.2973	1928.2633	35702.85	34694.6
925.436	1929.8832	35513.05	34615.6
925.5747	1931.5023	35328.65	34437.4
925.7134	1933.1207	35268.65	34374.65
925.852	1934.7383	35178.45	34287.6
925.9906	1936.3552	35039.8	34147.95
926.1292	1937.9714	34945.7	34052.2
926.2678	1939.5868	34754.9	33860.25
926.4064	1941.2015	34586.75	33692.3
926.5449	1942.8154	34433.35	33538.85
926.6834	1944.4286	34262.1	33369.9
926.8219	1946.041	34163.4	33251.8
926.9604	1947.6528	33966.5	33069
927.0988	1949.2637	33944.15	33050.5
927.2372	1950.8739	33756.45	32864.5
927.3756	1952.4834	33669.75	32775.3
927.514	1954.0921	33635.7	32743
927.6523	1955.7001	33472.75	32578.2
927.7907	1957.3074	33334.2	32441.75
927.929	1958.9139	33179.35	32289.3
928.0673	1960.5197	33057.9	32163.85
928.2055	1962.1247	32915.05	32021.65
928.3438	1963.729	32732.05	31840.65
928.482	1965.3325	32641.4	31725.3
928.6202	1966.9353	32498.35	31605.8
928.7584	1968.5374	32411.15	31517.4
928.8965	1970.1387	32283.2	31389.9
929.0346	1971.7393	32166.9	31273.9
929.1727	1973.3392	32090.55	31196.55
929.3108	1974.9383	31920.3	31027.7
929.4489	1976.5366	31779.6	30889.35
929.5869	1978.1342	31744.7	30851.45
929.7249	1979.7311	31682.6	30789.35
929.8629	1981.3273	31539.55	30646.85
930.0009	1982.9227	31418.05	30523.45
930.1388	1984.5173	31295.95	30403.95
930.2767	1986.1112	31132	30239.35
930.4146	1987.7044	31077.25	30186.5
930.5525	1989.2968	30968.55	30076.1
930.6904	1990.8885	30871.3	29976.35
930.8282	1992.4795	30758.45	29866.05
930.966	1994.0697	30638.6	29745.45
931.1038	1995.6592	30558.15	29667.5
931.2415	1997.2479	30419.65	29527.65
931.3793	1998.8359	30369.05	29476.1
931.517	2000.4232	30202.25	29310.05
931.6547	2002.0097	30070	29177.85
931.7923	2003.5955	29904.9	29012.2
931.93	2005.1805	29884.75	28991.1
932.0676	2006.7648	29756.55	28865.8
932.2052	2008.3484	29693.3	28800.8
932.3427	2009.9312	29693.5	28799.35
932.4803	2011.5133	29507.35	28616.35
932.6178	2013.0946	29413.6	28522.2
932.7553	2014.6752	29389.3	28497.25
932.8928	2016.2551	29270.75	28380.3
933.0302	2017.8342	29132	28238.7
933.1676	2019.4126	29029.6	28137.3
933.305	2020.9902	28863.4	27971.85
933.4424	2022.5672	28825.5	27933.25
933.5798	2024.1433	28730.35	27835.35
933.7171	2025.7188	28636.55	27746.45
933.8544	2027.2935	28550.05	27657.55
933.9917	2028.8674	28431.2	27540.1
934.129	2030.4406	28335.25	27444.7
934.2662	2032.0131	28186.6	27298.3
934.4034	2033.5849	28128.15	27231.55
934.5406	2035.1559	28045.4	27153.1
934.6778	2036.7261	27990.95	27099.8
934.8149	2038.2957	27903.5	27011.65
934.952	2039.8645	27815.05	26925.1
935.0891	2041.4325	27786.65	26893.05
935.2262	2042.9998	27640.45	26749.7
935.3632	2044.5664	27579.25	26685.85
935.5002	2046.1323	27485.55	26594
935.6372	2047.6974	27379.6	26491.65
935.7742	2049.2617	27327.4	26436.9
935.9111	2050.8254	27293.8	26381.25
936.048	2052.3883	27201.4	26309.55
936.1849	2053.9504	27082.95	26190.7
936.3218	2055.5118	26991.65	26098.15
936.4586	2057.0725	26849.25	25954.35
936.5955	2058.6325	26783.1	25891.95
936.7323	2060.1917	26701.7	25811.5
936.869	2061.7502	26659.9	25764.7
937.0058	2063.3079	26531.25	25638.75
937.1425	2064.8649	26406.15	25512.2
937.2792	2066.4212	26391.8	25496.85
937.4159	2067.9767	26295.75	25404.35
937.5525	2069.5315	26175.45	25281.95
937.6891	2071.0856	25995.1	25102.25
937.8257	2072.6389	25929.55	25036.1
937.9623	2074.1915	25771.2	24880.4
938.0989	2075.7433	25630	24736.6
938.2354	2077.2945	25611.2	24721.05
938.3719	2078.8448	25490.5	24598.55
938.5084	2080.3945	25422.85	24530.5
938.6448	2081.9434	25427.45	24535.6
938.7812	2083.4916	25297.75	24407.1
938.9176	2085.039	25184.55	24290.45
939.054	2086.5857	25140.3	24245.55
939.1903	2088.1317	25106.25	24214.95
939.3267	2089.677	25014.1	24121.4
939.463	2091.2215	24894.25	24003.05
939.5992	2092.7652	24806.8	23913.4
939.7355	2094.3083	24742.3	23847.45
939.8717	2095.8506	24729.1	23837.7
940.0079	2097.3921	24654.7	23763.5
940.1441	2098.933	24549.5	23658.45
940.2802	2100.4731	24493.7	23601.95
940.4163	2102.0124	24475.45	23576.9
940.5524	2103.5511	24383.25	23490.75
940.6885	2105.089	24289.6	23396.6
940.8245	2106.6261	24265.8	23375.3
940.9606	2108.1626	24189.8	23297.15
941.0965	2109.6983	24154.9	23234.4
941.2325	2111.2332	24038.95	23145.65
941.3684	2112.7675	23961.3	23067.6
941.5044	2114.301	23883.25	22990.25
941.6403	2115.8337	23794.25	22899.8
941.7761	2117.3657	23746.2	22854.45
941.912	2118.897	23696.1	22802.7
942.0478	2120.4276	23587.2	22690.55
942.1835	2121.9575	23437	22545.65
942.3193	2123.4866	23494	22587.9
942.455	2125.0149	23369.45	22473.9
942.5907	2126.5426	23238.8	22346.9
942.7264	2128.0695	23166.35	22270.9
942.8621	2129.5956	23127.9	22236.5
942.9977	2131.1211	23071.85	22175.6
943.1333	2132.6458	23032	22140.35
943.2689	2134.1698	22968.85	22077
943.4044	2135.693	22876	21982.4
943.54	2137.2155	22846.05	21953.05
943.6755	2138.7373	22762.9	21870.3
943.8109	2140.2584	22648	21754.35
943.9464	2141.7787	22591.1	21693.25
944.0818	2143.2983	22479.05	21587.6
944.2172	2144.8171	22302.75	21412.1
944.3526	2146.3353	22305.6	21411.9
944.4879	2147.8527	22178.7	21287.4
944.6232	2149.3693	22196.45	21304.05
944.7585	2150.8853	22121.9	21229.9
944.8938	2152.4005	21954.75	21063.35
945.029	2153.9149	21936.2	21043.55
945.1642	2155.4287	21804.2	20911.3
945.2994	2156.9417	21819.95	20925.85
945.4346	2158.454	21751.35	20853.8
945.5697	2159.9655	21678.35	20786.3
945.7048	2161.4764	21627.15	20735.5
945.8399	2162.9865	21526.3	20633.4
945.9749	2164.4958	21510.15	20618.75
946.1099	2166.0045	21452.65	20557.65
946.2449	2167.5124	21397.45	20506.65
946.3799	2169.0195	21318.45	20428
946.5148	2170.526	21234.2	20339.4
946.6498	2172.0317	21184.65	20292.1
946.7846	2173.5367	21105.55	20213.85
946.9195	2175.0409	21077.95	20188.75
947.0543	2176.5445	21064	20173.2
947.1891	2178.0473	20939.85	20047.95
947.3239	2179.5494	20834.7	19938.6
947.4587	2181.0507	20776.15	19883.45
947.5934	2182.5513	20718.55	19825.9
947.7281	2184.0512	20669	19778.2
947.8628	2185.5504	20569.95	19680.5
947.9974	2187.0488	20427.05	19535.6
948.132	2188.5465	20367.3	19476.05
948.2666	2190.0435	20324.2	19432.2
948.4012	2191.5397	20236.9	19344.8
948.5357	2193.0353	20178.65	19285.1
948.6702	2194.5301	20048.6	19157.8
948.8047	2196.0241	19991.25	19098.5
948.9392	2197.5175	19931.3	19037.8
949.0736	2199.0101	19870.15	18974.5
949.208	2200.502	19743.6	18850.4
949.3424	2201.9931	19689.3	18796.55
949.4767	2203.4835	19594.4	18702.55
949.611	2204.9733	19563.45	18665.65
949.7453	2206.4622	19518.7	18627.4
949.8796	2207.9505	19433.4	18539.25
950.0138	2209.438	19326.15	18436.25
950.148	2210.9248	19274.2	18381.3
950.2822	2212.4109	19188.3	18296.7
950.4164	2213.8962	19083.65	18189.75
950.5505	2215.3809	19064.8	18171.35
950.6846	2216.8648	19008.4	18115
950.8186	2218.3479	18991.2	18095.7
950.9527	2219.8304	18899.55	18004.05
951.0867	2221.3121	18819.25	17926.3
951.2207	2222.7931	18763.85	17873
951.3546	2224.2733	18640.2	17746.85
951.4886	2225.7529	18593.5	17700.65
951.6225	2227.2317	18501.45	17605.9
951.7563	2228.7098	18480.25	17588.55
951.8902	2230.1872	18360.05	17469.2
952.024	2231.6638	18342.65	17451.3
952.1578	2233.1397	18293.55	17396.3
952.2916	2234.6149	18246.15	17354.05
952.4253	2236.0894	18144.3	17252.65
952.559	2237.5632	18110.75	17207.55
952.6927	2239.0362	18002.1	17108.2
952.8263	2240.5085	17946.55	17054.4
952.9599	2241.9801	17884.55	16994.35
953.0935	2243.4509	17855.9	16965.95
953.2271	2244.921	17776.95	16883.5
953.3606	2246.3904	17699.45	16804.45
953.4941	2247.8591	17627.2	16733.2
953.6276	2249.3271	17593.65	16699.6
953.7611	2250.7943	17518.95	16626.35
953.8945	2252.2608	17440.25	16549.8
954.0279	2253.7266	17383.8	16492.4
954.1612	2255.1917	17311.25	16418.9
954.2946	2256.656	17255.05	16362.2
954.4279	2258.1197	17203.15	16312.5
954.5612	2259.5826	17176.95	16283.6
954.6944	2261.0447	17134	16239.95
954.8276	2262.5062	17045.8	16152.5
954.9608	2263.9669	17030.4	16135.4
955.094	2265.4269	16998.1	16106.7
955.2271	2266.8862	16915.95	16023.85
955.3602	2268.3448	16877.25	15982.7
955.4933	2269.8026	16861.35	15969.7
955.6264	2271.2598	16760.6	15869.75
955.7594	2272.7162	16716.1	15824.6
955.8924	2274.1719	16655.45	15762.35
956.0253	2275.6268	16609.35	15716.25
956.1583	2277.0811	16530.65	15637.95
956.2912	2278.5346	16506.5	15614.75
956.4241	2279.9874	16476.15	15583.05
956.5569	2281.4395	16413.85	15522.8
956.6897	2282.8908	16345.4	15449.35
956.8225	2284.3414	16311.25	15416.55
956.9553	2285.7914	16229.65	15337.95
957.088	2287.2406	16186.1	15290.25
957.2207	2288.689	16131	15238.9
957.3534	2290.1368	16103.5	15210.05
957.486	2291.5838	16020.55	15127.75
957.6186	2293.0302	15978.3	15084.5
957.7512	2294.4758	15866.4	14974.6
957.8838	2295.9206	15834.4	14939.8
958.0163	2297.3648	15807.5	14913.85
958.1488	2298.8082	15773.9	14880.6
958.2813	2300.251	15705.05	14812.75
958.4137	2301.693	15647.6	14753.1
958.5461	2303.1343	15650.9	14758.1
958.6785	2304.5748	15605.75	14713.75
958.8108	2306.0147	15541.65	14649.05
958.9432	2307.4538	15460.35	14566.25
959.0754	2308.8922	15402.1	14510.3
959.2077	2310.3299	15375.3	14482.4
959.3399	2311.7669	15300.25	14409.1
959.4721	2313.2031	15260	14368.7
959.6043	2314.6387	15203.5	14308.75
959.7365	2316.0735	15118.25	14224.65
959.8686	2317.5076	15107.55	14215.6
960.0006	2318.941	15052.2	14160.45
960.1327	2320.3737	14985.45	14092.4
960.2647	2321.8056	14980	14084.6
960.3967	2323.2369	14911.6	14017.35
960.5287	2324.6674	14885.8	13990.8
960.6606	2326.0972	14825.75	13933.2
960.7925	2327.5263	14735.25	13842.45
960.9244	2328.9547	14704.2	13808.3
961.0562	2330.3823	14647.9	13754.45
961.1881	2331.8092	14624.3	13730.15
961.3198	2333.2355	14550.55	13659.75
961.4516	2334.661	14545.05	13651.65
961.5833	2336.0858	14487.05	13594.75
961.715	2337.5098	14430.55	13535.3
961.8467	2338.9332	14395.6	13502.65
961.9783	2340.3558	14332.55	13436.5
962.1099	2341.7778	14318.5	13425
962.2415	2343.199	14242.75	13348.65
962.373	2344.6195	14221.45	13328.65
962.5045	2346.0393	14147.7	13255.55
962.636	2347.4583	14134.5	13242.5
962.7675	2348.8767	14080.7	13188.85
962.8989	2350.2943	14042.7	13151.05
963.0303	2351.7113	14006.15	13110.2
963.1617	2353.1275	13942.35	13048.7
963.293	2354.543	13913.1	13013.75
963.4243	2355.9578	13843.55	12951.3
963.5556	2357.3718	13771.15	12878.6
963.6868	2358.7852	13705.5	12810.6
963.818	2360.1978	13643.5	12751.35
963.9492	2361.6098	13612.55	12719.8
964.0803	2363.021	13581.5	12688.2
964.2114	2364.4315	13549.4	12659.4
964.3425	2365.8413	13480.55	12588.35
964.4736	2367.2504	13425.75	12535.4
964.6046	2368.6587	13378.55	12484.95
964.7356	2370.0664	13308.05	12415.15
964.8666	2371.4733	13273.05	12380.2
964.9975	2372.8795	13233.05	12343.3
965.1284	2374.285	13155.2	12263.65
965.2593	2375.6899	13118.2	12227.45
965.3901	2377.0939	13030.5	12138.45
965.5209	2378.4973	12973.9	12083.1
965.6517	2379.9	12930.4	12038.25
965.7825	2381.3019	12866.7	11978.05
965.9132	2382.7032	12826.85	11935
966.0439	2384.1037	12823.7	11934.55
966.1745	2385.5035	12761.75	11871.1
966.3051	2386.9027	12724.35	11832.5
966.4357	2388.3011	12657.05	11762.45
966.5663	2389.6987	12652.2	11761.4
966.6968	2391.0957	12603	11711.75
966.8273	2392.492	12523.85	11633.65
966.9578	2393.8876	12486.05	11594.5
967.0882	2395.2824	12407	11515.05
967.2186	2396.6765	12342.55	11453.1
967.349	2398.07	12272.15	11380.9
967.4793	2399.4627	12291.3	11399.45
967.6097	2400.8547	12239.65	11346.1
967.7399	2402.246	12166.55	11268.6
967.8702	2403.6366	12109	11217.85
968.0004	2405.0265	12054.15	11162.25
968.1306	2406.4156	12022.65	11125.55
968.2607	2407.8041	11993.55	11099.65
968.3909	2409.1918	11927.4	11033.4
968.521	2410.5789	11861.5	10970.2
968.651	2411.9652	11826.1	10932
968.781	2413.3508	11791.75	10901.1
968.911	2414.7358	11720.7	10829.45
969.041	2416.12	11691.65	10804.3
969.1709	2417.5035	11661.2	10770.8
969.3008	2418.8863	11594.15	10701.6
969.4307	2420.2684	11583.1	10691.15
969.5606	2421.6497	11511.5	10619
969.6904	2423.0304	11477.95	10586.8
969.8201	2424.4104	11460.9	10570.55
969.9499	2425.7896	11414.35	10520.35
970.0796	2427.1682	11369.5	10478.5
970.2093	2428.546	11323.55	10430.2
970.3389	2429.9232	11276.5	10382.85
970.4685	2431.2996	11250.2	10359.55
970.5981	2432.6753	11247.55	10356.35
970.7277	2434.0503	11210.05	10316.4
970.8572	2435.4246	11161.7	10267.95
970.9867	2436.7982	11105.95	10212.7
971.1161	2438.1711	11068.65	10177.05
971.2456	2439.5433	11034.25	10141.35
971.375	2440.9148	10985.7	10092.8
971.5043	2442.2856	10931.6	10040.2
971.6336	2443.6557	10890.15	9996.1
971.7629	2445.025	10866.65	9978.2
971.8922	2446.3937	10823.45	9932
972.0214	2447.7617	10777.8	9885
972.1506	2449.1289	10762.4	9871.05
972.2798	2450.4955	10730.75	9835.55
972.4089	2451.8613	10718.85	9829.05
972.538	2453.2265	10684.7	9792.65
972.6671	2454.5909	10653.4	9760.05
972.7961	2455.9546	10615.95	9725
972.9251	2457.3177	10570.5	9679.3
973.0541	2458.68	10544.7	9651.65
973.1831	2460.0416	10531.75	9638.3
973.312	2461.4025	10525.55	9632.85
973.4408	2462.7627	10467.1	9564.05
973.5697	2464.1222	10419.05	9528.4
973.6985	2465.4811	10397.05	9505.35
973.8273	2466.8392	10366.3	9475.85
973.956	2468.1966	10334.25	9440.35
974.0847	2469.5533	10314.7	9419.25
974.2134	2470.9093	10295.3	9400.85
974.3421	2472.2645	10229.15	9338.6
974.4707	2473.6191	10202	9311.6
974.5993	2474.973	10157.3	9264.95
974.7278	2476.3262	10134.7	9241.25
974.8563	2477.6787	10073.35	9180
974.9848	2479.0305	10037.75	9145.6
975.1132	2480.3816	10007.6	9114.9
975.2417	2481.7319	9960.35	9066.95
975.37	2483.0816	9932.6	9040.55
975.4984	2484.4306	9885.05	8993.95
975.6267	2485.7789	9845.65	8953.7
975.755	2487.1264	9782	8888.6
975.8833	2488.4733	9758.15	8866.85
976.0115	2489.8195	9736.85	8827.5
976.1397	2491.165	9716.2	8817.5
976.2678	2492.5097	9669.5	8775.25
976.3959	2493.8538	9612.25	8720.2
976.524	2495.1972	9564.6	8672.6
976.6521	2496.5398	9517.1	8624.9
976.7801	2497.8818	9507.4	8610.65
976.9081	2499.2231	9483.85	8591.9
977.036	2500.5637	9436.15	8544.2
977.164	2501.9035	9428.5	8536.2
977.2918	2503.2427	9395.1	8499.3
977.4197	2504.5812	9337.65	8444.4
977.5475	2505.919	9331.8	8438.4
977.6753	2507.256	9292.5	8401.25
977.8031	2508.5924	9256.6	8366.4
977.9308	2509.9281	9220.7	8322.5
978.0585	2511.2631	9179	8286.7
978.1861	2512.5974	9181.75	8289.75
978.3137	2513.9309	9154.3	8263.2
978.4413	2515.2638	9128.7	8205.95
978.5689	2516.596	9080.95	8190
978.6964	2517.9275	9021.25	8129.95
978.8239	2519.2583	8989.6	8096.4
978.9513	2520.5884	8954.4	8062.45
979.0788	2521.9178	8952.5	8060.7
979.2062	2523.2465	8912.95	8022.1
979.3335	2524.5745	8864.4	7973.8
979.4608	2525.9018	8821.65	7929.75
979.5881	2527.2284	8818.35	7926.95
979.7154	2528.5543	8803.35	7911.55
979.8426	2529.8796	8749.1	7857.9
979.9698	2531.2041	8742.9	7849.3
980.0969	2532.5279	8723.35	7831.9
980.224	2533.851	8680.55	7788.2
980.3511	2535.1735	8648.45	7755.75
980.4781	2536.4952	8634.9	7743.3
980.6052	2537.8163	8630.3	7739.3
980.7321	2539.1366	8573.1	7680.9
980.8591	2540.4562	8561.5	7669.85
980.986	2541.7752	8540.8	7649.75
981.1129	2543.0935	8552.1	7659.6
981.2397	2544.411	8522.95	7629.6
981.3665	2545.7279	8487.35	7594.25
981.4933	2547.0441	8456	7563.6
981.62	2548.3596	8443.75	7548.95
981.7467	2549.6744	8420.35	7530.35
981.8734	2550.9885	8413.45	7518.95
982.0001	2552.3019	8355.65	7462.25
982.1267	2553.6146	8358.25	7463.95
982.2532	2554.9266	8311.75	7420.8
982.3798	2556.2379	8290.15	7396.05
982.5063	2557.5485	8286.05	7394.55
982.6327	2558.8585	8251.35	7353.15
982.7592	2560.1677	8245.4	7349.6
982.8856	2561.4762	8225.45	7333.9
983.0119	2562.7841	8207.1	7313.1
983.1383	2564.0913	8174.05	7283.05
983.2646	2565.3977	8159	7268.35
983.3908	2566.7035	8139.2	7247.45
983.517	2568.0086	8126.9	7232.5
983.6432	2569.313	8096.5	7201
983.7694	2570.6167	8081.2	7184.65
983.8955	2571.9197	8052.95	7161.85
984.0216	2573.222	8041.9	7147.5
984.1476	2574.5236	8008.6	7114.85
984.2737	2575.8246	7995.65	7100.3
984.3996	2577.1248	7974.5	7080.85
984.5256	2578.4244	7956.7	7067.1
984.6515	2579.7232	7957.3	7064.55
984.7774	2581.0214	7950.3	7035.4
984.9032	2582.3189	7915.3	7022.6
985.029	2583.6157	7886.1	6992.2
985.1548	2584.9118	7885.2	6992.75
985.2806	2586.2072	7837.65	6944.55
985.4063	2587.5019	7804.7	6912.25
985.5319	2588.7959	7798.35	6906.5
985.6576	2590.0893	7789.9	6896.2
985.7832	2591.3819	7779.8	6888
985.9087	2592.6739	7743.5	6852.25
986.0343	2593.9652	7714.1	6823.2
986.1597	2595.2557	7699.7	6806.55
986.2852	2596.5456	7660.8	6765.55
986.4106	2597.8348	7614.05	6722.5
986.536	2599.1234	7596.85	6704.15
986.6614	2600.4112	7577.8	6686.1
986.7867	2601.6983	7554.6	6656.4
986.912	2602.9848	7528.75	6636.45
987.0372	2604.2705	7502.6	6600.35
987.1624	2605.5556	7481.7	6591.5
987.2876	2606.84	7453.1	6562.15
987.4128	2608.1237	7420.3	6526.2
987.5379	2609.4067	7404.65	6511.15
987.6629	2610.689	7380.35	6480.5
987.788	2611.9707	7351.4	6453.55
987.913	2613.2516	7322.25	6426.45
988.0379	2614.5319	7277.95	6385.9
988.1629	2615.8115	7253.75	6362.6
988.2878	2617.0903	7221.25	6328.45
988.4126	2618.3685	7205.3	6311.4
988.5375	2619.6461	7177.7	6284.7
988.6622	2620.9229	7154.9	6263.8
988.787	2622.199	7133.9	6242.65
988.9117	2623.4745	7110.7	6217.6
989.0364	2624.7493	7071.15	6179.7
989.161	2626.0234	7058.3	6166.85
989.2857	2627.2968	7047.1	6154.25
989.4102	2628.5695	7030.7	6136.1
989.5348	2629.8415	6982.7	6091.35
989.6593	2631.1128	6939.2	6046.95
989.7837	2632.3835	6923.95	6034.1
989.9082	2633.6535	6894.9	6005.95
990.0326	2634.9228	6881.9	5991.4
990.1569	2636.1914	6850.6	5958.5
990.2812	2637.4593	6840	5942.65
990.4055	2638.7265	6814.25	5920.5
990.5298	2639.9931	6782.2	5889.5
990.654	2641.259	6787.55	5895.2
990.7782	2642.5242	6750.95	5859.65
990.9023	2643.7887	6723.9	5833.5
991.0264	2645.0525	6717.6	5825.7
991.1505	2646.3156	6684.35	5793
991.2745	2647.5781	6658.45	5765.5
991.3985	2648.8398	6605.9	5714.5
991.5225	2650.1009	6614	5712.35
991.6464	2651.3613	6589.55	5698.65
991.7703	2652.6211	6581.95	5689.1
991.8942	2653.8801	6565.2	5673.55
992.018	2655.1385	6563.6	5669.1
992.1418	2656.3961	6520.35	5629.65
992.2655	2657.6531	6497.1	5607.45
992.3892	2658.9094	6485.4	5593.9
992.5129	2660.1651	6477.65	5585.95
992.6366	2661.42	6447.25	5555.1
992.7602	2662.6743	6448.05	5554.9
992.8837	2663.9279	6438.5	5547.5
993.0073	2665.1808	6408.45	5513.5
993.1307	2666.433	6385.9	5490.7
993.2542	2667.6846	6359.9	5468.75
993.3776	2668.9354	6376.25	5482.8
993.501	2670.1856	6321.3	5429.7
993.6244	2671.4351	6318.5	5428.1
993.7477	2672.6839	6313.05	5420.25
993.8709	2673.9321	6286.85	5395.65
993.9942	2675.1795	6262	5368.1
994.1174	2676.4263	6255.9	5363.65
994.2405	2677.6724	6227.9	5336.55
994.3637	2678.9179	6207.3	5315.4
994.4868	2680.1626	6186.2	5295.9
994.6098	2681.4067	6204.45	5312.85
994.7328	2682.6501	6174.05	5281.25
994.8558	2683.8928	6135.05	5243.35
994.9788	2685.1348	6127.45	5234.8
995.1017	2686.3761	6098.65	5205.55
995.2245	2687.6168	6079.45	5187.45
995.3474	2688.8568	6053.7	5161
995.4702	2690.0961	6022.1	5131.2
995.5929	2691.3348	6015.5	5122.75
995.7156	2692.5727	6003.85	5110.7
995.8383	2693.81	5965.3	5073.1
995.961	2695.0466	5950.3	5059.55
996.0836	2696.2826	5944.4	5050.65
996.2062	2697.5178	5933.8	5039.1
996.3287	2698.7524	5900.95	5009.35
996.4512	2699.9863	5906.1	5013.35
996.5737	2701.2195	5869.95	4978.5
996.6961	2702.452	5862.65	4968.6
996.8185	2703.6839	5839.2	4945.55
996.9408	2704.9151	5826.5	4935.05
997.0631	2706.1456	5807.55	4914.7
997.1854	2707.3755	5795.5	4901.15
997.3077	2708.6046	5779.95	4886.3
997.4299	2709.8331	5768.85	4875.4
997.552	2711.0609	5739.75	4847.1
997.6742	2712.2881	5744.85	4852.45
997.7963	2713.5145	5733.1	4838.25
997.9183	2714.7403	5718.6	4826.8
998.0403	2715.9654	5708.5	4814.95
998.1623	2717.1899	5724.35	4818.2
998.2842	2718.4136	5716.65	4825.05
998.4062	2719.6367	5683.1	4790.9
998.528	2720.8591	5670.25	4773.4
998.6498	2722.0809	5672.85	4781.8
998.7716	2723.3019	5657.6	4762.25
998.8934	2724.5223	5644.15	4750.95
999.0151	2725.7421	5651.35	4756.25
999.1368	2726.9611	5629.5	4735.85
999.2584	2728.1795	5605.65	4709.5
999.38	2729.3972	5567.95	4675.4
999.5016	2730.6142	5558.05	4658.25
999.6231	2731.8306	5510.55	4617
999.7446	2733.0462	5483.55	4590.35
999.8661	2734.2612	5454.8	4557.95
999.9875	2735.4756	5411.85	4517.75
1000.1089	2736.6892	5377.25	4484.3
1000.2302	2737.9022	5350.85	4459.55
1000.3515	2739.1145	5306.55	4415.25
1000.4728	2740.3262	5282.15	4381.55
1000.594	2741.5372	5261.45	4371.2
1000.7152	2742.7475	5230.45	4336.4
1000.8363	2743.9571	5222.6	4328
1000.9575	2745.1661	5176.15	4278.85
1001.0785	2746.3744	5164.8	4271.65
1001.1996	2747.582	5156.7	4264.2
1001.3206	2748.7889	5146.2	4252.5
1001.4415	2749.9952	5096.4	4202.5
1001.5625	2751.2008	5074.7	4182.25
1001.6833	2752.4057	5075.15	4180.7
1001.8042	2753.61	5038.4	4144.7
1001.925	2754.8136	5036.35	4142.4
1002.0458	2756.0165	5001.7	4109.85
1002.1665	2757.2188	4991	4101.7
1002.2872	2758.4204	4962.6	4070.1
1002.4078	2759.6213	4961.75	4068.55
1002.5285	2760.8215	4968.95	4073.25
1002.649	2762.0211	4928.3	4033.75
1002.7696	2763.22	4920.8	4023.4
1002.8901	2764.4182	4889.3	3996.3
1003.0106	2765.6158	4883.6	3991.4
1003.131	2766.8127	4867.25	3974.95
1003.2514	2768.009	4851.35	3960.2
1003.3717	2769.2045	4830.7	3937.8
1003.492	2770.3994	4815.4	3921.45
1003.6123	2771.5936	4809	3916.45
1003.7325	2772.7872	4778.6	3889.6
1003.8527	2773.9801	4755.75	3863.45
1003.9729	2775.1723	4757.6	3848.15
1004.093	2776.3639	4738.05	3846.25
1004.2131	2777.5548	4711.75	3818.55
1004.3331	2778.745	4705.1	3812.1
1004.4531	2779.9346	4701.25	3808.55
1004.5731	2781.1235	4689.6	3795.7
1004.693	2782.3117	4680.25	3790.5
1004.8129	2783.4992	4673.65	3780.5
1004.9328	2784.6861	4652.05	3760.15
1005.0526	2785.8723	4649	3753.3
1005.1723	2787.0579	4655.75	3762.25
1005.2921	2788.2428	4633.45	3741.55
1005.4118	2789.427	4617	3724.85
1005.5314	2790.6106	4618.05	3727.15
1005.651	2791.7935	4597	3706.9
1005.7706	2792.9757	4594.95	3702.45
1005.8902	2794.1573	4603.95	3709.8
1006.0097	2795.3382	4616.05	3723.6
1006.1291	2796.5184	4599.6	3709.9
1006.2485	2797.698	4604.1	3710.35
1006.3679	2798.8769	4606.7	3713.1
1006.4873	2800.0551	4606.35	3713.65
1006.6066	2801.2327	4609.8	3715.7
1006.7258	2802.4096	4604.75	3715.6
1006.8451	2803.5859	4608.2	3715.75
1006.9642	2804.7615	4621.45	3727.9
1007.0834	2805.9364	4640.95	3750.15
1007.2025	2807.1106	4640.35	3748.55
1007.3216	2808.2842	4669.2	3775.8
1007.4406	2809.4572	4701.15	3808.3
1007.5596	2810.6294	4705.7	3810.9
1007.6785	2811.801	4746.1	3856.5
1007.7975	2812.972	4801.5	3908.6
1007.9163	2814.1423	4798.55	3906.85
1008.0352	2815.3119	4856.55	3964.65
1008.154	2816.4808	4876.35	3986
1008.2727	2817.6491	4899.9	4007.4
1008.3914	2818.8167	4951.5	4060.25
1008.5101	2819.9837	4987.7	4090.65
1008.6288	2821.15	5023.25	4131.6
1008.7474	2822.3157	5046.05	4155.6
1008.8659	2823.4807	5080.9	4189.75
1008.9844	2824.645	5131.7	4238.55
1009.1029	2825.8086	5169.15	4277.3
1009.2214	2826.9716	5181.55	4290.6
1009.3398	2828.134	5219.75	4328.2
1009.4581	2829.2957	5245	4353.75
1009.5764	2830.4567	5262.1	4371.35
1009.6947	2831.617	5267.75	4375.05
1009.813	2832.7767	5261	4369.5
1009.9312	2833.9358	5272.3	4380.75
1010.0493	2835.0941	5254.65	4361.35
1010.1675	2836.2519	5235	4347.1
1010.2855	2837.4089	5208.25	4315.35
1010.4036	2838.5653	5216.15	4325.25
1010.5216	2839.7211	5204.6	4314.4
1010.6396	2840.8761	5195.45	4302.75
1010.7575	2842.0306	5206.1	4318.15
1010.8754	2843.1843	5240.3	4348.2
1010.9932	2844.3374	5270.9	4379.5
1011.111	2845.4899	5323.35	4430.4
1011.2288	2846.6417	5389.85	4499.5
1011.3465	2847.7928	5457.8	4568
1011.4642	2848.9433	5529.05	4639.3
1011.5818	2850.0931	5608.4	4716.9
1011.6995	2851.2422	5653.1	4759.1
1011.817	2852.3907	5743	4850.7
1011.9345	2853.5385	5774.15	4880.35
1012.052	2854.6857	5867.35	4950.65
1012.1695	2855.8323	5891.35	5001.4
1012.2869	2856.9781	5918.95	5028
1012.4042	2858.1233	5966.2	5074.5
1012.5216	2859.2679	5991.15	5100.8
1012.6389	2860.4118	6027.65	5136.1
1012.7561	2861.555	6053.9	5155.55
1012.8733	2862.6976	6071.65	5176.7
1012.9905	2863.8395	6095.15	5203.65
1013.1076	2864.9808	6103.85	5212.1
1013.2247	2866.1214	6085.05	5193.4
1013.3417	2867.2614	6103.15	5212.2
1013.4587	2868.4007	6099.4	5208.7
1013.5757	2869.5393	6124	5229.5
1013.6926	2870.6773	6121.05	5227.65
1013.8095	2871.8146	6125.3	5230.3
1013.9263	2872.9513	6108.15	5212.05
1014.0431	2874.0874	6101.5	5210.75
1014.1599	2875.2227	6082.35	5189.5
1014.2766	2876.3574	6051.1	5160
1014.3933	2877.4915	6015.45	5124.3
1014.51	2878.6249	5967.35	5077.5
1014.6266	2879.7577	5946.45	5055.4
1014.7431	2880.8898	5918.05	5015.7
1014.8596	2882.0212	5893.55	5002.75
1014.9761	2883.152	5865.75	4973.6
1015.0925	2884.2821	5830.1	4940
1015.2089	2885.4116	5817.55	4924.95
1015.3253	2886.5405	5809.2	4917.95
1015.4416	2887.6686	5798.15	4902
1015.5579	2888.7962	5793.3	4902
1015.6741	2889.923	5802.55	4912.45
1015.7903	2891.0493	5787.3	4896.65
1015.9065	2892.1748	5775.6	4884.6
1016.0226	2893.2997	5791	4897.75
1016.1387	2894.424	5799.95	4908.7
1016.2547	2895.5476	5795.95	4903.35
1016.3707	2896.6706	5830.55	4941.15
1016.4866	2897.7929	5836.8	4943.5
1016.6025	2898.9145	5845.85	4953.1
1016.7184	2900.0355	5860.65	4969.75
1016.8342	2901.1559	5897	5006.1
1016.95	2902.2756	5923.85	5033.8
1017.0658	2903.3946	5952.75	5061.5
1017.1815	2904.513	5947.3	5052.4
1017.2971	2905.6308	5974.45	5084.3
1017.4127	2906.7479	5971.55	5079
1017.5283	2907.8643	6017.95	5126.3
1017.6439	2908.9801	6003.3	5111.55
1017.7594	2910.0953	5992.3	5099.75
1017.8748	2911.2098	5977.3	5081.5
1017.9902	2912.3236	5984.4	5085.05
1018.1056	2913.4368	5959.25	5065.85
1018.2209	2914.5494	5921.65	5031.75
1018.3362	2915.6613	5927.55	5031.55
1018.4515	2916.7725	5867.25	4975.1
1018.5667	2917.8831	5824.7	4931.3
1018.6819	2918.9931	5800.85	4905.45
1018.797	2920.1024	5748.1	4854.35
1018.9121	2921.211	5715.9	4824.25
1019.0271	2922.319	5709.9	4818.45
1019.1421	2923.4264	5672.75	4781.7
1019.2571	2924.5331	5645.05	4756.65
1019.372	2925.6391	5630.05	4739.1
1019.4869	2926.7445	5610.25	4720.6
1019.6017	2927.8493	5597.65	4706
1019.7165	2928.9534	5575.9	4684.25
1019.8313	2930.0569	5558.15	4663.25
1019.946	2931.1597	5547.5	4655.1
1020.0606	2932.2619	5539.85	4646.95
1020.1753	2933.3634	5510.6	4620.35
1020.2899	2934.4643	5500.95	4602.75
1020.4044	2935.5645	5464.6	4567.9
1020.5189	2936.6641	5436	4539.85
1020.6334	2937.763	5381.9	4492.7
1020.7478	2938.8613	5314.35	4422.05
1020.8622	2939.959	5247.75	4350.3
1020.9765	2941.056	5155.95	4263.7
1021.0908	2942.1523	5069.65	4176.1
1021.2051	2943.248	4980.55	4089.1
1021.3193	2944.3431	4890.25	4001.2
1021.4334	2945.4375	4769.15	3876.8
1021.5476	2946.5313	4663.8	3774.45
1021.6617	2947.6244	4545.7	3655.1
1021.7757	2948.7169	4439.65	3548
1021.8897	2949.8087	4351.9	3460.45
1022.0037	2950.8999	4229.4	3336.95
1022.1176	2951.9904	4118.3	3229.3
1022.2315	2953.0803	4061.05	3169.4
1022.3453	2954.1696	4000.6	3108.9
1022.4591	2955.2582	3937.2	3046.3
1022.5728	2956.3462	3872.9	2983.15
1022.6865	2957.4335	3835	2942.65
1022.8002	2958.5202	3769.1	2876.3
1022.9138	2959.6062	3743.4	2851.3
1023.0274	2960.6916	3706	2814.05
1023.141	2961.7764	3701.85	2809.65
1023.2545	2962.8605	3665.15	2771.85
1023.3679	2963.9439	3640.6	2749.7
1023.4813	2965.0267	3622.05	2729.95
1023.5947	2966.1089	3625.6	2709.45
1023.708	2967.1905	3595.8	2703.8
1023.8213	2968.2714	3569.7	2680.85
1023.9346	2969.3516	3558.3	2667.85
1024.0478	2970.4312	3567.1	2668.45
1024.1609	2971.5102	3583.1	2692.6
1024.274	2972.5885	3536.6	2646.2
1024.3871	2973.6662	3552.3	2655.45
1024.5002	2974.7432	3539.35	2647.25
1024.6132	2975.8196	3524.05	2630.5
1024.7261	2976.8954	3500.2	2609.05
1024.839	2977.9705	3471.35	2579.2
1024.9519	2979.045	3471.35	2582.6
1025.0647	2980.1188	3444.15	2553.65
1025.1775	2981.192	3410.45	2520.7
1025.2902	2982.2645	3386.2	2493.9
1025.4029	2983.3364	3356.85	2465.45
1025.5156	2984.4077	3323.25	2432.35
1025.6282	2985.4783	3287.9	2389.55
1025.7407	2986.5483	3257.75	2369
1025.8532	2987.6177	3210.45	2319.8
1025.9657	2988.6864	3169.65	2279.45
1026.0782	2989.7545	3117.2	2224.7
1026.1906	2990.8219	3097.8	2209.4
1026.3029	2991.8887	3052.9	2159.4
1026.4152	2992.9548	2998.7	2106.55
1026.5275	2994.0204	2967.65	2077.95
1026.6397	2995.0852	2943.15	2054.95
1026.7519	2996.1495	2919	2026.55
1026.864	2997.2131	2884.85	1993.55
1026.9761	2998.276	2860.65	1968
1027.0882	2999.3383	2837.85	1944.45
1027.2002	3000.4	2818.2	1929.65
1027.3122	3001.4611	2795.05	1905.55
1027.4241	3002.5215	2776.8	1886.15
1027.536	3003.5812	2745.75	1854.7
1027.6478	3004.6404	2739.2	1849.15
1027.7596	3005.6989	2719.35	1828.6
1027.8714	3006.7567	2711.85	1819.2
1027.9831	3007.8139	2717.55	1802.65
1028.0947	3008.8705	2681.2	1789.1
1028.2064	3009.9264	2678.75	1784.45
1028.3179	3010.9818	2656.55	1766.25
1028.4295	3012.0364	2670.85	1779.05
1028.541	3013.0905	2637.05	1746.95
1028.6524	3014.1439	2642	1752.2
1028.7638	3015.1966	2626.2	1737.2
1028.8752	3016.2487	2624.15	1733.35
1028.9865	3017.3002	2621.45	1726.4
1029.0978	3018.3511	2607.2	1717.8
1029.209	3019.4013	2607.65	1716.4
1029.3202	3020.4509	2599.55	1709.8
1029.4314	3021.4998	2588.8	1699.15
1029.5425	3022.5481	2580.6	1690.4
1029.6535	3023.5958	2586.4	1693.7
1029.7645	3024.6428	2581.4	1688.85
1029.8755	3025.6892	2577.9	1690.15
1029.9864	3026.735	2575.65	1684.4
1030.0973	3027.7802	2576.7	1686
1030.2082	3028.8247	2562.45	1672.65
1030.319	3029.8685	2557.3	1666.75
1030.4297	3030.9118	2559.2	1667
1030.5404	3031.9544	2553.05	1664.45
1030.6511	3032.9963	2558.3	1668.45
1030.7617	3034.0376	2546.9	1658.05
1030.8723	3035.0783	2556.9	1664.5
1030.9829	3036.1184	2552.15	1661.1
1031.0934	3037.1578	2551.2	1662.6
1031.2038	3038.1966	2550.05	1659.1
1031.3142	3039.2348	2546	1657
1031.4246	3040.2723	2545.95	1645.6
1031.5349	3041.3092	2522	1631.2
1031.6452	3042.3455	2526.95	1636.15
1031.7554	3043.3811	2520.8	1630.7
1031.8656	3044.4161	2510.25	1618.05
1031.9758	3045.4505	2498.4	1609.9
1032.0859	3046.4842	2488.7	1598.55
1032.1959	3047.5173	2467.25	1576.9
1032.3059	3048.5498	2455.15	1563.8
1032.4159	3049.5816	2446.45	1553.8
1032.5258	3050.6128	2448.3	1556.65
1032.6357	3051.6434	2438.35	1546.25
1032.7455	3052.6734	2413.6	1520
1032.8553	3053.7027	2412.95	1522.2
1032.9651	3054.7314	2402.85	1512.25
1033.0748	3055.7594	2390.7	1500.95
1033.1845	3056.7868	2382.55	1491.2
1033.2941	3057.8136	2385.9	1493.25
1033.4037	3058.8398	2360.1	1470.45
1033.5132	3059.8653	2349.3	1457.85
1033.6227	3060.8902	2331.65	1441.45
1033.7321	3061.9145	2332.8	1440.05
1033.8415	3062.9381	2309.95	1417.7
1033.9509	3063.9612	2320.75	1416.45
1034.0602	3064.9835	2306.25	1415.5
1034.1694	3066.0053	2299.5	1404.85
1034.2787	3067.0264	2281.7	1392.4
1034.3878	3068.0469	2276	1384.45
1034.497	3069.0668	2245.65	1354.2
1034.6061	3070.086	2243.35	1352.05
1034.7151	3071.1046	2240.15	1350.6
1034.8241	3072.1226	2216.05	1322.6
1034.9331	3073.1399	2197.6	1306.25
1035.042	3074.1567	2190.5	1298.2
1035.1508	3075.1727	2196.1	1303.35
1035.2597	3076.1882	2168.5	1278.3
1035.3684	3077.203	2152.25	1263.7
1035.4772	3078.2173	2136.55	1245.2
1035.5859	3079.2308	2131.4	1238.45
1035.6945	3080.2438	2110.2	1218.85
1035.8031	3081.2561	2109.65	1218.55
1035.9117	3082.2678	2094.05	1203.6
1036.0202	3083.2789	2073.7	1182.1
1036.1286	3084.2893	2076.4	1187.15
1036.2371	3085.2991	2066.3	1176.55
1036.3454	3086.3083	2051.1	1154.45
1036.4538	3087.3169	2047.85	1154.95
1036.562	3088.3248	2031.4	1139.95
1036.6703	3089.3321	2035.65	1144.1
1036.7785	3090.3388	2029.9	1140.75
1036.8866	3091.3449	2008.85	1117.55
1036.9948	3092.3503	2006.4	1115.25
1037.1028	3093.3551	1998.7	1107.45
1037.2108	3094.3593	1994.2	1103.85
1037.3188	3095.3629	1970.65	1079
1037.4267	3096.3658	1983	1090.7
1037.5346	3097.3681	1967.1	1076.45
1037.6425	3098.3698	1961.9	1068.6
1037.7503	3099.3708	1951.15	1054.15
1037.858	3100.3713	1937.85	1048.7
1037.9657	3101.3711	1946.3	1054.95
1038.0734	3102.3702	2029.2	1005.4
1038.181	3103.3688	1927.95	1033.05
1038.2886	3104.3667	1921.65	1031.7
1038.3961	3105.364	1913.1	1022.8
1038.5036	3106.3607	1902.6	1009.9
1038.611	3107.3568	1901.3	1010.05
1038.7184	3108.3522	1880.6	991.2
1038.8257	3109.347	1884.1	991.75
1038.933	3110.3412	1888.2	992.4
1039.0403	3111.3348	1872.2	981.1
1039.1475	3112.3277	1871.4	981.2
1039.2547	3113.32	1858.6	968.55
1039.3618	3114.3117	1855.45	964.5
1039.4689	3115.3028	1856.5	965
1039.5759	3116.2932	1845.1	952.7
1039.6829	3117.2831	1847.75	952.1
1039.7898	3118.2723	1832.45	941.7
1039.8967	3119.2608	1829.8	939.4
1040.0035	3120.2488	1823.15	930.85
1040.1103	3121.2361	1811.85	921.65
1040.2171	3122.2229	1817.45	926.15
1040.3238	3123.209	1803.3	911.6
1040.4305	3124.1944	1803.95	912.95
1040.5371	3125.1793	1802.85	909.3
1040.6437	3126.1635	1790.15	901.65
1040.7502	3127.1471	1789.7	901.1
1040.8567	3128.1301	1778.15	887.85
1040.9631	3129.1125	1778.5	888.3
1041.0695	3130.0942	1774.5	883.7
1041.1759	3131.0753	1781.25	881.75
1041.2822	3132.0558	1764.2	871.35
1041.3884	3133.0357	1773	881.9
1041.4946	3134.015	1758.55	867.95
1041.6008	3134.9936	1751.8	862.45
1041.7069	3135.9716	1757.35	846.15
1041.813	3136.949	1749.6	857.2
1041.919	3137.9258	1749.15	854.15
1042.025	3138.902	1746.4	850.6
1042.1309	3139.8775	1733.95	844
1042.2368	3140.8524	1718.45	828.15
1042.3427	3141.8267	1728.45	834.95
1042.4485	3142.8004	1719.4	830.45
1042.5542	3143.7735	1715.2	821.15
1042.6599	3144.7459	1717.35	825.3
1042.7656	3145.7178	1707.7	815.85
1042.8712	3146.689	1701.55	812.1
1042.9768	3147.6596	1700.3	807.95
1043.0823	3148.6295	1691.55	799
1043.1878	3149.5989	1681.45	790.85
1043.2932	3150.5676	1684.35	795.25
1043.3986	3151.5357	1676.2	787.55
1043.5039	3152.5032	1681.2	792.2
1043.6092	3153.4701	1667.25	777.55
1043.7145	3154.4364	1665.25	774.35
1043.8197	3155.402	1663.85	774.4
1043.9248	3156.367	1657.65	764.5
1044.03	3157.3315	1686.55	750.85
1044.135	3158.2952	1654.8	763.35
1044.24	3159.2584	1643.65	753.85
1044.345	3160.221	1636.55	747.1
1044.4499	3161.1829	1637.25	747.95
1044.5548	3162.1442	1622.2	731.85
1044.6596	3163.105	1624.3	734.4
1044.7644	3164.065	1617.65	726.65
1044.8692	3165.0245	1617.85	723.7
1044.9739	3165.9834	1606.9	717.45
1045.0785	3166.9416	1620.7	731.25
1045.1831	3167.8993	1603.8	712.5
1045.2877	3168.8563	1599.55	709.15
1045.3922	3169.8127	1597.1	707.9
1045.4966	3170.7684	1592.75	702.3
1045.6011	3171.7236	1591	698.7
1045.7054	3172.6782	1583.05	693.2
1045.8098	3173.6321	1585.15	695.4
1045.914	3174.5854	1581.15	688.55
1046.0183	3175.5381	1585.25	693.9
1046.1224	3176.4902	1573.9	683.8
1046.2266	3177.4417	1568.8	679
1046.3307	3178.3926	1561.6	672.3
1046.4347	3179.3428	1558.15	669.45
1046.5387	3180.2924	1557.85	667.15
1046.6427	3181.2415	1550.3	660.3
1046.7466	3182.1899	1554.8	665.5
1046.8504	3183.1377	1548.25	657.85
1046.9542	3184.0848	1542.05	648.8
1047.058	3185.0314	1541.55	649.05
1047.1617	3185.9773	1525.2	634.2
1047.2654	3186.9227	1529.25	636.55
1047.369	3187.8674	1524.25	634.45
1047.4726	3188.8115	1532.8	638.8
1047.5761	3189.755	1524.15	632.3
1047.6796	3190.6979	1511.35	621.65
1047.783	3191.6402	1516.3	628.05
1047.8864	3192.5818	1504.8	615.2
1047.9898	3193.5229	1526.85	624.95
1048.0931	3194.4633	1507.65	617.1
1048.1963	3195.4031	1496.5	605.05
1048.2995	3196.3423	1492.65	603.85
1048.4027	3197.2809	1487.65	598.85
1048.5058	3198.2189	1486.7	596.9
1048.6089	3199.1563	1492.35	595.7
1048.7119	3200.0931	1479.35	590.8
1048.8148	3201.0292	1477.8	590.15
1048.9178	3201.9648	1474.05	583.75
1049.0206	3202.8997	1476.6	582.9
1049.1235	3203.834	1473.8	583.75
1049.2262	3204.7677	1468	577.95
1049.329	3205.7008	1466.2	573.45
1049.4317	3206.6333	1462.15	572.8
1049.5343	3207.5652	1459.65	567.65
1049.6369	3208.4964	1452.75	561.1
1049.7394	3209.4271	1451.4	563.7
1049.8419	3210.3571	1446.8	559.9
1049.9444	3211.2865	1448.95	558.95
1050.0468	3212.2154	1449.1	557.85
1050.1491	3213.1436	1447.85	552.8
1050.2514	3214.0712	1455.25	556.1
1050.3537	3214.9982	1434	543.8
1050.4559	3215.9246	1433.35	542.75
1050.5581	3216.8503	1434.8	546.25
1050.6602	3217.7755	1428.95	540.15
1050.7623	3218.7001	1430.95	542.3
1050.8643	3219.624	1430.35	538.7
1050.9663	3220.5473	1419.75	529.4
1051.0682	3221.4701	1423.65	531.35
1051.1701	3222.3922	1417.65	523.65
1051.2719	3223.3137	1409.8	521.45
1051.3737	3224.2346	1408.6	518.85
1051.4754	3225.1549	1404.65	515.65
1051.5771	3226.0746	1409.75	519.65
1051.6788	3226.9937	1396.6	506.35
1051.7804	3227.9121	1402.55	512.55
1051.8819	3228.83	1398.9	507.9
1051.9834	3229.7473	1392.6	501.6
1052.0849	3230.6639	1397.35	508.05
1052.1863	3231.5799	1392.25	501.65
1052.2876	3232.4954	1393.5	501.65
1052.3889	3233.4102	1384.9	492.6
1052.4902	3234.3244	1384.7	495.25
1052.5914	3235.238	1378.75	490.05
1052.6926	3236.151	1390	476.05
1052.7937	3237.0634	1376.3	486.95
1052.8948	3237.9752	1368.65	480
1052.9958	3238.8864	1377.35	487.8
1053.0968	3239.797	1362.35	472.3
1053.1977	3240.7069	1362.9	470.5
1053.2986	3241.6163	1356.95	462.45
1053.3994	3242.5251	1348.65	458.75
1053.5002	3243.4332	1351.9	462.4
1053.6009	3244.3408	1347.9	458.4
1053.7016	3245.2477	1350.5	463.15
1053.8022	3246.154	1348.35	458.5
1053.9028	3247.0598	1337.2	446.15
1054.0034	3247.9649	1336.6	444.45
1054.1039	3248.8694	1335.4	445.7
1054.2043	3249.7733	1335.25	443.9
1054.3047	3250.6766	1331.4	442.05
1054.4051	3251.5793	1332.55	442
1054.5054	3252.4814	1321.45	432.8
1054.6056	3253.3829	1321.45	432.3
1054.7058	3254.2838	1316.95	427.3
1054.806	3255.1841	1313.6	423.5
1054.9061	3256.0838	1307.6	417.75
1055.0061	3256.9829	1310.1	421.8
1055.1062	3257.8814	1300.65	408.55
1055.2061	3258.7792	1301.35	410.65
1055.306	3259.6765	1292.3	401.7
1055.4059	3260.5731	1295.5	406.35
1055.5057	3261.4692	1290.65	400.55
1055.6055	3262.3647	1279.85	390.1
1055.7052	3263.2595	1278.9	388.95
1055.8049	3264.1538	1270.45	380.3
1055.9045	3265.0474	1264	373.9
1056.0041	3265.9404	1266.2	378.7
1056.1036	3266.8329	1259.25	370.05
1056.2031	3267.7247	1258.9	358.7
1056.3025	3268.616	1242.4	351.9
1056.4019	3269.5066	1239.55	348.75
1056.5013	3270.3966	1222.9	330.8
1056.6005	3271.286	1218.05	331.35
