Software Version:	3.9.2.0
Unit SN:	10000200
Spectrometer SN:	6960
Date:	3/6/2024 11:01:54 AM
Data Line Index:	25
Spectral Points:	2048
Integration time (ms):	125
Averages:	20
Delay (ms):	30
Sequence Number:	1
Processing:	dark subtract
Laser Power (mW):	300
Laser Current (mA):	821
Laser Diode Temp (C):	25
Laser Case Temp (C):	28.2
System Temp (C):	28.1
Spectrometer Temp (C):	25.6
CCD Temp (C):	0.007
Secondary Temp (C):	20.007
Heatsink Temp (C):	23.888
CCDPCB Temp (C):	37.307
SecondaryPCB Temp (C):	34.773

Wavelength	RamanShift	Raw Counts	Dark Subtracted
787.061	30.1047	1070.7	658.85
787.2016	32.3739	1095.95	686.45
787.3422	34.6426	1141.5	731.35
787.4828	36.9109	1187.15	774.8
787.6235	39.1787	1245.45	829.2
787.7642	41.4461	1294.9	874.65
787.9049	43.7131	1361.85	938
788.0456	45.9796	1415.1	985.2
788.1863	48.2456	1476.75	1043.1
788.3271	50.5112	1544.35	1104.65
788.4679	52.7764	1611	1171.05
788.6087	55.0411	1683.45	1239.55
788.7496	57.3054	1759.25	1309.25
788.8904	59.5692	1853.95	1402.1
789.0313	61.8326	1943.6	1486
789.1722	64.0955	2041.1	1580.75
789.3132	66.3579	2162.4	1698.65
789.4541	68.6199	2296.15	1828.8
789.5951	70.8815	2532.45	2060.8
789.7361	73.1426	2993.2	2519.15
789.8771	75.4032	4194.85	3714.3
790.0181	77.6634	7198.1	6712.6
790.1592	79.9231	14900.2	14411.9
790.3003	82.1824	47756.5	47257.6
790.4414	84.4412	65535	65018.65
790.5825	86.6995	65535	64995.05
790.7237	88.9574	65535	64976.9
790.8648	91.2148	65535	64958.15
791.006	93.4717	65535	64950.35
791.1472	95.7282	65535	64943.9
791.2885	97.9842	65535	64941.35
791.4297	100.2398	65535	64935.65
791.571	102.4949	65535	64935.65
791.7123	104.7495	65535	64931.4
791.8536	107.0036	65535	64927.8
791.9949	109.2573	65535	64931.55
792.1363	111.5105	65535	64926.6
792.2777	113.7632	65535	64929.95
792.4191	116.0154	65535	64916.45
792.5605	118.2672	65535	64922.45
792.7019	120.5185	65535	64920.4
792.8434	122.7693	65535	64921.35
792.9849	125.0197	65535	64916.35
793.1264	127.2696	65535	64909.15
793.2679	129.519	65535	64910.1
793.4094	131.7679	65535	64906.6
793.551	134.0163	65535	64903.3
793.6926	136.2642	65535	64899.15
793.8342	138.5117	65535	64890.8
793.9758	140.7587	65535	64896.35
794.1175	143.0052	65535	64892.2
794.2591	145.2512	65535	64893.25
794.4008	147.4967	65535	64892.75
794.5425	149.7417	65535	64888.85
794.6842	151.9863	65535	64885.45
794.826	154.2304	65535	64884.7
794.9677	156.4739	65535	64876.95
795.1095	158.717	65535	64877.85
795.2513	160.9596	65535	64874.5
795.3931	163.2017	65535	64871.45
795.535	165.4433	65535	64870.1
795.6768	167.6844	65535	64867.7
795.8187	169.925	65535	64865.3
795.9606	172.1651	65535	64862.15
796.1025	174.4047	65535	64859.15
796.2445	176.6439	65535	64853.85
796.3864	178.8825	65535	64853.05
796.5284	181.1206	65535	64848.65
796.6704	183.3582	65535	64845.3
796.8124	185.5954	65535	64844.5
796.9544	187.832	65535	64839.95
797.0965	190.0681	65535	64841.5
797.2386	192.3037	65535	64831
797.3806	194.5388	65535	64831.3
797.5228	196.7734	65535	64830.95
797.6649	199.0075	65535	64826.8
797.807	201.2411	65535	64819.55
797.9492	203.4742	65535	64821.6
798.0914	205.7068	65535	64822.7
798.2336	207.9389	65535	64821.55
798.3758	210.1704	65535	64817.85
798.518	212.4015	65535	64816.35
798.6603	214.632	65535	64817.45
798.8025	216.862	65535	64828.45
798.9448	219.0915	65535	64835.4
799.0871	221.3205	65535	64835.45
799.2294	223.549	65535	64835.75
799.3718	225.777	65535	64840.3
799.5141	228.0044	65535	64833.9
799.6565	230.2314	65535	64835.3
799.7989	232.4578	65535	64836.2
799.9413	234.6837	65535	64825.7
800.0837	236.909	65535	64826.8
800.2262	239.1339	65535	64799.8
800.3687	241.3582	65535	64813.3
800.5111	243.582	65535	64784.65
800.6536	245.8053	65535	64794.5
800.7961	248.0281	65535	64800.15
800.9387	250.2503	65535	64798.6
801.0812	252.472	65535	64789.8
801.2238	254.6932	65535	64791.35
801.3664	256.9139	65535	64789.25
801.509	259.134	65535	64785.15
801.6516	261.3536	65535	64787.2
801.7942	263.5727	65535	64785.2
801.9369	265.7912	65535	64786.35
802.0795	268.0092	65535	64785.35
802.2222	270.2267	65535	64781.95
802.3649	272.4436	65535	64780.4
802.5076	274.6601	65535	64776.55
802.6504	276.8759	65535	64778.9
802.7931	279.0913	65535	64782.8
802.9359	281.3061	65535	64773.9
803.0787	283.5204	65535	64773.9
803.2215	285.7341	65535	64770.75
803.3643	287.9473	65535	64757.65
803.5071	290.16	65535	64765.85
803.6499	292.3721	65535	64773.4
803.7928	294.5837	65535	64767.55
803.9357	296.7947	65535	64770.55
804.0786	299.0052	65535	64768.05
804.2215	301.2152	65535	64766.85
804.3644	303.4246	65535	64769.85
804.5074	305.6334	65535	64766.95
804.6503	307.8418	65535	64764.45
804.7933	310.0495	65535	64763.2
804.9363	312.2568	65535	64764.3
805.0793	314.4635	65535	64764.4
805.2223	316.6696	65535	64761.15
805.3653	318.8752	65535	64753.7
805.5084	321.0802	65535	64759.55
805.6514	323.2847	65535	64756.5
805.7945	325.4887	65535	64754.75
805.9376	327.692	65535	64759.15
806.0807	329.8949	65535	64754.15
806.2238	332.0972	65535	64753.65
806.367	334.2989	65535	64751.45
806.5101	336.5001	65535	64749.8
806.6533	338.7007	65535	64749
806.7965	340.9008	65535	64749
806.9397	343.1003	65535	64745.7
807.0829	345.2992	65535	64743.1
807.2261	347.4976	65535	64743.35
807.3693	349.6955	65535	64740.05
807.5126	351.8927	65535	64742.25
807.6559	354.0895	65535	64732.6
807.7991	356.2856	65535	64738.1
807.9424	358.4812	65535	64740
808.0857	360.6763	65535	64739.15
808.2291	362.8707	65535	64735.85
808.3724	365.0646	65535	64729
808.5158	367.258	65535	64731.3
808.6591	369.4508	65535	64724.35
808.8025	371.643	65535	64728.7
808.9459	373.8346	65535	64726.2
809.0893	376.0257	65535	64723.1
809.2327	378.2162	65535	64720.15
809.3762	380.4062	65535	64720.45
809.5196	382.5956	65535	64717.9
809.6631	384.7844	65535	64719.15
809.8066	386.9726	65535	64716.75
809.9501	389.1603	65535	64721.9
810.0936	391.3474	65535	64679.15
810.2371	393.5339	65535	64717.7
810.3806	395.7199	65535	64730.05
810.5241	397.9052	65535	64727.65
810.6677	400.09	65535	64728.95
810.8113	402.2743	65535	64732.75
810.9548	404.4579	65535	64734.1
811.0984	406.641	65535	64727.1
811.2421	408.8235	65535	64730
811.3857	411.0054	65535	64726.6
811.5293	413.1868	65535	64723.1
811.673	415.3675	65535	64719.1
811.8166	417.5477	65535	64721.8
811.9603	419.7273	65535	64719.1
812.104	421.9064	65535	64709.75
812.2477	424.0848	65535	64712.9
812.3914	426.2627	65535	64712.15
812.5351	428.4399	65535	64712.55
812.6788	430.6166	65535	64705.6
812.8226	432.7928	65535	64707.95
812.9663	434.9683	65535	64703.95
813.1101	437.1432	65535	64703.9
813.2539	439.3176	65535	64701.6
813.3977	441.4914	65535	64703.8
813.5415	443.6645	65535	64700.6
813.6853	445.8371	65535	64702.8
813.8291	448.0091	65535	64702.9
813.973	450.1806	65535	64704.7
814.1168	452.3514	65535	64698.65
814.2607	454.5216	65535	64693.95
814.4046	456.6913	65535	64699.85
814.5485	458.8603	65535	64702.2
814.6924	461.0288	65535	64701.8
814.8363	463.1967	65535	64700.45
814.9802	465.3639	65535	64696.7
815.1241	467.5306	65535	64697.55
815.2681	469.6967	65535	64699.45
815.412	471.8622	65535	64697.7
815.556	474.0271	65535	64696.45
815.7	476.1914	65535	64694.1
815.844	478.3551	65535	64695.2
815.988	480.5182	65535	64697.1
816.132	482.6807	65535	64694.45
816.276	484.8426	65535	64695.2
816.4201	487.0039	65535	64695.1
816.5641	489.1647	65535	64696.1
816.7082	491.3248	65535	64693
816.8522	493.4843	65535	64699.1
816.9963	495.6432	65535	64694.85
817.1404	497.8015	65535	64689.65
817.2845	499.9592	65535	64688.4
817.4286	502.1163	65535	64690.2
817.5727	504.2728	65535	64688.1
817.7168	506.4287	65535	64691.35
817.861	508.5839	65535	64690.65
818.0051	510.7386	65535	64691.1
818.1493	512.8927	65535	64686.2
818.2935	515.0461	65535	64685.75
818.4377	517.199	65535	64687.15
818.5818	519.3512	65535	64685.6
818.726	521.5029	65535	64679.25
818.8703	523.6539	65535	64684.55
819.0145	525.8043	65535	64684
819.1587	527.9541	65535	64683.4
819.303	530.1033	65535	64681.05
819.4472	532.2519	65535	64682.15
819.5915	534.3999	65535	64682.3
819.7357	536.5472	65535	64682
819.88	538.694	65535	64680.75
820.0243	540.8401	65535	64679.15
820.1686	542.9856	65535	64677.1
820.3129	545.1305	65535	64676.45
820.4572	547.2748	65535	64677.25
820.6016	549.4185	65535	64674.1
820.7459	551.5615	65535	64676.55
820.8902	553.704	65535	64675.65
821.0346	555.8458	65535	64678.9
821.1789	557.987	65535	64676.85
821.3233	560.1276	65535	64675.5
821.4677	562.2675	65535	64675.55
821.6121	564.4069	65535	64677.9
821.7565	566.5456	65535	64679.6
821.9009	568.6837	65535	64678.3
822.0453	570.8212	65535	64678.15
822.1897	572.958	65535	64674.9
822.3342	575.0942	65535	64681.35
822.4786	577.2299	65535	64676.65
822.6231	579.3648	65535	64675.9
822.7675	581.4992	65535	64678.9
822.912	583.6329	65535	64680.4
823.0565	585.766	65535	64677.1
823.201	587.8985	65535	64680.9
823.3454	590.0304	65535	64665.55
823.4899	592.1616	65535	64673.8
823.6345	594.2922	65535	64674.45
823.779	596.4222	65535	64671.8
823.9235	598.5515	65535	64671.6
824.068	600.6802	65535	64672.7
824.2126	602.8083	65535	64670.15
824.3571	604.9358	65535	64671.95
824.5017	607.0626	65535	64672.8
824.6462	609.1888	65535	64670.05
824.7908	611.3144	65535	64668.65
824.9354	613.4393	65535	64669.55
825.08	615.5636	65535	64671
825.2246	617.6873	65535	64666
825.3692	619.8103	65535	64668.05
825.5138	621.9327	65535	64663.45
825.6584	624.0544	65535	64669.75
825.803	626.1756	65535	64669.4
825.9477	628.2961	65535	64667.6
826.0923	630.4159	65535	64664.55
826.237	632.5351	65535	64667.7
826.3816	634.6537	65535	64665.75
826.5263	636.7716	65535	64665.9
826.6709	638.8889	65535	64663.15
826.8156	641.0056	65535	64664.85
826.9603	643.1216	65535	64664.75
827.105	645.237	65535	64660.2
827.2497	647.3518	65535	64664.5
827.3944	649.4659	65535	64663.65
827.5391	651.5793	65535	64661.2
827.6838	653.6922	65535	64664.5
827.8285	655.8043	65535	64663.55
827.9733	657.9159	65535	64666.15
828.118	660.0268	65535	64663.4
828.2627	662.137	65535	64665.7
828.4075	664.2466	65535	64660.5
828.5522	666.3556	65535	64661.35
828.697	668.4639	65535	64658.6
828.8418	670.5716	65535	64661.45
828.9865	672.6786	65535	64661.05
829.1313	674.785	65535	64659.9
829.2761	676.8907	65535	64661.9
829.4209	678.9958	65535	64663.6
829.5657	681.1002	65535	64660.05
829.7105	683.204	65535	64655.5
829.8553	685.3072	65535	64659.75
830.0001	687.4097	65535	64659.5
830.1449	689.5115	65535	64657.95
830.2898	691.6127	65535	64657.5
830.4346	693.7132	65535	64658.3
830.5794	695.8131	65535	64644.35
830.7243	697.9123	65535	64656.25
830.8691	700.0109	65535	64655.45
831.014	702.1089	65535	64656.9
831.1588	704.2061	65535	64655.7
831.3037	706.3028	65535	64653.75
831.4486	708.3987	65535	64654.2
831.5935	710.4941	65535	64658.5
831.7383	712.5887	65535	64654.45
831.8832	714.6827	65535	64653.75
832.0281	716.7761	65535	64658.7
832.173	718.8688	65535	64657.3
832.3179	720.9608	65535	64650.75
832.4628	723.0522	65535	64651.35
832.6077	725.1429	65535	64653.3
832.7527	727.233	65535	64652.95
832.8976	729.3224	65535	64655.25
833.0425	731.4112	65535	64651.75
833.1874	733.4993	65535	64649.55
833.3324	735.5867	65535	64652.15
833.4773	737.6735	65535	64652.3
833.6222	739.7596	65535	64650.4
833.7672	741.845	65535	64651.05
833.9122	743.9298	65535	64650.9
834.0571	746.014	65535	64650.05
834.2021	748.0974	65535	64651.4
834.347	750.1802	65535	64651.55
834.492	752.2624	65535	64652.75
834.637	754.3439	65535	64648.7
834.782	756.4247	65535	64641.8
834.9269	758.5048	65535	64648.15
835.0719	760.5843	65535	64650.7
835.2169	762.6631	65535	64649.1
835.3619	764.7413	65535	64650.95
835.5069	766.8188	65535	64646.8
835.6519	768.8956	65535	64649.45
835.7969	770.9718	65535	64651.75
835.9419	773.0473	65535	64651.8
836.0869	775.1221	65535	64649.3
836.232	777.1962	65535	64647.6
836.377	779.2697	65535	64645.2
836.522	781.3426	65535	64629.35
836.667	783.4147	65535	64647.7
836.8121	785.4862	65535	64651.8
836.9571	787.557	65535	64649.35
837.1021	789.6271	65535	64651.2
837.2472	791.6966	65535	64649.15
837.3922	793.7654	65535	64649.3
837.5373	795.8335	65535	64647.6
837.6823	797.901	65535	64647.6
837.8274	799.9678	65535	64647.2
837.9724	802.0339	65535	64652.55
838.1175	804.0993	65535	64640.5
838.2626	806.1641	65535	64646.5
838.4076	808.2282	65535	64647.35
838.5527	810.2916	65535	64645.85
838.6978	812.3544	65535	64647.65
838.8428	814.4164	65535	64649.2
838.9879	816.4778	65535	64645.75
839.133	818.5385	65535	64647.9
839.2781	820.5986	65535	64647
839.4232	822.658	65535	64643.1
839.5682	824.7166	65535	64649.55
839.7133	826.7747	65535	64646.7
839.8584	828.832	65535	64643.3
840.0035	830.8886	65535	64643.8
840.1486	832.9446	65535	64644.4
840.2937	834.9999	65535	64645.4
840.4388	837.0545	65535	64641.5
840.5839	839.1085	65535	64647.25
840.729	841.1618	65535	64642.6
840.8741	843.2143	65535	64643.6
841.0192	845.2662	65535	64644.35
841.1643	847.3175	65535	64646.55
841.3095	849.368	65535	64643.9
841.4546	851.4179	65535	64645.6
841.5997	853.467	65535	64644.9
841.7448	855.5155	65535	64642.45
841.8899	857.5633	65535	64646.65
842.0351	859.6105	65535	64643.95
842.1802	861.6569	65535	64645.85
842.3253	863.7027	65535	64643.8
842.4704	865.7478	65535	64644.9
842.6156	867.7922	65535	64643.5
842.7607	869.8359	65535	64643.5
842.9058	871.8789	65535	64643.25
843.0509	873.9212	65535	64609
843.1961	875.9629	65535	64643.85
843.3412	878.0039	65535	64645.25
843.4863	880.0441	65535	64644.9
843.6315	882.0837	65535	64642.85
843.7766	884.1226	65535	64642.85
843.9218	886.1609	65535	64646.65
844.0669	888.1984	65535	64642.55
844.212	890.2352	65535	64645.6
844.3572	892.2714	65535	64638.95
844.5023	894.3069	65535	64643.6
844.6475	896.3416	65535	64643.2
844.7926	898.3757	65535	64643.2
844.9377	900.4091	65535	64641.45
845.0829	902.4418	65535	64635.6
845.228	904.4739	65535	64640.1
845.3732	906.5052	65535	64641.45
845.5183	908.5358	65535	64642.6
845.6635	910.5658	65535	64639.05
845.8086	912.595	65535	64642.6
845.9538	914.6236	65535	64643.2
846.0989	916.6515	65535	64641.05
846.2441	918.6786	65535	64639.55
846.3892	920.7051	65535	64638.25
846.5344	922.7309	65535	64642.15
846.6795	924.756	65535	64640.8
846.8246	926.7804	65535	64638.3
846.9698	928.8041	65535	64633.6
847.1149	930.8272	65535	64639.9
847.2601	932.8495	65535	64638.35
847.4052	934.8711	65535	64641.65
847.5504	936.892	65535	64639.2
847.6955	938.9123	65535	64641.15
847.8407	940.9318	65535	64638.4
847.9858	942.9506	65535	64641
848.131	944.9688	65535	64641.55
848.2761	946.9862	65535	64643.05
848.4213	949.003	65535	64639.65
848.5664	951.019	65535	64639.05
848.7115	953.0344	65535	64642.1
848.8567	955.0491	65535	64639.95
849.0018	957.063	65535	64640.55
849.147	959.0763	65535	64640.85
849.2921	961.0888	65535	64637.75
849.4373	963.1007	65535	64639.15
849.5824	965.1119	65535	64640.55
849.7275	967.1223	65535	64642.25
849.8727	969.1321	65535	64641.45
850.0178	971.1412	65535	64639.9
850.1629	973.1495	65535	64643.25
850.3081	975.1572	65535	64604.35
850.4532	977.1641	65535	64638.3
850.5983	979.1704	65535	64642.15
850.7435	981.1759	65535	64638.05
850.8886	983.1808	65535	64637.1
851.0337	985.1849	65535	64630.05
851.1788	987.1884	65535	64636.8
851.324	989.1911	65535	64636.85
851.4691	991.1932	65535	64639.5
851.6142	993.1945	65535	64642.05
851.7593	995.1951	65535	64639.45
851.9045	997.1951	65535	64632.95
852.0496	999.1943	65535	64640
852.1947	1001.1928	65535	64638.3
852.3398	1003.1906	65535	64637
852.4849	1005.1877	65535	64639.35
852.63	1007.1841	65535	64638.15
852.7751	1009.1798	65535	64642.1
852.9202	1011.1748	65535	64641.15
853.0653	1013.1691	65535	64637
853.2104	1015.1627	65535	64640.2
853.3555	1017.1556	65535	64640.3
853.5006	1019.1477	65535	64637.7
853.6457	1021.1392	65535	64640.65
853.7908	1023.1299	65535	64640.1
853.9359	1025.12	65535	64640.15
854.081	1027.1093	65535	64639.55
854.2261	1029.0979	65535	64641.7
854.3712	1031.0859	65535	64640.35
854.5163	1033.0731	65535	64640.35
854.6613	1035.0596	65535	64643
854.8064	1037.0454	65535	64638.4
854.9515	1039.0304	65535	64639.15
855.0965	1041.0148	65535	64638.35
855.2416	1042.9985	65535	64636.05
855.3867	1044.9814	65535	64639.5
855.5317	1046.9636	65535	64636.85
855.6768	1048.9452	65535	64641.55
855.8219	1050.926	65535	64641.4
855.9669	1052.9061	65535	64639.4
856.112	1054.8855	65535	64639.85
856.257	1056.8642	65535	64639.35
856.4021	1058.8421	65535	64633.7
856.5471	1060.8194	65535	64636.85
856.6921	1062.7959	65535	64640.05
856.8372	1064.7717	65535	64637.4
856.9822	1066.7469	65535	64637.6
857.1272	1068.7213	65535	64635.55
857.2723	1070.695	65535	64638.15
857.4173	1072.6679	65535	64640
857.5623	1074.6402	65535	64638.85
857.7073	1076.6117	65535	64632.1
857.8523	1078.5826	65535	64637.15
857.9973	1080.5527	65535	64637.95
858.1423	1082.5221	65535	64638.2
858.2873	1084.4908	65535	64636.85
858.4323	1086.4587	65535	64638.9
858.5773	1088.426	65535	64639.1
858.7223	1090.3925	65535	64633.1
858.8673	1092.3584	65535	64636.4
859.0123	1094.3235	65535	64639.95
859.1573	1096.2879	65535	64639.15
859.3022	1098.2515	65535	64637.65
859.4472	1100.2145	65535	64639.25
859.5922	1102.1767	65535	64635.55
859.7371	1104.1382	65535	64640.7
859.8821	1106.099	65535	64638.55
860.027	1108.0591	65535	64639.05
860.172	1110.0185	65535	64636.95
860.3169	1111.9771	65535	64637.55
860.4619	1113.9351	65535	64637.6
860.6068	1115.8923	65535	64640.8
860.7517	1117.8488	65535	64637.95
860.8967	1119.8045	65535	64637.55
861.0416	1121.7596	65535	64638.35
861.1865	1123.7139	65535	64639.5
861.3314	1125.6675	65535	64638.45
861.4763	1127.6204	65535	64638.1
861.6212	1129.5726	65535	64637.3
861.7661	1131.524	65535	64639.3
861.911	1133.4748	65535	64637.25
862.0559	1135.4248	65535	64635.55
862.2008	1137.3741	65535	64639.35
862.3457	1139.3226	65535	64639.8
862.4905	1141.2705	65535	64638.65
862.6354	1143.2176	65535	64632.4
862.7803	1145.164	65535	64635.8
862.9251	1147.1097	65535	64636.25
863.07	1149.0546	65535	64635.9
863.2148	1150.9989	65535	64639.7
863.3597	1152.9424	65535	64636.4
863.5045	1154.8852	65535	64635.6
863.6493	1156.8272	65535	64638.55
863.7942	1158.7686	65535	64630.55
863.939	1160.7092	65535	64636.7
864.0838	1162.6491	65535	64637.95
864.2286	1164.5883	65535	64640.15
864.3734	1166.5267	65535	64636.95
864.5182	1168.4644	65535	64637.4
864.663	1170.4014	65535	64633.5
864.8078	1172.3377	65535	64638.3
864.9526	1174.2732	65535	64637.2
865.0974	1176.2081	65535	64635.85
865.2421	1178.1421	65535	64634.4
865.3869	1180.0755	65535	64639.4
865.5317	1182.0082	65535	64637.3
865.6764	1183.9401	65535	64639
865.8212	1185.8713	65535	64640.15
865.9659	1187.8017	65535	64639.15
866.1106	1189.7315	65535	64640.1
866.2554	1191.6605	65535	64610.7
866.4001	1193.5888	65535	64638.85
866.5448	1195.5163	65535	64636.65
866.6895	1197.4432	65535	64636.2
866.8342	1199.3693	65535	64640.4
866.9789	1201.2947	65535	64634.65
867.1236	1203.2193	65535	64637
867.2683	1205.1432	65535	64640.2
867.413	1207.0664	65535	64637.55
867.5576	1208.9889	65535	64637.45
867.7023	1210.9106	65535	64636.5
867.847	1212.8316	65535	64637.15
867.9916	1214.7519	65535	64627.55
868.1363	1216.6715	65535	64636.9
868.2809	1218.5903	65535	64639.5
868.4255	1220.5084	65535	64637.15
868.5701	1222.4257	65535	64639.2
868.7148	1224.3424	65535	64639.4
868.8594	1226.2583	65535	64633.25
869.004	1228.1735	65535	64635.75
869.1486	1230.0879	65535	64639.4
869.2932	1232.0016	65535	64638.75
869.4377	1233.9146	65535	64636.6
869.5823	1235.8269	65535	64636.9
869.7269	1237.7384	65535	64638.1
869.8715	1239.6492	65535	64640.35
870.016	1241.5592	65535	64638.45
870.1606	1243.4686	65535	64637.85
870.3051	1245.3772	65535	64639.85
870.4496	1247.285	65535	64636.1
870.5941	1249.1922	65535	64637.1
870.7387	1251.0986	65535	64637.75
870.8832	1253.0042	65535	64638.8
871.0277	1254.9092	65535	64639.65
871.1722	1256.8134	65535	64639.8
871.3167	1258.7169	65535	64637.6
871.4611	1260.6196	65535	64637.3
871.6056	1262.5216	65535	64636.75
871.7501	1264.4229	65535	64637.15
871.8945	1266.3234	65535	64640.4
872.039	1268.2232	65535	64636.4
872.1834	1270.1223	65535	64638.5
872.3278	1272.0207	65535	64636.85
872.4723	1273.9183	65535	64632.3
872.6167	1275.8151	65535	64636.85
872.7611	1277.7113	65535	64637.05
872.9055	1279.6067	65535	64638.7
873.0499	1281.5014	65535	64636.25
873.1943	1283.3953	65535	64635.3
873.3386	1285.2885	65535	64637.4
873.483	1287.181	65535	64635
873.6274	1289.0727	65535	64639.1
873.7717	1290.9637	65535	64639.05
873.9161	1292.854	65535	64637
874.0604	1294.7435	65535	64639.65
874.2047	1296.6323	65535	64637.3
874.349	1298.5204	65535	64635.05
874.4933	1300.4077	65535	64635.5
874.6376	1302.2943	65535	64637.85
874.7819	1304.1802	65535	64639.35
874.9262	1306.0653	65535	64634.9
875.0705	1307.9497	65535	64639.05
875.2147	1309.8333	65535	64638.2
875.359	1311.7162	65535	64638.75
875.5032	1313.5984	65535	64634.9
875.6475	1315.4798	65535	64626.25
875.7917	1317.3605	65535	64623.75
875.9359	1319.2405	65535	64636.7
876.0801	1321.1197	65535	64634.75
876.2243	1322.9982	65535	64634.25
876.3685	1324.876	65535	64638.85
876.5127	1326.753	65535	64638.35
876.6569	1328.6293	65535	64636.55
876.801	1330.5048	65535	64635.45
876.9452	1332.3796	65535	64637.5
877.0893	1334.2537	65535	64611.2
877.2335	1336.127	65535	64636
877.3776	1337.9996	65535	64636.45
877.5217	1339.8714	65535	64635.65
877.6658	1341.7426	65535	64592.65
877.8099	1343.6129	65535	64634.4
877.954	1345.4826	65535	64638.6
878.0981	1347.3515	65535	64632.75
878.2422	1349.2196	65535	64635.95
878.3862	1351.087	65535	64636.55
878.5303	1352.9537	65535	64637.45
878.6743	1354.8197	65535	64637.5
878.8184	1356.6849	65535	64637.35
878.9624	1358.5493	65535	64637.45
879.1064	1360.4131	65535	64636.25
879.2504	1362.276	65535	64637.65
879.3944	1364.1383	65535	64637.2
879.5384	1365.9998	65535	64630.7
879.6823	1367.8606	65535	64636.65
879.8263	1369.7206	65535	64637.65
879.9702	1371.5799	65535	64635.2
880.1142	1373.4384	65535	64638.15
880.2581	1375.2962	65535	64637.05
880.402	1377.1533	65535	64639.25
880.5459	1379.0096	65535	64636.4
880.6898	1380.8652	65535	64637.55
880.8337	1382.7201	65535	64636.05
880.9776	1384.5742	65535	64636.95
881.1215	1386.4275	65535	64635.85
881.2653	1388.2802	65535	64636.15
881.4092	1390.132	65535	64638.2
881.553	1391.9832	65535	64635.35
881.6968	1393.8336	65535	64636.3
881.8406	1395.6832	65535	64637.9
881.9844	1397.5322	65535	64637.9
882.1282	1399.3803	65535	64632.45
882.272	1401.2278	65535	64637.75
882.4158	1403.0745	65535	64637.2
882.5595	1404.9204	65535	64638.75
882.7033	1406.7656	65535	64636.1
882.847	1408.6101	65535	64636.45
882.9908	1410.4538	65535	64637.4
883.1345	1412.2968	65535	64638.95
883.2782	1414.139	65535	64639.05
883.4219	1415.9805	65535	64638.5
883.5656	1417.8213	65535	64630.6
883.7092	1419.6613	65535	64637.25
883.8529	1421.5006	65535	64638.1
883.9965	1423.3391	65535	64636.1
884.1402	1425.1769	65535	64635.05
884.2838	1427.0139	65535	64634.3
884.4274	1428.8502	65535	64637.35
884.571	1430.6858	65535	64637.75
884.7146	1432.5206	65535	64637.05
884.8582	1434.3547	65535	64634.95
885.0018	1436.188	65535	64637.35
885.1453	1438.0206	65535	64636.4
885.2889	1439.8524	65535	64637.35
885.4324	1441.6835	65535	64638.05
885.5759	1443.5139	65535	64632.15
885.7194	1445.3435	65535	64635.2
885.8629	1447.1724	65535	64637.55
886.0064	1449.0005	65535	64639.6
886.1499	1450.8279	65535	64636.4
886.2933	1452.6545	65535	64636.75
886.4368	1454.4804	65535	64639.85
886.5802	1456.3056	65535	64630.65
886.7237	1458.13	65535	64640.95
886.8671	1459.9536	65535	64637.35
887.0105	1461.7766	65535	64638.75
887.1539	1463.5987	65535	64636.95
887.2972	1465.4202	65535	64637.4
887.4406	1467.2409	65535	64638.85
887.584	1469.0608	65535	64639.35
887.7273	1470.88	65535	64636.35
887.8706	1472.6984	65535	64637.85
888.0139	1474.5161	65535	64633.7
888.1572	1476.3331	65535	64639.55
888.3005	1478.1493	65535	64638.4
888.4438	1479.9648	65535	64639.8
888.5871	1481.7795	65535	64638.65
888.7303	1483.5935	65535	64635.8
888.8736	1485.4067	65535	64638.1
889.0168	1487.2192	65535	64637.55
889.16	1489.031	65535	64634.5
889.3032	1490.842	65535	64636.7
889.4464	1492.6522	65535	64637.65
889.5896	1494.4618	65535	64635.05
889.7327	1496.2705	65535	64637.6
889.8759	1498.0785	65535	64636.9
890.019	1499.8858	65535	64638
890.1622	1501.6924	65535	64638.95
890.3053	1503.4981	65535	64637.8
890.4484	1505.3032	65535	64638.05
890.5914	1507.1075	65535	64639.25
890.7345	1508.911	65535	64638.6
890.8776	1510.7138	65535	64637.25
891.0206	1512.5159	65535	64637.2
891.1637	1514.3172	65511.7	64616.7
891.3067	1516.1178	65527.15	64631.35
891.4497	1517.9176	65535	64635.6
891.5927	1519.7166	65522.15	64624.25
891.7357	1521.515	65510.45	64608.05
891.8786	1523.3126	65405	64506.75
892.0216	1525.1094	65513.6	64614.75
892.1645	1526.9055	65474.5	64579.45
892.3074	1528.7008	65479.15	64581.75
892.4503	1530.4954	65316.75	64413.15
892.5932	1532.2893	65464.85	64567.7
892.7361	1534.0824	65243.15	64342.35
892.879	1535.8747	65068.3	64171.25
893.0218	1537.6663	65480.45	64583.8
893.1647	1539.4572	64583.3	63686.6
893.3075	1541.2473	65042.55	64145.2
893.4503	1543.0367	64924.2	64027.75
893.5931	1544.8253	64816.9	63916
893.7359	1546.6132	64947.8	64050.3
893.8787	1548.4003	64581.4	63675.3
894.0214	1550.1867	64443.85	63538.25
894.1642	1551.9723	64312.55	63411.65
894.3069	1553.7572	64393.2	63494.95
894.4496	1555.5414	64612.35	63717.25
894.5923	1557.3247	63042.35	62147.1
894.735	1559.1074	64370.7	63474.7
894.8777	1560.8893	63736.3	62841.1
895.0204	1562.6705	64016.9	63120.4
895.163	1564.4509	63018.15	62122.2
895.3056	1566.2305	63504.45	62609.45
895.4482	1568.0094	64119.2	63224.65
895.5908	1569.7876	63580.45	62685.5
895.7334	1571.565	62855.7	61959.75
895.876	1573.3417	63261.75	62367
896.0186	1575.1176	63130.6	62237.5
896.1611	1576.8928	62766.5	61870.55
896.3036	1578.6672	62132.55	61239.95
896.4461	1580.4409	62467.2	61574.9
896.5886	1582.2138	61680.35	60783.2
896.7311	1583.986	61860.8	60965.75
896.8736	1585.7575	61092.6	60197.55
897.0161	1587.5282	61146.95	60252.05
897.1585	1589.2981	61282.2	60388.3
897.3009	1591.0673	60503.8	59608.35
897.4433	1592.8358	60179.55	59286.9
897.5857	1594.6035	60603	59705.35
897.7281	1596.3704	60615.65	59720.15
897.8705	1598.1366	59715.7	58818.6
898.0128	1599.9021	59198.5	58305.45
898.1551	1601.6668	59841.1	58945.8
898.2975	1603.4308	59515.3	58619.95
898.4398	1605.194	59759.5	58859.6
898.5821	1606.9564	58536.4	57640.8
898.7243	1608.7182	59142.9	58244.85
898.8666	1610.4791	58616.55	57723.25
899.0088	1612.2394	59011.55	58117.05
899.1511	1613.9988	58652.2	57758.05
899.2933	1615.7576	59247.05	58352.95
899.4355	1617.5156	59204.15	58304.2
899.5776	1619.2728	59883.4	58987.8
899.7198	1621.0293	58829.95	57937.7
899.862	1622.785	58862.75	57961.55
900.0041	1624.54	59153.2	58257.9
900.1462	1626.2942	58605.8	57707.7
900.2883	1628.0477	57546.2	56647.95
900.4304	1629.8005	57088.95	56190.1
900.5725	1631.5525	57439.85	56547
900.7145	1633.3037	56457.5	55562.95
900.8566	1635.0542	56391.25	55499
900.9986	1636.804	56485.5	55588.75
901.1406	1638.553	55837.7	54835.4
901.2826	1640.3013	55831.9	54936.9
901.4245	1642.0488	55270.45	54375.55
901.5665	1643.7955	55498.05	54603.35
901.7085	1645.5416	55146.1	54253.4
901.8504	1647.2868	54916.35	54024.2
901.9923	1649.0313	55259.95	54363.75
902.1342	1650.7751	55007.85	54110.15
902.2761	1652.5181	54801	53907
902.4179	1654.2604	54868.85	53973.75
902.5598	1656.0019	55324.7	54432.75
902.7016	1657.7427	55156.35	54263.7
902.8434	1659.4828	55576.55	54684.1
902.9852	1661.222	55469.25	54573.75
903.127	1662.9606	55632.05	54740.05
903.2687	1664.6984	55126.15	54229.8
903.4105	1666.4354	54900.6	54007.4
903.5522	1668.1717	53995.75	53101.4
903.6939	1669.9072	53304.2	52411.7
903.8356	1671.642	53047.7	52150.25
903.9773	1673.3761	52605.4	51711.95
904.119	1675.1094	52264.7	51369.55
904.2606	1676.8419	51818.55	50926
904.4022	1678.5737	51549.65	50654.95
904.5439	1680.3048	51271.75	50376.35
904.6855	1682.0351	50925.05	50033.75
904.827	1683.7646	50643.65	49747.4
904.9686	1685.4934	50611.4	49720.1
905.1101	1687.2215	50067.45	49173.75
905.2517	1688.9488	50030.35	49138.4
905.3932	1690.6754	49448.95	48556.35
905.5347	1692.4012	49537.4	48644.15
905.6761	1694.1263	49384.65	48493.4
905.8176	1695.8506	49219.55	48324.65
905.9591	1697.5742	48971.35	48078.15
906.1005	1699.297	48729.35	47836.9
906.2419	1701.0191	48548.8	47654.05
906.3833	1702.7404	48303.2	47411.6
906.5246	1704.461	48063.2	47169.1
906.666	1706.1808	47866	46971.7
906.8073	1707.8999	47698.8	46804.1
906.9487	1709.6182	47483.15	46589.6
907.09	1711.3358	47382.4	46487.95
907.2313	1713.0527	47246.55	46355.3
907.3725	1714.7688	47062.3	46163.45
907.5138	1716.4841	46756.75	45861.95
907.655	1718.1987	46764.05	45866.15
907.7962	1719.9126	46565.85	45674.9
907.9374	1721.6257	46376.95	45481.55
908.0786	1723.338	46258.85	45366.95
908.2198	1725.0496	45914	45021.95
908.3609	1726.7605	45865.65	44973.2
908.502	1728.4706	45651.45	44757.3
908.6431	1730.18	45369.1	44473.75
908.7842	1731.8886	45365.6	44473.45
908.9253	1733.5964	45242.1	44328.5
909.0664	1735.3036	45080	44183.55
909.2074	1737.0099	44904.75	44010.7
909.3484	1738.7156	44828	43936.3
909.4894	1740.4204	44544.15	43648.35
909.6304	1742.1246	44472.65	43579.95
909.7714	1743.8279	44324.4	43433.2
909.9123	1745.5306	44277.45	43384.15
910.0532	1747.2325	44062.6	43170.5
910.1941	1748.9336	43942.35	43049.2
910.335	1750.634	43722.25	42828.4
910.4759	1752.3336	43609.7	42718.65
910.6168	1754.0325	43518.95	42627.3
910.7576	1755.7307	43423.85	42531.6
910.8984	1757.4281	43348.8	42455.95
911.0392	1759.1247	43219.7	42319.85
911.18	1760.8206	43073.35	42177.8
911.3208	1762.5158	43057	42159.75
911.4615	1764.2102	42846.9	41958.95
911.6022	1765.9039	42634.8	41743.4
911.7429	1767.5968	42570.75	41679.35
911.8836	1769.289	42462.6	41570.45
912.0243	1770.9804	42301.95	41408.1
912.1649	1772.6711	42219.3	41327.05
912.3056	1774.361	42054.6	41161.75
912.4462	1776.0502	42044.5	41150.35
912.5868	1777.7386	41830.6	40935.1
912.7274	1779.4263	41699.75	40806.5
912.8679	1781.1132	41680.3	40788.3
913.0084	1782.7994	41503.5	40611.55
913.149	1784.4849	41411.75	40518.9
913.2895	1786.1696	41185.9	40288.4
913.4299	1787.8535	41125.8	40233.05
913.5704	1789.5367	40985.95	40093.4
913.7108	1791.2192	40892.35	40001.55
913.8513	1792.9009	40678.55	39755.7
913.9917	1794.5818	40639.3	39744.85
914.132	1796.2621	40477.5	39587.75
914.2724	1797.9415	40392.4	39499.6
914.4128	1799.6202	40245.45	39353.15
914.5531	1801.2982	40160.8	39268.5
914.6934	1802.9755	40058	39164.7
914.8337	1804.6519	39952	39059.2
914.9739	1806.3277	39693.15	38802.8
915.1142	1808.0027	39573.8	38681.2
915.2544	1809.6769	39528.25	38635.9
915.3946	1811.3504	39374.25	38481.2
915.5348	1813.0231	39358.35	38462.6
915.675	1814.6951	39273.15	38380.75
915.8151	1816.3664	39243.25	38349.55
915.9553	1818.0369	39099.4	38207.2
916.0954	1819.7067	38939.2	38048.1
916.2355	1821.3757	38847.45	37953.3
916.3755	1823.044	38740.45	37847.1
916.5156	1824.7115	38657.1	37765.05
916.6556	1826.3783	38478.1	37585.35
916.7956	1828.0443	38331.45	37439.55
916.9356	1829.7096	38247.7	37354.6
917.0756	1831.3741	38215.45	37320.55
917.2155	1833.0379	38048.85	37157.7
917.3555	1834.701	37887.75	36990.75
917.4954	1836.3633	37804.1	36909.1
917.6353	1838.0248	37683.55	36788.8
917.7751	1839.6856	37618.85	36726.65
917.915	1841.3457	37548.85	36655.95
918.0548	1843.005	37453.65	36561.55
918.1946	1844.6636	37408.2	36518.05
918.3344	1846.3214	37232.2	36339.5
918.4742	1847.9785	37168.75	36278.2
918.6139	1849.6349	37046.9	36153.3
918.7537	1851.2904	36964.45	36061.5
918.8934	1852.9453	36840.8	35947.9
919.0331	1854.5994	36710.7	35816.3
919.1727	1856.2528	36746.65	35848.85
919.3124	1857.9054	36609.3	35718.6
919.452	1859.5572	36554.1	35662.3
919.5916	1861.2083	36432.05	35539.9
919.7312	1862.8587	36376	35483.2
919.8708	1864.5084	36285.55	35392.9
920.0103	1866.1572	36120.6	35230
920.1498	1867.8054	35956.15	35062.45
920.2893	1869.4528	35908	35017.35
920.4288	1871.0994	35768.05	34876.55
920.5683	1872.7453	35701.7	34807.9
920.7077	1874.3905	35617.2	34718.65
920.8471	1876.0349	35504	34610.35
920.9865	1877.6786	35431.6	34536.7
921.1259	1879.3215	35413.45	34523.6
921.2653	1880.9637	35299	34406.65
921.4046	1882.6051	35193.2	34304.85
921.5439	1884.2458	35104.85	34210.5
921.6832	1885.8858	34998	34105.35
921.8225	1887.525	34862.5	33969.85
921.9617	1889.1634	34720.9	33828.55
922.101	1890.8011	34628.05	33734.35
922.2402	1892.4381	34541.7	33649.3
922.3794	1894.0743	34502.35	33610.85
922.5185	1895.7098	34348.4	33456.8
922.6577	1897.3446	34269.8	33376.95
922.7968	1898.9786	34169	33272.25
922.9359	1900.6118	34084.7	33193.55
923.075	1902.2443	33884.15	32990.4
923.214	1903.8761	33768.2	32876.75
923.3531	1905.5071	33581	32686.1
923.4921	1907.1374	33467.55	32575.6
923.6311	1908.7669	33448.75	32555.85
923.77	1910.3957	33361.45	32466.95
923.909	1912.0237	33145.55	32254.45
924.0479	1913.651	33077.45	32183.35
924.1868	1915.2776	33010.15	32118.55
924.3257	1916.9034	32854.1	31965.25
924.4646	1918.5285	32608	31718.2
924.6034	1920.1528	32521.15	31627.9
924.7422	1921.7764	32481.25	31589.55
924.881	1923.3992	32350.45	31459
925.0198	1925.0213	32157.6	31265.5
925.1586	1926.6427	31971.25	31080.4
925.2973	1928.2633	31975.55	30976.4
925.436	1929.8832	31839.65	30946.7
925.5747	1931.5023	31653.05	30761.8
925.7134	1933.1207	31571.3	30678.9
925.852	1934.7383	31548	30655.55
925.9906	1936.3552	31396.95	30505.25
926.1292	1937.9714	31255.15	30362.65
926.2678	1939.5868	31105	30210.9
926.4064	1941.2015	30914.4	30023.05
926.5449	1942.8154	30828.65	29934.75
926.6834	1944.4286	30706.8	29814.55
926.8219	1946.041	30563.6	29651.35
926.9604	1947.6528	30424.1	29526.35
927.0988	1949.2637	30340.45	29450.6
927.2372	1950.8739	30199.7	29305.9
927.3756	1952.4834	30152.9	29260.85
927.514	1954.0921	30102.3	29208.65
927.6523	1955.7001	30003.65	29108.2
927.7907	1957.3074	29870	28978.2
927.929	1958.9139	29729.05	28838
928.0673	1960.5197	29638.4	28745.2
928.2055	1962.1247	29453.25	28560.5
928.3438	1963.729	29325.65	28434.6
928.482	1965.3325	29213.25	28298.65
928.6202	1966.9353	29148.15	28257.95
928.7584	1968.5374	29005.15	28113.3
928.8965	1970.1387	28922.4	28032.8
929.0346	1971.7393	28810.45	27920.25
929.1727	1973.3392	28685.25	27795.9
929.3108	1974.9383	28568.15	27676.8
929.4489	1976.5366	28446.4	27554.3
929.5869	1978.1342	28460.9	27568.1
929.7249	1979.7311	28361.35	27467.75
929.8629	1981.3273	28256.5	27365.45
930.0009	1982.9227	28175.2	27281.9
930.1388	1984.5173	28046.65	27155.35
930.2767	1986.1112	27914.25	27021.7
930.4146	1987.7044	27804.75	26913.05
930.5525	1989.2968	27710.7	26817.85
930.6904	1990.8885	27655.1	26761.1
930.8282	1992.4795	27596.85	26704.5
930.966	1994.0697	27465.5	26576.05
931.1038	1995.6592	27341.8	26452.8
931.2415	1997.2479	27273.75	26383.05
931.3793	1998.8359	27200.35	26308.95
931.517	2000.4232	27075.55	26185.9
931.6547	2002.0097	26926.85	26039.05
931.7923	2003.5955	26801.5	25910.5
931.93	2005.1805	26788.05	25895.15
932.0676	2006.7648	26734.6	25842.8
932.2052	2008.3484	26652.3	25760.75
932.3427	2009.9312	26656.25	25762.25
932.4803	2011.5133	26473.65	25583.2
932.6178	2013.0946	26398.15	25508.45
932.7553	2014.6752	26309.15	25417.9
932.8928	2016.2551	26211.35	25319.15
933.0302	2017.8342	26090.55	25197.55
933.1676	2019.4126	25995.2	25105.9
933.305	2020.9902	25918.6	25027.75
933.4424	2022.5672	25837.1	24945.15
933.5798	2024.1433	25788.1	24891.75
933.7171	2025.7188	25689.95	24798.3
933.8544	2027.2935	25587.95	24696.45
933.9917	2028.8674	25487.3	24598.1
934.129	2030.4406	25409.7	24519.9
934.2662	2032.0131	25294	24402.7
934.4034	2033.5849	25184.35	24284.3
934.5406	2035.1559	25127.35	24235.25
934.6778	2036.7261	25064.7	24174.45
934.8149	2038.2957	24987.7	24097.5
934.952	2039.8645	24924.1	24033.35
935.0891	2041.4325	24941.75	24047.15
935.2262	2042.9998	24803.75	23913.7
935.3632	2044.5664	24725.8	23832.75
935.5002	2046.1323	24641.3	23748.45
935.6372	2047.6974	24579.85	23687.05
935.7742	2049.2617	24472.8	23582.1
935.9111	2050.8254	24487.4	23577.65
936.048	2052.3883	24431.2	23539.95
936.1849	2053.9504	24312.85	23421.2
936.3218	2055.5118	24207.3	23314.9
936.4586	2057.0725	24056.3	23160.15
936.5955	2058.6325	24052.15	23161.4
936.7323	2060.1917	23916.25	23025.15
936.869	2061.7502	23874.8	22981.35
937.0058	2063.3079	23771.35	22879.2
937.1425	2064.8649	23686.55	22792.75
937.2792	2066.4212	23647.65	22755.4
937.4159	2067.9767	23566.15	22676.7
937.5525	2069.5315	23457.9	22568
937.6891	2071.0856	23365.45	22474.85
937.8257	2072.6389	23255.4	22364
937.9623	2074.1915	23150.35	22260.3
938.0989	2075.7433	23028	22133.9
938.2354	2077.2945	23005.45	22115.15
938.3719	2078.8448	22917.5	22027.75
938.5084	2080.3945	22826.15	21935.6
938.6448	2081.9434	22837	21944.6
938.7812	2083.4916	22740.55	21849.7
938.9176	2085.039	22643.4	21750.05
939.054	2086.5857	22598.65	21708.9
939.1903	2088.1317	22501.95	21610.2
939.3267	2089.677	22439.95	21545.35
939.463	2091.2215	22341.5	21450.4
939.5992	2092.7652	22288	21395.3
939.7355	2094.3083	22245.75	21353.8
939.8717	2095.8506	22190.45	21298.55
940.0079	2097.3921	22148	21257.35
940.1441	2098.933	22042.3	21151.55
940.2802	2100.4731	21995.1	21104.75
940.4163	2102.0124	21979.6	21079.25
940.5524	2103.5511	21901.75	21010.05
940.6885	2105.089	21828.2	20936.15
940.8245	2106.6261	21753.45	20861.5
940.9606	2108.1626	21698.95	20807.15
941.0965	2109.6983	21656.35	20737.9
941.2325	2111.2332	21569.2	20677.75
941.3684	2112.7675	21483.05	20592.15
941.5044	2114.301	21408.75	20515.25
941.6403	2115.8337	21425.1	20533
941.7761	2117.3657	21342.9	20451.4
941.912	2118.897	21295.8	20402.35
942.0478	2120.4276	21198.15	20300.5
942.1835	2121.9575	21101	20208.75
942.3193	2123.4866	21069.7	20161.3
942.455	2125.0149	21007.95	20113.05
942.5907	2126.5426	20897.1	20006.15
942.7264	2128.0695	20848.35	19952.25
942.8621	2129.5956	20788.05	19898.4
942.9977	2131.1211	20771.5	19875.1
943.1333	2132.6458	20686.1	19793.9
943.2689	2134.1698	20656.6	19764.1
943.4044	2135.693	20560.8	19666
943.54	2137.2155	20516.3	19622.4
943.6755	2138.7373	20469.8	19577.55
943.8109	2140.2584	20367.3	19475
943.9464	2141.7787	20315.25	19419.3
944.0818	2143.2983	20154.7	19263.9
944.2172	2144.8171	20086.65	19196.65
944.3526	2146.3353	20053.95	19161.95
944.4879	2147.8527	19957.65	19067.3
944.6232	2149.3693	19911.3	19019.8
944.7585	2150.8853	19829.25	18935.95
944.8938	2152.4005	19762.55	18870.9
945.029	2153.9149	19697.2	18804.7
945.1642	2155.4287	19660.9	18769.45
945.2994	2156.9417	19592.3	18699.25
945.4346	2158.454	19553.8	18657.55
945.5697	2159.9655	19503.4	18611.45
945.7048	2161.4764	19456.65	18566.15
945.8399	2162.9865	19400.25	18508.45
945.9749	2164.4958	19332.5	18439.75
946.1099	2166.0045	19251.05	18356.8
946.2449	2167.5124	19251.15	18359.15
946.3799	2169.0195	19159.95	18269.55
946.5148	2170.526	19119.15	18226.55
946.6498	2172.0317	19034.5	18142.85
946.7846	2173.5367	18964.45	18073.85
946.9195	2175.0409	18918.35	18026.95
947.0543	2176.5445	18926.75	18036.15
947.1891	2178.0473	18799.55	17907.35
947.3239	2179.5494	18737.4	17842
947.4587	2181.0507	18670.45	17778.45
947.5934	2182.5513	18638.6	17747.65
947.7281	2184.0512	18580.45	17689.9
947.8628	2185.5504	18489.7	17596.45
947.9974	2187.0488	18365.75	17475.35
948.132	2188.5465	18333.7	17443.25
948.2666	2190.0435	18282.5	17391.25
948.4012	2191.5397	18195.65	17305.8
948.5357	2193.0353	18152	17260.55
948.6702	2194.5301	18043.7	17148.45
948.8047	2196.0241	18005.35	17113.3
948.9392	2197.5175	17930.6	17038.7
949.0736	2199.0101	17881.6	16987.35
949.208	2200.502	17747.15	16856.3
949.3424	2201.9931	17666.65	16776.35
949.4767	2203.4835	17633.35	16737.55
949.611	2204.9733	17574.55	16677.75
949.7453	2206.4622	17527.45	16635.6
949.8796	2207.9505	17472.35	16579.3
950.0138	2209.438	17371.6	16481.05
950.148	2210.9248	17335.45	16444.1
950.2822	2212.4109	17287.2	16395.65
950.4164	2213.8962	17199.85	16306.95
950.5505	2215.3809	17176.7	16282.8
950.6846	2216.8648	17103.45	16211.1
950.8186	2218.3479	17069.05	16173.9
950.9527	2219.8304	17003.25	16107.95
951.0867	2221.3121	16942	16048.6
951.2207	2222.7931	16857.9	15967.2
951.3546	2224.2733	16769.35	15877.75
951.4886	2225.7529	16746.75	15854
951.6225	2227.2317	16658.65	15763.75
951.7563	2228.7098	16623.55	15730.15
951.8902	2230.1872	16578.5	15687.2
952.024	2231.6638	16559.85	15667.4
952.1578	2233.1397	16494.5	15596.65
952.2916	2234.6149	16414.9	15521.25
952.4253	2236.0894	16358.7	15466.35
952.559	2237.5632	16316.6	15415.7
952.6927	2239.0362	16235.4	15341.95
952.8263	2240.5085	16183.6	15290.75
952.9599	2241.9801	16093.35	15200.25
953.0935	2243.4509	16093.35	15202.1
953.2271	2244.921	16001.05	15110.3
953.3606	2246.3904	15936.15	15043.45
953.4941	2247.8591	15911.6	15020.35
953.6276	2249.3271	15840.2	14949.2
953.7611	2250.7943	15785.95	14892.65
953.8945	2252.2608	15726.15	14835.8
954.0279	2253.7266	15674.25	14781.2
954.1612	2255.1917	15657.55	14766.9
954.2946	2256.656	15564.6	14671.75
954.4279	2258.1197	15518.3	14624.65
954.5612	2259.5826	15453.2	14559.7
954.6944	2261.0447	15428.4	14534.65
954.8276	2262.5062	15347.3	14453.35
954.9608	2263.9669	15332.35	14438.75
955.094	2265.4269	15286.55	14394.8
955.2271	2266.8862	15214.55	14322.25
955.3602	2268.3448	15188.15	14293.15
955.4933	2269.8026	15161.3	14266.95
955.6264	2271.2598	15090.05	14199.2
955.7594	2272.7162	15053.7	14161.05
955.8924	2274.1719	15004.35	14112.75
956.0253	2275.6268	14951.55	14059.4
956.1583	2277.0811	14933	14040.15
956.2912	2278.5346	14878.25	13985.7
956.4241	2279.9874	14834.15	13941.85
956.5569	2281.4395	14823.75	13933.5
956.6897	2282.8908	14741.6	13845.55
956.8225	2284.3414	14695.7	13801.55
956.9553	2285.7914	14645	13754.5
957.088	2287.2406	14567.85	13672.5
957.2207	2288.689	14527.95	13636.9
957.3534	2290.1368	14498	13605.5
957.486	2291.5838	14474.95	13579.95
957.6186	2293.0302	14410.8	13518.75
957.7512	2294.4758	14328.35	13435.5
957.8838	2295.9206	14292.1	13399.05
958.0163	2297.3648	14235	13342.7
958.1488	2298.8082	14215.2	13321.05
958.2813	2300.251	14176.2	13285.3
958.4137	2301.693	14129.3	13234.6
958.5461	2303.1343	14134.85	13242.05
958.6785	2304.5748	14052.85	13161.7
958.8108	2306.0147	14016.25	13123.7
958.9432	2307.4538	13923.15	13030.15
959.0754	2308.8922	13929.9	13040.1
959.2077	2310.3299	13856.6	12963.15
959.3399	2311.7669	13813.75	12921.1
959.4721	2313.2031	13783.15	12890.05
959.6043	2314.6387	13687.25	12796.1
959.7365	2316.0735	13633.35	12741.3
959.8686	2317.5076	13620.7	12727.9
960.0006	2318.941	13595.4	12703.75
960.1327	2320.3737	13545.8	12653.3
960.2647	2321.8056	13468.25	12573.7
960.3967	2323.2369	13444.35	12550.3
960.5287	2324.6674	13405.95	12511.15
960.6606	2326.0972	13362.05	12467.75
960.7925	2327.5263	13291.5	12401.3
960.9244	2328.9547	13266.45	12373.95
961.0562	2330.3823	13218.65	12326.8
961.1881	2331.8092	13210.15	12313.2
961.3198	2333.2355	13151.15	12259.6
961.4516	2334.661	13099.95	12207.4
961.5833	2336.0858	13072.95	12180.75
961.715	2337.5098	13038.5	12147.55
961.8467	2338.9332	13008.8	12115.1
961.9783	2340.3558	12978.5	12084.1
962.1099	2341.7778	12929.8	12037.25
962.2415	2343.199	12856.5	11962.3
962.373	2344.6195	12830.8	11939.25
962.5045	2346.0393	12792.75	11901.85
962.636	2347.4583	12779.8	11887.9
962.7675	2348.8767	12695.9	11803.5
962.8989	2350.2943	12670.45	11779.5
963.0303	2351.7113	12647.3	11753.75
963.1617	2353.1275	12627.65	11733.2
963.293	2354.543	12589.9	11671.55
963.4243	2355.9578	12521.3	11628.2
963.5556	2357.3718	12403.95	11510.05
963.6868	2358.7852	12394.35	11500.95
963.818	2360.1978	12351.4	11458.5
963.9492	2361.6098	12326.7	11436.2
964.0803	2363.021	12267.45	11371.55
964.2114	2364.4315	12186.05	11294.65
964.3425	2365.8413	12149.2	11255.45
964.4736	2367.2504	12112.45	11222.7
964.6046	2368.6587	12063.8	11173.5
964.7356	2370.0664	12002.1	11110.1
964.8666	2371.4733	11957.95	11065.55
964.9975	2372.8795	11938.95	11047.55
965.1284	2374.285	11889.25	10997.3
965.2593	2375.6899	11837.2	10947.8
965.3901	2377.0939	11765.2	10873.2
965.5209	2378.4973	11714.1	10822.15
965.6517	2379.9	11692.2	10800.05
965.7825	2381.3019	11642.4	10751.3
965.9132	2382.7032	11599.65	10708.85
966.0439	2384.1037	11573.15	10683.45
966.1745	2385.5035	11549.55	10659.2
966.3051	2386.9027	11499.3	10610.6
966.4357	2388.3011	11457.7	10562.55
966.5663	2389.6987	11416.1	10523.25
966.6968	2391.0957	11355.95	10464.8
966.8273	2392.492	11318.65	10427.6
966.9578	2393.8876	11237.15	10346.25
967.0882	2395.2824	11217.4	10327.4
967.2186	2396.6765	11154.15	10263.7
967.349	2398.07	11127.45	10238.05
967.4793	2399.4627	11100.9	10209.9
967.6097	2400.8547	11074.4	10182.8
967.7399	2402.246	11006.8	10109.5
967.8702	2403.6366	10961.95	10069.9
968.0004	2405.0265	10909.05	10018.3
968.1306	2406.4156	10862.9	9969.55
968.2607	2407.8041	10845.15	9950.75
968.3909	2409.1918	10791	9898.25
968.521	2410.5789	10742.5	9851.05
968.651	2411.9652	10702.25	9808.2
968.781	2413.3508	10669.35	9777.4
968.911	2414.7358	10616.1	9724.05
969.041	2416.12	10590.8	9699.55
969.1709	2417.5035	10560.25	9669.6
969.3008	2418.8863	10507.4	9615.2
969.4307	2420.2684	10463.55	9573.65
969.5606	2421.6497	10428.45	9537.05
969.6904	2423.0304	10375.15	9486.3
969.8201	2424.4104	10359.7	9466.55
969.9499	2425.7896	10340.15	9444.65
970.0796	2427.1682	10308.1	9415.5
970.2093	2428.546	10270	9377.75
970.3389	2429.9232	10241.75	9348.95
970.4685	2431.2996	10210.7	9318.7
970.5981	2432.6753	10175.95	9284.65
970.7277	2434.0503	10152.3	9260.9
970.8572	2435.4246	10084.65	9193.1
970.9867	2436.7982	10049.9	9158.5
971.1161	2438.1711	10021.15	9130.75
971.2456	2439.5433	9994.8	9102.55
971.375	2440.9148	9959.7	9068.2
971.5043	2442.2856	9894.85	9002.1
971.6336	2443.6557	9891.05	8999.1
971.7629	2445.025	9847.65	8956.25
971.8922	2446.3937	9814	8921.25
972.0214	2447.7617	9775.1	8881.85
972.1506	2449.1289	9773.05	8883.4
972.2798	2450.4955	9708.55	8813.75
972.4089	2451.8613	9681.2	8790.45
972.538	2453.2265	9675.75	8785.35
972.6671	2454.5909	9629.35	8736.5
972.7961	2455.9546	9622.4	8730.5
972.9251	2457.3177	9562.65	8671.5
973.0541	2458.68	9541.35	8648.2
973.1831	2460.0416	9522	8629.65
973.312	2461.4025	9517.85	8625.1
973.4408	2462.7627	9507.8	8603.65
973.5697	2464.1222	9464.85	8573.75
973.6985	2465.4811	9444.35	8551.75
973.8273	2466.8392	9399.5	8509.9
973.956	2468.1966	9359	8467
974.0847	2469.5533	9376.25	8482.5
974.2134	2470.9093	9345.5	8452.6
974.3421	2472.2645	9306.7	8413.4
974.4707	2473.6191	9266.55	8374.5
974.5993	2474.973	9214.05	8322.1
974.7278	2476.3262	9194.45	8303.15
974.8563	2477.6787	9148.8	8257.35
974.9848	2479.0305	9127	8235.9
975.1132	2480.3816	9072.3	8177.05
975.2417	2481.7319	9050.55	8159.95
975.37	2483.0816	9011.2	8117.65
975.4984	2484.4306	8961	8071.05
975.6267	2485.7789	8946.3	8055.4
975.755	2487.1264	8902.6	8008.9
975.8833	2488.4733	8850.4	7960.6
976.0115	2489.8195	8836.6	7938.75
976.1397	2491.165	8799.15	7903.25
976.2678	2492.5097	8762.3	7868.4
976.3959	2493.8538	8737	7846.25
976.524	2495.1972	8696.45	7804.3
976.6521	2496.5398	8660.9	7768.55
976.7801	2497.8818	8642.75	7749.7
976.9081	2499.2231	8614.5	7722.95
977.036	2500.5637	8563.25	7669.05
977.164	2501.9035	8540.65	7648.65
977.2918	2503.2427	8537.05	7642.9
977.4197	2504.5812	8508.05	7616.5
977.5475	2505.919	8486.05	7593.15
977.6753	2507.256	8454.5	7562.7
977.8031	2508.5924	8413.1	7521.1
977.9308	2509.9281	8376.35	7477.9
978.0585	2511.2631	8363.1	7471.55
978.1861	2512.5974	8326.7	7437
978.3137	2513.9309	8312.85	7419.85
978.4413	2515.2638	8296.35	7370.55
978.5689	2516.596	8245.6	7354.75
978.6964	2517.9275	8204.7	7311.1
978.8239	2519.2583	8168.3	7274
978.9513	2520.5884	8133.35	7240.35
979.0788	2521.9178	8112.75	7221.3
979.2062	2523.2465	8086.55	7194.9
979.3335	2524.5745	8046.55	7156.55
979.4608	2525.9018	8028.2	7137.4
979.5881	2527.2284	8003.7	7113.05
979.7154	2528.5543	7974.15	7083.55
979.8426	2529.8796	7958.6	7067.5
979.9698	2531.2041	7950.2	7057.4
980.0969	2532.5279	7927.8	7037.6
980.224	2533.851	7913.2	7023
980.3511	2535.1735	7857.45	6966.95
980.4781	2536.4952	7860.95	6968.15
980.6052	2537.8163	7830.9	6938.75
980.7321	2539.1366	7799.05	6908.45
980.8591	2540.4562	7779.95	6887.5
980.986	2541.7752	7756.45	6865.8
981.1129	2543.0935	7768.5	6877.25
981.2397	2544.411	7738.1	6844.2
981.3665	2545.7279	7704.25	6811.75
981.4933	2547.0441	7712.7	6822.15
981.62	2548.3596	7689.35	6792.05
981.7467	2549.6744	7659.85	6766.5
981.8734	2550.9885	7651.8	6758.95
982.0001	2552.3019	7594.55	6704.35
982.1267	2553.6146	7590.35	6699.8
982.2532	2554.9266	7555.2	6659.7
982.3798	2556.2379	7542.05	6648.9
982.5063	2557.5485	7540.35	6648.4
982.6327	2558.8585	7505.55	6606.95
982.7592	2560.1677	7503.35	6606
982.8856	2561.4762	7464.1	6572.7
983.0119	2562.7841	7454.85	6560.6
983.1383	2564.0913	7436.65	6547.45
983.2646	2565.3977	7423	6531.55
983.3908	2566.7035	7372.85	6480.55
983.517	2568.0086	7373.55	6480.4
983.6432	2569.313	7378.6	6488.1
983.7694	2570.6167	7361.05	6468.5
983.8955	2571.9197	7323.2	6432.55
984.0216	2573.222	7302.55	6409.7
984.1476	2574.5236	7297.75	6407.3
984.2737	2575.8246	7267.25	6372
984.3996	2577.1248	7244	6348.95
984.5256	2578.4244	7239.35	6347
984.6515	2579.7232	7221.9	6330.1
984.7774	2581.0214	7250.3	6334.55
984.9032	2582.3189	7196.95	6305.3
985.029	2583.6157	7188.25	6292.1
985.1548	2584.9118	7172	6279.65
985.2806	2586.2072	7149.2	6257.9
985.4063	2587.5019	7102.55	6211.1
985.5319	2588.7959	7100.3	6209.25
985.6576	2590.0893	7097.2	6203.35
985.7832	2591.3819	7082.35	6192.15
985.9087	2592.6739	7043.45	6149.45
986.0343	2593.9652	7014.9	6121.4
986.1597	2595.2557	7002.75	6111.5
986.2852	2596.5456	6974.75	6080.8
986.4106	2597.8348	6961.75	6070.15
986.536	2599.1234	6918.75	6026.95
986.6614	2600.4112	6894.4	6003.55
986.7867	2601.6983	6899.45	6004.1
986.912	2602.9848	6883.9	5993.25
987.0372	2604.2705	6846.5	5949
987.1624	2605.5556	6832.2	5939.75
987.2876	2606.84	6800.7	5909.5
987.4128	2608.1237	6784.85	5891.5
987.5379	2609.4067	6758.1	5866.6
987.6629	2610.689	6745.35	5845.7
987.788	2611.9707	6703.4	5809.2
987.913	2613.2516	6688.9	5793.4
988.0379	2614.5319	6646.55	5756.85
988.1629	2615.8115	6626.05	5734.6
988.2878	2617.0903	6600.2	5707.85
988.4126	2618.3685	6572.8	5678.7
988.5375	2619.6461	6565.4	5674.05
988.6622	2620.9229	6525.4	5633.25
988.787	2622.199	6516.15	5623.95
988.9117	2623.4745	6496.8	5604.1
989.0364	2624.7493	6476.35	5584.6
989.161	2626.0234	6456.45	5564.95
989.2857	2627.2968	6441.45	5549.5
989.4102	2628.5695	6389.05	5495.65
989.5348	2629.8415	6345.95	5454.5
989.6593	2631.1128	6340.1	5446.85
989.7837	2632.3835	6321.65	5430.45
989.9082	2633.6535	6290.3	5398.35
990.0326	2634.9228	6275.75	5384.9
990.1569	2636.1914	6284.8	5392.1
990.2812	2637.4593	6237.55	5338.8
990.4055	2638.7265	6205.85	5312.3
990.5298	2639.9931	6212.7	5320.4
990.654	2641.259	6182.05	5289.45
990.7782	2642.5242	6188.75	5297.8
990.9023	2643.7887	6174.9	5283.35
991.0264	2645.0525	6154.15	5263.35
991.1505	2646.3156	6105.6	5213.65
991.2745	2647.5781	6095.95	5203.85
991.3985	2648.8398	6070.55	5179.6
991.5225	2650.1009	6053.4	5151.2
991.6464	2651.3613	6019.65	5126.4
991.7703	2652.6211	6034.05	5142.55
991.8942	2653.8801	5998.9	5109.1
992.018	2655.1385	5978.8	5084
992.1418	2656.3961	5962.35	5069.75
992.2655	2657.6531	5956.2	5064.95
992.3892	2658.9094	5943.8	5050.45
992.5129	2660.1651	5923	5031.7
992.6366	2661.42	5922.9	5031.05
992.7602	2662.6743	5887.65	4994.9
992.8837	2663.9279	5903.5	5012
993.0073	2665.1808	5876.7	4984.75
993.1307	2666.433	5836.1	4941.75
993.2542	2667.6846	5822.95	4930.3
993.3776	2668.9354	5829.95	4935.6
993.501	2670.1856	5807.85	4914.45
993.6244	2671.4351	5797.15	4905.45
993.7477	2672.6839	5784.65	4892.1
993.8709	2673.9321	5757.95	4868.25
993.9942	2675.1795	5761.6	4870.1
994.1174	2676.4263	5731.45	4837.9
994.2405	2677.6724	5710.1	4819.1
994.3637	2678.9179	5694.75	4802.5
994.4868	2680.1626	5678.5	4787.65
994.6098	2681.4067	5676.3	4784.95
994.7328	2682.6501	5647.85	4753.15
994.8558	2683.8928	5628.45	4736.7
994.9788	2685.1348	5603.8	4712.6
995.1017	2686.3761	5571.4	4681.3
995.2245	2687.6168	5555.8	4663.95
995.3474	2688.8568	5551.3	4659.75
995.4702	2690.0961	5548.95	4658.05
995.5929	2691.3348	5507.15	4614.05
995.7156	2692.5727	5478.95	4585.65
995.8383	2693.81	5475.6	4584.3
995.961	2695.0466	5454.9	4563.6
996.0836	2696.2826	5453.35	4561.4
996.2062	2697.5178	5433.1	4537.4
996.3287	2698.7524	5421.35	4530
996.4512	2699.9863	5405.25	4513.55
996.5737	2701.2195	5380.1	4489.95
996.6961	2702.452	5374.1	4481.6
996.8185	2703.6839	5340.1	4447.5
996.9408	2704.9151	5330.4	4438.25
997.0631	2706.1456	5338.45	4447.45
997.1854	2707.3755	5314.5	4421.9
997.3077	2708.6046	5304.2	4410
997.4299	2709.8331	5298.9	4406.45
997.552	2711.0609	5284.25	4393.5
997.6742	2712.2881	5273.5	4381.25
997.7963	2713.5145	5263.9	4368.9
997.9183	2714.7403	5263.7	4373.8
998.0403	2715.9654	5241.4	4349.4
998.1623	2717.1899	5255.85	4350
998.2842	2718.4136	5244.65	4352.05
998.4062	2719.6367	5247.25	4355.8
998.528	2720.8591	5239.65	4341.5
998.6498	2722.0809	5218.1	4326.55
998.7716	2723.3019	5223.2	4328.05
998.8934	2724.5223	5203.95	4311
999.0151	2725.7421	5190.35	4296.5
999.1368	2726.9611	5175.4	4282.6
999.2584	2728.1795	5150.4	4254.4
999.38	2729.3972	5123.85	4231.45
999.5016	2730.6142	5117.7	4221
999.6231	2731.8306	5078.65	4185.6
999.7446	2733.0462	5043.25	4151.4
999.8661	2734.2612	5025.35	4127.15
999.9875	2735.4756	4978.5	4085.65
1000.1089	2736.6892	4955.1	4063.25
1000.2302	2737.9022	4911.35	4020.2
1000.3515	2739.1145	4903	4011.35
1000.4728	2740.3262	4894.2	3995.45
1000.594	2741.5372	4851.1	3958.9
1000.7152	2742.7475	4810.5	3918.15
1000.8363	2743.9571	4792.95	3899.4
1000.9575	2745.1661	4779.75	3883.35
1001.0785	2746.3744	4755.35	3862.05
1001.1996	2747.582	4733.5	3842.1
1001.3206	2748.7889	4700.9	3806.35
1001.4415	2749.9952	4697.35	3805.75
1001.5625	2751.2008	4671.55	3777.05
1001.6833	2752.4057	4665.8	3771.4
1001.8042	2753.61	4634.4	3741.75
1001.925	2754.8136	4629.75	3734.75
1002.0458	2756.0165	4623.75	3733.85
1002.1665	2757.2188	4609.55	3718.55
1002.2872	2758.4204	4583.95	3692.65
1002.4078	2759.6213	4574.85	3679.8
1002.5285	2760.8215	4570.15	3674.8
1002.649	2762.0211	4541	3646.85
1002.7696	2763.22	4531.9	3636.6
1002.8901	2764.4182	4529.6	3635.9
1003.0106	2765.6158	4508.5	3616.4
1003.131	2766.8127	4487.05	3595.45
1003.2514	2768.009	4463.7	3573
1003.3717	2769.2045	4449.4	3554.6
1003.492	2770.3994	4450.8	3556.25
1003.6123	2771.5936	4430.35	3537.7
1003.7325	2772.7872	4402.95	3512.75
1003.8527	2773.9801	4413.05	3520.35
1003.9729	2775.1723	4399.75	3491.25
1004.093	2776.3639	4374.65	3481.75
1004.2131	2777.5548	4362.2	3469.4
1004.3331	2778.745	4342.6	3447.8
1004.4531	2779.9346	4337.45	3445.65
1004.5731	2781.1235	4323.2	3430.55
1004.693	2782.3117	4316.25	3426
1004.8129	2783.4992	4315.5	3424.7
1004.9328	2784.6861	4305.45	3414.65
1005.0526	2785.8723	4307.35	3415.3
1005.1723	2787.0579	4295.4	3402.5
1005.2921	2788.2428	4283.4	3393.6
1005.4118	2789.427	4280.45	3388.45
1005.5314	2790.6106	4277.55	3387.45
1005.651	2791.7935	4277.15	3383.65
1005.7706	2792.9757	4263.15	3371.75
1005.8902	2794.1573	4246.45	3352.85
1006.0097	2795.3382	4264.35	3374.75
1006.1291	2796.5184	4263.45	3373.7
1006.2485	2797.698	4257.65	3364.85
1006.3679	2798.8769	4269.65	3377.95
1006.4873	2800.0551	4282.95	3390.7
1006.6066	2801.2327	4267.95	3372.55
1006.7258	2802.4096	4290.1	3399.35
1006.8451	2803.5859	4293.1	3400.7
1006.9642	2804.7615	4281.3	3389.4
1007.0834	2805.9364	4308.2	3416.75
1007.2025	2807.1106	4321.5	3431.25
1007.3216	2808.2842	4333.9	3440.6
1007.4406	2809.4572	4381.65	3489.9
1007.5596	2810.6294	4394.3	3501.7
1007.6785	2811.801	4438.2	3547.25
1007.7975	2812.972	4457.75	3567.15
1007.9163	2814.1423	4463.95	3571.85
1008.0352	2815.3119	4519.8	3627.3
1008.154	2816.4808	4556.8	3666.95
1008.2727	2817.6491	4600.65	3707.1
1008.3914	2818.8167	4630.1	3739.75
1008.5101	2819.9837	4659.05	3761.4
1008.6288	2821.15	4698.15	3805
1008.7474	2822.3157	4734.35	3843.85
1008.8659	2823.4807	4782.55	3890.45
1008.9844	2824.645	4819.85	3927.9
1009.1029	2825.8086	4850.8	3960.25
1009.2214	2826.9716	4870.7	3979.5
1009.3398	2828.134	4920.3	4029.55
1009.4581	2829.2957	4954.55	4063.05
1009.5764	2830.4567	4974.05	4083.8
1009.6947	2831.617	4966.3	4072.15
1009.813	2832.7767	4971.3	4083
1009.9312	2833.9358	4956.05	4065.6
1010.0493	2835.0941	4949	4056.9
1010.1675	2836.2519	4918.95	4027.55
1010.2855	2837.4089	4907.55	4015.85
1010.4036	2838.5653	4900.65	4008.1
1010.5216	2839.7211	4897.2	4006.7
1010.6396	2840.8761	4895.05	4003.05
1010.7575	2842.0306	4918.15	4027.9
1010.8754	2843.1843	4933.6	4041.4
1010.9932	2844.3374	4994.05	4103.3
1011.111	2845.4899	5029.65	4136.3
1011.2288	2846.6417	5097.75	4208.5
1011.3465	2847.7928	5163.3	4271.6
1011.4642	2848.9433	5230.05	4339.3
1011.5818	2850.0931	5302.6	4412.3
1011.6995	2851.2422	5373.8	4479.95
1011.817	2852.3907	5436.35	4545.05
1011.9345	2853.5385	5509.45	4616.5
1012.052	2854.6857	5574.8	4655.3
1012.1695	2855.8323	5580.9	4690.1
1012.2869	2856.9781	5624.6	4733.7
1012.4042	2858.1233	5657.6	4767.05
1012.5216	2859.2679	5705.3	4812.65
1012.6389	2860.4118	5747.6	4856.1
1012.7561	2861.555	5776.95	4880.1
1012.8733	2862.6976	5804.4	4910.8
1012.9905	2863.8395	5837.05	4945.75
1013.1076	2864.9808	5837.5	4946.15
1013.2247	2866.1214	5821.1	4929.95
1013.3417	2867.2614	5835.8	4942.45
1013.4587	2868.4007	5855.95	4962.3
1013.5757	2869.5393	5864.35	4969.5
1013.6926	2870.6773	5860.9	4967.1
1013.8095	2871.8146	5846.8	4954.3
1013.9263	2872.9513	5872.6	4980.7
1014.0431	2874.0874	5823.8	4933.2
1014.1599	2875.2227	5800.75	4908.65
1014.2766	2876.3574	5777.2	4885.7
1014.3933	2877.4915	5757.95	4868.25
1014.51	2878.6249	5713.15	4822.3
1014.6266	2879.7577	5671.4	4777.5
1014.7431	2880.8898	5681.7	4780.2
1014.8596	2882.0212	5613.15	4722.6
1014.9761	2883.152	5620.15	4727.2
1015.0925	2884.2821	5602.5	4711.65
1015.2089	2885.4116	5572.05	4682.8
1015.3253	2886.5405	5563.05	4672.8
1015.4416	2887.6686	5561	4666.55
1015.5579	2888.7962	5565.55	4673.8
1015.6741	2889.923	5550.4	4660.2
1015.7903	2891.0493	5549.7	4656.95
1015.9065	2892.1748	5550.55	4659.75
1016.0226	2893.2997	5565.45	4672.75
1016.1387	2894.424	5562.55	4669.9
1016.2547	2895.5476	5568.2	4678.15
1016.3707	2896.6706	5579.7	4691
1016.4866	2897.7929	5607.35	4716.3
1016.6025	2898.9145	5626.25	4735.6
1016.7184	2900.0355	5650.55	4757.1
1016.8342	2901.1559	5664.35	4773.25
1016.95	2902.2756	5690.55	4798.55
1017.0658	2903.3946	5700.25	4808.75
1017.1815	2904.513	5740.3	4846.55
1017.2971	2905.6308	5753.3	4861.9
1017.4127	2906.7479	5771.2	4878.1
1017.5283	2907.8643	5782.55	4892.05
1017.6439	2908.9801	5783.95	4892.45
1017.7594	2910.0953	5779.5	4888.75
1017.8748	2911.2098	5793.45	4898.8
1017.9902	2912.3236	5769.5	4871.65
1018.1056	2913.4368	5748.15	4855.05
1018.2209	2914.5494	5718.85	4827.6
1018.3362	2915.6613	5691.5	4794.7
1018.4515	2916.7725	5660.7	4766.2
1018.5667	2917.8831	5625.85	4733.65
1018.6819	2918.9931	5575.45	4681
1018.797	2920.1024	5546.9	4654.4
1018.9121	2921.211	5513.4	4620.95
1019.0271	2922.319	5499.05	4608.6
1019.1421	2923.4264	5489.65	4598.8
1019.2571	2924.5331	5446.65	4556.95
1019.372	2925.6391	5434.75	4542.35
1019.4869	2926.7445	5425.9	4537.05
1019.6017	2927.8493	5398.35	4506.95
1019.7165	2928.9534	5374.65	4483.3
1019.8313	2930.0569	5367.15	4472.15
1019.946	2931.1597	5343.9	4449.85
1020.0606	2932.2619	5328.25	4437.5
1020.1753	2933.3634	5309.05	4418.75
1020.2899	2934.4643	5314.95	4416.2
1020.4044	2935.5645	5273.7	4375.9
1020.5189	2936.6641	5219.4	4324.15
1020.6334	2937.763	5180.15	4290.8
1020.7478	2938.8613	5141.65	4250.45
1020.8622	2939.959	5068.95	4173.4
1020.9765	2941.056	4967.35	4076.4
1021.0908	2942.1523	4878.85	3985.75
1021.2051	2943.248	4795.35	3901.2
1021.3193	2944.3431	4678.15	3786.85
1021.4334	2945.4375	4568.15	3676.6
1021.5476	2946.5313	4479.1	3589.6
1021.6617	2947.6244	4363.4	3473.3
1021.7757	2948.7169	4247.45	3356.05
1021.8897	2949.8087	4136.8	3244.2
1022.0037	2950.8999	4034.8	3143.25
1022.1176	2951.9904	3962.95	3071
1022.2315	2953.0803	3879.05	2987.25
1022.3453	2954.1696	3800.2	2909.55
1022.4591	2955.2582	3743.05	2851.95
1022.5728	2956.3462	3693.8	2802.7
1022.6865	2957.4335	3648	2755
1022.8002	2958.5202	3589.1	2694.6
1022.9138	2959.6062	3562.2	2673.6
1023.0274	2960.6916	3531.6	2642.1
1023.141	2961.7764	3512.85	2620.4
1023.2545	2962.8605	3478.3	2586.9
1023.3679	2963.9439	3457.1	2565
1023.4813	2965.0267	3444.1	2551.55
1023.5947	2966.1089	3454.5	2541.3
1023.708	2967.1905	3420.55	2527.65
1023.8213	2968.2714	3412.35	2523.55
1023.9346	2969.3516	3386.65	2495.25
1024.0478	2970.4312	3393.85	2495.85
1024.1609	2971.5102	3398.85	2507.15
1024.274	2972.5885	3388.5	2496.55
1024.3871	2973.6662	3382.15	2485.25
1024.5002	2974.7432	3368.55	2476.6
1024.6132	2975.8196	3357.15	2467.3
1024.7261	2976.8954	3326.2	2436.05
1024.839	2977.9705	3327.15	2437.55
1024.9519	2979.045	3303.7	2412.3
1025.0647	2980.1188	3277.9	2387.35
1025.1775	2981.192	3249.4	2359.6
1025.2902	2982.2645	3222.6	2332.6
1025.4029	2983.3364	3194.55	2302.75
1025.5156	2984.4077	3148.55	2258.15
1025.6282	2985.4783	3134.3	2238.65
1025.7407	2986.5483	3092.35	2200.2
1025.8532	2987.6177	3044.75	2155.05
1025.9657	2988.6864	3014.3	2124
1026.0782	2989.7545	2965.6	2073.75
1026.1906	2990.8219	2933.4	2043.25
1026.3029	2991.8887	2909.15	2016.25
1026.4152	2992.9548	2848.35	1956.75
1026.5275	2994.0204	2825.45	1937
1026.6397	2995.0852	2785.7	1895.3
1026.7519	2996.1495	2761.75	1870.15
1026.864	2997.2131	2727.3	1836.5
1026.9761	2998.276	2691.35	1801.85
1027.0882	2999.3383	2673.25	1780.85
1027.2002	3000.4	2662	1770.7
1027.3122	3001.4611	2630.9	1738.7
1027.4241	3002.5215	2608.15	1717.15
1027.536	3003.5812	2601.55	1711
1027.6478	3004.6404	2578.5	1687.75
1027.7596	3005.6989	2574.75	1681.1
1027.8714	3006.7567	2552.35	1661.65
1027.9831	3007.8139	2561.75	1646.2
1028.0947	3008.8705	2535.7	1644.9
1028.2064	3009.9264	2519.65	1624.45
1028.3179	3010.9818	2516	1624.45
1028.4295	3012.0364	2512.65	1621.45
1028.541	3013.0905	2492.75	1602
1028.6524	3014.1439	2496.5	1606.25
1028.7638	3015.1966	2487	1596.8
1028.8752	3016.2487	2473.35	1584.55
1028.9865	3017.3002	2468.05	1570.5
1029.0978	3018.3511	2470.9	1580.55
1029.209	3019.4013	2458.75	1565.85
1029.3202	3020.4509	2451.95	1562.2
1029.4314	3021.4998	2458.35	1565.9
1029.5425	3022.5481	2455.9	1567.6
1029.6535	3023.5958	2447.9	1557.6
1029.7645	3024.6428	2437.8	1545.55
1029.8755	3025.6892	2438.1	1550.4
1029.9864	3026.735	2443.25	1553.6
1030.0973	3027.7802	2436.65	1545.8
1030.2082	3028.8247	2426.2	1535.05
1030.319	3029.8685	2416.95	1527.35
1030.4297	3030.9118	2431	1540.05
1030.5404	3031.9544	2423.8	1532.75
1030.6511	3032.9963	2418.8	1527.05
1030.7617	3034.0376	2426.7	1536.45
1030.8723	3035.0783	2426.45	1533.95
1030.9829	3036.1184	2435.45	1544.25
1031.0934	3037.1578	2427.4	1535.35
1031.2038	3038.1966	2426.75	1533.35
1031.3142	3039.2348	2418.85	1528.55
1031.4246	3040.2723	2429.9	1530.4
1031.5349	3041.3092	2414.35	1524.05
1031.6452	3042.3455	2402.2	1510.75
1031.7554	3043.3811	2393	1501.1
1031.8656	3044.4161	2376.8	1485.8
1031.9758	3045.4505	2375.3	1486.7
1032.0859	3046.4842	2373.1	1482.95
1032.1959	3047.5173	2352.55	1461.45
1032.3059	3048.5498	2339.1	1446.25
1032.4159	3049.5816	2331.25	1438.85
1032.5258	3050.6128	2320.8	1428.25
1032.6357	3051.6434	2301.7	1410.5
1032.7455	3052.6734	2302.2	1410.1
1032.8553	3053.7027	2294.9	1404.4
1032.9651	3054.7314	2269.65	1380.15
1033.0748	3055.7594	2264.3	1374.95
1033.1845	3056.7868	2265.45	1375.1
1033.2941	3057.8136	2252.65	1361.85
1033.4037	3058.8398	2236.05	1345.45
1033.5132	3059.8653	2238	1347.95
1033.6227	3060.8902	2226.55	1338.9
1033.7321	3061.9145	2210.65	1320.1
1033.8415	3062.9381	2203.7	1313.55
1033.9509	3063.9612	2202.55	1296.75
1034.0602	3064.9835	2184.85	1293.95
1034.1694	3066.0053	2162.85	1271.15
1034.2787	3067.0264	2166.75	1275.85
1034.3878	3068.0469	2152.25	1260.7
1034.497	3069.0668	2143.85	1249.3
1034.6061	3070.086	2130	1240.65
1034.7151	3071.1046	2121.1	1230.25
1034.8241	3072.1226	2112.25	1221.45
1034.9331	3073.1399	2086.45	1195.15
1035.042	3074.1567	2076.25	1184.9
1035.1508	3075.1727	2064.05	1170.2
1035.2597	3076.1882	2049.6	1158.85
1035.3684	3077.203	2049	1157.2
1035.4772	3078.2173	2037.35	1145
1035.5859	3079.2308	2016.1	1123.95
1035.6945	3080.2438	2006.55	1113.25
1035.8031	3081.2561	1995.8	1105.95
1035.9117	3082.2678	1987.1	1097.25
1036.0202	3083.2789	1972.6	1081.1
1036.1286	3084.2893	1968.3	1080.05
1036.2371	3085.2991	1957.05	1063.85
1036.3454	3086.3083	1957.55	1061.4
1036.4538	3087.3169	1935.85	1042.45
1036.562	3088.3248	1931.5	1039.25
1036.6703	3089.3321	1917.4	1025.9
1036.7785	3090.3388	1913.45	1023.25
1036.8866	3091.3449	1905.3	1016.25
1036.9948	3092.3503	1902.75	1009.85
1037.1028	3093.3551	1890.1	1000.1
1037.2108	3094.3593	1891.2	1002.05
1037.3188	3095.3629	1867.5	978.2
1037.4267	3096.3658	1874.65	983.45
1037.5346	3097.3681	1857	966.7
1037.6425	3098.3698	1859.55	967.9
1037.7503	3099.3708	1858.8	962.45
1037.858	3100.3713	1841.1	951.1
1037.9657	3101.3711	1839.85	949.85
1038.0734	3102.3702	1934.2	929.25
1038.181	3103.3688	1840.7	947.75
1038.2886	3104.3667	1820.3	929.65
1038.3961	3105.364	1815.05	924.85
1038.5036	3106.3607	1806.55	914.35
1038.611	3107.3568	1802.3	913.55
1038.7184	3108.3522	1788.5	899.1
1038.8257	3109.347	1786	895.4
1038.933	3110.3412	1785.95	892.1
1039.0403	3111.3348	1783.7	893.6
1039.1475	3112.3277	1768.85	879.5
1039.2547	3113.32	1769.8	879.15
1039.3618	3114.3117	1765.05	875.05
1039.4689	3115.3028	1749.45	858.9
1039.5759	3116.2932	1753.15	859.75
1039.6829	3117.2831	1752.4	856.9
1039.7898	3118.2723	1735.95	845.95
1039.8967	3119.2608	1729.35	839.45
1040.0035	3120.2488	1730.25	840.1
1040.1103	3121.2361	1729	837.5
1040.2171	3122.2229	1723.25	833.35
1040.3238	3123.209	1713.2	820.25
1040.4305	3124.1944	1707.75	817.9
1040.5371	3125.1793	1706.3	815.25
1040.6437	3126.1635	1705.2	815.4
1040.7502	3127.1471	1698.55	809.1
1040.8567	3128.1301	1690.25	799.2
1040.9631	3129.1125	1680.15	790.45
1041.0695	3130.0942	1685.95	796.6
1041.1759	3131.0753	1685	783.6
1041.2822	3132.0558	1687.1	793.15
1041.3884	3133.0357	1678.85	787.85
1041.4946	3134.015	1678.15	787.25
1041.6008	3134.9936	1670.2	779.15
1041.7069	3135.9716	1689.1	778.75
1041.813	3136.949	1657.95	768.1
1041.919	3137.9258	1657.25	760.35
1042.025	3138.902	1659.35	763.05
1042.1309	3139.8775	1643.5	753.15
1042.2368	3140.8524	1653.95	763.1
1042.3427	3141.8267	1650.4	759.75
1042.4485	3142.8004	1642.15	751.15
1042.5542	3143.7735	1643	747.15
1042.6599	3144.7459	1628	736.5
1042.7656	3145.7178	1628.85	738.35
1042.8712	3146.689	1621.9	733.35
1042.9768	3147.6596	1616	725.15
1043.0823	3148.6295	1611.65	719.55
1043.1878	3149.5989	1607.3	716.2
1043.2932	3150.5676	1605.75	714.9
1043.3986	3151.5357	1602.8	713.8
1043.5039	3152.5032	1594.55	703.85
1043.6092	3153.4701	1594.6	705.05
1043.7145	3154.4364	1591.2	699.05
1043.8197	3155.402	1582.85	693.5
1043.9248	3156.367	1583.35	690.1
1044.03	3157.3315	1619.6	688.25
1044.135	3158.2952	1578.3	686.6
1044.24	3159.2584	1565.75	676.65
1044.345	3160.221	1565.15	675.05
1044.4499	3161.1829	1555.4	664.45
1044.5548	3162.1442	1555.95	665
1044.6596	3163.105	1550.35	660.05
1044.7644	3164.065	1548.9	658.2
1044.8692	3165.0245	1539.65	645.2
1044.9739	3165.9834	1537.45	648.7
1045.0785	3166.9416	1534.5	643.65
1045.1831	3167.8993	1533.8	642.75
1045.2877	3168.8563	1525.3	634.55
1045.3922	3169.8127	1525.95	635.8
1045.4966	3170.7684	1527.85	636.95
1045.6011	3171.7236	1526.65	636.05
1045.7054	3172.6782	1519.7	629.75
1045.8098	3173.6321	1512.75	622
1045.914	3174.5854	1511.8	618.95
1046.0183	3175.5381	1499.95	609
1046.1224	3176.4902	1510.95	621.2
1046.2266	3177.4417	1494.3	604
1046.3307	3178.3926	1490.9	601.55
1046.4347	3179.3428	1489.2	599.7
1046.5387	3180.2924	1486.9	597.2
1046.6427	3181.2415	1482.8	593.1
1046.7466	3182.1899	1484.05	591.9
1046.8504	3183.1377	1485.5	596.1
1046.9542	3184.0848	1484.15	591.9
1047.058	3185.0314	1470.2	579.15
1047.1617	3185.9773	1462.45	573.15
1047.2654	3186.9227	1462	572.1
1047.369	3187.8674	1460.5	568.85
1047.4726	3188.8115	1462	569.95
1047.5761	3189.755	1460	569.25
1047.6796	3190.6979	1455.4	565.55
1047.783	3191.6402	1446.3	558.15
1047.8864	3192.5818	1444.65	554.45
1047.9898	3193.5229	1464	548.5
1048.0931	3194.4633	1441.55	553.1
1048.1963	3195.4031	1443.5	553.85
1048.2995	3196.3423	1436.4	546.65
1048.4027	3197.2809	1438.35	548.95
1048.5058	3198.2189	1432.65	541.35
1048.6089	3199.1563	1443	536.25
1048.7119	3200.0931	1422.95	533.1
1048.8148	3201.0292	1421	532.05
1048.9178	3201.9648	1415.15	525.85
1049.0206	3202.8997	1420.8	527.15
1049.1235	3203.834	1409.3	518.55
1049.2262	3204.7677	1412.9	523.15
1049.329	3205.7008	1412.55	520.7
1049.4317	3206.6333	1406	517.3
1049.5343	3207.5652	1408.05	513.35
1049.6369	3208.4964	1400.85	510.85
1049.7394	3209.4271	1400.9	508.85
1049.8419	3210.3571	1391.95	503.15
1049.9444	3211.2865	1391.1	501.15
1050.0468	3212.2154	1390.25	498.35
1050.1491	3213.1436	1393.05	500.3
1050.2514	3214.0712	1395.8	496.8
1050.3537	3214.9982	1388.75	499.5
1050.4559	3215.9246	1384.2	494.65
1050.5581	3216.8503	1377.25	487.4
1050.6602	3217.7755	1380.3	490.8
1050.7623	3218.7001	1372.6	480
1050.8643	3219.624	1379.3	488.15
1050.9663	3220.5473	1373.1	482.2
1051.0682	3221.4701	1368.4	477.15
1051.1701	3222.3922	1361.4	468.15
1051.2719	3223.3137	1356.6	467.5
1051.3737	3224.2346	1357	467.2
1051.4754	3225.1549	1359	469.35
1051.5771	3226.0746	1354	465.1
1051.6788	3226.9937	1349.5	459.1
1051.7804	3227.9121	1351.15	460.35
1051.8819	3228.83	1346.1	455.85
1051.9834	3229.7473	1344.3	454.2
1052.0849	3230.6639	1343	450.55
1052.1863	3231.5799	1336	445.15
1052.2876	3232.4954	1331.8	439.9
1052.3889	3233.4102	1333.2	442.4
1052.4902	3234.3244	1328.5	440.2
1052.5914	3235.238	1330.6	442.75
1052.6926	3236.151	1352.8	440.15
1052.7937	3237.0634	1326.55	436.55
1052.8948	3237.9752	1321.65	431.3
1052.9958	3238.8864	1321	430.05
1053.0968	3239.797	1317.95	429.1
1053.1977	3240.7069	1313.5	422.95
1053.2986	3241.6163	1312.2	420.65
1053.3994	3242.5251	1309.4	418.05
1053.5002	3243.4332	1309.65	422.2
1053.6009	3244.3408	1307.8	416.9
1053.7016	3245.2477	1303.8	412.9
1053.8022	3246.154	1305.45	414.6
1053.9028	3247.0598	1300.95	410
1054.0034	3247.9649	1296.85	407.95
1054.1039	3248.8694	1290.65	399.95
1054.2043	3249.7733	1292.75	400.05
1054.3047	3250.6766	1288.35	398.5
1054.4051	3251.5793	1282	390.9
1054.5054	3252.4814	1280.45	392.15
1054.6056	3253.3829	1281.4	391.7
1054.7058	3254.2838	1275.65	385.85
1054.806	3255.1841	1270.85	381.15
1054.9061	3256.0838	1266.85	376.3
1055.0061	3256.9829	1257.8	368.6
1055.1062	3257.8814	1265.7	373.05
1055.2061	3258.7792	1261.95	370.3
1055.306	3259.6765	1258.15	368.05
1055.4059	3260.5731	1255.35	366.55
1055.5057	3261.4692	1249.75	359.1
1055.6055	3262.3647	1241.8	352.55
1055.7052	3263.2595	1236.25	346.35
1055.8049	3264.1538	1240.15	351.3
1055.9045	3265.0474	1229.15	338.9
1056.0041	3265.9404	1227.6	338.15
1056.1036	3266.8329	1217.55	327.45
1056.2031	3267.7247	1225.6	325.1
1056.3025	3268.616	1207.95	318.85
1056.4019	3269.5066	1195.55	306.3
1056.5013	3270.3966	1193.9	303.05
1056.6005	3271.286	1180.3	291.15
