Software Version:	3.9.2.0
Unit SN:	10000200
Spectrometer SN:	6960
Date:	3/6/2024 9:47:25 AM
Data Line Index:	25
Spectral Points:	2048
Integration time (ms):	125
Averages:	20
Delay (ms):	30
Sequence Number:	1
Processing:	dark subtract
Laser Power (mW):	305
Laser Current (mA):	823
Laser Diode Temp (C):	25.1
Laser Case Temp (C):	24.2
System Temp (C):	24
Spectrometer Temp (C):	21.5
CCD Temp (C):	-0.024
Secondary Temp (C):	20.013
Heatsink Temp (C):	18.021
CCDPCB Temp (C):	31.005
SecondaryPCB Temp (C):	25.802

Wavelength	RamanShift	Raw Counts	Dark Subtracted
787.061	30.1047	452.2	45.9
787.2016	32.3739	450.7	46.55
787.3422	34.6426	452	45.2
787.4828	36.9109	457.1	49.05
787.6235	39.1787	466.35	53
787.7642	41.4461	471.95	54.2
787.9049	43.7131	479.35	59.4
788.0456	45.9796	485.95	63.6
788.1863	48.2456	492.9	67.15
788.3271	50.5112	497.85	67.5
788.4679	52.7764	508.75	77.2
788.6087	55.0411	519.05	81.8
788.7496	57.3054	525.65	82
788.8904	59.5692	533.7	89.95
789.0313	61.8326	538.5	90.5
789.1722	64.0955	550.95	100.15
789.3132	66.3579	566.8	111.95
789.4541	68.6199	577.2	121.2
789.5951	70.8815	604.8	141.95
789.7361	73.1426	652.25	185.7
789.8771	75.4032	773.1	301.4
790.0181	77.6634	1069.6	596.5
790.1592	79.9231	1768.7	1291.6
790.3003	82.1824	3244.95	2762.35
790.4414	84.4412	5828.5	5331.9
790.5825	86.6995	9339.75	8830.3
790.7237	88.9574	12804.3	12286.35
790.8648	91.2148	15350.65	14824.3
791.006	93.4717	16771	16237.45
791.1472	95.7282	17421.15	16885.65
791.2885	97.9842	17717.75	17179.75
791.4297	100.2398	17832.45	17293.7
791.571	102.4949	17878.55	17336.25
791.7123	104.7495	17882.55	17337
791.8536	107.0036	17853.9	17305.7
791.9949	109.2573	17866.05	17320.15
792.1363	111.5105	17868.95	17320.1
792.2777	113.7632	17868.15	17318.25
792.4191	116.0154	17868.6	17305.55
792.5605	118.2672	17950.3	17392.5
792.7019	120.5185	17940.6	17382.5
792.8434	122.7693	17957.35	17395.05
792.9849	125.0197	18026.3	17463.55
793.1264	127.2696	17985	17414.3
793.2679	129.519	18070.1	17495.65
793.4094	131.7679	18114.85	17540.9
793.551	134.0163	18177.7	17600.25
793.6926	136.2642	18202.15	17623.45
793.8342	138.5117	18190.35	17608.85
793.9758	140.7587	18210.1	17627.1
794.1175	143.0052	18217.5	17630.35
794.2591	145.2512	18204.6	17616.4
794.4008	147.4967	18171.75	17579.45
794.5425	149.7417	18169.55	17577.65
794.6842	151.9863	18160.8	17565
794.826	154.2304	18195.05	17595.85
794.9677	156.4739	18159.5	17550.95
795.1095	158.717	18217.4	17613.95
795.2513	160.9596	18214.1	17604
795.3931	163.2017	18203.5	17593.65
795.535	165.4433	18244.85	17631.65
795.6768	167.6844	18270.85	17655.25
795.8187	169.925	18246.4	17625.85
795.9606	172.1651	18205.3	17580.6
796.1025	174.4047	18194.25	17567.8
796.2445	176.6439	18190.85	17561.35
796.3864	178.8825	18185.1	17554.65
796.5284	181.1206	18241.6	17605.95
796.6704	183.3582	18269.4	17628.2
796.8124	185.5954	18255.4	17616.6
796.9544	187.832	18297.35	17651.25
797.0965	190.0681	18336.1	17687.2
797.2386	192.3037	18362.65	17711.3
797.3806	194.5388	18369.5	17717
797.5228	196.7734	18410.75	17756.8
797.6649	199.0075	18501.7	17845.25
797.807	201.2411	18597.65	17939.65
797.9492	203.4742	18621.1	17962.6
798.0914	205.7068	18665.6	17998.95
798.2336	207.9389	18663.75	17999.95
798.3758	210.1704	18753.6	18098.45
798.518	212.4015	18697	18046.5
798.6603	214.632	18769.9	18128.95
798.8025	216.862	18791.45	18149.45
798.9448	219.0915	18798.5	18152.8
799.0871	221.3205	18834.85	18189.75
799.2294	223.549	18869.65	18228.6
799.3718	225.777	18897.35	18254.9
799.5141	228.0044	18930	18277.3
799.6565	230.2314	18992.45	18338.65
799.7989	232.4578	18992.9	18336.1
799.9413	234.6837	18996	18330.35
800.0837	236.909	19001.05	18331.6
800.2262	239.1339	19029.75	18335.6
800.3687	241.3582	19034.5	18358.4
800.5111	243.582	19068.85	18360.85
800.6536	245.8053	19109.45	18413.5
800.7961	248.0281	19078	18388.15
800.9387	250.2503	19100.3	18408.8
801.0812	252.472	19114.05	18421.8
801.2238	254.6932	19161	18467.35
801.3664	256.9139	19123.7	18428.05
801.509	259.134	19175.9	18474.75
801.6516	261.3536	19151.4	18457.45
801.7942	263.5727	19188.25	18490.05
801.9369	265.7912	19173.05	18472.8
802.0795	268.0092	19234.6	18535
802.2222	270.2267	19286.45	18584.85
802.3649	272.4436	19297	18595.1
802.5076	274.6601	19303.15	18590.25
802.6504	276.8759	19325.3	18616.9
802.7931	279.0913	19350.1	18642.45
802.9359	281.3061	19327.4	18616.05
803.0787	283.5204	19371.75	18660.25
803.2215	285.7341	19425.15	18708.25
803.3643	287.9473	19473.95	18746.8
803.5071	290.16	19447.95	18729.35
803.6499	292.3721	19404.25	18689.55
803.7928	294.5837	19458.8	18743.35
803.9357	296.7947	19393.95	18679.5
804.0786	299.0052	19367.75	18651.05
804.2215	301.2152	19344.55	18624.1
804.3644	303.4246	19359.55	18643
804.5074	305.6334	19331.5	18614.85
804.6503	307.8418	19349.05	18624.8
804.7933	310.0495	19313.1	18590.05
804.9363	312.2568	19269.85	18548.25
805.0793	314.4635	19218.45	18491.1
805.2223	316.6696	19171.95	18445.6
805.3653	318.8752	19133.9	18398.7
805.5084	321.0802	19110.65	18379.65
805.6514	323.2847	19089.85	18359.6
805.7945	325.4887	19067.4	18336.55
805.9376	327.692	19071.95	18336.35
806.0807	329.8949	19156.4	18420.75
806.2238	332.0972	19155.75	18417.25
806.367	334.2989	19168.15	18428.45
806.5101	336.5001	19163.9	18421.75
806.6533	338.7007	19120.85	18380.3
806.7965	340.9008	19166.5	18422.55
806.9397	343.1003	19132.2	18386.15
807.0829	345.2992	19089.65	18343.65
807.2261	347.4976	19049.4	18303.65
807.3693	349.6955	19042	18290
807.5126	351.8927	19122.75	18371.25
807.6559	354.0895	19034.55	18269.6
807.7991	356.2856	19067.05	18313.2
807.9424	358.4812	19009.7	18254.5
808.0857	360.6763	19047.9	18293.15
808.2291	362.8707	19003.75	18246
808.3724	365.0646	19030.6	18271
808.5158	367.258	18999.15	18236.1
808.6591	369.4508	18970.15	18202.05
808.8025	371.643	18999.45	18234.25
808.9459	373.8346	18929.05	18159.85
809.0893	376.0257	18939.6	18168.95
809.2327	378.2162	18927.9	18159.45
809.3762	380.4062	18931.95	18162.6
809.5196	382.5956	18900.15	18131.9
809.6631	384.7844	18880.4	18116.25
809.8066	386.9726	18817.5	18056.15
809.9501	389.1603	18759.7	18002.05
810.0936	391.3474	18752.65	17949.1
810.2371	393.5339	18719.35	17952.35
810.3806	395.7199	18667.85	17909.35
810.5241	397.9052	18701.3	17941.1
810.6677	400.09	18690.55	17927.25
810.8113	402.2743	18697.2	17932
810.9548	404.4579	18682.1	17917.9
811.0984	406.641	18736.15	17967.35
811.2421	408.8235	18748.95	17978.95
811.3857	411.0054	18762.2	17988.05
811.5293	413.1868	18908	18130.05
811.673	415.3675	18911.5	18132
811.8166	417.5477	18923.15	18144.2
811.9603	419.7273	18794.55	18012.85
812.104	421.9064	18700.85	17911.65
812.2477	424.0848	18622.2	17835.5
812.3914	426.2627	18551.6	17765.8
812.5351	428.4399	18511.35	17723.15
812.6788	430.6166	18480.95	17688.55
812.8226	432.7928	18405.1	17612.8
812.9663	434.9683	18338	17545.6
813.1101	437.1432	18288.65	17496
813.2539	439.3176	18245.25	17456.2
813.3977	441.4914	18153.75	17364.95
813.5415	443.6645	18163.3	17371.9
813.6853	445.8371	18075.1	17283.05
813.8291	448.0091	18025.25	17233.6
813.973	450.1806	17998.2	17206.25
814.1168	452.3514	17942.35	17149.85
814.2607	454.5216	17939.55	17136.65
814.4046	456.6913	17828	17030.7
814.5485	458.8603	17851.45	17055.75
814.6924	461.0288	17861.35	17067.35
814.8363	463.1967	17834.1	17042.2
814.9802	465.3639	17859.3	17063.45
815.1241	467.5306	17792.75	16995.1
815.2681	469.6967	17747.6	16949.85
815.412	471.8622	17691.6	16893.15
815.556	474.0271	17691.65	16896.35
815.7	476.1914	17704.75	16904.35
815.844	478.3551	17660.35	16861.25
815.988	480.5182	17676.2	16877.25
816.132	482.6807	17687.85	16887.85
816.276	484.8426	17708.65	16911.4
816.4201	487.0039	17742.1	16941.75
816.5641	489.1647	17756.3	16953.45
816.7082	491.3248	17785.95	16984
816.8522	493.4843	17789.45	16989.55
816.9963	495.6432	17774.25	16972.15
817.1404	497.8015	17716.4	16906.1
817.2845	499.9592	17722.65	16916
817.4286	502.1163	17679.2	16870.95
817.5727	504.2728	17596.75	16787.75
817.7168	506.4287	17598.55	16791.55
817.861	508.5839	17574.95	16767.7
818.0051	510.7386	17552.5	16745.5
818.1493	512.8927	17557.25	16744.85
818.2935	515.0461	17566.35	16753.25
818.4377	517.199	17577.25	16765.05
818.5818	519.3512	17558.95	16744.3
818.726	521.5029	17599.55	16781.55
818.8703	523.6539	17566.05	16751.05
819.0145	525.8043	17567.75	16753.2
819.1587	527.9541	17560.05	16742.1
819.303	530.1033	17480.3	16663.45
819.4472	532.2519	17436.4	16620.55
819.5915	534.3999	17403.85	16583.65
819.7357	536.5472	17410.45	16593.05
819.88	538.694	17396	16581.9
820.0243	540.8401	17394.9	16578.8
820.1686	542.9856	17415.6	16595.6
820.3129	545.1305	17368.7	16544.85
820.4572	547.2748	17401.05	16578.4
820.6016	549.4185	17374.95	16552
820.7459	551.5615	17341.75	16519.55
820.8902	553.704	17334.35	16511.6
821.0346	555.8458	17315.05	16493.35
821.1789	557.987	17329.05	16508.2
821.3233	560.1276	17308.15	16484.3
821.4677	562.2675	17371.85	16550.7
821.6121	564.4069	17356.1	16535.95
821.7565	566.5456	17322.05	16501.3
821.9009	568.6837	17320.45	16499.15
822.0453	570.8212	17228.3	16406.75
822.1897	572.958	17188.9	16365.55
822.3342	575.0942	17131.25	16305.95
822.4786	577.2299	17083.9	16258.75
822.6231	579.3648	17026.75	16202.7
822.7675	581.4992	16925.85	16103.2
822.912	583.6329	16893.25	16071.15
823.0565	585.766	16872.35	16049.7
823.201	587.8985	16869.3	16045.45
823.3454	590.0304	16836.65	15998.15
823.4899	592.1616	16826.85	15995.25
823.6345	594.2922	16793.1	15962.95
823.779	596.4222	16736.65	15905.75
823.9235	598.5515	16677	15845.7
824.068	600.6802	16619.45	15789
824.2126	602.8083	16506.85	15676.5
824.3571	604.9358	16484.3	15653.1
824.5017	607.0626	16453	15620.05
824.6462	609.1888	16457.1	15620.95
824.7908	611.3144	16433.65	15597.6
824.9354	613.4393	16437.5	15602.8
825.08	615.5636	16486.85	15651.6
825.2246	617.6873	16513.5	15679.55
825.3692	619.8103	16467.8	15632.25
825.5138	621.9327	16466.5	15628.15
825.6584	624.0544	16406.75	15573.55
825.803	626.1756	16370	15535.05
825.9477	628.2961	16339.75	15504.05
826.0923	630.4159	16282.95	15445.05
826.237	632.5351	16291.2	15451.25
826.3816	634.6537	16261.7	15421.75
826.5263	636.7716	16219.6	15376.45
826.6709	638.8889	16232.25	15392.1
826.8156	641.0056	16229.6	15387.65
826.9603	643.1216	16213.75	15373.15
827.105	645.237	16237.1	15395.7
827.2497	647.3518	16184	15343.3
827.3944	649.4659	16162.2	15323.5
827.5391	651.5793	16119.65	15279.8
827.6838	653.6922	16079.85	15240.55
827.8285	655.8043	16072.05	15229.9
827.9733	657.9159	16065.3	15223.35
828.118	660.0268	16005.55	15160.75
828.2627	662.137	15998	15153.35
828.4075	664.2466	15976	15127.7
828.5522	666.3556	16007.45	15160.85
828.697	668.4639	15947.15	15098.85
828.8418	670.5716	15942.95	15099.4
828.9865	672.6786	15947	15100.2
829.1313	674.785	15872.1	15021.75
829.2761	676.8907	15829	14981.65
829.4209	678.9958	15816.45	14970.45
829.5657	681.1002	15758.6	14910.45
829.7105	683.204	15745.4	14894.55
829.8553	685.3072	15744.65	14892.9
830.0001	687.4097	15682.9	14832.65
830.1449	689.5115	15697.95	14847
830.2898	691.6127	15697.5	14849.5
830.4346	693.7132	15625.15	14777.6
830.5794	695.8131	15675.7	14802.9
830.7243	697.9123	15664.45	14816.05
830.8691	700.0109	15644.45	14790.15
831.014	702.1089	15629.4	14776.7
831.1588	704.2061	15577.05	14723.8
831.3037	706.3028	15607.7	14757.1
831.4486	708.3987	15598.8	14750.1
831.5935	710.4941	15562.2	14712.85
831.7383	712.5887	15567.7	14716.55
831.8832	714.6827	15587.9	14730.95
832.0281	716.7761	15539.05	14686.25
832.173	718.8688	15534.6	14682.15
832.3179	720.9608	15499.45	14641.1
832.4628	723.0522	15521.85	14664.6
832.6077	725.1429	15473.6	14615.75
832.7527	727.233	15491.6	14633.75
832.8976	729.3224	15522.95	14668.05
833.0425	731.4112	15493.35	14636.65
833.1874	733.4993	15456.1	14599.9
833.3324	735.5867	15435.65	14580.2
833.4773	737.6735	15428.95	14571.35
833.6222	739.7596	15348.7	14489.35
833.7672	741.845	15288.5	14431.05
833.9122	743.9298	15311.75	14451.35
834.0571	746.014	15251.95	14394
834.2021	748.0974	15241.45	14380.45
834.347	750.1802	15200.95	14341.6
834.492	752.2624	15138.75	14280
834.637	754.3439	15122.9	14260.95
834.782	756.4247	15054.9	14186.5
834.9269	758.5048	14968.5	14104.1
835.0719	760.5843	14957.55	14096.35
835.2169	762.6631	14930.55	14068.6
835.3619	764.7413	14910.25	14050.2
835.5069	766.8188	14962.45	14101.45
835.6519	768.8956	14940.1	14075.3
835.7969	770.9718	14986.5	14127.65
835.9419	773.0473	14904.4	14044.15
836.0869	775.1221	14874.95	14012.4
836.232	777.1962	14821.55	13957.9
836.377	779.2697	14808.65	13945.25
836.522	781.3426	14850.3	13968.75
836.667	783.4147	14819.75	13957.7
836.8121	785.4862	14822.1	13961.65
836.9571	787.557	14761.65	13900.1
837.1021	789.6271	14680.15	13814.4
837.2472	791.6966	14587.7	13723.75
837.3922	793.7654	14495.2	13631.25
837.5373	795.8335	14480.2	13617.2
837.6823	797.901	14423.55	13559
837.8274	799.9678	14426.7	13557.45
837.9724	802.0339	14408.95	13543.9
838.1175	804.0993	14381	13504.75
838.2626	806.1641	14297.25	13432.1
838.4076	808.2282	14290.45	13426.75
838.5527	810.2916	14271.2	13406.15
838.6978	812.3544	14254	13389.6
838.8428	814.4164	14185.3	13321.35
838.9879	816.4778	14260.5	13390.75
839.133	818.5385	14219.85	13354.7
839.2781	820.5986	14226.65	13359.35
839.4232	822.658	14232.85	13362.7
839.5682	824.7166	14204.15	13339.85
839.7133	826.7747	14269.1	13404.7
839.8584	828.832	14294.2	13427.7
840.0035	830.8886	14270.35	13402
840.1486	832.9446	14243.2	13372.75
840.2937	834.9999	14213.05	13345.3
840.4388	837.0545	14170.95	13298.3
840.5839	839.1085	14101.6	13232.15
840.729	841.1618	14056.15	13182.1
840.8741	843.2143	14006.4	13136.4
841.0192	845.2662	13936.25	13067.8
841.1643	847.3175	13909.45	13038.15
841.3095	849.368	13882	13011.7
841.4546	851.4179	13864.6	12996.2
841.5997	853.467	13802.4	12934.7
841.7448	855.5155	13813.1	12942.45
841.8899	857.5633	13810.3	12938.25
842.0351	859.6105	13737.6	12866.8
842.1802	861.6569	13714	12845.1
842.3253	863.7027	13700.2	12825.55
842.4704	865.7478	13707.35	12835
842.6156	867.7922	13669.85	12799
842.7607	869.8359	13662.9	12792
842.9058	871.8789	13611.5	12738
843.0509	873.9212	13633.4	12729.75
843.1961	875.9629	13575.85	12703.7
843.3412	878.0039	13563.95	12691.85
843.4863	880.0441	13564.7	12695.15
843.6315	882.0837	13559.5	12690.45
843.7766	884.1226	13567.35	12693.2
843.9218	886.1609	13561	12689.8
844.0669	888.1984	13601	12731.4
844.212	890.2352	13627.65	12754.85
844.3572	892.2714	13614.4	12736.9
844.5023	894.3069	13590.9	12714.95
844.6475	896.3416	13519.55	12645.9
844.7926	898.3757	13495.75	12621.05
844.9377	900.4091	13428.65	12554.65
845.0829	902.4418	13412	12533.3
845.228	904.4739	13399.05	12521.7
845.3732	906.5052	13353.2	12478.55
845.5183	908.5358	13368.15	12494.65
845.6635	910.5658	13346.7	12468.6
845.8086	912.595	13302.75	12427
845.9538	914.6236	13262.25	12385.85
846.0989	916.6515	13229.5	12354.3
846.2441	918.6786	13160.95	12283.55
846.3892	920.7051	13163.6	12286.55
846.5344	922.7309	13191.8	12313.8
846.6795	924.756	13102.85	12227.45
846.8246	926.7804	13118	12242.05
846.9698	928.8041	13008.6	12130.4
847.1149	930.8272	13017.6	12140.5
847.2601	932.8495	12970.95	12092.45
847.4052	934.8711	12977.3	12099.75
847.5504	936.892	12911.05	12032.8
847.6955	938.9123	12923.55	12045.1
847.8407	940.9318	12910.75	12032.55
847.9858	942.9506	12874.85	11997.1
848.131	944.9688	12836.7	11959.3
848.2761	946.9862	12814.2	11937.45
848.4213	949.003	12715.15	11835.6
848.5664	951.019	12678.25	11800.25
848.7115	953.0344	12654.95	11775.55
848.8567	955.0491	12623.4	11743.9
849.0018	957.063	12620.2	11743
849.147	959.0763	12609.4	11730.5
849.2921	961.0888	12591.65	11712.1
849.4373	963.1007	12590.6	11712.45
849.5824	965.1119	12567.4	11690.2
849.7275	967.1223	12537.75	11660.9
849.8727	969.1321	12493.9	11617.75
850.0178	971.1412	12474.55	11599.55
850.1629	973.1495	12459.1	11579.45
850.3081	975.1572	12466.05	11541.75
850.4532	977.1641	12430.85	11553.15
850.5983	979.1704	12375.85	11497
850.7435	981.1759	12351	11468.05
850.8886	983.1808	12365.55	11484.65
851.0337	985.1849	12338.15	11454.85
851.1788	987.1884	12277.35	11396.15
851.324	989.1911	12263.6	11383.35
851.4691	991.1932	12262.2	11380.45
851.6142	993.1945	12198.1	11318.9
851.7593	995.1951	12117.8	11237.25
851.9045	997.1951	12132.95	11248.25
852.0496	999.1943	12106.35	11227.85
852.1947	1001.1928	12027.2	11145.5
852.3398	1003.1906	12001.9	11122.55
852.4849	1005.1877	12005.55	11123.7
852.63	1007.1841	11984.55	11103.8
852.7751	1009.1798	11946.9	11065.45
852.9202	1011.1748	11891.8	11011.5
853.0653	1013.1691	11855.9	10975.75
853.2104	1015.1627	11803.15	10921.25
853.3555	1017.1556	11719.1	10839.25
853.5006	1019.1477	11681.9	10800.6
853.6457	1021.1392	11605.9	10726.55
853.7908	1023.1299	11568.6	10686.35
853.9359	1025.12	11533.8	10655.25
854.081	1027.1093	11472.5	10596
854.2261	1029.0979	11453.55	10580.75
854.3712	1031.0859	11419.45	10540.2
854.5163	1033.0731	11410	10530.4
854.6613	1035.0596	11373.9	10493.9
854.8064	1037.0454	11320.55	10438.5
854.9515	1039.0304	11301.1	10420.2
855.0965	1041.0148	11240.3	10358.05
855.2416	1042.9985	11220.8	10337.4
855.3867	1044.9814	11223.45	10341.85
855.5317	1046.9636	11153.45	10270.7
855.6768	1048.9452	11126.6	10247.1
855.8219	1050.926	11086.6	10207.05
855.9669	1052.9061	11082	10204.55
856.112	1054.8855	11065.15	10185.4
856.257	1056.8642	11023.8	10142.65
856.4021	1058.8421	11029.2	10141.8
856.5471	1060.8194	11006.75	10123.1
856.6921	1062.7959	10994.05	10113.45
856.8372	1064.7717	10944.85	10059.25
856.9822	1066.7469	10912.1	10029.55
857.1272	1068.7213	10944.55	10058.4
857.2723	1070.695	10920.05	10036.6
857.4173	1072.6679	10862.5	9979.85
857.5623	1074.6402	10856.2	9971.4
857.7073	1076.6117	10848.55	9959.3
857.8523	1078.5826	10840.95	9953.75
857.9973	1080.5527	10813.3	9925.05
858.1423	1082.5221	10765.9	9882.35
858.2873	1084.4908	10714.05	9831.35
858.4323	1086.4587	10692.9	9809.75
858.5773	1088.426	10662.4	9777.2
858.7223	1090.3925	10613	9723.05
858.8673	1092.3584	10619.65	9736.35
859.0123	1094.3235	10570.45	9689.25
859.1573	1096.2879	10560.6	9676.75
859.3022	1098.2515	10541.15	9657.95
859.4472	1100.2145	10547.5	9663.45
859.5922	1102.1767	10540.5	9654.35
859.7371	1104.1382	10546.7	9662.5
859.8821	1106.099	10532	9647.5
860.027	1108.0591	10528.95	9647.15
860.172	1110.0185	10531.05	9644.5
860.3169	1111.9771	10545.75	9663.5
860.4619	1113.9351	10527.9	9643.7
860.6068	1115.8923	10530.3	9646
860.7517	1117.8488	10508.3	9623.85
860.8967	1119.8045	10460.2	9576.85
861.0416	1121.7596	10390.25	9504.85
861.1865	1123.7139	10321.3	9436.9
861.3314	1125.6675	10233.15	9347.8
861.4763	1127.6204	10259.4	9375.6
861.6212	1129.5726	10232.7	9347.15
861.7661	1131.524	10234.15	9349.9
861.911	1133.4748	10182.75	9299
862.0559	1135.4248	10118.85	9233.45
862.2008	1137.3741	10099.45	9215.45
862.3457	1139.3226	10064.25	9178.3
862.4905	1141.2705	10060.5	9173.95
862.6354	1143.2176	10023.6	9131.75
862.7803	1145.164	10012.15	9124.2
862.9251	1147.1097	9986.2	9098.25
863.07	1149.0546	9967.3	9079.9
863.2148	1150.9989	9952.3	9067.1
863.3597	1152.9424	9933.8	9048.95
863.5045	1154.8852	9891.35	9006.05
863.6493	1156.8272	9878.6	8991.2
863.7942	1158.7686	9898.65	9005.25
863.939	1160.7092	9850.2	8963.25
864.0838	1162.6491	9833.5	8945.3
864.2286	1164.5883	9801.8	8916.9
864.3734	1166.5267	9789.9	8902.9
864.5182	1168.4644	9796.05	8910.9
864.663	1170.4014	9802.4	8913.4
864.8078	1172.3377	9826.9	8943.3
864.9526	1174.2732	9824.1	8939.3
865.0974	1176.2081	9888.6	9004.25
865.2421	1178.1421	9890.45	8997.8
865.3869	1180.0755	9950.1	9068.8
865.5317	1182.0082	9937.6	9053.1
865.6764	1183.9401	9926.85	9041.7
865.8212	1185.8713	9847	8963
865.9659	1187.8017	9783.3	8899.8
866.1106	1189.7315	9717.65	8836.45
866.2554	1191.6605	9626.25	8746
866.4001	1193.5888	9569.45	8685.85
866.5448	1195.5163	9525.35	8641.25
866.6895	1197.4432	9472.25	8586.5
866.8342	1199.3693	9449.35	8565.8
866.9789	1201.2947	9407.65	8513.65
867.1236	1203.2193	9357.25	8470.6
867.2683	1205.1432	9366.7	8480.3
867.413	1207.0664	9318	8431.7
867.5576	1208.9889	9298.05	8410.15
867.7023	1210.9106	9246.75	8359.85
867.847	1212.8316	9238.8	8354.65
867.9916	1214.7519	9236.25	8341.3
868.1363	1216.6715	9193.4	8307.25
868.2809	1218.5903	9210.6	8324.45
868.4255	1220.5084	9177.2	8289.05
868.5701	1222.4257	9167.65	8280.35
868.7148	1224.3424	9153.05	8269
868.8594	1226.2583	9128.55	8237.1
869.004	1228.1735	9143.25	8257.6
869.1486	1230.0879	9104.85	8216.6
869.2932	1232.0016	9114.4	8227.3
869.4377	1233.9146	9118.45	8230.55
869.5823	1235.8269	9107.8	8220.05
869.7269	1237.7384	9092.2	8207.25
869.8715	1239.6492	9073.85	8188.7
870.016	1241.5592	9048.8	8161.65
870.1606	1243.4686	9069.5	8185.85
870.3051	1245.3772	9089.75	8202.35
870.4496	1247.285	9099.9	8212.15
870.5941	1249.1922	9125.7	8238.9
870.7387	1251.0986	9148.5	8262.7
870.8832	1253.0042	9157.05	8271.5
871.0277	1254.9092	9194.65	8308.5
871.1722	1256.8134	9207.6	8321.9
871.3167	1258.7169	9246.85	8359.75
871.4611	1260.6196	9231.25	8345.45
871.6056	1262.5216	9234.4	8346.15
871.7501	1264.4229	9223.75	8337.8
871.8945	1266.3234	9185.95	8298.75
872.039	1268.2232	9165.75	8275.55
872.1834	1270.1223	9109.9	8222.05
872.3278	1272.0207	9108.45	8220.35
872.4723	1273.9183	9056.35	8163.4
872.6167	1275.8151	9040.15	8150.2
872.7611	1277.7113	9063.5	8175.25
872.9055	1279.6067	9085.35	8197.2
873.0499	1281.5014	9130.3	8240.15
873.1943	1283.3953	9220.85	8330.35
873.3386	1285.2885	9317.2	8431.35
873.483	1287.181	9372.9	8484.25
873.6274	1289.0727	9401.65	8515.55
873.7717	1290.9637	9366.65	8478
873.9161	1292.854	9297.45	8409.7
874.0604	1294.7435	9235.85	8348.05
874.2047	1296.6323	9168.5	8281.45
874.349	1298.5204	9126.65	8234.95
874.4933	1300.4077	9084.5	8194.5
874.6376	1302.2943	9053.65	8164.3
874.7819	1304.1802	9008.95	8121.45
874.9262	1306.0653	8994.1	8104.2
875.0705	1307.9497	8959.85	8071.8
875.2147	1309.8333	8924.7	8037.55
875.359	1311.7162	8898.85	8011.85
875.5032	1313.5984	8877.65	7986.95
875.6475	1315.4798	8844.55	7946.75
875.7917	1317.3605	8827.25	7921.1
875.9359	1319.2405	8795.75	7908
876.0801	1321.1197	8765.8	7875
876.2243	1322.9982	8729.75	7839.6
876.3685	1324.876	8698.65	7810.95
876.5127	1326.753	8617.1	7727.85
876.6569	1328.6293	8580.3	7691.4
876.801	1330.5048	8544.95	7654.05
876.9452	1332.3796	8482.3	7595.95
877.0893	1334.2537	8467.1	7555
877.2335	1336.127	8412.6	7523.8
877.3776	1337.9996	8387.2	7499.95
877.5217	1339.8714	8349.15	7462
877.6658	1341.7426	8367.25	7436.35
877.8099	1343.6129	8319.15	7429.1
877.954	1345.4826	8286.15	7396.45
878.0981	1347.3515	8295.25	7403.6
878.2422	1349.2196	8247.9	7357.65
878.3862	1351.087	8279.3	7390.15
878.5303	1352.9537	8243.1	7352.5
878.6743	1354.8197	8258.85	7368.85
878.8184	1356.6849	8246.1	7357.8
878.9624	1358.5493	8225.55	7336
879.1064	1360.4131	8206.7	7319.1
879.2504	1362.276	8210.85	7321.55
879.3944	1364.1383	8204.6	7318.15
879.5384	1365.9998	8230.85	7336.3
879.6823	1367.8606	8185.4	7295.4
879.8263	1369.7206	8171.1	7281.5
879.9702	1371.5799	8143.55	7253.45
880.1142	1373.4384	8123.4	7235.3
880.2581	1375.2962	8096.55	7205.75
880.402	1377.1533	8038.75	7147.9
880.5459	1379.0096	7984.55	7097.85
880.6898	1380.8652	7941.6	7054.5
880.8337	1382.7201	7909	7020.1
880.9776	1384.5742	7871.2	6983.3
881.1215	1386.4275	7841.5	6953.8
881.2653	1388.2802	7812.7	6923.6
881.4092	1390.132	7796.4	6906.85
881.553	1391.9832	7775.2	6886.7
881.6968	1393.8336	7696.75	6807.5
881.8406	1395.6832	7694.15	6804.05
881.9844	1397.5322	7667.3	6778.6
882.1282	1399.3803	7667.4	6773.7
882.272	1401.2278	7599.95	6710.9
882.4158	1403.0745	7591.9	6703.5
882.5595	1404.9204	7554.4	6667.25
882.7033	1406.7656	7549.15	6660.55
882.847	1408.6101	7508.6	6621.5
882.9908	1410.4538	7486.95	6599.05
883.1345	1412.2968	7464.15	6573.85
883.2782	1414.139	7427.8	6540.3
883.4219	1415.9805	7425.3	6536.85
883.5656	1417.8213	7417.15	6526.05
883.7092	1419.6613	7396.7	6509.5
883.8529	1421.5006	7385.65	6495.25
883.9965	1423.3391	7402.7	6513.1
884.1402	1425.1769	7409.15	6519.6
884.2838	1427.0139	7440.6	6551.95
884.4274	1428.8502	7452.2	6561.65
884.571	1430.6858	7471.6	6581.1
884.7146	1432.5206	7453.4	6561.9
884.8582	1434.3547	7446.7	6555
885.0018	1436.188	7445.75	6557.3
885.1453	1438.0206	7421.7	6531.85
885.2889	1439.8524	7402.3	6511.95
885.4324	1441.6835	7414.2	6527.25
885.5759	1443.5139	7407.95	6514.55
885.7194	1445.3435	7363.3	6474.75
885.8629	1447.1724	7355.6	6469.6
886.0064	1449.0005	7343.1	6455.2
886.1499	1450.8279	7321.45	6432.75
886.2933	1452.6545	7334.2	6444.35
886.4368	1454.4804	7329.3	6441.4
886.5802	1456.3056	7312.9	6415.45
886.7237	1458.13	7276.15	6388.6
886.8671	1459.9536	7242.15	6353.9
887.0105	1461.7766	7216.25	6328.7
887.1539	1463.5987	7190.1	6300.05
887.2972	1465.4202	7151.8	6262.6
887.4406	1467.2409	7109.9	6220.05
887.584	1469.0608	7075.55	6187.85
887.7273	1470.88	7046.2	6155.4
887.8706	1472.6984	7034.45	6147.15
888.0139	1474.5161	6990.85	6099.65
888.1572	1476.3331	6964	6077.45
888.3005	1478.1493	6962.7	6072.3
888.4438	1479.9648	6936.65	6047
888.5871	1481.7795	6917.6	6028.05
888.7303	1483.5935	6919.75	6033.45
888.8736	1485.4067	6905	6017.5
889.0168	1487.2192	6895.15	6007.4
889.16	1489.031	6864.15	5973.95
889.3032	1490.842	6870.5	5983.3
889.4464	1492.6522	6856.85	5968
889.5896	1494.4618	6829.35	5940.5
889.7327	1496.2705	6822.3	5934.6
889.8759	1498.0785	6814.05	5925.8
890.019	1499.8858	6781.3	5894.1
890.1622	1501.6924	6776.45	5889.4
890.3053	1503.4981	6766.65	5877
890.4484	1505.3032	6741.7	5852.35
890.5914	1507.1075	6711.25	5821.5
890.7345	1508.911	6700.9	5811.7
890.8776	1510.7138	6684.65	5798.2
891.0206	1512.5159	6645.75	5755.65
891.1637	1514.3172	6618.7	5731.5
891.3067	1516.1178	6600.65	5711.65
891.4497	1517.9176	6603.7	5713.3
891.5927	1519.7166	6597.65	5710.95
891.7357	1521.515	6563.4	5667.4
891.8786	1523.3126	6536.25	5645.7
892.0216	1525.1094	6509.45	5620.45
892.1645	1526.9055	6474.65	5587.1
892.3074	1528.7008	6458.5	5571.05
892.4503	1530.4954	6435.6	5546
892.5932	1532.2893	6421.05	5534.7
892.7361	1534.0824	6380.5	5487.4
892.879	1535.8747	6375.05	5487.75
893.0218	1537.6663	6336.15	5447.35
893.1647	1539.4572	6319.65	5429.7
893.3075	1541.2473	6314.05	5425.4
893.4503	1543.0367	6284.1	5396.95
893.5931	1544.8253	6259.85	5368.5
893.7359	1546.6132	6256.95	5365.35
893.8787	1548.4003	6223.15	5324.1
894.0214	1550.1867	6219.3	5323.05
894.1642	1551.9723	6208.45	5313.85
894.3069	1553.7572	6194.2	5304.8
894.4496	1555.5414	6188.6	5302.55
894.5923	1557.3247	6176.25	5289.75
894.735	1559.1074	6178.25	5292.2
894.8777	1560.8893	6191.8	5306.25
895.0204	1562.6705	6181.1	5296.6
895.163	1564.4509	6185.2	5299.65
895.3056	1566.2305	6166.1	5280.3
895.4482	1568.0094	6151.8	5266.45
895.5908	1569.7876	6158.25	5272.8
895.7334	1571.565	6127.5	5239.7
895.876	1573.3417	6135.55	5250.35
896.0186	1575.1176	6076.9	5191.35
896.1611	1576.8928	6082.45	5197.05
896.3036	1578.6672	6076.85	5191.7
896.4461	1580.4409	6049.65	5166.6
896.5886	1582.2138	6062.15	5176.25
896.7311	1583.986	6063.5	5176.2
896.8736	1585.7575	6076.05	5191.95
897.0161	1587.5282	6071.45	5187.45
897.1585	1589.2981	6074.6	5191.4
897.3009	1591.0673	6057.4	5173.5
897.4433	1592.8358	6052.15	5167.3
897.5857	1594.6035	6042.4	5156.65
897.7281	1596.3704	6023.75	5140.5
897.8705	1598.1366	5986.7	5100.65
898.0128	1599.9021	5952.25	5067
898.1551	1601.6668	5915.1	5028.25
898.2975	1603.4308	5905.55	5019.6
898.4398	1605.194	5888.4	4997.1
898.5821	1606.9564	5853.05	4969.3
898.7243	1608.7182	5872.25	4984.75
898.8666	1610.4791	5914.85	5033.45
899.0088	1612.2394	5938.55	5056.95
899.1511	1613.9988	5977.35	5094.6
899.2933	1615.7576	6000.15	5114.05
899.4355	1617.5156	6023.4	5132.95
899.5776	1619.2728	5982.6	5096.4
899.7198	1621.0293	5944.1	5060.45
899.862	1622.785	5844.95	4956.85
900.0041	1624.54	5789.3	4903.85
900.1462	1626.2942	5686.65	4801.15
900.2883	1628.0477	5616.55	4731.6
900.4304	1629.8005	5540.8	4653.5
900.5725	1631.5525	5474.25	4588.95
900.7145	1633.3037	5449.6	4564.7
900.8566	1635.0542	5386.75	4501.45
900.9986	1636.804	5372.1	4488.05
901.1406	1638.553	5395.65	4423.1
901.2826	1640.3013	5319.7	4434.65
901.4245	1642.0488	5265.55	4380.55
901.5665	1643.7955	5245.1	4363.5
901.7085	1645.5416	5232.35	4346.25
901.8504	1647.2868	5197.1	4311.8
901.9923	1649.0313	5170.75	4287.1
902.1342	1650.7751	5157.85	4269.7
902.2761	1652.5181	5158.6	4273.2
902.4179	1654.2604	5124.85	4240.75
902.5598	1656.0019	5122.4	4240.6
902.7016	1657.7427	5127	4242.3
902.8434	1659.4828	5119.9	4236.6
902.9852	1661.222	5124.6	4237.65
903.127	1662.9606	5120.05	4235.4
903.2687	1664.6984	5133.4	4248.05
903.4105	1666.4354	5105.4	4219.45
903.5522	1668.1717	5095.05	4212.3
903.6939	1669.9072	5051.45	4165.75
903.8356	1671.642	5014.15	4126.65
903.9773	1673.3761	4966.45	4080.1
904.119	1675.1094	4950.3	4066.45
904.2606	1676.8419	4914.3	4029.5
904.4022	1678.5737	4861	3975.9
904.5439	1680.3048	4841.5	3956.6
904.6855	1682.0351	4822.05	3938.6
904.827	1683.7646	4789.85	3900.9
904.9686	1685.4934	4768.8	3885.3
905.1101	1687.2215	4761.55	3875.95
905.2517	1688.9488	4741.65	3857.8
905.3932	1690.6754	4715.65	3832.55
905.5347	1692.4012	4703.75	3815.9
905.6761	1694.1263	4683.55	3798.85
905.8176	1695.8506	4672.7	3787.25
905.9591	1697.5742	4662.6	3776.7
906.1005	1699.297	4633.8	3748.1
906.2419	1701.0191	4602.35	3717.55
906.3833	1702.7404	4603.45	3719.7
906.5246	1704.461	4584	3697.7
906.666	1706.1808	4566.05	3680.65
906.8073	1707.8999	4541.65	3658.95
906.9487	1709.6182	4528.7	3645.6
907.09	1711.3358	4524.15	3642.7
907.2313	1713.0527	4510.45	3628.75
907.3725	1714.7688	4489.35	3601.1
907.5138	1716.4841	4480.8	3595.35
907.655	1718.1987	4468	3578.25
907.7962	1719.9126	4462.4	3580.2
907.9374	1721.6257	4448.65	3563.95
908.0786	1723.338	4462	3578.95
908.2198	1725.0496	4433.9	3548.8
908.3609	1726.7605	4408.85	3526.1
908.502	1728.4706	4415.6	3532.4
908.6431	1730.18	4381.55	3493.7
908.7842	1731.8886	4370.9	3487.4
908.9253	1733.5964	4383.9	3494.7
909.0664	1735.3036	4384.4	3500
909.2074	1737.0099	4375.5	3493.25
909.3484	1738.7156	4355.45	3474.9
909.4894	1740.4204	4357.3	3470.1
909.6304	1742.1246	4348.75	3461.25
909.7714	1743.8279	4335.3	3450
909.9123	1745.5306	4331.5	3448.05
910.0532	1747.2325	4334.65	3452.4
910.1941	1748.9336	4331.05	3448.7
910.335	1750.634	4317.2	3431.15
910.4759	1752.3336	4319.25	3435.95
910.6168	1754.0325	4300.8	3418.05
910.7576	1755.7307	4289.8	3408.75
910.8984	1757.4281	4300.1	3414.85
911.0392	1759.1247	4297.25	3402.75
911.18	1760.8206	4281.5	3390.5
911.3208	1762.5158	4285.1	3397.4
911.4615	1764.2102	4267.55	3384.1
911.6022	1765.9039	4263.25	3378.65
911.7429	1767.5968	4250.05	3370.25
911.8836	1769.289	4229.95	3346.8
912.0243	1770.9804	4225.65	3341.65
912.1649	1772.6711	4234.6	3349.1
912.3056	1774.361	4213.75	3327.85
912.4462	1776.0502	4220.15	3333.7
912.5868	1777.7386	4196.3	3309.45
912.7274	1779.4263	4179.1	3294.85
912.8679	1781.1132	4186.5	3302.6
913.0084	1782.7994	4179.6	3295.05
913.149	1784.4849	4176.75	3294.7
913.2895	1786.1696	4171.2	3267.8
913.4299	1787.8535	4140.5	3259.75
913.5704	1789.5367	4145.9	3263.3
913.7108	1791.2192	4147.05	3266.5
913.8513	1792.9009	4141.75	3229.55
913.9917	1794.5818	4092.1	3206.3
914.132	1796.2621	4081.05	3197.8
914.2724	1797.9415	4121.3	3236.1
914.4128	1799.6202	4086.45	3202.7
914.5531	1801.2982	4076.95	3192.25
914.6934	1802.9755	4070.3	3185.95
914.8337	1804.6519	4059.85	3176
914.9739	1806.3277	4053.55	3171
915.1142	1808.0027	4036.7	3155.05
915.2544	1809.6769	4021.75	3140.1
915.3946	1811.3504	4019	3135.85
915.5348	1813.0231	4017.95	3134.4
915.675	1814.6951	4000.25	3116.55
915.8151	1816.3664	4009.75	3124.75
915.9553	1818.0369	4001.4	3116.4
916.0954	1819.7067	3993.9	3109.5
916.2355	1821.3757	3972.8	3086.2
916.3755	1823.044	3979.15	3095.15
916.5156	1824.7115	3960.5	3076.15
916.6556	1826.3783	3938.6	3056.8
916.7956	1828.0443	3927.65	3046.45
916.9356	1829.7096	3945.25	3060.5
917.0756	1831.3741	3946.9	3059.1
917.2155	1833.0379	3941.35	3059
917.3555	1834.701	3903.4	3018.15
917.4954	1836.3633	3903.45	3020.45
917.6353	1838.0248	3907.1	3021.75
917.7751	1839.6856	3885.75	3005.9
917.915	1841.3457	3894.45	3013.55
918.0548	1843.005	3889.15	3005.25
918.1946	1844.6636	3887	3004.25
918.3344	1846.3214	3862.65	2980
918.4742	1847.9785	3878.4	2995.3
918.6139	1849.6349	3849.95	2966.3
918.7537	1851.2904	3859.1	2964.5
918.8934	1852.9453	3836.85	2951.6
919.0331	1854.5994	3842	2956.35
919.1727	1856.2528	3834.05	2944.35
919.3124	1857.9054	3832.5	2947.35
919.452	1859.5572	3822.6	2939.45
919.5916	1861.2083	3808.4	2922.05
919.7312	1862.8587	3799.75	2915.6
919.8708	1864.5084	3802.7	2917.7
920.0103	1866.1572	3797.85	2914.95
920.1498	1867.8054	3783.4	2897.65
920.2893	1869.4528	3784.55	2901.15
920.4288	1871.0994	3761.45	2877.45
920.5683	1872.7453	3756.75	2871.25
920.7077	1874.3905	3747.25	2857.3
920.8471	1876.0349	3739.4	2855.9
920.9865	1877.6786	3752.75	2867
921.1259	1879.3215	3737.5	2854.35
921.2653	1880.9637	3733.2	2847.35
921.4046	1882.6051	3724.1	2841.25
921.5439	1884.2458	3719.9	2834.1
921.6832	1885.8858	3708.35	2821.7
921.8225	1887.525	3707.5	2822.8
921.9617	1889.1634	3687.2	2804.7
922.101	1890.8011	3672.75	2787.8
922.2402	1892.4381	3675.15	2793.4
922.3794	1894.0743	3672.95	2789
922.5185	1895.7098	3671.4	2788.25
922.6577	1897.3446	3665.75	2782.2
922.7968	1898.9786	3661.4	2773.95
922.9359	1900.6118	3651.3	2768.65
923.075	1902.2443	3639.25	2750.75
923.214	1903.8761	3623.8	2740.65
923.3531	1905.5071	3602.95	2715.95
923.4921	1907.1374	3610.35	2726.85
923.6311	1908.7669	3593.95	2711.6
923.77	1910.3957	3595.05	2710.35
923.909	1912.0237	3589.95	2706.05
924.0479	1913.651	3589.25	2704
924.1868	1915.2776	3566.05	2687
924.3257	1916.9034	3567.5	2686
924.4646	1918.5285	3547.55	2663.6
924.6034	1920.1528	3534.45	2648.7
924.7422	1921.7764	3529.8	2645.6
924.881	1923.3992	3529.15	2645.9
925.0198	1925.0213	3515	2632.75
925.1586	1926.6427	3499.05	2615.85
925.2973	1928.2633	3671.95	2570.45
925.436	1929.8832	3507.3	2620.15
925.5747	1931.5023	3486.1	2601.85
925.7134	1933.1207	3481	2595.8
925.852	1934.7383	3470.8	2586.8
925.9906	1936.3552	3449.75	2567.8
926.1292	1937.9714	3459.85	2578.5
926.2678	1939.5868	3456.9	2573.1
926.4064	1941.2015	3443.3	2559.45
926.5449	1942.8154	3428.35	2544.15
926.6834	1944.4286	3415.95	2532.1
926.8219	1946.041	3424.25	2520.6
926.9604	1947.6528	3396.35	2506.95
927.0988	1949.2637	3397	2513.75
927.2372	1950.8739	3390.45	2503.4
927.3756	1952.4834	3378.2	2496.65
927.514	1954.0921	3368.55	2484.1
927.6523	1955.7001	3359.4	2469.3
927.7907	1957.3074	3359.2	2476.95
927.929	1958.9139	3359.3	2477.8
928.0673	1960.5197	3346.05	2461.45
928.2055	1962.1247	3340.55	2457.9
928.3438	1963.729	3323.25	2443.4
928.482	1965.3325	3332.95	2426.35
928.6202	1966.9353	3312.4	2430.5
928.7584	1968.5374	3300.85	2415.5
928.8965	1970.1387	3308.75	2426.25
929.0346	1971.7393	3288.9	2402.95
929.1727	1973.3392	3279.5	2397.35
929.3108	1974.9383	3273.2	2391.05
929.4489	1976.5366	3257.35	2374.25
929.5869	1978.1342	3262.1	2380.45
929.7249	1979.7311	3263.15	2379.5
929.8629	1981.3273	3255.95	2374.5
930.0009	1982.9227	3263.1	2379.25
930.1388	1984.5173	3243.45	2360.5
930.2767	1986.1112	3227.15	2344.65
930.4146	1987.7044	3224.55	2343
930.5525	1989.2968	3226.95	2344.1
930.6904	1990.8885	3232.05	2346.5
930.8282	1992.4795	3222.1	2336.6
930.966	1994.0697	3195.45	2312.9
931.1038	1995.6592	3198.55	2317.4
931.2415	1997.2479	3196.85	2313.95
931.3793	1998.8359	3182.15	2299.8
931.517	2000.4232	3189.55	2309.25
931.6547	2002.0097	3183.7	2304.3
931.7923	2003.5955	3170.75	2289.95
931.93	2005.1805	3170.35	2286.65
932.0676	2006.7648	3166.85	2286.85
932.2052	2008.3484	3165	2282.9
932.3427	2009.9312	3168.65	2285.45
932.4803	2011.5133	3149.7	2271.55
932.6178	2013.0946	3141.05	2260.75
932.7553	2014.6752	3136.75	2258.15
932.8928	2016.2551	3134.3	2252.25
933.0302	2017.8342	3125.05	2244.9
933.1676	2019.4126	3125.5	2246.15
933.305	2020.9902	3115.35	2235.65
933.4424	2022.5672	3115.25	2233.55
933.5798	2024.1433	3114.45	2229.6
933.7171	2025.7188	3098.85	2220.6
933.8544	2027.2935	3096.5	2214.6
933.9917	2028.8674	3105.5	2224.65
934.129	2030.4406	3090.05	2214.7
934.2662	2032.0131	3086.6	2208.2
934.4034	2033.5849	3081.1	2190.95
934.5406	2035.1559	3059.45	2180.45
934.6778	2036.7261	3069.9	2189.6
934.8149	2038.2957	3040.8	2160.2
934.952	2039.8645	3059.45	2178.4
935.0891	2041.4325	3071.45	2188.65
935.2262	2042.9998	3051.9	2173.7
935.3632	2044.5664	3052.15	2169.75
935.5002	2046.1323	3056.75	2177.6
935.6372	2047.6974	3048.85	2169.35
935.7742	2049.2617	3031.95	2152.85
935.9111	2050.8254	3036.65	2152.35
936.048	2052.3883	3038.45	2156.55
936.1849	2053.9504	3022.95	2141.6
936.3218	2055.5118	3031.55	2150.1
936.4586	2057.0725	3016.95	2130.95
936.5955	2058.6325	3013.75	2133.75
936.7323	2060.1917	3004.5	2126
936.869	2061.7502	3011.7	2128.85
937.0058	2063.3079	3011.8	2132.2
937.1425	2064.8649	2993.4	2111.5
937.2792	2066.4212	3001.3	2121.2
937.4159	2067.9767	2986.05	2106.55
937.5525	2069.5315	2988.2	2107.65
937.6891	2071.0856	2975.65	2096.65
937.8257	2072.6389	2966.2	2084
937.9623	2074.1915	2960	2081.2
938.0989	2075.7433	2956.95	2075.8
938.2354	2077.2945	2960.2	2081
938.3719	2078.8448	2958.4	2077.65
938.5084	2080.3945	2949.25	2067.35
938.6448	2081.9434	2941.4	2061.65
938.7812	2083.4916	2935.3	2053.55
938.9176	2085.039	2927.95	2044
939.054	2086.5857	2924.85	2041.9
939.1903	2088.1317	2916.65	2033.15
939.3267	2089.677	2911.15	2030
939.463	2091.2215	2917.3	2036.25
939.5992	2092.7652	2929.85	2044.55
939.7355	2094.3083	2916.95	2034.1
939.8717	2095.8506	2913.5	2033.4
940.0079	2097.3921	2911.15	2030.35
940.1441	2098.933	2903.7	2023.85
940.2802	2100.4731	2909.35	2026.45
940.4163	2102.0124	2917.95	2022.8
940.5524	2103.5511	2895.65	2015.25
940.6885	2105.089	2895.25	2014.5
940.8245	2106.6261	2899.1	2016.75
940.9606	2108.1626	2886.35	2002.55
941.0965	2109.6983	2908.55	1998.6
941.2325	2111.2332	2887.75	2005.3
941.3684	2112.7675	2889.2	2007.1
941.5044	2114.301	2875.15	1994.35
941.6403	2115.8337	2879.8	1999.1
941.7761	2117.3657	2868.25	1986.9
941.912	2118.897	2863.7	1981.1
942.0478	2120.4276	2869.7	1981.85
942.1835	2121.9575	2865.1	1982.6
942.3193	2123.4866	2862.1	1977.75
942.455	2125.0149	2854.2	1972.7
942.5907	2126.5426	2840.65	1961.35
942.7264	2128.0695	2843.15	1959.35
942.8621	2129.5956	2828.15	1950.1
942.9977	2131.1211	2842.15	1957.5
943.1333	2132.6458	2839.75	1959.55
943.2689	2134.1698	2827.6	1946.5
943.4044	2135.693	2820.25	1935.9
943.54	2137.2155	2826	1943.05
943.6755	2138.7373	2812.65	1934.05
943.8109	2140.2584	2822.8	1940.3
943.9464	2141.7787	2810.45	1925.25
944.0818	2143.2983	2804	1925.05
944.2172	2144.8171	2807.15	1928.65
944.3526	2146.3353	2788.45	1904.45
944.4879	2147.8527	2782.1	1901.9
944.6232	2149.3693	2790.3	1908.1
944.7585	2150.8853	2782.2	1899.85
944.8938	2152.4005	2777.05	1895.8
945.029	2153.9149	2762.9	1881.65
945.1642	2155.4287	2767.6	1886.05
945.2994	2156.9417	2763.4	1879.5
945.4346	2158.454	2771.85	1889.7
945.5697	2159.9655	2759.7	1877.05
945.7048	2161.4764	2759.55	1880.75
945.8399	2162.9865	2737.05	1855.2
945.9749	2164.4958	2740.6	1858.45
946.1099	2166.0045	2725.65	1842.7
946.2449	2167.5124	2720.25	1840.25
946.3799	2169.0195	2726.65	1847.05
946.5148	2170.526	2725.3	1842.75
946.6498	2172.0317	2716.05	1834.65
946.7846	2173.5367	2716.3	1834
946.9195	2175.0409	2697.8	1814.9
947.0543	2176.5445	2714.9	1836.2
947.1891	2178.0473	2702.9	1822.35
947.3239	2179.5494	2702	1817.55
947.4587	2181.0507	2686.4	1806.95
947.5934	2182.5513	2682.6	1799.95
947.7281	2184.0512	2682.65	1801.35
947.8628	2185.5504	2673.7	1791.45
947.9974	2187.0488	2664.9	1784.95
948.132	2188.5465	2668.85	1790.45
948.2666	2190.0435	2660.5	1780.25
948.4012	2191.5397	2648.9	1767.4
948.5357	2193.0353	2661	1780.45
948.6702	2194.5301	2646.35	1763.05
948.8047	2196.0241	2654	1772.4
948.9392	2197.5175	2632.6	1748.8
949.0736	2199.0101	2631.45	1746.85
949.208	2200.502	2622.45	1743.85
949.3424	2201.9931	2607.4	1727.1
949.4767	2203.4835	2605.7	1722.2
949.611	2204.9733	2617.65	1732.05
949.7453	2206.4622	2614.85	1736
949.8796	2207.9505	2595.9	1712.2
950.0138	2209.438	2586.75	1708
950.148	2210.9248	2592.5	1709.45
950.2822	2212.4109	2579.15	1698.7
950.4164	2213.8962	2583.75	1699.4
950.5505	2215.3809	2580.95	1697.95
950.6846	2216.8648	2563.05	1680.45
950.8186	2218.3479	2558.45	1672.2
950.9527	2219.8304	2560.75	1674.3
951.0867	2221.3121	2551.4	1667.3
951.2207	2222.7931	2540.95	1659.4
951.3546	2224.2733	2547.4	1665.3
951.4886	2225.7529	2529.85	1648.35
951.6225	2227.2317	2525.1	1642.8
951.7563	2228.7098	2526.1	1646.05
951.8902	2230.1872	2516.15	1638.35
952.024	2231.6638	2515.85	1635.05
952.1578	2233.1397	2521.4	1635.1
952.2916	2234.6149	2509.15	1630.5
952.4253	2236.0894	2488.2	1608.2
952.559	2237.5632	2494.05	1605.3
952.6927	2239.0362	2488.5	1608.9
952.8263	2240.5085	2486.75	1605.9
952.9599	2241.9801	2466.9	1585.6
953.0935	2243.4509	2476.2	1594.05
953.2271	2244.921	2474.35	1591.3
953.3606	2246.3904	2458.6	1574.45
953.4941	2247.8591	2460.4	1578.55
953.6276	2249.3271	2458.35	1576.75
953.7611	2250.7943	2459.35	1577.45
953.8945	2252.2608	2443.55	1563.95
954.0279	2253.7266	2425.55	1544.8
954.1612	2255.1917	2431.3	1552.75
954.2946	2256.656	2434	1554.15
954.4279	2258.1197	2419.1	1538
954.5612	2259.5826	2430.6	1548.75
954.6944	2261.0447	2422.85	1540.4
954.8276	2262.5062	2414.25	1530.3
954.9608	2263.9669	2413.65	1527.25
955.094	2265.4269	2409.9	1530.8
955.2271	2266.8862	2400.2	1518.1
955.3602	2268.3448	2403.5	1523
955.4933	2269.8026	2406	1523.85
955.6264	2271.2598	2403.25	1523.5
955.7594	2272.7162	2381.65	1504
955.8924	2274.1719	2382.6	1500.3
956.0253	2275.6268	2378.1	1498.95
956.1583	2277.0811	2383.1	1500.3
956.2912	2278.5346	2369.75	1489.6
956.4241	2279.9874	2370	1489.95
956.5569	2281.4395	2361.35	1480.4
956.6897	2282.8908	2355.75	1471.1
956.8225	2284.3414	2352.05	1470.1
956.9553	2285.7914	2348.8	1469.65
957.088	2287.2406	2342	1459.9
957.2207	2288.689	2345	1461.9
957.3534	2290.1368	2327.8	1443.8
957.486	2291.5838	2339.9	1456.15
957.6186	2293.0302	2339.1	1454.7
957.7512	2294.4758	2328.55	1445.75
957.8838	2295.9206	2312.75	1428.3
958.0163	2297.3648	2307.35	1426.15
958.1488	2298.8082	2326.05	1443.5
958.2813	2300.251	2305.9	1424.6
958.4137	2301.693	2300.3	1418
958.5461	2303.1343	2298.25	1417.05
958.6785	2304.5748	2295.4	1416.75
958.8108	2306.0147	2282.2	1401.3
958.9432	2307.4538	2282.05	1397.85
959.0754	2308.8922	2288.35	1409.05
959.2077	2310.3299	2279.3	1398.85
959.3399	2311.7669	2273.1	1393.95
959.4721	2313.2031	2261.4	1380.9
959.6043	2314.6387	2255.6	1373.3
959.7365	2316.0735	2261.25	1378.85
959.8686	2317.5076	2252.5	1370.75
960.0006	2318.941	2250.5	1369.75
960.1327	2320.3737	2262.3	1380.7
960.2647	2321.8056	2253.3	1369.55
960.3967	2323.2369	2245.25	1364.8
960.5287	2324.6674	2241.55	1356.05
960.6606	2326.0972	2238.85	1355.85
960.7925	2327.5263	2233.25	1352.6
960.9244	2328.9547	2239.35	1356.25
961.0562	2330.3823	2228.75	1346.05
961.1881	2331.8092	2224.55	1338.9
961.3198	2333.2355	2215.25	1335.8
961.4516	2334.661	2219.9	1337.9
961.5833	2336.0858	2214.4	1330.6
961.715	2337.5098	2189.8	1311.2
961.8467	2338.9332	2193.2	1309.6
961.9783	2340.3558	2191	1307.6
962.1099	2341.7778	2193.1	1312.5
962.2415	2343.199	2177.95	1294.55
962.373	2344.6195	2175	1295.9
962.5045	2346.0393	2182.6	1300.55
962.636	2347.4583	2179.65	1298.15
962.7675	2348.8767	2162.7	1278.65
962.8989	2350.2943	2167.6	1285.5
963.0303	2351.7113	2151.4	1266.75
963.1617	2353.1275	2153.55	1271.9
963.293	2354.543	2156.65	1264.55
963.4243	2355.9578	2148.65	1266.35
963.5556	2357.3718	2140.2	1258.75
963.6868	2358.7852	2146.05	1262.15
963.818	2360.1978	2126.6	1246.1
963.9492	2361.6098	2123.2	1242.2
964.0803	2363.021	2133.8	1249.3
964.2114	2364.4315	2122.95	1239.55
964.3425	2365.8413	2109.75	1225.8
964.4736	2367.2504	2109.3	1227.6
964.6046	2368.6587	2096.45	1214.05
964.7356	2370.0664	2084.65	1202.2
964.8666	2371.4733	2093.8	1211.45
964.9975	2372.8795	2077.3	1197.7
965.1284	2374.285	2083.6	1199.55
965.2593	2375.6899	2074.05	1192.35
965.3901	2377.0939	2075.6	1194.2
965.5209	2378.4973	2063.9	1181.45
965.6517	2379.9	2053.3	1170.25
965.7825	2381.3019	2060.1	1179.2
965.9132	2382.7032	2043.85	1163.5
966.0439	2384.1037	2055.8	1176.45
966.1745	2385.5035	2046	1163.45
966.3051	2386.9027	2047.45	1167.65
966.4357	2388.3011	2040.65	1157.05
966.5663	2389.6987	2030.2	1147.7
966.6968	2391.0957	2021.45	1141.05
966.8273	2392.492	2027.9	1145.85
966.9578	2393.8876	2012.65	1129.65
967.0882	2395.2824	2010.15	1128.9
967.2186	2396.6765	1992.55	1109.9
967.349	2398.07	1987.9	1104.95
967.4793	2399.4627	1998.8	1113.8
967.6097	2400.8547	1994.8	1111
967.7399	2402.246	1995.45	1104.95
967.8702	2403.6366	1980.25	1096.25
968.0004	2405.0265	1973.75	1091.5
968.1306	2406.4156	1973.9	1088.6
968.2607	2407.8041	1971.6	1087.55
968.3909	2409.1918	1964.4	1078.9
968.521	2410.5789	1956.9	1075.1
968.651	2411.9652	1955.9	1070.05
968.781	2413.3508	1944.7	1063.55
968.911	2414.7358	1948.85	1064.65
969.041	2416.12	1942.55	1059.7
969.1709	2417.5035	1937.45	1054.9
969.3008	2418.8863	1930.05	1045.85
969.4307	2420.2684	1935.25	1054.25
969.5606	2421.6497	1914.7	1029.15
969.6904	2423.0304	1914.25	1032
969.8201	2424.4104	1910.9	1029.35
969.9499	2425.7896	1914.7	1030.85
970.0796	2427.1682	1910.2	1029.85
970.2093	2428.546	1906.55	1021.85
970.3389	2429.9232	1905.55	1023.55
970.4685	2431.2996	1898.65	1013.35
970.5981	2432.6753	1897.15	1015.25
970.7277	2434.0503	1893.5	1009.65
970.8572	2435.4246	1886.7	1005.15
970.9867	2436.7982	1883.55	998.55
971.1161	2438.1711	1881.5	999.15
971.2456	2439.5433	1878.4	994.65
971.375	2440.9148	1875.2	986.4
971.5043	2442.2856	1872.75	990
971.6336	2443.6557	1866.55	982.2
971.7629	2445.025	1864.95	984.2
971.8922	2446.3937	1859.05	975.8
972.0214	2447.7617	1858.65	975.55
972.1506	2449.1289	1857.75	974.8
972.2798	2450.4955	1853.85	969.05
972.4089	2451.8613	1853.4	972.3
972.538	2453.2265	1838.15	955.9
972.6671	2454.5909	1842.25	961.15
972.7961	2455.9546	1842.4	957.85
972.9251	2457.3177	1838.35	956.05
973.0541	2458.68	1838.75	954.35
973.1831	2460.0416	1833	951.25
973.312	2461.4025	1823.15	938.8
973.4408	2462.7627	1834.1	940.45
973.5697	2464.1222	1829.85	950.15
973.6985	2465.4811	1825.4	943.55
973.8273	2466.8392	1824.1	942.6
973.956	2468.1966	1820.85	936
974.0847	2469.5533	1817.2	934.4
974.2134	2470.9093	1811.85	929.05
974.3421	2472.2645	1803.85	917.9
974.4707	2473.6191	1797.1	915.3
974.5993	2474.973	1797.15	914.45
974.7278	2476.3262	1800.25	914.5
974.8563	2477.6787	1784.45	903.3
974.9848	2479.0305	1781.4	899.7
975.1132	2480.3816	1782.25	897.2
975.2417	2481.7319	1783.65	903.65
975.37	2483.0816	1773	888.15
975.4984	2484.4306	1781.55	899.5
975.6267	2485.7789	1777.45	896.25
975.755	2487.1264	1768.85	884.8
975.8833	2488.4733	1756.75	875.15
976.0115	2489.8195	1764.7	873.95
976.1397	2491.165	1760.5	874.9
976.2678	2492.5097	1766.05	883.1
976.3959	2493.8538	1754.3	874.65
976.524	2495.1972	1752.7	870.15
976.6521	2496.5398	1751.4	868.1
976.7801	2497.8818	1741.75	859.2
976.9081	2499.2231	1738.8	855.75
977.036	2500.5637	1730.2	845.7
977.164	2501.9035	1733.5	848.8
977.2918	2503.2427	1731.35	843.85
977.4197	2504.5812	1725.15	843.65
977.5475	2505.919	1729.4	842.95
977.6753	2507.256	1728.9	848.8
977.8031	2508.5924	1713.35	830.55
977.9308	2509.9281	1718.1	829.1
978.0585	2511.2631	1711.1	828.2
978.1861	2512.5974	1704.9	824
978.3137	2513.9309	1703.45	821
978.4413	2515.2638	1727.25	812.7
978.5689	2516.596	1703	820.3
978.6964	2517.9275	1701.4	819.2
978.8239	2519.2583	1688.25	807.55
978.9513	2520.5884	1691.2	806.3
979.0788	2521.9178	1686.1	802.35
979.2062	2523.2465	1687.6	806.9
979.3335	2524.5745	1680.5	797.15
979.4608	2525.9018	1666.85	784.4
979.5881	2527.2284	1674.7	793.1
979.7154	2528.5543	1668.85	788.3
979.8426	2529.8796	1682.2	799.7
979.9698	2531.2041	1664.35	783.05
980.0969	2532.5279	1663	783.2
980.224	2533.851	1667.3	784.9
980.3511	2535.1735	1658.9	776.4
980.4781	2536.4952	1660.35	777.75
980.6052	2537.8163	1652.85	767.85
980.7321	2539.1366	1641.2	758.9
980.8591	2540.4562	1651.65	769.3
980.986	2541.7752	1649.65	769.25
981.1129	2543.0935	1654.05	772.9
981.2397	2544.411	1652.6	769.9
981.3665	2545.7279	1640.2	757.9
981.4933	2547.0441	1639	755.8
981.62	2548.3596	1640.5	757.2
981.7467	2549.6744	1637.7	756.5
981.8734	2550.9885	1648.2	755.95
982.0001	2552.3019	1623.05	741.65
982.1267	2553.6146	1628.15	743.6
982.2532	2554.9266	1629.5	746.1
982.3798	2556.2379	1624.8	741.6
982.5063	2557.5485	1615	734
982.6327	2558.8585	1628.35	739.1
982.7592	2560.1677	1623.75	737.25
982.8856	2561.4762	1616.9	735.75
983.0119	2562.7841	1614.55	729.9
983.1383	2564.0913	1611.5	729.75
983.2646	2565.3977	1608.9	728.05
983.3908	2566.7035	1606.2	724.15
983.517	2568.0086	1599.5	716.7
983.6432	2569.313	1603.85	718.95
983.7694	2570.6167	1595.55	709.35
983.8955	2571.9197	1599.25	715.15
984.0216	2573.222	1599.2	715.75
984.1476	2574.5236	1598.8	716.35
984.2737	2575.8246	1596.9	712.9
984.3996	2577.1248	1595.3	710.8
984.5256	2578.4244	1586.5	704.55
984.6515	2579.7232	1587.1	704.5
984.7774	2581.0214	1609.5	701.65
984.9032	2582.3189	1591.1	710.55
985.029	2583.6157	1585.9	698
985.1548	2584.9118	1582.5	702.2
985.2806	2586.2072	1577.2	693.8
985.4063	2587.5019	1580.3	698.7
985.5319	2588.7959	1570.35	687.7
985.6576	2590.0893	1569.8	687.5
985.7832	2591.3819	1570	687.6
985.9087	2592.6739	1565.6	685.3
986.0343	2593.9652	1568.2	685
986.1597	2595.2557	1562.75	680.5
986.2852	2596.5456	1552.75	667.35
986.4106	2597.8348	1555.45	674.25
986.536	2599.1234	1550.3	670.2
986.6614	2600.4112	1543.65	659.95
986.7867	2601.6983	1550.6	667
986.912	2602.9848	1540.15	657.15
987.0372	2604.2705	1549.85	660.2
987.1624	2605.5556	1535.35	653.2
987.2876	2606.84	1527.6	644.05
987.4128	2608.1237	1534.15	650.55
987.5379	2609.4067	1522.8	640.9
987.6629	2610.689	1532.2	639.95
987.788	2611.9707	1521.05	634.25
987.913	2613.2516	1519.5	635.45
988.0379	2614.5319	1513.15	630.3
988.1629	2615.8115	1511.4	627.55
988.2878	2617.0903	1512.1	629.45
988.4126	2618.3685	1506.6	624.25
988.5375	2619.6461	1504.35	622.7
988.6622	2620.9229	1501.1	618.6
988.787	2622.199	1502.5	619.85
988.9117	2623.4745	1502.55	621.45
989.0364	2624.7493	1495.1	613.2
989.161	2626.0234	1481.45	601.45
989.2857	2627.2968	1487.05	606.45
989.4102	2628.5695	1480.25	596.6
989.5348	2629.8415	1484.45	601.55
989.6593	2631.1128	1474	589.5
989.7837	2632.3835	1473.55	590.95
989.9082	2633.6535	1477.1	596.5
990.0326	2634.9228	1473.7	591.65
990.1569	2636.1914	1467.3	585.85
990.2812	2637.4593	1469.15	579.9
990.4055	2638.7265	1464.85	583.35
990.5298	2639.9931	1464.4	584.4
990.654	2641.259	1462.7	579.45
990.7782	2642.5242	1456.15	573.5
990.9023	2643.7887	1456.7	572.8
991.0264	2645.0525	1455.8	573.2
991.1505	2646.3156	1450.1	566.1
991.2745	2647.5781	1444.55	563.55
991.3985	2648.8398	1448.2	567.3
991.5225	2650.1009	1454.05	564.3
991.6464	2651.3613	1441.55	558.9
991.7703	2652.6211	1438.55	556.6
991.8942	2653.8801	1442	560.45
992.018	2655.1385	1435.45	551.35
992.1418	2656.3961	1432.55	550.9
992.2655	2657.6531	1435.3	554.05
992.3892	2658.9094	1431.25	548.5
992.5129	2660.1651	1426.7	544
992.6366	2661.42	1424.65	542.9
992.7602	2662.6743	1423	539.1
992.8837	2663.9279	1424.9	544.7
993.0073	2665.1808	1418.3	535.45
993.1307	2666.433	1427.1	544.45
993.2542	2667.6846	1414.65	531.6
993.3776	2668.9354	1417.85	534.1
993.501	2670.1856	1410.9	528.6
993.6244	2671.4351	1411.7	529.2
993.7477	2672.6839	1417.25	532.35
993.8709	2673.9321	1412.8	532.35
993.9942	2675.1795	1406.8	527.55
994.1174	2676.4263	1406.85	524.6
994.2405	2677.6724	1398.9	517.15
994.3637	2678.9179	1402.85	518.2
994.4868	2680.1626	1403.9	521.6
994.6098	2681.4067	1397.85	515.7
994.7328	2682.6501	1396.3	514.2
994.8558	2683.8928	1390.3	508.5
994.9788	2685.1348	1389.3	507.95
995.1017	2686.3761	1393.4	512
995.2245	2687.6168	1387.35	507.15
995.3474	2688.8568	1380	499.85
995.4702	2690.0961	1384	503.3
995.5929	2691.3348	1382.35	499.5
995.7156	2692.5727	1381.65	501.2
995.8383	2693.81	1374.1	492.8
995.961	2695.0466	1371.85	491.05
996.0836	2696.2826	1374.15	492.45
996.2062	2697.5178	1390.65	489.6
996.3287	2698.7524	1372.1	488.75
996.4512	2699.9863	1363.95	477.5
996.5737	2701.2195	1358.3	477.3
996.6961	2702.452	1366.1	483.75
996.8185	2703.6839	1364.25	482.35
996.9408	2704.9151	1365.9	483.05
997.0631	2706.1456	1361.85	481.35
997.1854	2707.3755	1353.9	470.4
997.3077	2708.6046	1364.5	481.55
997.4299	2709.8331	1355.2	471.35
997.552	2711.0609	1354.55	472.85
997.6742	2712.2881	1347.8	464
997.7963	2713.5145	1350.8	465.85
997.9183	2714.7403	1346.1	465.7
998.0403	2715.9654	1351.2	468.8
998.1623	2717.1899	1357.05	460.8
998.2842	2718.4136	1338.6	456.85
998.4062	2719.6367	1335.5	454.85
998.528	2720.8591	1350.85	461.5
998.6498	2722.0809	1337.05	454.6
998.7716	2723.3019	1337.8	453.2
998.8934	2724.5223	1335.35	452.15
999.0151	2725.7421	1332.3	448.4
999.1368	2726.9611	1338.9	454.05
999.2584	2728.1795	1333.1	445.65
999.38	2729.3972	1329.1	448.25
999.5016	2730.6142	1336.25	440.65
999.6231	2731.8306	1321.8	438.15
999.7446	2733.0462	1318.3	433
999.8661	2734.2612	1318.4	431.5
999.9875	2735.4756	1316	432.4
1000.1089	2736.6892	1310.45	429.7
1000.2302	2737.9022	1306.55	425.75
1000.3515	2739.1145	1307.75	425.15
1000.4728	2740.3262	1310.25	419.25
1000.594	2741.5372	1305.25	423.1
1000.7152	2742.7475	1302.8	419.7
1000.8363	2743.9571	1300.1	417.95
1000.9575	2745.1661	1299.85	412
1001.0785	2746.3744	1292	408.4
1001.1996	2747.582	1291.45	410.9
1001.3206	2748.7889	1290.6	407.85
1001.4415	2749.9952	1288.2	408.35
1001.5625	2751.2008	1286.65	404.7
1001.6833	2752.4057	1289.25	405.9
1001.8042	2753.61	1285.45	403.25
1001.925	2754.8136	1279	396.3
1002.0458	2756.0165	1278.55	398.4
1002.1665	2757.2188	1278.95	398.95
1002.2872	2758.4204	1280	400.55
1002.4078	2759.6213	1277.75	396.3
1002.5285	2760.8215	1277.9	392.85
1002.649	2762.0211	1272.25	389.7
1002.7696	2763.22	1274.75	390.45
1002.8901	2764.4182	1272.45	390.4
1003.0106	2765.6158	1272.4	389.65
1003.131	2766.8127	1262.8	380.1
1003.2514	2768.009	1265.95	386
1003.3717	2769.2045	1264.2	380.7
1003.492	2770.3994	1260.4	377.2
1003.6123	2771.5936	1257.55	375.45
1003.7325	2772.7872	1256.7	375.95
1003.8527	2773.9801	1255.9	374.25
1003.9729	2775.1723	1268.25	370.2
1004.093	2776.3639	1249.6	370.75
1004.2131	2777.5548	1252.5	368.6
1004.3331	2778.745	1248.6	366.5
1004.4531	2779.9346	1250.45	370.85
1004.5731	2781.1235	1242.3	359.2
1004.693	2782.3117	1240.2	361.15
1004.8129	2783.4992	1239.2	358.25
1004.9328	2784.6861	1241.35	360.7
1005.0526	2785.8723	1242.05	359.4
1005.1723	2787.0579	1242.75	360.05
1005.2921	2788.2428	1235.35	352.1
1005.4118	2789.427	1232.5	353.25
1005.5314	2790.6106	1233.8	353.7
1005.651	2791.7935	1229	348.65
1005.7706	2792.9757	1230.05	349.75
1005.8902	2794.1573	1226.8	344.1
1006.0097	2795.3382	1226.45	347.3
1006.1291	2796.5184	1221.25	341.9
1006.2485	2797.698	1230.6	347.8
1006.3679	2798.8769	1221.85	340
1006.4873	2800.0551	1216.95	332.35
1006.6066	2801.2327	1213.15	329.45
1006.7258	2802.4096	1222.35	341.8
1006.8451	2803.5859	1215.35	333.45
1006.9642	2804.7615	1217.6	336.1
1007.0834	2805.9364	1211.35	330.45
1007.2025	2807.1106	1214.8	334.6
1007.3216	2808.2842	1211.9	327.8
1007.4406	2809.4572	1213.15	333.05
1007.5596	2810.6294	1215.8	335.5
1007.6785	2811.801	1212.3	330.6
1007.7975	2812.972	1207.3	326.8
1007.9163	2814.1423	1204.1	322.35
1008.0352	2815.3119	1209.25	328.65
1008.154	2816.4808	1215.45	336.05
1008.2727	2817.6491	1210.65	329.95
1008.3914	2818.8167	1211.7	333.05
1008.5101	2819.9837	1216.75	330.8
1008.6288	2821.15	1217.85	335.1
1008.7474	2822.3157	1225.45	345
1008.8659	2823.4807	1224.3	342.75
1008.9844	2824.645	1224.2	341.3
1009.1029	2825.8086	1229	348.35
1009.2214	2826.9716	1237	354.1
1009.3398	2828.134	1238.35	357.4
1009.4581	2829.2957	1245.65	364.3
1009.5764	2830.4567	1238.95	360.8
1009.6947	2831.617	1243.2	362.75
1009.813	2832.7767	1240	359.7
1009.9312	2833.9358	1244.1	363.4
1010.0493	2835.0941	1237.55	355
1010.1675	2836.2519	1240.85	359.9
1010.2855	2837.4089	1234.7	352.6
1010.4036	2838.5653	1231.35	348.45
1010.5216	2839.7211	1230.15	349.8
1010.6396	2840.8761	1231.1	350.05
1010.7575	2842.0306	1224.2	344.45
1010.8754	2843.1843	1227.95	347.5
1010.9932	2844.3374	1222.2	341.4
1011.111	2845.4899	1226.35	346.15
1011.2288	2846.6417	1223.75	342.35
1011.3465	2847.7928	1227.5	348.25
1011.4642	2848.9433	1222.95	342.95
1011.5818	2850.0931	1224.4	342.85
1011.6995	2851.2422	1220.05	338.15
1011.817	2852.3907	1223.7	340.8
1011.9345	2853.5385	1227.2	345.3
1012.052	2854.6857	1236.8	346.7
1012.1695	2855.8323	1221.5	339.8
1012.2869	2856.9781	1224.65	342.95
1012.4042	2858.1233	1225.75	344.25
1012.5216	2859.2679	1227.3	345.95
1012.6389	2860.4118	1237	355.65
1012.7561	2861.555	1234.85	348.75
1012.8733	2862.6976	1230.5	348.5
1012.9905	2863.8395	1230.55	351.2
1013.1076	2864.9808	1233.15	353.2
1013.2247	2866.1214	1229.85	351
1013.3417	2867.2614	1232.8	350.15
1013.4587	2868.4007	1232.25	351.7
1013.5757	2869.5393	1231.25	348.8
1013.6926	2870.6773	1230.5	347.05
1013.8095	2871.8146	1229.6	345.5
1013.9263	2872.9513	1231.25	347.7
1014.0431	2874.0874	1222.8	343.05
1014.1599	2875.2227	1227.55	346.75
1014.2766	2876.3574	1228.9	349.65
1014.3933	2877.4915	1231.4	350.3
1014.51	2878.6249	1225.8	347.3
1014.6266	2879.7577	1232.15	351.35
1014.7431	2880.8898	1234.2	343.95
1014.8596	2882.0212	1226.1	345.65
1014.9761	2883.152	1231.65	348.95
1015.0925	2884.2821	1228.4	350.25
1015.2089	2885.4116	1227.75	347.7
1015.3253	2886.5405	1226.1	346
1015.4416	2887.6686	1236.85	353.8
1015.5579	2888.7962	1227.65	348.7
1015.6741	2889.923	1228.4	349.15
1015.7903	2891.0493	1228.4	350.9
1015.9065	2892.1748	1225.45	343.85
1016.0226	2893.2997	1230.1	348.25
1016.1387	2894.424	1223.45	344.25
1016.2547	2895.5476	1220.3	339.9
1016.3707	2896.6706	1216.1	336.65
1016.4866	2897.7929	1223.65	341.4
1016.6025	2898.9145	1225.8	343.05
1016.7184	2900.0355	1220.1	341.35
1016.8342	2901.1559	1216.1	335.25
1016.95	2902.2756	1215.8	337.6
1017.0658	2903.3946	1211.15	331.35
1017.1815	2904.513	1218.5	335.5
1017.2971	2905.6308	1211.65	331.5
1017.4127	2906.7479	1207.45	327.9
1017.5283	2907.8643	1209.35	326.2
1017.6439	2908.9801	1204.45	323.4
1017.7594	2910.0953	1203.7	323.05
1017.8748	2911.2098	1206.45	322.35
1017.9902	2912.3236	1209.85	322
1018.1056	2913.4368	1209.2	327.65
1018.2209	2914.5494	1204.15	323.3
1018.3362	2915.6613	1207.85	321.4
1018.4515	2916.7725	1196.3	313.35
1018.5667	2917.8831	1198.2	316.35
1018.6819	2918.9931	1197	315.45
1018.797	2920.1024	1196.4	314.85
1018.9121	2921.211	1190.55	309.25
1019.0271	2922.319	1179	298.75
1019.1421	2923.4264	1188.6	308.65
1019.2571	2924.5331	1183.7	306.3
1019.372	2925.6391	1183.2	302.35
1019.4869	2926.7445	1180.9	300.4
1019.6017	2927.8493	1182.4	301.8
1019.7165	2928.9534	1177.25	296.9
1019.8313	2930.0569	1181.1	296
1019.946	2931.1597	1182.55	303.1
1020.0606	2932.2619	1177.3	293.95
1020.1753	2933.3634	1178.45	298.05
1020.2899	2934.4643	1185.55	299.5
1020.4044	2935.5645	1192	307.3
1020.5189	2936.6641	1179.85	295.9
1020.6334	2937.763	1182.6	302.4
1020.7478	2938.8613	1180.5	299.65
1020.8622	2939.959	1181.05	294.1
1020.9765	2941.056	1174.7	295.4
1021.0908	2942.1523	1165.65	283.7
1021.2051	2943.248	1162.4	281.1
1021.3193	2944.3431	1154.2	272.3
1021.4334	2945.4375	1150.9	269.75
1021.5476	2946.5313	1146.25	267.8
1021.6617	2947.6244	1138.45	256.3
1021.7757	2948.7169	1138.85	260.6
1021.8897	2949.8087	1126.85	247.65
1022.0037	2950.8999	1126.2	247.6
1022.1176	2951.9904	1118.3	236.1
1022.2315	2953.0803	1121.1	239.55
1022.3453	2954.1696	1115.35	233.6
1022.4591	2955.2582	1107.55	228.9
1022.5728	2956.3462	1106.2	225.25
1022.6865	2957.4335	1107.15	224.8
1022.8002	2958.5202	1109.85	228.05
1022.9138	2959.6062	1108.8	228.4
1023.0274	2960.6916	1104.1	223.65
1023.141	2961.7764	1105.95	225.3
1023.2545	2962.8605	1106.8	224.95
1023.3679	2963.9439	1104.6	225.7
1023.4813	2965.0267	1101.1	220.4
1023.5947	2966.1089	1114	211.85
1023.708	2967.1905	1097.45	219.65
1023.8213	2968.2714	1092	212.5
1023.9346	2969.3516	1088.65	210
1024.0478	2970.4312	1098.75	212.2
1024.1609	2971.5102	1089.2	210.75
1024.274	2972.5885	1090.9	213.35
1024.3871	2973.6662	1101.4	214.2
1024.5002	2974.7432	1089.05	211.05
1024.6132	2975.8196	1092.75	211.9
1024.7261	2976.8954	1087.75	208.2
1024.839	2977.9705	1085.8	205.75
1024.9519	2979.045	1088.1	207.8
1025.0647	2980.1188	1086.95	206.8
1025.1775	2981.192	1081	202.6
1025.2902	2982.2645	1089.1	208.75
1025.4029	2983.3364	1082.6	204.6
1025.5156	2984.4077	1083.3	203.95
1025.6282	2985.4783	1082.8	196.05
1025.7407	2986.5483	1071.65	192.6
1025.8532	2987.6177	1075.1	194.4
1025.9657	2988.6864	1073.2	194.35
1026.0782	2989.7545	1072.35	190.35
1026.1906	2990.8219	1066.4	186.95
1026.3029	2991.8887	1067.7	186.15
1026.4152	2992.9548	1062.7	181.45
1026.5275	2994.0204	1059.6	181.55
1026.6397	2995.0852	1058.35	179
1026.7519	2996.1495	1051.9	170.2
1026.864	2997.2131	1057	178.6
1026.9761	2998.276	1053.05	173.15
1027.0882	2999.3383	1047.65	165.85
1027.2002	3000.4	1049.35	168.4
1027.3122	3001.4611	1045.3	164.85
1027.4241	3002.5215	1044.2	165.1
1027.536	3003.5812	1042.4	162.25
1027.6478	3004.6404	1039.75	161.7
1027.7596	3005.6989	1045.25	164.55
1027.8714	3006.7567	1040.75	160.25
1027.9831	3007.8139	1060.1	158.2
1028.0947	3008.8705	1037.25	157.45
1028.2064	3009.9264	1042.3	159.4
1028.3179	3010.9818	1040.05	159.15
1028.4295	3012.0364	1037.2	157.3
1028.541	3013.0905	1033.55	153.5
1028.6524	3014.1439	1033.4	153.55
1028.7638	3015.1966	1032.65	151.15
1028.8752	3016.2487	1033.45	153.9
1028.9865	3017.3002	1033.1	145.15
1029.0978	3018.3511	1028.9	151.3
1029.209	3019.4013	1030.85	149.8
1029.3202	3020.4509	1029.65	150.65
1029.4314	3021.4998	1029.3	149.4
1029.5425	3022.5481	1025.95	146.95
1029.6535	3023.5958	1030.05	148.9
1029.7645	3024.6428	1027.8	145.35
1029.8755	3025.6892	1025.75	147.15
1029.9864	3026.735	1026.35	145.25
1030.0973	3027.7802	1020.95	142.05
1030.2082	3028.8247	1022	141.15
1030.319	3029.8685	1022.55	141.2
1030.4297	3030.9118	1019	139.5
1030.5404	3031.9544	1020.85	142
1030.6511	3032.9963	1022.4	140.85
1030.7617	3034.0376	1020.25	141.9
1030.8723	3035.0783	1020.4	136.2
1030.9829	3036.1184	1018.8	137.1
1031.0934	3037.1578	1019.75	140.65
1031.2038	3038.1966	1018.15	136.9
1031.3142	3039.2348	1016.9	137.9
1031.4246	3040.2723	1024.75	137
1031.5349	3041.3092	1017.1	138.15
1031.6452	3042.3455	1015.6	136.95
1031.7554	3043.3811	1016.25	137.85
1031.8656	3044.4161	1012.1	131.45
1031.9758	3045.4505	1019	138.4
1032.0859	3046.4842	1014.85	134.5
1032.1959	3047.5173	1010.15	132.55
1032.3059	3048.5498	1014.45	134.15
1032.4159	3049.5816	1013.25	132.65
1032.5258	3050.6128	1014.05	131.6
1032.6357	3051.6434	1016.95	136.55
1032.7455	3052.6734	1014.75	134.35
1032.8553	3053.7027	1009.5	128.2
1032.9651	3054.7314	1012.8	134.6
1033.0748	3055.7594	1009.15	129.8
1033.1845	3056.7868	1013.55	133.1
1033.2941	3057.8136	1013.45	133.95
1033.4037	3058.8398	1007.2	128.65
1033.5132	3059.8653	1007.9	129.5
1033.6227	3060.8902	1008.7	129.45
1033.7321	3061.9145	1007.35	127
1033.8415	3062.9381	1007	126.25
1033.9509	3063.9612	1018.4	122.7
1034.0602	3064.9835	1004.25	123.9
1034.1694	3066.0053	1009	127.65
1034.2787	3067.0264	1006.45	126.85
1034.3878	3068.0469	1006.1	126.65
1034.497	3069.0668	1009.5	127.2
1034.6061	3070.086	1002.65	124
1034.7151	3071.1046	1007.05	128.1
1034.8241	3072.1226	1002.8	121.65
1034.9331	3073.1399	1003.35	123.4
1035.042	3074.1567	1002.35	122.5
1035.1508	3075.1727	1003.95	121.4
1035.2597	3076.1882	997.75	117.6
1035.3684	3077.203	1002.3	123.85
1035.4772	3078.2173	997.25	115.9
1035.5859	3079.2308	1000.9	117.2
1035.6945	3080.2438	998.35	116.3
1035.8031	3081.2561	996.15	116.95
1035.9117	3082.2678	994.05	115.1
1036.0202	3083.2789	995.95	116.25
1036.1286	3084.2893	998.65	120.8
1036.2371	3085.2991	994.8	115.5
1036.3454	3086.3083	997.65	114.05
1036.4538	3087.3169	995.65	114.6
1036.562	3088.3248	996.9	116.5
1036.6703	3089.3321	994.2	112.5
1036.7785	3090.3388	988.4	108.85
1036.8866	3091.3449	988.8	110.2
1036.9948	3092.3503	993.9	108
1037.1028	3093.3551	987.6	111.3
1037.2108	3094.3593	985.5	107.15
1037.3188	3095.3629	987.05	107.95
1037.4267	3096.3658	987.35	106.95
1037.5346	3097.3681	988.5	107.75
1037.6425	3098.3698	985.95	105.1
1037.7503	3099.3708	991	105.25
1037.858	3100.3713	986.15	106.75
1037.9657	3101.3711	986.05	107.55
1038.0734	3102.3702	1118.7	101.7
1038.181	3103.3688	986.3	105.45
1038.2886	3104.3667	981.25	100.75
1038.3961	3105.364	980.7	101.65
1038.5036	3106.3607	979.9	99.05
1038.611	3107.3568	978.1	97.75
1038.7184	3108.3522	978.2	99.9
1038.8257	3109.347	981.85	100.25
1038.933	3110.3412	981.2	95.65
1039.0403	3111.3348	978.1	99.6
1039.1475	3112.3277	975	94.8
1039.2547	3113.32	974.35	97.35
1039.3618	3114.3117	973.7	92.65
1039.4689	3115.3028	975.8	94.3
1039.5759	3116.2932	976.7	96.2
1039.6829	3117.2831	976.5	92.4
1039.7898	3118.2723	971.4	92.55
1039.8967	3119.2608	976.2	96.65
1040.0035	3120.2488	973.7	92.55
1040.1103	3121.2361	971.05	90.6
1040.2171	3122.2229	969.15	89.15
1040.3238	3123.209	972	91
1040.4305	3124.1944	971.15	93.25
1040.5371	3125.1793	970.85	88
1040.6437	3126.1635	966.65	88.1
1040.7502	3127.1471	969.6	91.25
1040.8567	3128.1301	968.95	90.15
1040.9631	3129.1125	969.85	91.8
1041.0695	3130.0942	967.05	88.6
1041.1759	3131.0753	975.15	86.7
1041.2822	3132.0558	969.45	87.5
1041.3884	3133.0357	967.15	85.1
1041.4946	3134.015	964.1	82
1041.6008	3134.9936	965	82.8
1041.7069	3135.9716	987.05	85.35
1041.813	3136.949	965.7	85.55
1041.919	3137.9258	971.8	85.3
1042.025	3138.902	968.55	82.75
1042.1309	3139.8775	963.75	83.7
1042.2368	3140.8524	960.95	83.4
1042.3427	3141.8267	964.75	83
1042.4485	3142.8004	962.9	82.05
1042.5542	3143.7735	967.85	81.5
1042.6599	3144.7459	963.3	82.65
1042.7656	3145.7178	961.4	80.85
1042.8712	3146.689	960.55	82.65
1042.9768	3147.6596	963	80.3
1043.0823	3148.6295	959.6	79.8
1043.1878	3149.5989	960.8	83.1
1043.2932	3150.5676	956.1	78.45
1043.3986	3151.5357	957.3	80.85
1043.5039	3152.5032	955.5	76.9
1043.6092	3153.4701	956.1	77.05
1043.7145	3154.4364	960.9	79.4
1043.8197	3155.402	954.3	76.85
1043.9248	3156.367	958.2	77.2
1044.03	3157.3315	993.5	74.2
1044.135	3158.2952	957.1	77.2
1044.24	3159.2584	956.7	78.1
1044.345	3160.221	953.7	73.15
1044.4499	3161.1829	955.6	76.65
1044.5548	3162.1442	951.1	72.25
1044.6596	3163.105	951.95	72.4
1044.7644	3164.065	949.3	68.8
1044.8692	3165.0245	952.55	70.15
1044.9739	3165.9834	951.6	73.4
1045.0785	3166.9416	950.55	70
1045.1831	3167.8993	951	73.25
1045.2877	3168.8563	954	73.5
1045.3922	3169.8127	949.7	69.35
1045.4966	3170.7684	947.2	70.4
1045.6011	3171.7236	951.95	71.25
1045.7054	3172.6782	950.55	71.7
1045.8098	3173.6321	950.1	70.3
1045.914	3174.5854	954	70.85
1046.0183	3175.5381	949.5	71.35
1046.1224	3176.4902	945.75	65.9
1046.2266	3177.4417	947.6	68.35
1046.3307	3178.3926	946.7	67.5
1046.4347	3179.3428	947.15	68.7
1046.5387	3180.2924	944.9	67
1046.6427	3181.2415	945.4	65.05
1046.7466	3182.1899	946.95	67.4
1046.8504	3183.1377	945.4	67.7
1046.9542	3184.0848	947.05	63.5
1047.058	3185.0314	943.3	64.8
1047.1617	3185.9773	945.4	65.6
1047.2654	3186.9227	943.3	62.35
1047.369	3187.8674	943.2	64.15
1047.4726	3188.8115	946.55	60.45
1047.5761	3189.755	941.65	63.6
1047.6796	3190.6979	940.9	61.9
1047.783	3191.6402	941.9	64.2
1047.8864	3192.5818	942.85	63
1047.9898	3193.5229	948.2	62.8
1048.0931	3194.4633	940.65	65.05
1048.1963	3195.4031	941.65	61.95
1048.2995	3196.3423	938.35	58.95
1048.4027	3197.2809	939.55	59.35
1048.5058	3198.2189	940.8	59.75
1048.6089	3199.1563	954.8	57.2
1048.7119	3200.0931	941.3	62.45
1048.8148	3201.0292	935.5	57.7
1048.9178	3201.9648	938.7	61.15
1049.0206	3202.8997	941.55	59.8
1049.1235	3203.834	936.95	57.25
1049.2262	3204.7677	939.5	62.1
1049.329	3205.7008	942.1	64.15
1049.4317	3206.6333	936.05	58.05
1049.5343	3207.5652	935.85	54.2
1049.6369	3208.4964	936.7	56.75
1049.7394	3209.4271	936.3	57.2
1049.8419	3210.3571	935.5	56.75
1049.9444	3211.2865	934.55	54.35
1050.0468	3212.2154	936.95	55.95
1050.1491	3213.1436	937.65	55.55
1050.2514	3214.0712	941	55.7
1050.3537	3214.9982	932.4	52.85
1050.4559	3215.9246	934.95	55.65
1050.5581	3216.8503	933.85	55.05
1050.6602	3217.7755	934.25	52.6
1050.7623	3218.7001	931.65	54.45
1050.8643	3219.624	934.4	53.6
1050.9663	3220.5473	931.4	52.8
1051.0682	3221.4701	933.05	55.2
1051.1701	3222.3922	932.75	51.75
1051.2719	3223.3137	933.4	55
1051.3737	3224.2346	931.3	51.4
1051.4754	3225.1549	929.1	50.5
1051.5771	3226.0746	931.8	53.35
1051.6788	3226.9937	929.9	51.4
1051.7804	3227.9121	930.95	51.75
1051.8819	3228.83	929.4	50.95
1051.9834	3229.7473	931.15	51.85
1052.0849	3230.6639	930.9	50.5
1052.1863	3231.5799	929.1	50
1052.2876	3232.4954	928.7	48.4
1052.3889	3233.4102	928.75	49.5
1052.4902	3234.3244	929.55	50.3
1052.5914	3235.238	927.5	48.65
1052.6926	3236.151	950.35	45
1052.7937	3237.0634	927.05	47.6
1052.8948	3237.9752	927.7	47
1052.9958	3238.8864	928.35	49.45
1053.0968	3239.797	926.35	46.4
1053.1977	3240.7069	927.65	49
1053.2986	3241.6163	928.55	49.4
1053.3994	3242.5251	926.15	47.5
1053.5002	3243.4332	924.85	46
1053.6009	3244.3408	925.7	45.9
1053.7016	3245.2477	926.55	47.15
1053.8022	3246.154	924.6	44.15
1053.9028	3247.0598	924.65	45.25
1054.0034	3247.9649	923.45	43.55
1054.1039	3248.8694	922	41.35
1054.2043	3249.7733	923.15	42.45
1054.3047	3250.6766	922.05	43.85
1054.4051	3251.5793	923.05	44.15
1054.5054	3252.4814	922	41.15
1054.6056	3253.3829	923.55	44.8
1054.7058	3254.2838	922.2	43.9
1054.806	3255.1841	918.95	41.35
1054.9061	3256.0838	919.05	39.8
1055.0061	3256.9829	917.75	38.35
1055.1062	3257.8814	921.9	42.25
1055.2061	3258.7792	924	42.75
1055.306	3259.6765	921.45	40.45
1055.4059	3260.5731	918.5	38.6
1055.5057	3261.4692	920.1	40.6
1055.6055	3262.3647	919	40.1
1055.7052	3263.2595	918.4	38.65
1055.8049	3264.1538	920.2	41.15
1055.9045	3265.0474	916.55	38.85
1056.0041	3265.9404	916.05	36.5
1056.1036	3266.8329	915.15	36.25
1056.2031	3267.7247	925.2	35.85
1056.3025	3268.616	913.85	36.65
1056.4019	3269.5066	913.7	33.3
1056.5013	3270.3966	913.55	32.95
1056.6005	3271.286	908.35	29
