Software Version:	3.9.2.0
Unit SN:	10000200
Spectrometer SN:	6960
Date:	3/6/2024 10:55:25 AM
Data Line Index:	25
Spectral Points:	2048
Integration time (ms):	125
Averages:	20
Delay (ms):	30
Sequence Number:	1
Processing:	dark subtract
Laser Power (mW):	305
Laser Current (mA):	822
Laser Diode Temp (C):	25.1
Laser Case Temp (C):	27.9
System Temp (C):	27.7
Spectrometer Temp (C):	25.3
CCD Temp (C):	0.009
Secondary Temp (C):	20.004
Heatsink Temp (C):	23.553
CCDPCB Temp (C):	37.052
SecondaryPCB Temp (C):	34.506

Wavelength	RamanShift	Raw Counts	Dark Subtracted
787.061	30.1047	1100.45	686.8
787.2016	32.3739	1127	713.2
787.3422	34.6426	1166.55	752.75
787.4828	36.9109	1216.65	799
787.6235	39.1787	1276.3	855.15
787.7642	41.4461	1326.2	902.6
787.9049	43.7131	1384.5	956.25
788.0456	45.9796	1453.9	1024.4
788.1863	48.2456	1524.1	1090.4
788.3271	50.5112	1591.6	1152.9
788.4679	52.7764	1653	1211.85
788.6087	55.0411	1733.05	1288.4
788.7496	57.3054	1813.55	1362.95
788.8904	59.5692	1895.45	1444.75
789.0313	61.8326	2002.9	1547.15
789.1722	64.0955	2101	1641.35
789.3132	66.3579	2234.4	1768.9
789.4541	68.6199	2372.75	1905.4
789.5951	70.8815	2621.15	2152.3
789.7361	73.1426	3097.55	2624
789.8771	75.4032	4326.6	3849
790.0181	77.6634	7495	7011.75
790.1592	79.9231	15581.45	15092.3
790.3003	82.1824	50686.6	50187.4
790.4414	84.4412	65535	65018.5
790.5825	86.6995	65535	64993.15
790.7237	88.9574	65535	64973.45
790.8648	91.2148	65535	64957.55
791.006	93.4717	65535	64946.8
791.1472	95.7282	65535	64941.85
791.2885	97.9842	65535	64938.1
791.4297	100.2398	65535	64933.95
791.571	102.4949	65535	64933.4
791.7123	104.7495	65535	64928.95
791.8536	107.0036	65535	64929.05
791.9949	109.2573	65535	64925.95
792.1363	111.5105	65535	64924.8
792.2777	113.7632	65535	64924.95
792.4191	116.0154	65535	64910.15
792.5605	118.2672	65535	64918.45
792.7019	120.5185	65535	64916.15
792.8434	122.7693	65535	64918.4
792.9849	125.0197	65535	64916.55
793.1264	127.2696	65535	64908.95
793.2679	129.519	65535	64906.05
793.4094	131.7679	65535	64904.45
793.551	134.0163	65535	64898.65
793.6926	136.2642	65535	64897.1
793.8342	138.5117	65535	64887.1
793.9758	140.7587	65535	64894.4
794.1175	143.0052	65535	64890.55
794.2591	145.2512	65535	64890.8
794.4008	147.4967	65535	64890.65
794.5425	149.7417	65535	64884.7
794.6842	151.9863	65535	64883.55
794.826	154.2304	65535	64877.3
794.9677	156.4739	65535	64873.6
795.1095	158.717	65535	64872.55
795.2513	160.9596	65535	64866
795.3931	163.2017	65535	64866
795.535	165.4433	65535	64870.05
795.6768	167.6844	65535	64862.2
795.8187	169.925	65535	64860.8
795.9606	172.1651	65535	64855.95
796.1025	174.4047	65535	64853.8
796.2445	176.6439	65535	64852.8
796.3864	178.8825	65535	64847.95
796.5284	181.1206	65535	64843.95
796.6704	183.3582	65535	64840.75
796.8124	185.5954	65535	64842
796.9544	187.832	65535	64836.85
797.0965	190.0681	65535	64834
797.2386	192.3037	65535	64832.45
797.3806	194.5388	65535	64827.55
797.5228	196.7734	65535	64823.9
797.6649	199.0075	65535	64822.5
797.807	201.2411	65535	64819.5
797.9492	203.4742	65535	64819.8
798.0914	205.7068	65535	64822.15
798.2336	207.9389	65535	64815.05
798.3758	210.1704	65535	64816.65
798.518	212.4015	65535	64815.95
798.6603	214.632	65535	64820.35
798.8025	216.862	65535	64832.2
798.9448	219.0915	65535	64834.65
799.0871	221.3205	65535	64833.05
799.2294	223.549	65535	64836.7
799.3718	225.777	65535	64835.7
799.5141	228.0044	65535	64830.75
799.6565	230.2314	65535	64829.55
799.7989	232.4578	65535	64829.35
799.9413	234.6837	65535	64823.85
800.0837	236.909	65535	64821.25
800.2262	239.1339	65535	64797.85
800.3687	241.3582	65535	64812.35
800.5111	243.582	65535	64777.8
800.6536	245.8053	65535	64792.75
800.7961	248.0281	65535	64796.5
800.9387	250.2503	65535	64790.7
801.0812	252.472	65535	64791.35
801.2238	254.6932	65535	64787.25
801.3664	256.9139	65535	64788.25
801.509	259.134	65535	64783.75
801.6516	261.3536	65535	64786.35
801.7942	263.5727	65535	64782.4
801.9369	265.7912	65535	64784.8
802.0795	268.0092	65535	64781.75
802.2222	270.2267	65535	64781.55
802.3649	272.4436	65535	64781.7
802.5076	274.6601	65535	64770.55
802.6504	276.8759	65535	64774.25
802.7931	279.0913	65535	64774.5
802.9359	281.3061	65535	64773.15
803.0787	283.5204	65535	64771.3
803.2215	285.7341	65535	64769.75
803.3643	287.9473	65535	64755.15
803.5071	290.16	65535	64764.3
803.6499	292.3721	65535	64769
803.7928	294.5837	65535	64765.45
803.9357	296.7947	65535	64770.45
804.0786	299.0052	65535	64766.85
804.2215	301.2152	65535	64761.6
804.3644	303.4246	65535	64767.2
804.5074	305.6334	65535	64769.15
804.6503	307.8418	65535	64764
804.7933	310.0495	65535	64762.5
804.9363	312.2568	65535	64765.1
805.0793	314.4635	65535	64762.65
805.2223	316.6696	65535	64755.95
805.3653	318.8752	65535	64751.6
805.5084	321.0802	65535	64758.8
805.6514	323.2847	65535	64756.05
805.7945	325.4887	65535	64754.85
805.9376	327.692	65535	64751.35
806.0807	329.8949	65535	64752.7
806.2238	332.0972	65535	64752.1
806.367	334.2989	65535	64746.8
806.5101	336.5001	65535	64747.15
806.6533	338.7007	65535	64743.15
806.7965	340.9008	65535	64745.85
806.9397	343.1003	65535	64744.75
807.0829	345.2992	65535	64744.65
807.2261	347.4976	65535	64744.7
807.3693	349.6955	65535	64736.45
807.5126	351.8927	65535	64741.55
807.6559	354.0895	65535	64725.1
807.7991	356.2856	65535	64737.2
807.9424	358.4812	65535	64738.65
808.0857	360.6763	65535	64733.55
808.2291	362.8707	65535	64732.15
808.3724	365.0646	65535	64728.35
808.5158	367.258	65535	64724.25
808.6591	369.4508	65535	64725.15
808.8025	371.643	65535	64723.45
808.9459	373.8346	65535	64721.75
809.0893	376.0257	65535	64720.65
809.2327	378.2162	65535	64722.3
809.3762	380.4062	65535	64719.95
809.5196	382.5956	65535	64715.1
809.6631	384.7844	65535	64719
809.8066	386.9726	65535	64720.35
809.9501	389.1603	65535	64719.7
810.0936	391.3474	65535	64681.75
810.2371	393.5339	65535	64723.6
810.3806	395.7199	65535	64725.9
810.5241	397.9052	65535	64726.65
810.6677	400.09	65535	64727.55
810.8113	402.2743	65535	64725.6
810.9548	404.4579	65535	64724.4
811.0984	406.641	65535	64725.7
811.2421	408.8235	65535	64725.1
811.3857	411.0054	65535	64717.8
811.5293	413.1868	65535	64717.15
811.673	415.3675	65535	64715.8
811.8166	417.5477	65535	64716.6
811.9603	419.7273	65535	64710.15
812.104	421.9064	65535	64706.55
812.2477	424.0848	65535	64708.2
812.3914	426.2627	65535	64707
812.5351	428.4399	65535	64706.9
812.6788	430.6166	65535	64707.5
812.8226	432.7928	65535	64703
812.9663	434.9683	65535	64702.85
813.1101	437.1432	65535	64700.75
813.2539	439.3176	65535	64701.25
813.3977	441.4914	65535	64703.2
813.5415	443.6645	65535	64700.4
813.6853	445.8371	65535	64704.1
813.8291	448.0091	65535	64698.9
813.973	450.1806	65535	64699.8
814.1168	452.3514	65535	64694.25
814.2607	454.5216	65535	64684.45
814.4046	456.6913	65535	64694.65
814.5485	458.8603	65535	64698.1
814.6924	461.0288	65535	64698.25
814.8363	463.1967	65535	64699.3
814.9802	465.3639	65535	64695.4
815.1241	467.5306	65535	64695.6
815.2681	469.6967	65535	64695.35
815.412	471.8622	65535	64694.9
815.556	474.0271	65535	64697.85
815.7	476.1914	65535	64693.6
815.844	478.3551	65535	64692.6
815.988	480.5182	65535	64692.25
816.132	482.6807	65535	64693.2
816.276	484.8426	65535	64696.1
816.4201	487.0039	65535	64693.85
816.5641	489.1647	65535	64690.5
816.7082	491.3248	65535	64692.15
816.8522	493.4843	65535	64692.35
816.9963	495.6432	65535	64693.3
817.1404	497.8015	65535	64688.95
817.2845	499.9592	65535	64688.95
817.4286	502.1163	65535	64685.9
817.5727	504.2728	65535	64687.45
817.7168	506.4287	65535	64688.35
817.861	508.5839	65535	64689.8
818.0051	510.7386	65535	64687.55
818.1493	512.8927	65535	64684.9
818.2935	515.0461	65535	64682.5
818.4377	517.199	65535	64686.9
818.5818	519.3512	65535	64683.7
818.726	521.5029	65535	64676.45
818.8703	523.6539	65535	64684.3
819.0145	525.8043	65535	64681.6
819.1587	527.9541	65535	64676.95
819.303	530.1033	65535	64681.6
819.4472	532.2519	65535	64680.7
819.5915	534.3999	65535	64678.9
819.7357	536.5472	65535	64679.95
819.88	538.694	65535	64680.75
820.0243	540.8401	65535	64679.75
820.1686	542.9856	65535	64675.5
820.3129	545.1305	65535	64675.55
820.4572	547.2748	65535	64674.25
820.6016	549.4185	65535	64674.65
820.7459	551.5615	65535	64677.05
820.8902	553.704	65535	64673.6
821.0346	555.8458	65535	64677.15
821.1789	557.987	65535	64678.1
821.3233	560.1276	65535	64670.85
821.4677	562.2675	65535	64675.9
821.6121	564.4069	65535	64674.5
821.7565	566.5456	65535	64677.15
821.9009	568.6837	65535	64672.75
822.0453	570.8212	65535	64676.2
822.1897	572.958	65535	64673.95
822.3342	575.0942	65535	64675.3
822.4786	577.2299	65535	64673.9
822.6231	579.3648	65535	64678.85
822.7675	581.4992	65535	64674.45
822.912	583.6329	65535	64676.3
823.0565	585.766	65535	64674.15
823.201	587.8985	65535	64677.2
823.3454	590.0304	65535	64648.55
823.4899	592.1616	65535	64669.3
823.6345	594.2922	65535	64669.35
823.779	596.4222	65535	64671.3
823.9235	598.5515	65535	64668.9
824.068	600.6802	65535	64670.4
824.2126	602.8083	65535	64666.95
824.3571	604.9358	65535	64670.15
824.5017	607.0626	65535	64667.5
824.6462	609.1888	65535	64667.15
824.7908	611.3144	65535	64666.3
824.9354	613.4393	65535	64665.5
825.08	615.5636	65535	64668
825.2246	617.6873	65535	64665.75
825.3692	619.8103	65535	64666.5
825.5138	621.9327	65535	64662.1
825.6584	624.0544	65535	64667.9
825.803	626.1756	65535	64667.15
825.9477	628.2961	65535	64664.25
826.0923	630.4159	65535	64667.4
826.237	632.5351	65535	64664.85
826.3816	634.6537	65535	64664.7
826.5263	636.7716	65535	64665.7
826.6709	638.8889	65535	64661.3
826.8156	641.0056	65535	64662.3
826.9603	643.1216	65535	64660.5
827.105	645.237	65535	64659.8
827.2497	647.3518	65535	64660.6
827.3944	649.4659	65535	64665.25
827.5391	651.5793	65535	64663.35
827.6838	653.6922	65535	64658.35
827.8285	655.8043	65535	64662.8
827.9733	657.9159	65535	64658.55
828.118	660.0268	65535	64658
828.2627	662.137	65535	64660.25
828.4075	664.2466	65535	64655.4
828.5522	666.3556	65535	64656.8
828.697	668.4639	65535	64656.1
828.8418	670.5716	65535	64659.65
828.9865	672.6786	65535	64656.7
829.1313	674.785	65535	64658.5
829.2761	676.8907	65535	64657.1
829.4209	678.9958	65535	64658.1
829.5657	681.1002	65535	64654.95
829.7105	683.204	65535	64652.95
829.8553	685.3072	65535	64655.95
830.0001	687.4097	65535	64655.3
830.1449	689.5115	65535	64651.15
830.2898	691.6127	65535	64655.7
830.4346	693.7132	65535	64655.7
830.5794	695.8131	65535	64637.4
830.7243	697.9123	65535	64651.8
830.8691	700.0109	65535	64653
831.014	702.1089	65535	64655.2
831.1588	704.2061	65535	64655.2
831.3037	706.3028	65535	64652.3
831.4486	708.3987	65535	64655.4
831.5935	710.4941	65535	64653.6
831.7383	712.5887	65535	64651.55
831.8832	714.6827	65535	64650.25
832.0281	716.7761	65535	64653.15
832.173	718.8688	65535	64650.95
832.3179	720.9608	65535	64648.35
832.4628	723.0522	65535	64646.9
832.6077	725.1429	65535	64652.3
832.7527	727.233	65535	64649.6
832.8976	729.3224	65535	64648.85
833.0425	731.4112	65535	64651.05
833.1874	733.4993	65535	64648.95
833.3324	735.5867	65535	64649.6
833.4773	737.6735	65535	64652.3
833.6222	739.7596	65535	64649.55
833.7672	741.845	65535	64647.85
833.9122	743.9298	65535	64647.2
834.0571	746.014	65535	64650.45
834.2021	748.0974	65535	64646.95
834.347	750.1802	65535	64646.95
834.492	752.2624	65535	64647.8
834.637	754.3439	65535	64645.7
834.782	756.4247	65535	64638.65
834.9269	758.5048	65535	64648.85
835.0719	760.5843	65535	64644.35
835.2169	762.6631	65535	64649.9
835.3619	764.7413	65535	64649.1
835.5069	766.8188	65535	64644.05
835.6519	768.8956	65535	64646.3
835.7969	770.9718	65535	64649.25
835.9419	773.0473	65535	64647.9
836.0869	775.1221	65535	64648.1
836.232	777.1962	65535	64648.75
836.377	779.2697	65535	64645.75
836.522	781.3426	65535	64625.95
836.667	783.4147	65535	64644.3
836.8121	785.4862	65535	64648.4
836.9571	787.557	65535	64645.75
837.1021	789.6271	65535	64644.1
837.2472	791.6966	65535	64646.3
837.3922	793.7654	65535	64644.8
837.5373	795.8335	65535	64646.35
837.6823	797.901	65535	64647.55
837.8274	799.9678	65535	64642.95
837.9724	802.0339	65535	64646.75
838.1175	804.0993	65535	64633.7
838.2626	806.1641	65535	64642.7
838.4076	808.2282	65535	64643.8
838.5527	810.2916	65535	64642.1
838.6978	812.3544	65535	64647.15
838.8428	814.4164	65535	64645.65
838.9879	816.4778	65535	64642.6
839.133	818.5385	65535	64644.25
839.2781	820.5986	65535	64643.15
839.4232	822.658	65535	64642.2
839.5682	824.7166	65535	64643.9
839.7133	826.7747	65535	64643.45
839.8584	828.832	65535	64643.35
840.0035	830.8886	65535	64641
840.1486	832.9446	65535	64638.9
840.2937	834.9999	65535	64646.25
840.4388	837.0545	65535	64641.65
840.5839	839.1085	65535	64642.85
840.729	841.1618	65535	64638.05
840.8741	843.2143	65535	64642.75
841.0192	845.2662	65535	64641
841.1643	847.3175	65535	64646.05
841.3095	849.368	65535	64643.2
841.4546	851.4179	65535	64643.9
841.5997	853.467	65535	64644.15
841.7448	855.5155	65535	64643.7
841.8899	857.5633	65535	64640.65
842.0351	859.6105	65535	64643.2
842.1802	861.6569	65535	64640.8
842.3253	863.7027	65535	64643.9
842.4704	865.7478	65535	64641.05
842.6156	867.7922	65535	64642
842.7607	869.8359	65535	64640.1
842.9058	871.8789	65535	64640.95
843.0509	873.9212	65535	64607.85
843.1961	875.9629	65535	64641.95
843.3412	878.0039	65535	64641.7
843.4863	880.0441	65535	64643.95
843.6315	882.0837	65535	64638.55
843.7766	884.1226	65535	64640.75
843.9218	886.1609	65535	64641.9
844.0669	888.1984	65535	64640.65
844.212	890.2352	65535	64640.7
844.3572	892.2714	65535	64635.8
844.5023	894.3069	65535	64640.6
844.6475	896.3416	65535	64642.35
844.7926	898.3757	65535	64640.6
844.9377	900.4091	65535	64637.65
845.0829	902.4418	65535	64636.05
845.228	904.4739	65535	64638.25
845.3732	906.5052	65535	64637.9
845.5183	908.5358	65535	64639.95
845.6635	910.5658	65535	64637.5
845.8086	912.595	65535	64636.05
845.9538	914.6236	65535	64640.45
846.0989	916.6515	65535	64638.45
846.2441	918.6786	65535	64638.1
846.3892	920.7051	65535	64635.45
846.5344	922.7309	65535	64639.35
846.6795	924.756	65535	64639.05
846.8246	926.7804	65535	64637.35
846.9698	928.8041	65535	64636.05
847.1149	930.8272	65535	64637.6
847.2601	932.8495	65535	64638.9
847.4052	934.8711	65535	64638.6
847.5504	936.892	65535	64640.05
847.6955	938.9123	65535	64639.15
847.8407	940.9318	65535	64636.95
847.9858	942.9506	65535	64637.35
848.131	944.9688	65535	64638.9
848.2761	946.9862	65535	64636.8
848.4213	949.003	65535	64637.35
848.5664	951.019	65535	64637.55
848.7115	953.0344	65535	64637.7
848.8567	955.0491	65535	64636.9
849.0018	957.063	65535	64636.35
849.147	959.0763	65535	64640.3
849.2921	961.0888	65535	64635.8
849.4373	963.1007	65535	64635.45
849.5824	965.1119	65535	64640.2
849.7275	967.1223	65535	64640.7
849.8727	969.1321	65535	64639.65
850.0178	971.1412	65535	64640.7
850.1629	973.1495	65535	64639.45
850.3081	975.1572	65535	64603.3
850.4532	977.1641	65535	64636.9
850.5983	979.1704	65535	64636.25
850.7435	981.1759	65535	64632.4
850.8886	983.1808	65535	64634.4
851.0337	985.1849	65535	64625.2
851.1788	987.1884	65535	64634.8
851.324	989.1911	65535	64636.4
851.4691	991.1932	65535	64636.85
851.6142	993.1945	65535	64636.3
851.7593	995.1951	65535	64636.6
851.9045	997.1951	65535	64631.25
852.0496	999.1943	65535	64636
852.1947	1001.1928	65535	64634
852.3398	1003.1906	65535	64636.05
852.4849	1005.1877	65535	64636.5
852.63	1007.1841	65535	64635.25
852.7751	1009.1798	65535	64637.4
852.9202	1011.1748	65535	64636.4
853.0653	1013.1691	65535	64635.7
853.2104	1015.1627	65535	64637.45
853.3555	1017.1556	65535	64638.6
853.5006	1019.1477	65535	64637.45
853.6457	1021.1392	65535	64640.7
853.7908	1023.1299	65535	64635.35
853.9359	1025.12	65535	64637
854.081	1027.1093	65535	64641.15
854.2261	1029.0979	65535	64641
854.3712	1031.0859	65535	64641.7
854.5163	1033.0731	65535	64637.8
854.6613	1035.0596	65535	64636.85
854.8064	1037.0454	65535	64639.7
854.9515	1039.0304	65535	64635
855.0965	1041.0148	65535	64637.95
855.2416	1042.9985	65535	64636.55
855.3867	1044.9814	65535	64636.95
855.5317	1046.9636	65535	64636.9
855.6768	1048.9452	65535	64639.2
855.8219	1050.926	65535	64637.15
855.9669	1052.9061	65535	64638.1
856.112	1054.8855	65535	64636.95
856.257	1056.8642	65535	64634.85
856.4021	1058.8421	65535	64632.3
856.5471	1060.8194	65535	64636.6
856.6921	1062.7959	65535	64636.7
856.8372	1064.7717	65535	64636.7
856.9822	1066.7469	65535	64636.05
857.1272	1068.7213	65535	64632.8
857.2723	1070.695	65535	64639.35
857.4173	1072.6679	65535	64634.75
857.5623	1074.6402	65535	64635.35
857.7073	1076.6117	65535	64629.3
857.8523	1078.5826	65535	64636.9
857.9973	1080.5527	65535	64634.05
858.1423	1082.5221	65535	64636
858.2873	1084.4908	65535	64637.55
858.4323	1086.4587	65535	64635.45
858.5773	1088.426	65535	64633.4
858.7223	1090.3925	65535	64630.35
858.8673	1092.3584	65535	64636.7
859.0123	1094.3235	65535	64635.35
859.1573	1096.2879	65535	64634.9
859.3022	1098.2515	65535	64634.65
859.4472	1100.2145	65535	64636.9
859.5922	1102.1767	65535	64635.4
859.7371	1104.1382	65535	64635.25
859.8821	1106.099	65535	64633.25
860.027	1108.0591	65535	64635.7
860.172	1110.0185	65535	64634.45
860.3169	1111.9771	65535	64636.65
860.4619	1113.9351	65535	64635.75
860.6068	1115.8923	65535	64635
860.7517	1117.8488	65535	64635.05
860.8967	1119.8045	65535	64636.35
861.0416	1121.7596	65535	64633.55
861.1865	1123.7139	65535	64637.15
861.3314	1125.6675	65535	64639.4
861.4763	1127.6204	65535	64635.9
861.6212	1129.5726	65535	64633.85
861.7661	1131.524	65535	64634.75
861.911	1133.4748	65535	64634.4
862.0559	1135.4248	65535	64633.65
862.2008	1137.3741	65535	64637
862.3457	1139.3226	65535	64633.65
862.4905	1141.2705	65535	64637.1
862.6354	1143.2176	65535	64628.65
862.7803	1145.164	65535	64633.25
862.9251	1147.1097	65535	64635.2
863.07	1149.0546	65535	64632.2
863.2148	1150.9989	65535	64633.4
863.3597	1152.9424	65535	64633.9
863.5045	1154.8852	65535	64635.9
863.6493	1156.8272	65535	64635.95
863.7942	1158.7686	65535	64628.55
863.939	1160.7092	65535	64636.45
864.0838	1162.6491	65535	64633.1
864.2286	1164.5883	65535	64634.9
864.3734	1166.5267	65535	64636.5
864.5182	1168.4644	65535	64635.15
864.663	1170.4014	65535	64629.75
864.8078	1172.3377	65535	64636.5
864.9526	1174.2732	65535	64634.5
865.0974	1176.2081	65535	64636
865.2421	1178.1421	65535	64633
865.3869	1180.0755	65535	64634.9
865.5317	1182.0082	65535	64638.5
865.6764	1183.9401	65535	64634.25
865.8212	1185.8713	65535	64636.05
865.9659	1187.8017	65535	64638.85
866.1106	1189.7315	65535	64637.35
866.2554	1191.6605	65535	64608.7
866.4001	1193.5888	65535	64638.75
866.5448	1195.5163	65535	64636.4
866.6895	1197.4432	65535	64633.95
866.8342	1199.3693	65535	64638.05
866.9789	1201.2947	65535	64632.15
867.1236	1203.2193	65535	64634.85
867.2683	1205.1432	65535	64635.85
867.413	1207.0664	65535	64635.95
867.5576	1208.9889	65535	64633.7
867.7023	1210.9106	65535	64636.25
867.847	1212.8316	65535	64636.8
867.9916	1214.7519	65535	64624.7
868.1363	1216.6715	65535	64638.4
868.2809	1218.5903	65535	64635.75
868.4255	1220.5084	65535	64633.1
868.5701	1222.4257	65535	64634.15
868.7148	1224.3424	65535	64638.2
868.8594	1226.2583	65535	64629.65
869.004	1228.1735	65535	64635
869.1486	1230.0879	65535	64635
869.2932	1232.0016	65535	64634.2
869.4377	1233.9146	65535	64634.5
869.5823	1235.8269	65535	64634.9
869.7269	1237.7384	65535	64636.35
869.8715	1239.6492	65535	64635.9
870.016	1241.5592	65535	64632.8
870.1606	1243.4686	65535	64633.45
870.3051	1245.3772	65535	64636.1
870.4496	1247.285	65535	64633.4
870.5941	1249.1922	65535	64634.25
870.7387	1251.0986	65535	64636.6
870.8832	1253.0042	65535	64636.7
871.0277	1254.9092	65535	64637.75
871.1722	1256.8134	65535	64637.75
871.3167	1258.7169	65535	64635.9
871.4611	1260.6196	65535	64637.05
871.6056	1262.5216	65535	64635.9
871.7501	1264.4229	65535	64636.65
871.8945	1266.3234	65535	64636.9
872.039	1268.2232	65535	64636.55
872.1834	1270.1223	65535	64633.75
872.3278	1272.0207	65535	64636.9
872.4723	1273.9183	65535	64629.2
872.6167	1275.8151	65535	64634.45
872.7611	1277.7113	65535	64634.5
872.9055	1279.6067	65535	64634.6
873.0499	1281.5014	65535	64633.45
873.1943	1283.3953	65535	64633.25
873.3386	1285.2885	65535	64636.5
873.483	1287.181	65535	64634.3
873.6274	1289.0727	65535	64636.55
873.7717	1290.9637	65535	64633.75
873.9161	1292.854	65535	64636
874.0604	1294.7435	65535	64635.1
874.2047	1296.6323	65535	64634.4
874.349	1298.5204	65535	64631.55
874.4933	1300.4077	65535	64632.95
874.6376	1302.2943	65535	64636.7
874.7819	1304.1802	65535	64637.35
874.9262	1306.0653	65535	64634.9
875.0705	1307.9497	65535	64634.1
875.2147	1309.8333	65535	64637.65
875.359	1311.7162	65535	64635.75
875.5032	1313.5984	65535	64632.1
875.6475	1315.4798	65535	64624.85
875.7917	1317.3605	65535	64619.5
875.9359	1319.2405	65535	64635.25
876.0801	1321.1197	65535	64636.25
876.2243	1322.9982	65535	64630.35
876.3685	1324.876	65535	64637.1
876.5127	1326.753	65535	64633.85
876.6569	1328.6293	65535	64634.85
876.801	1330.5048	65535	64633.65
876.9452	1332.3796	65535	64632.4
877.0893	1334.2537	65535	64609.95
877.2335	1336.127	65535	64637.15
877.3776	1337.9996	65535	64636.05
877.5217	1339.8714	65535	64637.05
877.6658	1341.7426	65535	64589.3
877.8099	1343.6129	65535	64635.1
877.954	1345.4826	65535	64634.95
878.0981	1347.3515	65535	64633
878.2422	1349.2196	65535	64633.55
878.3862	1351.087	65535	64637.35
878.5303	1352.9537	65535	64635.4
878.6743	1354.8197	65535	64632.6
878.8184	1356.6849	65535	64635.4
878.9624	1358.5493	65535	64634.15
879.1064	1360.4131	65535	64634.85
879.2504	1362.276	65535	64636.7
879.3944	1364.1383	65535	64634.25
879.5384	1365.9998	65535	64629.55
879.6823	1367.8606	65535	64634.95
879.8263	1369.7206	65535	64635.2
879.9702	1371.5799	65535	64633.55
880.1142	1373.4384	65535	64635.05
880.2581	1375.2962	65535	64631.9
880.402	1377.1533	65535	64632.8
880.5459	1379.0096	65535	64635.1
880.6898	1380.8652	65535	64637.55
880.8337	1382.7201	65535	64635.45
880.9776	1384.5742	65535	64635.7
881.1215	1386.4275	65535	64634.7
881.2653	1388.2802	65535	64635.85
881.4092	1390.132	65535	64635.3
881.553	1391.9832	65535	64633.8
881.6968	1393.8336	65535	64636.05
881.8406	1395.6832	65535	64634.85
881.9844	1397.5322	65535	64633.25
882.1282	1399.3803	65535	64630.6
882.272	1401.2278	65535	64634.6
882.4158	1403.0745	65535	64634.1
882.5595	1404.9204	65535	64638.4
882.7033	1406.7656	65535	64635.1
882.847	1408.6101	65535	64636.3
882.9908	1410.4538	65535	64637.9
883.1345	1412.2968	65535	64636.55
883.2782	1414.139	65535	64637.9
883.4219	1415.9805	65535	64635.15
883.5656	1417.8213	65535	64630
883.7092	1419.6613	65535	64634.75
883.8529	1421.5006	65535	64635.9
883.9965	1423.3391	65535	64633.55
884.1402	1425.1769	65535	64635.05
884.2838	1427.0139	65535	64634.4
884.4274	1428.8502	65535	64634.5
884.571	1430.6858	65535	64633.85
884.7146	1432.5206	65535	64636.85
884.8582	1434.3547	65535	64636.1
885.0018	1436.188	65535	64637.75
885.1453	1438.0206	65535	64635.75
885.2889	1439.8524	65535	64636.7
885.4324	1441.6835	65535	64636.2
885.5759	1443.5139	65535	64631.6
885.7194	1445.3435	65535	64637
885.8629	1447.1724	65535	64635.9
886.0064	1449.0005	65535	64636.75
886.1499	1450.8279	65535	64634
886.2933	1452.6545	65535	64638.5
886.4368	1454.4804	65535	64637.9
886.5802	1456.3056	65535	64631.15
886.7237	1458.13	65535	64637.9
886.8671	1459.9536	65535	64636.7
887.0105	1461.7766	65535	64634.65
887.1539	1463.5987	65535	64634.6
887.2972	1465.4202	65535	64636.85
887.4406	1467.2409	65535	64632.85
887.584	1469.0608	65535	64636.05
887.7273	1470.88	65535	64633.2
887.8706	1472.6984	65535	64634.25
888.0139	1474.5161	65535	64635.65
888.1572	1476.3331	65535	64638.6
888.3005	1478.1493	65535	64635.65
888.4438	1479.9648	65535	64636
888.5871	1481.7795	65535	64636.25
888.7303	1483.5935	65535	64636.75
888.8736	1485.4067	65535	64634.2
889.0168	1487.2192	65535	64634.75
889.16	1489.031	65535	64634.85
889.3032	1490.842	65535	64636.3
889.4464	1492.6522	65535	64637.85
889.5896	1494.4618	65535	64636.4
889.7327	1496.2705	65535	64638
889.8759	1498.0785	65535	64633.45
890.019	1499.8858	65535	64636.9
890.1622	1501.6924	65535	64635.45
890.3053	1503.4981	65535	64634.65
890.4484	1505.3032	65535	64636.35
890.5914	1507.1075	65535	64634.35
890.7345	1508.911	65535	64635.3
890.8776	1510.7138	65535	64637.25
891.0206	1512.5159	65535	64636.3
891.1637	1514.3172	65527.7	64629.35
891.3067	1516.1178	65533.2	64634.9
891.4497	1517.9176	65535	64633.5
891.5927	1519.7166	65530.9	64632.3
891.7357	1521.515	65528	64623.2
891.8786	1523.3126	65505.25	64606.1
892.0216	1525.1094	65525.85	64625.55
892.1645	1526.9055	65516.2	64620.15
892.3074	1528.7008	65520.85	64622.65
892.4503	1530.4954	65480.5	64574
892.5932	1532.2893	65519.25	64621.1
892.7361	1534.0824	65465.2	64563.45
892.879	1535.8747	65439.1	64543.25
893.0218	1537.6663	65520.55	64623.45
893.1647	1539.4572	65368.7	64467.45
893.3075	1541.2473	65432.45	64534.9
893.4503	1543.0367	65420.05	64523.7
893.5931	1544.8253	65396.3	64494.7
893.7359	1546.6132	65413.65	64514.2
893.8787	1548.4003	65358.1	64449.1
894.0214	1550.1867	65344.6	64437.15
894.1642	1551.9723	65304.85	64400.45
894.3069	1553.7572	65300.7	64401.55
894.4496	1555.5414	65370.85	64474.2
894.5923	1557.3247	64869.3	63970.35
894.735	1559.1074	65329.7	64433.65
894.8777	1560.8893	65183.6	64286.3
895.0204	1562.6705	65262.85	64363.95
895.163	1564.4509	64894.7	63998.5
895.3056	1566.2305	65087.45	64191.1
895.4482	1568.0094	65268.8	64373.4
895.5908	1569.7876	65104.2	64207.15
895.7334	1571.565	64841.95	63944.75
895.876	1573.3417	65019.75	64121.75
896.0186	1575.1176	64990	64094.15
896.1611	1576.8928	64867.35	63973.15
896.3036	1578.6672	64449.5	63555.65
896.4461	1580.4409	64687.25	63794.65
896.5886	1582.2138	64020.85	63124.2
896.7311	1583.986	64206.7	63309
896.8736	1585.7575	63635.85	62740.3
897.0161	1587.5282	63796.9	62902.9
897.1585	1589.2981	63818.75	62922.3
897.3009	1591.0673	63181.75	62286.7
897.4433	1592.8358	62665.5	61768.75
897.5857	1594.6035	63148.25	62250.3
897.7281	1596.3704	63241.8	62345
897.8705	1598.1366	62247.5	61351.95
898.0128	1599.9021	61711.2	60815.45
898.1551	1601.6668	62549.75	61651.85
898.2975	1603.4308	62102.95	61205.9
898.4398	1605.194	62207.7	61307.15
898.5821	1606.9564	61070.4	60175.55
898.7243	1608.7182	61697.6	60797.15
898.8666	1610.4791	61089.25	60197.25
899.0088	1612.2394	61656.3	60762.85
899.1511	1613.9988	60977.85	60084.1
899.2933	1615.7576	61753.65	60858.95
899.4355	1617.5156	61692.15	60789.3
899.5776	1619.2728	62577.8	61681.95
899.7198	1621.0293	61291.25	60397.25
899.862	1622.785	61261.35	60364.8
900.0041	1624.54	61741.85	60844.7
900.1462	1626.2942	61106	60209.1
900.2883	1628.0477	60048.9	59149.8
900.4304	1629.8005	59407.7	58507.95
900.5725	1631.5525	59913.6	59017.65
900.7145	1633.3037	58748.55	57853.4
900.8566	1635.0542	58704.65	57809.05
900.9986	1636.804	58953.2	58059.1
901.1406	1638.553	58068.9	57066.1
901.2826	1640.3013	58269.1	57373.15
901.4245	1642.0488	57559.7	56663.45
901.5665	1643.7955	57989.65	57095.55
901.7085	1645.5416	57509.35	56614.65
901.8504	1647.2868	57177.3	56282.7
901.9923	1649.0313	57720.75	56824.5
902.1342	1650.7751	57309.25	56410.85
902.2761	1652.5181	56944.85	56050.8
902.4179	1654.2604	57093.2	56197.8
902.5598	1656.0019	57627.8	56734
902.7016	1657.7427	57367.35	56473.6
902.8434	1659.4828	57862	56968.3
902.9852	1661.222	57671	56775.1
903.127	1662.9606	57912.9	57019.5
903.2687	1664.6984	57335.35	56439.15
903.4105	1666.4354	57277.2	56383.45
903.5522	1668.1717	56190.7	55297.25
903.6939	1669.9072	55553.75	54659.15
903.8356	1671.642	55207.9	54312.35
903.9773	1673.3761	54871.45	53978.3
904.119	1675.1094	54495.6	53601.55
904.2606	1676.8419	54038.1	53144.4
904.4022	1678.5737	53737.25	52843.15
904.5439	1680.3048	53500.4	52606.35
904.6855	1682.0351	53180.5	52286.1
904.827	1683.7646	52905.4	52007.55
904.9686	1685.4934	52856.1	51963.35
905.1101	1687.2215	52121.1	51225.75
905.2517	1688.9488	52327.8	51435.5
905.3932	1690.6754	51548.45	50653.9
905.5347	1692.4012	51753.85	50858.4
905.6761	1694.1263	51539.2	50647.6
905.8176	1695.8506	51324.6	50430.45
905.9591	1697.5742	51142.45	50249.8
906.1005	1699.297	50894.8	50001.3
906.2419	1701.0191	50658.7	49765.55
906.3833	1702.7404	50383.55	49490.55
906.5246	1704.461	50122.1	49227.05
906.666	1706.1808	49976.05	49081.45
906.8073	1707.8999	49845.65	48949.7
906.9487	1709.6182	49597.25	48703.8
907.09	1711.3358	49419.95	48526.2
907.2313	1713.0527	49280.9	48389.05
907.3725	1714.7688	49120.55	48222.1
907.5138	1716.4841	48787.55	47891.35
907.655	1718.1987	48770	47873.7
907.7962	1719.9126	48524.55	47631.9
907.9374	1721.6257	48383	47488.6
908.0786	1723.338	48320.3	47427.45
908.2198	1725.0496	47881.55	46987.15
908.3609	1726.7605	47864.15	46968.8
908.502	1728.4706	47674.8	46781.05
908.6431	1730.18	47403.55	46506.8
908.7842	1731.8886	47281.75	46388.05
908.9253	1733.5964	47174.65	46263.05
909.0664	1735.3036	47056.75	46159.6
909.2074	1737.0099	46920.9	46027.85
909.3484	1738.7156	46749.65	45856.65
909.4894	1740.4204	46508.8	45611.35
909.6304	1742.1246	46419.4	45526.4
909.7714	1743.8279	46246.8	45355.75
909.9123	1745.5306	46189.85	45296.45
910.0532	1747.2325	45970.9	45078.8
910.1941	1748.9336	45763.1	44869.15
910.335	1750.634	45581.65	44688.15
910.4759	1752.3336	45497.35	44604.25
910.6168	1754.0325	45406.55	44515.15
910.7576	1755.7307	45249.9	44357.15
910.8984	1757.4281	45221.75	44329.7
911.0392	1759.1247	45143.35	44242.2
911.18	1760.8206	44947.65	44049.5
911.3208	1762.5158	44881.5	43984.7
911.4615	1764.2102	44646	43753.5
911.6022	1765.9039	44473.3	43580.45
911.7429	1767.5968	44400.15	43507.6
911.8836	1769.289	44201.25	43306.6
912.0243	1770.9804	44091.55	43198.25
912.1649	1772.6711	44041.8	43147.55
912.3056	1774.361	43860.7	42968.35
912.4462	1776.0502	43822	42929.75
912.5868	1777.7386	43669.8	42773.35
912.7274	1779.4263	43475.35	42581.45
912.8679	1781.1132	43478.35	42586.25
913.0084	1782.7994	43241.5	42347.95
913.149	1784.4849	43144.55	42252.9
913.2895	1786.1696	43021.9	42122.7
913.4299	1787.8535	42862.05	41970.65
913.5704	1789.5367	42677.6	41784
913.7108	1791.2192	42644.7	41751.75
913.8513	1792.9009	42458.7	41535.3
913.9917	1794.5818	42376.9	41482.8
914.132	1796.2621	42215.45	41322.9
914.2724	1797.9415	42136.45	41242
914.4128	1799.6202	41968.8	41074.1
914.5531	1801.2982	41910.15	41018.15
914.6934	1802.9755	41785.45	40893.3
914.8337	1804.6519	41721.35	40828.85
914.9739	1806.3277	41465.25	40573.8
915.1142	1808.0027	41252.7	40360.4
915.2544	1809.6769	41208.1	40317.35
915.3946	1811.3504	41075.85	40181.2
915.5348	1813.0231	41002.6	40108.95
915.675	1814.6951	40904.05	40011.9
915.8151	1816.3664	40889.5	39994.55
915.9553	1818.0369	40744.85	39851.15
916.0954	1819.7067	40587.75	39695
916.2355	1821.3757	40475.05	39580.85
916.3755	1823.044	40353.45	39461.1
916.5156	1824.7115	40267.35	39374.1
916.6556	1826.3783	40085.3	39194.6
916.7956	1828.0443	39949.6	39059.1
916.9356	1829.7096	39845.2	38952.15
917.0756	1831.3741	39787.45	38891.05
917.2155	1833.0379	39632.2	38738.3
917.3555	1834.701	39528.15	38632.2
917.4954	1836.3633	39465.55	38573.15
917.6353	1838.0248	39323.8	38429.55
917.7751	1839.6856	39288.95	38397.95
917.915	1841.3457	39168.6	38277.15
918.0548	1843.005	39038.6	38146.9
918.1946	1844.6636	38991.65	38100.9
918.3344	1846.3214	38841.75	37947.65
918.4742	1847.9785	38801.5	37909.15
918.6139	1849.6349	38584.5	37690
918.7537	1851.2904	38567.35	37664.35
918.8934	1852.9453	38396.6	37505
919.0331	1854.5994	38284.35	37391.8
919.1727	1856.2528	38282.85	37386.7
919.3124	1857.9054	38175.05	37281.25
919.452	1859.5572	38122.45	37232.35
919.5916	1861.2083	37973.35	37079.75
919.7312	1862.8587	37930.5	37038.65
919.8708	1864.5084	37817.5	36922.95
920.0103	1866.1572	37686.2	36794
920.1498	1867.8054	37468.4	36574.4
920.2893	1869.4528	37441.3	36548.85
920.4288	1871.0994	37313.35	36418.6
920.5683	1872.7453	37213.95	36321.5
920.7077	1874.3905	37159.45	36259.15
920.8471	1876.0349	37044.85	36151.5
920.9865	1877.6786	37003.75	36110
921.1259	1879.3215	36932.25	36038.9
921.2653	1880.9637	36761.35	35868.65
921.4046	1882.6051	36733.6	35841.25
921.5439	1884.2458	36578.85	35683.8
921.6832	1885.8858	36444.65	35552.45
921.8225	1887.525	36374.45	35479.7
921.9617	1889.1634	36152.15	35259.75
922.101	1890.8011	36073.55	35181.2
922.2402	1892.4381	35966.2	35074.65
922.3794	1894.0743	35945.05	35052.55
922.5185	1895.7098	35796.8	34903.95
922.6577	1897.3446	35713.65	34818.6
922.7968	1898.9786	35576.5	34682.2
922.9359	1900.6118	35532.5	34640.8
923.075	1902.2443	35278.9	34383.65
923.214	1903.8761	35204.45	34309.9
923.3531	1905.5071	35051.85	34158.05
923.4921	1907.1374	34902.2	34010.05
923.6311	1908.7669	34843.8	33951.7
923.77	1910.3957	34760.45	33868.8
923.909	1912.0237	34546.4	33652.25
924.0479	1913.651	34504.35	33610.45
924.1868	1915.2776	34435.9	33544.75
924.3257	1916.9034	34225.4	33335.7
924.4646	1918.5285	34081.2	33190.6
924.6034	1920.1528	33883.3	32990.5
924.7422	1921.7764	33836.95	32944.65
924.881	1923.3992	33689	32796.8
925.0198	1925.0213	33432.6	32540.95
925.1586	1926.6427	33363.3	32472.95
925.2973	1928.2633	33337.6	32335.6
925.436	1929.8832	33134.2	32240.75
925.5747	1931.5023	32946.2	32054.05
925.7134	1933.1207	32895.25	32004.45
925.852	1934.7383	32841.3	31949.7
925.9906	1936.3552	32710.4	31819.9
926.1292	1937.9714	32577.3	31684.65
926.2678	1939.5868	32471.2	31577
926.4064	1941.2015	32267.6	31374.7
926.5449	1942.8154	32173.25	31280.7
926.6834	1944.4286	32009.65	31115.8
926.8219	1946.041	31871	30960.4
926.9604	1947.6528	31681.05	30780.6
927.0988	1949.2637	31630.8	30739.6
927.2372	1950.8739	31436.5	30541.35
927.3756	1952.4834	31408.75	30515.25
927.514	1954.0921	31365.85	30474.05
927.6523	1955.7001	31240.4	30344.15
927.7907	1957.3074	31155.3	30262.6
927.929	1958.9139	30929	30038.85
928.0673	1960.5197	30861.25	29966.95
928.2055	1962.1247	30700.8	29811.85
928.3438	1963.729	30560.3	29668.45
928.482	1965.3325	30458.1	29543.25
928.6202	1966.9353	30296.95	29405.5
928.7584	1968.5374	30203.3	29309.2
928.8965	1970.1387	30145.65	29252.1
929.0346	1971.7393	30002.1	29109.6
929.1727	1973.3392	29881.8	28990.95
929.3108	1974.9383	29787.5	28894.65
929.4489	1976.5366	29614.8	28721.8
929.5869	1978.1342	29612.2	28719.15
929.7249	1979.7311	29536	28644.45
929.8629	1981.3273	29452.45	28562.25
930.0009	1982.9227	29348.8	28458.2
930.1388	1984.5173	29234.6	28343.1
930.2767	1986.1112	29097.2	28206.8
930.4146	1987.7044	29033	28141.05
930.5525	1989.2968	28910.8	28018.45
930.6904	1990.8885	28796.5	27903.1
930.8282	1992.4795	28773.7	27879.6
930.966	1994.0697	28564.55	27673.45
931.1038	1995.6592	28483.5	27591.45
931.2415	1997.2479	28389.2	27496.6
931.3793	1998.8359	28307.05	27415.35
931.517	2000.4232	28179.05	27288.25
931.6547	2002.0097	28054.65	27165.3
931.7923	2003.5955	27889.15	26998.2
931.93	2005.1805	27887.3	26993.3
932.0676	2006.7648	27846.15	26955.15
932.2052	2008.3484	27758.1	26865.1
932.3427	2009.9312	27720.05	26827.8
932.4803	2011.5133	27580.55	26689.9
932.6178	2013.0946	27512.45	26622.2
932.7553	2014.6752	27403.7	26513.85
932.8928	2016.2551	27363.45	26471.35
933.0302	2017.8342	27220.45	26329.8
933.1676	2019.4126	27084.25	26194.2
933.305	2020.9902	26968.05	26077.85
933.4424	2022.5672	26912.7	26022.55
933.5798	2024.1433	26802.8	25904.4
933.7171	2025.7188	26745	25855.75
933.8544	2027.2935	26685.85	25792.5
933.9917	2028.8674	26550.85	25660
934.129	2030.4406	26461.85	25572.95
934.2662	2032.0131	26321.1	25432.95
934.4034	2033.5849	26228.4	25331.8
934.5406	2035.1559	26168.65	25276.5
934.6778	2036.7261	26087.15	25196.8
934.8149	2038.2957	26021.15	25128.85
934.952	2039.8645	25979.1	25089.3
935.0891	2041.4325	25948.2	25051.85
935.2262	2042.9998	25797.85	24906.55
935.3632	2044.5664	25724.2	24831
935.5002	2046.1323	25676.15	24786.3
935.6372	2047.6974	25598.75	24707.95
935.7742	2049.2617	25506.8	24618.1
935.9111	2050.8254	25452.65	24541.25
936.048	2052.3883	25406.1	24513.8
936.1849	2053.9504	25291.3	24399.55
936.3218	2055.5118	25210	24318.5
936.4586	2057.0725	25073.4	24178.55
936.5955	2058.6325	24985.55	24095.2
936.7323	2060.1917	24945.25	24052.3
936.869	2061.7502	24906.95	24014.15
937.0058	2063.3079	24760.7	23870.35
937.1425	2064.8649	24649	23753.55
937.2792	2066.4212	24585.15	23694.25
937.4159	2067.9767	24534.15	23642.5
937.5525	2069.5315	24420.25	23530.25
937.6891	2071.0856	24274.95	23382.8
937.8257	2072.6389	24219.25	23327.4
937.9623	2074.1915	24091.05	23202.05
938.0989	2075.7433	23954.45	23061.3
938.2354	2077.2945	23938.2	23048.65
938.3719	2078.8448	23849.1	22956.25
938.5084	2080.3945	23739.6	22848.4
938.6448	2081.9434	23708.95	22818.85
938.7812	2083.4916	23621.9	22730.45
938.9176	2085.039	23479.1	22586.3
939.054	2086.5857	23475.15	22581
939.1903	2088.1317	23404.05	22511.35
939.3267	2089.677	23330.95	22438.9
939.463	2091.2215	23277.55	22384.95
939.5992	2092.7652	23184.8	22291.5
939.7355	2094.3083	23124.6	22231.8
939.8717	2095.8506	23102.15	22211.8
940.0079	2097.3921	23053.75	22162.25
940.1441	2098.933	22962.9	22072.45
940.2802	2100.4731	22907.15	22016.95
940.4163	2102.0124	22829.95	21928.85
940.5524	2103.5511	22764.35	21869.6
940.6885	2105.089	22740.6	21848.15
940.8245	2106.6261	22632.25	21738.7
940.9606	2108.1626	22565.5	21672.45
941.0965	2109.6983	22552.65	21631.2
941.2325	2111.2332	22434.75	21539.4
941.3684	2112.7675	22367.8	21472.65
941.5044	2114.301	22315.4	21419.75
941.6403	2115.8337	22268.25	21370.8
941.7761	2117.3657	22188.7	21294.4
941.912	2118.897	22132.7	21236.4
942.0478	2120.4276	22035.75	21134
942.1835	2121.9575	21928.75	21034.55
942.3193	2123.4866	21934.8	21024.1
942.455	2125.0149	21871.6	20972.8
942.5907	2126.5426	21745.05	20852.75
942.7264	2128.0695	21670.45	20774.75
942.8621	2129.5956	21630	20736.45
942.9977	2131.1211	21597.15	20699.35
943.1333	2132.6458	21526.15	20634.3
943.2689	2134.1698	21431.05	20539.2
943.4044	2135.693	21345.05	20449
943.54	2137.2155	21301.05	20406.85
943.6755	2138.7373	21287.75	20395.25
943.8109	2140.2584	21207.35	20316.25
943.9464	2141.7787	21133.6	20235.85
944.0818	2143.2983	21011.75	20121.15
944.2172	2144.8171	20904.35	20015.1
944.3526	2146.3353	20861.95	19968.95
944.4879	2147.8527	20805	19913.55
944.6232	2149.3693	20737.45	19844.25
944.7585	2150.8853	20648.65	19756.05
944.8938	2152.4005	20563.2	19671.05
945.029	2153.9149	20518.1	19625
945.1642	2155.4287	20470.95	19579.05
945.2994	2156.9417	20404.45	19512.55
945.4346	2158.454	20303.5	19409
945.5697	2159.9655	20291.35	19401.95
945.7048	2161.4764	20244.4	19353.7
945.8399	2162.9865	20155.7	19264.6
945.9749	2164.4958	20090.5	19196.45
946.1099	2166.0045	20026.55	19130.55
946.2449	2167.5124	19965.5	19072.15
946.3799	2169.0195	19923.65	19032.2
946.5148	2170.526	19873.4	18981
946.6498	2172.0317	19816.55	18924.8
946.7846	2173.5367	19765.7	18870.85
946.9195	2175.0409	19687.35	18796.55
947.0543	2176.5445	19670.8	18780.2
947.1891	2178.0473	19587.55	18695.2
947.3239	2179.5494	19497.5	18601.5
947.4587	2181.0507	19392.25	18499.2
947.5934	2182.5513	19350.7	18459.5
947.7281	2184.0512	19333.6	18443.15
947.8628	2185.5504	19205.7	18316.5
947.9974	2187.0488	19117.95	18226.8
948.132	2188.5465	19069.85	18177.1
948.2666	2190.0435	19000.3	18107.05
948.4012	2191.5397	18955.4	18064.6
948.5357	2193.0353	18878.95	17988.8
948.6702	2194.5301	18761.4	17867.85
948.8047	2196.0241	18694.9	17802
948.9392	2197.5175	18650.4	17758.15
949.0736	2199.0101	18584.15	17689.5
949.208	2200.502	18462.55	17571.55
949.3424	2201.9931	18392.45	17500.3
949.4767	2203.4835	18363.2	17470.35
949.611	2204.9733	18307.6	17410.05
949.7453	2206.4622	18262.1	17371.7
949.8796	2207.9505	18177.25	17284.95
950.0138	2209.438	18098.9	17210.05
950.148	2210.9248	18032.8	17139.15
950.2822	2212.4109	17966.7	17075.9
950.4164	2213.8962	17860.3	16964.6
950.5505	2215.3809	17842.85	16949.05
950.6846	2216.8648	17790.4	16898.65
950.8186	2218.3479	17742.4	16845.35
950.9527	2219.8304	17654.1	16759.95
951.0867	2221.3121	17602.5	16709.3
951.2207	2222.7931	17538.4	16646.7
951.3546	2224.2733	17482.6	16590.9
951.4886	2225.7529	17397.4	16505.3
951.6225	2227.2317	17351.1	16457.65
951.7563	2228.7098	17330.35	16439.05
951.8902	2230.1872	17244.6	16352.8
952.024	2231.6638	17181.5	16289.25
952.1578	2233.1397	17087.7	16190.7
952.2916	2234.6149	17080.6	16188.75
952.4253	2236.0894	17007.7	16114.75
952.559	2237.5632	16930.55	16030.6
952.6927	2239.0362	16858.35	15965.7
952.8263	2240.5085	16773.15	15881.6
952.9599	2241.9801	16754.85	15860.85
953.0935	2243.4509	16696.9	15808.55
953.2271	2244.921	16618.95	15728.4
953.3606	2246.3904	16549.4	15654.55
953.4941	2247.8591	16489.45	15597.55
953.6276	2249.3271	16455.25	15563.5
953.7611	2250.7943	16389.9	15495.95
953.8945	2252.2608	16330.25	15437.5
954.0279	2253.7266	16292.1	15400.9
954.1612	2255.1917	16249.6	15356.65
954.2946	2256.656	16184.95	15294.5
954.4279	2258.1197	16114.55	15223.9
954.5612	2259.5826	16048.45	15154.2
954.6944	2261.0447	16045.85	15153.05
954.8276	2262.5062	15947.65	15053.4
954.9608	2263.9669	15939.55	15045.65
955.094	2265.4269	15908.35	15015.85
955.2271	2266.8862	15837.65	14946
955.3602	2268.3448	15785.45	14893.25
955.4933	2269.8026	15778.7	14885.95
955.6264	2271.2598	15671.85	14780.5
955.7594	2272.7162	15641.65	14749
955.8924	2274.1719	15577.15	14685.7
956.0253	2275.6268	15546.25	14656.2
956.1583	2277.0811	15526.2	14634
956.2912	2278.5346	15461.2	14570.95
956.4241	2279.9874	15419.35	14527.6
956.5569	2281.4395	15384.85	14493.6
956.6897	2282.8908	15294.4	14399.6
956.8225	2284.3414	15283.6	14391.2
956.9553	2285.7914	15214.1	14322.1
957.088	2287.2406	15151.6	14257.7
957.2207	2288.689	15127.4	14235.5
957.3534	2290.1368	15070.3	14178.95
957.486	2291.5838	15003.8	14108.95
957.6186	2293.0302	14979.65	14085.9
957.7512	2294.4758	14906.1	14012.95
957.8838	2295.9206	14846.1	13950.1
958.0163	2297.3648	14812.75	13921.35
958.1488	2298.8082	14781.55	13888.3
958.2813	2300.251	14758.1	13864.5
958.4137	2301.693	14691	13797.7
958.5461	2303.1343	14650.1	13757.9
958.6785	2304.5748	14582.55	13689.65
958.8108	2306.0147	14542.5	13649.95
958.9432	2307.4538	14515.05	13621.9
959.0754	2308.8922	14454.8	13564.3
959.2077	2310.3299	14365.95	13473.05
959.3399	2311.7669	14338.15	13446.65
959.4721	2313.2031	14284.2	13391.6
959.6043	2314.6387	14242.45	13350.15
959.7365	2316.0735	14176.9	13284.7
959.8686	2317.5076	14148.2	13257.8
960.0006	2318.941	14117.3	13224.7
960.1327	2320.3737	14059.95	13168.65
960.2647	2321.8056	14019	13124.9
960.3967	2323.2369	13957.05	13063.75
960.5287	2324.6674	13931.8	13036.3
960.6606	2326.0972	13884.5	12992.1
960.7925	2327.5263	13808.7	12916.95
960.9244	2328.9547	13760.55	12868.85
961.0562	2330.3823	13730.75	12838.3
961.1881	2331.8092	13714.7	12819.1
961.3198	2333.2355	13637.45	12743.8
961.4516	2334.661	13634.2	12742.5
961.5833	2336.0858	13594.85	12700.7
961.715	2337.5098	13556.25	12663.05
961.8467	2338.9332	13532.15	12640.2
961.9783	2340.3558	13471.25	12575.05
962.1099	2341.7778	13407.7	12515.65
962.2415	2343.199	13347.35	12455.6
962.373	2344.6195	13322.25	12429.7
962.5045	2346.0393	13282.35	12391.85
962.636	2347.4583	13238.1	12345.45
962.7675	2348.8767	13195.35	12302.8
962.8989	2350.2943	13173.1	12281.2
963.0303	2351.7113	13155.5	12261.55
963.1617	2353.1275	13086.25	12193.55
963.293	2354.543	13043.5	12126.5
963.4243	2355.9578	12997.15	12104.3
963.5556	2357.3718	12898.05	12005.85
963.6868	2358.7852	12840.75	11946.85
963.818	2360.1978	12808.6	11916.7
963.9492	2361.6098	12791.35	11899.85
964.0803	2363.021	12744.5	11849.8
964.2114	2364.4315	12676.95	11785.1
964.3425	2365.8413	12657.15	11759.45
964.4736	2367.2504	12591.65	11700.45
964.6046	2368.6587	12504.5	11612.65
964.7356	2370.0664	12450.15	11559.05
964.8666	2371.4733	12429.85	11538.55
964.9975	2372.8795	12365.6	11474.35
965.1284	2374.285	12349.1	11456.3
965.2593	2375.6899	12292.95	11404.1
965.3901	2377.0939	12208.55	11316
965.5209	2378.4973	12177.95	11287.6
965.6517	2379.9	12126.05	11233.2
965.7825	2381.3019	12089.05	11197.05
965.9132	2382.7032	12038.25	11148.95
966.0439	2384.1037	12008.55	11119.9
966.1745	2385.5035	11963.8	11073.7
966.3051	2386.9027	11917.6	11027.55
966.4357	2388.3011	11901.25	11007.2
966.5663	2389.6987	11880.2	10988.65
966.6968	2391.0957	11831.45	10941.15
966.8273	2392.492	11771.9	10882.45
966.9578	2393.8876	11668.35	10776.35
967.0882	2395.2824	11643.9	10752.65
967.2186	2396.6765	11611.2	10721.95
967.349	2398.07	11552.35	10662.7
967.4793	2399.4627	11517.65	10623.65
967.6097	2400.8547	11487.6	10596.4
967.7399	2402.246	11442.75	10546.4
967.8702	2403.6366	11388.75	10496.6
968.0004	2405.0265	11322.85	10431.5
968.1306	2406.4156	11250.45	10354.45
968.2607	2407.8041	11232.45	10338.15
968.3909	2409.1918	11189.9	10294.75
968.521	2410.5789	11155.5	10267.05
968.651	2411.9652	11095	10200.75
968.781	2413.3508	11065	10174.1
968.911	2414.7358	11019.55	10127.65
969.041	2416.12	10995.65	10105.2
969.1709	2417.5035	10975.2	10084.55
969.3008	2418.8863	10929.45	10037.85
969.4307	2420.2684	10884.2	9992.7
969.5606	2421.6497	10840.55	9947.75
969.6904	2423.0304	10782.9	9892.05
969.8201	2424.4104	10754.25	9861.7
969.9499	2425.7896	10706.35	9807.55
970.0796	2427.1682	10679.35	9788.5
970.2093	2428.546	10633.85	9741.95
970.3389	2429.9232	10626.75	9734.55
970.4685	2431.2996	10577.4	9686.85
970.5981	2432.6753	10540.85	9650.25
970.7277	2434.0503	10500.85	9609
970.8572	2435.4246	10478.35	9587.15
970.9867	2436.7982	10404.4	9511.65
971.1161	2438.1711	10395.85	9506.65
971.2456	2439.5433	10353.5	9461.65
971.375	2440.9148	10339.35	9447.05
971.5043	2442.2856	10252.05	9360.7
971.6336	2443.6557	10247.15	9355.6
971.7629	2445.025	10199	9307.55
971.8922	2446.3937	10181.35	9289.3
972.0214	2447.7617	10168.15	9274.05
972.1506	2449.1289	10128.05	9237.3
972.2798	2450.4955	10107.85	9214.4
972.4089	2451.8613	10054.75	9164.7
972.538	2453.2265	10019.25	9128.3
972.6671	2454.5909	10048	9154.5
972.7961	2455.9546	9978.3	9086.5
972.9251	2457.3177	9928.45	9038.15
973.0541	2458.68	9896.2	9003.55
973.1831	2460.0416	9907.55	9016.05
973.312	2461.4025	9881.85	8988.45
973.4408	2462.7627	9839.4	8936.4
973.5697	2464.1222	9795.25	8904.9
973.6985	2465.4811	9788.6	8897.1
973.8273	2466.8392	9728.3	8836.3
973.956	2468.1966	9698.75	8805.3
974.0847	2469.5533	9690.3	8797.05
974.2134	2470.9093	9661.3	8771.05
974.3421	2472.2645	9622.1	8729.2
974.4707	2473.6191	9602.75	8712.05
974.5993	2474.973	9554.8	8663.3
974.7278	2476.3262	9519.75	8628.7
974.8563	2477.6787	9474.25	8583.35
974.9848	2479.0305	9436.85	8545.55
975.1132	2480.3816	9415.8	8522.15
975.2417	2481.7319	9384.1	8490.55
975.37	2483.0816	9328.7	8437.25
975.4984	2484.4306	9284.2	8393.35
975.6267	2485.7789	9265.45	8374.1
975.755	2487.1264	9251.95	8357.65
975.8833	2488.4733	9169.35	8280.75
976.0115	2489.8195	9137.1	8237.6
976.1397	2491.165	9111.5	8216.6
976.2678	2492.5097	9109.6	8216.1
976.3959	2493.8538	9059.8	8170.15
976.524	2495.1972	9008.5	8116.7
976.6521	2496.5398	8990	8097.2
976.7801	2497.8818	8939.25	8045.35
976.9081	2499.2231	8920.75	8029.55
977.036	2500.5637	8861.25	7967.3
977.164	2501.9035	8842.05	7951.7
977.2918	2503.2427	8838.45	7942.75
977.4197	2504.5812	8779.6	7888.5
977.5475	2505.919	8787.95	7893.35
977.6753	2507.256	8763.9	7872.85
977.8031	2508.5924	8709	7818.25
977.9308	2509.9281	8682.6	7786.05
978.0585	2511.2631	8639.05	7745.8
978.1861	2512.5974	8628.2	7734.8
978.3137	2513.9309	8572.95	7682
978.4413	2515.2638	8592.75	7667.95
978.5689	2516.596	8529.6	7637.25
978.6964	2517.9275	8493.65	7600.65
978.8239	2519.2583	8468.5	7576.4
978.9513	2520.5884	8425.05	7532.35
979.0788	2521.9178	8410.65	7517.75
979.2062	2523.2465	8376.75	7484.75
979.3335	2524.5745	8331.2	7438.8
979.4608	2525.9018	8294.05	7402.4
979.5881	2527.2284	8285.85	7395.45
979.7154	2528.5543	8261.7	7371.3
979.8426	2529.8796	8254.55	7362.2
979.9698	2531.2041	8244.25	7351
980.0969	2532.5279	8202.5	7311.8
980.224	2533.851	8208.55	7314.35
980.3511	2535.1735	8131.65	7241.75
980.4781	2536.4952	8130.75	7238.75
980.6052	2537.8163	8123.2	7230.7
980.7321	2539.1366	8087.2	7196.85
980.8591	2540.4562	8061.95	7169
980.986	2541.7752	8050.25	7158.85
981.1129	2543.0935	8032.65	7141.4
981.2397	2544.411	8015.95	7121.45
981.3665	2545.7279	7973.6	7080.4
981.4933	2547.0441	7973.05	7081.7
981.62	2548.3596	7936.75	7041.25
981.7467	2549.6744	7945.1	7053.3
981.8734	2550.9885	7907.85	7013.85
982.0001	2552.3019	7860.3	6968.4
982.1267	2553.6146	7842.95	6950.7
982.2532	2554.9266	7811	6918.9
982.3798	2556.2379	7816.1	6923.7
982.5063	2557.5485	7794.65	6903
982.6327	2558.8585	7764.45	6864.4
982.7592	2560.1677	7757	6862.3
982.8856	2561.4762	7734.7	6842.8
983.0119	2562.7841	7714.65	6819.9
983.1383	2564.0913	7681.95	6790.15
983.2646	2565.3977	7686.75	6796.25
983.3908	2566.7035	7656.8	6765
983.517	2568.0086	7644.45	6749.7
983.6432	2569.313	7627.15	6734.7
983.7694	2570.6167	7604.75	6708.4
983.8955	2571.9197	7571.95	6678.9
984.0216	2573.222	7564.45	6668.55
984.1476	2574.5236	7542.45	6651.3
984.2737	2575.8246	7515.55	6622.3
984.3996	2577.1248	7513	6618.55
984.5256	2578.4244	7507.8	6617.7
984.6515	2579.7232	7479.9	6588
984.7774	2581.0214	7492.25	6577.3
984.9032	2582.3189	7457.1	6564.6
985.029	2583.6157	7437.15	6539.25
985.1548	2584.9118	7429.15	6535
985.2806	2586.2072	7395.35	6504.4
985.4063	2587.5019	7367.4	6475.75
985.5319	2588.7959	7337.6	6445.55
985.6576	2590.0893	7352	6458.2
985.7832	2591.3819	7331.15	6439.65
985.9087	2592.6739	7286	6395.45
986.0343	2593.9652	7267.1	6374
986.1597	2595.2557	7235	6344
986.2852	2596.5456	7209.55	6315.6
986.4106	2597.8348	7194.15	6301.95
986.536	2599.1234	7182.05	6290.65
986.6614	2600.4112	7152.65	6259.8
986.7867	2601.6983	7150	6253.75
986.912	2602.9848	7107.25	6213.85
987.0372	2604.2705	7061.45	6160.3
987.1624	2605.5556	7057.55	6165.75
987.2876	2606.84	7028.1	6138.3
987.4128	2608.1237	7004	6111.7
987.5379	2609.4067	6972.05	6081.4
987.6629	2610.689	6937.7	6037.45
987.788	2611.9707	6926.4	6030.85
987.913	2613.2516	6922.2	6024.6
988.0379	2614.5319	6892.4	6000.95
988.1629	2615.8115	6849.6	5957.55
988.2878	2617.0903	6813.5	5921.05
988.4126	2618.3685	6802	5909
988.5375	2619.6461	6773.25	5880.95
988.6622	2620.9229	6759.65	5867.4
988.787	2622.199	6754	5860.9
988.9117	2623.4745	6702.3	5811.15
989.0364	2624.7493	6691.3	5799
989.161	2626.0234	6656.75	5765.05
989.2857	2627.2968	6644.45	5752.85
989.4102	2628.5695	6641.15	5746.45
989.5348	2629.8415	6587.85	5696.65
989.6593	2631.1128	6568.8	5674.4
989.7837	2632.3835	6530.85	5640.65
989.9082	2633.6535	6520.95	5629.85
990.0326	2634.9228	6500.4	5608.4
990.1569	2636.1914	6464.85	5572.85
990.2812	2637.4593	6466	5567.5
990.4055	2638.7265	6440.7	5548.65
990.5298	2639.9931	6409.8	5516.55
990.654	2641.259	6417.05	5523.75
990.7782	2642.5242	6389.15	5496.05
990.9023	2643.7887	6359.7	5465.8
991.0264	2645.0525	6343.05	5452.95
991.1505	2646.3156	6306.95	5413.95
991.2745	2647.5781	6291.1	5400.1
991.3985	2648.8398	6262.55	5372
991.5225	2650.1009	6253.45	5352.1
991.6464	2651.3613	6232.35	5340.65
991.7703	2652.6211	6212.55	5319.2
991.8942	2653.8801	6202.65	5313.1
992.018	2655.1385	6166.85	5272.55
992.1418	2656.3961	6174.1	5282.45
992.2655	2657.6531	6143.5	5252.25
992.3892	2658.9094	6148.3	5255.8
992.5129	2660.1651	6115.2	5223.95
992.6366	2661.42	6089.2	5197.45
992.7602	2662.6743	6092.7	5199.8
992.8837	2663.9279	6084.5	5191.7
993.0073	2665.1808	6057.5	5163.3
993.1307	2666.433	6024	5130.8
993.2542	2667.6846	6025.65	5134.7
993.3776	2668.9354	6026.05	5129.95
993.501	2670.1856	5999	5108.05
993.6244	2671.4351	5990.85	5099.15
993.7477	2672.6839	5959.65	5068.15
993.8709	2673.9321	5950.9	5059.65
993.9942	2675.1795	5930.7	5037
994.1174	2676.4263	5907.5	5016.05
994.2405	2677.6724	5882.1	4991.15
994.3637	2678.9179	5870.5	4977.55
994.4868	2680.1626	5853.6	4964.4
994.6098	2681.4067	5856.3	4964.1
994.7328	2682.6501	5827.6	4934.35
994.8558	2683.8928	5816.4	4923.95
994.9788	2685.1348	5811.9	4920.45
995.1017	2686.3761	5770.1	4879.25
995.2245	2687.6168	5760.05	4868.65
995.3474	2688.8568	5717.9	4825.6
995.4702	2690.0961	5708.4	4816.7
995.5929	2691.3348	5691.5	4800.75
995.7156	2692.5727	5673	4780.15
995.8383	2693.81	5648.1	4754.85
995.961	2695.0466	5636.4	4745.25
996.0836	2696.2826	5633.15	4740.1
996.2062	2697.5178	5612.45	4718.4
996.3287	2698.7524	5601.65	4709.45
996.4512	2699.9863	5587.35	4693.65
996.5737	2701.2195	5552.05	4659.1
996.6961	2702.452	5550.85	4659.2
996.8185	2703.6839	5530.55	4637.1
996.9408	2704.9151	5511.85	4621.7
997.0631	2706.1456	5482.4	4589.2
997.1854	2707.3755	5482.55	4591.75
997.3077	2708.6046	5485.15	4589.8
997.4299	2709.8331	5482.95	4588.9
997.552	2711.0609	5459.65	4567.1
997.6742	2712.2881	5436.25	4542.95
997.7963	2713.5145	5436.85	4542.2
997.9183	2714.7403	5438.8	4547.15
998.0403	2715.9654	5411.2	4519.95
998.1623	2717.1899	5401.35	4496.25
998.2842	2718.4136	5400.8	4509.45
998.4062	2719.6367	5403.75	4512.25
998.528	2720.8591	5392.75	4494
998.6498	2722.0809	5368.8	4477.35
998.7716	2723.3019	5364.05	4467.9
998.8934	2724.5223	5360.3	4465.35
999.0151	2725.7421	5347.9	4455.35
999.1368	2726.9611	5317.3	4421.15
999.2584	2728.1795	5310.65	4414.05
999.38	2729.3972	5295	4403.4
999.5016	2730.6142	5259.55	4359.8
999.6231	2731.8306	5244.5	4351.9
999.7446	2733.0462	5209.05	4316.4
999.8661	2734.2612	5179.8	4284.1
999.9875	2735.4756	5141.55	4248.05
1000.1089	2736.6892	5107.8	4213.4
1000.2302	2737.9022	5070.55	4180.3
1000.3515	2739.1145	5051.25	4161.15
1000.4728	2740.3262	5043.55	4143.85
1000.594	2741.5372	4995.35	4102
1000.7152	2742.7475	4958.35	4064.75
1000.8363	2743.9571	4960.85	4066.35
1000.9575	2745.1661	4924.65	4027.7
1001.0785	2746.3744	4902.5	4010.5
1001.1996	2747.582	4890.15	3998.65
1001.3206	2748.7889	4864.8	3973.3
1001.4415	2749.9952	4837.25	3947.2
1001.5625	2751.2008	4807.65	3914.4
1001.6833	2752.4057	4815.75	3920.75
1001.8042	2753.61	4789.1	3894.35
1001.925	2754.8136	4778.75	3883.6
1002.0458	2756.0165	4758	3865.4
1002.1665	2757.2188	4751	3860
1002.2872	2758.4204	4733.45	3838.2
1002.4078	2759.6213	4711.6	3818.3
1002.5285	2760.8215	4716.9	3821.65
1002.649	2762.0211	4686.75	3793.5
1002.7696	2763.22	4668.1	3773.7
1002.8901	2764.4182	4655.8	3763.15
1003.0106	2765.6158	4634.75	3743.15
1003.131	2766.8127	4622.2	3729.15
1003.2514	2768.009	4614.4	3721.25
1003.3717	2769.2045	4586.05	3692.55
1003.492	2770.3994	4577.65	3683.7
1003.6123	2771.5936	4571.15	3679.15
1003.7325	2772.7872	4547.4	3657.3
1003.8527	2773.9801	4521.75	3627.05
1003.9729	2775.1723	4530.6	3622.25
1004.093	2776.3639	4510	3617.65
1004.2131	2777.5548	4487.4	3592.35
1004.3331	2778.745	4468.5	3575.8
1004.4531	2779.9346	4467.1	3576.1
1004.5731	2781.1235	4473.5	3581.4
1004.693	2782.3117	4440.15	3548.5
1004.8129	2783.4992	4436.85	3546.05
1004.9328	2784.6861	4418.9	3528.15
1005.0526	2785.8723	4425.8	3531.6
1005.1723	2787.0579	4404.25	3510.8
1005.2921	2788.2428	4408.25	3516.65
1005.4118	2789.427	4402.4	3510.6
1005.5314	2790.6106	4397.7	3506.05
1005.651	2791.7935	4399.4	3506.15
1005.7706	2792.9757	4394.5	3503.85
1005.8902	2794.1573	4383.9	3489
1006.0097	2795.3382	4372.35	3478.6
1006.1291	2796.5184	4367.35	3476.95
1006.2485	2797.698	4386.1	3490.3
1006.3679	2798.8769	4397.25	3504.8
1006.4873	2800.0551	4401.9	3509.25
1006.6066	2801.2327	4393.05	3498.8
1006.7258	2802.4096	4409.95	3519.5
1006.8451	2803.5859	4410	3518.1
1006.9642	2804.7615	4420.75	3529.2
1007.0834	2805.9364	4423.9	3532.75
1007.2025	2807.1106	4433.45	3543.25
1007.3216	2808.2842	4453.85	3561.75
1007.4406	2809.4572	4477.85	3584.95
1007.5596	2810.6294	4509.85	3617.15
1007.6785	2811.801	4533.2	3641.6
1007.7975	2812.972	4568.65	3676.25
1007.9163	2814.1423	4592.9	3701.55
1008.0352	2815.3119	4648.65	3757.45
1008.154	2816.4808	4676.85	3785.65
1008.2727	2817.6491	4697.15	3806.65
1008.3914	2818.8167	4730.7	3840.4
1008.5101	2819.9837	4792.2	3896.2
1008.6288	2821.15	4802.1	3908.95
1008.7474	2822.3157	4846.55	3955.2
1008.8659	2823.4807	4895.95	4006.8
1008.9844	2824.645	4940.75	4046.05
1009.1029	2825.8086	4945.15	4054.3
1009.2214	2826.9716	4970.55	4079.8
1009.3398	2828.134	5019.05	4129.5
1009.4581	2829.2957	5047.65	4156.95
1009.5764	2830.4567	5050.5	4161.05
1009.6947	2831.617	5070.1	4180.35
1009.813	2832.7767	5076.95	4185.35
1009.9312	2833.9358	5066.05	4176.2
1010.0493	2835.0941	5072	4177.8
1010.1675	2836.2519	5038.55	4144.95
1010.2855	2837.4089	5019	4128.15
1010.4036	2838.5653	5024.2	4130.4
1010.5216	2839.7211	5008.85	4117.35
1010.6396	2840.8761	5008.3	4117.25
1010.7575	2842.0306	5016.45	4126.5
1010.8754	2843.1843	5058.8	4166.9
1010.9932	2844.3374	5088.7	4195.8
1011.111	2845.4899	5123.85	4231.4
1011.2288	2846.6417	5203	4313.35
1011.3465	2847.7928	5257.4	4366.65
1011.4642	2848.9433	5327.6	4436.75
1011.5818	2850.0931	5401	4508
1011.6995	2851.2422	5474.95	4581.9
1011.817	2852.3907	5541.85	4650.95
1011.9345	2853.5385	5613.3	4721.5
1012.052	2854.6857	5681.95	4762.5
1012.1695	2855.8323	5690.15	4799.75
1012.2869	2856.9781	5744.5	4854.2
1012.4042	2858.1233	5777.5	4885.65
1012.5216	2859.2679	5813.4	4921.9
1012.6389	2860.4118	5847.1	4954.6
1012.7561	2861.555	5888.4	4991.9
1012.8733	2862.6976	5909.2	5015.85
1012.9905	2863.8395	5901.5	5010.25
1013.1076	2864.9808	5935.3	5044.25
1013.2247	2866.1214	5944.8	5056.75
1013.3417	2867.2614	5942.7	5052.4
1013.4587	2868.4007	5939.75	5047.8
1013.5757	2869.5393	5961.55	5068.95
1013.6926	2870.6773	5937.8	5043.95
1013.8095	2871.8146	5953.25	5060.1
1013.9263	2872.9513	5956.2	5063.45
1014.0431	2874.0874	5920.1	5028.8
1014.1599	2875.2227	5908.45	5017.95
1014.2766	2876.3574	5886.75	4995.6
1014.3933	2877.4915	5855	4961.7
1014.51	2878.6249	5795.55	4903.8
1014.6266	2879.7577	5784.8	4890.5
1014.7431	2880.8898	5749.05	4847.3
1014.8596	2882.0212	5725.15	4833.9
1014.9761	2883.152	5721.8	4829.6
1015.0925	2884.2821	5688.15	4799.15
1015.2089	2885.4116	5670.9	4779.95
1015.3253	2886.5405	5650.3	4759.15
1015.4416	2887.6686	5650.8	4755
1015.5579	2888.7962	5637.95	4747.95
1015.6741	2889.923	5631.7	4740.85
1015.7903	2891.0493	5639.9	4748.75
1015.9065	2892.1748	5634.4	4743.6
1016.0226	2893.2997	5656.2	4764.95
1016.1387	2894.424	5636.65	4746.8
1016.2547	2895.5476	5654.3	4762.05
1016.3707	2896.6706	5677.2	4787.9
1016.4866	2897.7929	5695.1	4803.25
1016.6025	2898.9145	5706.75	4814.75
1016.7184	2900.0355	5730.3	4837.45
1016.8342	2901.1559	5748.85	4855.45
1016.95	2902.2756	5784.55	4887.95
1017.0658	2903.3946	5795	4904.1
1017.1815	2904.513	5818.1	4924.15
1017.2971	2905.6308	5847.15	4956.3
1017.4127	2906.7479	5844	4953.5
1017.5283	2907.8643	5883	4989.1
1017.6439	2908.9801	5875.35	4983.45
1017.7594	2910.0953	5865.45	4973.25
1017.8748	2911.2098	5854.35	4958.85
1017.9902	2912.3236	5848.95	4949.9
1018.1056	2913.4368	5815.85	4922
1018.2209	2914.5494	5797.15	4905.3
1018.3362	2915.6613	5766.45	4871.3
1018.4515	2916.7725	5742.85	4848.4
1018.5667	2917.8831	5691.35	4801.3
1018.6819	2918.9931	5660.95	4768.25
1018.797	2920.1024	5635.05	4743.3
1018.9121	2921.211	5591.55	4699.15
1019.0271	2922.319	5567.1	4674.4
1019.1421	2923.4264	5546.3	4656.8
1019.2571	2924.5331	5526.45	4635.35
1019.372	2925.6391	5489.3	4596.55
1019.4869	2926.7445	5486.8	4595.4
1019.6017	2927.8493	5457.4	4564.45
1019.7165	2928.9534	5451.65	4560.6
1019.8313	2930.0569	5442.2	4547.8
1019.946	2931.1597	5430.55	4537
1020.0606	2932.2619	5406.95	4516.7
1020.1753	2933.3634	5404.65	4512.15
1020.2899	2934.4643	5380.5	4482.65
1020.4044	2935.5645	5372.9	4474.7
1020.5189	2936.6641	5301.5	4405.4
1020.6334	2937.763	5270.7	4380.7
1020.7478	2938.8613	5203.5	4310.9
1020.8622	2939.959	5125.35	4229.4
1020.9765	2941.056	5041.05	4151.15
1021.0908	2942.1523	4949.85	4057.5
1021.2051	2943.248	4860.5	3970.25
1021.3193	2944.3431	4754.1	3864.75
1021.4334	2945.4375	4653.65	3761.95
1021.5476	2946.5313	4548.3	3658.65
1021.6617	2947.6244	4417.3	3524.95
1021.7757	2948.7169	4324.7	3432.55
1021.8897	2949.8087	4201.35	3308.9
1022.0037	2950.8999	4117.1	3224.7
1022.1176	2951.9904	4037.2	3148.3
1022.2315	2953.0803	3942.35	3051
1022.3453	2954.1696	3877.6	2986.9
1022.4591	2955.2582	3805.3	2915
1022.5728	2956.3462	3759.85	2868.35
1022.6865	2957.4335	3700.1	2808.25
1022.8002	2958.5202	3668.35	2775.05
1022.9138	2959.6062	3633.05	2741.4
1023.0274	2960.6916	3599.75	2709
1023.141	2961.7764	3570.75	2679
1023.2545	2962.8605	3562.4	2671.1
1023.3679	2963.9439	3534.05	2642.35
1023.4813	2965.0267	3501.2	2608.1
1023.5947	2966.1089	3519.5	2603.4
1023.708	2967.1905	3477.8	2585.85
1023.8213	2968.2714	3474.5	2584.75
1023.9346	2969.3516	3467.25	2576.65
1024.0478	2970.4312	3451.7	2553.6
1024.1609	2971.5102	3454.35	2564.4
1024.274	2972.5885	3437.3	2548.7
1024.3871	2973.6662	3443.15	2547.85
1024.5002	2974.7432	3422	2531.55
1024.6132	2975.8196	3408.1	2516.45
1024.7261	2976.8954	3392.2	2501.9
1024.839	2977.9705	3370.8	2480.75
1024.9519	2979.045	3356.55	2465.65
1025.0647	2980.1188	3332.6	2440.95
1025.1775	2981.192	3297.1	2406.35
1025.2902	2982.2645	3277.55	2386.1
1025.4029	2983.3364	3254.9	2364.4
1025.5156	2984.4077	3208.45	2319.95
1025.6282	2985.4783	3174.6	2278.4
1025.7407	2986.5483	3140.85	2249.4
1025.8532	2987.6177	3105.1	2214.05
1025.9657	2988.6864	3068.55	2177.55
1026.0782	2989.7545	3025.3	2134.7
1026.1906	2990.8219	2985	2093.35
1026.3029	2991.8887	2947.35	2053.65
1026.4152	2992.9548	2916.85	2025.45
1026.5275	2994.0204	2883.3	1993.4
1026.6397	2995.0852	2846.95	1957.8
1026.7519	2996.1495	2831	1938.5
1026.864	2997.2131	2775	1884.1
1026.9761	2998.276	2762.45	1872.8
1027.0882	2999.3383	2733.35	1839.55
1027.2002	3000.4	2699.55	1806.9
1027.3122	3001.4611	2685.25	1793.9
1027.4241	3002.5215	2672.6	1778.2
1027.536	3003.5812	2656.4	1766.1
1027.6478	3004.6404	2633.4	1741
1027.7596	3005.6989	2629.75	1737.5
1027.8714	3006.7567	2610.85	1720.35
1027.9831	3007.8139	2626.05	1713.6
1028.0947	3008.8705	2562.3	1672.4
1028.2064	3009.9264	2575.15	1681.4
1028.3179	3010.9818	2575.55	1684.75
1028.4295	3012.0364	2568.7	1676.35
1028.541	3013.0905	2558.5	1668.4
1028.6524	3014.1439	2535.7	1643.15
1028.7638	3015.1966	2532.35	1642.1
1028.8752	3016.2487	2527.15	1635.3
1028.9865	3017.3002	2528.45	1630.55
1029.0978	3018.3511	2524.75	1634.95
1029.209	3019.4013	2516.35	1626.35
1029.3202	3020.4509	2504.5	1614.5
1029.4314	3021.4998	2509.6	1618.4
1029.5425	3022.5481	2500.5	1607.95
1029.6535	3023.5958	2509.35	1619.9
1029.7645	3024.6428	2496.6	1606.35
1029.8755	3025.6892	2491.05	1600.3
1029.9864	3026.735	2479.5	1588.05
1030.0973	3027.7802	2479.75	1588.3
1030.2082	3028.8247	2477.15	1584.35
1030.319	3029.8685	2478.95	1588.5
1030.4297	3030.9118	2478.35	1586.2
1030.5404	3031.9544	2477.25	1588.8
1030.6511	3032.9963	2466.3	1576
1030.7617	3034.0376	2457.7	1566.25
1030.8723	3035.0783	2469.75	1575.35
1030.9829	3036.1184	2459.75	1565.55
1031.0934	3037.1578	2462.1	1571.45
1031.2038	3038.1966	2464.8	1572.35
1031.3142	3039.2348	2469	1580.5
1031.4246	3040.2723	2461.75	1562.35
1031.5349	3041.3092	2443.7	1554.5
1031.6452	3042.3455	2446.85	1555.8
1031.7554	3043.3811	2436.6	1546.8
1031.8656	3044.4161	2426.05	1533.85
1031.9758	3045.4505	2420.65	1530.8
1032.0859	3046.4842	2413.05	1522.25
1032.1959	3047.5173	2400.1	1510.6
1032.3059	3048.5498	2389.7	1498.25
1032.4159	3049.5816	2376.95	1485.3
1032.5258	3050.6128	2370.1	1479.25
1032.6357	3051.6434	2355.6	1463.25
1032.7455	3052.6734	2340.95	1448.75
1032.8553	3053.7027	2331.65	1440.75
1032.9651	3054.7314	2317.05	1427.6
1033.0748	3055.7594	2304.3	1413.5
1033.1845	3056.7868	2303.7	1412.65
1033.2941	3057.8136	2293.55	1401.95
1033.4037	3058.8398	2283.35	1393.7
1033.5132	3059.8653	2266.8	1375.05
1033.6227	3060.8902	2260.75	1370.5
1033.7321	3061.9145	2253.1	1363.45
1033.8415	3062.9381	2246.9	1355.65
1033.9509	3063.9612	2240.85	1334.4
1034.0602	3064.9835	2224.3	1331.95
1034.1694	3066.0053	2208.2	1315.75
1034.2787	3067.0264	2207.95	1315.95
1034.3878	3068.0469	2197.6	1306.6
1034.497	3069.0668	2184.15	1290.05
1034.6061	3070.086	2168.25	1279.05
1034.7151	3071.1046	2158.75	1268.4
1034.8241	3072.1226	2142.05	1249.65
1034.9331	3073.1399	2137.4	1247.05
1035.042	3074.1567	2119.2	1227.5
1035.1508	3075.1727	2107.35	1213.1
1035.2597	3076.1882	2102.35	1212.1
1035.3684	3077.203	2080.4	1189
1035.4772	3078.2173	2073.65	1182.05
1035.5859	3079.2308	2059.4	1166.2
1035.6945	3080.2438	2052.15	1158.55
1035.8031	3081.2561	2031.45	1138.45
1035.9117	3082.2678	2017.3	1127.5
1036.0202	3083.2789	2012.55	1120.6
1036.1286	3084.2893	2004.75	1115.95
1036.2371	3085.2991	1997.15	1104.7
1036.3454	3086.3083	1996.55	1100.1
1036.4538	3087.3169	1970.5	1077.6
1036.562	3088.3248	1967.4	1074.9
1036.6703	3089.3321	1960.8	1069.15
1036.7785	3090.3388	1946.8	1058.1
1036.8866	3091.3449	1948.9	1059.9
1036.9948	3092.3503	1941.1	1049.4
1037.1028	3093.3551	1933.4	1043.55
1037.2108	3094.3593	1925.55	1036.3
1037.3188	3095.3629	1923.35	1034.7
1037.4267	3096.3658	1908.1	1016.8
1037.5346	3097.3681	1898.05	1009.65
1037.6425	3098.3698	1904.75	1013.05
1037.7503	3099.3708	1896.15	1001.3
1037.858	3100.3713	1889.3	999.7
1037.9657	3101.3711	1869.75	978.05
1038.0734	3102.3702	1963.2	952.7
1038.181	3103.3688	1869.9	978.15
1038.2886	3104.3667	1861.95	972.75
1038.3961	3105.364	1851.2	960.45
1038.5036	3106.3607	1839.3	946.6
1038.611	3107.3568	1834	942.4
1038.7184	3108.3522	1830.2	939.4
1038.8257	3109.347	1823	931.35
1038.933	3110.3412	1824.65	929.8
1039.0403	3111.3348	1809.25	918.9
1039.1475	3112.3277	1811.05	921.45
1039.2547	3113.32	1803.95	914.75
1039.3618	3114.3117	1800.5	909.9
1039.4689	3115.3028	1798.8	908.85
1039.5759	3116.2932	1787.9	893.8
1039.6829	3117.2831	1794.8	898.25
1039.7898	3118.2723	1770.8	879.75
1039.8967	3119.2608	1770.85	879.05
1040.0035	3120.2488	1760.5	870.05
1040.1103	3121.2361	1763	870.95
1040.2171	3122.2229	1751.95	862.6
1040.3238	3123.209	1748.25	858.55
1040.4305	3124.1944	1744.55	854.95
1040.5371	3125.1793	1739.4	849.65
1040.6437	3126.1635	1736.5	846.6
1040.7502	3127.1471	1728.15	839.65
1040.8567	3128.1301	1728.2	838
1040.9631	3129.1125	1719.25	827.85
1041.0695	3130.0942	1706.1	814.85
1041.1759	3131.0753	1731.5	833.2
1041.2822	3132.0558	1717.15	822.15
1041.3884	3133.0357	1707.7	815.4
1041.4946	3134.015	1697.15	805.3
1041.6008	3134.9936	1700.1	809.9
1041.7069	3135.9716	1716.1	805.5
1041.813	3136.949	1688.4	797
1041.919	3137.9258	1686.45	790.2
1042.025	3138.902	1687	790.5
1042.1309	3139.8775	1678.25	789.2
1042.2368	3140.8524	1680.45	790.85
1042.3427	3141.8267	1674.1	782.85
1042.4485	3142.8004	1668.55	778.6
1042.5542	3143.7735	1674	775.55
1042.6599	3144.7459	1662.4	768.05
1042.7656	3145.7178	1652.7	761.55
1042.8712	3146.689	1651.25	762.25
1042.9768	3147.6596	1650.65	757.45
1043.0823	3148.6295	1647.1	755.9
1043.1878	3149.5989	1636.05	746.5
1043.2932	3150.5676	1636.85	746.25
1043.3986	3151.5357	1618.65	731.05
1043.5039	3152.5032	1623.3	735.5
1043.6092	3153.4701	1619.35	728.15
1043.7145	3154.4364	1620.5	726.6
1043.8197	3155.402	1613.85	724.95
1043.9248	3156.367	1613.4	722.8
1044.03	3157.3315	1644.2	709.95
1044.135	3158.2952	1604.6	713.2
1044.24	3159.2584	1601.7	713.35
1044.345	3160.221	1593.2	703.6
1044.4499	3161.1829	1585.3	695
1044.5548	3162.1442	1584.3	696.4
1044.6596	3163.105	1581.95	692.35
1044.7644	3164.065	1576.2	686.35
1044.8692	3165.0245	1576.15	684.55
1044.9739	3165.9834	1569.5	680.35
1045.0785	3166.9416	1565.25	676.05
1045.1831	3167.8993	1556.75	666.85
1045.2877	3168.8563	1558.6	667.45
1045.3922	3169.8127	1549.5	659
1045.4966	3170.7684	1548.75	656.95
1045.6011	3171.7236	1548.95	657.9
1045.7054	3172.6782	1551.3	660.45
1045.8098	3173.6321	1548.95	658.45
1045.914	3174.5854	1539.95	644.9
1046.0183	3175.5381	1533.15	642.25
1046.1224	3176.4902	1528.9	638.45
1046.2266	3177.4417	1528.2	639.9
1046.3307	3178.3926	1516	628
1046.4347	3179.3428	1513.1	624.6
1046.5387	3180.2924	1516.65	626.75
1046.6427	3181.2415	1508.8	619.7
1046.7466	3182.1899	1503.15	610.9
1046.8504	3183.1377	1505.55	616.65
1046.9542	3184.0848	1506.8	615.2
1047.058	3185.0314	1493.35	602.85
1047.1617	3185.9773	1489.45	600.45
1047.2654	3186.9227	1488.3	597.15
1047.369	3187.8674	1492.45	602.6
1047.4726	3188.8115	1487.95	592.4
1047.5761	3189.755	1478.15	586.65
1047.6796	3190.6979	1480.1	589.9
1047.783	3191.6402	1469.9	581.9
1047.8864	3192.5818	1468.05	579.15
1047.9898	3193.5229	1493.5	579.85
1048.0931	3194.4633	1469.15	581.15
1048.1963	3195.4031	1465.9	575.35
1048.2995	3196.3423	1457.5	569.15
1048.4027	3197.2809	1455.95	565.9
1048.5058	3198.2189	1457	567.35
1048.6089	3199.1563	1462.6	565.05
1048.7119	3200.0931	1445.2	555.1
1048.8148	3201.0292	1439.9	550.75
1048.9178	3201.9648	1436.3	546.6
1049.0206	3202.8997	1444.2	550.7
1049.1235	3203.834	1442.2	549.75
1049.2262	3204.7677	1439.3	548.75
1049.329	3205.7008	1433.4	541.2
1049.4317	3206.6333	1427.5	538.65
1049.5343	3207.5652	1426.9	535.65
1049.6369	3208.4964	1428.8	537.15
1049.7394	3209.4271	1429.15	540.95
1049.8419	3210.3571	1410.6	520.6
1049.9444	3211.2865	1420.2	530.05
1050.0468	3212.2154	1415.5	524.85
1050.1491	3213.1436	1416.9	524.15
1050.2514	3214.0712	1411.35	514.15
1050.3537	3214.9982	1404.75	514.05
1050.4559	3215.9246	1403.95	514.55
1050.5581	3216.8503	1395.35	506.8
1050.6602	3217.7755	1391.05	499.8
1050.7623	3218.7001	1394.55	505.05
1050.8643	3219.624	1395.35	504.15
1050.9663	3220.5473	1386.4	495.25
1051.0682	3221.4701	1386.95	496.5
1051.1701	3222.3922	1389.5	498.9
1051.2719	3223.3137	1378.5	489
1051.3737	3224.2346	1379.15	489.7
1051.4754	3225.1549	1376.95	485.8
1051.5771	3226.0746	1373.25	485
1051.6788	3226.9937	1369.35	480.1
1051.7804	3227.9121	1364.55	474.1
1051.8819	3228.83	1365.6	476.05
1051.9834	3229.7473	1368.35	480.1
1052.0849	3230.6639	1362.05	472.8
1052.1863	3231.5799	1363.05	473.7
1052.2876	3232.4954	1356.65	465.4
1052.3889	3233.4102	1349.4	459.45
1052.4902	3234.3244	1348.25	459.25
1052.5914	3235.238	1349.25	458.3
1052.6926	3236.151	1369.05	457.9
1052.7937	3237.0634	1337.7	448.3
1052.8948	3237.9752	1334.85	445.95
1052.9958	3238.8864	1329.8	439
1053.0968	3239.797	1335	445.2
1053.1977	3240.7069	1338.2	447.45
1053.2986	3241.6163	1329	436.6
1053.3994	3242.5251	1326.6	439.05
1053.5002	3243.4332	1327.85	439.2
1053.6009	3244.3408	1316.25	425.6
1053.7016	3245.2477	1319.65	430.45
1053.8022	3246.154	1311.65	419.4
1053.9028	3247.0598	1314.9	424.65
1054.0034	3247.9649	1307.35	417.55
1054.1039	3248.8694	1308.75	420.25
1054.2043	3249.7733	1312	421.8
1054.3047	3250.6766	1306.95	414.95
1054.4051	3251.5793	1300.95	410.6
1054.5054	3252.4814	1299.5	409.7
1054.6056	3253.3829	1293.55	405.2
1054.7058	3254.2838	1289.8	402.35
1054.806	3255.1841	1291.6	402.35
1054.9061	3256.0838	1293.25	403.75
1055.0061	3256.9829	1279.05	390.15
1055.1062	3257.8814	1278.4	387.1
1055.2061	3258.7792	1278.45	387
1055.306	3259.6765	1273.9	381.6
1055.4059	3260.5731	1271.1	382.5
1055.5057	3261.4692	1262.9	373.05
1055.6055	3262.3647	1258.7	367.4
1055.7052	3263.2595	1252.95	363.3
1055.8049	3264.1538	1249.05	361.2
1055.9045	3265.0474	1245.8	356.55
1056.0041	3265.9404	1236.3	346.15
1056.1036	3266.8329	1224.5	335.7
1056.2031	3267.7247	1234.8	336.8
1056.3025	3268.616	1211	322
1056.4019	3269.5066	1208.95	321.1
1056.5013	3270.3966	1203.7	312.05
1056.6005	3271.286	1198.7	309.05
