Software Version:	3.9.2.0
Unit SN:	10000200
Spectrometer SN:	6960
Date:	3/6/2024 10:36:26 AM
Data Line Index:	25
Spectral Points:	2048
Integration time (ms):	125
Averages:	20
Delay (ms):	30
Sequence Number:	1
Processing:	dark subtract
Laser Power (mW):	305
Laser Current (mA):	824
Laser Diode Temp (C):	25
Laser Case Temp (C):	26.7
System Temp (C):	26.5
Spectrometer Temp (C):	23.8
CCD Temp (C):	0.008
Secondary Temp (C):	20.003
Heatsink Temp (C):	22.138
CCDPCB Temp (C):	36.329
SecondaryPCB Temp (C):	30.96

Wavelength	RamanShift	Raw Counts	Dark Subtracted
787.061	30.1047	1160.8	748.55
787.2016	32.3739	1187.6	777.65
787.3422	34.6426	1224.8	813.85
787.4828	36.9109	1283.1	869.05
787.6235	39.1787	1336.15	917.2
787.7642	41.4461	1404.4	983.2
787.9049	43.7131	1466.2	1040.15
788.0456	45.9796	1529.5	1100.8
788.1863	48.2456	1608.2	1176.85
788.3271	50.5112	1682.7	1247
788.4679	52.7764	1750.45	1313.45
788.6087	55.0411	1830.3	1387.35
788.7496	57.3054	1925	1475.7
788.8904	59.5692	2013.85	1564.05
789.0313	61.8326	2115.2	1662.4
789.1722	64.0955	2215.5	1758.6
789.3132	66.3579	2345	1881.6
789.4541	68.6199	2514.55	2048.4
789.5951	70.8815	2767.15	2296.7
789.7361	73.1426	3321.1	2846.3
789.8771	75.4032	4695.4	4216.35
790.0181	77.6634	8231.95	7747.4
790.1592	79.9231	17717.55	17228.6
790.3003	82.1824	57663.85	57164.55
790.4414	84.4412	65535	65014.3
790.5825	86.6995	65535	64985.9
790.7237	88.9574	65535	64956.05
790.8648	91.2148	65535	64936.1
791.006	93.4717	65535	64924.1
791.1472	95.7282	65535	64917.05
791.2885	97.9842	65535	64914.6
791.4297	100.2398	65535	64911
791.571	102.4949	65535	64907.2
791.7123	104.7495	65535	64906.6
791.8536	107.0036	65535	64907.2
791.9949	109.2573	65535	64907.5
792.1363	111.5105	65535	64906.55
792.2777	113.7632	65535	64902
792.4191	116.0154	65535	64889.45
792.5605	118.2672	65535	64893.15
792.7019	120.5185	65535	64893.45
792.8434	122.7693	65535	64889.7
792.9849	125.0197	65535	64888.65
793.1264	127.2696	65535	64883.25
793.2679	129.519	65535	64885.4
793.4094	131.7679	65535	64880
793.551	134.0163	65535	64875.95
793.6926	136.2642	65535	64872.8
793.8342	138.5117	65535	64866.45
793.9758	140.7587	65535	64871.15
794.1175	143.0052	65535	64866.4
794.2591	145.2512	65535	64869.3
794.4008	147.4967	65535	64867.15
794.5425	149.7417	65535	64865.1
794.6842	151.9863	65535	64860.25
794.826	154.2304	65535	64854.8
794.9677	156.4739	65535	64846.8
795.1095	158.717	65535	64852.1
795.2513	160.9596	65535	64846.8
795.3931	163.2017	65535	64840.9
795.535	165.4433	65535	64842.95
795.6768	167.6844	65535	64843.5
795.8187	169.925	65535	64838.75
795.9606	172.1651	65535	64838.1
796.1025	174.4047	65535	64834.75
796.2445	176.6439	65535	64833.35
796.3864	178.8825	65535	64827
796.5284	181.1206	65535	64822.75
796.6704	183.3582	65535	64818.4
796.8124	185.5954	65535	64816.8
796.9544	187.832	65535	64814.75
797.0965	190.0681	65535	64812.4
797.2386	192.3037	65535	64808.25
797.3806	194.5388	65535	64806.3
797.5228	196.7734	65535	64805.85
797.6649	199.0075	65535	64799.05
797.807	201.2411	65535	64799.25
797.9492	203.4742	65535	64799.95
798.0914	205.7068	65535	64797.95
798.2336	207.9389	65535	64794.25
798.3758	210.1704	65535	64791.5
798.518	212.4015	65535	64792.7
798.6603	214.632	65535	64804.25
798.8025	216.862	65535	64812.55
798.9448	219.0915	65535	64812.45
799.0871	221.3205	65535	64810.65
799.2294	223.549	65535	64816.3
799.3718	225.777	65535	64817
799.5141	228.0044	65535	64813.65
799.6565	230.2314	65535	64812.25
799.7989	232.4578	65535	64808.65
799.9413	234.6837	65535	64802.8
800.0837	236.909	65535	64798.15
800.2262	239.1339	65535	64775.45
800.3687	241.3582	65535	64786.65
800.5111	243.582	65535	64755.9
800.6536	245.8053	65535	64768.55
800.7961	248.0281	65535	64772.7
800.9387	250.2503	65535	64770.9
801.0812	252.472	65535	64765.9
801.2238	254.6932	65535	64765.45
801.3664	256.9139	65535	64767.35
801.509	259.134	65535	64764.55
801.6516	261.3536	65535	64762.65
801.7942	263.5727	65535	64761.8
801.9369	265.7912	65535	64761.9
802.0795	268.0092	65535	64764.25
802.2222	270.2267	65535	64759.85
802.3649	272.4436	65535	64763.1
802.5076	274.6601	65535	64754.85
802.6504	276.8759	65535	64758.1
802.7931	279.0913	65535	64754.65
802.9359	281.3061	65535	64752.35
803.0787	283.5204	65535	64751.6
803.2215	285.7341	65535	64747.35
803.3643	287.9473	65535	64736.35
803.5071	290.16	65535	64740.35
803.6499	292.3721	65535	64748.9
803.7928	294.5837	65535	64747.75
803.9357	296.7947	65535	64747.65
804.0786	299.0052	65535	64745.1
804.2215	301.2152	65535	64746.85
804.3644	303.4246	65535	64748.7
804.5074	305.6334	65535	64748.05
804.6503	307.8418	65535	64739.15
804.7933	310.0495	65535	64738.75
804.9363	312.2568	65535	64740.4
805.0793	314.4635	65535	64739.95
805.2223	316.6696	65535	64739.1
805.3653	318.8752	65535	64728.75
805.5084	321.0802	65535	64737.65
805.6514	323.2847	65535	64735.7
805.7945	325.4887	65535	64733.6
805.9376	327.692	65535	64738.15
806.0807	329.8949	65535	64734.65
806.2238	332.0972	65535	64732.15
806.367	334.2989	65535	64728.5
806.5101	336.5001	65535	64727.35
806.6533	338.7007	65535	64725.9
806.7965	340.9008	65535	64723.2
806.9397	343.1003	65535	64723.6
807.0829	345.2992	65535	64721.7
807.2261	347.4976	65535	64720.75
807.3693	349.6955	65535	64717
807.5126	351.8927	65535	64714.55
807.6559	354.0895	65535	64708.6
807.7991	356.2856	65535	64713.85
807.9424	358.4812	65535	64715.2
808.0857	360.6763	65535	64713.5
808.2291	362.8707	65535	64716.7
808.3724	365.0646	65535	64709.9
808.5158	367.258	65535	64710.55
808.6591	369.4508	65535	64704.65
808.8025	371.643	65535	64700.05
808.9459	373.8346	65535	64703.15
809.0893	376.0257	65535	64699.4
809.2327	378.2162	65535	64703
809.3762	380.4062	65535	64702.2
809.5196	382.5956	65535	64695.9
809.6631	384.7844	65535	64697.4
809.8066	386.9726	65535	64698.15
809.9501	389.1603	65535	64707.3
810.0936	391.3474	65535	64660.6
810.2371	393.5339	65535	64703
810.3806	395.7199	65535	64706.45
810.5241	397.9052	65535	64707.45
810.6677	400.09	65535	64706.8
810.8113	402.2743	65535	64710.6
810.9548	404.4579	65535	64706.6
811.0984	406.641	65535	64706.8
811.2421	408.8235	65535	64702.55
811.3857	411.0054	65535	64704.05
811.5293	413.1868	65535	64701.2
811.673	415.3675	65535	64698.05
811.8166	417.5477	65535	64695.8
811.9603	419.7273	65535	64693.75
812.104	421.9064	65535	64685.35
812.2477	424.0848	65535	64691.9
812.3914	426.2627	65535	64691.45
812.5351	428.4399	65535	64688.35
812.6788	430.6166	65535	64685.65
812.8226	432.7928	65535	64685.5
812.9663	434.9683	65535	64683.05
813.1101	437.1432	65535	64683.9
813.2539	439.3176	65535	64683.9
813.3977	441.4914	65535	64685.65
813.5415	443.6645	65535	64681.5
813.6853	445.8371	65535	64684.2
813.8291	448.0091	65535	64683.25
813.973	450.1806	65535	64688.75
814.1168	452.3514	65535	64681
814.2607	454.5216	65535	64674.9
814.4046	456.6913	65535	64680.85
814.5485	458.8603	65535	64680.4
814.6924	461.0288	65535	64681.35
814.8363	463.1967	65535	64683.6
814.9802	465.3639	65535	64684.6
815.1241	467.5306	65535	64681.15
815.2681	469.6967	65535	64680.3
815.412	471.8622	65535	64681.3
815.556	474.0271	65535	64682.05
815.7	476.1914	65535	64676.75
815.844	478.3551	65535	64674.9
815.988	480.5182	65535	64676.8
816.132	482.6807	65535	64679.9
816.276	484.8426	65535	64683.2
816.4201	487.0039	65535	64677.05
816.5641	489.1647	65535	64675.25
816.7082	491.3248	65535	64672.75
816.8522	493.4843	65535	64676.2
816.9963	495.6432	65535	64678.95
817.1404	497.8015	65535	64669.9
817.2845	499.9592	65535	64674.4
817.4286	502.1163	65535	64670.4
817.5727	504.2728	65535	64673
817.7168	506.4287	65535	64678.2
817.861	508.5839	65535	64678
818.0051	510.7386	65535	64674.85
818.1493	512.8927	65535	64670.65
818.2935	515.0461	65535	64669.7
818.4377	517.199	65535	64670.4
818.5818	519.3512	65535	64671.05
818.726	521.5029	65535	64660.1
818.8703	523.6539	65535	64666.8
819.0145	525.8043	65535	64665.35
819.1587	527.9541	65535	64663.65
819.303	530.1033	65535	64663.5
819.4472	532.2519	65535	64663.9
819.5915	534.3999	65535	64665.65
819.7357	536.5472	65535	64666.5
819.88	538.694	65535	64665.75
820.0243	540.8401	65535	64667.35
820.1686	542.9856	65535	64657.15
820.3129	545.1305	65535	64659.3
820.4572	547.2748	65535	64659.15
820.6016	549.4185	65535	64659.05
820.7459	551.5615	65535	64657.35
820.8902	553.704	65535	64660.3
821.0346	555.8458	65535	64660.05
821.1789	557.987	65535	64660.85
821.3233	560.1276	65535	64659.05
821.4677	562.2675	65535	64659
821.6121	564.4069	65535	64659.95
821.7565	566.5456	65535	64658.5
821.9009	568.6837	65535	64654.9
822.0453	570.8212	65535	64659.9
822.1897	572.958	65535	64660
822.3342	575.0942	65535	64659.45
822.4786	577.2299	65535	64659.05
822.6231	579.3648	65535	64662.9
822.7675	581.4992	65535	64666.6
822.912	583.6329	65535	64665.15
823.0565	585.766	65535	64661
823.201	587.8985	65535	64663.15
823.3454	590.0304	65535	64636.7
823.4899	592.1616	65535	64652.85
823.6345	594.2922	65535	64658.1
823.779	596.4222	65535	64653.85
823.9235	598.5515	65535	64656.45
824.068	600.6802	65535	64655.3
824.2126	602.8083	65535	64655.6
824.3571	604.9358	65535	64653.35
824.5017	607.0626	65535	64650.85
824.6462	609.1888	65535	64651.45
824.7908	611.3144	65535	64650.9
824.9354	613.4393	65535	64652.4
825.08	615.5636	65535	64652.35
825.2246	617.6873	65535	64651.15
825.3692	619.8103	65535	64650
825.5138	621.9327	65535	64652.3
825.6584	624.0544	65535	64655.7
825.803	626.1756	65535	64652.85
825.9477	628.2961	65535	64649.2
826.0923	630.4159	65535	64648.7
826.237	632.5351	65535	64647.9
826.3816	634.6537	65535	64650.1
826.5263	636.7716	65535	64647.6
826.6709	638.8889	65535	64646.3
826.8156	641.0056	65535	64649.35
826.9603	643.1216	65535	64649.3
827.105	645.237	65535	64641.75
827.2497	647.3518	65535	64650.8
827.3944	649.4659	65535	64649.55
827.5391	651.5793	65535	64654.8
827.6838	653.6922	65535	64650.45
827.8285	655.8043	65535	64649.1
827.9733	657.9159	65535	64646.9
828.118	660.0268	65535	64645
828.2627	662.137	65535	64647.8
828.4075	664.2466	65535	64646.55
828.5522	666.3556	65535	64644.6
828.697	668.4639	65535	64643.6
828.8418	670.5716	65535	64646.75
828.9865	672.6786	65535	64645.2
829.1313	674.785	65535	64641.4
829.2761	676.8907	65535	64644.1
829.4209	678.9958	65535	64645.5
829.5657	681.1002	65535	64644
829.7105	683.204	65535	64636.7
829.8553	685.3072	65535	64639.25
830.0001	687.4097	65535	64643
830.1449	689.5115	65535	64640.1
830.2898	691.6127	65535	64645.5
830.4346	693.7132	65535	64640.95
830.5794	695.8131	65535	64634.95
830.7243	697.9123	65535	64641.6
830.8691	700.0109	65535	64638.85
831.014	702.1089	65535	64642.6
831.1588	704.2061	65535	64644.05
831.3037	706.3028	65535	64638.65
831.4486	708.3987	65535	64639.9
831.5935	710.4941	65535	64640.3
831.7383	712.5887	65535	64640.55
831.8832	714.6827	65535	64635.6
832.0281	716.7761	65535	64643.55
832.173	718.8688	65535	64641.35
832.3179	720.9608	65535	64637.25
832.4628	723.0522	65535	64632.8
832.6077	725.1429	65535	64638.35
832.7527	727.233	65535	64637.8
832.8976	729.3224	65535	64637.7
833.0425	731.4112	65535	64636.35
833.1874	733.4993	65535	64636.45
833.3324	735.5867	65535	64637.6
833.4773	737.6735	65535	64635.75
833.6222	739.7596	65535	64635.1
833.7672	741.845	65535	64638.7
833.9122	743.9298	65535	64634.4
834.0571	746.014	65535	64640.7
834.2021	748.0974	65535	64635.9
834.347	750.1802	65535	64637.65
834.492	752.2624	65535	64636.25
834.637	754.3439	65535	64635.85
834.782	756.4247	65535	64626.85
834.9269	758.5048	65535	64634.45
835.0719	760.5843	65535	64634.3
835.2169	762.6631	65535	64632.5
835.3619	764.7413	65535	64635.7
835.5069	766.8188	65535	64632.05
835.6519	768.8956	65535	64633.9
835.7969	770.9718	65535	64634.5
835.9419	773.0473	65535	64634.65
836.0869	775.1221	65535	64633.3
836.232	777.1962	65535	64637.25
836.377	779.2697	65535	64635.85
836.522	781.3426	65535	64617.35
836.667	783.4147	65535	64632.85
836.8121	785.4862	65535	64638.1
836.9571	787.557	65535	64634.35
837.1021	789.6271	65535	64633.5
837.2472	791.6966	65535	64635.1
837.3922	793.7654	65535	64632.9
837.5373	795.8335	65535	64629.15
837.6823	797.901	65535	64633.75
837.8274	799.9678	65535	64634.3
837.9724	802.0339	65535	64636.95
838.1175	804.0993	65535	64625.15
838.2626	806.1641	65535	64631.8
838.4076	808.2282	65535	64633.7
838.5527	810.2916	65535	64631.95
838.6978	812.3544	65535	64636.8
838.8428	814.4164	65535	64637
838.9879	816.4778	65535	64629.85
839.133	818.5385	65535	64634.6
839.2781	820.5986	65535	64632.9
839.4232	822.658	65535	64631.45
839.5682	824.7166	65535	64633.1
839.7133	826.7747	65535	64634.35
839.8584	828.832	65535	64632.65
840.0035	830.8886	65535	64629.7
840.1486	832.9446	65535	64629.05
840.2937	834.9999	65535	64633.9
840.4388	837.0545	65535	64626.95
840.5839	839.1085	65535	64630.65
840.729	841.1618	65535	64628.45
840.8741	843.2143	65535	64632.15
841.0192	845.2662	65535	64632.2
841.1643	847.3175	65535	64631.4
841.3095	849.368	65535	64630.9
841.4546	851.4179	65535	64630.3
841.5997	853.467	65535	64633.1
841.7448	855.5155	65535	64628.75
841.8899	857.5633	65535	64630.95
842.0351	859.6105	65535	64630.1
842.1802	861.6569	65535	64631.5
842.3253	863.7027	65535	64629.5
842.4704	865.7478	65535	64627.7
842.6156	867.7922	65535	64631.2
842.7607	869.8359	65535	64629.65
842.9058	871.8789	65535	64629.3
843.0509	873.9212	65535	64598
843.1961	875.9629	65535	64630.25
843.3412	878.0039	65535	64630.1
843.4863	880.0441	65535	64630.35
843.6315	882.0837	65535	64630.1
843.7766	884.1226	65535	64630.25
843.9218	886.1609	65535	64631.85
844.0669	888.1984	65535	64630.5
844.212	890.2352	65535	64631.9
844.3572	892.2714	65535	64626.4
844.5023	894.3069	65535	64628.9
844.6475	896.3416	65535	64628.15
844.7926	898.3757	65535	64629.9
844.9377	900.4091	65535	64627.55
845.0829	902.4418	65535	64623.95
845.228	904.4739	65535	64626.2
845.3732	906.5052	65535	64629.7
845.5183	908.5358	65535	64630.5
845.6635	910.5658	65535	64627.65
845.8086	912.595	65535	64631.3
845.9538	914.6236	65535	64627.25
846.0989	916.6515	65535	64628.4
846.2441	918.6786	65535	64626
846.3892	920.7051	65535	64624.15
846.5344	922.7309	65535	64626.9
846.6795	924.756	65535	64627.75
846.8246	926.7804	65535	64626.45
846.9698	928.8041	65535	64626.9
847.1149	930.8272	65535	64631.25
847.2601	932.8495	65535	64629.8
847.4052	934.8711	65535	64629.35
847.5504	936.892	65535	64626.95
847.6955	938.9123	65535	64623.7
847.8407	940.9318	65535	64630.1
847.9858	942.9506	65535	64627.1
848.131	944.9688	65535	64627
848.2761	946.9862	65535	64627.2
848.4213	949.003	65535	64628.15
848.5664	951.019	65535	64628.45
848.7115	953.0344	65535	64629.85
848.8567	955.0491	65535	64627.45
849.0018	957.063	65535	64627.4
849.147	959.0763	65535	64628.35
849.2921	961.0888	65535	64622.8
849.4373	963.1007	65535	64627.25
849.5824	965.1119	65535	64631.3
849.7275	967.1223	65535	64632.2
849.8727	969.1321	65535	64632.9
850.0178	971.1412	65535	64630.05
850.1629	973.1495	65535	64629.25
850.3081	975.1572	65535	64584.85
850.4532	977.1641	65535	64628.3
850.5983	979.1704	65535	64627.25
850.7435	981.1759	65535	64624.95
850.8886	983.1808	65535	64626.85
851.0337	985.1849	65535	64618
851.1788	987.1884	65535	64628.2
851.324	989.1911	65535	64623.35
851.4691	991.1932	65535	64626.6
851.6142	993.1945	65535	64628.25
851.7593	995.1951	65535	64628
851.9045	997.1951	65535	64623.1
852.0496	999.1943	65535	64628.75
852.1947	1001.1928	65535	64627.95
852.3398	1003.1906	65535	64629.5
852.4849	1005.1877	65535	64626.3
852.63	1007.1841	65535	64628
852.7751	1009.1798	65535	64627.85
852.9202	1011.1748	65535	64629.85
853.0653	1013.1691	65535	64625.7
853.2104	1015.1627	65535	64629.7
853.3555	1017.1556	65535	64626.25
853.5006	1019.1477	65535	64628.15
853.6457	1021.1392	65535	64630.85
853.7908	1023.1299	65535	64631
853.9359	1025.12	65535	64629.35
854.081	1027.1093	65535	64634.05
854.2261	1029.0979	65535	64634.85
854.3712	1031.0859	65535	64631.85
854.5163	1033.0731	65535	64627.4
854.6613	1035.0596	65535	64630.95
854.8064	1037.0454	65535	64625.6
854.9515	1039.0304	65535	64627.25
855.0965	1041.0148	65535	64628.45
855.2416	1042.9985	65535	64626.55
855.3867	1044.9814	65535	64627.9
855.5317	1046.9636	65535	64625.35
855.6768	1048.9452	65535	64631.8
855.8219	1050.926	65535	64629.1
855.9669	1052.9061	65535	64632.55
856.112	1054.8855	65535	64628.6
856.257	1056.8642	65535	64628.85
856.4021	1058.8421	65535	64621.45
856.5471	1060.8194	65535	64629.55
856.6921	1062.7959	65535	64627
856.8372	1064.7717	65535	64626.7
856.9822	1066.7469	65535	64628.7
857.1272	1068.7213	65535	64627.35
857.2723	1070.695	65535	64628.5
857.4173	1072.6679	65535	64627.25
857.5623	1074.6402	65535	64628.25
857.7073	1076.6117	65535	64622.65
857.8523	1078.5826	65535	64627.8
857.9973	1080.5527	65535	64628.35
858.1423	1082.5221	65535	64626.65
858.2873	1084.4908	65535	64627.95
858.4323	1086.4587	65535	64628.85
858.5773	1088.426	65535	64623.55
858.7223	1090.3925	65535	64624.1
858.8673	1092.3584	65535	64628.2
859.0123	1094.3235	65535	64627.8
859.1573	1096.2879	65535	64626.95
859.3022	1098.2515	65535	64626.75
859.4472	1100.2145	65535	64628
859.5922	1102.1767	65535	64626.95
859.7371	1104.1382	65535	64629.9
859.8821	1106.099	65535	64626.55
860.027	1108.0591	65535	64630.3
860.172	1110.0185	65535	64626.4
860.3169	1111.9771	65535	64629.45
860.4619	1113.9351	65535	64627.4
860.6068	1115.8923	65535	64626.05
860.7517	1117.8488	65535	64623.55
860.8967	1119.8045	65535	64629.7
861.0416	1121.7596	65535	64629.7
861.1865	1123.7139	65535	64631.05
861.3314	1125.6675	65535	64628.45
861.4763	1127.6204	65535	64629.35
861.6212	1129.5726	65535	64623.55
861.7661	1131.524	65535	64630.7
861.911	1133.4748	65535	64629
862.0559	1135.4248	65535	64628.25
862.2008	1137.3741	65535	64628.35
862.3457	1139.3226	65535	64626.15
862.4905	1141.2705	65535	64628.9
862.6354	1143.2176	65535	64622.55
862.7803	1145.164	65535	64625.9
862.9251	1147.1097	65535	64627.7
863.07	1149.0546	65535	64625.55
863.2148	1150.9989	65535	64628.55
863.3597	1152.9424	65535	64629.75
863.5045	1154.8852	65535	64630.7
863.6493	1156.8272	65535	64630.35
863.7942	1158.7686	65535	64622.7
863.939	1160.7092	65535	64628.25
864.0838	1162.6491	65535	64625
864.2286	1164.5883	65535	64629.25
864.3734	1166.5267	65535	64626.55
864.5182	1168.4644	65535	64627.1
864.663	1170.4014	65535	64622.6
864.8078	1172.3377	65535	64632.35
864.9526	1174.2732	65535	64628.75
865.0974	1176.2081	65535	64627.65
865.2421	1178.1421	65535	64624.65
865.3869	1180.0755	65535	64628.05
865.5317	1182.0082	65535	64629.4
865.6764	1183.9401	65535	64628.55
865.8212	1185.8713	65535	64632.75
865.9659	1187.8017	65535	64628.75
866.1106	1189.7315	65535	64633.7
866.2554	1191.6605	65535	64606.6
866.4001	1193.5888	65535	64630.5
866.5448	1195.5163	65535	64629.35
866.6895	1197.4432	65535	64628.75
866.8342	1199.3693	65535	64629.85
866.9789	1201.2947	65535	64627.85
867.1236	1203.2193	65535	64630.05
867.2683	1205.1432	65535	64628.2
867.413	1207.0664	65535	64627.45
867.5576	1208.9889	65535	64628.05
867.7023	1210.9106	65535	64630.15
867.847	1212.8316	65535	64629.35
867.9916	1214.7519	65535	64619.8
868.1363	1216.6715	65535	64632.85
868.2809	1218.5903	65535	64631.25
868.4255	1220.5084	65535	64628.45
868.5701	1222.4257	65535	64630.5
868.7148	1224.3424	65535	64633
868.8594	1226.2583	65535	64624.05
869.004	1228.1735	65535	64627.9
869.1486	1230.0879	65535	64626.75
869.2932	1232.0016	65535	64628.85
869.4377	1233.9146	65535	64629.65
869.5823	1235.8269	65535	64631.15
869.7269	1237.7384	65535	64628.5
869.8715	1239.6492	65535	64629.6
870.016	1241.5592	65535	64629.25
870.1606	1243.4686	65535	64628.8
870.3051	1245.3772	65535	64629.45
870.4496	1247.285	65535	64628.1
870.5941	1249.1922	65535	64629.3
870.7387	1251.0986	65535	64630.8
870.8832	1253.0042	65535	64627.8
871.0277	1254.9092	65535	64630.1
871.1722	1256.8134	65535	64633
871.3167	1258.7169	65535	64628.3
871.4611	1260.6196	65535	64631.95
871.6056	1262.5216	65535	64629.55
871.7501	1264.4229	65535	64632.35
871.8945	1266.3234	65535	64631.25
872.039	1268.2232	65535	64631.25
872.1834	1270.1223	65535	64629
872.3278	1272.0207	65535	64628.2
872.4723	1273.9183	65535	64626.85
872.6167	1275.8151	65535	64630
872.7611	1277.7113	65535	64629.15
872.9055	1279.6067	65535	64629.65
873.0499	1281.5014	65535	64627
873.1943	1283.3953	65535	64627.4
873.3386	1285.2885	65535	64629.55
873.483	1287.181	65535	64628.85
873.6274	1289.0727	65535	64631.3
873.7717	1290.9637	65535	64631
873.9161	1292.854	65535	64633.5
874.0604	1294.7435	65535	64628.9
874.2047	1296.6323	65535	64629
874.349	1298.5204	65535	64625.85
874.4933	1300.4077	65535	64629.35
874.6376	1302.2943	65535	64629.8
874.7819	1304.1802	65535	64632.15
874.9262	1306.0653	65535	64627.45
875.0705	1307.9497	65535	64630.35
875.2147	1309.8333	65535	64631.35
875.359	1311.7162	65535	64631.65
875.5032	1313.5984	65535	64627.85
875.6475	1315.4798	65535	64613.4
875.7917	1317.3605	65535	64614.15
875.9359	1319.2405	65535	64628.9
876.0801	1321.1197	65535	64627.5
876.2243	1322.9982	65535	64626.85
876.3685	1324.876	65535	64629.6
876.5127	1326.753	65535	64630.5
876.6569	1328.6293	65535	64629.45
876.801	1330.5048	65535	64628.8
876.9452	1332.3796	65535	64631.05
877.0893	1334.2537	65535	64605.45
877.2335	1336.127	65535	64630.45
877.3776	1337.9996	65535	64628.8
877.5217	1339.8714	65535	64627.35
877.6658	1341.7426	65535	64588.85
877.8099	1343.6129	65535	64628.8
877.954	1345.4826	65535	64629.5
878.0981	1347.3515	65535	64628.1
878.2422	1349.2196	65535	64628.55
878.3862	1351.087	65535	64629.85
878.5303	1352.9537	65535	64629.75
878.6743	1354.8197	65535	64628.85
878.8184	1356.6849	65535	64629.3
878.9624	1358.5493	65535	64628.05
879.1064	1360.4131	65535	64631.15
879.2504	1362.276	65535	64632.2
879.3944	1364.1383	65535	64631.05
879.5384	1365.9998	65535	64625
879.6823	1367.8606	65535	64628
879.8263	1369.7206	65535	64629.2
879.9702	1371.5799	65535	64628.45
880.1142	1373.4384	65535	64629.15
880.2581	1375.2962	65535	64629.6
880.402	1377.1533	65535	64631
880.5459	1379.0096	65535	64629.3
880.6898	1380.8652	65535	64629.9
880.8337	1382.7201	65535	64631.3
880.9776	1384.5742	65535	64630.55
881.1215	1386.4275	65535	64630.9
881.2653	1388.2802	65535	64632.45
881.4092	1390.132	65535	64630.3
881.553	1391.9832	65535	64629.95
881.6968	1393.8336	65535	64633.2
881.8406	1395.6832	65535	64629.75
881.9844	1397.5322	65535	64629.85
882.1282	1399.3803	65535	64625.5
882.272	1401.2278	65535	64630.4
882.4158	1403.0745	65535	64632.15
882.5595	1404.9204	65535	64631.05
882.7033	1406.7656	65535	64632.75
882.847	1408.6101	65535	64632.5
882.9908	1410.4538	65535	64632.1
883.1345	1412.2968	65535	64630.6
883.2782	1414.139	65535	64629.8
883.4219	1415.9805	65535	64631.8
883.5656	1417.8213	65535	64625.55
883.7092	1419.6613	65535	64631.2
883.8529	1421.5006	65535	64629.65
883.9965	1423.3391	65535	64629.35
884.1402	1425.1769	65535	64628.5
884.2838	1427.0139	65535	64631.6
884.4274	1428.8502	65535	64628.75
884.571	1430.6858	65535	64630.7
884.7146	1432.5206	65535	64630.25
884.8582	1434.3547	65535	64631
885.0018	1436.188	65535	64632.35
885.1453	1438.0206	65535	64631.25
885.2889	1439.8524	65535	64632.15
885.4324	1441.6835	65535	64631.3
885.5759	1443.5139	65535	64627.85
885.7194	1445.3435	65535	64631
885.8629	1447.1724	65535	64631.3
886.0064	1449.0005	65535	64631.3
886.1499	1450.8279	65535	64629.9
886.2933	1452.6545	65535	64630.85
886.4368	1454.4804	65535	64633.7
886.5802	1456.3056	65535	64625.85
886.7237	1458.13	65535	64632.05
886.8671	1459.9536	65535	64632
887.0105	1461.7766	65535	64630.35
887.1539	1463.5987	65535	64631.95
887.2972	1465.4202	65535	64629.4
887.4406	1467.2409	65535	64630.45
887.584	1469.0608	65535	64635.15
887.7273	1470.88	65535	64629.7
887.8706	1472.6984	65535	64633.05
888.0139	1474.5161	65535	64628.9
888.1572	1476.3331	65535	64634.2
888.3005	1478.1493	65535	64629.05
888.4438	1479.9648	65535	64633.8
888.5871	1481.7795	65535	64631.8
888.7303	1483.5935	65535	64632.15
888.8736	1485.4067	65535	64630.45
889.0168	1487.2192	65535	64631.7
889.16	1489.031	65535	64628.9
889.3032	1490.842	65535	64630.25
889.4464	1492.6522	65535	64633.45
889.5896	1494.4618	65535	64630.55
889.7327	1496.2705	65535	64634
889.8759	1498.0785	65535	64631.85
890.019	1499.8858	65535	64632.6
890.1622	1501.6924	65535	64631.65
890.3053	1503.4981	65535	64634.25
890.4484	1505.3032	65535	64631.7
890.5914	1507.1075	65535	64630.9
890.7345	1508.911	65535	64634.2
890.8776	1510.7138	65535	64631.5
891.0206	1512.5159	65535	64631.55
891.1637	1514.3172	65535	64633.5
891.3067	1516.1178	65535	64634.55
891.4497	1517.9176	65535	64630.1
891.5927	1519.7166	65535	64634.45
891.7357	1521.515	65535	64627.25
891.8786	1523.3126	65535	64632.15
892.0216	1525.1094	65535	64632.9
892.1645	1526.9055	65535	64632.5
892.3074	1528.7008	65535	64635.25
892.4503	1530.4954	65535	64627.85
892.5932	1532.2893	65535	64633.7
892.7361	1534.0824	65535	64629.5
892.879	1535.8747	65535	64634.9
893.0218	1537.6663	65535	64630.95
893.1647	1539.4572	65535	64631
893.3075	1541.2473	65535	64632.7
893.4503	1543.0367	65535	64635.2
893.5931	1544.8253	65535	64628.35
893.7359	1546.6132	65535	64629.9
893.8787	1548.4003	65535	64623.75
894.0214	1550.1867	65535	64623.95
894.1642	1551.9723	65535	64629.3
894.3069	1553.7572	65535	64632.6
894.4496	1555.5414	65535	64635.25
894.5923	1557.3247	65535	64636.55
894.735	1559.1074	65535	64638.25
894.8777	1560.8893	65535	64634.9
895.0204	1562.6705	65535	64634.7
895.163	1564.4509	65535	64635.1
895.3056	1566.2305	65535	64636.3
895.4482	1568.0094	65535	64636.55
895.5908	1569.7876	65535	64636.45
895.7334	1571.565	65535	64636.6
895.876	1573.3417	65535	64634.85
896.0186	1575.1176	65535	64634.9
896.1611	1576.8928	65535	64635.6
896.3036	1578.6672	65535	64639.35
896.4461	1580.4409	65535	64637.55
896.5886	1582.2138	65535	64635.2
896.7311	1583.986	65535	64636.45
896.8736	1585.7575	65535	64638.1
897.0161	1587.5282	65535	64637.6
897.1585	1589.2981	65535	64636.2
897.3009	1591.0673	65535	64636.4
897.4433	1592.8358	65535	64637.45
897.5857	1594.6035	65535	64633.95
897.7281	1596.3704	65535	64636.05
897.8705	1598.1366	65535	64635.45
898.0128	1599.9021	65535	64637.5
898.1551	1601.6668	65535	64634.5
898.2975	1603.4308	65535	64635.7
898.4398	1605.194	65535	64631.55
898.5821	1606.9564	65535	64639.25
898.7243	1608.7182	65535	64635.85
898.8666	1610.4791	65535	64639.75
899.0088	1612.2394	65535	64640.25
899.1511	1613.9988	65535	64637.7
899.2933	1615.7576	65535	64639.2
899.4355	1617.5156	65535	64628.45
899.5776	1619.2728	65535	64638.35
899.7198	1621.0293	65535	64637.6
899.862	1622.785	65535	64633
900.0041	1624.54	65535	64635.6
900.1462	1626.2942	65535	64639.7
900.2883	1628.0477	65535	64637.95
900.4304	1629.8005	65535	64634.75
900.5725	1631.5525	65535	64641
900.7145	1633.3037	65535	64639.3
900.8566	1635.0542	65535	64637.7
900.9986	1636.804	65535	64638.1
901.1406	1638.553	65535	64543.3
901.2826	1640.3013	65535	64635.85
901.4245	1642.0488	65535	64637.2
901.5665	1643.7955	65535	64641.5
901.7085	1645.5416	65535	64637.95
901.8504	1647.2868	65535	64640.35
901.9923	1649.0313	65535	64639.15
902.1342	1650.7751	65535	64636.4
902.2761	1652.5181	65535	64638.85
902.4179	1654.2604	65535	64638.45
902.5598	1656.0019	65535	64640.6
902.7016	1657.7427	65535	64637.25
902.8434	1659.4828	65535	64637.8
902.9852	1661.222	65535	64638
903.127	1662.9606	65535	64638.9
903.2687	1664.6984	65535	64638.05
903.4105	1666.4354	65535	64636.95
903.5522	1668.1717	65535	64637.7
903.6939	1669.9072	65535	64637.85
903.8356	1671.642	65535	64637.55
903.9773	1673.3761	65535	64639.9
904.119	1675.1094	65535	64640.5
904.2606	1676.8419	65532.95	64638.7
904.4022	1678.5737	65535	64639.15
904.5439	1680.3048	65535	64638.5
904.6855	1682.0351	65532.5	64635.7
904.827	1683.7646	65521.1	64623.1
904.9686	1685.4934	65534.55	64638.45
905.1101	1687.2215	65435.85	64538.5
905.2517	1688.9488	65529.45	64634.05
905.3932	1690.6754	65218.3	64323.35
905.5347	1692.4012	65465.55	64571.1
905.6761	1694.1263	65501.1	64605.5
905.8176	1695.8506	65300.55	64403
905.9591	1697.5742	65375.2	64480.45
906.1005	1699.297	65305.25	64409.4
906.2419	1701.0191	65374.7	64481
906.3833	1702.7404	65040.8	64147.3
906.5246	1704.461	64873.9	63978.25
906.666	1706.1808	65193.8	64295.85
906.8073	1707.8999	65006.6	64108.4
906.9487	1709.6182	64922.05	64027.75
907.09	1711.3358	64852.35	63957.45
907.2313	1713.0527	64819.4	63927.3
907.3725	1714.7688	64861.25	63959.85
907.5138	1716.4841	64066.25	63170.7
907.655	1718.1987	64384.6	63484.7
907.7962	1719.9126	64163.55	63270.55
907.9374	1721.6257	64453.35	63557.05
908.0786	1723.338	64419.75	63525.45
908.2198	1725.0496	63245.25	62350.3
908.3609	1726.7605	63502	62606.6
908.502	1728.4706	62993.6	62098.9
908.6431	1730.18	63591.8	62696.05
908.7842	1731.8886	62937.9	62042.65
908.9253	1733.5964	62560.85	61643.8
909.0664	1735.3036	63303.65	62407.05
909.2074	1737.0099	62753.15	61859.7
909.3484	1738.7156	62143.95	61250.2
909.4894	1740.4204	62010.35	61113.1
909.6304	1742.1246	62270.15	61375
909.7714	1743.8279	62438.45	61544.85
909.9123	1745.5306	62199.45	61303.85
910.0532	1747.2325	60654.8	59761.45
910.1941	1748.9336	60683	59790.1
910.335	1750.634	61158.45	60262.85
910.4759	1752.3336	61608.15	60714.4
910.6168	1754.0325	60405.6	59513.55
910.7576	1755.7307	61497.45	60604.9
910.8984	1757.4281	60082.2	59184.7
911.0392	1759.1247	61000.1	60097.6
911.18	1760.8206	59651.95	58751.4
911.3208	1762.5158	59803.95	58906.65
911.4615	1764.2102	60061.85	59168.55
911.6022	1765.9039	59793.75	58899.45
911.7429	1767.5968	59559.85	58668.55
911.8836	1769.289	59324.9	58431.4
912.0243	1770.9804	59514.25	58619.35
912.1649	1772.6711	59204.05	58308.7
912.3056	1774.361	58976.7	58081.7
912.4462	1776.0502	59041.85	58146.2
912.5868	1777.7386	58190.6	57293.8
912.7274	1779.4263	58503.9	57608.65
912.8679	1781.1132	58562.15	57669.6
913.0084	1782.7994	58267.55	57374.7
913.149	1784.4849	58434.95	57542.25
913.2895	1786.1696	57265.05	56365.9
913.4299	1787.8535	57845.15	56953.05
913.5704	1789.5367	57968.9	57076.8
913.7108	1791.2192	57257.15	56362.95
913.8513	1792.9009	56987.75	56064.95
913.9917	1794.5818	57368.8	56473.7
914.132	1796.2621	56760.55	55868.35
914.2724	1797.9415	56841.65	55947.9
914.4128	1799.6202	56704.8	55812.2
914.5531	1801.2982	56748.2	55853.45
914.6934	1802.9755	56188.55	55293.2
914.8337	1804.6519	55993.1	55100.8
914.9739	1806.3277	56579.85	55685.7
915.1142	1808.0027	55427.55	54534.7
915.2544	1809.6769	55727	54835.15
915.3946	1811.3504	55926.25	55032.55
915.5348	1813.0231	55019.3	54126.35
915.675	1814.6951	55482.2	54590.2
915.8151	1816.3664	55138.1	54242.1
915.9553	1818.0369	55161.6	54267.3
916.0954	1819.7067	54897.55	54004.3
916.2355	1821.3757	55285.95	54390.25
916.3755	1823.044	54493.05	53599.7
916.5156	1824.7115	54279.75	53384.65
916.6556	1826.3783	54321.75	53430.2
916.7956	1828.0443	54215.2	53322.65
916.9356	1829.7096	53942.9	53047.3
917.0756	1831.3741	53685.7	52787.65
917.2155	1833.0379	53779.5	52887.5
917.3555	1834.701	53663.65	52769.85
917.4954	1836.3633	53353.35	52461.1
917.6353	1838.0248	53395.45	52503.45
917.7751	1839.6856	53254.5	52360.9
917.915	1841.3457	52943.65	52050.2
918.0548	1843.005	53189.35	52296.55
918.1946	1844.6636	52918.35	52022.75
918.3344	1846.3214	52510.15	51616.45
918.4742	1847.9785	52668.55	51776.55
918.6139	1849.6349	52509.85	51616.6
918.7537	1851.2904	52563.55	51659.8
918.8934	1852.9453	52181.1	51287.85
919.0331	1854.5994	52148	51251.55
919.1727	1856.2528	52218.75	51321.2
919.3124	1857.9054	51870.35	50977.3
919.452	1859.5572	51744.6	50850.95
919.5916	1861.2083	51727.55	50833.6
919.7312	1862.8587	51967.35	51073.6
919.8708	1864.5084	51239.8	50345.05
920.0103	1866.1572	51367.75	50475.55
920.1498	1867.8054	50928.45	50035.8
920.2893	1869.4528	51133.75	50241.3
920.4288	1871.0994	50679.95	49787.55
920.5683	1872.7453	50676	49783.15
920.7077	1874.3905	50643.35	49742.8
920.8471	1876.0349	50341.5	49447.9
920.9865	1877.6786	50408.35	49512.05
921.1259	1879.3215	50235.7	49343.4
921.2653	1880.9637	50247.75	49353.9
921.4046	1882.6051	50073.4	49179.45
921.5439	1884.2458	49893.7	49000.6
921.6832	1885.8858	49682.45	48788.8
921.8225	1887.525	49642.25	48747.55
921.9617	1889.1634	49401.55	48507.05
922.101	1890.8011	49196.45	48302.2
922.2402	1892.4381	48955.5	48062.25
922.3794	1894.0743	49076.3	48183
922.5185	1895.7098	48932.8	48039.35
922.6577	1897.3446	48775.8	47882.85
922.7968	1898.9786	48652.4	47754.45
922.9359	1900.6118	48446.1	47554.7
923.075	1902.2443	48246.1	47351.4
923.214	1903.8761	48190.05	47297.85
923.3531	1905.5071	47866.95	46975.9
923.4921	1907.1374	47686.9	46792.65
923.6311	1908.7669	47707.55	46814.05
923.77	1910.3957	47604	46711.25
923.909	1912.0237	47189.4	46296.65
924.0479	1913.651	47122.3	46227.85
924.1868	1915.2776	47009	46116.45
924.3257	1916.9034	46826.05	45936.9
924.4646	1918.5285	46537.35	45644.65
924.6034	1920.1528	46391.45	45496.75
924.7422	1921.7764	46357	45463.4
924.881	1923.3992	46178.5	45285.35
925.0198	1925.0213	45834.05	44943.2
925.1586	1926.6427	45670.95	44778.8
925.2973	1928.2633	45703.4	44704.2
925.436	1929.8832	45496	44601
925.5747	1931.5023	45209.15	44315.1
925.7134	1933.1207	45140.15	44248.2
925.852	1934.7383	45091.25	44199.95
925.9906	1936.3552	44878.45	43985.3
926.1292	1937.9714	44737.35	43845.05
926.2678	1939.5868	44591	43696.55
926.4064	1941.2015	44340.9	43445.5
926.5449	1942.8154	44145.9	43252.9
926.6834	1944.4286	43936.25	43044.4
926.8219	1946.041	43790.25	42877.65
926.9604	1947.6528	43546.65	42648.75
927.0988	1949.2637	43466.2	42573.2
927.2372	1950.8739	43305.7	42413.1
927.3756	1952.4834	43237.6	42343.6
927.514	1954.0921	43112.5	42217.45
927.6523	1955.7001	42914.85	42017.4
927.7907	1957.3074	42827.4	41935.9
927.929	1958.9139	42663.75	41772.7
928.0673	1960.5197	42554.75	41660
928.2055	1962.1247	42309.8	41417.55
928.3438	1963.729	42132.25	41241.7
928.482	1965.3325	41937.5	41022.05
928.6202	1966.9353	41761.95	40870.5
928.7584	1968.5374	41672.2	40779.5
928.8965	1970.1387	41581.05	40689.05
929.0346	1971.7393	41417.75	40525.3
929.1727	1973.3392	41271.2	40380.5
929.3108	1974.9383	41071.7	40181.2
929.4489	1976.5366	40857.7	39964.25
929.5869	1978.1342	40818.65	39925
929.7249	1979.7311	40765.7	39873.65
929.8629	1981.3273	40610.55	39716.15
930.0009	1982.9227	40481.6	39589.25
930.1388	1984.5173	40271.9	39379
930.2767	1986.1112	40117.7	39226.1
930.4146	1987.7044	40057.65	39166.55
930.5525	1989.2968	39900.25	39008.6
930.6904	1990.8885	39838	38943.6
930.8282	1992.4795	39635.3	38742.3
930.966	1994.0697	39516.15	38623.85
931.1038	1995.6592	39354.4	38463.5
931.2415	1997.2479	39273.15	38380.95
931.3793	1998.8359	39160.85	38270.2
931.517	2000.4232	38950.95	38062.6
931.6547	2002.0097	38779.5	37890.3
931.7923	2003.5955	38567.55	37678.5
931.93	2005.1805	38561.95	37668.75
932.0676	2006.7648	38467.4	37577.25
932.2052	2008.3484	38353.25	37461.5
932.3427	2009.9312	38328.2	37435.95
932.4803	2011.5133	38172.3	37283.05
932.6178	2013.0946	38030.1	37137.75
932.7553	2014.6752	37905.7	37018.55
932.8928	2016.2551	37818.25	36926.35
933.0302	2017.8342	37609.65	36717.7
933.1676	2019.4126	37543.35	36654.3
933.305	2020.9902	37347.75	36458.3
933.4424	2022.5672	37278.4	36387.4
933.5798	2024.1433	37168.1	36274.15
933.7171	2025.7188	37087.7	36198.3
933.8544	2027.2935	36941.45	36051.65
933.9917	2028.8674	36779.85	35889
934.129	2030.4406	36692.75	35804.35
934.2662	2032.0131	36508.95	35620.8
934.4034	2033.5849	36381.45	35485.6
934.5406	2035.1559	36316.7	35426.2
934.6778	2036.7261	36272.25	35380.9
934.8149	2038.2957	36097.75	35207.5
934.952	2039.8645	36033.1	35142.35
935.0891	2041.4325	36005.8	35112.65
935.2262	2042.9998	35824.7	34935.9
935.3632	2044.5664	35737.2	34843.55
935.5002	2046.1323	35576.05	34686.9
935.6372	2047.6974	35472.95	34583.5
935.7742	2049.2617	35408.9	34517.85
935.9111	2050.8254	35411.1	34498
936.048	2052.3883	35287.5	34394
936.1849	2053.9504	35191.1	34301.7
936.3218	2055.5118	35009.3	34118.4
936.4586	2057.0725	34867.4	33970.4
936.5955	2058.6325	34801.85	33910.65
936.7323	2060.1917	34680.95	33791.55
936.869	2061.7502	34592.7	33700.15
937.0058	2063.3079	34441.4	33551.05
937.1425	2064.8649	34349.4	33455.8
937.2792	2066.4212	34261	33369.5
937.4159	2067.9767	34126.7	33237.6
937.5525	2069.5315	33981.25	33091.4
937.6891	2071.0856	33820.8	32930
937.8257	2072.6389	33694.3	32804.75
937.9623	2074.1915	33524.85	32635.35
938.0989	2075.7433	33319.8	32426.45
938.2354	2077.2945	33292.25	32402.05
938.3719	2078.8448	33200.6	32308.9
938.5084	2080.3945	33088.5	32197.1
938.6448	2081.9434	33012.85	32122
938.7812	2083.4916	32842.1	31951
938.9176	2085.039	32764	31870.55
939.054	2086.5857	32694.6	31800.9
939.1903	2088.1317	32670.55	31780.8
939.3267	2089.677	32548.1	31656.85
939.463	2091.2215	32440.35	31549.5
939.5992	2092.7652	32332.4	31439.2
939.7355	2094.3083	32265.2	31373.65
939.8717	2095.8506	32243.85	31351.5
940.0079	2097.3921	32165.8	31275.4
940.1441	2098.933	31998.3	31107.6
940.2802	2100.4731	31939.45	31049.65
940.4163	2102.0124	31875.05	30978.1
940.5524	2103.5511	31813.5	30922.55
940.6885	2105.089	31700.65	30808.05
940.8245	2106.6261	31639.5	30749.65
940.9606	2108.1626	31476.6	30583.85
941.0965	2109.6983	31492.45	30574.8
941.2325	2111.2332	31345.8	30454
941.3684	2112.7675	31218.3	30324.95
941.5044	2114.301	31133.45	30240.35
941.6403	2115.8337	31141.25	30249.75
941.7761	2117.3657	31018.35	30125.85
941.912	2118.897	30902.1	30010.35
942.0478	2120.4276	30807.35	29911.6
942.1835	2121.9575	30678	29786
942.3193	2123.4866	30652.4	29746.35
942.455	2125.0149	30521.5	29627
942.5907	2126.5426	30374.9	29482.8
942.7264	2128.0695	30266.2	29371.4
942.8621	2129.5956	30219.75	29329.65
942.9977	2131.1211	30160.05	29264.2
943.1333	2132.6458	30015.65	29126.25
943.2689	2134.1698	29982.85	29090.15
943.4044	2135.693	29913.15	29019.35
943.54	2137.2155	29843.9	28950.15
943.6755	2138.7373	29781.45	28889.4
943.8109	2140.2584	29622.25	28732.4
943.9464	2141.7787	29531.8	28636.6
944.0818	2143.2983	29403.05	28513.3
944.2172	2144.8171	29242.2	28352.65
944.3526	2146.3353	29192.8	28300.1
944.4879	2147.8527	29040.2	28148.75
944.6232	2149.3693	29032.15	28143.1
944.7585	2150.8853	28901.85	28008.6
944.8938	2152.4005	28726.65	27834.8
945.029	2153.9149	28737.9	27847.35
945.1642	2155.4287	28578.9	27687.7
945.2994	2156.9417	28576.3	27684.55
945.4346	2158.454	28442.6	27549.35
945.5697	2159.9655	28381.05	27490.85
945.7048	2161.4764	28377.25	27486.05
945.8399	2162.9865	28225	27333.95
945.9749	2164.4958	28151.1	27260.7
946.1099	2166.0045	28034.7	27143.3
946.2449	2167.5124	28044.75	27154.65
946.3799	2169.0195	27929.75	27039.6
946.5148	2170.526	27881.35	26989.4
946.6498	2172.0317	27817.15	26925
946.7846	2173.5367	27687.85	26796.55
946.9195	2175.0409	27581.2	26691.35
947.0543	2176.5445	27597.9	26708.05
947.1891	2178.0473	27465.05	26574.9
947.3239	2179.5494	27343.7	26447.65
947.4587	2181.0507	27277.35	26385.65
947.5934	2182.5513	27147.85	26255.75
947.7281	2184.0512	27125.95	26235.95
947.8628	2185.5504	27028	26139.15
947.9974	2187.0488	26835.95	25945.5
948.132	2188.5465	26775.7	25886.5
948.2666	2190.0435	26651.35	25760.75
948.4012	2191.5397	26568.4	25678.05
948.5357	2193.0353	26480.7	25590.3
948.6702	2194.5301	26375.7	25484.15
948.8047	2196.0241	26317.35	25425.7
948.9392	2197.5175	26225.15	25335.2
949.0736	2199.0101	26069.5	25176.75
949.208	2200.502	25985.05	25095.65
949.3424	2201.9931	25891.4	25002.65
949.4767	2203.4835	25754.3	24865.7
949.611	2204.9733	25703.95	24807.75
949.7453	2206.4622	25620.2	24729.4
949.8796	2207.9505	25508.25	24615.35
950.0138	2209.438	25396.7	24507.6
950.148	2210.9248	25345.55	24453.45
950.2822	2212.4109	25208.8	24320
950.4164	2213.8962	25158.25	24263.5
950.5505	2215.3809	25091.85	24197.3
950.6846	2216.8648	25047.25	24154.6
950.8186	2218.3479	24942.2	24046.2
950.9527	2219.8304	24816.25	23921.55
951.0867	2221.3121	24734.1	23839.65
951.2207	2222.7931	24653.5	23763.4
951.3546	2224.2733	24560.25	23668.2
951.4886	2225.7529	24461.6	23570.75
951.6225	2227.2317	24369.4	23476.7
951.7563	2228.7098	24381.3	23491.35
951.8902	2230.1872	24217	23326.95
952.024	2231.6638	24217	23325.45
952.1578	2233.1397	24046.6	23149.6
952.2916	2234.6149	24033.1	23141.6
952.4253	2236.0894	23898.15	23008.5
952.559	2237.5632	23847.8	22954.75
952.6927	2239.0362	23722.4	22830.4
952.8263	2240.5085	23672.9	22779.8
952.9599	2241.9801	23547.6	22655.75
953.0935	2243.4509	23527.65	22637
953.2271	2244.921	23428.9	22538.1
953.3606	2246.3904	23320.1	22424.2
953.4941	2247.8591	23277.75	22386.65
953.6276	2249.3271	23182.2	22291.35
953.7611	2250.7943	23130.65	22239.05
953.8945	2252.2608	23001.25	22108.4
954.0279	2253.7266	22937.8	22047.35
954.1612	2255.1917	22851.75	21959.2
954.2946	2256.656	22803.15	21911.35
954.4279	2258.1197	22726.55	21835.8
954.5612	2259.5826	22663.65	21772.1
954.6944	2261.0447	22634.2	21742.3
954.8276	2262.5062	22474.35	21581.55
954.9608	2263.9669	22470.25	21578
955.094	2265.4269	22424.05	21532.6
955.2271	2266.8862	22331.1	21439
955.3602	2268.3448	22268.2	21375.45
955.4933	2269.8026	22243.15	21352.8
955.6264	2271.2598	22150.9	21259.1
955.7594	2272.7162	22049.75	21159.25
955.8924	2274.1719	21985.8	21095.25
956.0253	2275.6268	21930.65	21039.25
956.1583	2277.0811	21866.3	20972.95
956.2912	2278.5346	21774.15	20883
956.4241	2279.9874	21776.35	20885.4
956.5569	2281.4395	21685.85	20796.45
956.6897	2282.8908	21517.6	20622.9
956.8225	2284.3414	21552.65	20659.7
956.9553	2285.7914	21453.25	20562.8
957.088	2287.2406	21392.55	20499
957.2207	2288.689	21343.2	20450.9
957.3534	2290.1368	21261.85	20370.3
957.486	2291.5838	21186.4	20292
957.6186	2293.0302	21140.9	20248.75
957.7512	2294.4758	21016.55	20125.95
957.8838	2295.9206	20961.65	20067.95
958.0163	2297.3648	20890.9	20000.6
958.1488	2298.8082	20872.55	19981.35
958.2813	2300.251	20803.35	19913.45
958.4137	2301.693	20720.15	19827.3
958.5461	2303.1343	20705.25	19812.6
958.6785	2304.5748	20601.2	19710.2
958.8108	2306.0147	20513.5	19621.7
958.9432	2307.4538	20477.3	19583.25
959.0754	2308.8922	20358.6	19470.1
959.2077	2310.3299	20335	19446.25
959.3399	2311.7669	20267.85	19377.35
959.4721	2313.2031	20183.95	19294.5
959.6043	2314.6387	20130.55	19239.1
959.7365	2316.0735	20058.25	19166.35
959.8686	2317.5076	19954.45	19062.65
960.0006	2318.941	19922.6	19030.6
960.1327	2320.3737	19864.7	18973.95
960.2647	2321.8056	19795.65	18901.3
960.3967	2323.2369	19729	18836.05
960.5287	2324.6674	19673.45	18779.65
960.6606	2326.0972	19591.35	18698.7
960.7925	2327.5263	19519.85	18630.6
960.9244	2328.9547	19473.9	18583.4
961.0562	2330.3823	19436.2	18544.5
961.1881	2331.8092	19396.6	18501.85
961.3198	2333.2355	19304.45	18413.25
961.4516	2334.661	19299.95	18408.25
961.5833	2336.0858	19232.6	18341.15
961.715	2337.5098	19179.8	18288.3
961.8467	2338.9332	19149.45	18258.05
961.9783	2340.3558	19042.8	18148.2
962.1099	2341.7778	18960.5	18069.9
962.2415	2343.199	18877.95	17985.9
962.373	2344.6195	18829.65	17939.65
962.5045	2346.0393	18792.55	17903.55
962.636	2347.4583	18713.5	17820.65
962.7675	2348.8767	18664.95	17771.1
962.8989	2350.2943	18629.95	17736.65
963.0303	2351.7113	18595.1	17702.6
963.1617	2353.1275	18510.15	17619.55
963.293	2354.543	18467.75	17567.5
963.4243	2355.9578	18415.85	17525.3
963.5556	2357.3718	18289.9	17399.65
963.6868	2358.7852	18169.15	17276.55
963.818	2360.1978	18121.75	17230.1
963.9492	2361.6098	18100.65	17209.25
964.0803	2363.021	18015.85	17121.65
964.2114	2364.4315	17952.05	17060.75
964.3425	2365.8413	17907.25	17015.05
964.4736	2367.2504	17847.85	16957
964.6046	2368.6587	17748.25	16857.85
964.7356	2370.0664	17653	16761.45
964.8666	2371.4733	17639.5	16748.5
964.9975	2372.8795	17574.55	16683.3
965.1284	2374.285	17498.7	16607.5
965.2593	2375.6899	17393.2	16504.5
965.3901	2377.0939	17315	16426.5
965.5209	2378.4973	17265.2	16373.95
965.6517	2379.9	17188.55	16297.15
965.7825	2381.3019	17135.2	16246.55
965.9132	2382.7032	17071	16181.85
966.0439	2384.1037	17054.65	16165.35
966.1745	2385.5035	16986.3	16096.2
966.3051	2386.9027	16901.45	16012.7
966.4357	2388.3011	16853.95	15960.65
966.5663	2389.6987	16806.55	15915.95
966.6968	2391.0957	16729.15	15841.35
966.8273	2392.492	16651.55	15762.4
966.9578	2393.8876	16566.35	15676.15
967.0882	2395.2824	16499.9	15609.15
967.2186	2396.6765	16416.05	15526.85
967.349	2398.07	16352.85	15462.45
967.4793	2399.4627	16333.4	15443.4
967.6097	2400.8547	16280.5	15388.95
967.7399	2402.246	16227.5	15330.55
967.8702	2403.6366	16121.4	15229.25
968.0004	2405.0265	16046.45	15156.15
968.1306	2406.4156	16001.15	15106.3
968.2607	2407.8041	15940.65	15047.6
968.3909	2409.1918	15885.8	14992.5
968.521	2410.5789	15803.8	14912.45
968.651	2411.9652	15750.15	14857.65
968.781	2413.3508	15689.1	14798.15
968.911	2414.7358	15646.75	14755.85
969.041	2416.12	15592.95	14703.9
969.1709	2417.5035	15514.6	14626.45
969.3008	2418.8863	15495.15	14603.4
969.4307	2420.2684	15404.9	14514.3
969.5606	2421.6497	15331.85	14441.35
969.6904	2423.0304	15248.7	14359.5
969.8201	2424.4104	15237.95	14348.25
969.9499	2425.7896	15185.55	14291.45
970.0796	2427.1682	15140.9	14251.25
970.2093	2428.546	15079.4	14188.4
970.3389	2429.9232	15039.9	14148.75
970.4685	2431.2996	14968.8	14078.65
970.5981	2432.6753	14987.3	14098.4
970.7277	2434.0503	14916.25	14026.5
970.8572	2435.4246	14830.45	13940.8
970.9867	2436.7982	14790.65	13898.6
971.1161	2438.1711	14746.1	13857.6
971.2456	2439.5433	14694.05	13802.15
971.375	2440.9148	14638.7	13742.8
971.5043	2442.2856	14588.5	13699.35
971.6336	2443.6557	14538.7	13646
971.7629	2445.025	14481.55	13591.4
971.8922	2446.3937	14453.4	13564.8
972.0214	2447.7617	14388.9	13498.4
972.1506	2449.1289	14368.2	13479.55
972.2798	2450.4955	14294.95	13400.25
972.4089	2451.8613	14269.95	13378.5
972.538	2453.2265	14248.5	13356.95
972.6671	2454.5909	14178.85	13287.8
972.7961	2455.9546	14170.4	13280.1
972.9251	2457.3177	14108.7	13217.65
973.0541	2458.68	14058.6	13166.95
973.1831	2460.0416	14011.75	13119.8
973.312	2461.4025	14007.1	13115.05
973.4408	2462.7627	13970.9	13068.7
973.5697	2464.1222	13883.95	12995.55
973.6985	2465.4811	13853.4	12961.55
973.8273	2466.8392	13797.1	12908.15
973.956	2468.1966	13772.4	12880.2
974.0847	2469.5533	13754.85	12861.9
974.2134	2470.9093	13719.05	12826.35
974.3421	2472.2645	13646.85	12756.75
974.4707	2473.6191	13611.45	12720.9
974.5993	2474.973	13557.1	12666.65
974.7278	2476.3262	13505	12613.85
974.8563	2477.6787	13459.55	12568.75
974.9848	2479.0305	13379.9	12489.35
975.1132	2480.3816	13362.35	12469.45
975.2417	2481.7319	13295.6	12404.05
975.37	2483.0816	13233.45	12342.45
975.4984	2484.4306	13189	12296
975.6267	2485.7789	13150.8	12261.15
975.755	2487.1264	13041.6	12148.1
975.8833	2488.4733	13028.25	12138.75
976.0115	2489.8195	13000.6	12096.1
976.1397	2491.165	12902.05	12009.15
976.2678	2492.5097	12906.2	12012.35
976.3959	2493.8538	12852.5	11963.6
976.524	2495.1972	12781	11890.45
976.6521	2496.5398	12733.95	11841.15
976.7801	2497.8818	12682.5	11789.6
976.9081	2499.2231	12635.25	11745.65
977.036	2500.5637	12580.8	11686.15
977.164	2501.9035	12539.6	11648.75
977.2918	2503.2427	12513	11618.85
977.4197	2504.5812	12465.55	11576.05
977.5475	2505.919	12442.6	11549.25
977.6753	2507.256	12405.8	11515.5
977.8031	2508.5924	12339.25	11449.05
977.9308	2509.9281	12331.5	11435.05
978.0585	2511.2631	12273	11382.45
978.1861	2512.5974	12256.25	11366
978.3137	2513.9309	12181.05	11290.35
978.4413	2515.2638	12170.2	11253.85
978.5689	2516.596	12098.35	11208.35
978.6964	2517.9275	12042.5	11150.9
978.8239	2519.2583	12006.6	11114.5
978.9513	2520.5884	11962.9	11071.7
979.0788	2521.9178	11913.8	11021.65
979.2062	2523.2465	11870.25	10980.5
979.3335	2524.5745	11793	10901.1
979.4608	2525.9018	11768.4	10877.85
979.5881	2527.2284	11738.85	10848.45
979.7154	2528.5543	11708.95	10818.8
979.8426	2529.8796	11682	10791.5
979.9698	2531.2041	11663.55	10773.05
980.0969	2532.5279	11622.7	10731.9
980.224	2533.851	11587.15	10696.7
980.3511	2535.1735	11557.2	10667
980.4781	2536.4952	11534.75	10642.75
980.6052	2537.8163	11503.75	10612.3
980.7321	2539.1366	11438.8	10548.55
980.8591	2540.4562	11394.5	10502.85
980.986	2541.7752	11371.75	10481.6
981.1129	2543.0935	11354.35	10463.1
981.2397	2544.411	11328.8	10436.95
981.3665	2545.7279	11318.55	10428.65
981.4933	2547.0441	11287.4	10395.75
981.62	2548.3596	11257.25	10364.1
981.7467	2549.6744	11251.7	10360.2
981.8734	2550.9885	11194.25	10296.65
982.0001	2552.3019	11163.25	10272.6
982.1267	2553.6146	11135.2	10244.55
982.2532	2554.9266	11077.8	10186.05
982.3798	2556.2379	11067.6	10175.75
982.5063	2557.5485	11061.15	10170.3
982.6327	2558.8585	10990.55	10092.95
982.7592	2560.1677	10956.75	10061.65
982.8856	2561.4762	10956.45	10065.9
983.0119	2562.7841	10929.3	10035.35
983.1383	2564.0913	10889.5	10001
983.2646	2565.3977	10886.95	9996.35
983.3908	2566.7035	10829.25	9938.9
983.517	2568.0086	10822.35	9930.65
983.6432	2569.313	10813.3	9919.8
983.7694	2570.6167	10773.2	9879.35
983.8955	2571.9197	10759.35	9866.65
984.0216	2573.222	10733.5	9840.75
984.1476	2574.5236	10684.45	9793.05
984.2737	2575.8246	10663.3	9768.5
984.3996	2577.1248	10636.35	9744.2
984.5256	2578.4244	10618.2	9727.4
984.6515	2579.7232	10600.8	9710.45
984.7774	2581.0214	10624.6	9710.55
984.9032	2582.3189	10544.95	9653.9
985.029	2583.6157	10529.2	9634.1
985.1548	2584.9118	10510.75	9619.1
985.2806	2586.2072	10461.2	9572
985.4063	2587.5019	10438.65	9548.25
985.5319	2588.7959	10411.25	9520.5
985.6576	2590.0893	10387.8	9495.75
985.7832	2591.3819	10353.6	9462.55
985.9087	2592.6739	10317.5	9428.45
986.0343	2593.9652	10280.7	9388.55
986.1597	2595.2557	10257.55	9368.1
986.2852	2596.5456	10193	9299.45
986.4106	2597.8348	10173.3	9284.95
986.536	2599.1234	10109.65	9219.95
986.6614	2600.4112	10074.05	9183.8
986.7867	2601.6983	10055.95	9162.9
986.912	2602.9848	10031.5	9139.7
987.0372	2604.2705	9992.55	9094.15
987.1624	2605.5556	9972.6	9081.2
987.2876	2606.84	9958.9	9069.2
987.4128	2608.1237	9880.7	8990.05
987.5379	2609.4067	9858.25	8967.7
987.6629	2610.689	9852.55	8953.4
987.788	2611.9707	9810.7	8914.75
987.913	2613.2516	9756.45	8860.85
988.0379	2614.5319	9677.5	8786.7
988.1629	2615.8115	9648.45	8757.15
988.2878	2617.0903	9628.4	8735.8
988.4126	2618.3685	9590.45	8699.75
988.5375	2619.6461	9553.1	8661.9
988.6622	2620.9229	9536.8	8646.7
988.787	2622.199	9486.7	8595.35
988.9117	2623.4745	9471.2	8579.1
989.0364	2624.7493	9421	8531.85
989.161	2626.0234	9374.9	8485.95
989.2857	2627.2968	9348.9	8457.8
989.4102	2628.5695	9316.65	8423.95
989.5348	2629.8415	9276.4	8384.35
989.6593	2631.1128	9225.35	8332.65
989.7837	2632.3835	9195.7	8306.05
989.9082	2633.6535	9136.3	8244.8
990.0326	2634.9228	9115.5	8224.8
990.1569	2636.1914	9111.65	8222.1
990.2812	2637.4593	9099.3	8206.95
990.4055	2638.7265	9045.1	8154.2
990.5298	2639.9931	9020.9	8129.75
990.654	2641.259	9008.65	8119.8
990.7782	2642.5242	8979.7	8088.75
990.9023	2643.7887	8934.25	8045.35
991.0264	2645.0525	8910	8018.6
991.1505	2646.3156	8865.35	7973.95
991.2745	2647.5781	8825.65	7935.8
991.3985	2648.8398	8791.3	7901.45
991.5225	2650.1009	8788.3	7890.95
991.6464	2651.3613	8765.95	7875.6
991.7703	2652.6211	8727.45	7836.15
991.8942	2653.8801	8717.7	7828.95
992.018	2655.1385	8682.45	7788.5
992.1418	2656.3961	8636.55	7745.85
992.2655	2657.6531	8641.95	7750.55
992.3892	2658.9094	8607.6	7718.15
992.5129	2660.1651	8593.8	7703.75
992.6366	2661.42	8567.75	7677.85
992.7602	2662.6743	8534.65	7643.6
992.8837	2663.9279	8520.85	7629.35
993.0073	2665.1808	8503.65	7611.4
993.1307	2666.433	8469.95	7579.05
993.2542	2667.6846	8435.1	7546.8
993.3776	2668.9354	8441.4	7548.3
993.501	2670.1856	8417	7526.45
993.6244	2671.4351	8373.65	7483.75
993.7477	2672.6839	8349.85	7457.35
993.8709	2673.9321	8324.05	7434.6
993.9942	2675.1795	8303.2	7412.85
994.1174	2676.4263	8304.05	7412.6
994.2405	2677.6724	8267.85	7377.75
994.3637	2678.9179	8239.15	7348.9
994.4868	2680.1626	8238.5	7350.05
994.6098	2681.4067	8195.3	7305.45
994.7328	2682.6501	8168.85	7277.25
994.8558	2683.8928	8138.9	7249.35
994.9788	2685.1348	8095.9	7206.95
995.1017	2686.3761	8052.6	7162.7
995.2245	2687.6168	8039.2	7149.2
995.3474	2688.8568	8005.25	7114.6
995.4702	2690.0961	7986.45	7096.45
995.5929	2691.3348	7947.8	7057.75
995.7156	2692.5727	7950.85	7060.45
995.8383	2693.81	7925.6	7035.3
995.961	2695.0466	7901.7	7011.35
996.0836	2696.2826	7867.55	6974.25
996.2062	2697.5178	7864.85	6970.3
996.3287	2698.7524	7801.85	6910.55
996.4512	2699.9863	7787.05	6891.9
996.5737	2701.2195	7763.85	6874.1
996.6961	2702.452	7734.85	6843.5
996.8185	2703.6839	7736	6844.55
996.9408	2704.9151	7708.15	6819.5
997.0631	2706.1456	7678.6	6787.45
997.1854	2707.3755	7662.6	6773
997.3077	2708.6046	7649.8	6755.65
997.4299	2709.8331	7606.3	6716.2
997.552	2711.0609	7574.05	6684.6
997.6742	2712.2881	7570.3	6680.35
997.7963	2713.5145	7549.25	6657.4
997.9183	2714.7403	7523.1	6631.9
998.0403	2715.9654	7488.65	6596.25
998.1623	2717.1899	7493.65	6588.25
998.2842	2718.4136	7471.7	6581.8
998.4062	2719.6367	7481.25	6591.8
998.528	2720.8591	7448.8	6549.1
998.6498	2722.0809	7408.65	6517.05
998.7716	2723.3019	7384.3	6490.05
998.8934	2724.5223	7377.1	6485.35
999.0151	2725.7421	7372.15	6479.45
999.1368	2726.9611	7337.15	6444.3
999.2584	2728.1795	7326.65	6433.2
999.38	2729.3972	7303.95	6412.25
999.5016	2730.6142	7268.9	6365.2
999.6231	2731.8306	7210.7	6319.2
999.7446	2733.0462	7185.8	6292.4
999.8661	2734.2612	7117.95	6222.85
999.9875	2735.4756	7096.15	6202.25
1000.1089	2736.6892	7056.95	6165.6
1000.2302	2737.9022	7007.2	6115.05
1000.3515	2739.1145	6967.8	6077.75
1000.4728	2740.3262	6953.55	6056.2
1000.594	2741.5372	6888.95	5997.75
1000.7152	2742.7475	6888.55	5996.9
1000.8363	2743.9571	6852.65	5960.25
1000.9575	2745.1661	6816.1	5919.75
1001.0785	2746.3744	6799.55	5907.15
1001.1996	2747.582	6753.9	5863.6
1001.3206	2748.7889	6736.95	5844.35
1001.4415	2749.9952	6706.45	5817.5
1001.5625	2751.2008	6698.2	5806.85
1001.6833	2752.4057	6661.65	5768.95
1001.8042	2753.61	6636.55	5745.45
1001.925	2754.8136	6622.35	5729.15
1002.0458	2756.0165	6602.9	5713.6
1002.1665	2757.2188	6577.85	5690.55
1002.2872	2758.4204	6548.3	5657.6
1002.4078	2759.6213	6528.25	5636.3
1002.5285	2760.8215	6530.3	5635.7
1002.649	2762.0211	6484	5593.3
1002.7696	2763.22	6468.85	5573.65
1002.8901	2764.4182	6452.3	5560.4
1003.0106	2765.6158	6413.4	5523
1003.131	2766.8127	6385.1	5495.35
1003.2514	2768.009	6367.25	5478.25
1003.3717	2769.2045	6361.35	5471.25
1003.492	2770.3994	6346.15	5454.45
1003.6123	2771.5936	6331.95	5443.6
1003.7325	2772.7872	6279	5389.4
1003.8527	2773.9801	6263.85	5371.45
1003.9729	2775.1723	6251.75	5343.8
1004.093	2776.3639	6209.6	5319.15
1004.2131	2777.5548	6206.25	5313.7
1004.3331	2778.745	6188	5298.05
1004.4531	2779.9346	6157.3	5268.5
1004.5731	2781.1235	6140.65	5249.25
1004.693	2782.3117	6120.05	5231.6
1004.8129	2783.4992	6101.1	5212.4
1004.9328	2784.6861	6099.85	5208.1
1005.0526	2785.8723	6074.2	5183.25
1005.1723	2787.0579	6058	5166.65
1005.2921	2788.2428	6044.75	5155.15
1005.4118	2789.427	6024.85	5134
1005.5314	2790.6106	6008.4	5118.45
1005.651	2791.7935	6003.65	5112.7
1005.7706	2792.9757	5989.2	5098.1
1005.8902	2794.1573	5974.85	5083.15
1006.0097	2795.3382	5969.15	5078.1
1006.1291	2796.5184	5954.9	5067.25
1006.2485	2797.698	5961.6	5070
1006.3679	2798.8769	5962.4	5071.65
1006.4873	2800.0551	5959.45	5070.2
1006.6066	2801.2327	5952.1	5059.35
1006.7258	2802.4096	5939.75	5051.3
1006.8451	2803.5859	5943.25	5054.25
1006.9642	2804.7615	5945.4	5056.05
1007.0834	2805.9364	5938.35	5050.3
1007.2025	2807.1106	5937.65	5046.85
1007.3216	2808.2842	5956.9	5064.65
1007.4406	2809.4572	5976.7	5085.35
1007.5596	2810.6294	6005.9	5114.95
1007.6785	2811.801	6049.35	5160.35
1007.7975	2812.972	6055.6	5167.1
1007.9163	2814.1423	6065.1	5175.3
1008.0352	2815.3119	6106.3	5218.35
1008.154	2816.4808	6120.05	5230.95
1008.2727	2817.6491	6155.75	5265.8
1008.3914	2818.8167	6184.35	5295.55
1008.5101	2819.9837	6229.25	5333.55
1008.6288	2821.15	6249.45	5358.5
1008.7474	2822.3157	6258.45	5369.65
1008.8659	2823.4807	6308.55	5418.9
1008.9844	2824.645	6349.2	5457.85
1009.1029	2825.8086	6359.15	5469.4
1009.2214	2826.9716	6404.45	5515.4
1009.3398	2828.134	6433.65	5543.55
1009.4581	2829.2957	6452.15	5563.7
1009.5764	2830.4567	6475.65	5586.95
1009.6947	2831.617	6463.15	5569.25
1009.813	2832.7767	6469.2	5580
1009.9312	2833.9358	6469.2	5579.3
1010.0493	2835.0941	6443.7	5553.55
1010.1675	2836.2519	6438.65	5548.95
1010.2855	2837.4089	6393.9	5504.85
1010.4036	2838.5653	6373.15	5482.55
1010.5216	2839.7211	6341.15	5452.45
1010.6396	2840.8761	6346.85	5455.3
1010.7575	2842.0306	6361.25	5471.15
1010.8754	2843.1843	6373.5	5484.85
1010.9932	2844.3374	6433.9	5545.65
1011.111	2845.4899	6475.55	5585.65
1011.2288	2846.6417	6508.2	5618.85
1011.3465	2847.7928	6583.15	5695.05
1011.4642	2848.9433	6654.65	5764.85
1011.5818	2850.0931	6729.55	5839.4
1011.6995	2851.2422	6781.7	5889.55
1011.817	2852.3907	6835	5943.3
1011.9345	2853.5385	6895.5	6002.3
1012.052	2854.6857	6948.3	6030.2
1012.1695	2855.8323	6966.1	6077.8
1012.2869	2856.9781	6994.5	6105.85
1012.4042	2858.1233	7046.25	6155.9
1012.5216	2859.2679	7038.25	6149.6
1012.6389	2860.4118	7082.4	6191.1
1012.7561	2861.555	7109.3	6215.15
1012.8733	2862.6976	7109.95	6218.6
1012.9905	2863.8395	7116.25	6227.9
1013.1076	2864.9808	7147.9	6259.7
1013.2247	2866.1214	7124.4	6236.15
1013.3417	2867.2614	7145.85	6255.65
1013.4587	2868.4007	7121.3	6230.2
1013.5757	2869.5393	7134.75	6243.45
1013.6926	2870.6773	7118.5	6225.7
1013.8095	2871.8146	7124.25	6229.95
1013.9263	2872.9513	7104.85	6214.85
1014.0431	2874.0874	7066.2	6175.5
1014.1599	2875.2227	7067.15	6176.45
1014.2766	2876.3574	7034.05	6145.7
1014.3933	2877.4915	6980.9	6092.15
1014.51	2878.6249	6939.65	6049.45
1014.6266	2879.7577	6911.35	6019.65
1014.7431	2880.8898	6866.25	5965.05
1014.8596	2882.0212	6842.35	5954.25
1014.9761	2883.152	6819.45	5929.95
1015.0925	2884.2821	6795	5908.9
1015.2089	2885.4116	6764.1	5875.1
1015.3253	2886.5405	6741.55	5852.7
1015.4416	2887.6686	6734.4	5843.15
1015.5579	2888.7962	6716.55	5828.85
1015.6741	2889.923	6711.5	5823.6
1015.7903	2891.0493	6707.45	5818.3
1015.9065	2892.1748	6689.9	5799.75
1016.0226	2893.2997	6680.45	5791.2
1016.1387	2894.424	6689.3	5801.55
1016.2547	2895.5476	6710.8	5821.4
1016.3707	2896.6706	6704.4	5816.05
1016.4866	2897.7929	6717.65	5828.65
1016.6025	2898.9145	6740.15	5850.05
1016.7184	2900.0355	6750.85	5862.9
1016.8342	2901.1559	6773.55	5881.3
1016.95	2902.2756	6793.45	5903.6
1017.0658	2903.3946	6795.85	5907.4
1017.1815	2904.513	6816.75	5924.45
1017.2971	2905.6308	6816.15	5927.75
1017.4127	2906.7479	6828.2	5939.45
1017.5283	2907.8643	6856.85	5966.75
1017.6439	2908.9801	6809.4	5920.5
1017.7594	2910.0953	6814.3	5925.55
1017.8748	2911.2098	6806.2	5914.8
1017.9902	2912.3236	6792.9	5894.9
1018.1056	2913.4368	6770.75	5878.6
1018.2209	2914.5494	6751.7	5861.9
1018.3362	2915.6613	6698.95	5803.7
1018.4515	2916.7725	6657.1	5765.2
1018.5667	2917.8831	6619	5727.65
1018.6819	2918.9931	6599.25	5707.05
1018.797	2920.1024	6536.5	5644.8
1018.9121	2921.211	6499.15	5609.45
1019.0271	2922.319	6485.85	5597.2
1019.1421	2923.4264	6433.3	5544.9
1019.2571	2924.5331	6443.1	5555.6
1019.372	2925.6391	6421.25	5531.8
1019.4869	2926.7445	6390.2	5500.6
1019.6017	2927.8493	6365.8	5476.65
1019.7165	2928.9534	6353.55	5463.5
1019.8313	2930.0569	6335.1	5443.1
1019.946	2931.1597	6327.85	5436.4
1020.0606	2932.2619	6289.15	5399.7
1020.1753	2933.3634	6284.75	5395.5
1020.2899	2934.4643	6270	5373.95
1020.4044	2935.5645	6221.3	5325.4
1020.5189	2936.6641	6190.45	5296.1
1020.6334	2937.763	6131.35	5240.55
1020.7478	2938.8613	6061.9	5172.35
1020.8622	2939.959	6015.85	5118.85
1020.9765	2941.056	5908.5	5019.3
1021.0908	2942.1523	5838.3	4947.75
1021.2051	2943.248	5740.85	4850.5
1021.3193	2944.3431	5633.2	4743.4
1021.4334	2945.4375	5516.25	4624.55
1021.5476	2946.5313	5408.55	4520
1021.6617	2947.6244	5296.2	4405.45
1021.7757	2948.7169	5183	4291.65
1021.8897	2949.8087	5088.25	4199.2
1022.0037	2950.8999	4968.35	4078.95
1022.1176	2951.9904	4890.2	4001.15
1022.2315	2953.0803	4817.4	3926.6
1022.3453	2954.1696	4746.9	3856.8
1022.4591	2955.2582	4677.4	3789.2
1022.5728	2956.3462	4622.45	3732.9
1022.6865	2957.4335	4564.85	3675.45
1022.8002	2958.5202	4493.15	3601.15
1022.9138	2959.6062	4458.3	3568.75
1023.0274	2960.6916	4441.45	3553.6
1023.141	2961.7764	4398.55	3509
1023.2545	2962.8605	4381.75	3490.95
1023.3679	2963.9439	4360.8	3471.65
1023.4813	2965.0267	4346.2	3456.1
1023.5947	2966.1089	4334.7	3423.35
1023.708	2967.1905	4291.75	3401.55
1023.8213	2968.2714	4292.25	3404.25
1023.9346	2969.3516	4270.8	3382.15
1024.0478	2970.4312	4264.95	3367.15
1024.1609	2971.5102	4254.6	3364.5
1024.274	2972.5885	4229.8	3340.65
1024.3871	2973.6662	4237.05	3340.9
1024.5002	2974.7432	4230.75	3340.35
1024.6132	2975.8196	4200.9	3310.85
1024.7261	2976.8954	4178.25	3290.25
1024.839	2977.9705	4152.45	3263.95
1024.9519	2979.045	4117.5	3228.55
1025.0647	2980.1188	4101.25	3212.55
1025.1775	2981.192	4083.45	3194.7
1025.2902	2982.2645	4058.3	3166.65
1025.4029	2983.3364	4023.5	3133.65
1025.5156	2984.4077	3964.85	3078
1025.6282	2985.4783	3960.5	3066.9
1025.7407	2986.5483	3893.95	3007.85
1025.8532	2987.6177	3863.45	2973.65
1025.9657	2988.6864	3825.35	2935.45
1026.0782	2989.7545	3784.65	2893.35
1026.1906	2990.8219	3742	2853.65
1026.3029	2991.8887	3702.6	2811.45
1026.4152	2992.9548	3658.95	2769.05
1026.5275	2994.0204	3631.2	2739.85
1026.6397	2995.0852	3588.4	2700.9
1026.7519	2996.1495	3556.95	2666.65
1026.864	2997.2131	3533.25	2644.45
1026.9761	2998.276	3494.5	2607.75
1027.0882	2999.3383	3461.9	2572.65
1027.2002	3000.4	3441.2	2552.8
1027.3122	3001.4611	3430.9	2542.2
1027.4241	3002.5215	3402.2	2513.2
1027.536	3003.5812	3376.85	2487.85
1027.6478	3004.6404	3348.75	2461.1
1027.7596	3005.6989	3344.75	2454.95
1027.8714	3006.7567	3323.15	2432.95
1027.9831	3007.8139	3314.9	2404.5
1028.0947	3008.8705	3291.35	2401.65
1028.2064	3009.9264	3287.25	2395.35
1028.3179	3010.9818	3270.55	2380.2
1028.4295	3012.0364	3244.65	2356.4
1028.541	3013.0905	3249.5	2362.15
1028.6524	3014.1439	3232	2342.1
1028.7638	3015.1966	3218.8	2330.9
1028.8752	3016.2487	3212.45	2321.4
1028.9865	3017.3002	3207.9	2315.75
1029.0978	3018.3511	3193.4	2304.55
1029.209	3019.4013	3199.85	2311.95
1029.3202	3020.4509	3170.3	2283.5
1029.4314	3021.4998	3192.5	2304.05
1029.5425	3022.5481	3163.05	2273.5
1029.6535	3023.5958	3156.95	2267.25
1029.7645	3024.6428	3147.4	2258.7
1029.8755	3025.6892	3147.75	2260.75
1029.9864	3026.735	3131.6	2244.15
1030.0973	3027.7802	3135.6	2247.45
1030.2082	3028.8247	3123.7	2233.7
1030.319	3029.8685	3129.15	2238.1
1030.4297	3030.9118	3111.15	2222.85
1030.5404	3031.9544	3102.85	2214.7
1030.6511	3032.9963	3107.45	2218.3
1030.7617	3034.0376	3086.1	2197.2
1030.8723	3035.0783	3096.4	2203.8
1030.9829	3036.1184	3086.9	2196.15
1031.0934	3037.1578	3085	2198.3
1031.2038	3038.1966	3077.5	2186.75
1031.3142	3039.2348	3071.85	2182.75
1031.4246	3040.2723	3064.95	2168.2
1031.5349	3041.3092	3053.6	2166.25
1031.6452	3042.3455	3043.55	2156.15
1031.7554	3043.3811	3037.55	2147.15
1031.8656	3044.4161	3018.25	2128.95
1031.9758	3045.4505	3012.35	2123.35
1032.0859	3046.4842	3007.55	2115.15
1032.1959	3047.5173	2988.3	2100.9
1032.3059	3048.5498	2987.15	2099.05
1032.4159	3049.5816	2962.25	2074.2
1032.5258	3050.6128	2953	2064.95
1032.6357	3051.6434	2946.1	2055.35
1032.7455	3052.6734	2939.4	2048.1
1032.8553	3053.7027	2919.15	2030.9
1032.9651	3054.7314	2910.35	2021.5
1033.0748	3055.7594	2890.65	2001.55
1033.1845	3056.7868	2870.1	1982
1033.2941	3057.8136	2870.7	1980.3
1033.4037	3058.8398	2847.45	1959.8
1033.5132	3059.8653	2842.15	1953.8
1033.6227	3060.8902	2826.1	1938.25
1033.7321	3061.9145	2816.7	1927.85
1033.8415	3062.9381	2798.9	1910.2
1033.9509	3063.9612	2807.7	1903.3
1034.0602	3064.9835	2788.7	1899.25
1034.1694	3066.0053	2768.05	1875.65
1034.2787	3067.0264	2756.55	1868.9
1034.3878	3068.0469	2741.8	1852.55
1034.497	3069.0668	2735.9	1844.5
1034.6061	3070.086	2716.1	1827.55
1034.7151	3071.1046	2716.35	1827.65
1034.8241	3072.1226	2696.2	1805.65
1034.9331	3073.1399	2678.75	1790.9
1035.042	3074.1567	2664.45	1775.5
1035.1508	3075.1727	2647.5	1758.8
1035.2597	3076.1882	2627.25	1738.65
1035.3684	3077.203	2615.6	1726.8
1035.4772	3078.2173	2590.95	1700.25
1035.5859	3079.2308	2582.75	1691.8
1035.6945	3080.2438	2573.05	1682.85
1035.8031	3081.2561	2553.5	1666.05
1035.9117	3082.2678	2547.75	1659.65
1036.0202	3083.2789	2547.85	1660.15
1036.1286	3084.2893	2521.3	1632.1
1036.2371	3085.2991	2517.05	1626.1
1036.3454	3086.3083	2502.7	1610.15
1036.4538	3087.3169	2490.3	1600.75
1036.562	3088.3248	2491.1	1600.05
1036.6703	3089.3321	2471.9	1579.95
1036.7785	3090.3388	2454.7	1566
1036.8866	3091.3449	2452.2	1564
1036.9948	3092.3503	2440.25	1550.9
1037.1028	3093.3551	2448.5	1560.55
1037.2108	3094.3593	2424.95	1537.1
1037.3188	3095.3629	2414.75	1525.85
1037.4267	3096.3658	2398.75	1508.6
1037.5346	3097.3681	2395.35	1507.4
1037.6425	3098.3698	2401.15	1511.55
1037.7503	3099.3708	2379.1	1483.75
1037.858	3100.3713	2368.05	1480.45
1037.9657	3101.3711	2361.95	1472.65
1038.0734	3102.3702	2464.95	1440.55
1038.181	3103.3688	2346.85	1455.2
1038.2886	3104.3667	2337.5	1448.25
1038.3961	3105.364	2331.15	1442.9
1038.5036	3106.3607	2322.65	1432.1
1038.611	3107.3568	2304.9	1414.5
1038.7184	3108.3522	2291.65	1404.3
1038.8257	3109.347	2286.25	1397.5
1038.933	3110.3412	2296.2	1403.45
1039.0403	3111.3348	2272.3	1383.5
1039.1475	3112.3277	2265.55	1377.5
1039.2547	3113.32	2257.55	1371.25
1039.3618	3114.3117	2245.3	1355.95
1039.4689	3115.3028	2245.45	1358.25
1039.5759	3116.2932	2236.25	1345.85
1039.6829	3117.2831	2224.95	1331
1039.7898	3118.2723	2218.4	1327.8
1039.8967	3119.2608	2199.5	1311.15
1040.0035	3120.2488	2197.65	1308.7
1040.1103	3121.2361	2197.15	1307.8
1040.2171	3122.2229	2186.85	1298.25
1040.3238	3123.209	2188.05	1300.45
1040.4305	3124.1944	2164.95	1275.2
1040.5371	3125.1793	2159.6	1270.25
1040.6437	3126.1635	2159.15	1272.95
1040.7502	3127.1471	2151.45	1263.5
1040.8567	3128.1301	2138.85	1251.65
1040.9631	3129.1125	2144.6	1256.05
1041.0695	3130.0942	2138.05	1250.35
1041.1759	3131.0753	2140.2	1242.9
1041.2822	3132.0558	2122.15	1230.4
1041.3884	3133.0357	2107.1	1219.2
1041.4946	3134.015	2114.9	1225
1041.6008	3134.9936	2109.4	1220.05
1041.7069	3135.9716	2116.15	1204.1
1041.813	3136.949	2095.9	1204.4
1041.919	3137.9258	2088.95	1194.9
1042.025	3138.902	2086.9	1192.7
1042.1309	3139.8775	2080.4	1194.2
1042.2368	3140.8524	2062.7	1172.4
1042.3427	3141.8267	2073.2	1182.15
1042.4485	3142.8004	2059.4	1171
1042.5542	3143.7735	2057.65	1162.75
1042.6599	3144.7459	2057.25	1166.5
1042.7656	3145.7178	2048.9	1160.95
1042.8712	3146.689	2039.75	1151.95
1042.9768	3147.6596	2029.45	1138.25
1043.0823	3148.6295	2034	1144.85
1043.1878	3149.5989	2022.1	1134.4
1043.2932	3150.5676	2005.9	1119.05
1043.3986	3151.5357	2005.6	1118.7
1043.5039	3152.5032	1999.8	1110.85
1043.6092	3153.4701	1989.15	1100.7
1043.7145	3154.4364	1991.9	1101.3
1043.8197	3155.402	1979	1092.25
1043.9248	3156.367	1972.9	1081.2
1044.03	3157.3315	1999.95	1067.55
1044.135	3158.2952	1960.15	1073.2
1044.24	3159.2584	1962.45	1074.85
1044.345	3160.221	1944.35	1055.45
1044.4499	3161.1829	1944.9	1055.25
1044.5548	3162.1442	1937.75	1049.35
1044.6596	3163.105	1918.1	1029
1044.7644	3164.065	1924.15	1034.05
1044.8692	3165.0245	1917.65	1026.1
1044.9739	3165.9834	1915.4	1029.3
1045.0785	3166.9416	1910.4	1021.25
1045.1831	3167.8993	1904.05	1016.6
1045.2877	3168.8563	1903.3	1013.3
1045.3922	3169.8127	1883.15	994.35
1045.4966	3170.7684	1884.15	996.3
1045.6011	3171.7236	1885.15	995.9
1045.7054	3172.6782	1876.35	987.85
1045.8098	3173.6321	1869.3	980
1045.914	3174.5854	1867.9	975
1046.0183	3175.5381	1858.95	970.5
1046.1224	3176.4902	1840.6	953.4
1046.2266	3177.4417	1846.6	959.8
1046.3307	3178.3926	1844.5	955.55
1046.4347	3179.3428	1836.9	947.85
1046.5387	3180.2924	1830.85	942.75
1046.6427	3181.2415	1834.9	946.5
1046.7466	3182.1899	1823.05	932.95
1046.8504	3183.1377	1814.15	925.9
1046.9542	3184.0848	1811.25	919.3
1047.058	3185.0314	1795.75	906.95
1047.1617	3185.9773	1803.5	914.65
1047.2654	3186.9227	1800.75	912.2
1047.369	3187.8674	1793.25	904.75
1047.4726	3188.8115	1788.1	894.45
1047.5761	3189.755	1779.3	890.95
1047.6796	3190.6979	1777.3	889.6
1047.783	3191.6402	1773.3	887.05
1047.8864	3192.5818	1762.05	873.3
1047.9898	3193.5229	1785.15	871.4
1048.0931	3194.4633	1765.75	877.15
1048.1963	3195.4031	1761.85	873.3
1048.2995	3196.3423	1759.25	871.85
1048.4027	3197.2809	1748.35	861.5
1048.5058	3198.2189	1741.3	853.35
1048.6089	3199.1563	1738.25	844.85
1048.7119	3200.0931	1734.65	844.9
1048.8148	3201.0292	1724.6	836.8
1048.9178	3201.9648	1723.1	836.65
1049.0206	3202.8997	1728.15	836.3
1049.1235	3203.834	1723.85	835.15
1049.2262	3204.7677	1720.95	832.1
1049.329	3205.7008	1699.3	810.35
1049.4317	3206.6333	1705.75	819.3
1049.5343	3207.5652	1702.45	811.95
1049.6369	3208.4964	1699.9	810.6
1049.7394	3209.4271	1696.5	809.25
1049.8419	3210.3571	1693.15	807.25
1049.9444	3211.2865	1682.85	795.35
1050.0468	3212.2154	1680.8	789.15
1050.1491	3213.1436	1674.25	783.2
1050.2514	3214.0712	1687.4	792.05
1050.3537	3214.9982	1671	783.95
1050.4559	3215.9246	1660.4	772.45
1050.5581	3216.8503	1665.2	778.05
1050.6602	3217.7755	1658.9	769.3
1050.7623	3218.7001	1651.95	763.2
1050.8643	3219.624	1644.3	755.2
1050.9663	3220.5473	1640.95	752.35
1051.0682	3221.4701	1643.75	755.95
1051.1701	3222.3922	1643.45	753.35
1051.2719	3223.3137	1634.6	747.4
1051.3737	3224.2346	1626.3	739
1051.4754	3225.1549	1623.3	734.2
1051.5771	3226.0746	1622.8	734.65
1051.6788	3226.9937	1612.25	722.9
1051.7804	3227.9121	1606.3	718.4
1051.8819	3228.83	1603.75	715.05
1051.9834	3229.7473	1608.25	719.95
1052.0849	3230.6639	1597.25	707.85
1052.1863	3231.5799	1593.1	706
1052.2876	3232.4954	1591	703.6
1052.3889	3233.4102	1585.05	697.75
1052.4902	3234.3244	1586.9	699.5
1052.5914	3235.238	1583.1	696.25
1052.6926	3236.151	1597.9	685.55
1052.7937	3237.0634	1568.05	680.8
1052.8948	3237.9752	1565.45	676.55
1052.9958	3238.8864	1562.05	672.85
1053.0968	3239.797	1559.15	670.6
1053.1977	3240.7069	1561.45	673
1053.2986	3241.6163	1556.9	665.5
1053.3994	3242.5251	1554.6	665.4
1053.5002	3243.4332	1535.2	647.65
1053.6009	3244.3408	1541	654.3
1053.7016	3245.2477	1539.65	652.2
1053.8022	3246.154	1528.6	638.75
1053.9028	3247.0598	1531.2	639.1
1054.0034	3247.9649	1520.55	633.8
1054.1039	3248.8694	1524.55	636.35
1054.2043	3249.7733	1513.95	625.5
1054.3047	3250.6766	1513.6	625.3
1054.4051	3251.5793	1510.35	619.45
1054.5054	3252.4814	1503.05	617.5
1054.6056	3253.3829	1501.5	615.05
1054.7058	3254.2838	1497.3	610.15
1054.806	3255.1841	1492.35	605.6
1054.9061	3256.0838	1482.75	593.15
1055.0061	3256.9829	1482.2	594.4
1055.1062	3257.8814	1475.35	584.25
1055.2061	3258.7792	1477	587.25
1055.306	3259.6765	1476.6	588.25
1055.4059	3260.5731	1464.65	575.6
1055.5057	3261.4692	1449.55	560.7
1055.6055	3262.3647	1449.9	559
1055.7052	3263.2595	1440.8	551.95
1055.8049	3264.1538	1435	549.2
1055.9045	3265.0474	1432.5	544
1056.0041	3265.9404	1417	529.6
1056.1036	3266.8329	1411.4	523.45
1056.2031	3267.7247	1410.7	512.15
1056.3025	3268.616	1385.35	498.35
1056.4019	3269.5066	1378.75	491.4
1056.5013	3270.3966	1362.85	473.5
1056.6005	3271.286	1347.15	460.6
