Software Version:	3.9.2.0
Unit SN:	10000200
Spectrometer SN:	6960
Date:	3/6/2024 10:54:32 AM
Data Line Index:	25
Spectral Points:	2048
Integration time (ms):	125
Averages:	20
Delay (ms):	30
Sequence Number:	1
Processing:	dark subtract
Laser Power (mW):	305
Laser Current (mA):	822
Laser Diode Temp (C):	25
Laser Case Temp (C):	27.8
System Temp (C):	27.7
Spectrometer Temp (C):	25.2
CCD Temp (C):	-0.005
Secondary Temp (C):	20.013
Heatsink Temp (C):	23.411
CCDPCB Temp (C):	37.018
SecondaryPCB Temp (C):	34.395

Wavelength	RamanShift	Raw Counts	Dark Subtracted
787.061	30.1047	1108.35	695.05
787.2016	32.3739	1131.5	720.55
787.3422	34.6426	1167.3	754.95
787.4828	36.9109	1224.3	810.95
787.6235	39.1787	1283.7	866.9
787.7642	41.4461	1344.1	921.45
787.9049	43.7131	1408.9	981.4
788.0456	45.9796	1465.4	1036.65
788.1863	48.2456	1538.6	1104.5
788.3271	50.5112	1602.05	1164.7
788.4679	52.7764	1669.85	1231.8
788.6087	55.0411	1741.9	1298.4
788.7496	57.3054	1822.8	1373.65
788.8904	59.5692	1912.2	1457.3
789.0313	61.8326	2020.9	1565.4
789.1722	64.0955	2110.25	1651.3
789.3132	66.3579	2247.05	1781.45
789.4541	68.6199	2382.75	1915.3
789.5951	70.8815	2637.2	2166.3
789.7361	73.1426	3127.7	2652.05
789.8771	75.4032	4377.75	3897.1
790.0181	77.6634	7566.7	7083.65
790.1592	79.9231	15786.55	15295.55
790.3003	82.1824	51508.8	51009.4
790.4414	84.4412	65535	65015.25
790.5825	86.6995	65535	64996.75
790.7237	88.9574	65535	64975
790.8648	91.2148	65535	64958.3
791.006	93.4717	65535	64947.5
791.1472	95.7282	65535	64942.95
791.2885	97.9842	65535	64940.75
791.4297	100.2398	65535	64935.95
791.571	102.4949	65535	64931.95
791.7123	104.7495	65535	64926.65
791.8536	107.0036	65535	64925.85
791.9949	109.2573	65535	64930.5
792.1363	111.5105	65535	64929.05
792.2777	113.7632	65535	64925.05
792.4191	116.0154	65535	64912.5
792.5605	118.2672	65535	64922.15
792.7019	120.5185	65535	64919.35
792.8434	122.7693	65535	64914.95
792.9849	125.0197	65535	64913.55
793.1264	127.2696	65535	64911.75
793.2679	129.519	65535	64908.9
793.4094	131.7679	65535	64903.25
793.551	134.0163	65535	64900.55
793.6926	136.2642	65535	64896.2
793.8342	138.5117	65535	64886.6
793.9758	140.7587	65535	64896.3
794.1175	143.0052	65535	64890.5
794.2591	145.2512	65535	64891.6
794.4008	147.4967	65535	64890.5
794.5425	149.7417	65535	64886.4
794.6842	151.9863	65535	64884.05
794.826	154.2304	65535	64877.9
794.9677	156.4739	65535	64875.1
795.1095	158.717	65535	64874.1
795.2513	160.9596	65535	64871.85
795.3931	163.2017	65535	64869.85
795.535	165.4433	65535	64868.6
795.6768	167.6844	65535	64863.65
795.8187	169.925	65535	64862.6
795.9606	172.1651	65535	64860.05
796.1025	174.4047	65535	64855.8
796.2445	176.6439	65535	64858.55
796.3864	178.8825	65535	64849.35
796.5284	181.1206	65535	64846.9
796.6704	183.3582	65535	64843.65
796.8124	185.5954	65535	64840.65
796.9544	187.832	65535	64836.25
797.0965	190.0681	65535	64837.85
797.2386	192.3037	65535	64834.2
797.3806	194.5388	65535	64828.45
797.5228	196.7734	65535	64827.35
797.6649	199.0075	65535	64822.6
797.807	201.2411	65535	64821.1
797.9492	203.4742	65535	64817.75
798.0914	205.7068	65535	64821.05
798.2336	207.9389	65535	64818.05
798.3758	210.1704	65535	64815.35
798.518	212.4015	65535	64815.15
798.6603	214.632	65535	64818
798.8025	216.862	65535	64829.9
798.9448	219.0915	65535	64832.3
799.0871	221.3205	65535	64833.2
799.2294	223.549	65535	64837.7
799.3718	225.777	65535	64837.65
799.5141	228.0044	65535	64836.25
799.6565	230.2314	65535	64834.25
799.7989	232.4578	65535	64832.5
799.9413	234.6837	65535	64822.8
800.0837	236.909	65535	64821.25
800.2262	239.1339	65535	64795.85
800.3687	241.3582	65535	64809.55
800.5111	243.582	65535	64778.6
800.6536	245.8053	65535	64797.55
800.7961	248.0281	65535	64798
800.9387	250.2503	65535	64794.25
801.0812	252.472	65535	64788.25
801.2238	254.6932	65535	64789.55
801.3664	256.9139	65535	64784.5
801.509	259.134	65535	64782.7
801.6516	261.3536	65535	64785.75
801.7942	263.5727	65535	64783.25
801.9369	265.7912	65535	64785.25
802.0795	268.0092	65535	64785.7
802.2222	270.2267	65535	64784.35
802.3649	272.4436	65535	64783.4
802.5076	274.6601	65535	64773.95
802.6504	276.8759	65535	64775
802.7931	279.0913	65535	64774.25
802.9359	281.3061	65535	64772.75
803.0787	283.5204	65535	64771.7
803.2215	285.7341	65535	64766.35
803.3643	287.9473	65535	64755.4
803.5071	290.16	65535	64762.7
803.6499	292.3721	65535	64768.65
803.7928	294.5837	65535	64768.4
803.9357	296.7947	65535	64769.05
804.0786	299.0052	65535	64768.65
804.2215	301.2152	65535	64765.7
804.3644	303.4246	65535	64767.95
804.5074	305.6334	65535	64766.1
804.6503	307.8418	65535	64765.6
804.7933	310.0495	65535	64760.5
804.9363	312.2568	65535	64764.35
805.0793	314.4635	65535	64761.4
805.2223	316.6696	65535	64758.95
805.3653	318.8752	65535	64750.15
805.5084	321.0802	65535	64756.1
805.6514	323.2847	65535	64754.25
805.7945	325.4887	65535	64753.3
805.9376	327.692	65535	64754.95
806.0807	329.8949	65535	64751.3
806.2238	332.0972	65535	64751.45
806.367	334.2989	65535	64749.3
806.5101	336.5001	65535	64746.7
806.6533	338.7007	65535	64746.4
806.7965	340.9008	65535	64748.2
806.9397	343.1003	65535	64742.8
807.0829	345.2992	65535	64745.1
807.2261	347.4976	65535	64743.5
807.3693	349.6955	65535	64737.65
807.5126	351.8927	65535	64735.3
807.6559	354.0895	65535	64725.5
807.7991	356.2856	65535	64736.3
807.9424	358.4812	65535	64736.6
808.0857	360.6763	65535	64736.9
808.2291	362.8707	65535	64734.6
808.3724	365.0646	65535	64729.85
808.5158	367.258	65535	64730.55
808.6591	369.4508	65535	64722.4
808.8025	371.643	65535	64725.4
808.9459	373.8346	65535	64723.45
809.0893	376.0257	65535	64722.6
809.2327	378.2162	65535	64719.8
809.3762	380.4062	65535	64716.15
809.5196	382.5956	65535	64717.1
809.6631	384.7844	65535	64719.25
809.8066	386.9726	65535	64719.7
809.9501	389.1603	65535	64722.25
810.0936	391.3474	65535	64678.85
810.2371	393.5339	65535	64724.4
810.3806	395.7199	65535	64727.1
810.5241	397.9052	65535	64730.2
810.6677	400.09	65535	64727.45
810.8113	402.2743	65535	64729.35
810.9548	404.4579	65535	64728.15
811.0984	406.641	65535	64723.95
811.2421	408.8235	65535	64724.15
811.3857	411.0054	65535	64725.15
811.5293	413.1868	65535	64721.95
811.673	415.3675	65535	64715.25
811.8166	417.5477	65535	64717.5
811.9603	419.7273	65535	64712.4
812.104	421.9064	65535	64706.8
812.2477	424.0848	65535	64712.1
812.3914	426.2627	65535	64705.35
812.5351	428.4399	65535	64707.3
812.6788	430.6166	65535	64702.65
812.8226	432.7928	65535	64703.6
812.9663	434.9683	65535	64703.95
813.1101	437.1432	65535	64700.05
813.2539	439.3176	65535	64701.1
813.3977	441.4914	65535	64700.8
813.5415	443.6645	65535	64700.55
813.6853	445.8371	65535	64704.15
813.8291	448.0091	65535	64700.1
813.973	450.1806	65535	64702.6
814.1168	452.3514	65535	64697.75
814.2607	454.5216	65535	64691.7
814.4046	456.6913	65535	64697.9
814.5485	458.8603	65535	64694.85
814.6924	461.0288	65535	64700.45
814.8363	463.1967	65535	64697.1
814.9802	465.3639	65535	64696.05
815.1241	467.5306	65535	64695.5
815.2681	469.6967	65535	64693.5
815.412	471.8622	65535	64694.95
815.556	474.0271	65535	64695.15
815.7	476.1914	65535	64693.35
815.844	478.3551	65535	64696.1
815.988	480.5182	65535	64693.3
816.132	482.6807	65535	64694.95
816.276	484.8426	65535	64694.5
816.4201	487.0039	65535	64692.4
816.5641	489.1647	65535	64692.6
816.7082	491.3248	65535	64688.1
816.8522	493.4843	65535	64690.15
816.9963	495.6432	65535	64690.85
817.1404	497.8015	65535	64687.8
817.2845	499.9592	65535	64685.6
817.4286	502.1163	65535	64689.1
817.5727	504.2728	65535	64687.4
817.7168	506.4287	65535	64688.35
817.861	508.5839	65535	64688.95
818.0051	510.7386	65535	64688.15
818.1493	512.8927	65535	64683.5
818.2935	515.0461	65535	64686.2
818.4377	517.199	65535	64684.9
818.5818	519.3512	65535	64686.35
818.726	521.5029	65535	64677
818.8703	523.6539	65535	64684
819.0145	525.8043	65535	64681.5
819.1587	527.9541	65535	64681.05
819.303	530.1033	65535	64680.3
819.4472	532.2519	65535	64682.95
819.5915	534.3999	65535	64679.35
819.7357	536.5472	65535	64677.65
819.88	538.694	65535	64680.65
820.0243	540.8401	65535	64680.7
820.1686	542.9856	65535	64677.6
820.3129	545.1305	65535	64677.05
820.4572	547.2748	65535	64675.55
820.6016	549.4185	65535	64675.75
820.7459	551.5615	65535	64674.75
820.8902	553.704	65535	64676.35
821.0346	555.8458	65535	64677.75
821.1789	557.987	65535	64677.05
821.3233	560.1276	65535	64672.7
821.4677	562.2675	65535	64676.4
821.6121	564.4069	65535	64673.2
821.7565	566.5456	65535	64674.9
821.9009	568.6837	65535	64677.75
822.0453	570.8212	65535	64676.9
822.1897	572.958	65535	64674.9
822.3342	575.0942	65535	64675.15
822.4786	577.2299	65535	64673.35
822.6231	579.3648	65535	64674.6
822.7675	581.4992	65535	64676.8
822.912	583.6329	65535	64678.6
823.0565	585.766	65535	64674.1
823.201	587.8985	65535	64678.65
823.3454	590.0304	65535	64650.45
823.4899	592.1616	65535	64672.5
823.6345	594.2922	65535	64671.05
823.779	596.4222	65535	64668.05
823.9235	598.5515	65535	64670.15
824.068	600.6802	65535	64671.55
824.2126	602.8083	65535	64671
824.3571	604.9358	65535	64664.4
824.5017	607.0626	65535	64668.95
824.6462	609.1888	65535	64665.25
824.7908	611.3144	65535	64662.8
824.9354	613.4393	65535	64668.6
825.08	615.5636	65535	64666.15
825.2246	617.6873	65535	64666.8
825.3692	619.8103	65535	64665.75
825.5138	621.9327	65535	64666.05
825.6584	624.0544	65535	64666.55
825.803	626.1756	65535	64668.7
825.9477	628.2961	65535	64665.9
826.0923	630.4159	65535	64664.65
826.237	632.5351	65535	64667.9
826.3816	634.6537	65535	64664.4
826.5263	636.7716	65535	64660.65
826.6709	638.8889	65535	64664.2
826.8156	641.0056	65535	64661.8
826.9603	643.1216	65535	64658.45
827.105	645.237	65535	64660.75
827.2497	647.3518	65535	64663.2
827.3944	649.4659	65535	64666.9
827.5391	651.5793	65535	64662.45
827.6838	653.6922	65535	64665.6
827.8285	655.8043	65535	64664.35
827.9733	657.9159	65535	64662.05
828.118	660.0268	65535	64658.5
828.2627	662.137	65535	64658.9
828.4075	664.2466	65535	64658.55
828.5522	666.3556	65535	64661.75
828.697	668.4639	65535	64654.3
828.8418	670.5716	65535	64658.05
828.9865	672.6786	65535	64659.25
829.1313	674.785	65535	64657.05
829.2761	676.8907	65535	64658.6
829.4209	678.9958	65535	64661.55
829.5657	681.1002	65535	64656.05
829.7105	683.204	65535	64654
829.8553	685.3072	65535	64653.45
830.0001	687.4097	65535	64656.55
830.1449	689.5115	65535	64654.45
830.2898	691.6127	65535	64657.05
830.4346	693.7132	65535	64655.4
830.5794	695.8131	65535	64637.6
830.7243	697.9123	65535	64653.7
830.8691	700.0109	65535	64651.55
831.014	702.1089	65535	64654.95
831.1588	704.2061	65535	64654.15
831.3037	706.3028	65535	64651.95
831.4486	708.3987	65535	64656.65
831.5935	710.4941	65535	64654.5
831.7383	712.5887	65535	64652.1
831.8832	714.6827	65535	64650.4
832.0281	716.7761	65535	64656.3
832.173	718.8688	65535	64652.2
832.3179	720.9608	65535	64647.9
832.4628	723.0522	65535	64646.3
832.6077	725.1429	65535	64651.65
832.7527	727.233	65535	64650.8
832.8976	729.3224	65535	64652.9
833.0425	731.4112	65535	64651.45
833.1874	733.4993	65535	64647.95
833.3324	735.5867	65535	64649.55
833.4773	737.6735	65535	64647.8
833.6222	739.7596	65535	64647.5
833.7672	741.845	65535	64647.15
833.9122	743.9298	65535	64647.4
834.0571	746.014	65535	64650.1
834.2021	748.0974	65535	64647.3
834.347	750.1802	65535	64648.15
834.492	752.2624	65535	64649.6
834.637	754.3439	65535	64644.6
834.782	756.4247	65535	64639.4
834.9269	758.5048	65535	64649.55
835.0719	760.5843	65535	64647.25
835.2169	762.6631	65535	64646.4
835.3619	764.7413	65535	64650.65
835.5069	766.8188	65535	64644.2
835.6519	768.8956	65535	64645.4
835.7969	770.9718	65535	64648.1
835.9419	773.0473	65535	64647.05
836.0869	775.1221	65535	64647.85
836.232	777.1962	65535	64645.6
836.377	779.2697	65535	64642.9
836.522	781.3426	65535	64626.25
836.667	783.4147	65535	64646.3
836.8121	785.4862	65535	64649.8
836.9571	787.557	65535	64646.5
837.1021	789.6271	65535	64646.85
837.2472	791.6966	65535	64645.2
837.3922	793.7654	65535	64647.3
837.5373	795.8335	65535	64646.5
837.6823	797.901	65535	64646.15
837.8274	799.9678	65535	64642
837.9724	802.0339	65535	64643.65
838.1175	804.0993	65535	64635.35
838.2626	806.1641	65535	64643.3
838.4076	808.2282	65535	64645.65
838.5527	810.2916	65535	64640.9
838.6978	812.3544	65535	64645.65
838.8428	814.4164	65535	64646.4
838.9879	816.4778	65535	64644.85
839.133	818.5385	65535	64644.5
839.2781	820.5986	65535	64642.5
839.4232	822.658	65535	64643.95
839.5682	824.7166	65535	64644.5
839.7133	826.7747	65535	64645.3
839.8584	828.832	65535	64641.05
840.0035	830.8886	65535	64643.65
840.1486	832.9446	65535	64643.8
840.2937	834.9999	65535	64643.8
840.4388	837.0545	65535	64643.65
840.5839	839.1085	65535	64642.55
840.729	841.1618	65535	64638.75
840.8741	843.2143	65535	64643.65
841.0192	845.2662	65535	64641.75
841.1643	847.3175	65535	64646.4
841.3095	849.368	65535	64644.55
841.4546	851.4179	65535	64643.7
841.5997	853.467	65535	64642
841.7448	855.5155	65535	64644.7
841.8899	857.5633	65535	64643
842.0351	859.6105	65535	64644.3
842.1802	861.6569	65535	64643.5
842.3253	863.7027	65535	64641.3
842.4704	865.7478	65535	64640.75
842.6156	867.7922	65535	64641.4
842.7607	869.8359	65535	64640.1
842.9058	871.8789	65535	64641.45
843.0509	873.9212	65535	64610.2
843.1961	875.9629	65535	64639.6
843.3412	878.0039	65535	64642.55
843.4863	880.0441	65535	64641.8
843.6315	882.0837	65535	64638.9
843.7766	884.1226	65535	64639.1
843.9218	886.1609	65535	64643.4
844.0669	888.1984	65535	64643.05
844.212	890.2352	65535	64643.65
844.3572	892.2714	65535	64638.1
844.5023	894.3069	65535	64644
844.6475	896.3416	65535	64640.55
844.7926	898.3757	65535	64640.45
844.9377	900.4091	65535	64637.45
845.0829	902.4418	65535	64636.1
845.228	904.4739	65535	64639.2
845.3732	906.5052	65535	64638.35
845.5183	908.5358	65535	64641.05
845.6635	910.5658	65535	64637.45
845.8086	912.595	65535	64641.6
845.9538	914.6236	65535	64639.75
846.0989	916.6515	65535	64638.3
846.2441	918.6786	65535	64638.9
846.3892	920.7051	65535	64639.9
846.5344	922.7309	65535	64639.6
846.6795	924.756	65535	64638.35
846.8246	926.7804	65535	64636.5
846.9698	928.8041	65535	64635.5
847.1149	930.8272	65535	64638.85
847.2601	932.8495	65535	64638.65
847.4052	934.8711	65535	64637.8
847.5504	936.892	65535	64640.3
847.6955	938.9123	65535	64637.95
847.8407	940.9318	65535	64638.4
847.9858	942.9506	65535	64637.1
848.131	944.9688	65535	64640.85
848.2761	946.9862	65535	64637.55
848.4213	949.003	65535	64639.25
848.5664	951.019	65535	64637.35
848.7115	953.0344	65535	64635.9
848.8567	955.0491	65535	64636.4
849.0018	957.063	65535	64638.65
849.147	959.0763	65535	64639.5
849.2921	961.0888	65535	64634.6
849.4373	963.1007	65535	64639.65
849.5824	965.1119	65535	64638.75
849.7275	967.1223	65535	64639.95
849.8727	969.1321	65535	64641.75
850.0178	971.1412	65535	64637.05
850.1629	973.1495	65535	64638.5
850.3081	975.1572	65535	64605.2
850.4532	977.1641	65535	64637.5
850.5983	979.1704	65535	64636.5
850.7435	981.1759	65535	64636.4
850.8886	983.1808	65535	64635.9
851.0337	985.1849	65535	64626.25
851.1788	987.1884	65535	64635.55
851.324	989.1911	65535	64633.95
851.4691	991.1932	65535	64637.1
851.6142	993.1945	65535	64639.6
851.7593	995.1951	65535	64637.15
851.9045	997.1951	65535	64632.9
852.0496	999.1943	65535	64638.4
852.1947	1001.1928	65535	64636.15
852.3398	1003.1906	65535	64636.85
852.4849	1005.1877	65535	64632.5
852.63	1007.1841	65535	64638.25
852.7751	1009.1798	65535	64638.9
852.9202	1011.1748	65535	64637.95
853.0653	1013.1691	65535	64638.9
853.2104	1015.1627	65535	64635.9
853.3555	1017.1556	65535	64637.7
853.5006	1019.1477	65535	64636.35
853.6457	1021.1392	65535	64640.2
853.7908	1023.1299	65535	64639.8
853.9359	1025.12	65535	64636
854.081	1027.1093	65535	64641.85
854.2261	1029.0979	65535	64643.1
854.3712	1031.0859	65535	64640.35
854.5163	1033.0731	65535	64637.05
854.6613	1035.0596	65535	64640
854.8064	1037.0454	65535	64637.25
854.9515	1039.0304	65535	64637.7
855.0965	1041.0148	65535	64638.6
855.2416	1042.9985	65535	64635.95
855.3867	1044.9814	65535	64639.3
855.5317	1046.9636	65535	64635.4
855.6768	1048.9452	65535	64638.15
855.8219	1050.926	65535	64640.05
855.9669	1052.9061	65535	64640.25
856.112	1054.8855	65535	64637.75
856.257	1056.8642	65535	64639.6
856.4021	1058.8421	65535	64632.55
856.5471	1060.8194	65535	64636.6
856.6921	1062.7959	65535	64637.3
856.8372	1064.7717	65535	64634.7
856.9822	1066.7469	65535	64634
857.1272	1068.7213	65535	64633.55
857.2723	1070.695	65535	64638.75
857.4173	1072.6679	65535	64636.1
857.5623	1074.6402	65535	64639.35
857.7073	1076.6117	65535	64632.55
857.8523	1078.5826	65535	64636.25
857.9973	1080.5527	65535	64633.25
858.1423	1082.5221	65535	64635.9
858.2873	1084.4908	65535	64634.65
858.4323	1086.4587	65535	64635.05
858.5773	1088.426	65535	64636.95
858.7223	1090.3925	65535	64633.05
858.8673	1092.3584	65535	64635.5
859.0123	1094.3235	65535	64638.7
859.1573	1096.2879	65535	64635.45
859.3022	1098.2515	65535	64635.9
859.4472	1100.2145	65535	64635.6
859.5922	1102.1767	65535	64631.75
859.7371	1104.1382	65535	64636.15
859.8821	1106.099	65535	64635.6
860.027	1108.0591	65535	64636.95
860.172	1110.0185	65535	64636.05
860.3169	1111.9771	65535	64637.35
860.4619	1113.9351	65535	64635.65
860.6068	1115.8923	65535	64637.5
860.7517	1117.8488	65535	64635.5
860.8967	1119.8045	65535	64635.6
861.0416	1121.7596	65535	64636.55
861.1865	1123.7139	65535	64637.15
861.3314	1125.6675	65535	64634.7
861.4763	1127.6204	65535	64635.25
861.6212	1129.5726	65535	64636.45
861.7661	1131.524	65535	64637.15
861.911	1133.4748	65535	64636.85
862.0559	1135.4248	65535	64636.35
862.2008	1137.3741	65535	64637
862.3457	1139.3226	65535	64634.5
862.4905	1141.2705	65535	64635.25
862.6354	1143.2176	65535	64630.5
862.7803	1145.164	65535	64633.75
862.9251	1147.1097	65535	64635.45
863.07	1149.0546	65535	64634.45
863.2148	1150.9989	65535	64636.8
863.3597	1152.9424	65535	64636.05
863.5045	1154.8852	65535	64637.1
863.6493	1156.8272	65535	64634.65
863.7942	1158.7686	65535	64628.75
863.939	1160.7092	65535	64635.65
864.0838	1162.6491	65535	64633.95
864.2286	1164.5883	65535	64635.85
864.3734	1166.5267	65535	64634.45
864.5182	1168.4644	65535	64637.75
864.663	1170.4014	65535	64631.2
864.8078	1172.3377	65535	64636.3
864.9526	1174.2732	65535	64636.85
865.0974	1176.2081	65535	64635.5
865.2421	1178.1421	65535	64632.85
865.3869	1180.0755	65535	64637.2
865.5317	1182.0082	65535	64635.5
865.6764	1183.9401	65535	64636.9
865.8212	1185.8713	65535	64637.05
865.9659	1187.8017	65535	64635.4
866.1106	1189.7315	65535	64637.35
866.2554	1191.6605	65535	64610.2
866.4001	1193.5888	65535	64636.55
866.5448	1195.5163	65535	64638.25
866.6895	1197.4432	65535	64636
866.8342	1199.3693	65535	64636.9
866.9789	1201.2947	65535	64631.65
867.1236	1203.2193	65535	64634.95
867.2683	1205.1432	65535	64634.55
867.413	1207.0664	65535	64635.6
867.5576	1208.9889	65535	64635.45
867.7023	1210.9106	65535	64635.35
867.847	1212.8316	65535	64636.25
867.9916	1214.7519	65535	64625.8
868.1363	1216.6715	65535	64635.9
868.2809	1218.5903	65535	64638.9
868.4255	1220.5084	65535	64635.55
868.5701	1222.4257	65535	64636.2
868.7148	1224.3424	65535	64638.35
868.8594	1226.2583	65535	64631.55
869.004	1228.1735	65535	64635.9
869.1486	1230.0879	65535	64633.95
869.2932	1232.0016	65535	64636.75
869.4377	1233.9146	65535	64635.55
869.5823	1235.8269	65535	64634.5
869.7269	1237.7384	65535	64635.95
869.8715	1239.6492	65535	64634.8
870.016	1241.5592	65535	64634.25
870.1606	1243.4686	65535	64635.9
870.3051	1245.3772	65535	64637.6
870.4496	1247.285	65535	64636.6
870.5941	1249.1922	65535	64637.45
870.7387	1251.0986	65535	64636.4
870.8832	1253.0042	65535	64636
871.0277	1254.9092	65535	64634.1
871.1722	1256.8134	65535	64638.3
871.3167	1258.7169	65535	64636.2
871.4611	1260.6196	65535	64636.2
871.6056	1262.5216	65535	64635.75
871.7501	1264.4229	65535	64636.95
871.8945	1266.3234	65535	64634.2
872.039	1268.2232	65535	64636.5
872.1834	1270.1223	65535	64635.15
872.3278	1272.0207	65535	64637.35
872.4723	1273.9183	65535	64628.25
872.6167	1275.8151	65535	64634.85
872.7611	1277.7113	65535	64635.5
872.9055	1279.6067	65535	64637.6
873.0499	1281.5014	65535	64633.45
873.1943	1283.3953	65535	64634.8
873.3386	1285.2885	65535	64634.65
873.483	1287.181	65535	64637.05
873.6274	1289.0727	65535	64637.1
873.7717	1290.9637	65535	64634.2
873.9161	1292.854	65535	64638.05
874.0604	1294.7435	65535	64634.2
874.2047	1296.6323	65535	64636.8
874.349	1298.5204	65535	64633.7
874.4933	1300.4077	65535	64633.7
874.6376	1302.2943	65535	64636.3
874.7819	1304.1802	65535	64635.35
874.9262	1306.0653	65535	64634.05
875.0705	1307.9497	65535	64634.75
875.2147	1309.8333	65535	64633.95
875.359	1311.7162	65535	64636.95
875.5032	1313.5984	65535	64635.5
875.6475	1315.4798	65535	64626.9
875.7917	1317.3605	65535	64618.2
875.9359	1319.2405	65535	64634.2
876.0801	1321.1197	65535	64636.2
876.2243	1322.9982	65535	64632.75
876.3685	1324.876	65535	64636
876.5127	1326.753	65535	64636.35
876.6569	1328.6293	65535	64633.75
876.801	1330.5048	65535	64633.45
876.9452	1332.3796	65535	64635.2
877.0893	1334.2537	65535	64609.45
877.2335	1336.127	65535	64635.05
877.3776	1337.9996	65535	64633.55
877.5217	1339.8714	65535	64636.1
877.6658	1341.7426	65535	64593.7
877.8099	1343.6129	65535	64634
877.954	1345.4826	65535	64636.3
878.0981	1347.3515	65535	64632.4
878.2422	1349.2196	65535	64636.85
878.3862	1351.087	65535	64635.1
878.5303	1352.9537	65535	64635.3
878.6743	1354.8197	65535	64634.25
878.8184	1356.6849	65535	64635.05
878.9624	1358.5493	65535	64635.25
879.1064	1360.4131	65535	64634.6
879.2504	1362.276	65535	64637.5
879.3944	1364.1383	65535	64637.6
879.5384	1365.9998	65535	64628.7
879.6823	1367.8606	65535	64634.35
879.8263	1369.7206	65535	64636.35
879.9702	1371.5799	65535	64632.6
880.1142	1373.4384	65535	64634.5
880.2581	1375.2962	65535	64636.2
880.402	1377.1533	65535	64637.25
880.5459	1379.0096	65535	64636.15
880.6898	1380.8652	65535	64634.85
880.8337	1382.7201	65535	64638.2
880.9776	1384.5742	65535	64635.35
881.1215	1386.4275	65535	64634.75
881.2653	1388.2802	65535	64633.8
881.4092	1390.132	65535	64636.5
881.553	1391.9832	65535	64633
881.6968	1393.8336	65535	64635.75
881.8406	1395.6832	65535	64633.8
881.9844	1397.5322	65535	64635.1
882.1282	1399.3803	65535	64630.65
882.272	1401.2278	65535	64634.15
882.4158	1403.0745	65535	64634.3
882.5595	1404.9204	65535	64637.5
882.7033	1406.7656	65535	64636.65
882.847	1408.6101	65535	64635.2
882.9908	1410.4538	65535	64634.85
883.1345	1412.2968	65535	64635.05
883.2782	1414.139	65535	64635.95
883.4219	1415.9805	65535	64636.35
883.5656	1417.8213	65535	64629.1
883.7092	1419.6613	65535	64636.15
883.8529	1421.5006	65535	64635.35
883.9965	1423.3391	65535	64636.25
884.1402	1425.1769	65535	64634.35
884.2838	1427.0139	65535	64635.1
884.4274	1428.8502	65535	64634.25
884.571	1430.6858	65535	64635.8
884.7146	1432.5206	65535	64633.7
884.8582	1434.3547	65535	64635.45
885.0018	1436.188	65535	64635.5
885.1453	1438.0206	65535	64635.55
885.2889	1439.8524	65535	64636.75
885.4324	1441.6835	65535	64634.35
885.5759	1443.5139	65535	64632.75
885.7194	1445.3435	65535	64636.85
885.8629	1447.1724	65535	64637.2
886.0064	1449.0005	65535	64638.3
886.1499	1450.8279	65535	64635.55
886.2933	1452.6545	65535	64638.1
886.4368	1454.4804	65535	64635.5
886.5802	1456.3056	65535	64628.35
886.7237	1458.13	65535	64635.85
886.8671	1459.9536	65535	64637.95
887.0105	1461.7766	65535	64636.75
887.1539	1463.5987	65535	64636.55
887.2972	1465.4202	65535	64636.05
887.4406	1467.2409	65535	64636.9
887.584	1469.0608	65535	64635.2
887.7273	1470.88	65535	64638.1
887.8706	1472.6984	65535	64636.2
888.0139	1474.5161	65535	64632.65
888.1572	1476.3331	65535	64637.45
888.3005	1478.1493	65535	64637.4
888.4438	1479.9648	65535	64636.4
888.5871	1481.7795	65535	64637.05
888.7303	1483.5935	65535	64638.2
888.8736	1485.4067	65535	64637.3
889.0168	1487.2192	65535	64636.8
889.16	1489.031	65535	64634.95
889.3032	1490.842	65535	64637.45
889.4464	1492.6522	65535	64637
889.5896	1494.4618	65535	64636.75
889.7327	1496.2705	65535	64634.45
889.8759	1498.0785	65535	64635.8
890.019	1499.8858	65535	64635.45
890.1622	1501.6924	65535	64637.8
890.3053	1503.4981	65535	64638.15
890.4484	1505.3032	65535	64637.05
890.5914	1507.1075	65535	64636.5
890.7345	1508.911	65535	64636.75
890.8776	1510.7138	65535	64638.8
891.0206	1512.5159	65535	64636.45
891.1637	1514.3172	65535	64637.9
891.3067	1516.1178	65535	64637.8
891.4497	1517.9176	65535	64633.7
891.5927	1519.7166	65535	64638.55
891.7357	1521.515	65535	64630.25
891.8786	1523.3126	65535	64635.7
892.0216	1525.1094	65535	64636.5
892.1645	1526.9055	65535	64636.8
892.3074	1528.7008	65535	64637.2
892.4503	1530.4954	65535	64631.1
892.5932	1532.2893	65535	64637.4
892.7361	1534.0824	65535	64632
892.879	1535.8747	65535	64637.2
893.0218	1537.6663	65535	64634.7
893.1647	1539.4572	65523.1	64623.75
893.3075	1541.2473	65535	64637.25
893.4503	1543.0367	65534.9	64638.55
893.5931	1544.8253	65530.5	64627.95
893.7359	1546.6132	65535	64635.8
893.8787	1548.4003	65518.05	64611.2
894.0214	1550.1867	65510.5	64604.55
894.1642	1551.9723	65497.9	64594.3
894.3069	1553.7572	65506.15	64606.75
894.4496	1555.5414	65520.05	64622.75
894.5923	1557.3247	65222.35	64325.6
894.735	1559.1074	65515.05	64617.35
894.8777	1560.8893	65439.1	64543.85
895.0204	1562.6705	65482.5	64581.85
895.163	1564.4509	65240.25	64343.15
895.3056	1566.2305	65375.85	64481.75
895.4482	1568.0094	65491.35	64596.2
895.5908	1569.7876	65408.4	64512.85
895.7334	1571.565	65251.6	64353.6
895.876	1573.3417	65364.9	64467.5
896.0186	1575.1176	65315	64417.9
896.1611	1576.8928	65211.3	64314.85
896.3036	1578.6672	64927.35	64033.15
896.4461	1580.4409	65139	64244.9
896.5886	1582.2138	64684.3	63784.6
896.7311	1583.986	64809.1	63910.8
896.8736	1585.7575	64250.05	63353.95
897.0161	1587.5282	64471.65	63576.75
897.1585	1589.2981	64482.3	63587.7
897.3009	1591.0673	63877.35	62981.2
897.4433	1592.8358	63431.8	62539.15
897.5857	1594.6035	63884.5	62987.35
897.7281	1596.3704	63940.85	63043.5
897.8705	1598.1366	62981.8	62087.2
898.0128	1599.9021	62479.1	61582.85
898.1551	1601.6668	63291.6	62394.4
898.2975	1603.4308	62857.5	61961.5
898.4398	1605.194	62915.25	62015.9
898.5821	1606.9564	61786.9	60892.35
898.7243	1608.7182	62370.75	61472.8
898.8666	1610.4791	61863.9	60970.3
899.0088	1612.2394	62462.4	61568.2
899.1511	1613.9988	61747.15	60853.4
899.2933	1615.7576	62482.25	61586.8
899.4355	1617.5156	62506.3	61604.35
899.5776	1619.2728	63238.55	62342.3
899.7198	1621.0293	61994.9	61101.3
899.862	1622.785	62042.45	61142.95
900.0041	1624.54	62480.25	61583.15
900.1462	1626.2942	61803.85	60905.4
900.2883	1628.0477	60762.2	59864.8
900.4304	1629.8005	60118.2	59220.35
900.5725	1631.5525	60690.1	59795.95
900.7145	1633.3037	59504.6	58609.9
900.8566	1635.0542	59394.6	58499.8
900.9986	1636.804	59717.95	58820.85
901.1406	1638.553	58715.55	57713.3
901.2826	1640.3013	59047.45	58153.25
901.4245	1642.0488	58290.25	57394.1
901.5665	1643.7955	58719.15	57825.1
901.7085	1645.5416	58217.35	57321.5
901.8504	1647.2868	57893.6	57001
901.9923	1649.0313	58493.95	57599.45
902.1342	1650.7751	58092.75	57196.1
902.2761	1652.5181	57766.15	56871.8
902.4179	1654.2604	57820.7	56927.2
902.5598	1656.0019	58312.75	57418.65
902.7016	1657.7427	58092.6	57197.75
902.8434	1659.4828	58634.4	57740.45
902.9852	1661.222	58356.05	57460.75
903.127	1662.9606	58681.2	57788.2
903.2687	1664.6984	58039.55	57143.85
903.4105	1666.4354	57974.7	57077.1
903.5522	1668.1717	56927.7	56032.9
903.6939	1669.9072	56223.6	55331.9
903.8356	1671.642	55905.8	55007.95
903.9773	1673.3761	55537.4	54644.2
904.119	1675.1094	55156.45	54260.1
904.2606	1676.8419	54730.65	53836.2
904.4022	1678.5737	54487	53591.3
904.5439	1680.3048	54194.65	53299.3
904.6855	1682.0351	53900.4	53007.45
904.827	1683.7646	53544.15	52649.3
904.9686	1685.4934	53561.6	52668.8
905.1101	1687.2215	52852.75	51959.3
905.2517	1688.9488	53130.45	52236.55
905.3932	1690.6754	52111.15	51217.65
905.5347	1692.4012	52362.3	51467.55
905.6761	1694.1263	52244.75	51350.35
905.8176	1695.8506	51964.35	51069.25
905.9591	1697.5742	51829.25	50934.35
906.1005	1699.297	51567.8	50675.05
906.2419	1701.0191	51388.95	50498.1
906.3833	1702.7404	51026.75	50135.25
906.5246	1704.461	50711.7	49817.65
906.666	1706.1808	50620.9	49726.95
906.8073	1707.8999	50457.65	49561.35
906.9487	1709.6182	50287.1	49392.6
907.09	1711.3358	50085.75	49191.5
907.2313	1713.0527	49877.05	48988.15
907.3725	1714.7688	49773.4	48874.25
907.5138	1716.4841	49451.7	48556.6
907.655	1718.1987	49430.9	48533.15
907.7962	1719.9126	49194.55	48302.3
907.9374	1721.6257	49016.7	48121.7
908.0786	1723.338	49003.95	48109.45
908.2198	1725.0496	48511.2	47617.6
908.3609	1726.7605	48438.2	47545.15
908.502	1728.4706	48265.95	47372.1
908.6431	1730.18	48046.3	47151.45
908.7842	1731.8886	47902.9	47008.75
908.9253	1733.5964	47755.5	46843.5
909.0664	1735.3036	47637.55	46741.2
909.2074	1737.0099	47535.5	46642.15
909.3484	1738.7156	47351.95	46461.35
909.4894	1740.4204	47086.5	46191.9
909.6304	1742.1246	47014.5	46118.9
909.7714	1743.8279	46845.95	45955.6
909.9123	1745.5306	46764.5	45872.05
910.0532	1747.2325	46533.95	45641.9
910.1941	1748.9336	46379.2	45487.1
910.335	1750.634	46165.35	45272.75
910.4759	1752.3336	46087.5	45193.35
910.6168	1754.0325	46001.75	45111.8
910.7576	1755.7307	45818.35	44926.9
910.8984	1757.4281	45799.85	44908
911.0392	1759.1247	45671.85	44769.25
911.18	1760.8206	45544.8	44648
911.3208	1762.5158	45499.35	44601.6
911.4615	1764.2102	45223.8	44332.2
911.6022	1765.9039	45057.5	44165
911.7429	1767.5968	44986.75	44092.65
911.8836	1769.289	44811.65	43919.05
912.0243	1770.9804	44669.2	43775.35
912.1649	1772.6711	44630.7	43736.45
912.3056	1774.361	44444.7	43549.85
912.4462	1776.0502	44326.7	43434.2
912.5868	1777.7386	44256.4	43360.95
912.7274	1779.4263	44087.5	43194.75
912.8679	1781.1132	44061.2	43167.55
913.0084	1782.7994	43839.8	42947.3
913.149	1784.4849	43802.55	42909.8
913.2895	1786.1696	43611.15	42711.55
913.4299	1787.8535	43506.4	42613.3
913.5704	1789.5367	43358.75	42465.55
913.7108	1791.2192	43260.75	42370.1
913.8513	1792.9009	43045.1	42123
913.9917	1794.5818	42952.45	42056.8
914.132	1796.2621	42870.9	41981.3
914.2724	1797.9415	42694.6	41801
914.4128	1799.6202	42525.35	41632.15
914.5531	1801.2982	42415.3	41523.55
914.6934	1802.9755	42369.3	41474.65
914.8337	1804.6519	42245.5	41352.2
914.9739	1806.3277	41998	41104.45
915.1142	1808.0027	41853.3	40963
915.2544	1809.6769	41763.85	40870.8
915.3946	1811.3504	41641.3	40747.3
915.5348	1813.0231	41556.45	40663.05
915.675	1814.6951	41474.3	40582.9
915.8151	1816.3664	41488.1	40594.85
915.9553	1818.0369	41270.85	40377.65
916.0954	1819.7067	41122.95	40229.65
916.2355	1821.3757	41016.6	40123.2
916.3755	1823.044	40927.5	40036.05
916.5156	1824.7115	40829.75	39937.55
916.6556	1826.3783	40637.35	39745.5
916.7956	1828.0443	40534.75	39642.5
916.9356	1829.7096	40436.7	39544.2
917.0756	1831.3741	40346.1	39451.95
917.2155	1833.0379	40261.5	39369.75
917.3555	1834.701	40057.1	39163.95
917.4954	1836.3633	39927.7	39034.45
917.6353	1838.0248	39862.75	38969.3
917.7751	1839.6856	39732.5	38839.5
917.915	1841.3457	39709.7	38817.45
918.0548	1843.005	39564.85	38672.25
918.1946	1844.6636	39469.55	38578.35
918.3344	1846.3214	39346.65	38454.85
918.4742	1847.9785	39310.15	38417.8
918.6139	1849.6349	39179.7	38286.3
918.7537	1851.2904	39053.15	38151.8
918.8934	1852.9453	38949.8	38056.6
919.0331	1854.5994	38817.8	37923.25
919.1727	1856.2528	38827.8	37930.5
919.3124	1857.9054	38688.55	37794.95
919.452	1859.5572	38572.3	37683.2
919.5916	1861.2083	38494.25	37600.3
919.7312	1862.8587	38465.25	37572.65
919.8708	1864.5084	38359.55	37467.15
920.0103	1866.1572	38194.7	37303.7
920.1498	1867.8054	38014.85	37124.55
920.2893	1869.4528	37915.9	37023.3
920.4288	1871.0994	37817.45	36925.75
920.5683	1872.7453	37747.2	36855.6
920.7077	1874.3905	37660.8	36762.25
920.8471	1876.0349	37514.75	36620.3
920.9865	1877.6786	37476.95	36585
921.1259	1879.3215	37385.55	36494
921.2653	1880.9637	37301.45	36407.5
921.4046	1882.6051	37227.45	36336
921.5439	1884.2458	37088.7	36194.85
921.6832	1885.8858	36906.55	36014.4
921.8225	1887.525	36886.75	35994.35
921.9617	1889.1634	36611.75	35720.5
922.101	1890.8011	36503.95	35611.05
922.2402	1892.4381	36413.35	35522.1
922.3794	1894.0743	36393.7	35501.8
922.5185	1895.7098	36235.7	35343.55
922.6577	1897.3446	36153.2	35260.6
922.7968	1898.9786	36049.5	35152.65
922.9359	1900.6118	36022.85	35133.3
923.075	1902.2443	35817.6	34923.95
923.214	1903.8761	35678.8	34786.75
923.3531	1905.5071	35483.7	34589.75
923.4921	1907.1374	35413.95	34520.6
923.6311	1908.7669	35326.1	34434.75
923.77	1910.3957	35214.15	34321.55
923.909	1912.0237	35025.45	34133.05
924.0479	1913.651	34952.7	34058.95
924.1868	1915.2776	34836.35	33944.95
924.3257	1916.9034	34662.85	33773
924.4646	1918.5285	34505.75	33615.4
924.6034	1920.1528	34309.45	33415.55
924.7422	1921.7764	34294.65	33403.2
924.881	1923.3992	34202.65	33310.9
925.0198	1925.0213	33931.4	33039.6
925.1586	1926.6427	33719.8	32829.45
925.2973	1928.2633	33739.05	32737.45
925.436	1929.8832	33605.6	32710.8
925.5747	1931.5023	33409.4	32518.65
925.7134	1933.1207	33364	32471.65
925.852	1934.7383	33309.95	32417.55
925.9906	1936.3552	33139.7	32248.4
926.1292	1937.9714	33017.2	32125.2
926.2678	1939.5868	32869	31975.6
926.4064	1941.2015	32687.8	31797.4
926.5449	1942.8154	32595.4	31702.8
926.6834	1944.4286	32405.7	31514
926.8219	1946.041	32286.2	31376
926.9604	1947.6528	32102.45	31204.7
927.0988	1949.2637	32011.7	31120.65
927.2372	1950.8739	31901.45	31008.35
927.3756	1952.4834	31864.4	30970.35
927.514	1954.0921	31775	30882.45
927.6523	1955.7001	31675.6	30779.3
927.7907	1957.3074	31505.2	30614.3
927.929	1958.9139	31343.4	30453.3
928.0673	1960.5197	31278.55	30385.9
928.2055	1962.1247	31127	30234.3
928.3438	1963.729	30962.55	30072.45
928.482	1965.3325	30860.15	29946.5
928.6202	1966.9353	30742.55	29851.8
928.7584	1968.5374	30614.5	29723.1
928.8965	1970.1387	30514.85	29623.15
929.0346	1971.7393	30420.55	29529
929.1727	1973.3392	30311.45	29420.95
929.3108	1974.9383	30178	29288.45
929.4489	1976.5366	30089.5	29197.45
929.5869	1978.1342	30059.35	29166.2
929.7249	1979.7311	29970.25	29077.3
929.8629	1981.3273	29869.5	28978.25
930.0009	1982.9227	29721.4	28826.5
930.1388	1984.5173	29617.05	28727.95
930.2767	1986.1112	29416.4	28525.8
930.4146	1987.7044	29379.6	28489.05
930.5525	1989.2968	29317.35	28426.3
930.6904	1990.8885	29222.7	28326.85
930.8282	1992.4795	29136.35	28243.05
930.966	1994.0697	28970.75	28078.85
931.1038	1995.6592	28866.6	27976.1
931.2415	1997.2479	28796.05	27903.3
931.3793	1998.8359	28715.75	27824.2
931.517	2000.4232	28526.3	27635.55
931.6547	2002.0097	28439.6	27549.6
931.7923	2003.5955	28304.7	27414.15
931.93	2005.1805	28277.1	27384.8
932.0676	2006.7648	28190.35	27299.35
932.2052	2008.3484	28029.9	27137.1
932.3427	2009.9312	28073.35	27179.3
932.4803	2011.5133	27936.5	27045.25
932.6178	2013.0946	27865.25	26976.55
932.7553	2014.6752	27743.9	26853.55
932.8928	2016.2551	27677.9	26786.75
933.0302	2017.8342	27538.55	26648.2
933.1676	2019.4126	27443.95	26554.3
933.305	2020.9902	27301.05	26411.25
933.4424	2022.5672	27282.7	26390.25
933.5798	2024.1433	27204.15	26309.7
933.7171	2025.7188	27057.8	26168
933.8544	2027.2935	27005.7	26112.35
933.9917	2028.8674	26887.8	25998.25
934.129	2030.4406	26783.1	25893.6
934.2662	2032.0131	26658.5	25770.15
934.4034	2033.5849	26551.25	25655.25
934.5406	2035.1559	26548.8	25656.55
934.6778	2036.7261	26494.25	25604.8
934.8149	2038.2957	26377	25485.85
934.952	2039.8645	26298.65	25409
935.0891	2041.4325	26280.7	25386
935.2262	2042.9998	26161.35	25271.45
935.3632	2044.5664	26129.55	25236.05
935.5002	2046.1323	26016.8	25126.45
935.6372	2047.6974	25912.4	25021.55
935.7742	2049.2617	25851.45	24962.55
935.9111	2050.8254	25789.3	24876.85
936.048	2052.3883	25731.6	24839.05
936.1849	2053.9504	25642	24749.95
936.3218	2055.5118	25534.05	24641.55
936.4586	2057.0725	25429.9	24534.25
936.5955	2058.6325	25378.45	24486.6
936.7323	2060.1917	25267.5	24377.4
936.869	2061.7502	25234.15	24339.5
937.0058	2063.3079	25076.7	24184.75
937.1425	2064.8649	25000.1	24106.7
937.2792	2066.4212	24957.3	24064.45
937.4159	2067.9767	24896.45	24007.05
937.5525	2069.5315	24789.6	23898.25
937.6891	2071.0856	24627.35	23734.95
937.8257	2072.6389	24539	23647.4
937.9623	2074.1915	24422.8	23534.1
938.0989	2075.7433	24284.65	23394.1
938.2354	2077.2945	24259.7	23369.85
938.3719	2078.8448	24206.75	23316.2
938.5084	2080.3945	24063.9	23173.7
938.6448	2081.9434	24049.2	23158.45
938.7812	2083.4916	23932.1	23040.25
938.9176	2085.039	23853.3	22961.35
939.054	2086.5857	23795.2	22900.85
939.1903	2088.1317	23715.35	22824.2
939.3267	2089.677	23625.5	22734
939.463	2091.2215	23552.55	22661.95
939.5992	2092.7652	23486.1	22593.25
939.7355	2094.3083	23449.3	22556.85
939.8717	2095.8506	23401.35	22509.6
940.0079	2097.3921	23324	22433.15
940.1441	2098.933	23260.55	22371
940.2802	2100.4731	23163.2	22272.65
940.4163	2102.0124	23160.1	22259.95
940.5524	2103.5511	23113.8	22223.2
940.6885	2105.089	23053.5	22161.2
940.8245	2106.6261	22955.15	22064.05
940.9606	2108.1626	22913.95	22021.8
941.0965	2109.6983	22859.4	21939.3
941.2325	2111.2332	22729.9	21838.6
941.3684	2112.7675	22688.05	21796.45
941.5044	2114.301	22593.65	21701.4
941.6403	2115.8337	22567.6	21675.45
941.7761	2117.3657	22458.15	21566.9
941.912	2118.897	22445.05	21553.65
942.0478	2120.4276	22362	21465.5
942.1835	2121.9575	22212.1	21318.45
942.3193	2123.4866	22272	21368.1
942.455	2125.0149	22144.25	21249.6
942.5907	2126.5426	22061.75	21171.05
942.7264	2128.0695	21955.25	21060.45
942.8621	2129.5956	21911.25	21022.4
942.9977	2131.1211	21872.7	20979
943.1333	2132.6458	21772.15	20881.75
943.2689	2134.1698	21731.8	20839.55
943.4044	2135.693	21686.1	20792.3
943.54	2137.2155	21643.15	20748.65
943.6755	2138.7373	21568.65	20678.05
943.8109	2140.2584	21479.15	20588.8
943.9464	2141.7787	21377.5	20480.05
944.0818	2143.2983	21263.75	20376.05
944.2172	2144.8171	21173.45	20283.3
944.3526	2146.3353	21124.25	20231.2
944.4879	2147.8527	21044.05	20153.25
944.6232	2149.3693	21003.3	20111.8
944.7585	2150.8853	20974.2	20082.7
944.8938	2152.4005	20818.7	19927.4
945.029	2153.9149	20819.05	19928.5
945.1642	2155.4287	20722.4	19831.2
945.2994	2156.9417	20642.8	19750.55
945.4346	2158.454	20580.7	19687
945.5697	2159.9655	20539.2	19650.25
945.7048	2161.4764	20533.05	19642.35
945.8399	2162.9865	20458.55	19566.85
945.9749	2164.4958	20354.75	19461.65
946.1099	2166.0045	20284.9	19391.4
946.2449	2167.5124	20315.95	19425.55
946.3799	2169.0195	20203.65	19312.5
946.5148	2170.526	20161.45	19268.3
946.6498	2172.0317	20075.45	19183.85
946.7846	2173.5367	20049.85	19158.5
946.9195	2175.0409	19964.9	19074.8
947.0543	2176.5445	19935.25	19044.05
947.1891	2178.0473	19837.4	18945.35
947.3239	2179.5494	19748.7	18853.3
947.4587	2181.0507	19669.1	18776.75
947.5934	2182.5513	19582.6	18690.9
947.7281	2184.0512	19558.95	18667.95
947.8628	2185.5504	19497.25	18605.75
947.9974	2187.0488	19374.1	18483.5
948.132	2188.5465	19339.65	18447.7
948.2666	2190.0435	19245.85	18354.55
948.4012	2191.5397	19196.65	18304.35
948.5357	2193.0353	19147.75	18257.35
948.6702	2194.5301	19011.5	18118.4
948.8047	2196.0241	18961.3	18067.25
948.9392	2197.5175	18894.85	18003.6
949.0736	2199.0101	18828.15	17933.1
949.208	2200.502	18736.55	17846.8
949.3424	2201.9931	18665.2	17773.1
949.4767	2203.4835	18575.25	17683.8
949.611	2204.9733	18517.5	17620.9
949.7453	2206.4622	18489.2	17599.05
949.8796	2207.9505	18407.8	17515.5
950.0138	2209.438	18323.6	17435.45
950.148	2210.9248	18278.2	17384.2
950.2822	2212.4109	18204	17313.05
950.4164	2213.8962	18142.5	17247.85
950.5505	2215.3809	18071.25	17178.75
950.6846	2216.8648	18025.8	17133.9
950.8186	2218.3479	17962.45	17068.15
950.9527	2219.8304	17919.85	17025.95
951.0867	2221.3121	17827.65	16932.95
951.2207	2222.7931	17737.5	16847.85
951.3546	2224.2733	17700.75	16809.2
951.4886	2225.7529	17644.55	16754.05
951.6225	2227.2317	17571.15	16676.5
951.7563	2228.7098	17563.35	16672.25
951.8902	2230.1872	17423.9	16534.15
952.024	2231.6638	17418.2	16527.4
952.1578	2233.1397	17307.15	16410.8
952.2916	2234.6149	17276.05	16385
952.4253	2236.0894	17200.55	16308.95
952.559	2237.5632	17183	16282.5
952.6927	2239.0362	17075.95	16184.3
952.8263	2240.5085	17034.3	16142.1
952.9599	2241.9801	16977.7	16087.05
953.0935	2243.4509	16890.9	15999.05
953.2271	2244.921	16846.3	15954.2
953.3606	2246.3904	16789.2	15896.2
953.4941	2247.8591	16730.3	15837.85
953.6276	2249.3271	16685.3	15793.55
953.7611	2250.7943	16607.4	15715.8
953.8945	2252.2608	16543.3	15651.85
954.0279	2253.7266	16508.05	15617.4
954.1612	2255.1917	16479.85	15586
954.2946	2256.656	16391.6	15500.25
954.4279	2258.1197	16321.75	15431.85
954.5612	2259.5826	16280.05	15387.9
954.6944	2261.0447	16277.2	15383.95
954.8276	2262.5062	16161	15267.15
954.9608	2263.9669	16149	15256.1
955.094	2265.4269	16120.65	15229.6
955.2271	2266.8862	16038.25	15147.5
955.3602	2268.3448	16001.9	15110.2
955.4933	2269.8026	15965.05	15072.2
955.6264	2271.2598	15912	15019.65
955.7594	2272.7162	15853.65	14962.5
955.8924	2274.1719	15803.45	14911.45
956.0253	2275.6268	15716.9	14825.8
956.1583	2277.0811	15701.55	14809.7
956.2912	2278.5346	15646.85	14756.3
956.4241	2279.9874	15611.15	14720.3
956.5569	2281.4395	15583.75	14692
956.6897	2282.8908	15481.1	14586.25
956.8225	2284.3414	15470.9	14577
956.9553	2285.7914	15424.2	14533
957.088	2287.2406	15347.55	14455.1
957.2207	2288.689	15302.95	14411.65
957.3534	2290.1368	15283.8	14389.65
957.486	2291.5838	15204.6	14311.45
957.6186	2293.0302	15177.35	14285.55
957.7512	2294.4758	15122.7	14229.35
957.8838	2295.9206	15014	14118.85
958.0163	2297.3648	15034.85	14142.9
958.1488	2298.8082	14986.2	14094.6
958.2813	2300.251	14921.3	14028.05
958.4137	2301.693	14851.9	13958.75
958.5461	2303.1343	14846.1	13954.9
958.6785	2304.5748	14798.35	13906.8
958.8108	2306.0147	14743.7	13852.15
958.9432	2307.4538	14669.95	13774.55
959.0754	2308.8922	14636.15	13747.15
959.2077	2310.3299	14562.95	13671.75
959.3399	2311.7669	14547.6	13656
959.4721	2313.2031	14507.45	13614.9
959.6043	2314.6387	14421.1	13529.15
959.7365	2316.0735	14384.2	13492.2
959.8686	2317.5076	14305.8	13413.3
960.0006	2318.941	14301.15	13409.05
960.1327	2320.3737	14246.1	13352.85
960.2647	2321.8056	14203.75	13308.75
960.3967	2323.2369	14152.7	13258.95
960.5287	2324.6674	14111.85	13218.75
960.6606	2326.0972	14062.65	13170.2
960.7925	2327.5263	13992.1	13100.55
960.9244	2328.9547	13972.05	13080.6
961.0562	2330.3823	13909.35	13016.25
961.1881	2331.8092	13877.35	12983.6
961.3198	2333.2355	13778	12885.8
961.4516	2334.661	13800.5	12907.95
961.5833	2336.0858	13762.55	12868.85
961.715	2337.5098	13712.7	12819.9
961.8467	2338.9332	13724.85	12833.6
961.9783	2340.3558	13643.45	12748.55
962.1099	2341.7778	13575.95	12683.7
962.2415	2343.199	13534.15	12641.2
962.373	2344.6195	13484.65	12590.85
962.5045	2346.0393	13455.75	12565.3
962.636	2347.4583	13436.6	12543.65
962.7675	2348.8767	13399.3	12509.2
962.8989	2350.2943	13363.45	12471.85
963.0303	2351.7113	13335.85	12443
963.1617	2353.1275	13264.35	12372.35
963.293	2354.543	13208	12291.35
963.4243	2355.9578	13177.2	12284.6
963.5556	2357.3718	13080.9	12190.15
963.6868	2358.7852	13029.55	12137.35
963.818	2360.1978	12971.45	12079.6
963.9492	2361.6098	12929.75	12041.15
964.0803	2363.021	12908.85	12013.4
964.2114	2364.4315	12829.55	11938.7
964.3425	2365.8413	12800.45	11906.75
964.4736	2367.2504	12765.65	11873.65
964.6046	2368.6587	12683.25	11790.8
964.7356	2370.0664	12618.65	11724.45
964.8666	2371.4733	12640.2	11748.75
964.9975	2372.8795	12551.7	11662.25
965.1284	2374.285	12507.45	11616.25
965.2593	2375.6899	12443.7	11552.3
965.3901	2377.0939	12398.35	11506.85
965.5209	2378.4973	12329.3	11438.8
965.6517	2379.9	12303.8	11410.75
965.7825	2381.3019	12273.15	11382.55
965.9132	2382.7032	12224.85	11334.4
966.0439	2384.1037	12179.8	11291.25
966.1745	2385.5035	12149.4	11259.35
966.3051	2386.9027	12074.85	11184.25
966.4357	2388.3011	12051.35	11156.8
966.5663	2389.6987	12014.3	11123.7
966.6968	2391.0957	11968.9	11078.25
966.8273	2392.492	11926.6	11037.5
966.9578	2393.8876	11834.85	10944.6
967.0882	2395.2824	11802.85	10912.45
967.2186	2396.6765	11757.95	10869.2
967.349	2398.07	11692.25	10801.4
967.4793	2399.4627	11685.95	10794.5
967.6097	2400.8547	11620.6	10728.85
967.7399	2402.246	11580.8	10685.25
967.8702	2403.6366	11511.1	10618.35
968.0004	2405.0265	11484.8	10594.7
968.1306	2406.4156	11444.5	10550.9
968.2607	2407.8041	11397.5	10501.85
968.3909	2409.1918	11340.7	10449.8
968.521	2410.5789	11319.65	10429.75
968.651	2411.9652	11254.45	10360
968.781	2413.3508	11221.9	10329.95
968.911	2414.7358	11163.05	10270.65
969.041	2416.12	11111.15	10223.1
969.1709	2417.5035	11085.3	10197.25
969.3008	2418.8863	11067.45	10176.3
969.4307	2420.2684	11015.3	10124.9
969.5606	2421.6497	10967.05	10076.4
969.6904	2423.0304	10904.6	10014.65
969.8201	2424.4104	10866	9976.6
969.9499	2425.7896	10837.9	9940
970.0796	2427.1682	10815.25	9924.55
970.2093	2428.546	10786.5	9895.4
970.3389	2429.9232	10722.15	9828.3
970.4685	2431.2996	10712.25	9822.15
970.5981	2432.6753	10679.95	9789.35
970.7277	2434.0503	10649.6	9757.65
970.8572	2435.4246	10592.1	9701.75
970.9867	2436.7982	10568.8	9677
971.1161	2438.1711	10539.45	9648.55
971.2456	2439.5433	10504.25	9612.6
971.375	2440.9148	10464.65	9571.05
971.5043	2442.2856	10417.15	9526.35
971.6336	2443.6557	10392.95	9499.75
971.7629	2445.025	10355.55	9467.05
971.8922	2446.3937	10329.15	9437.9
972.0214	2447.7617	10276.45	9385.05
972.1506	2449.1289	10242.2	9351.85
972.2798	2450.4955	10215.75	9320.4
972.4089	2451.8613	10171.9	9280.1
972.538	2453.2265	10156.95	9267.8
972.6671	2454.5909	10121	9229.05
972.7961	2455.9546	10097.8	9207.2
972.9251	2457.3177	10047.6	9156.7
973.0541	2458.68	10027.7	9135.4
973.1831	2460.0416	10032.65	9142.5
973.312	2461.4025	10018.65	9126.85
973.4408	2462.7627	9966.9	9065.25
973.5697	2464.1222	9930.55	9038.9
973.6985	2465.4811	9924.95	9031.95
973.8273	2466.8392	9862.25	8971.05
973.956	2468.1966	9833.35	8939.85
974.0847	2469.5533	9819.5	8926
974.2134	2470.9093	9776.1	8883.1
974.3421	2472.2645	9740.15	8848.4
974.4707	2473.6191	9708.5	8817.1
974.5993	2474.973	9693.9	8802.15
974.7278	2476.3262	9652.55	8758.05
974.8563	2477.6787	9588	8698.95
974.9848	2479.0305	9558.4	8667.9
975.1132	2480.3816	9532.95	8639.55
975.2417	2481.7319	9503	8610.45
975.37	2483.0816	9463.45	8571
975.4984	2484.4306	9445.55	8553.8
975.6267	2485.7789	9385.05	8493.65
975.755	2487.1264	9346.5	8451.75
975.8833	2488.4733	9315.7	8425.25
976.0115	2489.8195	9267.1	8368.95
976.1397	2491.165	9233.85	8340.95
976.2678	2492.5097	9208.65	8315.1
976.3959	2493.8538	9156.05	8265.55
976.524	2495.1972	9138.95	8246.8
976.6521	2496.5398	9095.35	8203.15
976.7801	2497.8818	9088.5	8196.9
976.9081	2499.2231	9044.1	8152.85
977.036	2500.5637	9024.2	8133.15
977.164	2501.9035	8974.9	8081.7
977.2918	2503.2427	8951	8056.8
977.4197	2504.5812	8894.6	8002.4
977.5475	2505.919	8871.75	7978
977.6753	2507.256	8855.95	7964.15
977.8031	2508.5924	8821.9	7932.9
977.9308	2509.9281	8778.1	7880.2
978.0585	2511.2631	8769.7	7879.25
978.1861	2512.5974	8736.85	7847.05
978.3137	2513.9309	8704.45	7811.9
978.4413	2515.2638	8682	7755.35
978.5689	2516.596	8668.95	7778.3
978.6964	2517.9275	8593.5	7701.6
978.8239	2519.2583	8588.7	7695.5
978.9513	2520.5884	8531.5	7637.65
979.0788	2521.9178	8503.15	7611.25
979.2062	2523.2465	8474.75	7584.65
979.3335	2524.5745	8442.45	7553.4
979.4608	2525.9018	8427.2	7534.5
979.5881	2527.2284	8411.85	7521.5
979.7154	2528.5543	8361	7471.25
979.8426	2529.8796	8362.1	7470.35
979.9698	2531.2041	8333.4	7441.85
980.0969	2532.5279	8307.9	7417.85
980.224	2533.851	8285.45	7393.85
980.3511	2535.1735	8255.75	7366.55
980.4781	2536.4952	8245.25	7354.1
980.6052	2537.8163	8230.5	7338.3
980.7321	2539.1366	8176.8	7285.85
980.8591	2540.4562	8144.65	7251.5
980.986	2541.7752	8158.75	7267.85
981.1129	2543.0935	8145.85	7255.9
981.2397	2544.411	8119.95	7228.5
981.3665	2545.7279	8097.15	7206.2
981.4933	2547.0441	8085.55	7196.05
981.62	2548.3596	8063.8	7169.9
981.7467	2549.6744	8029.05	7136.85
981.8734	2550.9885	7969.65	7076.5
982.0001	2552.3019	7975.7	7084.85
982.1267	2553.6146	7943.7	7051.45
982.2532	2554.9266	7911.95	7021.05
982.3798	2556.2379	7894.95	7001.85
982.5063	2557.5485	7902.4	7011.85
982.6327	2558.8585	7872.15	6974.45
982.7592	2560.1677	7873.35	6978.3
982.8856	2561.4762	7837.65	6944.6
983.0119	2562.7841	7815.6	6918.85
983.1383	2564.0913	7811	6920.45
983.2646	2565.3977	7790.65	6900.95
983.3908	2566.7035	7750.8	6860.3
983.517	2568.0086	7732.05	6840.35
983.6432	2569.313	7721.45	6830.2
983.7694	2570.6167	7694.5	6797.85
983.8955	2571.9197	7656.05	6766.4
984.0216	2573.222	7673.35	6779.05
984.1476	2574.5236	7632.45	6739.95
984.2737	2575.8246	7620.35	6724.5
984.3996	2577.1248	7615.45	6720.1
984.5256	2578.4244	7586.5	6695.35
984.6515	2579.7232	7592.7	6700.5
984.7774	2581.0214	7587.45	6672.25
984.9032	2582.3189	7551.55	6660.95
985.029	2583.6157	7531	6636.85
985.1548	2584.9118	7513.2	6621
985.2806	2586.2072	7488.05	6597.85
985.4063	2587.5019	7470.7	6579.45
985.5319	2588.7959	7467.9	6576.5
985.6576	2590.0893	7435	6540.7
985.7832	2591.3819	7409.1	6517.5
985.9087	2592.6739	7377.9	6487.6
986.0343	2593.9652	7364.65	6472.05
986.1597	2595.2557	7342.45	6452.6
986.2852	2596.5456	7324.3	6431.2
986.4106	2597.8348	7283.05	6393.3
986.536	2599.1234	7252.5	6363.05
986.6614	2600.4112	7244.45	6353.9
986.7867	2601.6983	7226.8	6331.55
986.912	2602.9848	7187.6	6294.6
987.0372	2604.2705	7182.4	6283.15
987.1624	2605.5556	7154.75	6263.35
987.2876	2606.84	7117.4	6226.7
987.4128	2608.1237	7088.65	6196.7
987.5379	2609.4067	7042.2	6152.15
987.6629	2610.689	7040.95	6141.9
987.788	2611.9707	6997.2	6101.7
987.913	2613.2516	6989.95	6094.35
988.0379	2614.5319	6940.25	6048.8
988.1629	2615.8115	6928.5	6038.35
988.2878	2617.0903	6914.3	6022.3
988.4126	2618.3685	6880.05	5989
988.5375	2619.6461	6833.2	5941.65
988.6622	2620.9229	6823.95	5931.95
988.787	2622.199	6809	5917.35
988.9117	2623.4745	6802.6	5909.05
989.0364	2624.7493	6770.2	5880.6
989.161	2626.0234	6764.95	5873.7
989.2857	2627.2968	6727.55	5835
989.4102	2628.5695	6694.75	5802.15
989.5348	2629.8415	6669	5778.9
989.6593	2631.1128	6631.5	5739.55
989.7837	2632.3835	6626.25	5734.1
989.9082	2633.6535	6579.8	5689.05
990.0326	2634.9228	6571.25	5679.3
990.1569	2636.1914	6571.3	5680.15
990.2812	2637.4593	6527.4	5630.65
990.4055	2638.7265	6508.5	5616.55
990.5298	2639.9931	6478.5	5588.15
990.654	2641.259	6469.8	5578
990.7782	2642.5242	6433.85	5540.1
990.9023	2643.7887	6420.4	5529.75
991.0264	2645.0525	6428.35	5537.5
991.1505	2646.3156	6401.3	5510.4
991.2745	2647.5781	6353.95	5465.45
991.3985	2648.8398	6348.85	5459
991.5225	2650.1009	6330.8	5430.35
991.6464	2651.3613	6303.4	5411
991.7703	2652.6211	6290.35	5399.95
991.8942	2653.8801	6269.4	5377.15
992.018	2655.1385	6256.85	5362.2
992.1418	2656.3961	6235.4	5343.9
992.2655	2657.6531	6224.65	5333.3
992.3892	2658.9094	6197.2	5305
992.5129	2660.1651	6197.45	5305.95
992.6366	2661.42	6177.95	5286.55
992.7602	2662.6743	6185.25	5293
992.8837	2663.9279	6151	5261
993.0073	2665.1808	6155.4	5262.1
993.1307	2666.433	6123.15	5231.75
993.2542	2667.6846	6095.8	5203.8
993.3776	2668.9354	6102.3	5207.25
993.501	2670.1856	6074.1	5183.9
993.6244	2671.4351	6073.05	5182.8
993.7477	2672.6839	6040.85	5147.85
993.8709	2673.9321	6017.9	5125.75
993.9942	2675.1795	5984.5	5092.9
994.1174	2676.4263	5985.25	5095.75
994.2405	2677.6724	5976.55	5085.2
994.3637	2678.9179	5969.35	5077.75
994.4868	2680.1626	5941.55	5051.8
994.6098	2681.4067	5930.3	5038.5
994.7328	2682.6501	5904.8	5013.3
994.8558	2683.8928	5889.9	4998.7
994.9788	2685.1348	5854.3	4965.45
995.1017	2686.3761	5821.7	4930.3
995.2245	2687.6168	5823.05	4932.85
995.3474	2688.8568	5801.65	4911.7
995.4702	2690.0961	5778.7	4887.6
995.5929	2691.3348	5753.5	4859.9
995.7156	2692.5727	5744.1	4850.2
995.8383	2693.81	5724.3	4831.65
995.961	2695.0466	5712.95	4823.35
996.0836	2696.2826	5697.95	4805.35
996.2062	2697.5178	5699.9	4806.75
996.3287	2698.7524	5652.65	4762.35
996.4512	2699.9863	5658.85	4764.9
996.5737	2701.2195	5625.65	4735.2
996.6961	2702.452	5617.8	4724.7
996.8185	2703.6839	5582.55	4689.7
996.9408	2704.9151	5581.85	4692
997.0631	2706.1456	5560.35	4669.55
997.1854	2707.3755	5545.25	4652.25
997.3077	2708.6046	5559.6	4665.7
997.4299	2709.8331	5542.65	4650.5
997.552	2711.0609	5524.5	4631.05
997.6742	2712.2881	5507.85	4617.35
997.7963	2713.5145	5519.9	4628.1
997.9183	2714.7403	5497.15	4605.15
998.0403	2715.9654	5487.55	4595.4
998.1623	2717.1899	5484.05	4578.25
998.2842	2718.4136	5463.25	4573.15
998.4062	2719.6367	5464.3	4574.4
998.528	2720.8591	5469.8	4572.9
998.6498	2722.0809	5429.25	4537.2
998.7716	2723.3019	5440.25	4547.3
998.8934	2724.5223	5430.5	4538.45
999.0151	2725.7421	5417.45	4524.6
999.1368	2726.9611	5399.8	4506.8
999.2584	2728.1795	5368.95	4472.75
999.38	2729.3972	5363.7	4474.4
999.5016	2730.6142	5345.15	4444.95
999.6231	2731.8306	5293.75	4401.55
999.7446	2733.0462	5268.45	4375.8
999.8661	2734.2612	5222.6	4327.3
999.9875	2735.4756	5186.25	4292.3
1000.1089	2736.6892	5153.5	4261.05
1000.2302	2737.9022	5114.15	4225.2
1000.3515	2739.1145	5100.65	4210.45
1000.4728	2740.3262	5070.3	4172.4
1000.594	2741.5372	5038.55	4147.05
1000.7152	2742.7475	5004.85	4111.25
1000.8363	2743.9571	5008	4115.05
1000.9575	2745.1661	4985.65	4093
1001.0785	2746.3744	4963.45	4071.05
1001.1996	2747.582	4947.7	4057.95
1001.3206	2748.7889	4925.25	4032.4
1001.4415	2749.9952	4903.65	4012.85
1001.5625	2751.2008	4881.55	3989.95
1001.6833	2752.4057	4853.8	3959.7
1001.8042	2753.61	4860.4	3968.9
1001.925	2754.8136	4835.7	3941.35
1002.0458	2756.0165	4818.8	3928.3
1002.1665	2757.2188	4804.05	3915.8
1002.2872	2758.4204	4783.4	3891
1002.4078	2759.6213	4761.05	3866.35
1002.5285	2760.8215	4754.3	3858.55
1002.649	2762.0211	4727.55	3832.8
1002.7696	2763.22	4720.95	3825.15
1002.8901	2764.4182	4708.3	3814.7
1003.0106	2765.6158	4713.05	3823.7
1003.131	2766.8127	4679.95	3787.55
1003.2514	2768.009	4647	3755.25
1003.3717	2769.2045	4631.35	3739.6
1003.492	2770.3994	4639.35	3746.25
1003.6123	2771.5936	4616.7	3725.1
1003.7325	2772.7872	4590.4	3701.25
1003.8527	2773.9801	4576.55	3682.3
1003.9729	2775.1723	4577.7	3669
1004.093	2776.3639	4550.45	3657.7
1004.2131	2777.5548	4532.9	3639.8
1004.3331	2778.745	4543.9	3652.05
1004.4531	2779.9346	4522.95	3632.15
1004.5731	2781.1235	4496.85	3606.6
1004.693	2782.3117	4509.9	3619.6
1004.8129	2783.4992	4500	3610.75
1004.9328	2784.6861	4467.8	3578.25
1005.0526	2785.8723	4469.65	3575.3
1005.1723	2787.0579	4458.8	3567.4
1005.2921	2788.2428	4459.8	3568.15
1005.4118	2789.427	4442.45	3553.5
1005.5314	2790.6106	4435.05	3543.45
1005.651	2791.7935	4425.9	3533.65
1005.7706	2792.9757	4432.95	3545.2
1005.8902	2794.1573	4424.1	3531.45
1006.0097	2795.3382	4423.3	3532.4
1006.1291	2796.5184	4426.35	3538.7
1006.2485	2797.698	4429.25	3535.75
1006.3679	2798.8769	4430.4	3539.6
1006.4873	2800.0551	4437.55	3544.45
1006.6066	2801.2327	4441.5	3547.25
1006.7258	2802.4096	4450.95	3560.65
1006.8451	2803.5859	4449.7	3558.1
1006.9642	2804.7615	4447.85	3556.45
1007.0834	2805.9364	4467.85	3577.55
1007.2025	2807.1106	4490.35	3600.85
1007.3216	2808.2842	4511.4	3618.65
1007.4406	2809.4572	4506.85	3615.45
1007.5596	2810.6294	4541.25	3648.95
1007.6785	2811.801	4587.85	3697.55
1007.7975	2812.972	4610	3718.85
1007.9163	2814.1423	4642.45	3752.55
1008.0352	2815.3119	4670.1	3777.8
1008.154	2816.4808	4716.25	3825.1
1008.2727	2817.6491	4750.1	3859.05
1008.3914	2818.8167	4798.15	3908
1008.5101	2819.9837	4837	3943.35
1008.6288	2821.15	4860.85	3969.1
1008.7474	2822.3157	4888.45	3997.35
1008.8659	2823.4807	4920.5	4028.75
1008.9844	2824.645	4959.6	4067.15
1009.1029	2825.8086	5005.05	4114.3
1009.2214	2826.9716	5025	4133.45
1009.3398	2828.134	5059.35	4168.5
1009.4581	2829.2957	5088.1	4196.8
1009.5764	2830.4567	5108.2	4218.65
1009.6947	2831.617	5111.45	4221.55
1009.813	2832.7767	5110	4219.55
1009.9312	2833.9358	5113.45	4223.75
1010.0493	2835.0941	5106.6	4213.7
1010.1675	2836.2519	5074.95	4183.9
1010.2855	2837.4089	5067.8	4175.85
1010.4036	2838.5653	5054.9	4164.5
1010.5216	2839.7211	5038.9	4148.85
1010.6396	2840.8761	5044.7	4152.95
1010.7575	2842.0306	5063.35	4174.1
1010.8754	2843.1843	5091.1	4199.2
1010.9932	2844.3374	5138.75	4249.25
1011.111	2845.4899	5187.7	4294.2
1011.2288	2846.6417	5244.35	4354.4
1011.3465	2847.7928	5319.9	4429.4
1011.4642	2848.9433	5376.7	4486.85
1011.5818	2850.0931	5454.9	4564.5
1011.6995	2851.2422	5516.45	4623
1011.817	2852.3907	5607.55	4716.65
1011.9345	2853.5385	5661.1	4768
1012.052	2854.6857	5724.5	4806.25
1012.1695	2855.8323	5735.25	4845.25
1012.2869	2856.9781	5766.95	4877.05
1012.4042	2858.1233	5811.85	4922.05
1012.5216	2859.2679	5840.45	4948.95
1012.6389	2860.4118	5884.3	4991.05
1012.7561	2861.555	5914.3	5017.35
1012.8733	2862.6976	5926.45	5031.7
1012.9905	2863.8395	5957	5065.35
1013.1076	2864.9808	5973.4	5084.5
1013.2247	2866.1214	5949.45	5058.65
1013.3417	2867.2614	5971.55	5081.5
1013.4587	2868.4007	5972.55	5080.7
1013.5757	2869.5393	5970	5077.95
1013.6926	2870.6773	5972.2	5077.7
1013.8095	2871.8146	5975.9	5082.85
1013.9263	2872.9513	5970.35	5077.45
1014.0431	2874.0874	5948.35	5057.7
1014.1599	2875.2227	5926.6	5036.9
1014.2766	2876.3574	5894	5001.75
1014.3933	2877.4915	5875.75	4985.55
1014.51	2878.6249	5833.9	4943.75
1014.6266	2879.7577	5816.25	4926
1014.7431	2880.8898	5797.6	4897
1014.8596	2882.0212	5744	4852.95
1014.9761	2883.152	5731.2	4840.1
1015.0925	2884.2821	5707.15	4817.75
1015.2089	2885.4116	5683.95	4795.3
1015.3253	2886.5405	5675.05	4783.75
1015.4416	2887.6686	5653.05	4758.55
1015.5579	2888.7962	5646.85	4755.1
1015.6741	2889.923	5668.4	4778.95
1015.7903	2891.0493	5673.55	4784.3
1015.9065	2892.1748	5679.6	4789.35
1016.0226	2893.2997	5664.55	4775.15
1016.1387	2894.424	5671.45	4782.05
1016.2547	2895.5476	5699.9	4809.5
1016.3707	2896.6706	5698.65	4808.65
1016.4866	2897.7929	5710.8	4819.1
1016.6025	2898.9145	5748.5	4856.55
1016.7184	2900.0355	5752.25	4860.4
1016.8342	2901.1559	5782.85	4893.75
1016.95	2902.2756	5808	4912.5
1017.0658	2903.3946	5823.6	4935.8
1017.1815	2904.513	5835.2	4942.75
1017.2971	2905.6308	5876.35	4986.85
1017.4127	2906.7479	5877.15	4985.45
1017.5283	2907.8643	5894.25	5001.75
1017.6439	2908.9801	5890.9	5000.65
1017.7594	2910.0953	5920.55	5028.45
1017.8748	2911.2098	5887.05	4993.2
1017.9902	2912.3236	5882.5	4983.75
1018.1056	2913.4368	5849.1	4955.75
1018.2209	2914.5494	5815.15	4924.45
1018.3362	2915.6613	5784.8	4889.7
1018.4515	2916.7725	5750.4	4858.5
1018.5667	2917.8831	5729.55	4838.55
1018.6819	2918.9931	5686.2	4793.55
1018.797	2920.1024	5661.8	4770.45
1018.9121	2921.211	5607.3	4717.5
1019.0271	2922.319	5587.95	4695
1019.1421	2923.4264	5559.55	4668
1019.2571	2924.5331	5548.1	4659.05
1019.372	2925.6391	5519.65	4630.45
1019.4869	2926.7445	5521.35	4633.55
1019.6017	2927.8493	5492.7	4603.6
1019.7165	2928.9534	5478.05	4588.25
1019.8313	2930.0569	5457.95	4564.45
1019.946	2931.1597	5480.05	4586.4
1020.0606	2932.2619	5440.4	4549.8
1020.1753	2933.3634	5429	4538.3
1020.2899	2934.4643	5405.85	4507.7
1020.4044	2935.5645	5372.4	4475
1020.5189	2936.6641	5322.3	4425.7
1020.6334	2937.763	5277.3	4387.9
1020.7478	2938.8613	5211.75	4320.8
1020.8622	2939.959	5160.5	4263
1020.9765	2941.056	5077.4	4186.05
1021.0908	2942.1523	4979.45	4088.75
1021.2051	2943.248	4879.6	3990.3
1021.3193	2944.3431	4776.55	3885.5
1021.4334	2945.4375	4658.55	3767.05
1021.5476	2946.5313	4553.3	3663.9
1021.6617	2947.6244	4438.55	3548.5
1021.7757	2948.7169	4344.25	3452.8
1021.8897	2949.8087	4236.95	3344.9
1022.0037	2950.8999	4126.3	3234.4
1022.1176	2951.9904	4059	3170.25
1022.2315	2953.0803	3959.45	3068.9
1022.3453	2954.1696	3888.45	2997.8
1022.4591	2955.2582	3833	2942.95
1022.5728	2956.3462	3787.3	2897.75
1022.6865	2957.4335	3728.55	2836.6
1022.8002	2958.5202	3674.7	2780.85
1022.9138	2959.6062	3648.85	2758.55
1023.0274	2960.6916	3621.5	2730.5
1023.141	2961.7764	3590.15	2699.6
1023.2545	2962.8605	3573.25	2683.95
1023.3679	2963.9439	3549.3	2658
1023.4813	2965.0267	3531.55	2639.45
1023.5947	2966.1089	3543.9	2628
1023.708	2967.1905	3514.4	2625.45
1023.8213	2968.2714	3502.95	2613.15
1023.9346	2969.3516	3464.85	2574.6
1024.0478	2970.4312	3489.15	2590.75
1024.1609	2971.5102	3470.5	2580.25
1024.274	2972.5885	3466.5	2576.15
1024.3871	2973.6662	3474.65	2577.95
1024.5002	2974.7432	3444.35	2553.35
1024.6132	2975.8196	3444.5	2554.55
1024.7261	2976.8954	3418.05	2528.15
1024.839	2977.9705	3402.9	2511.45
1024.9519	2979.045	3377.6	2488.8
1025.0647	2980.1188	3355.25	2464.75
1025.1775	2981.192	3332.55	2444.95
1025.2902	2982.2645	3305.35	2412.75
1025.4029	2983.3364	3271.8	2381.1
1025.5156	2984.4077	3227.3	2336.95
1025.6282	2985.4783	3195.2	2298.5
1025.7407	2986.5483	3153.8	2264.85
1025.8532	2987.6177	3122.35	2232.7
1025.9657	2988.6864	3091.35	2201.75
1026.0782	2989.7545	3057.5	2167.55
1026.1906	2990.8219	3015.1	2124.75
1026.3029	2991.8887	2969.3	2077.2
1026.4152	2992.9548	2932.8	2040.7
1026.5275	2994.0204	2899.8	2010.05
1026.6397	2995.0852	2878.3	1988.8
1026.7519	2996.1495	2830.3	1939.65
1026.864	2997.2131	2795.15	1905.7
1026.9761	2998.276	2784.5	1894.25
1027.0882	2999.3383	2759.2	1869.8
1027.2002	3000.4	2726.85	1835.75
1027.3122	3001.4611	2710.4	1819.1
1027.4241	3002.5215	2689.6	1798.7
1027.536	3003.5812	2659.2	1770.6
1027.6478	3004.6404	2651.85	1760.25
1027.7596	3005.6989	2644.3	1752.75
1027.8714	3006.7567	2622.95	1733.2
1027.9831	3007.8139	2627.05	1716.55
1028.0947	3008.8705	2608.15	1716.9
1028.2064	3009.9264	2591.6	1697.9
1028.3179	3010.9818	2593.05	1702.35
1028.4295	3012.0364	2569.45	1680.05
1028.541	3013.0905	2567.3	1676.05
1028.6524	3014.1439	2550.4	1661.6
1028.7638	3015.1966	2553.9	1664.2
1028.8752	3016.2487	2558.65	1668.75
1028.9865	3017.3002	2546.3	1648.3
1029.0978	3018.3511	2536.8	1646
1029.209	3019.4013	2532.85	1642.6
1029.3202	3020.4509	2529.8	1640.45
1029.4314	3021.4998	2520.4	1630.55
1029.5425	3022.5481	2519.2	1629.35
1029.6535	3023.5958	2514.25	1625.5
1029.7645	3024.6428	2508.35	1616.2
1029.8755	3025.6892	2512.45	1622.55
1029.9864	3026.735	2513	1623.35
1030.0973	3027.7802	2495.9	1604.1
1030.2082	3028.8247	2494.5	1604.85
1030.319	3029.8685	2493.5	1603.85
1030.4297	3030.9118	2492.3	1602.65
1030.5404	3031.9544	2492.75	1604.85
1030.6511	3032.9963	2482.85	1592.6
1030.7617	3034.0376	2477.3	1587.85
1030.8723	3035.0783	2493.75	1599.75
1030.9829	3036.1184	2494.95	1601.9
1031.0934	3037.1578	2487.65	1595.15
1031.2038	3038.1966	2495	1602.95
1031.3142	3039.2348	2477.55	1589.2
1031.4246	3040.2723	2476.2	1577.95
1031.5349	3041.3092	2460.45	1570.15
1031.6452	3042.3455	2463.5	1574.05
1031.7554	3043.3811	2448.25	1557
1031.8656	3044.4161	2435.2	1543.65
1031.9758	3045.4505	2437.45	1550.3
1032.0859	3046.4842	2419.95	1528.3
1032.1959	3047.5173	2404.4	1514.55
1032.3059	3048.5498	2398.5	1507.05
1032.4159	3049.5816	2390.55	1499.45
1032.5258	3050.6128	2382.15	1491.55
1032.6357	3051.6434	2370.2	1476.7
1032.7455	3052.6734	2357.95	1467.35
1032.8553	3053.7027	2351.8	1462.15
1032.9651	3054.7314	2344.35	1455.4
1033.0748	3055.7594	2324.55	1437.05
1033.1845	3056.7868	2313.95	1422.9
1033.2941	3057.8136	2317	1428.05
1033.4037	3058.8398	2296.25	1405.5
1033.5132	3059.8653	2293.9	1402.85
1033.6227	3060.8902	2279.9	1388.9
1033.7321	3061.9145	2260.9	1368.9
1033.8415	3062.9381	2263	1374.1
1033.9509	3063.9612	2263.7	1359.65
1034.0602	3064.9835	2240.65	1349.5
1034.1694	3066.0053	2240.6	1350.4
1034.2787	3067.0264	2211.6	1323.3
1034.3878	3068.0469	2216	1324.95
1034.497	3069.0668	2197.1	1303.8
1034.6061	3070.086	2187.35	1298.1
1034.7151	3071.1046	2170.2	1279.85
1034.8241	3072.1226	2164.4	1273.75
1034.9331	3073.1399	2147.65	1259.15
1035.042	3074.1567	2141.3	1253.15
1035.1508	3075.1727	2124.75	1232.2
1035.2597	3076.1882	2109.8	1219.85
1035.3684	3077.203	2097.2	1207.6
1035.4772	3078.2173	2084.95	1193.25
1035.5859	3079.2308	2076.65	1183.1
1035.6945	3080.2438	2064.65	1171.95
1035.8031	3081.2561	2048.25	1159.2
1035.9117	3082.2678	2036.25	1145
1036.0202	3083.2789	2033.85	1144.45
1036.1286	3084.2893	2015.65	1126.4
1036.2371	3085.2991	2014.5	1124.8
1036.3454	3086.3083	2003.75	1108.95
1036.4538	3087.3169	1996.65	1104.85
1036.562	3088.3248	1984.55	1093
1036.6703	3089.3321	1978.3	1086.35
1036.7785	3090.3388	1961.8	1072.55
1036.8866	3091.3449	1955.5	1063.9
1036.9948	3092.3503	1957.8	1067.45
1037.1028	3093.3551	1943.9	1054.85
1037.2108	3094.3593	1950.5	1062
1037.3188	3095.3629	1935.5	1046.4
1037.4267	3096.3658	1924.9	1033.6
1037.5346	3097.3681	1913.75	1025.4
1037.6425	3098.3698	1910.65	1019.35
1037.7503	3099.3708	1915.05	1017.6
1037.858	3100.3713	1897	1006.7
1037.9657	3101.3711	1892.75	1001.85
1038.0734	3102.3702	1989.1	982.05
1038.181	3103.3688	1886.75	993.85
1038.2886	3104.3667	1865.15	978.4
1038.3961	3105.364	1864.85	974.15
1038.5036	3106.3607	1857.35	966.2
1038.611	3107.3568	1852.95	961.95
1038.7184	3108.3522	1833.5	942.8
1038.8257	3109.347	1836.45	945.85
1038.933	3110.3412	1836.7	942.15
1039.0403	3111.3348	1832.3	939.8
1039.1475	3112.3277	1819.7	929.35
1039.2547	3113.32	1817.55	928
1039.3618	3114.3117	1810.1	919.75
1039.4689	3115.3028	1805.7	916.05
1039.5759	3116.2932	1794.9	902.9
1039.6829	3117.2831	1796.3	900.35
1039.7898	3118.2723	1785.3	894.95
1039.8967	3119.2608	1781.05	892.25
1040.0035	3120.2488	1788.4	898.1
1040.1103	3121.2361	1771	879.8
1040.2171	3122.2229	1761	872.6
1040.3238	3123.209	1765.85	874.5
1040.4305	3124.1944	1766.8	877.3
1040.5371	3125.1793	1749.95	856.8
1040.6437	3126.1635	1750.65	859.6
1040.7502	3127.1471	1740.05	849.35
1040.8567	3128.1301	1740.05	850
1040.9631	3129.1125	1738.5	850.1
1041.0695	3130.0942	1738.45	849.95
1041.1759	3131.0753	1733.45	835.45
1041.2822	3132.0558	1730.25	837.1
1041.3884	3133.0357	1715.1	822.9
1041.4946	3134.015	1712	821.2
1041.6008	3134.9936	1717.1	824.55
1041.7069	3135.9716	1725.3	812.3
1041.813	3136.949	1704.3	813.3
1041.919	3137.9258	1698.35	801.85
1042.025	3138.902	1693.35	799.05
1042.1309	3139.8775	1690.65	801.85
1042.2368	3140.8524	1678.45	788.8
1042.3427	3141.8267	1683.3	792.55
1042.4485	3142.8004	1679.95	790.55
1042.5542	3143.7735	1670.7	775.1
1042.6599	3144.7459	1678.8	785.75
1042.7656	3145.7178	1666.15	774.05
1042.8712	3146.689	1661.1	772.35
1042.9768	3147.6596	1656.85	764.85
1043.0823	3148.6295	1651.5	761.9
1043.1878	3149.5989	1653.6	762.15
1043.2932	3150.5676	1646.5	759.6
1043.3986	3151.5357	1635.75	748.05
1043.5039	3152.5032	1633.35	741.75
1043.6092	3153.4701	1620.15	731.9
1043.7145	3154.4364	1633	740.85
1043.8197	3155.402	1620.4	729.35
1043.9248	3156.367	1615.8	724.05
1044.03	3157.3315	1652.55	719.85
1044.135	3158.2952	1608.15	716.15
1044.24	3159.2584	1598.3	709.6
1044.345	3160.221	1598.05	708
1044.4499	3161.1829	1592.75	701.95
1044.5548	3162.1442	1594.95	705.05
1044.6596	3163.105	1590.15	700.4
1044.7644	3164.065	1579.95	689.35
1044.8692	3165.0245	1574.85	680.7
1044.9739	3165.9834	1573.4	686.6
1045.0785	3166.9416	1569.5	681.05
1045.1831	3167.8993	1569.75	679.7
1045.2877	3168.8563	1561.6	674.05
1045.3922	3169.8127	1560.75	671.3
1045.4966	3170.7684	1558.3	668.15
1045.6011	3171.7236	1563.45	674.1
1045.7054	3172.6782	1545.1	654.8
1045.8098	3173.6321	1541.25	652.2
1045.914	3174.5854	1548.9	654.05
1046.0183	3175.5381	1536.95	650
1046.1224	3176.4902	1535.85	646.15
1046.2266	3177.4417	1532.3	642.25
1046.3307	3178.3926	1528.8	639.1
1046.4347	3179.3428	1524	635.85
1046.5387	3180.2924	1525.45	636.4
1046.6427	3181.2415	1519.7	628.85
1046.7466	3182.1899	1524.05	632.3
1046.8504	3183.1377	1512.6	624.05
1046.9542	3184.0848	1522.2	630.25
1047.058	3185.0314	1500.85	609.75
1047.1617	3185.9773	1506.65	616.35
1047.2654	3186.9227	1498.5	607.6
1047.369	3187.8674	1500.3	609.8
1047.4726	3188.8115	1489	593.9
1047.5761	3189.755	1483	595
1047.6796	3190.6979	1480.9	593
1047.783	3191.6402	1485	595.9
1047.8864	3192.5818	1484.15	595.55
1047.9898	3193.5229	1492.35	577.7
1048.0931	3194.4633	1478.5	588.1
1048.1963	3195.4031	1475.05	585.5
1048.2995	3196.3423	1467.4	575.35
1048.4027	3197.2809	1466.1	577.85
1048.5058	3198.2189	1466.65	575.65
1048.6089	3199.1563	1470.65	573.65
1048.7119	3200.0931	1453.6	565.05
1048.8148	3201.0292	1450.7	563.25
1048.9178	3201.9648	1448.75	558.35
1049.0206	3202.8997	1442.05	550.8
1049.1235	3203.834	1441.2	551.3
1049.2262	3204.7677	1441.55	553.05
1049.329	3205.7008	1442.65	552.1
1049.4317	3206.6333	1431.35	543.3
1049.5343	3207.5652	1436.25	544.3
1049.6369	3208.4964	1427	535.65
1049.7394	3209.4271	1427.9	539.15
1049.8419	3210.3571	1423.95	535.1
1049.9444	3211.2865	1418.4	528.4
1050.0468	3212.2154	1418.2	527.5
1050.1491	3213.1436	1423.35	531.1
1050.2514	3214.0712	1419.65	523.2
1050.3537	3214.9982	1415.95	525.75
1050.4559	3215.9246	1404.5	515.45
1050.5581	3216.8503	1407.6	518.35
1050.6602	3217.7755	1406.7	515.45
1050.7623	3218.7001	1402.1	513.1
1050.8643	3219.624	1393.1	501.9
1050.9663	3220.5473	1396.4	506.85
1051.0682	3221.4701	1394.65	502
1051.1701	3222.3922	1387.65	496.3
1051.2719	3223.3137	1386.9	497.85
1051.3737	3224.2346	1380.85	491.55
1051.4754	3225.1549	1381.35	494.4
1051.5771	3226.0746	1384.2	495.15
1051.6788	3226.9937	1372.9	481.4
1051.7804	3227.9121	1373.95	484.55
1051.8819	3228.83	1367.15	478.4
1051.9834	3229.7473	1366.7	478
1052.0849	3230.6639	1363.5	473
1052.1863	3231.5799	1366.8	476.9
1052.2876	3232.4954	1360	469.65
1052.3889	3233.4102	1356.6	466.5
1052.4902	3234.3244	1357.5	467.55
1052.5914	3235.238	1363.35	474.45
1052.6926	3236.151	1376.6	462.25
1052.7937	3237.0634	1346.55	457.2
1052.8948	3237.9752	1342.4	455.05
1052.9958	3238.8864	1342.35	452.05
1053.0968	3239.797	1345.35	453.9
1053.1977	3240.7069	1335.55	444.85
1053.2986	3241.6163	1339.05	446.8
1053.3994	3242.5251	1337.9	449.35
1053.5002	3243.4332	1324.35	435.15
1053.6009	3244.3408	1333.05	443.25
1053.7016	3245.2477	1323.55	434.75
1053.8022	3246.154	1326.3	436.25
1053.9028	3247.0598	1323.95	432.55
1054.0034	3247.9649	1316.5	427.05
1054.1039	3248.8694	1311.05	422.4
1054.2043	3249.7733	1312.4	423.25
1054.3047	3250.6766	1305.95	415.65
1054.4051	3251.5793	1307.6	416.85
1054.5054	3252.4814	1298.25	411.05
1054.6056	3253.3829	1299.45	409.3
1054.7058	3254.2838	1297	407.3
1054.806	3255.1841	1300.1	412.2
1054.9061	3256.0838	1295.25	404.5
1055.0061	3256.9829	1290.3	401.55
1055.1062	3257.8814	1293.1	402.8
1055.2061	3258.7792	1281.15	389.5
1055.306	3259.6765	1278.65	387.05
1055.4059	3260.5731	1268.95	380.6
1055.5057	3261.4692	1269.3	380.7
1055.6055	3262.3647	1265.05	376.5
1055.7052	3263.2595	1254.05	364.9
1055.8049	3264.1538	1253.55	364.7
1055.9045	3265.0474	1246.8	357.85
1056.0041	3265.9404	1248.35	358.75
1056.1036	3266.8329	1238.5	350.55
1056.2031	3267.7247	1243.45	344.1
1056.3025	3268.616	1222.7	333.55
1056.4019	3269.5066	1215.2	327.1
1056.5013	3270.3966	1209.85	316.7
1056.6005	3271.286	1198.95	311.5
