Software Version:	3.9.2.0
Unit SN:	10000200
Spectrometer SN:	6960
Date:	3/6/2024 10:27:34 AM
Data Line Index:	25
Spectral Points:	2048
Integration time (ms):	125
Averages:	20
Delay (ms):	30
Sequence Number:	1
Processing:	dark subtract
Laser Power (mW):	305
Laser Current (mA):	825
Laser Diode Temp (C):	25.1
Laser Case Temp (C):	26
System Temp (C):	25.8
Spectrometer Temp (C):	23.2
CCD Temp (C):	-0.006
Secondary Temp (C):	20.019
Heatsink Temp (C):	21.418
CCDPCB Temp (C):	35.773
SecondaryPCB Temp (C):	28.259

Wavelength	RamanShift	Raw Counts	Dark Subtracted
787.061	30.1047	1090.2	680.5
787.2016	32.3739	1121.25	712.75
787.3422	34.6426	1156.15	746.5
787.4828	36.9109	1201.95	788.6
787.6235	39.1787	1263.1	846.95
787.7642	41.4461	1323.35	902.7
787.9049	43.7131	1371.45	948.55
788.0456	45.9796	1435.35	1008.95
788.1863	48.2456	1497.2	1066.95
788.3271	50.5112	1562.15	1127.85
788.4679	52.7764	1621.35	1183.7
788.6087	55.0411	1696.25	1255.1
788.7496	57.3054	1779.5	1330.8
788.8904	59.5692	1870.5	1420.7
789.0313	61.8326	1949.75	1497.2
789.1722	64.0955	2049.1	1593
789.3132	66.3579	2179.2	1719.95
789.4541	68.6199	2321.5	1856.25
789.5951	70.8815	2555.6	2086.5
789.7361	73.1426	3066.35	2594.8
789.8771	75.4032	4349.95	3874.3
790.0181	77.6634	7669.85	7189.65
790.1592	79.9231	16394.05	15906.05
790.3003	82.1824	52101.3	51603
790.4414	84.4412	65535	65015.5
790.5825	86.6995	65535	64987.8
790.7237	88.9574	65535	64958.5
790.8648	91.2148	65535	64940.9
791.006	93.4717	65535	64931.5
791.1472	95.7282	65535	64926.85
791.2885	97.9842	65535	64925.65
791.4297	100.2398	65535	64922.7
791.571	102.4949	65535	64917.25
791.7123	104.7495	65535	64913.45
791.8536	107.0036	65535	64913.25
791.9949	109.2573	65535	64912.25
792.1363	111.5105	65535	64912.4
792.2777	113.7632	65535	64907.3
792.4191	116.0154	65535	64896.75
792.5605	118.2672	65535	64905.8
792.7019	120.5185	65535	64899.65
792.8434	122.7693	65535	64901.35
792.9849	125.0197	65535	64895.05
793.1264	127.2696	65535	64891
793.2679	129.519	65535	64889.45
793.4094	131.7679	65535	64885.8
793.551	134.0163	65535	64883.35
793.6926	136.2642	65535	64882.9
793.8342	138.5117	65535	64873.3
793.9758	140.7587	65535	64881.35
794.1175	143.0052	65535	64874.4
794.2591	145.2512	65535	64877.7
794.4008	147.4967	65535	64873.85
794.5425	149.7417	65535	64868.5
794.6842	151.9863	65535	64868.05
794.826	154.2304	65535	64862.75
794.9677	156.4739	65535	64859.95
795.1095	158.717	65535	64855.65
795.2513	160.9596	65535	64852.05
795.3931	163.2017	65535	64850.45
795.535	165.4433	65535	64848.1
795.6768	167.6844	65535	64848.85
795.8187	169.925	65535	64845.25
795.9606	172.1651	65535	64843.4
796.1025	174.4047	65535	64837.85
796.2445	176.6439	65535	64838.7
796.3864	178.8825	65535	64833.1
796.5284	181.1206	65535	64829.35
796.6704	183.3582	65535	64827.1
796.8124	185.5954	65535	64823.6
796.9544	187.832	65535	64822.9
797.0965	190.0681	65535	64818.45
797.2386	192.3037	65535	64817.75
797.3806	194.5388	65535	64811.25
797.5228	196.7734	65535	64809.2
797.6649	199.0075	65535	64806.4
797.807	201.2411	65535	64806.7
797.9492	203.4742	65535	64805.3
798.0914	205.7068	65535	64802.85
798.2336	207.9389	65535	64801.05
798.3758	210.1704	65535	64801.05
798.518	212.4015	65535	64802.35
798.6603	214.632	65535	64812.8
798.8025	216.862	65535	64821.15
798.9448	219.0915	65535	64819.2
799.0871	221.3205	65535	64819.6
799.2294	223.549	65535	64823.35
799.3718	225.777	65535	64824.7
799.5141	228.0044	65535	64816.7
799.6565	230.2314	65535	64818.9
799.7989	232.4578	65535	64814.1
799.9413	234.6837	65535	64804.1
800.0837	236.909	65535	64804.45
800.2262	239.1339	65535	64779.9
800.3687	241.3582	65535	64794.75
800.5111	243.582	65535	64765.65
800.6536	245.8053	65535	64775.4
800.7961	248.0281	65535	64781.2
800.9387	250.2503	65535	64775.6
801.0812	252.472	65535	64773.3
801.2238	254.6932	65535	64771.85
801.3664	256.9139	65535	64771.95
801.509	259.134	65535	64771.4
801.6516	261.3536	65535	64768.9
801.7942	263.5727	65535	64768.55
801.9369	265.7912	65535	64768.5
802.0795	268.0092	65535	64764.4
802.2222	270.2267	65535	64770.1
802.3649	272.4436	65535	64763.95
802.5076	274.6601	65535	64758.2
802.6504	276.8759	65535	64765.1
802.7931	279.0913	65535	64761.85
802.9359	281.3061	65535	64758.9
803.0787	283.5204	65535	64756.05
803.2215	285.7341	65535	64754.75
803.3643	287.9473	65535	64741.85
803.5071	290.16	65535	64752.3
803.6499	292.3721	65535	64756.25
803.7928	294.5837	65535	64752.55
803.9357	296.7947	65535	64752.85
804.0786	299.0052	65535	64755
804.2215	301.2152	65535	64748.7
804.3644	303.4246	65535	64750.25
804.5074	305.6334	65535	64750.7
804.6503	307.8418	65535	64749.6
804.7933	310.0495	65535	64746.35
804.9363	312.2568	65535	64747.8
805.0793	314.4635	65535	64745.65
805.2223	316.6696	65535	64742.15
805.3653	318.8752	65535	64733.05
805.5084	321.0802	65535	64740.4
805.6514	323.2847	65535	64740
805.7945	325.4887	65535	64742.5
805.9376	327.692	65535	64740.15
806.0807	329.8949	65535	64736.25
806.2238	332.0972	65535	64735.95
806.367	334.2989	65535	64732.95
806.5101	336.5001	65535	64732.8
806.6533	338.7007	65535	64728.1
806.7965	340.9008	65535	64726.75
806.9397	343.1003	65535	64729.9
807.0829	345.2992	65535	64728.65
807.2261	347.4976	65535	64729.6
807.3693	349.6955	65535	64720
807.5126	351.8927	65535	64720.6
807.6559	354.0895	65535	64712.05
807.7991	356.2856	65535	64721.6
807.9424	358.4812	65535	64721.05
808.0857	360.6763	65535	64716.45
808.2291	362.8707	65535	64716.9
808.3724	365.0646	65535	64712
808.5158	367.258	65535	64712.75
808.6591	369.4508	65535	64710.5
808.8025	371.643	65535	64711.05
808.9459	373.8346	65535	64709.05
809.0893	376.0257	65535	64705.35
809.2327	378.2162	65535	64707.45
809.3762	380.4062	65535	64703.95
809.5196	382.5956	65535	64706.3
809.6631	384.7844	65535	64711.65
809.8066	386.9726	65535	64712.7
809.9501	389.1603	65535	64714
810.0936	391.3474	65535	64671.7
810.2371	393.5339	65535	64714.15
810.3806	395.7199	65535	64715.95
810.5241	397.9052	65535	64716.8
810.6677	400.09	65535	64714.1
810.8113	402.2743	65535	64711.95
810.9548	404.4579	65535	64712.85
811.0984	406.641	65535	64710.2
811.2421	408.8235	65535	64707.3
811.3857	411.0054	65535	64704.5
811.5293	413.1868	65535	64704.05
811.673	415.3675	65535	64698.85
811.8166	417.5477	65535	64697.45
811.9603	419.7273	65535	64698.15
812.104	421.9064	65535	64686.4
812.2477	424.0848	65535	64689.1
812.3914	426.2627	65535	64693.75
812.5351	428.4399	65535	64698.1
812.6788	430.6166	65535	64689.55
812.8226	432.7928	65535	64690.3
812.9663	434.9683	65535	64692.4
813.1101	437.1432	65535	64687.95
813.2539	439.3176	65535	64687.7
813.3977	441.4914	65535	64690.8
813.5415	443.6645	65535	64687.6
813.6853	445.8371	65535	64687.45
813.8291	448.0091	65535	64688.35
813.973	450.1806	65535	64689.1
814.1168	452.3514	65535	64685.95
814.2607	454.5216	65535	64678.25
814.4046	456.6913	65535	64684.75
814.5485	458.8603	65535	64686.25
814.6924	461.0288	65535	64686.35
814.8363	463.1967	65535	64688.95
814.9802	465.3639	65535	64684.85
815.1241	467.5306	65535	64684.7
815.2681	469.6967	65535	64687
815.412	471.8622	65535	64684.45
815.556	474.0271	65535	64684.1
815.7	476.1914	65535	64679
815.844	478.3551	65535	64684.25
815.988	480.5182	65535	64681.05
816.132	482.6807	65535	64684.1
816.276	484.8426	65535	64684.25
816.4201	487.0039	65535	64684.5
816.5641	489.1647	65535	64678
816.7082	491.3248	65535	64678.2
816.8522	493.4843	65535	64679.6
816.9963	495.6432	65535	64681
817.1404	497.8015	65535	64677.4
817.2845	499.9592	65535	64679.95
817.4286	502.1163	65535	64676.9
817.5727	504.2728	65535	64676.25
817.7168	506.4287	65535	64677.55
817.861	508.5839	65535	64675.7
818.0051	510.7386	65535	64676.15
818.1493	512.8927	65535	64675.5
818.2935	515.0461	65535	64672.45
818.4377	517.199	65535	64678.2
818.5818	519.3512	65535	64673.6
818.726	521.5029	65535	64667.5
818.8703	523.6539	65535	64671.6
819.0145	525.8043	65535	64666.9
819.1587	527.9541	65535	64668.9
819.303	530.1033	65535	64668.85
819.4472	532.2519	65535	64670.8
819.5915	534.3999	65535	64667.55
819.7357	536.5472	65535	64666.45
819.88	538.694	65535	64670
820.0243	540.8401	65535	64671.25
820.1686	542.9856	65535	64663.95
820.3129	545.1305	65535	64667.1
820.4572	547.2748	65535	64662.9
820.6016	549.4185	65535	64664.55
820.7459	551.5615	65535	64663.45
820.8902	553.704	65535	64664.1
821.0346	555.8458	65535	64664.65
821.1789	557.987	65535	64666
821.3233	560.1276	65535	64664.55
821.4677	562.2675	65535	64664.75
821.6121	564.4069	65535	64663.75
821.7565	566.5456	65535	64669.1
821.9009	568.6837	65535	64662.05
822.0453	570.8212	65535	64662.7
822.1897	572.958	65535	64664.5
822.3342	575.0942	65535	64663.45
822.4786	577.2299	65535	64665.55
822.6231	579.3648	65535	64665.55
822.7675	581.4992	65535	64666.05
822.912	583.6329	65535	64665
823.0565	585.766	65535	64667.8
823.201	587.8985	65535	64662.1
823.3454	590.0304	65535	64637.85
823.4899	592.1616	65535	64657.65
823.6345	594.2922	65535	64663.55
823.779	596.4222	65535	64654.95
823.9235	598.5515	65535	64659.15
824.068	600.6802	65535	64660.4
824.2126	602.8083	65535	64660.6
824.3571	604.9358	65535	64657.2
824.5017	607.0626	65535	64656.75
824.6462	609.1888	65535	64654.4
824.7908	611.3144	65535	64660.8
824.9354	613.4393	65535	64654.85
825.08	615.5636	65535	64656.85
825.2246	617.6873	65535	64659.25
825.3692	619.8103	65535	64654
825.5138	621.9327	65535	64653.3
825.6584	624.0544	65535	64656.6
825.803	626.1756	65535	64657.5
825.9477	628.2961	65535	64656.1
826.0923	630.4159	65535	64651.6
826.237	632.5351	65535	64654.55
826.3816	634.6537	65535	64650.25
826.5263	636.7716	65535	64653.45
826.6709	638.8889	65535	64651.35
826.8156	641.0056	65535	64653
826.9603	643.1216	65535	64647.3
827.105	645.237	65535	64651
827.2497	647.3518	65535	64652.3
827.3944	649.4659	65535	64652.35
827.5391	651.5793	65535	64650.4
827.6838	653.6922	65535	64652.45
827.8285	655.8043	65535	64651.05
827.9733	657.9159	65535	64650
828.118	660.0268	65535	64648.65
828.2627	662.137	65535	64649.7
828.4075	664.2466	65535	64645.7
828.5522	666.3556	65535	64647.5
828.697	668.4639	65535	64648.2
828.8418	670.5716	65535	64648.05
828.9865	672.6786	65535	64648.95
829.1313	674.785	65535	64648.9
829.2761	676.8907	65535	64646.45
829.4209	678.9958	65535	64649.65
829.5657	681.1002	65535	64648.1
829.7105	683.204	65535	64644.4
829.8553	685.3072	65535	64646.6
830.0001	687.4097	65535	64645.7
830.1449	689.5115	65535	64645.15
830.2898	691.6127	65535	64648.05
830.4346	693.7132	65535	64645.3
830.5794	695.8131	65535	64639.8
830.7243	697.9123	65535	64646.3
830.8691	700.0109	65535	64647.4
831.014	702.1089	65535	64647.85
831.1588	704.2061	65535	64645.15
831.3037	706.3028	65535	64642.95
831.4486	708.3987	65535	64646.2
831.5935	710.4941	65535	64645.25
831.7383	712.5887	65535	64643.15
831.8832	714.6827	65535	64640.05
832.0281	716.7761	65535	64643.4
832.173	718.8688	65535	64642.2
832.3179	720.9608	65535	64637.1
832.4628	723.0522	65535	64638.45
832.6077	725.1429	65535	64640.45
832.7527	727.233	65535	64640.05
832.8976	729.3224	65535	64638.5
833.0425	731.4112	65535	64638.15
833.1874	733.4993	65535	64639.15
833.3324	735.5867	65535	64642.65
833.4773	737.6735	65535	64634.85
833.6222	739.7596	65535	64640
833.7672	741.845	65535	64641.4
833.9122	743.9298	65535	64640.3
834.0571	746.014	65535	64642.2
834.2021	748.0974	65535	64638.8
834.347	750.1802	65535	64637.45
834.492	752.2624	65535	64639.25
834.637	754.3439	65535	64637.95
834.782	756.4247	65535	64630.4
834.9269	758.5048	65535	64639.4
835.0719	760.5843	65535	64636.25
835.2169	762.6631	65535	64638.75
835.3619	764.7413	65535	64640.85
835.5069	766.8188	65535	64639.3
835.6519	768.8956	65535	64634.5
835.7969	770.9718	65535	64636.7
835.9419	773.0473	65535	64641.95
836.0869	775.1221	65535	64639.55
836.232	777.1962	65535	64638.85
836.377	779.2697	65535	64637.35
836.522	781.3426	65535	64621.55
836.667	783.4147	65535	64639
836.8121	785.4862	65535	64637.7
836.9571	787.557	65535	64636.35
837.1021	789.6271	65535	64638.4
837.2472	791.6966	65535	64635.2
837.3922	793.7654	65535	64633.85
837.5373	795.8335	65535	64634.8
837.6823	797.901	65535	64637.3
837.8274	799.9678	65535	64635.25
837.9724	802.0339	65535	64640.8
838.1175	804.0993	65535	64629.2
838.2626	806.1641	65535	64637.25
838.4076	808.2282	65535	64637.9
838.5527	810.2916	65535	64633.45
838.6978	812.3544	65535	64638.05
838.8428	814.4164	65535	64637.45
838.9879	816.4778	65535	64635.7
839.133	818.5385	65535	64636
839.2781	820.5986	65535	64635.85
839.4232	822.658	65535	64633.6
839.5682	824.7166	65535	64636.7
839.7133	826.7747	65535	64638.55
839.8584	828.832	65535	64636
840.0035	830.8886	65535	64635.45
840.1486	832.9446	65535	64631.35
840.2937	834.9999	65535	64637.15
840.4388	837.0545	65535	64629.35
840.5839	839.1085	65535	64636.55
840.729	841.1618	65535	64629.85
840.8741	843.2143	65535	64637.95
841.0192	845.2662	65535	64638.9
841.1643	847.3175	65535	64635.25
841.3095	849.368	65535	64635.8
841.4546	851.4179	65535	64633.6
841.5997	853.467	65535	64636.5
841.7448	855.5155	65535	64633.65
841.8899	857.5633	65535	64636.15
842.0351	859.6105	65535	64637.8
842.1802	861.6569	65535	64635.7
842.3253	863.7027	65535	64632.95
842.4704	865.7478	65535	64634.3
842.6156	867.7922	65535	64631.35
842.7607	869.8359	65535	64634.95
842.9058	871.8789	65535	64633.55
843.0509	873.9212	65535	64603.8
843.1961	875.9629	65535	64630.45
843.3412	878.0039	65535	64634.55
843.4863	880.0441	65535	64634.4
843.6315	882.0837	65535	64634.1
843.7766	884.1226	65535	64636
843.9218	886.1609	65535	64634.65
844.0669	888.1984	65535	64635.05
844.212	890.2352	65535	64636.2
844.3572	892.2714	65535	64626.45
844.5023	894.3069	65535	64630.05
844.6475	896.3416	65535	64633.35
844.7926	898.3757	65535	64632.7
844.9377	900.4091	65535	64630.95
845.0829	902.4418	65535	64628.55
845.228	904.4739	65535	64631.2
845.3732	906.5052	65535	64632.6
845.5183	908.5358	65535	64631.05
845.6635	910.5658	65535	64629.1
845.8086	912.595	65535	64631.85
845.9538	914.6236	65535	64634.55
846.0989	916.6515	65535	64633.3
846.2441	918.6786	65535	64629.25
846.3892	920.7051	65535	64629.85
846.5344	922.7309	65535	64631
846.6795	924.756	65535	64632.1
846.8246	926.7804	65535	64630.95
846.9698	928.8041	65535	64624.85
847.1149	930.8272	65535	64633.1
847.2601	932.8495	65535	64632.85
847.4052	934.8711	65535	64628.75
847.5504	936.892	65535	64631.95
847.6955	938.9123	65535	64631.05
847.8407	940.9318	65535	64631.9
847.9858	942.9506	65535	64629.4
848.131	944.9688	65535	64631.6
848.2761	946.9862	65535	64631
848.4213	949.003	65535	64630.55
848.5664	951.019	65535	64631.75
848.7115	953.0344	65535	64631.25
848.8567	955.0491	65535	64632.35
849.0018	957.063	65535	64632.15
849.147	959.0763	65535	64631.4
849.2921	961.0888	65535	64631.1
849.4373	963.1007	65535	64632.9
849.5824	965.1119	65535	64634.35
849.7275	967.1223	65535	64633.4
849.8727	969.1321	65535	64632.25
850.0178	971.1412	65535	64631.25
850.1629	973.1495	65535	64630.95
850.3081	975.1572	65535	64598.5
850.4532	977.1641	65535	64630.6
850.5983	979.1704	65535	64628.75
850.7435	981.1759	65535	64627.75
850.8886	983.1808	65535	64630.05
851.0337	985.1849	65535	64617.6
851.1788	987.1884	65535	64625.4
851.324	989.1911	65535	64626.7
851.4691	991.1932	65535	64630.7
851.6142	993.1945	65535	64630.95
851.7593	995.1951	65535	64630
851.9045	997.1951	65535	64626.05
852.0496	999.1943	65535	64632.85
852.1947	1001.1928	65535	64630.4
852.3398	1003.1906	65535	64632.4
852.4849	1005.1877	65535	64630.1
852.63	1007.1841	65535	64632.4
852.7751	1009.1798	65535	64632.15
852.9202	1011.1748	65535	64631.9
853.0653	1013.1691	65535	64630.85
853.2104	1015.1627	65535	64628.9
853.3555	1017.1556	65535	64631.05
853.5006	1019.1477	65535	64632.6
853.6457	1021.1392	65535	64634.2
853.7908	1023.1299	65535	64631.8
853.9359	1025.12	65535	64631.2
854.081	1027.1093	65535	64636.9
854.2261	1029.0979	65535	64636.5
854.3712	1031.0859	65535	64634.25
854.5163	1033.0731	65535	64632.1
854.6613	1035.0596	65535	64632.8
854.8064	1037.0454	65535	64631.4
854.9515	1039.0304	65535	64629.55
855.0965	1041.0148	65535	64631.5
855.2416	1042.9985	65535	64632.4
855.3867	1044.9814	65535	64632.65
855.5317	1046.9636	65535	64631.15
855.6768	1048.9452	65535	64632.4
855.8219	1050.926	65535	64633.55
855.9669	1052.9061	65535	64633
856.112	1054.8855	65535	64631.5
856.257	1056.8642	65535	64631.9
856.4021	1058.8421	65535	64625.55
856.5471	1060.8194	65535	64630.4
856.6921	1062.7959	65535	64630.65
856.8372	1064.7717	65535	64632.1
856.9822	1066.7469	65535	64629.9
857.1272	1068.7213	65535	64627.25
857.2723	1070.695	65535	64630.85
857.4173	1072.6679	65535	64629
857.5623	1074.6402	65535	64631.05
857.7073	1076.6117	65535	64625.85
857.8523	1078.5826	65535	64629.7
857.9973	1080.5527	65535	64626.25
858.1423	1082.5221	65535	64629.75
858.2873	1084.4908	65535	64630.85
858.4323	1086.4587	65535	64628.75
858.5773	1088.426	65535	64630.25
858.7223	1090.3925	65535	64626.25
858.8673	1092.3584	65535	64632.05
859.0123	1094.3235	65535	64635.75
859.1573	1096.2879	65535	64631.9
859.3022	1098.2515	65535	64631.55
859.4472	1100.2145	65535	64630.7
859.5922	1102.1767	65535	64629.55
859.7371	1104.1382	65535	64633.35
859.8821	1106.099	65535	64629.45
860.027	1108.0591	65535	64631.3
860.172	1110.0185	65535	64629.95
860.3169	1111.9771	65535	64635.4
860.4619	1113.9351	65535	64630.75
860.6068	1115.8923	65535	64628.45
860.7517	1117.8488	65535	64629.45
860.8967	1119.8045	65535	64632.75
861.0416	1121.7596	65535	64630.45
861.1865	1123.7139	65535	64632.4
861.3314	1125.6675	65535	64631.05
861.4763	1127.6204	65535	64631.95
861.6212	1129.5726	65535	64629.4
861.7661	1131.524	65535	64631
861.911	1133.4748	65535	64629.65
862.0559	1135.4248	65535	64626.4
862.2008	1137.3741	65535	64629.95
862.3457	1139.3226	65535	64630.65
862.4905	1141.2705	65535	64631.8
862.6354	1143.2176	65535	64625.3
862.7803	1145.164	65535	64629.45
862.9251	1147.1097	65535	64633.35
863.07	1149.0546	65535	64630.3
863.2148	1150.9989	65535	64630.55
863.3597	1152.9424	65535	64631.45
863.5045	1154.8852	65535	64629.65
863.6493	1156.8272	65535	64631.05
863.7942	1158.7686	65535	64622.25
863.939	1160.7092	65535	64632.05
864.0838	1162.6491	65535	64629.5
864.2286	1164.5883	65535	64633.55
864.3734	1166.5267	65535	64631.55
864.5182	1168.4644	65535	64632
864.663	1170.4014	65535	64627.55
864.8078	1172.3377	65535	64632.8
864.9526	1174.2732	65535	64631.4
865.0974	1176.2081	65535	64631.55
865.2421	1178.1421	65535	64626.4
865.3869	1180.0755	65535	64630.45
865.5317	1182.0082	65535	64635.05
865.6764	1183.9401	65535	64631.75
865.8212	1185.8713	65535	64631.3
865.9659	1187.8017	65535	64634.6
866.1106	1189.7315	65535	64635.45
866.2554	1191.6605	65535	64609.1
866.4001	1193.5888	65535	64632
866.5448	1195.5163	65535	64631.35
866.6895	1197.4432	65535	64628.75
866.8342	1199.3693	65535	64629.4
866.9789	1201.2947	65535	64631.55
867.1236	1203.2193	65535	64630.1
867.2683	1205.1432	65535	64635.15
867.413	1207.0664	65535	64630.7
867.5576	1208.9889	65535	64629.35
867.7023	1210.9106	65535	64632.3
867.847	1212.8316	65535	64633.05
867.9916	1214.7519	65535	64623
868.1363	1216.6715	65535	64632.7
868.2809	1218.5903	65535	64631.35
868.4255	1220.5084	65535	64633.1
868.5701	1222.4257	65535	64630.55
868.7148	1224.3424	65535	64634.45
868.8594	1226.2583	65535	64624.75
869.004	1228.1735	65535	64630.25
869.1486	1230.0879	65535	64632.95
869.2932	1232.0016	65535	64630.9
869.4377	1233.9146	65535	64630.35
869.5823	1235.8269	65535	64632.35
869.7269	1237.7384	65535	64632.8
869.8715	1239.6492	65535	64632.85
870.016	1241.5592	65535	64629.9
870.1606	1243.4686	65535	64633.1
870.3051	1245.3772	65535	64634.15
870.4496	1247.285	65535	64630.45
870.5941	1249.1922	65535	64634.5
870.7387	1251.0986	65535	64631.7
870.8832	1253.0042	65535	64633.7
871.0277	1254.9092	65535	64631.55
871.1722	1256.8134	65535	64631.75
871.3167	1258.7169	65535	64632.25
871.4611	1260.6196	65535	64634.45
871.6056	1262.5216	65535	64630.55
871.7501	1264.4229	65535	64633.65
871.8945	1266.3234	65535	64634.5
872.039	1268.2232	65535	64631.65
872.1834	1270.1223	65535	64631.25
872.3278	1272.0207	65535	64632.8
872.4723	1273.9183	65535	64626.25
872.6167	1275.8151	65535	64632.3
872.7611	1277.7113	65535	64631.05
872.9055	1279.6067	65535	64636.4
873.0499	1281.5014	65535	64631.65
873.1943	1283.3953	65535	64629.7
873.3386	1285.2885	65535	64634.05
873.483	1287.181	65535	64632
873.6274	1289.0727	65535	64635.6
873.7717	1290.9637	65535	64631.55
873.9161	1292.854	65535	64632.45
874.0604	1294.7435	65535	64631.95
874.2047	1296.6323	65535	64631.5
874.349	1298.5204	65535	64629.45
874.4933	1300.4077	65535	64633.8
874.6376	1302.2943	65535	64634.25
874.7819	1304.1802	65535	64634
874.9262	1306.0653	65535	64633.35
875.0705	1307.9497	65535	64632.45
875.2147	1309.8333	65535	64631.4
875.359	1311.7162	65535	64630.7
875.5032	1313.5984	65535	64629
875.6475	1315.4798	65535	64632.05
875.7917	1317.3605	65535	64618.45
875.9359	1319.2405	65535	64633.55
876.0801	1321.1197	65535	64631.6
876.2243	1322.9982	65535	64628.7
876.3685	1324.876	65535	64632.95
876.5127	1326.753	65535	64633.05
876.6569	1328.6293	65535	64632.05
876.801	1330.5048	65535	64630.35
876.9452	1332.3796	65535	64635.3
877.0893	1334.2537	65535	64608.65
877.2335	1336.127	65535	64630.55
877.3776	1337.9996	65535	64635.85
877.5217	1339.8714	65535	64632.3
877.6658	1341.7426	65535	64589.55
877.8099	1343.6129	65535	64632.05
877.954	1345.4826	65535	64633.3
878.0981	1347.3515	65535	64627.4
878.2422	1349.2196	65535	64630.25
878.3862	1351.087	65535	64630.35
878.5303	1352.9537	65535	64633
878.6743	1354.8197	65535	64633.85
878.8184	1356.6849	65535	64630.9
878.9624	1358.5493	65535	64632.55
879.1064	1360.4131	65535	64633.3
879.2504	1362.276	65535	64633.2
879.3944	1364.1383	65535	64634.7
879.5384	1365.9998	65535	64628.2
879.6823	1367.8606	65535	64633.2
879.8263	1369.7206	65535	64630.05
879.9702	1371.5799	65535	64632.4
880.1142	1373.4384	65535	64634.55
880.2581	1375.2962	65535	64633.4
880.402	1377.1533	65535	64634.65
880.5459	1379.0096	65535	64632.8
880.6898	1380.8652	65535	64635.05
880.8337	1382.7201	65535	64633.4
880.9776	1384.5742	65535	64632.05
881.1215	1386.4275	65535	64631.45
881.2653	1388.2802	65535	64634.45
881.4092	1390.132	65535	64633.2
881.553	1391.9832	65535	64631.2
881.6968	1393.8336	65535	64631.85
881.8406	1395.6832	65535	64631.3
881.9844	1397.5322	65535	64631.55
882.1282	1399.3803	65535	64629.1
882.272	1401.2278	65535	64634.25
882.4158	1403.0745	65535	64634.25
882.5595	1404.9204	65535	64634.8
882.7033	1406.7656	65535	64632.25
882.847	1408.6101	65535	64629.65
882.9908	1410.4538	65535	64632.6
883.1345	1412.2968	65535	64631.8
883.2782	1414.139	65535	64633.15
883.4219	1415.9805	65535	64633.5
883.5656	1417.8213	65535	64626.55
883.7092	1419.6613	65535	64633.8
883.8529	1421.5006	65535	64633.2
883.9965	1423.3391	65535	64631.5
884.1402	1425.1769	65535	64632.65
884.2838	1427.0139	65535	64631.7
884.4274	1428.8502	65535	64632
884.571	1430.6858	65535	64632.35
884.7146	1432.5206	65535	64634.1
884.8582	1434.3547	65535	64632.25
885.0018	1436.188	65535	64632.4
885.1453	1438.0206	65535	64634.1
885.2889	1439.8524	65535	64633.05
885.4324	1441.6835	65535	64634.15
885.5759	1443.5139	65535	64632.45
885.7194	1445.3435	65535	64635.55
885.8629	1447.1724	65535	64635.45
886.0064	1449.0005	65535	64635.25
886.1499	1450.8279	65535	64632.7
886.2933	1452.6545	65535	64630.95
886.4368	1454.4804	65535	64636.1
886.5802	1456.3056	65535	64626.65
886.7237	1458.13	65535	64635.95
886.8671	1459.9536	65535	64635.05
887.0105	1461.7766	65535	64634.35
887.1539	1463.5987	65535	64635
887.2972	1465.4202	65535	64633.25
887.4406	1467.2409	65535	64633.6
887.584	1469.0608	65535	64633.15
887.7273	1470.88	65535	64633.35
887.8706	1472.6984	65535	64634.1
888.0139	1474.5161	65535	64631.2
888.1572	1476.3331	65535	64636.8
888.3005	1478.1493	65535	64634.05
888.4438	1479.9648	65535	64635.8
888.5871	1481.7795	65535	64633.75
888.7303	1483.5935	65535	64635.1
888.8736	1485.4067	65535	64632.6
889.0168	1487.2192	65535	64632.2
889.16	1489.031	65535	64633.95
889.3032	1490.842	65535	64634.7
889.4464	1492.6522	65535	64633.7
889.5896	1494.4618	65535	64633.15
889.7327	1496.2705	65535	64634.05
889.8759	1498.0785	65535	64633.8
890.019	1499.8858	65535	64634.55
890.1622	1501.6924	65535	64636.05
890.3053	1503.4981	65535	64633.8
890.4484	1505.3032	65535	64635.25
890.5914	1507.1075	65535	64635.95
890.7345	1508.911	65535	64635.9
890.8776	1510.7138	65535	64633.35
891.0206	1512.5159	65535	64636.05
891.1637	1514.3172	65535	64634.3
891.3067	1516.1178	65535	64637
891.4497	1517.9176	65535	64632.95
891.5927	1519.7166	65535	64635.5
891.7357	1521.515	65535	64630.1
891.8786	1523.3126	65535	64635.35
892.0216	1525.1094	65535	64631.9
892.1645	1526.9055	65535	64637.75
892.3074	1528.7008	65535	64636.35
892.4503	1530.4954	65535	64636.05
892.5932	1532.2893	65535	64637.9
892.7361	1534.0824	65535	64631.95
892.879	1535.8747	65532.6	64634
893.0218	1537.6663	65535	64635.2
893.1647	1539.4572	65519.95	64619.65
893.3075	1541.2473	65532.2	64630.35
893.4503	1543.0367	65530.4	64632.3
893.5931	1544.8253	65526.4	64622.5
893.7359	1546.6132	65529.9	64629.45
893.8787	1548.4003	65522.8	64614.2
894.0214	1550.1867	65521.9	64613.75
894.1642	1551.9723	65519.25	64615.7
894.3069	1553.7572	65520.4	64621.65
894.4496	1555.5414	65527.1	64629.95
894.5923	1557.3247	65447.7	64551.3
894.735	1559.1074	65521.5	64623.95
894.8777	1560.8893	65490.05	64591.75
895.0204	1562.6705	65506.35	64607.9
895.163	1564.4509	65446.4	64549
895.3056	1566.2305	65491	64593.7
895.4482	1568.0094	65520.05	64623.75
895.5908	1569.7876	65490.1	64593.9
895.7334	1571.565	65442.85	64545.9
895.876	1573.3417	65465.8	64567.2
896.0186	1575.1176	65466.25	64570.45
896.1611	1576.8928	65451.3	64553.9
896.3036	1578.6672	65407.25	64511.85
896.4461	1580.4409	65425.55	64529.8
896.5886	1582.2138	65384.25	64485.25
896.7311	1583.986	65409.45	64512.9
896.8736	1585.7575	65371.5	64473.95
897.0161	1587.5282	65391.15	64495.95
897.1585	1589.2981	65394.65	64499.6
897.3009	1591.0673	65355.8	64456.75
897.4433	1592.8358	65324.45	64427.85
897.5857	1594.6035	65359.25	64461.1
897.7281	1596.3704	65365.4	64468.5
897.8705	1598.1366	65322.5	64427.2
898.0128	1599.9021	65295.45	64399.95
898.1551	1601.6668	65340.3	64441.6
898.2975	1603.4308	65318	64419.1
898.4398	1605.194	65324.9	64422.95
898.5821	1606.9564	65281.15	64384.8
898.7243	1608.7182	65305	64405.05
898.8666	1610.4791	65270.45	64376.6
899.0088	1612.2394	65292.9	64399.75
899.1511	1613.9988	65262.95	64369.65
899.2933	1615.7576	65302.6	64408.2
899.4355	1617.5156	65302	64400
899.5776	1619.2728	65330.7	64433.55
899.7198	1621.0293	65261.8	64366.65
899.862	1622.785	65261.5	64361.4
900.0041	1624.54	65294.5	64395.75
900.1462	1626.2942	65259.45	64362.85
900.2883	1628.0477	65203.3	64306.25
900.4304	1629.8005	65192.55	64293.95
900.5725	1631.5525	65217.25	64323.4
900.7145	1633.3037	65178.85	64284.45
900.8566	1635.0542	65178.6	64284.9
900.9986	1636.804	65191.65	64296.55
901.1406	1638.553	65153.9	64170.05
901.2826	1640.3013	65164.65	64269.3
901.4245	1642.0488	65140.7	64242.3
901.5665	1643.7955	65158.65	64266.15
901.7085	1645.5416	65127.05	64232.35
901.8504	1647.2868	65111.15	64219.7
901.9923	1649.0313	65146.4	64251.4
902.1342	1650.7751	65123.2	64227.75
902.2761	1652.5181	65101.8	64205.85
902.4179	1654.2604	65103.5	64209.65
902.5598	1656.0019	65124.45	64230.3
902.7016	1657.7427	65104.55	64210.3
902.8434	1659.4828	65128.55	64235.6
902.9852	1661.222	65099.75	64205.55
903.127	1662.9606	65119.7	64225.9
903.2687	1664.6984	65101.85	64208.6
903.4105	1666.4354	65103.75	64207.15
903.5522	1668.1717	65053.1	64159.65
903.6939	1669.9072	65026.8	64132.4
903.8356	1671.642	65019.85	64122.05
903.9773	1673.3761	64996.55	64102.45
904.119	1675.1094	64986.65	64092.6
904.2606	1676.8419	64931.2	64036.95
904.4022	1678.5737	64945.5	64051.35
904.5439	1680.3048	64930.7	64036.8
904.6855	1682.0351	64889.45	63994.25
904.827	1683.7646	64848.1	63947.9
904.9686	1685.4934	64881	63985.4
905.1101	1687.2215	64692.5	63796.8
905.2517	1688.9488	64832.4	63939.5
905.3932	1690.6754	64481.85	63588.85
905.5347	1692.4012	64724.45	63830.3
905.6761	1694.1263	64758.3	63865.5
905.8176	1695.8506	64551.7	63656.85
905.9591	1697.5742	64573.75	63678.95
906.1005	1699.297	64539.75	63646.4
906.2419	1701.0191	64589.25	63696.2
906.3833	1702.7404	64337.15	63444.1
906.5246	1704.461	64257.55	63362.4
906.666	1706.1808	64422.5	63525.9
906.8073	1707.8999	64306.35	63410.45
906.9487	1709.6182	64266.9	63374.85
907.09	1711.3358	64256	63362
907.2313	1713.0527	64204	63311.95
907.3725	1714.7688	64205.45	63305.55
907.5138	1716.4841	63896.25	62998.75
907.655	1718.1987	64008.05	63109.4
907.7962	1719.9126	63923.25	63031.95
907.9374	1721.6257	64021.85	63125.55
908.0786	1723.338	64027.45	63133.75
908.2198	1725.0496	63633.65	62741.7
908.3609	1726.7605	63683.45	62789.8
908.502	1728.4706	63566.1	62672.6
908.6431	1730.18	63706.75	62813.5
908.7842	1731.8886	63489.5	62598.4
908.9253	1733.5964	63402.6	62504.8
909.0664	1735.3036	63627.45	62733.3
909.2074	1737.0099	63483.95	62591.15
909.3484	1738.7156	63311.2	62419.75
909.4894	1740.4204	63244.1	62346.95
909.6304	1742.1246	63266.45	62371.45
909.7714	1743.8279	63314.4	62420.65
909.9123	1745.5306	63277.95	62385.1
910.0532	1747.2325	62796.8	61904.15
910.1941	1748.9336	62819.05	61926.75
910.335	1750.634	62908.55	62012
910.4759	1752.3336	63069.8	62177.4
910.6168	1754.0325	62714.9	61824.85
910.7576	1755.7307	63030.1	62139.2
910.8984	1757.4281	62612.05	61720.65
911.0392	1759.1247	62912	62010.65
911.18	1760.8206	62487.8	61589.15
911.3208	1762.5158	62512.25	61616.15
911.4615	1764.2102	62587.1	61693
911.6022	1765.9039	62456.2	61563.3
911.7429	1767.5968	62361.2	61468.85
911.8836	1769.289	62332.85	61441.8
912.0243	1770.9804	62398.85	61506.3
912.1649	1772.6711	62294.55	61402.35
912.3056	1774.361	62231.9	61339.65
912.4462	1776.0502	62197.25	61304.7
912.5868	1777.7386	61805.35	60910.55
912.7274	1779.4263	61968.25	61075.95
912.8679	1781.1132	61998.75	61107.35
913.0084	1782.7994	61901.15	61008.05
913.149	1784.4849	61924.5	61032.15
913.2895	1786.1696	61342.25	60443.7
913.4299	1787.8535	61715.85	60823.65
913.5704	1789.5367	61753	60861
913.7108	1791.2192	61399.95	60507.75
913.8513	1792.9009	61059.95	60139.25
913.9917	1794.5818	61427.1	60533.3
914.132	1796.2621	61054.25	60162.55
914.2724	1797.9415	61088.95	60196.9
914.4128	1799.6202	61018.05	60124.7
914.5531	1801.2982	61025.8	60135
914.6934	1802.9755	60568.55	59673.6
914.8337	1804.6519	60401.05	59508.25
914.9739	1806.3277	61091.7	60197.15
915.1142	1808.0027	59995.65	59106.55
915.2544	1809.6769	60384.8	59491.7
915.3946	1811.3504	60465.3	59569.75
915.5348	1813.0231	59584.65	58691.5
915.675	1814.6951	60159.95	59268.9
915.8151	1816.3664	59789.25	58895.3
915.9553	1818.0369	59792.75	58900.2
916.0954	1819.7067	59503.25	58611.3
916.2355	1821.3757	59983.65	59090.4
916.3755	1823.044	59308.95	58416.95
916.5156	1824.7115	58937	58045.15
916.6556	1826.3783	59185.3	58294.95
916.7956	1828.0443	59178.05	58288.4
916.9356	1829.7096	58895.25	58002.25
917.0756	1831.3741	58269.3	57373.85
917.2155	1833.0379	58658.7	57767.5
917.3555	1834.701	58612.4	57719.9
917.4954	1836.3633	58163.35	57270.95
917.6353	1838.0248	58450.05	57557.15
917.7751	1839.6856	58264.9	57373.5
917.915	1841.3457	57756.9	56865.4
918.0548	1843.005	58323.25	57431.1
918.1946	1844.6636	57939.7	57049.65
918.3344	1846.3214	57214.8	56323.35
918.4742	1847.9785	57420.75	56528.05
918.6139	1849.6349	57352.4	56459.4
918.7537	1851.2904	57846.65	56945.3
918.8934	1852.9453	56934.15	56043.35
919.0331	1854.5994	57324.2	56429.95
919.1727	1856.2528	57253.1	56357.1
919.3124	1857.9054	56763.25	55870.05
919.452	1859.5572	56508.7	55617.45
919.5916	1861.2083	56740.05	55846.05
919.7312	1862.8587	57219.05	56326.05
919.8708	1864.5084	55837.1	54943.25
920.0103	1866.1572	56432.1	55542.3
920.1498	1867.8054	55727.1	54836
920.2893	1869.4528	56090	55196.95
920.4288	1871.0994	55571.75	54678.75
920.5683	1872.7453	55464.8	54573.4
920.7077	1874.3905	55791.8	54894.05
920.8471	1876.0349	55197.65	54302.25
920.9865	1877.6786	55554.15	54659.3
921.1259	1879.3215	54985.35	54093.7
921.2653	1880.9637	55531.85	54639.7
921.4046	1882.6051	55008.5	54116.85
921.5439	1884.2458	54721.6	53827
921.6832	1885.8858	54419.9	53526.85
921.8225	1887.525	54619.8	53726.5
921.9617	1889.1634	54461.15	53569.9
922.101	1890.8011	54186.75	53294.4
922.2402	1892.4381	53605	52713.9
922.3794	1894.0743	54227.3	53337.35
922.5185	1895.7098	53847.8	52955.95
922.6577	1897.3446	53465.1	52573.85
922.7968	1898.9786	53571.6	52674.4
922.9359	1900.6118	53291.35	52399.3
923.075	1902.2443	52976.85	52082.8
923.214	1903.8761	53236.6	52346.55
923.3531	1905.5071	52799.45	51906.5
923.4921	1907.1374	52196.75	51303.9
923.6311	1908.7669	52421.25	51528.55
923.77	1910.3957	52633.5	51741.6
923.909	1912.0237	52056.05	51165.8
924.0479	1913.651	51862.8	50969.6
924.1868	1915.2776	51676.9	50785.95
924.3257	1916.9034	51628.6	50738.55
924.4646	1918.5285	51367.1	50477.25
924.6034	1920.1528	51301.6	50409.85
924.7422	1921.7764	51167.15	50276.35
924.881	1923.3992	51024.1	50132.65
925.0198	1925.0213	50631.5	49739
925.1586	1926.6427	50327.5	49438.95
925.2973	1928.2633	50444.55	49472.7
925.436	1929.8832	50209.9	49315.65
925.5747	1931.5023	50063.25	49172.8
925.7134	1933.1207	49687.55	48796.1
925.852	1934.7383	49819.45	48927.65
925.9906	1936.3552	49499.7	48609.25
926.1292	1937.9714	49469.3	48578.15
926.2678	1939.5868	49360.85	48467.3
926.4064	1941.2015	48940.15	48049.4
926.5449	1942.8154	48722.85	47832.7
926.6834	1944.4286	48618.55	47727.3
926.8219	1946.041	48503.8	47593.1
926.9604	1947.6528	48237.85	47339.8
927.0988	1949.2637	48131	47240.75
927.2372	1950.8739	47844.05	46950.65
927.3756	1952.4834	47925.65	47035.6
927.514	1954.0921	47725.1	46834.8
927.6523	1955.7001	47446.45	46552.95
927.7907	1957.3074	47465.55	46574.85
927.929	1958.9139	47126.85	46238.1
928.0673	1960.5197	47097.15	46204.4
928.2055	1962.1247	46896.9	46005.45
928.3438	1963.729	46654.55	45766.2
928.482	1965.3325	46475.35	45559.5
928.6202	1966.9353	46432.5	45542.9
928.7584	1968.5374	46119.75	45229.35
928.8965	1970.1387	46004.25	45113.55
929.0346	1971.7393	45902.4	45012.45
929.1727	1973.3392	45745.45	44852.8
929.3108	1974.9383	45551	44662.05
929.4489	1976.5366	45334.5	44444.5
929.5869	1978.1342	45297.25	44406.35
929.7249	1979.7311	45212.95	44320.75
929.8629	1981.3273	45046.55	44156.9
930.0009	1982.9227	44854.05	43961.1
930.1388	1984.5173	44704.3	43813.45
930.2767	1986.1112	44527.45	43637.15
930.4146	1987.7044	44476	43585.35
930.5525	1989.2968	44214.3	43326
930.6904	1990.8885	44188.9	43296.45
930.8282	1992.4795	44050.7	43160.65
930.966	1994.0697	43843.1	42953.4
931.1038	1995.6592	43756.9	42867.6
931.2415	1997.2479	43601.3	42709.8
931.3793	1998.8359	43519.6	42628.3
931.517	2000.4232	43243.4	42355
931.6547	2002.0097	43155.9	42269.05
931.7923	2003.5955	42917.4	42028.05
931.93	2005.1805	42871.65	41980.8
932.0676	2006.7648	42805.35	41915.35
932.2052	2008.3484	42639.2	41749.4
932.3427	2009.9312	42616.4	41724.9
932.4803	2011.5133	42407.25	41519.2
932.6178	2013.0946	42324.55	41434.7
932.7553	2014.6752	42232.7	41343.9
932.8928	2016.2551	42082	41192.4
933.0302	2017.8342	41887.65	40998.9
933.1676	2019.4126	41694.45	40805.8
933.305	2020.9902	41547.85	40658.65
933.4424	2022.5672	41540.95	40650.3
933.5798	2024.1433	41406.05	40511.25
933.7171	2025.7188	41210.8	40323.4
933.8544	2027.2935	41081.3	40190.4
933.9917	2028.8674	40959.3	40069.8
934.129	2030.4406	40808.35	39920.7
934.2662	2032.0131	40628.8	39741.65
934.4034	2033.5849	40553.1	39659.9
934.5406	2035.1559	40432.25	39541.85
934.6778	2036.7261	40394.85	39503.6
934.8149	2038.2957	40237.6	39348.15
934.952	2039.8645	40184.65	39295.35
935.0891	2041.4325	40190.35	39299.35
935.2262	2042.9998	39926.35	39036.35
935.3632	2044.5664	39850.9	38958.5
935.5002	2046.1323	39750.5	38860.95
935.6372	2047.6974	39629.1	38739.65
935.7742	2049.2617	39457.4	38569
935.9111	2050.8254	39498.2	38605.35
936.048	2052.3883	39404.15	38512.55
936.1849	2053.9504	39293.1	38403.55
936.3218	2055.5118	39083.35	38192.1
936.4586	2057.0725	38896.9	38001.65
936.5955	2058.6325	38901.4	38012
936.7323	2060.1917	38763.3	37873.6
936.869	2061.7502	38606.95	37715.5
937.0058	2063.3079	38496.75	37607.65
937.1425	2064.8649	38373.55	37481.45
937.2792	2066.4212	38256.15	37365
937.4159	2067.9767	38167.3	37276.1
937.5525	2069.5315	37978.65	37089.15
937.6891	2071.0856	37820.85	36931.2
937.8257	2072.6389	37674.3	36785.75
937.9623	2074.1915	37463.55	36575.95
938.0989	2075.7433	37287.9	36395.9
938.2354	2077.2945	37237.5	36348.6
938.3719	2078.8448	37086.35	36196.95
938.5084	2080.3945	36985.05	36095.05
938.6448	2081.9434	36957.2	36067.95
938.7812	2083.4916	36853.6	35962.55
938.9176	2085.039	36641.35	35749.7
939.054	2086.5857	36634.8	35741.45
939.1903	2088.1317	36548.45	35658.95
939.3267	2089.677	36404.6	35514.85
939.463	2091.2215	36281.35	35390.2
939.5992	2092.7652	36181.25	35288.8
939.7355	2094.3083	36109.05	35217.8
939.8717	2095.8506	36057	35168.6
940.0079	2097.3921	35992.4	35103.45
940.1441	2098.933	35814	34921.95
940.2802	2100.4731	35688.7	34797.2
940.4163	2102.0124	35664.8	34754.05
940.5524	2103.5511	35584.5	34692.45
940.6885	2105.089	35529.85	34638.3
940.8245	2106.6261	35442.95	34548.9
940.9606	2108.1626	35286.8	34393.2
941.0965	2109.6983	35250.9	34327.8
941.2325	2111.2332	35084.8	34189.55
941.3684	2112.7675	34989.65	34095.5
941.5044	2114.301	34892.35	33997.5
941.6403	2115.8337	34906.45	34014.85
941.7761	2117.3657	34791.95	33901.2
941.912	2118.897	34681.65	33789.1
942.0478	2120.4276	34547.45	33649.3
942.1835	2121.9575	34400.45	33508.2
942.3193	2123.4866	34410	33507.55
942.455	2125.0149	34278.3	33385.35
942.5907	2126.5426	34060.95	33170.85
942.7264	2128.0695	33968.6	33076.45
942.8621	2129.5956	33913.05	33023.65
942.9977	2131.1211	33839.25	32944.85
943.1333	2132.6458	33770.55	32881.4
943.2689	2134.1698	33669.25	32780.75
943.4044	2135.693	33591.8	32701.4
943.54	2137.2155	33512.85	32622
943.6755	2138.7373	33385.9	32495.8
943.8109	2140.2584	33335.35	32446.95
943.9464	2141.7787	33216.35	32321.95
944.0818	2143.2983	33012.1	32124.2
944.2172	2144.8171	32850.45	31963.8
944.3526	2146.3353	32770.15	31877.75
944.4879	2147.8527	32654.85	31764.2
944.6232	2149.3693	32629.35	31740
944.7585	2150.8853	32511.5	31620.1
944.8938	2152.4005	32324.65	31433.65
945.029	2153.9149	32302.2	31411.65
945.1642	2155.4287	32232.7	31342.85
945.2994	2156.9417	32149.2	31257.25
945.4346	2158.454	32011.55	31119.7
945.5697	2159.9655	31915.15	31025.7
945.7048	2161.4764	31853.4	30964.65
945.8399	2162.9865	31752.05	30861.85
945.9749	2164.4958	31684.35	30795.15
946.1099	2166.0045	31537.9	30645.5
946.2449	2167.5124	31545.65	30656.45
946.3799	2169.0195	31450.9	30562.3
946.5148	2170.526	31392.15	30501.5
946.6498	2172.0317	31303.65	30414.7
946.7846	2173.5367	31194.3	30304.3
946.9195	2175.0409	31117.45	30228.7
947.0543	2176.5445	31006.1	30118.15
947.1891	2178.0473	30947.8	30060.4
947.3239	2179.5494	30783.3	29888.75
947.4587	2181.0507	30675.1	29786.35
947.5934	2182.5513	30604.2	29713.5
947.7281	2184.0512	30504.2	29613.65
947.8628	2185.5504	30393.7	29503.35
947.9974	2187.0488	30237.35	29348.75
948.132	2188.5465	30155.7	29267.3
948.2666	2190.0435	30041.85	29152.7
948.4012	2191.5397	29920.7	29030.1
948.5357	2193.0353	29840	28949.85
948.6702	2194.5301	29672.55	28781.65
948.8047	2196.0241	29556.1	28664.7
948.9392	2197.5175	29506.7	28617.6
949.0736	2199.0101	29333.45	28438.55
949.208	2200.502	29226.65	28337.2
949.3424	2201.9931	29158.4	28270.9
949.4767	2203.4835	29021.9	28131.5
949.611	2204.9733	28961.35	28066.2
949.7453	2206.4622	28878.85	27988.9
949.8796	2207.9505	28762.3	27870.45
950.0138	2209.438	28655.4	27768.4
950.148	2210.9248	28577.55	27687.75
950.2822	2212.4109	28489.4	27599.9
950.4164	2213.8962	28358	27464.5
950.5505	2215.3809	28269.6	27378.25
950.6846	2216.8648	28191.15	27300.35
950.8186	2218.3479	28144.75	27249.25
950.9527	2219.8304	27977.55	27084.3
951.0867	2221.3121	27909.45	27016.65
951.2207	2222.7931	27832.8	26943.15
951.3546	2224.2733	27691.05	26800.45
951.4886	2225.7529	27635.7	26746.05
951.6225	2227.2317	27534.1	26641.05
951.7563	2228.7098	27489.1	26600.65
951.8902	2230.1872	27338	26450.45
952.024	2231.6638	27306.4	26418.95
952.1578	2233.1397	27150.15	26255.5
952.2916	2234.6149	27100.65	26211.4
952.4253	2236.0894	27036.6	26146.6
952.559	2237.5632	26974.2	26080.85
952.6927	2239.0362	26819.05	25928.9
952.8263	2240.5085	26744.15	25854.75
952.9599	2241.9801	26659.55	25768.8
953.0935	2243.4509	26582.9	25693
953.2271	2244.921	26446.55	25556.05
953.3606	2246.3904	26354.6	25462.15
953.4941	2247.8591	26308.05	25418.75
953.6276	2249.3271	26230.3	25341.8
953.7611	2250.7943	26122.5	25232
953.8945	2252.2608	25985.55	25096.7
954.0279	2253.7266	25942.85	25052.4
954.1612	2255.1917	25870.9	24981.85
954.2946	2256.656	25774.55	24883.45
954.4279	2258.1197	25666	24777.1
954.5612	2259.5826	25596.8	24705.65
954.6944	2261.0447	25536.45	24644.95
954.8276	2262.5062	25428.95	24535.8
954.9608	2263.9669	25403.8	24512.25
955.094	2265.4269	25321.35	24432.5
955.2271	2266.8862	25266.6	24377.9
955.3602	2268.3448	25174.5	24283.6
955.4933	2269.8026	25144.35	24253.6
955.6264	2271.2598	25019.85	24130.55
955.7594	2272.7162	24949.9	24061.75
955.8924	2274.1719	24891.8	24002.7
956.0253	2275.6268	24820.1	23929.55
956.1583	2277.0811	24803.45	23914.75
956.2912	2278.5346	24683.25	23794.7
956.4241	2279.9874	24614.4	23723.7
956.5569	2281.4395	24539.5	23651.5
956.6897	2282.8908	24479.95	23585.7
956.8225	2284.3414	24399.1	23508.05
956.9553	2285.7914	24298.6	23410.9
957.088	2287.2406	24248.45	23356
957.2207	2288.689	24157.65	23267.55
957.3534	2290.1368	24085.45	23196.3
957.486	2291.5838	24011.65	23119.9
957.6186	2293.0302	23897.2	23004.75
957.7512	2294.4758	23785.35	22893.95
957.8838	2295.9206	23703.65	22812.95
958.0163	2297.3648	23658	22766.55
958.1488	2298.8082	23638.05	22746
958.2813	2300.251	23576.1	22686.85
958.4137	2301.693	23514.4	22620.95
958.5461	2303.1343	23496.2	22605.5
958.6785	2304.5748	23370.6	22481.6
958.8108	2306.0147	23276.6	22387.45
958.9432	2307.4538	23206.2	22315.65
959.0754	2308.8922	23110.6	22221.1
959.2077	2310.3299	23035.55	22146.65
959.3399	2311.7669	22986.65	22099.45
959.4721	2313.2031	22876.5	21987.75
959.6043	2314.6387	22793	21902.5
959.7365	2316.0735	22725.95	21835.55
959.8686	2317.5076	22684.5	21793.6
960.0006	2318.941	22638	21750.15
960.1327	2320.3737	22578.05	21687.05
960.2647	2321.8056	22475.5	21582.9
960.3967	2323.2369	22405	21511.35
960.5287	2324.6674	22321.45	21426.35
960.6606	2326.0972	22246.95	21355.15
960.7925	2327.5263	22193.05	21303.75
960.9244	2328.9547	22078.5	21189.3
961.0562	2330.3823	21999.05	21108.05
961.1881	2331.8092	21996.45	21102.7
961.3198	2333.2355	21884.35	20995.2
961.4516	2334.661	21886.75	20995.8
961.5833	2336.0858	21838.15	20947.4
961.715	2337.5098	21786.45	20895.8
961.8467	2338.9332	21701.5	20810
961.9783	2340.3558	21605.2	20712.75
962.1099	2341.7778	21536.9	20648.35
962.2415	2343.199	21477.05	20588.35
962.373	2344.6195	21395	20506.15
962.5045	2346.0393	21306.15	20417.05
962.636	2347.4583	21339.95	20449.9
962.7675	2348.8767	21195.85	20302.9
962.8989	2350.2943	21133.3	20241.6
963.0303	2351.7113	21111.4	20218.35
963.1617	2353.1275	20999.25	20109.2
963.293	2354.543	20964.15	20067.15
963.4243	2355.9578	20935.05	20046
963.5556	2357.3718	20750.25	19861.2
963.6868	2358.7852	20685.55	19794.85
963.818	2360.1978	20602	19711.55
963.9492	2361.6098	20554.3	19665.9
964.0803	2363.021	20504.7	19611.35
964.2114	2364.4315	20449.75	19560.7
964.3425	2365.8413	20380.35	19488.15
964.4736	2367.2504	20292.5	19402.85
964.6046	2368.6587	20197.4	19308.9
964.7356	2370.0664	20113.6	19226.15
964.8666	2371.4733	20080.55	19191.3
964.9975	2372.8795	19983.55	19094.05
965.1284	2374.285	19884.85	18994.55
965.2593	2375.6899	19821.05	18932.3
965.3901	2377.0939	19726.5	18836.85
965.5209	2378.4973	19643.9	18755.65
965.6517	2379.9	19578	18689.5
965.7825	2381.3019	19494.5	18604.9
965.9132	2382.7032	19495.05	18605.2
966.0439	2384.1037	19411.35	18526.15
966.1745	2385.5035	19364.4	18475.1
966.3051	2386.9027	19282.95	18394.7
966.4357	2388.3011	19233.7	18340.35
966.5663	2389.6987	19164.6	18276.3
966.6968	2391.0957	19090.15	18201.6
966.8273	2392.492	18970.35	18082.3
966.9578	2393.8876	18882.1	17992.35
967.0882	2395.2824	18794.05	17906.2
967.2186	2396.6765	18726.8	17838.4
967.349	2398.07	18672.9	17784.9
967.4793	2399.4627	18615.35	17725.35
967.6097	2400.8547	18570.65	17682.75
967.7399	2402.246	18489.4	17593.75
967.8702	2403.6366	18402.25	17512.6
968.0004	2405.0265	18326.6	17438.55
968.1306	2406.4156	18240.7	17348.15
968.2607	2407.8041	18202.75	17311.2
968.3909	2409.1918	18081.1	17189.75
968.521	2410.5789	17995.15	17105.9
968.651	2411.9652	17957.3	17063.75
968.781	2413.3508	17912.7	17024.3
968.911	2414.7358	17846.35	16955.95
969.041	2416.12	17771.1	16879.85
969.1709	2417.5035	17737.75	16850.4
969.3008	2418.8863	17670.95	16781.65
969.4307	2420.2684	17638.65	16748
969.5606	2421.6497	17496.95	16608.1
969.6904	2423.0304	17416.15	16526.6
969.8201	2424.4104	17382.65	16492.25
969.9499	2425.7896	17300.4	16409.4
970.0796	2427.1682	17258.75	16367.85
970.2093	2428.546	17245.95	16356.8
970.3389	2429.9232	17212.85	16322.7
970.4685	2431.2996	17137.65	16249.7
970.5981	2432.6753	17137.45	16249.55
970.7277	2434.0503	17035.3	16144.9
970.8572	2435.4246	16939.35	16049.05
970.9867	2436.7982	16869.35	15978.4
971.1161	2438.1711	16838.8	15951.35
971.2456	2439.5433	16782.2	15892.8
971.375	2440.9148	16720.05	15824.8
971.5043	2442.2856	16632.25	15741.55
971.6336	2443.6557	16633.8	15743.15
971.7629	2445.025	16541.3	15652.75
971.8922	2446.3937	16488.25	15600.6
972.0214	2447.7617	16437.3	15544.25
972.1506	2449.1289	16433.45	15544.45
972.2798	2450.4955	16353.05	15461.4
972.4089	2451.8613	16299.95	15411.75
972.538	2453.2265	16268.9	15379.65
972.6671	2454.5909	16200.3	15309.1
972.7961	2455.9546	16158.75	15269.05
972.9251	2457.3177	16101.1	15212.85
973.0541	2458.68	16033.5	15143.05
973.1831	2460.0416	16041.85	15151.8
973.312	2461.4025	15998.85	15108.35
973.4408	2462.7627	15917.5	15016.45
973.5697	2464.1222	15875.75	14987.05
973.6985	2465.4811	15835.6	14947.25
973.8273	2466.8392	15778.25	14889.45
973.956	2468.1966	15732.55	14839.75
974.0847	2469.5533	15719.7	14828.15
974.2134	2470.9093	15662.5	14772.9
974.3421	2472.2645	15616.95	14725.45
974.4707	2473.6191	15527.3	14639.65
974.5993	2474.973	15451.55	14562.55
974.7278	2476.3262	15447.35	14556.1
974.8563	2477.6787	15366.3	14478.5
974.9848	2479.0305	15276.25	14387.45
975.1132	2480.3816	15227	14336.35
975.2417	2481.7319	15184.7	14293.9
975.37	2483.0816	15124.55	14235.15
975.4984	2484.4306	15074.75	14184.85
975.6267	2485.7789	15006.6	14118.35
975.755	2487.1264	14969.2	14079.05
975.8833	2488.4733	14865.65	13978.1
976.0115	2489.8195	14850.3	13954.8
976.1397	2491.165	14804.4	13911.7
976.2678	2492.5097	14748.15	13856.05
976.3959	2493.8538	14668.8	13781.3
976.524	2495.1972	14562.8	13673.75
976.6521	2496.5398	14540	13650.3
976.7801	2497.8818	14497.95	13607.9
976.9081	2499.2231	14434.8	13546.85
977.036	2500.5637	14399.85	13510.6
977.164	2501.9035	14348.3	13457.2
977.2918	2503.2427	14282.5	13390.7
977.4197	2504.5812	14229.4	13340.7
977.5475	2505.919	14202.7	13310.7
977.6753	2507.256	14207	13318.25
977.8031	2508.5924	14108.35	13218.75
977.9308	2509.9281	14059.15	13163.8
978.0585	2511.2631	14026.2	13138.65
978.1861	2512.5974	13976.05	13088.1
978.3137	2513.9309	13914.1	13023.7
978.4413	2515.2638	13867.4	12951.35
978.5689	2516.596	13843.4	12954.6
978.6964	2517.9275	13751.1	12861.2
978.8239	2519.2583	13747.35	12856.65
978.9513	2520.5884	13695.1	12804.3
979.0788	2521.9178	13635.85	12744.1
979.2062	2523.2465	13554.55	12665.6
979.3335	2524.5745	13508	12618.55
979.4608	2525.9018	13423.1	12533.5
979.5881	2527.2284	13420.4	12531.9
979.7154	2528.5543	13403.75	12517
979.8426	2529.8796	13351.5	12461.1
979.9698	2531.2041	13331.8	12441.75
980.0969	2532.5279	13293.6	12405.3
980.224	2533.851	13259	12368.5
980.3511	2535.1735	13226.9	12338.6
980.4781	2536.4952	13190.35	12299.75
980.6052	2537.8163	13127.3	12236.95
980.7321	2539.1366	13097	12208.55
980.8591	2540.4562	13066.35	12177.65
980.986	2541.7752	13041.75	12152.15
981.1129	2543.0935	13023.6	12133.2
981.2397	2544.411	12965.35	12073.95
981.3665	2545.7279	12915.1	12025.95
981.4933	2547.0441	12917.15	12026.6
981.62	2548.3596	12915.3	12024.45
981.7467	2549.6744	12855.55	11966.7
981.8734	2550.9885	12782.35	11883.7
982.0001	2552.3019	12745.65	11858.1
982.1267	2553.6146	12710.25	11820.7
982.2532	2554.9266	12693.85	11806.25
982.3798	2556.2379	12668.45	11776.4
982.5063	2557.5485	12641.7	11752.25
982.6327	2558.8585	12595.1	11699.05
982.7592	2560.1677	12551.35	11656.7
982.8856	2561.4762	12543.55	11654.3
983.0119	2562.7841	12523.5	11631.55
983.1383	2564.0913	12474.05	11586.4
983.2646	2565.3977	12449.15	11559.2
983.3908	2566.7035	12394.45	11505.25
983.517	2568.0086	12395.65	11504.6
983.6432	2569.313	12365.15	11475
983.7694	2570.6167	12333.95	11441.35
983.8955	2571.9197	12304.3	11414.05
984.0216	2573.222	12291.15	11399.9
984.1476	2574.5236	12263.3	11373.75
984.2737	2575.8246	12198.1	11306.9
984.3996	2577.1248	12178.45	11285.65
984.5256	2578.4244	12164.25	11274.5
984.6515	2579.7232	12162	11273.3
984.7774	2581.0214	12118.45	11206.15
984.9032	2582.3189	12086.2	11196.35
985.029	2583.6157	12081.9	11188.15
985.1548	2584.9118	12027.15	11137.7
985.2806	2586.2072	11979	11090.65
985.4063	2587.5019	11926.7	11037.9
985.5319	2588.7959	11914.9	11025.5
985.6576	2590.0893	11888.45	10997.5
985.7832	2591.3819	11863.6	10976.1
985.9087	2592.6739	11818.5	10929.85
986.0343	2593.9652	11770.1	10879.8
986.1597	2595.2557	11746.4	10857.85
986.2852	2596.5456	11682.6	10793.1
986.4106	2597.8348	11635.55	10746.9
986.536	2599.1234	11570.5	10683.15
986.6614	2600.4112	11570.05	10681.1
986.7867	2601.6983	11508.5	10614.7
986.912	2602.9848	11474.35	10585.4
987.0372	2604.2705	11439.7	10541.95
987.1624	2605.5556	11406.85	10517.45
987.2876	2606.84	11345.2	10455.1
987.4128	2608.1237	11312.8	10421.35
987.5379	2609.4067	11260.9	10371.7
987.6629	2610.689	11242.4	10345.75
987.788	2611.9707	11199.4	10305.8
987.913	2613.2516	11138.75	10243.95
988.0379	2614.5319	11100.9	10211.75
988.1629	2615.8115	11046.9	10156.4
988.2878	2617.0903	11007.85	10116.7
988.4126	2618.3685	10966.45	10076.15
988.5375	2619.6461	10938.05	10048.3
988.6622	2620.9229	10900.6	10009.95
988.787	2622.199	10841.7	9952.25
988.9117	2623.4745	10830.85	9939.25
989.0364	2624.7493	10797.25	9908.35
989.161	2626.0234	10760.8	9871.35
989.2857	2627.2968	10712.8	9824
989.4102	2628.5695	10663.2	9771.95
989.5348	2629.8415	10631.45	9742.15
989.6593	2631.1128	10579.2	9688.45
989.7837	2632.3835	10529.35	9639
989.9082	2633.6535	10465.55	9577.55
990.0326	2634.9228	10449.6	9561.75
990.1569	2636.1914	10402.55	9514.75
990.2812	2637.4593	10398.1	9503.65
990.4055	2638.7265	10346.1	9456.75
990.5298	2639.9931	10326.6	9439.55
990.654	2641.259	10292.9	9402.55
990.7782	2642.5242	10247.55	9359.4
990.9023	2643.7887	10235.75	9345.7
991.0264	2645.0525	10198.75	9310.15
991.1505	2646.3156	10151.55	9261.35
991.2745	2647.5781	10124.55	9235.2
991.3985	2648.8398	10080.35	9192.85
991.5225	2650.1009	10061.25	9136.35
991.6464	2651.3613	10003.7	9113.35
991.7703	2652.6211	9985.6	9096.5
991.8942	2653.8801	9942.85	9053.75
992.018	2655.1385	9940.5	9049.1
992.1418	2656.3961	9901.2	9013.2
992.2655	2657.6531	9892.2	9003
992.3892	2658.9094	9868.2	8980
992.5129	2660.1651	9829.9	8942.65
992.6366	2661.42	9787.5	8900.6
992.7602	2662.6743	9802.7	8910.55
992.8837	2663.9279	9762.4	8874.05
993.0073	2665.1808	9719.6	8830.55
993.1307	2666.433	9694.95	8805.5
993.2542	2667.6846	9637.15	8750.1
993.3776	2668.9354	9630.15	8737.85
993.501	2670.1856	9590.55	8701.1
993.6244	2671.4351	9591.3	8705.05
993.7477	2672.6839	9537.65	8647.45
993.8709	2673.9321	9514.5	8625.95
993.9942	2675.1795	9495.45	8606.5
994.1174	2676.4263	9459.8	8569.25
994.2405	2677.6724	9416.2	8526.05
994.3637	2678.9179	9399.65	8510.05
994.4868	2680.1626	9392.65	8504.95
994.6098	2681.4067	9315.05	8423.75
994.7328	2682.6501	9324.65	8435.55
994.8558	2683.8928	9300.55	8412.55
994.9788	2685.1348	9255.9	8365.5
995.1017	2686.3761	9207.3	8317.05
995.2245	2687.6168	9166.65	8278
995.3474	2688.8568	9114.45	8223.9
995.4702	2690.0961	9108.45	8220.75
995.5929	2691.3348	9121	8231.85
995.7156	2692.5727	9084.2	8195.65
995.8383	2693.81	9035.4	8145.9
995.961	2695.0466	9012.65	8125.55
996.0836	2696.2826	9003.6	8114.4
996.2062	2697.5178	8966.8	8074.8
996.3287	2698.7524	8920.25	8031.85
996.4512	2699.9863	8927	8035.5
996.5737	2701.2195	8874.1	7986
996.6961	2702.452	8869.05	7980.25
996.8185	2703.6839	8824.2	7935.55
996.9408	2704.9151	8782.8	7894.8
997.0631	2706.1456	8761.6	7873
997.1854	2707.3755	8736.35	7846.25
997.3077	2708.6046	8712.8	7820.9
997.4299	2709.8331	8683.7	7794.5
997.552	2711.0609	8664.85	7776.55
997.6742	2712.2881	8647.8	7759.2
997.7963	2713.5145	8611.5	7720.6
997.9183	2714.7403	8591.95	7703.3
998.0403	2715.9654	8591	7700.95
998.1623	2717.1899	8558.65	7655.75
998.2842	2718.4136	8524.7	7635.85
998.4062	2719.6367	8479.3	7589.5
998.528	2720.8591	8467.3	7571.55
998.6498	2722.0809	8435.15	7546.65
998.7716	2723.3019	8437.85	7545.65
998.8934	2724.5223	8423.15	7532.6
999.0151	2725.7421	8394	7505.2
999.1368	2726.9611	8361.1	7468.9
999.2584	2728.1795	8326.35	7432.05
999.38	2729.3972	8290.35	7400.85
999.5016	2730.6142	8263.15	7367.55
999.6231	2731.8306	8199.75	7309.7
999.7446	2733.0462	8182.9	7292.5
999.8661	2734.2612	8116.75	7224.85
999.9875	2735.4756	8056.4	7166.05
1000.1089	2736.6892	8036.15	7150.65
1000.2302	2737.9022	7981	7091.45
1000.3515	2739.1145	7929.85	7041.05
1000.4728	2740.3262	7919.4	7023.6
1000.594	2741.5372	7859.8	6971.85
1000.7152	2742.7475	7836.85	6947.25
1000.8363	2743.9571	7814.85	6923.95
1000.9575	2745.1661	7796.25	6903.75
1001.0785	2746.3744	7740.95	6849.5
1001.1996	2747.582	7724	6836.3
1001.3206	2748.7889	7669.95	6778.4
1001.4415	2749.9952	7655.3	6766.65
1001.5625	2751.2008	7640.45	6751.75
1001.6833	2752.4057	7614.3	6722.8
1001.8042	2753.61	7557.75	6668.55
1001.925	2754.8136	7537.4	6647.4
1002.0458	2756.0165	7530.45	6641.95
1002.1665	2757.2188	7485	6597.45
1002.2872	2758.4204	7460.35	6571.1
1002.4078	2759.6213	7433.05	6543.2
1002.5285	2760.8215	7453.75	6561.55
1002.649	2762.0211	7395.3	6504.6
1002.7696	2763.22	7378.35	6484.9
1002.8901	2764.4182	7340.45	6451.2
1003.0106	2765.6158	7330	6440.45
1003.131	2766.8127	7298.1	6409.95
1003.2514	2768.009	7250.6	6362.8
1003.3717	2769.2045	7259.5	6372.45
1003.492	2770.3994	7254.35	6362.8
1003.6123	2771.5936	7210.2	6320.4
1003.7325	2772.7872	7182.2	6294.05
1003.8527	2773.9801	7135.95	6247.5
1003.9729	2775.1723	7135.9	6228.9
1004.093	2776.3639	7087.75	6199.45
1004.2131	2777.5548	7068.3	6176.75
1004.3331	2778.745	7035.85	6145.55
1004.4531	2779.9346	7028.25	6139.7
1004.5731	2781.1235	7015.2	6126.65
1004.693	2782.3117	6992.9	6105
1004.8129	2783.4992	6978.35	6090.25
1004.9328	2784.6861	6957.35	6068.35
1005.0526	2785.8723	6920.25	6031.3
1005.1723	2787.0579	6892.25	6002.1
1005.2921	2788.2428	6871.35	5982.85
1005.4118	2789.427	6851.05	5962.15
1005.5314	2790.6106	6848.05	5960.5
1005.651	2791.7935	6826.05	5936.2
1005.7706	2792.9757	6817.15	5927.6
1005.8902	2794.1573	6790.25	5899.55
1006.0097	2795.3382	6766.6	5878.15
1006.1291	2796.5184	6759.75	5872.35
1006.2485	2797.698	6751.45	5860.1
1006.3679	2798.8769	6723.35	5837.25
1006.4873	2800.0551	6725.25	5835.3
1006.6066	2801.2327	6704.35	5814.25
1006.7258	2802.4096	6694.8	5807.7
1006.8451	2803.5859	6680.05	5790.2
1006.9642	2804.7615	6690.15	5799.55
1007.0834	2805.9364	6680.9	5792.15
1007.2025	2807.1106	6669	5780.7
1007.3216	2808.2842	6674.35	5784.85
1007.4406	2809.4572	6705.7	5817.3
1007.5596	2810.6294	6714.95	5823.45
1007.6785	2811.801	6710.35	5823.8
1007.7975	2812.972	6731.05	5844.05
1007.9163	2814.1423	6759.05	5870.35
1008.0352	2815.3119	6786.1	5896.25
1008.154	2816.4808	6801.9	5914.4
1008.2727	2817.6491	6834.15	5944.8
1008.3914	2818.8167	6866.65	5980.2
1008.5101	2819.9837	6905.8	6014.1
1008.6288	2821.15	6923.55	6035.05
1008.7474	2822.3157	6921.3	6032.05
1008.8659	2823.4807	6945.1	6056.4
1008.9844	2824.645	6998.8	6110.15
1009.1029	2825.8086	7018.9	6131.4
1009.2214	2826.9716	7038.45	6150.65
1009.3398	2828.134	7071.3	6183.25
1009.4581	2829.2957	7102.8	6213.5
1009.5764	2830.4567	7122.55	6236.6
1009.6947	2831.617	7098.5	6209.25
1009.813	2832.7767	7118.65	6229.05
1009.9312	2833.9358	7084.6	6197.8
1010.0493	2835.0941	7089.2	6200.95
1010.1675	2836.2519	7050.25	6162
1010.2855	2837.4089	7027.75	6138.35
1010.4036	2838.5653	7004.85	6116.75
1010.5216	2839.7211	6984.85	6098.4
1010.6396	2840.8761	6964.2	6073.7
1010.7575	2842.0306	6969.7	6083.15
1010.8754	2843.1843	6995.55	6106.3
1010.9932	2844.3374	7023.8	6134.55
1011.111	2845.4899	7047.25	6158.35
1011.2288	2846.6417	7071.15	6182.75
1011.3465	2847.7928	7133.9	6246.5
1011.4642	2848.9433	7188.7	6300.95
1011.5818	2850.0931	7255.65	6370
1011.6995	2851.2422	7285.65	6396.8
1011.817	2852.3907	7330.25	6440.7
1011.9345	2853.5385	7396.1	6505.1
1012.052	2854.6857	7406.7	6509.2
1012.1695	2855.8323	7427.05	6540.35
1012.2869	2856.9781	7444.5	6558.8
1012.4042	2858.1233	7474.6	6585.65
1012.5216	2859.2679	7493.35	6604.3
1012.6389	2860.4118	7522.7	6634.05
1012.7561	2861.555	7538.25	6644.75
1012.8733	2862.6976	7561.85	6670.45
1012.9905	2863.8395	7589.7	6701.3
1013.1076	2864.9808	7574.85	6686.25
1013.2247	2866.1214	7571.5	6683.65
1013.3417	2867.2614	7570.75	6682.4
1013.4587	2868.4007	7553.55	6663.55
1013.5757	2869.5393	7560.2	6670.2
1013.6926	2870.6773	7535.1	6643.7
1013.8095	2871.8146	7571.2	6680.05
1013.9263	2872.9513	7538.95	6646.9
1014.0431	2874.0874	7502.95	6614.3
1014.1599	2875.2227	7484.85	6598.5
1014.2766	2876.3574	7427.95	6540.4
1014.3933	2877.4915	7390.8	6503.25
1014.51	2878.6249	7344.5	6456.65
1014.6266	2879.7577	7328.85	6437.2
1014.7431	2880.8898	7260.55	6360.5
1014.8596	2882.0212	7245.05	6356.85
1014.9761	2883.152	7211.3	6321.6
1015.0925	2884.2821	7189.15	6304.55
1015.2089	2885.4116	7143.25	6256.5
1015.3253	2886.5405	7140	6255.3
1015.4416	2887.6686	7109.05	6217
1015.5579	2888.7962	7106.35	6220.45
1015.6741	2889.923	7109.25	6222.25
1015.7903	2891.0493	7096.85	6207.1
1015.9065	2892.1748	7073.05	6183.9
1016.0226	2893.2997	7065.3	6178.2
1016.1387	2894.424	7046.65	6159.35
1016.2547	2895.5476	7078.55	6189.65
1016.3707	2896.6706	7058.1	6170.75
1016.4866	2897.7929	7079.3	6191.05
1016.6025	2898.9145	7077.2	6189.35
1016.7184	2900.0355	7072.35	6185.7
1016.8342	2901.1559	7077.85	6187.35
1016.95	2902.2756	7097.3	6208.2
1017.0658	2903.3946	7134.85	6247.5
1017.1815	2904.513	7143.15	6253.1
1017.2971	2905.6308	7149.95	6262.1
1017.4127	2906.7479	7121.3	6233.4
1017.5283	2907.8643	7133.05	6243.75
1017.6439	2908.9801	7131.05	6243.65
1017.7594	2910.0953	7120.25	6233.25
1017.8748	2911.2098	7110.95	6219.2
1017.9902	2912.3236	7093.8	6197.15
1018.1056	2913.4368	7047.7	6155.8
1018.2209	2914.5494	7034.05	6145.65
1018.3362	2915.6613	6985.35	6092.9
1018.4515	2916.7725	6954.6	6063.5
1018.5667	2917.8831	6901.55	6012.75
1018.6819	2918.9931	6892.45	6000.9
1018.797	2920.1024	6837.1	5948.95
1018.9121	2921.211	6794.9	5908.5
1019.0271	2922.319	6765.3	5877.6
1019.1421	2923.4264	6731.65	5842.85
1019.2571	2924.5331	6713.05	5826.45
1019.372	2925.6391	6675.55	5787
1019.4869	2926.7445	6671.5	5787.85
1019.6017	2927.8493	6640.75	5750.95
1019.7165	2928.9534	6634.15	5746
1019.8313	2930.0569	6617.2	5726.7
1019.946	2931.1597	6593.2	5702.6
1020.0606	2932.2619	6580.95	5693.9
1020.1753	2933.3634	6578.8	5690.75
1020.2899	2934.4643	6562.8	5668.7
1020.4044	2935.5645	6529.95	5636.35
1020.5189	2936.6641	6475.7	5583.4
1020.6334	2937.763	6438.05	5551.05
1020.7478	2938.8613	6374.85	5485
1020.8622	2939.959	6327.7	5436.85
1020.9765	2941.056	6251.05	5362.5
1021.0908	2942.1523	6144.2	5255.9
1021.2051	2943.248	6066	5178
1021.3193	2944.3431	5963.4	5077.9
1021.4334	2945.4375	5871.5	4982.25
1021.5476	2946.5313	5757.3	4871.15
1021.6617	2947.6244	5652.9	4762.9
1021.7757	2948.7169	5561.4	4673.6
1021.8897	2949.8087	5445.25	4557.25
1022.0037	2950.8999	5339.95	4451.45
1022.1176	2951.9904	5274.7	4387.95
1022.2315	2953.0803	5183	4294.45
1022.3453	2954.1696	5141.85	4254.3
1022.4591	2955.2582	5054.55	4166.15
1022.5728	2956.3462	5008	4119.7
1022.6865	2957.4335	4960.6	4074
1022.8002	2958.5202	4903.1	4011.9
1022.9138	2959.6062	4851.75	3963.85
1023.0274	2960.6916	4831.9	3943.95
1023.141	2961.7764	4802.15	3913.65
1023.2545	2962.8605	4765.75	3876.95
1023.3679	2963.9439	4732.75	3845.5
1023.4813	2965.0267	4716.15	3826.3
1023.5947	2966.1089	4700.55	3791.35
1023.708	2967.1905	4667.85	3779.35
1023.8213	2968.2714	4659.5	3771.05
1023.9346	2969.3516	4619.75	3731.95
1024.0478	2970.4312	4643.15	3748.45
1024.1609	2971.5102	4607.1	3718.85
1024.274	2972.5885	4617.95	3731.45
1024.3871	2973.6662	4597.3	3704
1024.5002	2974.7432	4590.9	3703
1024.6132	2975.8196	4553	3665.9
1024.7261	2976.8954	4527.75	3642
1024.839	2977.9705	4535.45	3646.75
1024.9519	2979.045	4509.3	3622.6
1025.0647	2980.1188	4482	3594.55
1025.1775	2981.192	4442.15	3553.45
1025.2902	2982.2645	4427.6	3539.85
1025.4029	2983.3364	4370.7	3483.3
1025.5156	2984.4077	4329.65	3442.75
1025.6282	2985.4783	4306.8	3412.05
1025.7407	2986.5483	4271.1	3383.45
1025.8532	2987.6177	4214.05	3325.5
1025.9657	2988.6864	4196.2	3307.2
1026.0782	2989.7545	4165.75	3276.9
1026.1906	2990.8219	4110.45	3222.95
1026.3029	2991.8887	4068.7	3179.9
1026.4152	2992.9548	4036.6	3148.5
1026.5275	2994.0204	4008.95	3120.95
1026.6397	2995.0852	3973.75	3086
1026.7519	2996.1495	3925.4	3036.75
1026.864	2997.2131	3891.1	3004.35
1026.9761	2998.276	3865.5	2978.25
1027.0882	2999.3383	3838.95	2949.9
1027.2002	3000.4	3808.15	2917.35
1027.3122	3001.4611	3777.4	2888.8
1027.4241	3002.5215	3758.65	2871.05
1027.536	3003.5812	3713.55	2826
1027.6478	3004.6404	3695.95	2808.3
1027.7596	3005.6989	3686.8	2796.3
1027.8714	3006.7567	3668	2780.75
1027.9831	3007.8139	3676.95	2768.65
1028.0947	3008.8705	3633.85	2746.1
1028.2064	3009.9264	3621.2	2730.55
1028.3179	3010.9818	3618.9	2731.8
1028.4295	3012.0364	3600.3	2713.2
1028.541	3013.0905	3576.2	2689.65
1028.6524	3014.1439	3564.45	2677.65
1028.7638	3015.1966	3565.15	2678.75
1028.8752	3016.2487	3557	2670.75
1028.9865	3017.3002	3551.15	2659.9
1029.0978	3018.3511	3531.6	2644.8
1029.209	3019.4013	3522	2636.45
1029.3202	3020.4509	3506.4	2619.45
1029.4314	3021.4998	3491.35	2606
1029.5425	3022.5481	3480.95	2593.6
1029.6535	3023.5958	3486	2598.8
1029.7645	3024.6428	3464.9	2577.65
1029.8755	3025.6892	3463.45	2576.6
1029.9864	3026.735	3460.7	2572.5
1030.0973	3027.7802	3443.6	2556.75
1030.2082	3028.8247	3421.9	2534.65
1030.319	3029.8685	3410.45	2522.95
1030.4297	3030.9118	3411.55	2524.75
1030.5404	3031.9544	3401.2	2514.9
1030.6511	3032.9963	3395.2	2504.85
1030.7617	3034.0376	3382.55	2495.35
1030.8723	3035.0783	3367.15	2477.05
1030.9829	3036.1184	3378	2489.15
1031.0934	3037.1578	3370	2483.45
1031.2038	3038.1966	3374.05	2485.8
1031.3142	3039.2348	3350	2463.2
1031.4246	3040.2723	3346.75	2450.45
1031.5349	3041.3092	3332.2	2444.9
1031.6452	3042.3455	3324.3	2435.65
1031.7554	3043.3811	3321.3	2431.7
1031.8656	3044.4161	3300.6	2412.35
1031.9758	3045.4505	3292.35	2404.8
1032.0859	3046.4842	3282.05	2394.8
1032.1959	3047.5173	3255.85	2370.5
1032.3059	3048.5498	3245.7	2356.95
1032.4159	3049.5816	3245.2	2356.95
1032.5258	3050.6128	3232.55	2343.95
1032.6357	3051.6434	3220.95	2331.55
1032.7455	3052.6734	3211.55	2322.3
1032.8553	3053.7027	3187.8	2300.3
1032.9651	3054.7314	3161.7	2275.1
1033.0748	3055.7594	3164.6	2278.95
1033.1845	3056.7868	3155.4	2267.25
1033.2941	3057.8136	3133.6	2244.45
1033.4037	3058.8398	3131.2	2243.3
1033.5132	3059.8653	3109.6	2222.3
1033.6227	3060.8902	3117.5	2228.95
1033.7321	3061.9145	3091.5	2203.75
1033.8415	3062.9381	3069	2180.5
1033.9509	3063.9612	3080.45	2176.7
1034.0602	3064.9835	3044.65	2158
1034.1694	3066.0053	3033.4	2143.4
1034.2787	3067.0264	3036.15	2151.05
1034.3878	3068.0469	3030.3	2143.15
1034.497	3069.0668	3014.85	2123.9
1034.6061	3070.086	2992.8	2104.05
1034.7151	3071.1046	2980.75	2094.3
1034.8241	3072.1226	2969.15	2080.5
1034.9331	3073.1399	2963.5	2074.8
1035.042	3074.1567	2945.3	2059.3
1035.1508	3075.1727	2928.45	2039.1
1035.2597	3076.1882	2910.85	2023.15
1035.3684	3077.203	2901.35	2012.9
1035.4772	3078.2173	2883.75	1994.65
1035.5859	3079.2308	2864.35	1975.8
1035.6945	3080.2438	2853.95	1964.25
1035.8031	3081.2561	2839.8	1951.7
1035.9117	3082.2678	2832.45	1945.95
1036.0202	3083.2789	2822.8	1934.3
1036.1286	3084.2893	2810.45	1923.6
1036.2371	3085.2991	2792.5	1903.65
1036.3454	3086.3083	2783.25	1890.7
1036.4538	3087.3169	2760.95	1874.05
1036.562	3088.3248	2766.25	1875.35
1036.6703	3089.3321	2740.9	1852.15
1036.7785	3090.3388	2736.2	1848.2
1036.8866	3091.3449	2708.5	1822.85
1036.9948	3092.3503	2709.55	1819.9
1037.1028	3093.3551	2707.65	1822.05
1037.2108	3094.3593	2688.1	1803.1
1037.3188	3095.3629	2683.15	1796.65
1037.4267	3096.3658	2663.3	1775
1037.5346	3097.3681	2654.4	1767.8
1037.6425	3098.3698	2643.35	1753.9
1037.7503	3099.3708	2637.6	1744
1037.858	3100.3713	2624.5	1735.35
1037.9657	3101.3711	2614.95	1726.7
1038.0734	3102.3702	2726.75	1700.6
1038.181	3103.3688	2604.8	1712.8
1038.2886	3104.3667	2571.15	1686.25
1038.3961	3105.364	2564.4	1678.7
1038.5036	3106.3607	2560.25	1670.4
1038.611	3107.3568	2550.3	1663.45
1038.7184	3108.3522	2544.65	1658.2
1038.8257	3109.347	2533.75	1643.55
1038.933	3110.3412	2530.55	1638.75
1039.0403	3111.3348	2516.25	1627.65
1039.1475	3112.3277	2512.65	1624.5
1039.2547	3113.32	2492.6	1605.8
1039.3618	3114.3117	2484.15	1596.4
1039.4689	3115.3028	2488.75	1602.25
1039.5759	3116.2932	2462.7	1572.9
1039.6829	3117.2831	2470.05	1578.15
1039.7898	3118.2723	2446.1	1558.55
1039.8967	3119.2608	2438.25	1551.05
1040.0035	3120.2488	2431.9	1545.65
1040.1103	3121.2361	2420.5	1533.45
1040.2171	3122.2229	2414.85	1529.8
1040.3238	3123.209	2410.25	1522.05
1040.4305	3124.1944	2397.65	1509.6
1040.5371	3125.1793	2394.55	1505.65
1040.6437	3126.1635	2380.1	1492.8
1040.7502	3127.1471	2373.75	1486.9
1040.8567	3128.1301	2364.9	1477.9
1040.9631	3129.1125	2358.25	1473.3
1041.0695	3130.0942	2357.75	1470.35
1041.1759	3131.0753	2353.6	1457.35
1041.2822	3132.0558	2340.9	1450.65
1041.3884	3133.0357	2330	1443.05
1041.4946	3134.015	2331.55	1441.45
1041.6008	3134.9936	2320.35	1433.15
1041.7069	3135.9716	2331.85	1423.3
1041.813	3136.949	2312.7	1425.4
1041.919	3137.9258	2320.1	1426.4
1042.025	3138.902	2300.3	1408.25
1042.1309	3139.8775	2283.65	1398.35
1042.2368	3140.8524	2281.9	1395.45
1042.3427	3141.8267	2270.65	1381.45
1042.4485	3142.8004	2271.15	1382.75
1042.5542	3143.7735	2259.4	1364.65
1042.6599	3144.7459	2255.75	1365.1
1042.7656	3145.7178	2255.75	1366.7
1042.8712	3146.689	2243.35	1357.1
1042.9768	3147.6596	2230.75	1340.65
1043.0823	3148.6295	2230.3	1342
1043.1878	3149.5989	2211.15	1324.9
1043.2932	3150.5676	2215.15	1329.15
1043.3986	3151.5357	2204.45	1317.45
1043.5039	3152.5032	2197.4	1311.05
1043.6092	3153.4701	2193.75	1306.5
1043.7145	3154.4364	2187.15	1298.75
1043.8197	3155.402	2173.45	1284.95
1043.9248	3156.367	2174.6	1285.5
1044.03	3157.3315	2199.15	1268.95
1044.135	3158.2952	2163.1	1273.85
1044.24	3159.2584	2144.3	1257.3
1044.345	3160.221	2137.9	1250.7
1044.4499	3161.1829	2131.2	1241.7
1044.5548	3162.1442	2128.3	1243.5
1044.6596	3163.105	2120.7	1230.95
1044.7644	3164.065	2104.6	1218.4
1044.8692	3165.0245	2104.65	1214.1
1044.9739	3165.9834	2099.95	1213.55
1045.0785	3166.9416	2093.65	1207.05
1045.1831	3167.8993	2091.35	1204.65
1045.2877	3168.8563	2090.95	1202
1045.3922	3169.8127	2068.8	1181.1
1045.4966	3170.7684	2064.85	1176.25
1045.6011	3171.7236	2055.3	1168.95
1045.7054	3172.6782	2048.75	1161.9
1045.8098	3173.6321	2056.4	1168.25
1045.914	3174.5854	2053.3	1163.05
1046.0183	3175.5381	2035.85	1147.45
1046.1224	3176.4902	2021.35	1135.75
1046.2266	3177.4417	2018.95	1132.75
1046.3307	3178.3926	2007.3	1119.6
1046.4347	3179.3428	2018.2	1131.15
1046.5387	3180.2924	2000.5	1112.75
1046.6427	3181.2415	1995.55	1108.55
1046.7466	3182.1899	1996.3	1108.25
1046.8504	3183.1377	1993.35	1107.25
1046.9542	3184.0848	1986.9	1099
1047.058	3185.0314	1969.05	1081.6
1047.1617	3185.9773	1969.15	1082.5
1047.2654	3186.9227	1962.4	1073.9
1047.369	3187.8674	1952.6	1066.55
1047.4726	3188.8115	1947.75	1056.25
1047.5761	3189.755	1949.3	1061.3
1047.6796	3190.6979	1938.8	1051.5
1047.783	3191.6402	1942.75	1056.1
1047.8864	3192.5818	1927.4	1039.3
1047.9898	3193.5229	1941.85	1029.65
1048.0931	3194.4633	1904.65	1017.1
1048.1963	3195.4031	1909.95	1022.35
1048.2995	3196.3423	1911.35	1025.05
1048.4027	3197.2809	1907.2	1019.7
1048.5058	3198.2189	1904	1017
1048.6089	3199.1563	1890.6	996.1
1048.7119	3200.0931	1881.1	995.3
1048.8148	3201.0292	1872.75	986.9
1048.9178	3201.9648	1868.15	981.65
1049.0206	3202.8997	1869.75	979.45
1049.1235	3203.834	1869.95	985.2
1049.2262	3204.7677	1852.85	965.75
1049.329	3205.7008	1856.85	968.4
1049.4317	3206.6333	1841.25	954.55
1049.5343	3207.5652	1836.75	948.55
1049.6369	3208.4964	1841.4	953.85
1049.7394	3209.4271	1837.35	950.85
1049.8419	3210.3571	1833.75	947.25
1049.9444	3211.2865	1832.8	943.3
1050.0468	3212.2154	1817.4	930.75
1050.1491	3213.1436	1820.35	929.4
1050.2514	3214.0712	1818.6	927
1050.3537	3214.9982	1811.2	925.35
1050.4559	3215.9246	1797.55	908
1050.5581	3216.8503	1795.25	910.8
1050.6602	3217.7755	1790.05	904.4
1050.7623	3218.7001	1789.2	901.8
1050.8643	3219.624	1787.7	900.4
1050.9663	3220.5473	1771.5	885.45
1051.0682	3221.4701	1773.85	885.8
1051.1701	3222.3922	1774.55	884.15
1051.2719	3223.3137	1758.65	872
1051.3737	3224.2346	1762.15	873.65
1051.4754	3225.1549	1755.5	868.95
1051.5771	3226.0746	1755.7	870
1051.6788	3226.9937	1745.2	859.2
1051.7804	3227.9121	1744	858.35
1051.8819	3228.83	1739.95	855.25
1051.9834	3229.7473	1723.2	836.5
1052.0849	3230.6639	1732.15	844.5
1052.1863	3231.5799	1721.7	834.75
1052.2876	3232.4954	1724.9	836.95
1052.3889	3233.4102	1717.2	830.55
1052.4902	3234.3244	1705.15	817
1052.5914	3235.238	1704.4	816.75
1052.6926	3236.151	1726.15	816.95
1052.7937	3237.0634	1696.7	811.7
1052.8948	3237.9752	1698.05	813.15
1052.9958	3238.8864	1688.95	801
1053.0968	3239.797	1673.1	787.95
1053.1977	3240.7069	1678.2	789.35
1053.2986	3241.6163	1668	780.2
1053.3994	3242.5251	1668	781.05
1053.5002	3243.4332	1656.6	768.6
1053.6009	3244.3408	1653.5	767.45
1053.7016	3245.2477	1650.25	762.35
1053.8022	3246.154	1650.7	762
1053.9028	3247.0598	1642	754.95
1054.0034	3247.9649	1636.35	750
1054.1039	3248.8694	1623.25	737.75
1054.2043	3249.7733	1631.5	744.15
1054.3047	3250.6766	1619.75	730.9
1054.4051	3251.5793	1616.55	727.9
1054.5054	3252.4814	1610.75	723.75
1054.6056	3253.3829	1610.1	724.45
1054.7058	3254.2838	1603.65	717.75
1054.806	3255.1841	1599.7	712.45
1054.9061	3256.0838	1596.85	710.3
1055.0061	3256.9829	1585.55	696.45
1055.1062	3257.8814	1584	695.3
1055.2061	3258.7792	1579.05	691.15
1055.306	3259.6765	1579.3	689.3
1055.4059	3260.5731	1566.15	680
1055.5057	3261.4692	1550.45	663.15
1055.6055	3262.3647	1540.15	654.25
1055.7052	3263.2595	1538.25	651.95
1055.8049	3264.1538	1528.7	641.95
1055.9045	3265.0474	1523.45	635.65
1056.0041	3265.9404	1511.95	625.55
1056.1036	3266.8329	1505	618.7
1056.2031	3267.7247	1504.8	608.15
1056.3025	3268.616	1466.6	580.65
1056.4019	3269.5066	1460.55	573.6
1056.5013	3270.3966	1447.45	558.15
1056.6005	3271.286	1425.85	540.75
