Software Version:	3.9.2.0
Unit SN:	10000200
Spectrometer SN:	6960
Date:	3/6/2024 10:53:57 AM
Data Line Index:	25
Spectral Points:	2048
Integration time (ms):	125
Averages:	20
Delay (ms):	30
Sequence Number:	1
Processing:	dark subtract
Laser Power (mW):	300
Laser Current (mA):	822
Laser Diode Temp (C):	25.1
Laser Case Temp (C):	27.8
System Temp (C):	27.6
Spectrometer Temp (C):	25.1
CCD Temp (C):	-0.002
Secondary Temp (C):	20.01
Heatsink Temp (C):	23.376
CCDPCB Temp (C):	36.94
SecondaryPCB Temp (C):	34.717

Wavelength	RamanShift	Raw Counts	Dark Subtracted
787.061	30.1047	1109.85	694.95
787.2016	32.3739	1130.95	720.1
787.3422	34.6426	1178.65	766.5
787.4828	36.9109	1230.25	817.5
787.6235	39.1787	1278.2	861.6
787.7642	41.4461	1338.5	917.5
787.9049	43.7131	1406	977.85
788.0456	45.9796	1468.7	1039.2
788.1863	48.2456	1533.85	1101
788.3271	50.5112	1604.6	1166
788.4679	52.7764	1671.05	1230.5
788.6087	55.0411	1748.85	1304.6
788.7496	57.3054	1845.2	1395.95
788.8904	59.5692	1914.9	1462.8
789.0313	61.8326	2021.4	1566.45
789.1722	64.0955	2117	1656.9
789.3132	66.3579	2249.5	1785.45
789.4541	68.6199	2387.2	1919.55
789.5951	70.8815	2622.25	2151.95
789.7361	73.1426	3125.3	2650.35
789.8771	75.4032	4377.2	3897.15
790.0181	77.6634	7584.65	7098.55
790.1592	79.9231	15788.35	15297.5
790.3003	82.1824	51492.35	50993.75
790.4414	84.4412	65535	65019.5
790.5825	86.6995	65535	64997
790.7237	88.9574	65535	64973.7
790.8648	91.2148	65535	64960.4
791.006	93.4717	65535	64947.6
791.1472	95.7282	65535	64943.45
791.2885	97.9842	65535	64939.95
791.4297	100.2398	65535	64934.95
791.571	102.4949	65535	64935.15
791.7123	104.7495	65535	64929.15
791.8536	107.0036	65535	64929.45
791.9949	109.2573	65535	64927.95
792.1363	111.5105	65535	64926.3
792.2777	113.7632	65535	64927.95
792.4191	116.0154	65535	64915.35
792.5605	118.2672	65535	64918.2
792.7019	120.5185	65535	64924.3
792.8434	122.7693	65535	64914.9
792.9849	125.0197	65535	64913.15
793.1264	127.2696	65535	64910.45
793.2679	129.519	65535	64905.9
793.4094	131.7679	65535	64905.15
793.551	134.0163	65535	64901.05
793.6926	136.2642	65535	64896.2
793.8342	138.5117	65535	64889.35
793.9758	140.7587	65535	64894.75
794.1175	143.0052	65535	64890.9
794.2591	145.2512	65535	64892.75
794.4008	147.4967	65535	64889.2
794.5425	149.7417	65535	64887.6
794.6842	151.9863	65535	64881.8
794.826	154.2304	65535	64879.65
794.9677	156.4739	65535	64875.2
795.1095	158.717	65535	64877.25
795.2513	160.9596	65535	64871.8
795.3931	163.2017	65535	64870.55
795.535	165.4433	65535	64865.7
795.6768	167.6844	65535	64861.7
795.8187	169.925	65535	64860.55
795.9606	172.1651	65535	64859.65
796.1025	174.4047	65535	64855.6
796.2445	176.6439	65535	64853.75
796.3864	178.8825	65535	64852.6
796.5284	181.1206	65535	64847.25
796.6704	183.3582	65535	64841.9
796.8124	185.5954	65535	64841.1
796.9544	187.832	65535	64839.55
797.0965	190.0681	65535	64836.7
797.2386	192.3037	65535	64832.65
797.3806	194.5388	65535	64827.2
797.5228	196.7734	65535	64826.8
797.6649	199.0075	65535	64822.25
797.807	201.2411	65535	64822.95
797.9492	203.4742	65535	64821.4
798.0914	205.7068	65535	64821.1
798.2336	207.9389	65535	64820.5
798.3758	210.1704	65535	64818.9
798.518	212.4015	65535	64817.15
798.6603	214.632	65535	64812.85
798.8025	216.862	65535	64823.9
798.9448	219.0915	65535	64829.95
799.0871	221.3205	65535	64833.75
799.2294	223.549	65535	64835.7
799.3718	225.777	65535	64836.9
799.5141	228.0044	65535	64832.85
799.6565	230.2314	65535	64834.95
799.7989	232.4578	65535	64833.8
799.9413	234.6837	65535	64823.3
800.0837	236.909	65535	64822.95
800.2262	239.1339	65535	64798.45
800.3687	241.3582	65535	64812.9
800.5111	243.582	65535	64780.7
800.6536	245.8053	65535	64793.15
800.7961	248.0281	65535	64796.8
800.9387	250.2503	65535	64793.4
801.0812	252.472	65535	64788.65
801.2238	254.6932	65535	64788.05
801.3664	256.9139	65535	64786.8
801.509	259.134	65535	64783.8
801.6516	261.3536	65535	64784.15
801.7942	263.5727	65535	64783.6
801.9369	265.7912	65535	64783
802.0795	268.0092	65535	64782.15
802.2222	270.2267	65535	64782.6
802.3649	272.4436	65535	64779.95
802.5076	274.6601	65535	64772.95
802.6504	276.8759	65535	64781.05
802.7931	279.0913	65535	64774.55
802.9359	281.3061	65535	64772.05
803.0787	283.5204	65535	64770.45
803.2215	285.7341	65535	64767.1
803.3643	287.9473	65535	64755.85
803.5071	290.16	65535	64761.8
803.6499	292.3721	65535	64770.5
803.7928	294.5837	65535	64764.75
803.9357	296.7947	65535	64766.15
804.0786	299.0052	65535	64767
804.2215	301.2152	65535	64763.55
804.3644	303.4246	65535	64768.25
804.5074	305.6334	65535	64769.45
804.6503	307.8418	65535	64764.9
804.7933	310.0495	65535	64760.7
804.9363	312.2568	65535	64763.05
805.0793	314.4635	65535	64760.4
805.2223	316.6696	65535	64756.6
805.3653	318.8752	65535	64750.65
805.5084	321.0802	65535	64754.2
805.6514	323.2847	65535	64755.95
805.7945	325.4887	65535	64754.35
805.9376	327.692	65535	64754.85
806.0807	329.8949	65535	64752.45
806.2238	332.0972	65535	64750.95
806.367	334.2989	65535	64746.95
806.5101	336.5001	65535	64749.3
806.6533	338.7007	65535	64745.5
806.7965	340.9008	65535	64743.7
806.9397	343.1003	65535	64742.5
807.0829	345.2992	65535	64740.25
807.2261	347.4976	65535	64743.25
807.3693	349.6955	65535	64737.35
807.5126	351.8927	65535	64738.2
807.6559	354.0895	65535	64727
807.7991	356.2856	65535	64736.8
807.9424	358.4812	65535	64737.55
808.0857	360.6763	65535	64737
808.2291	362.8707	65535	64732.55
808.3724	365.0646	65535	64734.85
808.5158	367.258	65535	64727.1
808.6591	369.4508	65535	64726.1
808.8025	371.643	65535	64725.05
808.9459	373.8346	65535	64721.45
809.0893	376.0257	65535	64721.6
809.2327	378.2162	65535	64723
809.3762	380.4062	65535	64717.05
809.5196	382.5956	65535	64717.15
809.6631	384.7844	65535	64716.05
809.8066	386.9726	65535	64715.9
809.9501	389.1603	65535	64717.3
810.0936	391.3474	65535	64677.3
810.2371	393.5339	65535	64718.75
810.3806	395.7199	65535	64723.95
810.5241	397.9052	65535	64727.15
810.6677	400.09	65535	64727
810.8113	402.2743	65535	64728.05
810.9548	404.4579	65535	64724.25
811.0984	406.641	65535	64727
811.2421	408.8235	65535	64721.8
811.3857	411.0054	65535	64723.3
811.5293	413.1868	65535	64723.15
811.673	415.3675	65535	64719.25
811.8166	417.5477	65535	64717.8
811.9603	419.7273	65535	64712.9
812.104	421.9064	65535	64706.8
812.2477	424.0848	65535	64711.7
812.3914	426.2627	65535	64707.5
812.5351	428.4399	65535	64706.2
812.6788	430.6166	65535	64705.85
812.8226	432.7928	65535	64701.65
812.9663	434.9683	65535	64704
813.1101	437.1432	65535	64700.45
813.2539	439.3176	65535	64701.6
813.3977	441.4914	65535	64701.95
813.5415	443.6645	65535	64700.3
813.6853	445.8371	65535	64701.9
813.8291	448.0091	65535	64702.45
813.973	450.1806	65535	64702
814.1168	452.3514	65535	64696.1
814.2607	454.5216	65535	64691.55
814.4046	456.6913	65535	64693.5
814.5485	458.8603	65535	64697.6
814.6924	461.0288	65535	64699.6
814.8363	463.1967	65535	64697.3
814.9802	465.3639	65535	64696.45
815.1241	467.5306	65535	64693
815.2681	469.6967	65535	64695.2
815.412	471.8622	65535	64697.9
815.556	474.0271	65535	64696.5
815.7	476.1914	65535	64692.65
815.844	478.3551	65535	64690.5
815.988	480.5182	65535	64692.85
816.132	482.6807	65535	64693.75
816.276	484.8426	65535	64694.85
816.4201	487.0039	65535	64690.9
816.5641	489.1647	65535	64690
816.7082	491.3248	65535	64692.65
816.8522	493.4843	65535	64691.95
816.9963	495.6432	65535	64692.45
817.1404	497.8015	65535	64687.8
817.2845	499.9592	65535	64690.6
817.4286	502.1163	65535	64689.95
817.5727	504.2728	65535	64687.35
817.7168	506.4287	65535	64692.85
817.861	508.5839	65535	64690.2
818.0051	510.7386	65535	64692.1
818.1493	512.8927	65535	64684.5
818.2935	515.0461	65535	64684.7
818.4377	517.199	65535	64684.75
818.5818	519.3512	65535	64683.25
818.726	521.5029	65535	64680.6
818.8703	523.6539	65535	64683.1
819.0145	525.8043	65535	64678.05
819.1587	527.9541	65535	64681.7
819.303	530.1033	65535	64680.5
819.4472	532.2519	65535	64680.25
819.5915	534.3999	65535	64678
819.7357	536.5472	65535	64679.15
819.88	538.694	65535	64679.5
820.0243	540.8401	65535	64677.5
820.1686	542.9856	65535	64677.05
820.3129	545.1305	65535	64674
820.4572	547.2748	65535	64674.9
820.6016	549.4185	65535	64675.3
820.7459	551.5615	65535	64674
820.8902	553.704	65535	64673.3
821.0346	555.8458	65535	64676.05
821.1789	557.987	65535	64679.15
821.3233	560.1276	65535	64673.25
821.4677	562.2675	65535	64677.75
821.6121	564.4069	65535	64678.6
821.7565	566.5456	65535	64677.7
821.9009	568.6837	65535	64674.45
822.0453	570.8212	65535	64674.95
822.1897	572.958	65535	64670.5
822.3342	575.0942	65535	64676.6
822.4786	577.2299	65535	64673.7
822.6231	579.3648	65535	64678.45
822.7675	581.4992	65535	64675.1
822.912	583.6329	65535	64677.7
823.0565	585.766	65535	64673.45
823.201	587.8985	65535	64676.95
823.3454	590.0304	65535	64651.55
823.4899	592.1616	65535	64671.95
823.6345	594.2922	65535	64672.75
823.779	596.4222	65535	64665.95
823.9235	598.5515	65535	64668.55
824.068	600.6802	65535	64667
824.2126	602.8083	65535	64669.1
824.3571	604.9358	65535	64666.35
824.5017	607.0626	65535	64666.3
824.6462	609.1888	65535	64663.7
824.7908	611.3144	65535	64667.3
824.9354	613.4393	65535	64666.05
825.08	615.5636	65535	64667.7
825.2246	617.6873	65535	64667.85
825.3692	619.8103	65535	64666.2
825.5138	621.9327	65535	64664.75
825.6584	624.0544	65535	64664.9
825.803	626.1756	65535	64665.25
825.9477	628.2961	65535	64664.25
826.0923	630.4159	65535	64667.2
826.237	632.5351	65535	64662.95
826.3816	634.6537	65535	64668
826.5263	636.7716	65535	64662.9
826.6709	638.8889	65535	64666.05
826.8156	641.0056	65535	64661.7
826.9603	643.1216	65535	64662.5
827.105	645.237	65535	64658.65
827.2497	647.3518	65535	64659.85
827.3944	649.4659	65535	64662.9
827.5391	651.5793	65535	64659.25
827.6838	653.6922	65535	64662.4
827.8285	655.8043	65535	64662.65
827.9733	657.9159	65535	64660.5
828.118	660.0268	65535	64658.1
828.2627	662.137	65535	64659.05
828.4075	664.2466	65535	64654.2
828.5522	666.3556	65535	64659.95
828.697	668.4639	65535	64656.65
828.8418	670.5716	65535	64656.1
828.9865	672.6786	65535	64658.05
829.1313	674.785	65535	64657.95
829.2761	676.8907	65535	64656.3
829.4209	678.9958	65535	64660.55
829.5657	681.1002	65535	64656.15
829.7105	683.204	65535	64655.15
829.8553	685.3072	65535	64656.2
830.0001	687.4097	65535	64657.9
830.1449	689.5115	65535	64655.05
830.2898	691.6127	65535	64655.05
830.4346	693.7132	65535	64654
830.5794	695.8131	65535	64641.1
830.7243	697.9123	65535	64651.35
830.8691	700.0109	65535	64652.8
831.014	702.1089	65535	64655.25
831.1588	704.2061	65535	64653.1
831.3037	706.3028	65535	64652.9
831.4486	708.3987	65535	64653.15
831.5935	710.4941	65535	64652.65
831.7383	712.5887	65535	64652.05
831.8832	714.6827	65535	64649.8
832.0281	716.7761	65535	64652.95
832.173	718.8688	65535	64651
832.3179	720.9608	65535	64648.8
832.4628	723.0522	65535	64645.75
832.6077	725.1429	65535	64655
832.7527	727.233	65535	64651.9
832.8976	729.3224	65535	64652.2
833.0425	731.4112	65535	64651.85
833.1874	733.4993	65535	64649.9
833.3324	735.5867	65535	64647.85
833.4773	737.6735	65535	64647.5
833.6222	739.7596	65535	64649.9
833.7672	741.845	65535	64652.2
833.9122	743.9298	65535	64647.65
834.0571	746.014	65535	64649.15
834.2021	748.0974	65535	64647.2
834.347	750.1802	65535	64649.35
834.492	752.2624	65535	64651.2
834.637	754.3439	65535	64648.1
834.782	756.4247	65535	64638.45
834.9269	758.5048	65535	64648.95
835.0719	760.5843	65535	64645.9
835.2169	762.6631	65535	64649.1
835.3619	764.7413	65535	64650.6
835.5069	766.8188	65535	64646.1
835.6519	768.8956	65535	64646.75
835.7969	770.9718	65535	64649.05
835.9419	773.0473	65535	64647.3
836.0869	775.1221	65535	64649.45
836.232	777.1962	65535	64643.95
836.377	779.2697	65535	64644.4
836.522	781.3426	65535	64626
836.667	783.4147	65535	64648.3
836.8121	785.4862	65535	64649.1
836.9571	787.557	65535	64648.05
837.1021	789.6271	65535	64648.55
837.2472	791.6966	65535	64649.75
837.3922	793.7654	65535	64645
837.5373	795.8335	65535	64646.25
837.6823	797.901	65535	64646
837.8274	799.9678	65535	64644.85
837.9724	802.0339	65535	64646.05
838.1175	804.0993	65535	64633.75
838.2626	806.1641	65535	64643.8
838.4076	808.2282	65535	64647.5
838.5527	810.2916	65535	64645.3
838.6978	812.3544	65535	64647
838.8428	814.4164	65535	64643.15
838.9879	816.4778	65535	64645.35
839.133	818.5385	65535	64642.65
839.2781	820.5986	65535	64644
839.4232	822.658	65535	64644.55
839.5682	824.7166	65535	64646.95
839.7133	826.7747	65535	64644.9
839.8584	828.832	65535	64642.45
840.0035	830.8886	65535	64642.7
840.1486	832.9446	65535	64642.35
840.2937	834.9999	65535	64645.1
840.4388	837.0545	65535	64640.35
840.5839	839.1085	65535	64642.9
840.729	841.1618	65535	64640.9
840.8741	843.2143	65535	64643.2
841.0192	845.2662	65535	64643.25
841.1643	847.3175	65535	64644.9
841.3095	849.368	65535	64642.25
841.4546	851.4179	65535	64642.85
841.5997	853.467	65535	64642.9
841.7448	855.5155	65535	64642.1
841.8899	857.5633	65535	64642.65
842.0351	859.6105	65535	64644.1
842.1802	861.6569	65535	64644.05
842.3253	863.7027	65535	64641.7
842.4704	865.7478	65535	64640.65
842.6156	867.7922	65535	64642.2
842.7607	869.8359	65535	64643.85
842.9058	871.8789	65535	64640.4
843.0509	873.9212	65535	64607.75
843.1961	875.9629	65535	64640.55
843.3412	878.0039	65535	64641
843.4863	880.0441	65535	64642.55
843.6315	882.0837	65535	64642.75
843.7766	884.1226	65535	64639.65
843.9218	886.1609	65535	64640.3
844.0669	888.1984	65535	64641.8
844.212	890.2352	65535	64641.25
844.3572	892.2714	65535	64635.7
844.5023	894.3069	65535	64639.45
844.6475	896.3416	65535	64640.15
844.7926	898.3757	65535	64639.7
844.9377	900.4091	65535	64638.55
845.0829	902.4418	65535	64636.35
845.228	904.4739	65535	64638.4
845.3732	906.5052	65535	64640.55
845.5183	908.5358	65535	64639.15
845.6635	910.5658	65535	64638.5
845.8086	912.595	65535	64638.95
845.9538	914.6236	65535	64640.4
846.0989	916.6515	65535	64640.45
846.2441	918.6786	65535	64637.5
846.3892	920.7051	65535	64635.75
846.5344	922.7309	65535	64637.35
846.6795	924.756	65535	64638.85
846.8246	926.7804	65535	64636.2
846.9698	928.8041	65535	64638.75
847.1149	930.8272	65535	64638.55
847.2601	932.8495	65535	64636.8
847.4052	934.8711	65535	64638.95
847.5504	936.892	65535	64637.4
847.6955	938.9123	65535	64635.2
847.8407	940.9318	65535	64639.7
847.9858	942.9506	65535	64636.55
848.131	944.9688	65535	64640.4
848.2761	946.9862	65535	64637.45
848.4213	949.003	65535	64636.75
848.5664	951.019	65535	64639.35
848.7115	953.0344	65535	64637.6
848.8567	955.0491	65535	64637.15
849.0018	957.063	65535	64637.55
849.147	959.0763	65535	64638.15
849.2921	961.0888	65535	64635.65
849.4373	963.1007	65535	64636.2
849.5824	965.1119	65535	64639.45
849.7275	967.1223	65535	64640.75
849.8727	969.1321	65535	64638.05
850.0178	971.1412	65535	64635.6
850.1629	973.1495	65535	64639.85
850.3081	975.1572	65535	64602.85
850.4532	977.1641	65535	64637
850.5983	979.1704	65535	64638.9
850.7435	981.1759	65535	64635.7
850.8886	983.1808	65535	64635.25
851.0337	985.1849	65535	64625.15
851.1788	987.1884	65535	64632.5
851.324	989.1911	65535	64633.75
851.4691	991.1932	65535	64635.65
851.6142	993.1945	65535	64636.8
851.7593	995.1951	65535	64635.65
851.9045	997.1951	65535	64630.9
852.0496	999.1943	65535	64635.65
852.1947	1001.1928	65535	64637
852.3398	1003.1906	65535	64637.8
852.4849	1005.1877	65535	64635.7
852.63	1007.1841	65535	64638.3
852.7751	1009.1798	65535	64637.55
852.9202	1011.1748	65535	64637.45
853.0653	1013.1691	65535	64633.95
853.2104	1015.1627	65535	64635.85
853.3555	1017.1556	65535	64637.8
853.5006	1019.1477	65535	64636.9
853.6457	1021.1392	65535	64638.55
853.7908	1023.1299	65535	64637.85
853.9359	1025.12	65535	64635.3
854.081	1027.1093	65535	64641.1
854.2261	1029.0979	65535	64640.85
854.3712	1031.0859	65535	64640.55
854.5163	1033.0731	65535	64640.1
854.6613	1035.0596	65535	64637
854.8064	1037.0454	65535	64636.85
854.9515	1039.0304	65535	64636.45
855.0965	1041.0148	65535	64637.95
855.2416	1042.9985	65535	64635.55
855.3867	1044.9814	65535	64634.7
855.5317	1046.9636	65535	64636.55
855.6768	1048.9452	65535	64638.25
855.8219	1050.926	65535	64638.1
855.9669	1052.9061	65535	64638.6
856.112	1054.8855	65535	64636.55
856.257	1056.8642	65535	64637.1
856.4021	1058.8421	65535	64635.55
856.5471	1060.8194	65535	64638.6
856.6921	1062.7959	65535	64637.3
856.8372	1064.7717	65535	64635.15
856.9822	1066.7469	65535	64636.95
857.1272	1068.7213	65535	64633.9
857.2723	1070.695	65535	64635.3
857.4173	1072.6679	65535	64637
857.5623	1074.6402	65535	64637.15
857.7073	1076.6117	65535	64631.2
857.8523	1078.5826	65535	64635.85
857.9973	1080.5527	65535	64633.8
858.1423	1082.5221	65535	64634.4
858.2873	1084.4908	65535	64637.1
858.4323	1086.4587	65535	64634.7
858.5773	1088.426	65535	64635.25
858.7223	1090.3925	65535	64629.05
858.8673	1092.3584	65535	64636.45
859.0123	1094.3235	65535	64636.8
859.1573	1096.2879	65535	64635.4
859.3022	1098.2515	65535	64635.3
859.4472	1100.2145	65535	64635.8
859.5922	1102.1767	65535	64636.35
859.7371	1104.1382	65535	64635.55
859.8821	1106.099	65535	64635.5
860.027	1108.0591	65535	64635.4
860.172	1110.0185	65535	64635.9
860.3169	1111.9771	65535	64636.2
860.4619	1113.9351	65535	64637.15
860.6068	1115.8923	65535	64636.95
860.7517	1117.8488	65535	64634.65
860.8967	1119.8045	65535	64637.5
861.0416	1121.7596	65535	64633.75
861.1865	1123.7139	65535	64637.7
861.3314	1125.6675	65535	64638.1
861.4763	1127.6204	65535	64638
861.6212	1129.5726	65535	64631.15
861.7661	1131.524	65535	64637.9
861.911	1133.4748	65535	64634.75
862.0559	1135.4248	65535	64635.4
862.2008	1137.3741	65535	64636.15
862.3457	1139.3226	65535	64633.5
862.4905	1141.2705	65535	64634.9
862.6354	1143.2176	65535	64632.25
862.7803	1145.164	65535	64635.05
862.9251	1147.1097	65535	64634.85
863.07	1149.0546	65535	64633.85
863.2148	1150.9989	65535	64634.8
863.3597	1152.9424	65535	64635.8
863.5045	1154.8852	65535	64635.25
863.6493	1156.8272	65535	64636.35
863.7942	1158.7686	65535	64628.55
863.939	1160.7092	65535	64634.25
864.0838	1162.6491	65535	64632.95
864.2286	1164.5883	65535	64635.65
864.3734	1166.5267	65535	64635.2
864.5182	1168.4644	65535	64634.6
864.663	1170.4014	65535	64630.55
864.8078	1172.3377	65535	64634.95
864.9526	1174.2732	65535	64638.75
865.0974	1176.2081	65535	64638.9
865.2421	1178.1421	65535	64632.6
865.3869	1180.0755	65535	64637.15
865.5317	1182.0082	65535	64639.65
865.6764	1183.9401	65535	64634.6
865.8212	1185.8713	65535	64636.85
865.9659	1187.8017	65535	64636.3
866.1106	1189.7315	65535	64640.1
866.2554	1191.6605	65535	64608.95
866.4001	1193.5888	65535	64637.8
866.5448	1195.5163	65535	64636.3
866.6895	1197.4432	65535	64634.65
866.8342	1199.3693	65535	64635.8
866.9789	1201.2947	65535	64632.95
867.1236	1203.2193	65535	64634.05
867.2683	1205.1432	65535	64634.3
867.413	1207.0664	65535	64634.6
867.5576	1208.9889	65535	64633.85
867.7023	1210.9106	65535	64638.15
867.847	1212.8316	65535	64635.75
867.9916	1214.7519	65535	64627.35
868.1363	1216.6715	65535	64634.5
868.2809	1218.5903	65535	64637.6
868.4255	1220.5084	65535	64634.95
868.5701	1222.4257	65535	64633.35
868.7148	1224.3424	65535	64637.1
868.8594	1226.2583	65535	64629.5
869.004	1228.1735	65535	64636.15
869.1486	1230.0879	65535	64636
869.2932	1232.0016	65535	64635.25
869.4377	1233.9146	65535	64634.55
869.5823	1235.8269	65535	64637.15
869.7269	1237.7384	65535	64636.5
869.8715	1239.6492	65535	64637.1
870.016	1241.5592	65535	64635.1
870.1606	1243.4686	65535	64635.15
870.3051	1245.3772	65535	64636.25
870.4496	1247.285	65535	64637.55
870.5941	1249.1922	65535	64636.4
870.7387	1251.0986	65535	64637.3
870.8832	1253.0042	65535	64633.7
871.0277	1254.9092	65535	64636.65
871.1722	1256.8134	65535	64635.3
871.3167	1258.7169	65535	64634.35
871.4611	1260.6196	65535	64634.9
871.6056	1262.5216	65535	64632.9
871.7501	1264.4229	65535	64636
871.8945	1266.3234	65535	64635.75
872.039	1268.2232	65535	64636.2
872.1834	1270.1223	65535	64635.95
872.3278	1272.0207	65535	64636.25
872.4723	1273.9183	65535	64630.9
872.6167	1275.8151	65535	64637.55
872.7611	1277.7113	65535	64633.5
872.9055	1279.6067	65535	64635.4
873.0499	1281.5014	65535	64634.85
873.1943	1283.3953	65535	64633.25
873.3386	1285.2885	65535	64637.75
873.483	1287.181	65535	64635.65
873.6274	1289.0727	65535	64636.9
873.7717	1290.9637	65535	64636.2
873.9161	1292.854	65535	64635.75
874.0604	1294.7435	65535	64635.75
874.2047	1296.6323	65535	64633.2
874.349	1298.5204	65535	64633.1
874.4933	1300.4077	65535	64634.95
874.6376	1302.2943	65535	64637.7
874.7819	1304.1802	65535	64638.1
874.9262	1306.0653	65535	64634.75
875.0705	1307.9497	65535	64634.75
875.2147	1309.8333	65535	64635.5
875.359	1311.7162	65535	64635.45
875.5032	1313.5984	65535	64634.85
875.6475	1315.4798	65535	64620.15
875.7917	1317.3605	65535	64621.15
875.9359	1319.2405	65535	64631.6
876.0801	1321.1197	65535	64634.3
876.2243	1322.9982	65535	64631.8
876.3685	1324.876	65535	64635.85
876.5127	1326.753	65535	64634.65
876.6569	1328.6293	65535	64632.05
876.801	1330.5048	65535	64634.75
876.9452	1332.3796	65535	64636.8
877.0893	1334.2537	65535	64612.9
877.2335	1336.127	65535	64635.5
877.3776	1337.9996	65535	64636.4
877.5217	1339.8714	65535	64633.9
877.6658	1341.7426	65535	64591.9
877.8099	1343.6129	65535	64636.55
877.954	1345.4826	65535	64635.1
878.0981	1347.3515	65535	64634.75
878.2422	1349.2196	65535	64635.5
878.3862	1351.087	65535	64635.4
878.5303	1352.9537	65535	64634.3
878.6743	1354.8197	65535	64634.75
878.8184	1356.6849	65535	64634.35
878.9624	1358.5493	65535	64637.45
879.1064	1360.4131	65535	64634.7
879.2504	1362.276	65535	64638.7
879.3944	1364.1383	65535	64636.3
879.5384	1365.9998	65535	64631.3
879.6823	1367.8606	65535	64632.95
879.8263	1369.7206	65535	64635.95
879.9702	1371.5799	65535	64633.2
880.1142	1373.4384	65535	64636.2
880.2581	1375.2962	65535	64634.6
880.402	1377.1533	65535	64637.8
880.5459	1379.0096	65535	64634
880.6898	1380.8652	65535	64636.55
880.8337	1382.7201	65535	64635.25
880.9776	1384.5742	65535	64635.1
881.1215	1386.4275	65535	64633.9
881.2653	1388.2802	65535	64637.1
881.4092	1390.132	65535	64636.85
881.553	1391.9832	65535	64632.95
881.6968	1393.8336	65535	64634.7
881.8406	1395.6832	65535	64634.7
881.9844	1397.5322	65535	64635.15
882.1282	1399.3803	65535	64630.2
882.272	1401.2278	65535	64633.85
882.4158	1403.0745	65535	64635.5
882.5595	1404.9204	65535	64637.2
882.7033	1406.7656	65535	64636.85
882.847	1408.6101	65535	64635.95
882.9908	1410.4538	65535	64635.65
883.1345	1412.2968	65535	64635.1
883.2782	1414.139	65535	64636.45
883.4219	1415.9805	65535	64636
883.5656	1417.8213	65535	64628.4
883.7092	1419.6613	65535	64636.05
883.8529	1421.5006	65535	64634.45
883.9965	1423.3391	65535	64635.55
884.1402	1425.1769	65535	64633.4
884.2838	1427.0139	65535	64635.8
884.4274	1428.8502	65535	64635.7
884.571	1430.6858	65535	64634.3
884.7146	1432.5206	65535	64635.3
884.8582	1434.3547	65535	64636.95
885.0018	1436.188	65535	64636.1
885.1453	1438.0206	65535	64636.8
885.2889	1439.8524	65535	64635.15
885.4324	1441.6835	65535	64635.1
885.5759	1443.5139	65535	64631.3
885.7194	1445.3435	65535	64636.2
885.8629	1447.1724	65535	64637.8
886.0064	1449.0005	65535	64637.75
886.1499	1450.8279	65535	64635.8
886.2933	1452.6545	65535	64636.65
886.4368	1454.4804	65535	64637.85
886.5802	1456.3056	65535	64628.35
886.7237	1458.13	65535	64636.3
886.8671	1459.9536	65535	64636.25
887.0105	1461.7766	65535	64637.35
887.1539	1463.5987	65535	64636.45
887.2972	1465.4202	65535	64637.8
887.4406	1467.2409	65535	64638.45
887.584	1469.0608	65535	64634.75
887.7273	1470.88	65535	64634.65
887.8706	1472.6984	65535	64637
888.0139	1474.5161	65535	64635.35
888.1572	1476.3331	65535	64635.75
888.3005	1478.1493	65535	64635.55
888.4438	1479.9648	65535	64637.1
888.5871	1481.7795	65535	64635.3
888.7303	1483.5935	65535	64634.3
888.8736	1485.4067	65535	64636.85
889.0168	1487.2192	65535	64635.7
889.16	1489.031	65535	64633.4
889.3032	1490.842	65535	64634.5
889.4464	1492.6522	65535	64637.2
889.5896	1494.4618	65535	64634.6
889.7327	1496.2705	65535	64634.8
889.8759	1498.0785	65535	64636.5
890.019	1499.8858	65535	64636.2
890.1622	1501.6924	65535	64637.6
890.3053	1503.4981	65535	64635.9
890.4484	1505.3032	65535	64635.4
890.5914	1507.1075	65535	64635.7
890.7345	1508.911	65535	64636.1
890.8776	1510.7138	65535	64634.7
891.0206	1512.5159	65535	64634.9
891.1637	1514.3172	65535	64637.35
891.3067	1516.1178	65535	64638.75
891.4497	1517.9176	65535	64633.85
891.5927	1519.7166	65535	64636.9
891.7357	1521.515	65535	64629.35
891.8786	1523.3126	65535	64635.05
892.0216	1525.1094	65535	64635.4
892.1645	1526.9055	65535	64638.5
892.3074	1528.7008	65535	64637.1
892.4503	1530.4954	65535	64630
892.5932	1532.2893	65535	64639.45
892.7361	1534.0824	65535	64636.1
892.879	1535.8747	65527.2	64628.4
893.0218	1537.6663	65535	64636.85
893.1647	1539.4572	65514.85	64613.95
893.3075	1541.2473	65526.75	64628.2
893.4503	1543.0367	65527.9	64631.2
893.5931	1544.8253	65522.8	64619.35
893.7359	1546.6132	65526.15	64624.2
893.8787	1548.4003	65515.3	64607.05
894.0214	1550.1867	65500.4	64593.55
894.1642	1551.9723	65487.3	64585.5
894.3069	1553.7572	65495.25	64595.95
894.4496	1555.5414	65517.9	64621.35
894.5923	1557.3247	65209.75	64312.5
894.735	1559.1074	65502.25	64605.3
894.8777	1560.8893	65407.65	64511.75
895.0204	1562.6705	65448.25	64551.7
895.163	1564.4509	65246.35	64350.15
895.3056	1566.2305	65387.4	64493.9
895.4482	1568.0094	65465.35	64569.75
895.5908	1569.7876	65391.55	64495.55
895.7334	1571.565	65218.95	64322.7
895.876	1573.3417	65333.2	64438.6
896.0186	1575.1176	65268.7	64372.8
896.1611	1576.8928	65172.65	64275.75
896.3036	1578.6672	64889.85	63995.3
896.4461	1580.4409	65076.15	64182.8
896.5886	1582.2138	64624.05	63726.25
896.7311	1583.986	64765.2	63869.15
896.8736	1585.7575	64228.7	63331.3
897.0161	1587.5282	64438.4	63545
897.1585	1589.2981	64467.5	63571.35
897.3009	1591.0673	63870.3	62976.25
897.4433	1592.8358	63406.6	62513.15
897.5857	1594.6035	63851.2	62952.4
897.7281	1596.3704	63912.4	63017.5
897.8705	1598.1366	62945.8	62050.35
898.0128	1599.9021	62469.9	61573.95
898.1551	1601.6668	63300.9	62402.55
898.2975	1603.4308	62802.9	61906.25
898.4398	1605.194	62906	62004.05
898.5821	1606.9564	61782.5	60887
898.7243	1608.7182	62429.5	61530.35
898.8666	1610.4791	61808	60914.7
899.0088	1612.2394	62380.4	61485.25
899.1511	1613.9988	61698.15	60801.45
899.2933	1615.7576	62489.45	61593.45
899.4355	1617.5156	62421.6	61520.35
899.5776	1619.2728	63296.65	62397.95
899.7198	1621.0293	62020.85	61126.2
899.862	1622.785	62005.85	61106.2
900.0041	1624.54	62407.55	61509.35
900.1462	1626.2942	61785.35	60891.25
900.2883	1628.0477	60747.25	59850.85
900.4304	1629.8005	60054.9	59157.7
900.5725	1631.5525	60740.55	59846.7
900.7145	1633.3037	59494.9	58602.7
900.8566	1635.0542	59361.8	58467.4
900.9986	1636.804	59735.9	58839.65
901.1406	1638.553	58739.75	57738.9
901.2826	1640.3013	58998.1	58103.55
901.4245	1642.0488	58326.25	57431.6
901.5665	1643.7955	58707.25	57813.6
901.7085	1645.5416	58238.45	57344.2
901.8504	1647.2868	57824.45	56932.8
901.9923	1649.0313	58522.45	57627.25
902.1342	1650.7751	58133.15	57234.2
902.2761	1652.5181	57740.25	56845.1
902.4179	1654.2604	57839.9	56945.95
902.5598	1656.0019	58354.75	57459.95
902.7016	1657.7427	58066.55	57171.4
902.8434	1659.4828	58620.85	57727.35
902.9852	1661.222	58327.85	57431.5
903.127	1662.9606	58689.55	57796.1
903.2687	1664.6984	58047.35	57152.25
903.4105	1666.4354	57982.2	57086.55
903.5522	1668.1717	56924.15	56030.25
903.6939	1669.9072	56185.3	55291.15
903.8356	1671.642	55882.45	54985.95
903.9773	1673.3761	55567.8	54675.6
904.119	1675.1094	55193.8	54300.3
904.2606	1676.8419	54688.9	53793.35
904.4022	1678.5737	54450.45	53556.6
904.5439	1680.3048	54162.7	53268.75
904.6855	1682.0351	53803.55	52909.45
904.827	1683.7646	53517.45	52620.9
904.9686	1685.4934	53513.45	52620.25
905.1101	1687.2215	52770.45	51875.4
905.2517	1688.9488	53009.15	52115.35
905.3932	1690.6754	52125.05	51232.6
905.5347	1692.4012	52400.95	51505.85
905.6761	1694.1263	52221.2	51329
905.8176	1695.8506	51932.1	51038.95
905.9591	1697.5742	51760.55	50866.75
906.1005	1699.297	51525.5	50630.9
906.2419	1701.0191	51321.35	50427.25
906.3833	1702.7404	51025.15	50134.05
906.5246	1704.461	50733.5	49840.45
906.666	1706.1808	50597.85	49701.85
906.8073	1707.8999	50477.8	49583.9
906.9487	1709.6182	50231.85	49336.6
907.09	1711.3358	50079.55	49188.5
907.2313	1713.0527	49916	49023.35
907.3725	1714.7688	49746.05	48848.35
907.5138	1716.4841	49357.15	48460.3
907.655	1718.1987	49398.05	48498.4
907.7962	1719.9126	49180.8	48288.95
907.9374	1721.6257	48953	48056.45
908.0786	1723.338	48941.9	48047.7
908.2198	1725.0496	48532.4	47638
908.3609	1726.7605	48451.75	47557.65
908.502	1728.4706	48265.4	47370
908.6431	1730.18	47984.3	47088.85
908.7842	1731.8886	47885.5	46992.65
908.9253	1733.5964	47736.65	46822.65
909.0664	1735.3036	47629.9	46733.8
909.2074	1737.0099	47482.7	46588.8
909.3484	1738.7156	47314.75	46422.65
909.4894	1740.4204	47102.8	46207.2
909.6304	1742.1246	46975.85	46081.95
909.7714	1743.8279	46856.65	45962.7
909.9123	1745.5306	46775.1	45881.45
910.0532	1747.2325	46542.35	45651.85
910.1941	1748.9336	46332.55	45440.2
910.335	1750.634	46172.15	45274.55
910.4759	1752.3336	46062.45	45169.6
910.6168	1754.0325	45973.05	45082.3
910.7576	1755.7307	45847.1	44954.65
910.8984	1757.4281	45749.45	44856.1
911.0392	1759.1247	45682	44778.8
911.18	1760.8206	45451.9	44554.65
911.3208	1762.5158	45401.45	44506.1
911.4615	1764.2102	45193.95	44300.4
911.6022	1765.9039	45030.8	44137.3
911.7429	1767.5968	44924.2	44033.95
911.8836	1769.289	44780.45	43888.55
912.0243	1770.9804	44648	43752.35
912.1649	1772.6711	44593.6	43700.7
912.3056	1774.361	44395.8	43500.95
912.4462	1776.0502	44330.25	43436.85
912.5868	1777.7386	44121.6	43227.15
912.7274	1779.4263	44040	43146.9
912.8679	1781.1132	43997.95	43105.6
913.0084	1782.7994	43790	42897.45
913.149	1784.4849	43712.3	42821.2
913.2895	1786.1696	43560.75	42659.7
913.4299	1787.8535	43429.6	42536.9
913.5704	1789.5367	43263.8	42371.25
913.7108	1791.2192	43168.4	42276.1
913.8513	1792.9009	42943.7	42023.05
913.9917	1794.5818	42895.2	41998.6
914.132	1796.2621	42742.45	41850.5
914.2724	1797.9415	42656.9	41765.5
914.4128	1799.6202	42490.9	41598.2
914.5531	1801.2982	42368.25	41475.75
914.6934	1802.9755	42331.65	41435.95
914.8337	1804.6519	42227	41332.8
914.9739	1806.3277	41977.95	41086.2
915.1142	1808.0027	41765.7	40874.1
915.2544	1809.6769	41780.5	40888.3
915.3946	1811.3504	41628.8	40734.8
915.5348	1813.0231	41527.2	40634.6
915.675	1814.6951	41469.3	40577.3
915.8151	1816.3664	41410.4	40514.2
915.9553	1818.0369	41260.95	40366.85
916.0954	1819.7067	41076.9	40185.7
916.2355	1821.3757	40991.05	40096.35
916.3755	1823.044	40925.55	40033.8
916.5156	1824.7115	40766.3	39872.75
916.6556	1826.3783	40541.15	39650.45
916.7956	1828.0443	40436.35	39544.55
916.9356	1829.7096	40381.5	39487.35
917.0756	1831.3741	40369.3	39472.9
917.2155	1833.0379	40184.85	39293.55
917.3555	1834.701	40043.65	39149.9
917.4954	1836.3633	39986.2	39090.7
917.6353	1838.0248	39819.35	38925.85
917.7751	1839.6856	39674.7	38781.45
917.915	1841.3457	39693.85	38804.25
918.0548	1843.005	39510.5	38616.35
918.1946	1844.6636	39454.2	38563.95
918.3344	1846.3214	39274.4	38381.2
918.4742	1847.9785	39280.2	38388.75
918.6139	1849.6349	39155.95	38260.15
918.7537	1851.2904	39049.95	38148.35
918.8934	1852.9453	38913.95	38021.3
919.0331	1854.5994	38793.15	37898.6
919.1727	1856.2528	38805.25	37908.7
919.3124	1857.9054	38650.3	37758.55
919.452	1859.5572	38537.9	37644.65
919.5916	1861.2083	38454.7	37561.4
919.7312	1862.8587	38421.3	37526.4
919.8708	1864.5084	38244.4	37351.1
920.0103	1866.1572	38172.3	37281.15
920.1498	1867.8054	37972.6	37078.35
920.2893	1869.4528	37869.3	36978.5
920.4288	1871.0994	37801.1	36907.25
920.5683	1872.7453	37679.5	36786.7
920.7077	1874.3905	37620.55	36721.85
920.8471	1876.0349	37442.1	36549.3
920.9865	1877.6786	37450.25	36555.55
921.1259	1879.3215	37399.75	36508.25
921.2653	1880.9637	37213.05	36320.35
921.4046	1882.6051	37209.35	36318.45
921.5439	1884.2458	37053.1	36161.75
921.6832	1885.8858	36909.55	36017.2
921.8225	1887.525	36801.35	35907.35
921.9617	1889.1634	36622.6	35730.75
922.101	1890.8011	36454.4	35562.65
922.2402	1892.4381	36380.1	35485.1
922.3794	1894.0743	36355.7	35464.1
922.5185	1895.7098	36192.65	35299.45
922.6577	1897.3446	36152.95	35259.65
922.7968	1898.9786	36010.25	35112.05
922.9359	1900.6118	35925.9	35033.75
923.075	1902.2443	35741.25	34847.45
923.214	1903.8761	35693.5	34801.4
923.3531	1905.5071	35461.05	34569.95
923.4921	1907.1374	35336.05	34443.5
923.6311	1908.7669	35306.95	34414.25
923.77	1910.3957	35173.8	34282.1
923.909	1912.0237	34985.65	34093.15
924.0479	1913.651	34918.2	34024.65
924.1868	1915.2776	34787.5	33896.7
924.3257	1916.9034	34659.55	33766.6
924.4646	1918.5285	34510.2	33619.35
924.6034	1920.1528	34279.35	33387.65
924.7422	1921.7764	34250.25	33358.2
924.881	1923.3992	34109.25	33216
925.0198	1925.0213	33899.55	33008.15
925.1586	1926.6427	33710.9	32819.75
925.2973	1928.2633	33762.3	32761.65
925.436	1929.8832	33563.15	32668.9
925.5747	1931.5023	33390.8	32498.4
925.7134	1933.1207	33342.45	32451.15
925.852	1934.7383	33244.85	32352.95
925.9906	1936.3552	33070.8	32179
926.1292	1937.9714	33013.05	32119.7
926.2678	1939.5868	32829.55	31935.45
926.4064	1941.2015	32612.75	31719.15
926.5449	1942.8154	32568.15	31678.25
926.6834	1944.4286	32355.4	31463.2
926.8219	1946.041	32235.5	31325.65
926.9604	1947.6528	32090	31193.85
927.0988	1949.2637	31987.7	31096.55
927.2372	1950.8739	31861.35	30968.5
927.3756	1952.4834	31830.35	30938.25
927.514	1954.0921	31740.35	30846.95
927.6523	1955.7001	31618.1	30723.35
927.7907	1957.3074	31496.2	30605.65
927.929	1958.9139	31301.1	30409.8
928.0673	1960.5197	31233.7	30341.8
928.2055	1962.1247	31129.2	30238.7
928.3438	1963.729	30960.6	30068.75
928.482	1965.3325	30811.85	29896.45
928.6202	1966.9353	30701.1	29809.1
928.7584	1968.5374	30590.7	29697.9
928.8965	1970.1387	30498.5	29604.4
929.0346	1971.7393	30410.5	29518.3
929.1727	1973.3392	30315.3	29425.25
929.3108	1974.9383	30141.4	29248.65
929.4489	1976.5366	29984.25	29091.35
929.5869	1978.1342	29973.85	29082.85
929.7249	1979.7311	29914.9	29021.3
929.8629	1981.3273	29800.95	28909
930.0009	1982.9227	29682.8	28789
930.1388	1984.5173	29531.05	28640.3
930.2767	1986.1112	29428.45	28538.05
930.4146	1987.7044	29358.75	28467.25
930.5525	1989.2968	29224.25	28332.1
930.6904	1990.8885	29175.75	28279.65
930.8282	1992.4795	29057.65	28164.7
930.966	1994.0697	28976.95	28083.65
931.1038	1995.6592	28863.45	27973.1
931.2415	1997.2479	28712.25	27821.75
931.3793	1998.8359	28625.7	27734.5
931.517	2000.4232	28513.55	27622.35
931.6547	2002.0097	28413.65	27524.65
931.7923	2003.5955	28277.45	27385.6
931.93	2005.1805	28247.75	27354.45
932.0676	2006.7648	28164.05	27272.7
932.2052	2008.3484	28038	27147.95
932.3427	2009.9312	28055.1	27162.55
932.4803	2011.5133	27925.1	27035
932.6178	2013.0946	27826.2	26936.15
932.7553	2014.6752	27708.9	26816.8
932.8928	2016.2551	27655.65	26764.8
933.0302	2017.8342	27494.5	26601.45
933.1676	2019.4126	27407.75	26515.25
933.305	2020.9902	27255.7	26364.55
933.4424	2022.5672	27250.35	26357.15
933.5798	2024.1433	27177.55	26281.85
933.7171	2025.7188	27089.8	26199.35
933.8544	2027.2935	26971.9	26079.2
933.9917	2028.8674	26818.15	25926.6
934.129	2030.4406	26760	25869.1
934.2662	2032.0131	26643.2	25753.75
934.4034	2033.5849	26537.15	25639.15
934.5406	2035.1559	26503.85	25613.2
934.6778	2036.7261	26445.95	25555.6
934.8149	2038.2957	26355.25	25463
934.952	2039.8645	26300.1	25409.6
935.0891	2041.4325	26297.1	25403.5
935.2262	2042.9998	26123	25231.05
935.3632	2044.5664	26042.75	25148.4
935.5002	2046.1323	25978.95	25086.8
935.6372	2047.6974	25848.25	24958.05
935.7742	2049.2617	25817.4	24928.6
935.9111	2050.8254	25768.65	24856.65
936.048	2052.3883	25712	24819.75
936.1849	2053.9504	25599.4	24707.9
936.3218	2055.5118	25510.5	24617.25
936.4586	2057.0725	25389.45	24494.55
936.5955	2058.6325	25332.7	24441.9
936.7323	2060.1917	25229.8	24338.75
936.869	2061.7502	25191.15	24296.6
937.0058	2063.3079	25064.6	24173.95
937.1425	2064.8649	24988.85	24095.2
937.2792	2066.4212	24928.55	24035.75
937.4159	2067.9767	24838.3	23948.5
937.5525	2069.5315	24729.4	23838.55
937.6891	2071.0856	24585.15	23693.4
937.8257	2072.6389	24514.6	23620.55
937.9623	2074.1915	24404.9	23515.4
938.0989	2075.7433	24302.1	23409.05
938.2354	2077.2945	24209.35	23320.15
938.3719	2078.8448	24112.55	23221.6
938.5084	2080.3945	24063.3	23172.4
938.6448	2081.9434	24010.85	23119.9
938.7812	2083.4916	23898.35	23006.05
938.9176	2085.039	23769.9	22875.1
939.054	2086.5857	23729.95	22836.7
939.1903	2088.1317	23720.4	22826.55
939.3267	2089.677	23560.2	22668.45
939.463	2091.2215	23542.2	22650.4
939.5992	2092.7652	23484.65	22589.2
939.7355	2094.3083	23439.1	22547.25
939.8717	2095.8506	23386.4	22496.7
940.0079	2097.3921	23341.5	22452.2
940.1441	2098.933	23214.2	22324.65
940.2802	2100.4731	23157.45	22265.2
940.4163	2102.0124	23132.95	22232.5
940.5524	2103.5511	23024.9	22132.65
940.6885	2105.089	22999.5	22107.25
940.8245	2106.6261	22898.6	22006.6
940.9606	2108.1626	22817.2	21926.25
941.0965	2109.6983	22804.4	21885.7
941.2325	2111.2332	22699.75	21806.85
941.3684	2112.7675	22638.9	21746.4
941.5044	2114.301	22570.7	21676.45
941.6403	2115.8337	22519.45	21626.65
941.7761	2117.3657	22457.7	21566
941.912	2118.897	22385.5	21494.9
942.0478	2120.4276	22260.6	21362.95
942.1835	2121.9575	22207.65	21315.6
942.3193	2123.4866	22233	21327
942.455	2125.0149	22149.15	21252.85
942.5907	2126.5426	21996.55	21102.35
942.7264	2128.0695	21943	21048.3
942.8621	2129.5956	21852.9	20961.3
942.9977	2131.1211	21846.45	20950.75
943.1333	2132.6458	21747.7	20855.55
943.2689	2134.1698	21673.05	20781.15
943.4044	2135.693	21629.6	20734.3
943.54	2137.2155	21542.8	20647.3
943.6755	2138.7373	21515.3	20622.15
943.8109	2140.2584	21439.2	20546.65
943.9464	2141.7787	21384	20488.35
944.0818	2143.2983	21261.3	20371.3
944.2172	2144.8171	21116.5	20227.75
944.3526	2146.3353	21124.1	20230.6
944.4879	2147.8527	20985.1	20093.75
944.6232	2149.3693	20984.45	20091.4
944.7585	2150.8853	20904.1	20010.15
944.8938	2152.4005	20793.8	19901.25
945.029	2153.9149	20757.45	19866.35
945.1642	2155.4287	20695.7	19804.55
945.2994	2156.9417	20636.2	19743.8
945.4346	2158.454	20576.3	19683.85
945.5697	2159.9655	20511.75	19619.05
945.7048	2161.4764	20469.05	19577.6
945.8399	2162.9865	20387.05	19494.6
945.9749	2164.4958	20324.75	19431.4
946.1099	2166.0045	20276.8	19380.05
946.2449	2167.5124	20240.2	19348.15
946.3799	2169.0195	20165.6	19273.45
946.5148	2170.526	20106.1	19213.75
946.6498	2172.0317	20038.15	19145.7
946.7846	2173.5367	20002.65	19109.05
946.9195	2175.0409	19936.1	19046.2
947.0543	2176.5445	19886.2	18995.5
947.1891	2178.0473	19813.6	18922
947.3239	2179.5494	19705.55	18810.55
947.4587	2181.0507	19643.6	18751.15
947.5934	2182.5513	19558.45	18665.85
947.7281	2184.0512	19539.95	18647.95
947.8628	2185.5504	19465	18574.35
947.9974	2187.0488	19347.45	18455.85
948.132	2188.5465	19299.15	18406.95
948.2666	2190.0435	19257.9	18364.4
948.4012	2191.5397	19161.05	18272.4
948.5357	2193.0353	19102.6	18212.15
948.6702	2194.5301	18990.85	18096.55
948.8047	2196.0241	18886.1	17994.15
948.9392	2197.5175	18867.4	17974.85
949.0736	2199.0101	18794	17898.5
949.208	2200.502	18713.25	17822.2
949.3424	2201.9931	18634.05	17745.2
949.4767	2203.4835	18572.6	17680.3
949.611	2204.9733	18470.05	17573.45
949.7453	2206.4622	18434.55	17543.7
949.8796	2207.9505	18335.75	17441.35
950.0138	2209.438	18289.9	17397.85
950.148	2210.9248	18229.35	17335.95
950.2822	2212.4109	18140.4	17249.55
950.4164	2213.8962	18096.15	17203.35
950.5505	2215.3809	18078.95	17185.75
950.6846	2216.8648	18000.1	17106.95
950.8186	2218.3479	17961.75	17065.85
950.9527	2219.8304	17864.05	16968.5
951.0867	2221.3121	17803.75	16910.95
951.2207	2222.7931	17708.75	16817.4
951.3546	2224.2733	17669.8	16778.35
951.4886	2225.7529	17627.65	16734.15
951.6225	2227.2317	17544.05	16649.6
951.7563	2228.7098	17528.3	16637.85
951.8902	2230.1872	17408.45	16515.8
952.024	2231.6638	17408.25	16515.9
952.1578	2233.1397	17311.3	16413.8
952.2916	2234.6149	17289.5	16397.75
952.4253	2236.0894	17179.8	16287.15
952.559	2237.5632	17161.3	16260.35
952.6927	2239.0362	17093.8	16202.9
952.8263	2240.5085	17000.65	16109.25
952.9599	2241.9801	16933.95	16039
953.0935	2243.4509	16869.45	15976.55
953.2271	2244.921	16811.85	15921.55
953.3606	2246.3904	16771.35	15877.5
953.4941	2247.8591	16704.3	15812.55
953.6276	2249.3271	16650.8	15758.75
953.7611	2250.7943	16635.75	15744.5
953.8945	2252.2608	16540.55	15648.5
954.0279	2253.7266	16485.75	15594.2
954.1612	2255.1917	16435.5	15544
954.2946	2256.656	16352.25	15459.1
954.4279	2258.1197	16281	15388.4
954.5612	2259.5826	16231.75	15337.9
954.6944	2261.0447	16197.9	15303.55
954.8276	2262.5062	16120.5	15224.65
954.9608	2263.9669	16111.3	15218.2
955.094	2265.4269	16061.5	15170.2
955.2271	2266.8862	16005.9	15113.65
955.3602	2268.3448	15966.1	15074.6
955.4933	2269.8026	15950.2	15056.25
955.6264	2271.2598	15861.3	14969.25
955.7594	2272.7162	15796.4	14904.1
955.8924	2274.1719	15754.5	14861.2
956.0253	2275.6268	15719.65	14827.9
956.1583	2277.0811	15684.65	14791
956.2912	2278.5346	15650.5	14757.15
956.4241	2279.9874	15575.9	14681.3
956.5569	2281.4395	15555.05	14664.75
956.6897	2282.8908	15514.8	14618.9
956.8225	2284.3414	15459.15	14568.4
956.9553	2285.7914	15378.95	14487.35
957.088	2287.2406	15332.55	14438.45
957.2207	2288.689	15292.9	14400.65
957.3534	2290.1368	15254.4	14361.55
957.486	2291.5838	15168.1	14274.6
957.6186	2293.0302	15130.75	14236.75
957.7512	2294.4758	15055.5	14162.85
957.8838	2295.9206	15012.2	14118.4
958.0163	2297.3648	14988.05	14097.25
958.1488	2298.8082	14949.95	14055.3
958.2813	2300.251	14853.15	13960.1
958.4137	2301.693	14833.45	13938.4
958.5461	2303.1343	14841.85	13947.65
958.6785	2304.5748	14772.85	13881.8
958.8108	2306.0147	14700.65	13809.35
958.9432	2307.4538	14677.25	13783.3
959.0754	2308.8922	14625.4	13734.55
959.2077	2310.3299	14542.85	13649.8
959.3399	2311.7669	14537.85	13647.25
959.4721	2313.2031	14476.8	13585.55
959.6043	2314.6387	14410.35	13518.55
959.7365	2316.0735	14349.95	13457.45
959.8686	2317.5076	14330.45	13440.1
960.0006	2318.941	14271.5	13379.2
960.1327	2320.3737	14217.25	13322.8
960.2647	2321.8056	14185.7	13290.35
960.3967	2323.2369	14136.35	13243.5
960.5287	2324.6674	14061.9	13166.9
960.6606	2326.0972	14004.2	13111.6
960.7925	2327.5263	13959.05	13066.95
960.9244	2328.9547	13932.9	13041.85
961.0562	2330.3823	13884.9	12992.55
961.1881	2331.8092	13864.2	12970.4
961.3198	2333.2355	13779.65	12887.8
961.4516	2334.661	13765.8	12872.8
961.5833	2336.0858	13729.8	12835.85
961.715	2337.5098	13689.65	12798.8
961.8467	2338.9332	13672.45	12781.55
961.9783	2340.3558	13638.75	12743.2
962.1099	2341.7778	13573.8	12678.6
962.2415	2343.199	13521.05	12627.1
962.373	2344.6195	13475.45	12584.45
962.5045	2346.0393	13422.5	12531.9
962.636	2347.4583	13390.7	12499.35
962.7675	2348.8767	13342.25	12449
962.8989	2350.2943	13329.15	12436.05
963.0303	2351.7113	13303.95	12410.25
963.1617	2353.1275	13217.2	12322.45
963.293	2354.543	13189.4	12274.55
963.4243	2355.9578	13110.4	12219.2
963.5556	2357.3718	13070.3	12179.6
963.6868	2358.7852	12983.7	12086.15
963.818	2360.1978	12959.9	12065
963.9492	2361.6098	12919.9	12029.05
964.0803	2363.021	12888.8	11993.7
964.2114	2364.4315	12839.8	11947.65
964.3425	2365.8413	12798.6	11904.9
964.4736	2367.2504	12752.45	11860.7
964.6046	2368.6587	12665.55	11774.05
964.7356	2370.0664	12596.55	11703.6
964.8666	2371.4733	12591.4	11699.8
964.9975	2372.8795	12532.6	11640.9
965.1284	2374.285	12490.25	11597.9
965.2593	2375.6899	12422.75	11533.1
965.3901	2377.0939	12355.5	11464.7
965.5209	2378.4973	12305.05	11415.4
965.6517	2379.9	12261.45	11368
965.7825	2381.3019	12212.4	11321
965.9132	2382.7032	12188.35	11295.45
966.0439	2384.1037	12138.2	11247.25
966.1745	2385.5035	12109.75	11218.7
966.3051	2386.9027	12052.85	11160.6
966.4357	2388.3011	12036.15	11140.75
966.5663	2389.6987	12006.55	11115.2
966.6968	2391.0957	11939.35	11048.25
966.8273	2392.492	11897.35	11009.1
966.9578	2393.8876	11807.2	10915.7
967.0882	2395.2824	11755	10863.5
967.2186	2396.6765	11713.4	10823.95
967.349	2398.07	11669.55	10779.9
967.4793	2399.4627	11663.1	10767.3
967.6097	2400.8547	11617.8	10726.65
967.7399	2402.246	11550.15	10650.8
967.8702	2403.6366	11481.6	10590.65
968.0004	2405.0265	11426.1	10535.6
968.1306	2406.4156	11397.4	10502.2
968.2607	2407.8041	11352.9	10457.7
968.3909	2409.1918	11316	10421.55
968.521	2410.5789	11255.8	10363.4
968.651	2411.9652	11228.65	10336.15
968.781	2413.3508	11183.3	10292.5
968.911	2414.7358	11128.5	10235.45
969.041	2416.12	11086.85	10197.35
969.1709	2417.5035	11087.55	10198.5
969.3008	2418.8863	11028	10136.95
969.4307	2420.2684	10993.6	10102.4
969.5606	2421.6497	10939.5	10048.05
969.6904	2423.0304	10880.6	9990.4
969.8201	2424.4104	10848.1	9954.65
969.9499	2425.7896	10820.05	9923.4
970.0796	2427.1682	10782.1	9889.85
970.2093	2428.546	10739.2	9849.35
970.3389	2429.9232	10706.4	9814.8
970.4685	2431.2996	10666.55	9775.5
970.5981	2432.6753	10680.45	9789.4
970.7277	2434.0503	10631.55	9741.1
970.8572	2435.4246	10568.55	9677.15
970.9867	2436.7982	10541.1	9647.9
971.1161	2438.1711	10515.15	9623.95
971.2456	2439.5433	10485.6	9593.5
971.375	2440.9148	10436	9542.65
971.5043	2442.2856	10382.55	9491.7
971.6336	2443.6557	10367.35	9475.95
971.7629	2445.025	10333.1	9441.6
971.8922	2446.3937	10308.9	9418.8
972.0214	2447.7617	10257.5	9365.95
972.1506	2449.1289	10263.5	9372.25
972.2798	2450.4955	10213.55	9317.95
972.4089	2451.8613	10179.3	9287.4
972.538	2453.2265	10152.45	9258.6
972.6671	2454.5909	10126.3	9232.9
972.7961	2455.9546	10086.75	9195.8
972.9251	2457.3177	10038.8	9147.65
973.0541	2458.68	9979	9087.05
973.1831	2460.0416	9973.85	9081.9
973.312	2461.4025	9979.5	9087.85
973.4408	2462.7627	9947.3	9045.25
973.5697	2464.1222	9903.7	9013.45
973.6985	2465.4811	9872.6	8980.1
973.8273	2466.8392	9848.75	8956.3
973.956	2468.1966	9821.95	8927.25
974.0847	2469.5533	9816.9	8923.3
974.2134	2470.9093	9775.8	8884.5
974.3421	2472.2645	9742.1	8848.15
974.4707	2473.6191	9698	8806.8
974.5993	2474.973	9671.65	8780.75
974.7278	2476.3262	9635.35	8741.3
974.8563	2477.6787	9586.35	8695.6
974.9848	2479.0305	9549.95	8659.45
975.1132	2480.3816	9529.85	8637
975.2417	2481.7319	9488.55	8595.6
975.37	2483.0816	9437.75	8544.65
975.4984	2484.4306	9407.4	8516
975.6267	2485.7789	9355.5	8464.1
975.755	2487.1264	9332.4	8440
975.8833	2488.4733	9291.45	8400.45
976.0115	2489.8195	9269.75	8369.75
976.1397	2491.165	9217.35	8323.95
976.2678	2492.5097	9189.1	8295.5
976.3959	2493.8538	9153.3	8262.3
976.524	2495.1972	9107.15	8215.65
976.6521	2496.5398	9060.25	8167.4
976.7801	2497.8818	9047.65	8153.5
976.9081	2499.2231	9022.65	8129.75
977.036	2500.5637	8976.45	8082.2
977.164	2501.9035	8944.4	8052.05
977.2918	2503.2427	8914.9	8020.05
977.4197	2504.5812	8882.3	7990.7
977.5475	2505.919	8861.8	7968.8
977.6753	2507.256	8858.45	7966.5
977.8031	2508.5924	8817.9	7925.7
977.9308	2509.9281	8768.6	7871.35
978.0585	2511.2631	8734.3	7841.5
978.1861	2512.5974	8732.95	7840.75
978.3137	2513.9309	8699.15	7807.45
978.4413	2515.2638	8674.05	7749.7
978.5689	2516.596	8617.95	7727
978.6964	2517.9275	8570.8	7679.7
978.8239	2519.2583	8556.1	7662.55
978.9513	2520.5884	8513.7	7619.6
979.0788	2521.9178	8498.5	7605.85
979.2062	2523.2465	8472.25	7580.35
979.3335	2524.5745	8422.95	7532
979.4608	2525.9018	8390.8	7497.65
979.5881	2527.2284	8361.15	7470
979.7154	2528.5543	8375.1	7485.15
979.8426	2529.8796	8357.05	7465.05
979.9698	2531.2041	8313.15	7422.3
980.0969	2532.5279	8281.15	7392.25
980.224	2533.851	8274.45	7382.55
980.3511	2535.1735	8236.15	7345.1
980.4781	2536.4952	8214.95	7322.8
980.6052	2537.8163	8204.2	7313.05
980.7321	2539.1366	8186.4	7295.5
980.8591	2540.4562	8140.95	7248.8
980.986	2541.7752	8151.65	7261.05
981.1129	2543.0935	8091.95	7199.4
981.2397	2544.411	8094.75	7200.35
981.3665	2545.7279	8047	7155.1
981.4933	2547.0441	8063.7	7171.45
981.62	2548.3596	8042.6	7146.95
981.7467	2549.6744	8028.2	7135.4
981.8734	2550.9885	7997.25	7104.65
982.0001	2552.3019	7969.3	7077.45
982.1267	2553.6146	7958.8	7065.75
982.2532	2554.9266	7921.9	7029.9
982.3798	2556.2379	7894.05	7000.45
982.5063	2557.5485	7864.1	6972.05
982.6327	2558.8585	7864.35	6965.95
982.7592	2560.1677	7831.95	6934.25
982.8856	2561.4762	7795.65	6903.8
983.0119	2562.7841	7804.85	6909.5
983.1383	2564.0913	7773.95	6883.1
983.2646	2565.3977	7758.85	6868.25
983.3908	2566.7035	7724.1	6833.05
983.517	2568.0086	7721.5	6829.7
983.6432	2569.313	7719.15	6827.85
983.7694	2570.6167	7677.95	6783
983.8955	2571.9197	7630.25	6739.05
984.0216	2573.222	7665.15	6770.75
984.1476	2574.5236	7618.05	6725.7
984.2737	2575.8246	7613.85	6718.45
984.3996	2577.1248	7597.95	6703.6
984.5256	2578.4244	7558.85	6666.2
984.6515	2579.7232	7561.1	6668.45
984.7774	2581.0214	7575.65	6661.25
984.9032	2582.3189	7522.05	6630.5
985.029	2583.6157	7524.4	6629.1
985.1548	2584.9118	7499.85	6607.1
985.2806	2586.2072	7477.2	6584.8
985.4063	2587.5019	7443.75	6554.65
985.5319	2588.7959	7439.7	6547.1
985.6576	2590.0893	7442.55	6548
985.7832	2591.3819	7425.75	6534
985.9087	2592.6739	7359.65	6467.25
986.0343	2593.9652	7334.95	6442.5
986.1597	2595.2557	7323.6	6431.5
986.2852	2596.5456	7286.25	6392.8
986.4106	2597.8348	7262.85	6373.6
986.536	2599.1234	7262.5	6371.15
986.6614	2600.4112	7216.1	6323.45
986.7867	2601.6983	7190.4	6294.5
986.912	2602.9848	7167.6	6274.55
987.0372	2604.2705	7151.15	6251.85
987.1624	2605.5556	7140.9	6248.05
987.2876	2606.84	7071.6	6179
987.4128	2608.1237	7069.45	6177.6
987.5379	2609.4067	7053.05	6157.8
987.6629	2610.689	7043.35	6142.6
987.788	2611.9707	6998.1	6101.3
987.913	2613.2516	6994.2	6097.6
988.0379	2614.5319	6956.05	6065.85
988.1629	2615.8115	6917.9	6025.9
988.2878	2617.0903	6870.1	5978.3
988.4126	2618.3685	6852.4	5958.9
988.5375	2619.6461	6821.6	5929.35
988.6622	2620.9229	6834.9	5944.3
988.787	2622.199	6802.7	5907.75
988.9117	2623.4745	6780.9	5887.45
989.0364	2624.7493	6739.9	5849.8
989.161	2626.0234	6734.75	5843.6
989.2857	2627.2968	6704	5812.2
989.4102	2628.5695	6685.9	5792.15
989.5348	2629.8415	6650.35	5757.5
989.6593	2631.1128	6631.1	5736.25
989.7837	2632.3835	6595.55	5702.05
989.9082	2633.6535	6570	5678.9
990.0326	2634.9228	6574.7	5683.15
990.1569	2636.1914	6551.8	5657.8
990.2812	2637.4593	6535.4	5637.55
990.4055	2638.7265	6500.75	5608.35
990.5298	2639.9931	6466.55	5577.05
990.654	2641.259	6443.75	5548.55
990.7782	2642.5242	6449	5556.75
990.9023	2643.7887	6411.35	5517.75
991.0264	2645.0525	6399.2	5506
991.1505	2646.3156	6383.55	5491.25
991.2745	2647.5781	6353.35	5460.85
991.3985	2648.8398	6347.15	5454.3
991.5225	2650.1009	6319.8	5419.4
991.6464	2651.3613	6313.95	5421.85
991.7703	2652.6211	6296.55	5404.9
991.8942	2653.8801	6253.2	5361.4
992.018	2655.1385	6245.7	5350
992.1418	2656.3961	6205.65	5316
992.2655	2657.6531	6211.75	5319.95
992.3892	2658.9094	6195	5302.2
992.5129	2660.1651	6169.25	5276.85
992.6366	2661.42	6154.05	5261.9
992.7602	2662.6743	6160.3	5268.3
992.8837	2663.9279	6133.05	5241.15
993.0073	2665.1808	6125.4	5232.6
993.1307	2666.433	6100.7	5208.95
993.2542	2667.6846	6076.85	5185.5
993.3776	2668.9354	6074.55	5178.9
993.501	2670.1856	6048.7	5156.2
993.6244	2671.4351	6026.1	5134.65
993.7477	2672.6839	6024.7	5130.35
993.8709	2673.9321	6029.35	5137.7
993.9942	2675.1795	6006.35	5114.95
994.1174	2676.4263	5977.85	5085.5
994.2405	2677.6724	5990.85	5099.05
994.3637	2678.9179	5946.85	5052.6
994.4868	2680.1626	5927.45	5035.95
994.6098	2681.4067	5919.55	5029
994.7328	2682.6501	5882.1	4989.65
994.8558	2683.8928	5864	4972.75
994.9788	2685.1348	5847.35	4955.75
995.1017	2686.3761	5802.6	4910.1
995.2245	2687.6168	5800.7	4909.85
995.3474	2688.8568	5788.7	4894.85
995.4702	2690.0961	5747.55	4857.1
995.5929	2691.3348	5742.05	4849
995.7156	2692.5727	5745.85	4853.45
995.8383	2693.81	5690	4799.95
995.961	2695.0466	5699.3	4806.25
996.0836	2696.2826	5675.65	4782.75
996.2062	2697.5178	5655.6	4760.3
996.3287	2698.7524	5649.4	4757.7
996.4512	2699.9863	5626.4	4732.95
996.5737	2701.2195	5595.7	4702.55
996.6961	2702.452	5605	4712.25
996.8185	2703.6839	5590.95	4697.9
996.9408	2704.9151	5589.55	4698.15
997.0631	2706.1456	5548.2	4656.25
997.1854	2707.3755	5543	4649.45
997.3077	2708.6046	5540.5	4645.15
997.4299	2709.8331	5522.4	4629.3
997.552	2711.0609	5504.2	4611.7
997.6742	2712.2881	5489.2	4597.9
997.7963	2713.5145	5482.5	4588
997.9183	2714.7403	5474.4	4584.1
998.0403	2715.9654	5461.5	4569.3
998.1623	2717.1899	5467.7	4562.35
998.2842	2718.4136	5472.4	4579.65
998.4062	2719.6367	5452.65	4559.9
998.528	2720.8591	5443.65	4545.9
998.6498	2722.0809	5424.55	4532.6
998.7716	2723.3019	5394.2	4496.8
998.8934	2724.5223	5421.05	4528.5
999.0151	2725.7421	5404.6	4510.65
999.1368	2726.9611	5400.65	4506.55
999.2584	2728.1795	5359.15	4464.15
999.38	2729.3972	5351.95	4460.9
999.5016	2730.6142	5333.2	4434.3
999.6231	2731.8306	5277.3	4383.75
999.7446	2733.0462	5249.4	4354.8
999.8661	2734.2612	5214.15	4317.35
999.9875	2735.4756	5174.85	4282.2
1000.1089	2736.6892	5152.15	4260.2
1000.2302	2737.9022	5110.25	4220.9
1000.3515	2739.1145	5105.65	4214.05
1000.4728	2740.3262	5078.55	4179
1000.594	2741.5372	5042.95	4151.75
1000.7152	2742.7475	5023.35	4130.7
1000.8363	2743.9571	4996.9	4104.35
1000.9575	2745.1661	4956.7	4059.55
1001.0785	2746.3744	4928.75	4036.65
1001.1996	2747.582	4934.9	4041.05
1001.3206	2748.7889	4901.85	4008.85
1001.4415	2749.9952	4879.35	3987.6
1001.5625	2751.2008	4851.4	3959.5
1001.6833	2752.4057	4849.2	3957.7
1001.8042	2753.61	4828.05	3935.05
1001.925	2754.8136	4804.45	3909.9
1002.0458	2756.0165	4785.4	3892.9
1002.1665	2757.2188	4792.35	3901.5
1002.2872	2758.4204	4790.8	3900.25
1002.4078	2759.6213	4763.9	3869.25
1002.5285	2760.8215	4750.8	3854.5
1002.649	2762.0211	4726.2	3832.95
1002.7696	2763.22	4708.9	3812.9
1002.8901	2764.4182	4697.1	3803.95
1003.0106	2765.6158	4680.05	3787.75
1003.131	2766.8127	4673.8	3782.95
1003.2514	2768.009	4652.9	3762.65
1003.3717	2769.2045	4641.8	3749.5
1003.492	2770.3994	4635	3740.7
1003.6123	2771.5936	4606.65	3714.65
1003.7325	2772.7872	4599.15	3707.1
1003.8527	2773.9801	4579.3	3685.85
1003.9729	2775.1723	4555.9	3646.6
1004.093	2776.3639	4545.7	3654.3
1004.2131	2777.5548	4536	3642.6
1004.3331	2778.745	4519.7	3625.8
1004.4531	2779.9346	4521.55	3628.6
1004.5731	2781.1235	4487.05	3594
1004.693	2782.3117	4484.85	3594.25
1004.8129	2783.4992	4463.7	3572.3
1004.9328	2784.6861	4451.45	3560
1005.0526	2785.8723	4467.85	3574.95
1005.1723	2787.0579	4442.95	3549
1005.2921	2788.2428	4444.05	3552.1
1005.4118	2789.427	4428.75	3537.15
1005.5314	2790.6106	4427.15	3536.9
1005.651	2791.7935	4422.7	3531.1
1005.7706	2792.9757	4427.2	3536.2
1005.8902	2794.1573	4426.7	3532.9
1006.0097	2795.3382	4419.5	3528.35
1006.1291	2796.5184	4407.95	3517.1
1006.2485	2797.698	4429.55	3535.5
1006.3679	2798.8769	4424.4	3534.05
1006.4873	2800.0551	4413.5	3520.25
1006.6066	2801.2327	4431.3	3537.9
1006.7258	2802.4096	4427.6	3536.7
1006.8451	2803.5859	4446.55	3552.35
1006.9642	2804.7615	4442.85	3550.5
1007.0834	2805.9364	4459.5	3569.9
1007.2025	2807.1106	4489.75	3599.5
1007.3216	2808.2842	4485.15	3592.55
1007.4406	2809.4572	4518.45	3627.5
1007.5596	2810.6294	4540.65	3648.45
1007.6785	2811.801	4572	3681.3
1007.7975	2812.972	4595	3704.15
1007.9163	2814.1423	4631.65	3738.05
1008.0352	2815.3119	4672.4	3781
1008.154	2816.4808	4697.4	3806.4
1008.2727	2817.6491	4753.9	3859.85
1008.3914	2818.8167	4760.05	3870.75
1008.5101	2819.9837	4815.95	3920.45
1008.6288	2821.15	4850.8	3959.75
1008.7474	2822.3157	4891.9	4000.8
1008.8659	2823.4807	4908.65	4017.15
1008.9844	2824.645	4986.45	4093.95
1009.1029	2825.8086	4993.05	4102.25
1009.2214	2826.9716	5008.85	4117.75
1009.3398	2828.134	5046.95	4155.5
1009.4581	2829.2957	5090.3	4197.75
1009.5764	2830.4567	5081.6	4191.5
1009.6947	2831.617	5103.95	4211.7
1009.813	2832.7767	5123.55	4232
1009.9312	2833.9358	5111	4222.25
1010.0493	2835.0941	5106.5	4212.55
1010.1675	2836.2519	5085.25	4193.9
1010.2855	2837.4089	5071.75	4179.9
1010.4036	2838.5653	5043.6	4151.55
1010.5216	2839.7211	5013.7	4123.5
1010.6396	2840.8761	5034.05	4140.15
1010.7575	2842.0306	5027.4	4138
1010.8754	2843.1843	5087.15	4195.95
1010.9932	2844.3374	5113.1	4222.45
1011.111	2845.4899	5178.15	4285.65
1011.2288	2846.6417	5237	4345.4
1011.3465	2847.7928	5302.95	4410.9
1011.4642	2848.9433	5364.25	4473.1
1011.5818	2850.0931	5449.25	4558.15
1011.6995	2851.2422	5507.3	4612.8
1011.817	2852.3907	5578.3	4687.55
1011.9345	2853.5385	5639.6	4747
1012.052	2854.6857	5706.05	4788.35
1012.1695	2855.8323	5721.5	4830.75
1012.2869	2856.9781	5768.6	4876.2
1012.4042	2858.1233	5798.95	4905.15
1012.5216	2859.2679	5842.55	4950.3
1012.6389	2860.4118	5876.8	4983.2
1012.7561	2861.555	5903.45	5007.7
1012.8733	2862.6976	5932	5039.25
1012.9905	2863.8395	5951.75	5060.7
1013.1076	2864.9808	5979.55	5085.65
1013.2247	2866.1214	5966.35	5074.55
1013.3417	2867.2614	5977.7	5086.85
1013.4587	2868.4007	5979.3	5086.7
1013.5757	2869.5393	5980.65	5086.8
1013.6926	2870.6773	5985.4	5088.8
1013.8095	2871.8146	5967.8	5071.15
1013.9263	2872.9513	5969.35	5075.05
1014.0431	2874.0874	5967.35	5076.8
1014.1599	2875.2227	5946.1	5054.45
1014.2766	2876.3574	5921.95	5030.55
1014.3933	2877.4915	5862.7	4973.15
1014.51	2878.6249	5825.9	4934.85
1014.6266	2879.7577	5805.85	4912.4
1014.7431	2880.8898	5813.35	4911.75
1014.8596	2882.0212	5766.35	4874.4
1014.9761	2883.152	5721.75	4830.05
1015.0925	2884.2821	5710.75	4819.9
1015.2089	2885.4116	5683.75	4793.1
1015.3253	2886.5405	5672.2	4780.75
1015.4416	2887.6686	5672.1	4777.85
1015.5579	2888.7962	5660.6	4771.1
1015.6741	2889.923	5666.35	4776.25
1015.7903	2891.0493	5660.35	4770.85
1015.9065	2892.1748	5699.7	4806.95
1016.0226	2893.2997	5683.7	4791.15
1016.1387	2894.424	5680.45	4790.8
1016.2547	2895.5476	5678.1	4787.15
1016.3707	2896.6706	5700.65	4810.65
1016.4866	2897.7929	5700.95	4807.6
1016.6025	2898.9145	5739.8	4848.85
1016.7184	2900.0355	5749.15	4859.3
1016.8342	2901.1559	5769.4	4877.85
1016.95	2902.2756	5807.15	4916.4
1017.0658	2903.3946	5835.85	4944.45
1017.1815	2904.513	5842.45	4947.75
1017.2971	2905.6308	5842.15	4950.45
1017.4127	2906.7479	5882.5	4990.85
1017.5283	2907.8643	5896.8	5004.3
1017.6439	2908.9801	5893.35	5002.8
1017.7594	2910.0953	5890.9	4998.7
1017.8748	2911.2098	5886.2	4992.1
1017.9902	2912.3236	5872.85	4974.65
1018.1056	2913.4368	5850.1	4955.6
1018.2209	2914.5494	5837.2	4945.6
1018.3362	2915.6613	5784.15	4887.1
1018.4515	2916.7725	5761.75	4869.45
1018.5667	2917.8831	5699.4	4804.9
1018.6819	2918.9931	5689.2	4796
1018.797	2920.1024	5650.3	4755.85
1018.9121	2921.211	5610.05	4719.5
1019.0271	2922.319	5571	4680.8
1019.1421	2923.4264	5557.25	4666.7
1019.2571	2924.5331	5521.05	4629.9
1019.372	2925.6391	5493	4603
1019.4869	2926.7445	5496.45	4605.65
1019.6017	2927.8493	5508.5	4618.45
1019.7165	2928.9534	5482.1	4591
1019.8313	2930.0569	5465.55	4570.2
1019.946	2931.1597	5448.35	4556.8
1020.0606	2932.2619	5426.25	4534.9
1020.1753	2933.3634	5412.85	4522.45
1020.2899	2934.4643	5403.45	4506.3
1020.4044	2935.5645	5368.6	4471.3
1020.5189	2936.6641	5316.7	4420.8
1020.6334	2937.763	5261.65	4368.6
1020.7478	2938.8613	5202.7	4310.9
1020.8622	2939.959	5154.1	4258.6
1020.9765	2941.056	5065.9	4174.9
1021.0908	2942.1523	4994.2	4101.5
1021.2051	2943.248	4885.65	3993.2
1021.3193	2944.3431	4784.65	3893
1021.4334	2945.4375	4651.25	3760.4
1021.5476	2946.5313	4544	3653.8
1021.6617	2947.6244	4449.9	3559.3
1021.7757	2948.7169	4342.4	3449.3
1021.8897	2949.8087	4228.8	3338.8
1022.0037	2950.8999	4130.95	3239.3
1022.1176	2951.9904	4051.45	3162.05
1022.2315	2953.0803	3960.7	3069.85
1022.3453	2954.1696	3898.2	3005.5
1022.4591	2955.2582	3834.1	2943.05
1022.5728	2956.3462	3770.75	2879.2
1022.6865	2957.4335	3722.1	2831.1
1022.8002	2958.5202	3671.8	2779.75
1022.9138	2959.6062	3634.95	2744.5
1023.0274	2960.6916	3618.95	2730.85
1023.141	2961.7764	3598.85	2707.85
1023.2545	2962.8605	3575.2	2683.95
1023.3679	2963.9439	3550.8	2660.25
1023.4813	2965.0267	3521.25	2628.75
1023.5947	2966.1089	3544.1	2629.1
1023.708	2967.1905	3492.6	2602.15
1023.8213	2968.2714	3492.05	2601.2
1023.9346	2969.3516	3485.9	2595.2
1024.0478	2970.4312	3481.35	2582.95
1024.1609	2971.5102	3470.3	2580.4
1024.274	2972.5885	3464.35	2572.8
1024.3871	2973.6662	3475.8	2578.1
1024.5002	2974.7432	3450.85	2560.35
1024.6132	2975.8196	3424.8	2533.45
1024.7261	2976.8954	3413.8	2525
1024.839	2977.9705	3387.1	2496.55
1024.9519	2979.045	3375.95	2484.05
1025.0647	2980.1188	3356.75	2466.45
1025.1775	2981.192	3307.1	2418.55
1025.2902	2982.2645	3290.75	2400.25
1025.4029	2983.3364	3268.5	2376.1
1025.5156	2984.4077	3222.35	2330.75
1025.6282	2985.4783	3194.95	2300.85
1025.7407	2986.5483	3168.35	2278.65
1025.8532	2987.6177	3129.45	2240.7
1025.9657	2988.6864	3084.6	2193.35
1026.0782	2989.7545	3052.55	2158.45
1026.1906	2990.8219	3008.75	2117.85
1026.3029	2991.8887	2963.55	2071.75
1026.4152	2992.9548	2934.9	2042.5
1026.5275	2994.0204	2894.15	2002.55
1026.6397	2995.0852	2858.75	1968.8
1026.7519	2996.1495	2825.9	1934.45
1026.864	2997.2131	2802.25	1911.5
1026.9761	2998.276	2768.25	1877.7
1027.0882	2999.3383	2753.25	1862.75
1027.2002	3000.4	2718.8	1825.7
1027.3122	3001.4611	2707.85	1816.75
1027.4241	3002.5215	2684.25	1792.1
1027.536	3003.5812	2669.3	1779.95
1027.6478	3004.6404	2656	1766.8
1027.7596	3005.6989	2647.1	1756
1027.8714	3006.7567	2630.8	1739.15
1027.9831	3007.8139	2624.15	1711.55
1028.0947	3008.8705	2599.5	1708.05
1028.2064	3009.9264	2597.55	1704.55
1028.3179	3010.9818	2574.6	1683.25
1028.4295	3012.0364	2573.95	1680.45
1028.541	3013.0905	2555.5	1664.8
1028.6524	3014.1439	2551.45	1659.1
1028.7638	3015.1966	2539.65	1650.25
1028.8752	3016.2487	2548.05	1656.65
1028.9865	3017.3002	2540.35	1641.85
1029.0978	3018.3511	2538.15	1649
1029.209	3019.4013	2523.1	1632.95
1029.3202	3020.4509	2533.65	1643.8
1029.4314	3021.4998	2531.5	1640.5
1029.5425	3022.5481	2508.65	1617.5
1029.6535	3023.5958	2503.8	1613
1029.7645	3024.6428	2507.9	1615.55
1029.8755	3025.6892	2505.7	1614.7
1029.9864	3026.735	2510.05	1620.85
1030.0973	3027.7802	2502.85	1611.15
1030.2082	3028.8247	2495	1605.2
1030.319	3029.8685	2490.25	1598.5
1030.4297	3030.9118	2475.35	1584.3
1030.5404	3031.9544	2488.3	1597.9
1030.6511	3032.9963	2484.25	1594
1030.7617	3034.0376	2475.35	1585.7
1030.8723	3035.0783	2484.6	1592.05
1030.9829	3036.1184	2488.8	1599
1031.0934	3037.1578	2483.6	1593.55
1031.2038	3038.1966	2481.5	1590
1031.3142	3039.2348	2471.65	1580.55
1031.4246	3040.2723	2478.3	1579.05
1031.5349	3041.3092	2465.2	1575.1
1031.6452	3042.3455	2456.9	1568
1031.7554	3043.3811	2449.55	1559.2
1031.8656	3044.4161	2448.2	1558.3
1031.9758	3045.4505	2433.1	1544.2
1032.0859	3046.4842	2427.8	1537.2
1032.1959	3047.5173	2413.6	1524.05
1032.3059	3048.5498	2398.25	1507.3
1032.4159	3049.5816	2388.55	1498.35
1032.5258	3050.6128	2382.6	1489.3
1032.6357	3051.6434	2371.6	1479.95
1032.7455	3052.6734	2357.5	1465.2
1032.8553	3053.7027	2349.85	1458.45
1032.9651	3054.7314	2339	1450.35
1033.0748	3055.7594	2313	1424.2
1033.1845	3056.7868	2303.45	1412.1
1033.2941	3057.8136	2300.85	1411.05
1033.4037	3058.8398	2292.25	1401.55
1033.5132	3059.8653	2289.8	1400.65
1033.6227	3060.8902	2285.8	1397.4
1033.7321	3061.9145	2255.3	1363.85
1033.8415	3062.9381	2255.3	1363.9
1033.9509	3063.9612	2262.1	1356.75
1034.0602	3064.9835	2245.45	1354.75
1034.1694	3066.0053	2239.9	1347
1034.2787	3067.0264	2223.95	1333.35
1034.3878	3068.0469	2213.5	1321.2
1034.497	3069.0668	2190.8	1297.15
1034.6061	3070.086	2183.55	1293.5
1034.7151	3071.1046	2166.7	1276.4
1034.8241	3072.1226	2163.9	1270.7
1034.9331	3073.1399	2143.45	1253.5
1035.042	3074.1567	2133.7	1244.85
1035.1508	3075.1727	2122.7	1231.4
1035.2597	3076.1882	2100.65	1212.55
1035.3684	3077.203	2102.45	1212.6
1035.4772	3078.2173	2082.8	1190.2
1035.5859	3079.2308	2075.55	1180.65
1035.6945	3080.2438	2064.45	1171.75
1035.8031	3081.2561	2048.7	1158.2
1035.9117	3082.2678	2027.9	1138.85
1036.0202	3083.2789	2025.4	1135.9
1036.1286	3084.2893	2013	1121.45
1036.2371	3085.2991	2006.7	1116.1
1036.3454	3086.3083	2001.8	1107.55
1036.4538	3087.3169	1992	1099.95
1036.562	3088.3248	1984.55	1091
1036.6703	3089.3321	1973.7	1079.9
1036.7785	3090.3388	1962.7	1073.55
1036.8866	3091.3449	1958.3	1069.05
1036.9948	3092.3503	1949.4	1057.1
1037.1028	3093.3551	1941.85	1053
1037.2108	3094.3593	1931	1041.6
1037.3188	3095.3629	1923.1	1031.75
1037.4267	3096.3658	1926	1034.25
1037.5346	3097.3681	1922.15	1031.5
1037.6425	3098.3698	1902.3	1012.45
1037.7503	3099.3708	1897.55	1000.7
1037.858	3100.3713	1883.5	994.85
1037.9657	3101.3711	1890.25	1000
1038.0734	3102.3702	1983.7	977.4
1038.181	3103.3688	1881.85	989
1038.2886	3104.3667	1866.6	976.5
1038.3961	3105.364	1860.75	972.3
1038.5036	3106.3607	1861.9	970.35
1038.611	3107.3568	1843.6	950.65
1038.7184	3108.3522	1838.55	949.2
1038.8257	3109.347	1837.05	944.9
1038.933	3110.3412	1835	940.45
1039.0403	3111.3348	1823.55	934.1
1039.1475	3112.3277	1811.05	921.15
1039.2547	3113.32	1814.5	926.4
1039.3618	3114.3117	1811	921.95
1039.4689	3115.3028	1795.65	905.15
1039.5759	3116.2932	1797.8	906.3
1039.6829	3117.2831	1791.55	896.15
1039.7898	3118.2723	1786.35	895.6
1039.8967	3119.2608	1782.25	894.15
1040.0035	3120.2488	1785.7	893.4
1040.1103	3121.2361	1775.25	886.8
1040.2171	3122.2229	1759.1	868.55
1040.3238	3123.209	1756.3	864.35
1040.4305	3124.1944	1752.45	862.5
1040.5371	3125.1793	1749.7	857.85
1040.6437	3126.1635	1739.05	849.35
1040.7502	3127.1471	1744.55	856.55
1040.8567	3128.1301	1728.3	839.55
1040.9631	3129.1125	1718.75	829.15
1041.0695	3130.0942	1740.6	850.8
1041.1759	3131.0753	1732.85	832.7
1041.2822	3132.0558	1723.95	830.4
1041.3884	3133.0357	1715.95	825.15
1041.4946	3134.015	1707.3	816.05
1041.6008	3134.9936	1710.9	818.3
1041.7069	3135.9716	1727.35	815.6
1041.813	3136.949	1695.85	806.15
1041.919	3137.9258	1701.85	806.2
1042.025	3138.902	1701.65	805.4
1042.1309	3139.8775	1691.65	802.1
1042.2368	3140.8524	1691.25	801.2
1042.3427	3141.8267	1677.35	784.85
1042.4485	3142.8004	1674.25	783.2
1042.5542	3143.7735	1679.4	783.6
1042.6599	3144.7459	1674.5	780.95
1042.7656	3145.7178	1660.65	768.65
1042.8712	3146.689	1660.05	771.4
1042.9768	3147.6596	1660.25	768.4
1043.0823	3148.6295	1648.55	759.15
1043.1878	3149.5989	1645.05	753.45
1043.2932	3150.5676	1637.65	748
1043.3986	3151.5357	1636.15	748.1
1043.5039	3152.5032	1641.2	751.35
1043.6092	3153.4701	1631.2	741
1043.7145	3154.4364	1630.35	736.45
1043.8197	3155.402	1620.05	731.5
1043.9248	3156.367	1618.3	728.5
1044.03	3157.3315	1653.9	719.2
1044.135	3158.2952	1608.75	718.5
1044.24	3159.2584	1609.35	718.7
1044.345	3160.221	1605.3	715.1
1044.4499	3161.1829	1596.8	707.4
1044.5548	3162.1442	1587.8	697.15
1044.6596	3163.105	1591.5	700.8
1044.7644	3164.065	1576.35	683.35
1044.8692	3165.0245	1580	686
1044.9739	3165.9834	1576.25	688
1045.0785	3166.9416	1568.6	680.45
1045.1831	3167.8993	1561.65	671.5
1045.2877	3168.8563	1558.2	668.75
1045.3922	3169.8127	1558.65	669.2
1045.4966	3170.7684	1549.9	660.25
1045.6011	3171.7236	1558.1	666.85
1045.7054	3172.6782	1546.4	655.3
1045.8098	3173.6321	1549.5	659.55
1045.914	3174.5854	1546.65	654.15
1046.0183	3175.5381	1536.65	645.35
1046.1224	3176.4902	1535.6	645.4
1046.2266	3177.4417	1526.2	638.4
1046.3307	3178.3926	1526.25	637.25
1046.4347	3179.3428	1523.8	632.55
1046.5387	3180.2924	1523.25	632.85
1046.6427	3181.2415	1520.05	630
1046.7466	3182.1899	1512.8	621.6
1046.8504	3183.1377	1509.2	619.45
1046.9542	3184.0848	1510	617
1047.058	3185.0314	1507.45	617.15
1047.1617	3185.9773	1498.05	607.2
1047.2654	3186.9227	1492.6	602.55
1047.369	3187.8674	1490.85	601.4
1047.4726	3188.8115	1498.7	605.5
1047.5761	3189.755	1483.35	592.1
1047.6796	3190.6979	1481.55	592.1
1047.783	3191.6402	1482.65	591.2
1047.8864	3192.5818	1472.4	582.1
1047.9898	3193.5229	1501.5	587.45
1048.0931	3194.4633	1475.75	585.7
1048.1963	3195.4031	1465.2	573.75
1048.2995	3196.3423	1469.05	579.65
1048.4027	3197.2809	1459	568.45
1048.5058	3198.2189	1452.95	562.3
1048.6089	3199.1563	1466.35	570.2
1048.7119	3200.0931	1459.55	568.85
1048.8148	3201.0292	1446.95	557.1
1048.9178	3201.9648	1449.2	557.8
1049.0206	3202.8997	1447.15	554.65
1049.1235	3203.834	1447	555.4
1049.2262	3204.7677	1445	554.35
1049.329	3205.7008	1436.65	544.65
1049.4317	3206.6333	1432.65	543.95
1049.5343	3207.5652	1434.75	543.9
1049.6369	3208.4964	1427.25	536.55
1049.7394	3209.4271	1424.1	534.25
1049.8419	3210.3571	1417.85	529.2
1049.9444	3211.2865	1422.3	531.6
1050.0468	3212.2154	1421.25	531.2
1050.1491	3213.1436	1420.05	526.95
1050.2514	3214.0712	1422.2	526.05
1050.3537	3214.9982	1412.15	521.7
1050.4559	3215.9246	1401.75	509.95
1050.5581	3216.8503	1399.7	509.25
1050.6602	3217.7755	1406.9	516.75
1050.7623	3218.7001	1395.65	505.25
1050.8643	3219.624	1391.9	501.05
1050.9663	3220.5473	1397	507.4
1051.0682	3221.4701	1394	502.35
1051.1701	3222.3922	1397.3	505.3
1051.2719	3223.3137	1387.4	496.65
1051.3737	3224.2346	1382.4	491.45
1051.4754	3225.1549	1381.35	493.55
1051.5771	3226.0746	1374.15	485.7
1051.6788	3226.9937	1377.4	487.8
1051.7804	3227.9121	1373.3	484.35
1051.8819	3228.83	1370.45	480.4
1051.9834	3229.7473	1365.9	475.55
1052.0849	3230.6639	1370.3	479.4
1052.1863	3231.5799	1356.6	466.2
1052.2876	3232.4954	1361.55	470.05
1052.3889	3233.4102	1354.5	465.25
1052.4902	3234.3244	1357.95	469.7
1052.5914	3235.238	1354.5	466.5
1052.6926	3236.151	1367.4	452.35
1052.7937	3237.0634	1345	454.65
1052.8948	3237.9752	1345.65	454.5
1052.9958	3238.8864	1337.55	448.05
1053.0968	3239.797	1338.95	448.75
1053.1977	3240.7069	1339.85	448.95
1053.2986	3241.6163	1335.65	443.35
1053.3994	3242.5251	1329.4	441.05
1053.5002	3243.4332	1332.8	443.85
1053.6009	3244.3408	1331.1	441.55
1053.7016	3245.2477	1320.85	431.2
1053.8022	3246.154	1319.9	427.6
1053.9028	3247.0598	1320.55	430.9
1054.0034	3247.9649	1318.7	428.95
1054.1039	3248.8694	1317.95	428.9
1054.2043	3249.7733	1310.65	421.35
1054.3047	3250.6766	1306.4	416.8
1054.4051	3251.5793	1304.6	414.1
1054.5054	3252.4814	1301.3	411.9
1054.6056	3253.3829	1300.55	408.9
1054.7058	3254.2838	1294.5	406.25
1054.806	3255.1841	1290.75	402.75
1054.9061	3256.0838	1286.55	396.1
1055.0061	3256.9829	1287.75	398.8
1055.1062	3257.8814	1284.2	390.95
1055.2061	3258.7792	1274.6	382.65
1055.306	3259.6765	1279.5	388.8
1055.4059	3260.5731	1271.1	381.65
1055.5057	3261.4692	1266.5	378.4
1055.6055	3262.3647	1263.3	373.3
1055.7052	3263.2595	1254.75	365.45
1055.8049	3264.1538	1248.2	359.85
1055.9045	3265.0474	1248.7	357.8
1056.0041	3265.9404	1236	346.85
1056.1036	3266.8329	1236.55	347.55
1056.2031	3267.7247	1241.2	341.8
1056.3025	3268.616	1220.85	333.2
1056.4019	3269.5066	1213.7	322.05
1056.5013	3270.3966	1210.6	319.9
1056.6005	3271.286	1192.75	305.2
