Software Version:	3.9.2.0
Unit SN:	10000200
Spectrometer SN:	6960
Date:	3/6/2024 10:53:40 AM
Data Line Index:	25
Spectral Points:	2048
Integration time (ms):	125
Averages:	20
Delay (ms):	30
Sequence Number:	1
Processing:	dark subtract
Laser Power (mW):	305
Laser Current (mA):	822
Laser Diode Temp (C):	25
Laser Case Temp (C):	27.8
System Temp (C):	27.6
Spectrometer Temp (C):	24.9
CCD Temp (C):	0.002
Secondary Temp (C):	20.011
Heatsink Temp (C):	23.26
CCDPCB Temp (C):	36.874
SecondaryPCB Temp (C):	34.573

Wavelength	RamanShift	Raw Counts	Dark Subtracted
787.061	30.1047	1115.85	702.7
787.2016	32.3739	1139.65	727.2
787.3422	34.6426	1191.55	778.7
787.4828	36.9109	1244.65	828.7
787.6235	39.1787	1291.1	871.45
787.7642	41.4461	1347.75	923.75
787.9049	43.7131	1414.25	986.15
788.0456	45.9796	1472.85	1041.4
788.1863	48.2456	1538.25	1105.4
788.3271	50.5112	1615.85	1178.4
788.4679	52.7764	1691.3	1250.2
788.6087	55.0411	1761.45	1315.75
788.7496	57.3054	1834.7	1384.05
788.8904	59.5692	1930.55	1477.2
789.0313	61.8326	2027.35	1570.15
789.1722	64.0955	2130.95	1672.9
789.3132	66.3579	2262.05	1798.25
789.4541	68.6199	2416.05	1949.2
789.5951	70.8815	2658.75	2190.5
789.7361	73.1426	3154.1	2678.85
789.8771	75.4032	4422.25	3942.8
790.0181	77.6634	7619.7	7133.9
790.1592	79.9231	15987.75	15498.9
790.3003	82.1824	52144.6	51645.7
790.4414	84.4412	65535	65019.95
790.5825	86.6995	65535	64994.85
790.7237	88.9574	65535	64973.75
790.8648	91.2148	65535	64960.4
791.006	93.4717	65535	64945.7
791.1472	95.7282	65535	64942.75
791.2885	97.9842	65535	64939.9
791.4297	100.2398	65535	64937.45
791.571	102.4949	65535	64931.1
791.7123	104.7495	65535	64926.35
791.8536	107.0036	65535	64926.5
791.9949	109.2573	65535	64931.35
792.1363	111.5105	65535	64925.4
792.2777	113.7632	65535	64922.95
792.4191	116.0154	65535	64910.35
792.5605	118.2672	65535	64920.55
792.7019	120.5185	65535	64919.95
792.8434	122.7693	65535	64916.9
792.9849	125.0197	65535	64914.35
793.1264	127.2696	65535	64911.6
793.2679	129.519	65535	64906.55
793.4094	131.7679	65535	64902.65
793.551	134.0163	65535	64900.9
793.6926	136.2642	65535	64895.95
793.8342	138.5117	65535	64887.4
793.9758	140.7587	65535	64893.05
794.1175	143.0052	65535	64889.45
794.2591	145.2512	65535	64891.65
794.4008	147.4967	65535	64893
794.5425	149.7417	65535	64886.5
794.6842	151.9863	65535	64886.1
794.826	154.2304	65535	64878.3
794.9677	156.4739	65535	64872
795.1095	158.717	65535	64874.9
795.2513	160.9596	65535	64868.65
795.3931	163.2017	65535	64870.75
795.535	165.4433	65535	64865.05
795.6768	167.6844	65535	64866.45
795.8187	169.925	65535	64860.4
795.9606	172.1651	65535	64855.75
796.1025	174.4047	65535	64853.55
796.2445	176.6439	65535	64852.9
796.3864	178.8825	65535	64849.65
796.5284	181.1206	65535	64846.6
796.6704	183.3582	65535	64846
796.8124	185.5954	65535	64840.75
796.9544	187.832	65535	64833.4
797.0965	190.0681	65535	64835.25
797.2386	192.3037	65535	64832.15
797.3806	194.5388	65535	64830.45
797.5228	196.7734	65535	64823.45
797.6649	199.0075	65535	64821.05
797.807	201.2411	65535	64822.55
797.9492	203.4742	65535	64822.05
798.0914	205.7068	65535	64820.4
798.2336	207.9389	65535	64816.3
798.3758	210.1704	65535	64812.35
798.518	212.4015	65535	64816.55
798.6603	214.632	65535	64820
798.8025	216.862	65535	64832.8
798.9448	219.0915	65535	64836.15
799.0871	221.3205	65535	64833.95
799.2294	223.549	65535	64836
799.3718	225.777	65535	64835.7
799.5141	228.0044	65535	64832.45
799.6565	230.2314	65535	64833.9
799.7989	232.4578	65535	64829.2
799.9413	234.6837	65535	64824.1
800.0837	236.909	65535	64821.15
800.2262	239.1339	65535	64795.7
800.3687	241.3582	65535	64811.25
800.5111	243.582	65535	64780.35
800.6536	245.8053	65535	64791.75
800.7961	248.0281	65535	64796.4
800.9387	250.2503	65535	64792.4
801.0812	252.472	65535	64789.85
801.2238	254.6932	65535	64789.3
801.3664	256.9139	65535	64785.35
801.509	259.134	65535	64785.3
801.6516	261.3536	65535	64783.7
801.7942	263.5727	65535	64783.8
801.9369	265.7912	65535	64786.9
802.0795	268.0092	65535	64785.2
802.2222	270.2267	65535	64780.35
802.3649	272.4436	65535	64781.35
802.5076	274.6601	65535	64775.1
802.6504	276.8759	65535	64776.15
802.7931	279.0913	65535	64772.75
802.9359	281.3061	65535	64774.45
803.0787	283.5204	65535	64770.65
803.2215	285.7341	65535	64767.9
803.3643	287.9473	65535	64751.45
803.5071	290.16	65535	64759.35
803.6499	292.3721	65535	64767.15
803.7928	294.5837	65535	64767.15
803.9357	296.7947	65535	64769.05
804.0786	299.0052	65535	64767.55
804.2215	301.2152	65535	64761.85
804.3644	303.4246	65535	64766.9
804.5074	305.6334	65535	64767.55
804.6503	307.8418	65535	64761.9
804.7933	310.0495	65535	64760.95
804.9363	312.2568	65535	64765.1
805.0793	314.4635	65535	64759.3
805.2223	316.6696	65535	64757.6
805.3653	318.8752	65535	64750.15
805.5084	321.0802	65535	64757.35
805.6514	323.2847	65535	64756.3
805.7945	325.4887	65535	64754.55
805.9376	327.692	65535	64753.75
806.0807	329.8949	65535	64753.75
806.2238	332.0972	65535	64750.95
806.367	334.2989	65535	64747.5
806.5101	336.5001	65535	64746.8
806.6533	338.7007	65535	64747.4
806.7965	340.9008	65535	64748.2
806.9397	343.1003	65535	64743.6
807.0829	345.2992	65535	64743.45
807.2261	347.4976	65535	64741.15
807.3693	349.6955	65535	64739.25
807.5126	351.8927	65535	64738.7
807.6559	354.0895	65535	64722.55
807.7991	356.2856	65535	64737.6
807.9424	358.4812	65535	64737.45
808.0857	360.6763	65535	64734.1
808.2291	362.8707	65535	64733.95
808.3724	365.0646	65535	64729.95
808.5158	367.258	65535	64727.5
808.6591	369.4508	65535	64721.2
808.8025	371.643	65535	64724.05
808.9459	373.8346	65535	64726.05
809.0893	376.0257	65535	64720.45
809.2327	378.2162	65535	64720.55
809.3762	380.4062	65535	64715.25
809.5196	382.5956	65535	64717.2
809.6631	384.7844	65535	64719.7
809.8066	386.9726	65535	64720.6
809.9501	389.1603	65535	64721.2
810.0936	391.3474	65535	64681.05
810.2371	393.5339	65535	64725
810.3806	395.7199	65535	64727.1
810.5241	397.9052	65535	64728.85
810.6677	400.09	65535	64729.45
810.8113	402.2743	65535	64729.15
810.9548	404.4579	65535	64727.25
811.0984	406.641	65535	64726.45
811.2421	408.8235	65535	64723.75
811.3857	411.0054	65535	64722.55
811.5293	413.1868	65535	64718.2
811.673	415.3675	65535	64715.2
811.8166	417.5477	65535	64713.7
811.9603	419.7273	65535	64710.7
812.104	421.9064	65535	64704.3
812.2477	424.0848	65535	64709.1
812.3914	426.2627	65535	64706.5
812.5351	428.4399	65535	64704.9
812.6788	430.6166	65535	64704.45
812.8226	432.7928	65535	64702.25
812.9663	434.9683	65535	64703.05
813.1101	437.1432	65535	64702.95
813.2539	439.3176	65535	64700.35
813.3977	441.4914	65535	64701
813.5415	443.6645	65535	64698.3
813.6853	445.8371	65535	64699.3
813.8291	448.0091	65535	64704.1
813.973	450.1806	65535	64702.7
814.1168	452.3514	65535	64697.8
814.2607	454.5216	65535	64689.45
814.4046	456.6913	65535	64697.9
814.5485	458.8603	65535	64699.2
814.6924	461.0288	65535	64698.65
814.8363	463.1967	65535	64697.75
814.9802	465.3639	65535	64695.8
815.1241	467.5306	65535	64697
815.2681	469.6967	65535	64696.25
815.412	471.8622	65535	64694.2
815.556	474.0271	65535	64696.1
815.7	476.1914	65535	64694.15
815.844	478.3551	65535	64695.8
815.988	480.5182	65535	64693.45
816.132	482.6807	65535	64693.3
816.276	484.8426	65535	64694.7
816.4201	487.0039	65535	64692.75
816.5641	489.1647	65535	64692.1
816.7082	491.3248	65535	64693.35
816.8522	493.4843	65535	64693.9
816.9963	495.6432	65535	64689.85
817.1404	497.8015	65535	64688
817.2845	499.9592	65535	64690.3
817.4286	502.1163	65535	64690.8
817.5727	504.2728	65535	64685.55
817.7168	506.4287	65535	64689.15
817.861	508.5839	65535	64688.45
818.0051	510.7386	65535	64688.4
818.1493	512.8927	65535	64684.45
818.2935	515.0461	65535	64685.55
818.4377	517.199	65535	64685.75
818.5818	519.3512	65535	64682.4
818.726	521.5029	65535	64678.35
818.8703	523.6539	65535	64685.25
819.0145	525.8043	65535	64682.8
819.1587	527.9541	65535	64680.95
819.303	530.1033	65535	64680
819.4472	532.2519	65535	64680.2
819.5915	534.3999	65535	64678.55
819.7357	536.5472	65535	64678.2
819.88	538.694	65535	64679.8
820.0243	540.8401	65535	64678.95
820.1686	542.9856	65535	64675.05
820.3129	545.1305	65535	64674.3
820.4572	547.2748	65535	64674.2
820.6016	549.4185	65535	64672.7
820.7459	551.5615	65535	64674.9
820.8902	553.704	65535	64673.6
821.0346	555.8458	65535	64674.9
821.1789	557.987	65535	64676.85
821.3233	560.1276	65535	64673.3
821.4677	562.2675	65535	64674.65
821.6121	564.4069	65535	64675.8
821.7565	566.5456	65535	64677.4
821.9009	568.6837	65535	64673.5
822.0453	570.8212	65535	64675.05
822.1897	572.958	65535	64673.7
822.3342	575.0942	65535	64674.05
822.4786	577.2299	65535	64673.8
822.6231	579.3648	65535	64678.45
822.7675	581.4992	65535	64678.2
822.912	583.6329	65535	64676.1
823.0565	585.766	65535	64676.9
823.201	587.8985	65535	64674.7
823.3454	590.0304	65535	64646.9
823.4899	592.1616	65535	64669.45
823.6345	594.2922	65535	64672.5
823.779	596.4222	65535	64668.75
823.9235	598.5515	65535	64670.9
824.068	600.6802	65535	64670.75
824.2126	602.8083	65535	64668
824.3571	604.9358	65535	64667.6
824.5017	607.0626	65535	64666.6
824.6462	609.1888	65535	64667.6
824.7908	611.3144	65535	64666.1
824.9354	613.4393	65535	64665.75
825.08	615.5636	65535	64665.2
825.2246	617.6873	65535	64662.5
825.3692	619.8103	65535	64664.8
825.5138	621.9327	65535	64661.65
825.6584	624.0544	65535	64667.15
825.803	626.1756	65535	64667.3
825.9477	628.2961	65535	64664.85
826.0923	630.4159	65535	64666.4
826.237	632.5351	65535	64663.15
826.3816	634.6537	65535	64661.55
826.5263	636.7716	65535	64659.65
826.6709	638.8889	65535	64661.85
826.8156	641.0056	65535	64662.65
826.9603	643.1216	65535	64661.55
827.105	645.237	65535	64658.35
827.2497	647.3518	65535	64664.8
827.3944	649.4659	65535	64664.1
827.5391	651.5793	65535	64661.7
827.6838	653.6922	65535	64663.7
827.8285	655.8043	65535	64662.9
827.9733	657.9159	65535	64663.95
828.118	660.0268	65535	64658.9
828.2627	662.137	65535	64660.85
828.4075	664.2466	65535	64659.5
828.5522	666.3556	65535	64659.85
828.697	668.4639	65535	64655.25
828.8418	670.5716	65535	64658.25
828.9865	672.6786	65535	64658.45
829.1313	674.785	65535	64654.65
829.2761	676.8907	65535	64656.8
829.4209	678.9958	65535	64660.15
829.5657	681.1002	65535	64656.4
829.7105	683.204	65535	64651.75
829.8553	685.3072	65535	64655.3
830.0001	687.4097	65535	64657.3
830.1449	689.5115	65535	64654.35
830.2898	691.6127	65535	64657.25
830.4346	693.7132	65535	64653.7
830.5794	695.8131	65535	64639.55
830.7243	697.9123	65535	64654.05
830.8691	700.0109	65535	64653.9
831.014	702.1089	65535	64652.7
831.1588	704.2061	65535	64653.25
831.3037	706.3028	65535	64651.15
831.4486	708.3987	65535	64653
831.5935	710.4941	65535	64655.3
831.7383	712.5887	65535	64657.3
831.8832	714.6827	65535	64650
832.0281	716.7761	65535	64652.65
832.173	718.8688	65535	64652.5
832.3179	720.9608	65535	64649.15
832.4628	723.0522	65535	64646.35
832.6077	725.1429	65535	64648.45
832.7527	727.233	65535	64652.25
832.8976	729.3224	65535	64650.3
833.0425	731.4112	65535	64649.05
833.1874	733.4993	65535	64648.25
833.3324	735.5867	65535	64647.25
833.4773	737.6735	65535	64648.75
833.6222	739.7596	65535	64645.55
833.7672	741.845	65535	64650.55
833.9122	743.9298	65535	64648.65
834.0571	746.014	65535	64649.75
834.2021	748.0974	65535	64647.2
834.347	750.1802	65535	64648.95
834.492	752.2624	65535	64649.6
834.637	754.3439	65535	64649.15
834.782	756.4247	65535	64639
834.9269	758.5048	65535	64649.9
835.0719	760.5843	65535	64649.3
835.2169	762.6631	65535	64649.15
835.3619	764.7413	65535	64649.7
835.5069	766.8188	65535	64646.15
835.6519	768.8956	65535	64645.45
835.7969	770.9718	65535	64649.1
835.9419	773.0473	65535	64649.2
836.0869	775.1221	65535	64649.4
836.232	777.1962	65535	64646.65
836.377	779.2697	65535	64647.05
836.522	781.3426	65535	64628.75
836.667	783.4147	65535	64643.35
836.8121	785.4862	65535	64645.4
836.9571	787.557	65535	64643.25
837.1021	789.6271	65535	64648.15
837.2472	791.6966	65535	64646.4
837.3922	793.7654	65535	64644.55
837.5373	795.8335	65535	64644.55
837.6823	797.901	65535	64646.25
837.8274	799.9678	65535	64644.2
837.9724	802.0339	65535	64646.25
838.1175	804.0993	65535	64639.4
838.2626	806.1641	65535	64643.6
838.4076	808.2282	65535	64645
838.5527	810.2916	65535	64644.35
838.6978	812.3544	65535	64648.65
838.8428	814.4164	65535	64647
838.9879	816.4778	65535	64645.35
839.133	818.5385	65535	64644.25
839.2781	820.5986	65535	64642.55
839.4232	822.658	65535	64642.7
839.5682	824.7166	65535	64644.75
839.7133	826.7747	65535	64644.75
839.8584	828.832	65535	64643.1
840.0035	830.8886	65535	64644
840.1486	832.9446	65535	64642.25
840.2937	834.9999	65535	64644.05
840.4388	837.0545	65535	64641.3
840.5839	839.1085	65535	64643.05
840.729	841.1618	65535	64639.85
840.8741	843.2143	65535	64645.85
841.0192	845.2662	65535	64643
841.1643	847.3175	65535	64644
841.3095	849.368	65535	64640.45
841.4546	851.4179	65535	64643.85
841.5997	853.467	65535	64643.3
841.7448	855.5155	65535	64641.1
841.8899	857.5633	65535	64643.35
842.0351	859.6105	65535	64644
842.1802	861.6569	65535	64643.85
842.3253	863.7027	65535	64641.6
842.4704	865.7478	65535	64641.2
842.6156	867.7922	65535	64644.9
842.7607	869.8359	65535	64640.85
842.9058	871.8789	65535	64639
843.0509	873.9212	65535	64609.8
843.1961	875.9629	65535	64639.5
843.3412	878.0039	65535	64642.4
843.4863	880.0441	65535	64642.7
843.6315	882.0837	65535	64638.3
843.7766	884.1226	65535	64640.35
843.9218	886.1609	65535	64642.5
844.0669	888.1984	65535	64642
844.212	890.2352	65535	64640.75
844.3572	892.2714	65535	64637.95
844.5023	894.3069	65535	64640.5
844.6475	896.3416	65535	64639.25
844.7926	898.3757	65535	64643.75
844.9377	900.4091	65535	64641.4
845.0829	902.4418	65535	64635.35
845.228	904.4739	65535	64638.7
845.3732	906.5052	65535	64639.8
845.5183	908.5358	65535	64639.15
845.6635	910.5658	65535	64639.8
845.8086	912.595	65535	64638.65
845.9538	914.6236	65535	64643.3
846.0989	916.6515	65535	64643.5
846.2441	918.6786	65535	64638.2
846.3892	920.7051	65535	64638.45
846.5344	922.7309	65535	64639.45
846.6795	924.756	65535	64640.3
846.8246	926.7804	65535	64637.1
846.9698	928.8041	65535	64633
847.1149	930.8272	65535	64639.75
847.2601	932.8495	65535	64637.9
847.4052	934.8711	65535	64638.7
847.5504	936.892	65535	64638.4
847.6955	938.9123	65535	64639
847.8407	940.9318	65535	64638.5
847.9858	942.9506	65535	64638.65
848.131	944.9688	65535	64638.3
848.2761	946.9862	65535	64638.95
848.4213	949.003	65535	64634.4
848.5664	951.019	65535	64639.7
848.7115	953.0344	65535	64636.2
848.8567	955.0491	65535	64638
849.0018	957.063	65535	64638.8
849.147	959.0763	65535	64640.45
849.2921	961.0888	65535	64635.75
849.4373	963.1007	65535	64637.85
849.5824	965.1119	65535	64639.85
849.7275	967.1223	65535	64638.5
849.8727	969.1321	65535	64637.35
850.0178	971.1412	65535	64638.55
850.1629	973.1495	65535	64640.05
850.3081	975.1572	65535	64603.9
850.4532	977.1641	65535	64638.6
850.5983	979.1704	65535	64638.2
850.7435	981.1759	65535	64636.35
850.8886	983.1808	65535	64635.25
851.0337	985.1849	65535	64627
851.1788	987.1884	65535	64634.45
851.324	989.1911	65535	64632.9
851.4691	991.1932	65535	64636.25
851.6142	993.1945	65535	64640.85
851.7593	995.1951	65535	64637.65
851.9045	997.1951	65535	64629.85
852.0496	999.1943	65535	64634.55
852.1947	1001.1928	65535	64636.05
852.3398	1003.1906	65535	64637.65
852.4849	1005.1877	65535	64633.75
852.63	1007.1841	65535	64638.9
852.7751	1009.1798	65535	64637.4
852.9202	1011.1748	65535	64636.05
853.0653	1013.1691	65535	64637.55
853.2104	1015.1627	65535	64637.75
853.3555	1017.1556	65535	64638
853.5006	1019.1477	65535	64637.45
853.6457	1021.1392	65535	64637.3
853.7908	1023.1299	65535	64639.35
853.9359	1025.12	65535	64635.85
854.081	1027.1093	65535	64642
854.2261	1029.0979	65535	64642.75
854.3712	1031.0859	65535	64636.7
854.5163	1033.0731	65535	64636.5
854.6613	1035.0596	65535	64640.25
854.8064	1037.0454	65535	64636.7
854.9515	1039.0304	65535	64636.3
855.0965	1041.0148	65535	64635.75
855.2416	1042.9985	65535	64634.5
855.3867	1044.9814	65535	64638.1
855.5317	1046.9636	65535	64634.65
855.6768	1048.9452	65535	64637.45
855.8219	1050.926	65535	64637.45
855.9669	1052.9061	65535	64638.1
856.112	1054.8855	65535	64639.3
856.257	1056.8642	65535	64636.85
856.4021	1058.8421	65535	64633.55
856.5471	1060.8194	65535	64634.7
856.6921	1062.7959	65535	64636.4
856.8372	1064.7717	65535	64637
856.9822	1066.7469	65535	64633.6
857.1272	1068.7213	65535	64634.05
857.2723	1070.695	65535	64634.45
857.4173	1072.6679	65535	64637.35
857.5623	1074.6402	65535	64635.25
857.7073	1076.6117	65535	64632.15
857.8523	1078.5826	65535	64636.6
857.9973	1080.5527	65535	64632
858.1423	1082.5221	65535	64635.9
858.2873	1084.4908	65535	64635.6
858.4323	1086.4587	65535	64636.9
858.5773	1088.426	65535	64635.4
858.7223	1090.3925	65535	64631.8
858.8673	1092.3584	65535	64637.25
859.0123	1094.3235	65535	64636.95
859.1573	1096.2879	65535	64635.7
859.3022	1098.2515	65535	64634.85
859.4472	1100.2145	65535	64635.9
859.5922	1102.1767	65535	64633.55
859.7371	1104.1382	65535	64636.25
859.8821	1106.099	65535	64637.25
860.027	1108.0591	65535	64636.95
860.172	1110.0185	65535	64632.15
860.3169	1111.9771	65535	64637.25
860.4619	1113.9351	65535	64635.1
860.6068	1115.8923	65535	64634.75
860.7517	1117.8488	65535	64633.6
860.8967	1119.8045	65535	64635.95
861.0416	1121.7596	65535	64635.85
861.1865	1123.7139	65535	64636.4
861.3314	1125.6675	65535	64637.65
861.4763	1127.6204	65535	64636.7
861.6212	1129.5726	65535	64632.5
861.7661	1131.524	65535	64636.35
861.911	1133.4748	65535	64635.65
862.0559	1135.4248	65535	64633.2
862.2008	1137.3741	65535	64637.4
862.3457	1139.3226	65535	64634.3
862.4905	1141.2705	65535	64636.2
862.6354	1143.2176	65535	64628.95
862.7803	1145.164	65535	64632.4
862.9251	1147.1097	65535	64633.7
863.07	1149.0546	65535	64635.3
863.2148	1150.9989	65535	64636.15
863.3597	1152.9424	65535	64633.9
863.5045	1154.8852	65535	64633.85
863.6493	1156.8272	65535	64637.05
863.7942	1158.7686	65535	64630.3
863.939	1160.7092	65535	64634.45
864.0838	1162.6491	65535	64633.7
864.2286	1164.5883	65535	64638.55
864.3734	1166.5267	65535	64635.5
864.5182	1168.4644	65535	64635.15
864.663	1170.4014	65535	64629.65
864.8078	1172.3377	65535	64635.65
864.9526	1174.2732	65535	64637.8
865.0974	1176.2081	65535	64638.95
865.2421	1178.1421	65535	64631.3
865.3869	1180.0755	65535	64636.8
865.5317	1182.0082	65535	64636.25
865.6764	1183.9401	65535	64637.9
865.8212	1185.8713	65535	64637.05
865.9659	1187.8017	65535	64634.75
866.1106	1189.7315	65535	64638.9
866.2554	1191.6605	65535	64611.35
866.4001	1193.5888	65535	64636.6
866.5448	1195.5163	65535	64637.3
866.6895	1197.4432	65535	64634.4
866.8342	1199.3693	65535	64636.45
866.9789	1201.2947	65535	64634.5
867.1236	1203.2193	65535	64636.85
867.2683	1205.1432	65535	64634.5
867.413	1207.0664	65535	64633.95
867.5576	1208.9889	65535	64633.35
867.7023	1210.9106	65535	64635.95
867.847	1212.8316	65535	64638.15
867.9916	1214.7519	65535	64624.8
868.1363	1216.6715	65535	64637.7
868.2809	1218.5903	65535	64637.25
868.4255	1220.5084	65535	64636.55
868.5701	1222.4257	65535	64635.7
868.7148	1224.3424	65535	64637.55
868.8594	1226.2583	65535	64634.65
869.004	1228.1735	65535	64633.55
869.1486	1230.0879	65535	64634.95
869.2932	1232.0016	65535	64637.8
869.4377	1233.9146	65535	64634.55
869.5823	1235.8269	65535	64634.45
869.7269	1237.7384	65535	64636.25
869.8715	1239.6492	65535	64636.75
870.016	1241.5592	65535	64636.45
870.1606	1243.4686	65535	64639.25
870.3051	1245.3772	65535	64637.55
870.4496	1247.285	65535	64635.3
870.5941	1249.1922	65535	64637.35
870.7387	1251.0986	65535	64639.65
870.8832	1253.0042	65535	64637.65
871.0277	1254.9092	65535	64635.65
871.1722	1256.8134	65535	64635.7
871.3167	1258.7169	65535	64635.45
871.4611	1260.6196	65535	64637.65
871.6056	1262.5216	65535	64635.75
871.7501	1264.4229	65535	64637.9
871.8945	1266.3234	65535	64635.6
872.039	1268.2232	65535	64635.45
872.1834	1270.1223	65535	64635.95
872.3278	1272.0207	65535	64635.2
872.4723	1273.9183	65535	64628.7
872.6167	1275.8151	65535	64636.8
872.7611	1277.7113	65535	64635.1
872.9055	1279.6067	65535	64637.4
873.0499	1281.5014	65535	64635.75
873.1943	1283.3953	65535	64635.9
873.3386	1285.2885	65535	64635.1
873.483	1287.181	65535	64634.5
873.6274	1289.0727	65535	64637.5
873.7717	1290.9637	65535	64636.65
873.9161	1292.854	65535	64635.45
874.0604	1294.7435	65535	64634.2
874.2047	1296.6323	65535	64633.7
874.349	1298.5204	65535	64632.5
874.4933	1300.4077	65535	64636.05
874.6376	1302.2943	65535	64636.65
874.7819	1304.1802	65535	64638.6
874.9262	1306.0653	65535	64635.8
875.0705	1307.9497	65535	64636.35
875.2147	1309.8333	65535	64636.75
875.359	1311.7162	65535	64635.05
875.5032	1313.5984	65535	64634.4
875.6475	1315.4798	65535	64621.3
875.7917	1317.3605	65535	64620.05
875.9359	1319.2405	65535	64633.15
876.0801	1321.1197	65535	64635.1
876.2243	1322.9982	65535	64632.3
876.3685	1324.876	65535	64638.35
876.5127	1326.753	65535	64637.2
876.6569	1328.6293	65535	64634.75
876.801	1330.5048	65535	64634.3
876.9452	1332.3796	65535	64637.9
877.0893	1334.2537	65535	64610.15
877.2335	1336.127	65535	64635
877.3776	1337.9996	65535	64634.6
877.5217	1339.8714	65535	64636.85
877.6658	1341.7426	65535	64591.05
877.8099	1343.6129	65535	64636.15
877.954	1345.4826	65535	64633.6
878.0981	1347.3515	65535	64634.05
878.2422	1349.2196	65535	64635.2
878.3862	1351.087	65535	64636.25
878.5303	1352.9537	65535	64636.3
878.6743	1354.8197	65535	64634.05
878.8184	1356.6849	65535	64636.4
878.9624	1358.5493	65535	64635.65
879.1064	1360.4131	65535	64633.65
879.2504	1362.276	65535	64636.3
879.3944	1364.1383	65535	64637
879.5384	1365.9998	65535	64629.4
879.6823	1367.8606	65535	64634.4
879.8263	1369.7206	65535	64633.9
879.9702	1371.5799	65535	64635
880.1142	1373.4384	65535	64637.9
880.2581	1375.2962	65535	64635.65
880.402	1377.1533	65535	64634.35
880.5459	1379.0096	65535	64634.7
880.6898	1380.8652	65535	64634.65
880.8337	1382.7201	65535	64635.55
880.9776	1384.5742	65535	64635.75
881.1215	1386.4275	65535	64634.15
881.2653	1388.2802	65535	64635.9
881.4092	1390.132	65535	64637.35
881.553	1391.9832	65535	64634.75
881.6968	1393.8336	65535	64635.8
881.8406	1395.6832	65535	64634
881.9844	1397.5322	65535	64632.45
882.1282	1399.3803	65535	64629.75
882.272	1401.2278	65535	64636.75
882.4158	1403.0745	65535	64635.55
882.5595	1404.9204	65535	64637.6
882.7033	1406.7656	65535	64637.65
882.847	1408.6101	65535	64635.6
882.9908	1410.4538	65535	64634.6
883.1345	1412.2968	65535	64635.35
883.2782	1414.139	65535	64635.6
883.4219	1415.9805	65535	64635.35
883.5656	1417.8213	65535	64630.15
883.7092	1419.6613	65535	64636.25
883.8529	1421.5006	65535	64634.5
883.9965	1423.3391	65535	64635.65
884.1402	1425.1769	65535	64636.2
884.2838	1427.0139	65535	64635.2
884.4274	1428.8502	65535	64635.3
884.571	1430.6858	65535	64634.95
884.7146	1432.5206	65535	64635
884.8582	1434.3547	65535	64635.6
885.0018	1436.188	65535	64635.65
885.1453	1438.0206	65535	64634.4
885.2889	1439.8524	65535	64634.35
885.4324	1441.6835	65535	64636.65
885.5759	1443.5139	65535	64633.6
885.7194	1445.3435	65535	64635.35
885.8629	1447.1724	65535	64637.3
886.0064	1449.0005	65535	64637.3
886.1499	1450.8279	65535	64634.15
886.2933	1452.6545	65535	64635.8
886.4368	1454.4804	65535	64638.1
886.5802	1456.3056	65535	64628.85
886.7237	1458.13	65535	64636.5
886.8671	1459.9536	65535	64634.85
887.0105	1461.7766	65535	64636.75
887.1539	1463.5987	65535	64636.5
887.2972	1465.4202	65535	64638.7
887.4406	1467.2409	65535	64636.15
887.584	1469.0608	65535	64635.35
887.7273	1470.88	65535	64634.85
887.8706	1472.6984	65535	64636.6
888.0139	1474.5161	65535	64633.3
888.1572	1476.3331	65535	64636.85
888.3005	1478.1493	65535	64635.4
888.4438	1479.9648	65535	64637.15
888.5871	1481.7795	65535	64637.15
888.7303	1483.5935	65535	64636.3
888.8736	1485.4067	65535	64635.95
889.0168	1487.2192	65535	64636.25
889.16	1489.031	65535	64631.95
889.3032	1490.842	65535	64636.1
889.4464	1492.6522	65535	64634.4
889.5896	1494.4618	65535	64633.9
889.7327	1496.2705	65535	64639.2
889.8759	1498.0785	65535	64634.65
890.019	1499.8858	65535	64636.6
890.1622	1501.6924	65535	64635.4
890.3053	1503.4981	65535	64636.7
890.4484	1505.3032	65535	64635.7
890.5914	1507.1075	65535	64636.8
890.7345	1508.911	65535	64638.75
890.8776	1510.7138	65535	64634.6
891.0206	1512.5159	65535	64635.25
891.1637	1514.3172	65535	64637
891.3067	1516.1178	65535	64635.75
891.4497	1517.9176	65535	64634.5
891.5927	1519.7166	65535	64636.95
891.7357	1521.515	65535	64629.85
891.8786	1523.3126	65535	64637.15
892.0216	1525.1094	65535	64634.1
892.1645	1526.9055	65535	64636.05
892.3074	1528.7008	65535	64635.7
892.4503	1530.4954	65535	64630.75
892.5932	1532.2893	65535	64639.05
892.7361	1534.0824	65535	64632.8
892.879	1535.8747	65535	64635.45
893.0218	1537.6663	65535	64637.35
893.1647	1539.4572	65528	64631.2
893.3075	1541.2473	65535	64637.05
893.4503	1543.0367	65535	64636.45
893.5931	1544.8253	65535	64633.65
893.7359	1546.6132	65535	64635.05
893.8787	1548.4003	65530	64624.05
894.0214	1550.1867	65527.3	64622.35
894.1642	1551.9723	65515.4	64612.7
894.3069	1553.7572	65517.9	64617.75
894.4496	1555.5414	65531.25	64635.3
894.5923	1557.3247	65339.5	64443.3
894.735	1559.1074	65522.1	64627.1
894.8777	1560.8893	65490.55	64592.9
895.0204	1562.6705	65509.4	64612.6
895.163	1564.4509	65369.25	64472.8
895.3056	1566.2305	65461.35	64565.1
895.4482	1568.0094	65511.45	64618.05
895.5908	1569.7876	65464.15	64568.75
895.7334	1571.565	65344.3	64447.9
895.876	1573.3417	65404.35	64510.05
896.0186	1575.1176	65401.95	64504.9
896.1611	1576.8928	65325.65	64431.15
896.3036	1578.6672	65081.95	64185
896.4461	1580.4409	65253.85	64358.85
896.5886	1582.2138	64890.75	63992.9
896.7311	1583.986	64975.2	64075.25
896.8736	1585.7575	64571.8	63676.05
897.0161	1587.5282	64724.35	63831.05
897.1585	1589.2981	64704.8	63810.15
897.3009	1591.0673	64223.65	63328.6
897.4433	1592.8358	63817.3	62921.75
897.5857	1594.6035	64254.6	63356.1
897.7281	1596.3704	64314.55	63419.05
897.8705	1598.1366	63539.5	62641.1
898.0128	1599.9021	63118.35	62222.15
898.1551	1601.6668	63837.6	62940
898.2975	1603.4308	63380.9	62482.75
898.4398	1605.194	63457.95	62557.25
898.5821	1606.9564	62478	61581.65
898.7243	1608.7182	63030.95	62131.15
898.8666	1610.4791	62475.65	61582.35
899.0088	1612.2394	62956.75	62063.35
899.1511	1613.9988	62371.5	61476.25
899.2933	1615.7576	63118.9	62223.2
899.4355	1617.5156	63046.35	62146.55
899.5776	1619.2728	63753	62858.6
899.7198	1621.0293	62582.3	61688.55
899.862	1622.785	62618.25	61721.75
900.0041	1624.54	62956.25	62058.55
900.1462	1626.2942	62401.55	61505.3
900.2883	1628.0477	61425.8	60527.7
900.4304	1629.8005	60734.75	59833.95
900.5725	1631.5525	61415	60521.05
900.7145	1633.3037	60230.3	59334
900.8566	1635.0542	60100.7	59206.4
900.9986	1636.804	60480.6	59586.75
901.1406	1638.553	59455.5	58453.8
901.2826	1640.3013	59748.2	58853.1
901.4245	1642.0488	58989.7	58093.95
901.5665	1643.7955	59536.1	58640.5
901.7085	1645.5416	58981.5	58084.95
901.8504	1647.2868	58552.2	57656.75
901.9923	1649.0313	59284	58391.35
902.1342	1650.7751	58832.3	57934.7
902.2761	1652.5181	58449.65	57554.6
902.4179	1654.2604	58578.2	57683.05
902.5598	1656.0019	59118.35	58224
902.7016	1657.7427	58773.95	57880.7
902.8434	1659.4828	59385.8	58492.3
902.9852	1661.222	59043.8	58145.9
903.127	1662.9606	59420.3	58527.15
903.2687	1664.6984	58720.55	57823.8
903.4105	1666.4354	58758.7	57863.35
903.5522	1668.1717	57591.2	56698.4
903.6939	1669.9072	56841.45	55945.6
903.8356	1671.642	56555.7	55659.8
903.9773	1673.3761	56259.2	55365.75
904.119	1675.1094	55972.45	55079
904.2606	1676.8419	55440.55	54548.1
904.4022	1678.5737	55138.45	54243
904.5439	1680.3048	54855.85	53960.4
904.6855	1682.0351	54639.2	53745.5
904.827	1683.7646	54301.3	53403.1
904.9686	1685.4934	54239.6	53344.6
905.1101	1687.2215	53453.05	52558.25
905.2517	1688.9488	53836.9	52946.85
905.3932	1690.6754	52787.45	51894.45
905.5347	1692.4012	53041.25	52148.65
905.6761	1694.1263	52912.45	52019.45
905.8176	1695.8506	52629.2	51735.7
905.9591	1697.5742	52455.65	51564
906.1005	1699.297	52209.35	51314.55
906.2419	1701.0191	52024.1	51131
906.3833	1702.7404	51634.05	50740.55
906.5246	1704.461	51386	50490.15
906.666	1706.1808	51204.25	50309.3
906.8073	1707.8999	51045	50149.2
906.9487	1709.6182	50901.8	50006.3
907.09	1711.3358	50789.55	49897.4
907.2313	1713.0527	50572.3	49680
907.3725	1714.7688	50437.7	49538.7
907.5138	1716.4841	50019.9	49123.1
907.655	1718.1987	50028.95	49129.65
907.7962	1719.9126	49833.2	48941.55
907.9374	1721.6257	49688.7	48794.15
908.0786	1723.338	49620.3	48727
908.2198	1725.0496	49123.2	48232.25
908.3609	1726.7605	49044.75	48149.7
908.502	1728.4706	48924.05	48029.15
908.6431	1730.18	48657.65	47761.25
908.7842	1731.8886	48517.4	47625.75
908.9253	1733.5964	48311.85	47398.2
909.0664	1735.3036	48263.15	47366.95
909.2074	1737.0099	48154.05	47260.15
909.3484	1738.7156	47947.85	47055.6
909.4894	1740.4204	47696.75	46801.25
909.6304	1742.1246	47637.45	46742.65
909.7714	1743.8279	47495.3	46601.45
909.9123	1745.5306	47408.1	46516.45
910.0532	1747.2325	47127.85	46233.9
910.1941	1748.9336	46971.7	46078.9
910.335	1750.634	46797.05	45902.7
910.4759	1752.3336	46732.15	45839.65
910.6168	1754.0325	46567.2	45675.2
910.7576	1755.7307	46526.6	45632.15
910.8984	1757.4281	46377	45485.65
911.0392	1759.1247	46311.05	45409.15
911.18	1760.8206	46115.6	45219.1
911.3208	1762.5158	46095.55	45197.8
911.4615	1764.2102	45819.45	44927.85
911.6022	1765.9039	45629.55	44738.2
911.7429	1767.5968	45559.8	44669.15
911.8836	1769.289	45340.55	44447.5
912.0243	1770.9804	45276.75	44383.25
912.1649	1772.6711	45211.45	44319.7
912.3056	1774.361	44992.1	44099.35
912.4462	1776.0502	44910.95	44019
912.5868	1777.7386	44797.95	43902.1
912.7274	1779.4263	44651.35	43760.55
912.8679	1781.1132	44605.75	43713.8
913.0084	1782.7994	44401.15	43510.35
913.149	1784.4849	44293.2	43402.05
913.2895	1786.1696	44129.4	43231
913.4299	1787.8535	43931.15	43039.6
913.5704	1789.5367	43904.3	43013.2
913.7108	1791.2192	43779.8	42887.5
913.8513	1792.9009	43575.1	42651.25
913.9917	1794.5818	43459.65	42565.85
914.132	1796.2621	43384.85	42493.05
914.2724	1797.9415	43248.75	42356.8
914.4128	1799.6202	43082.6	42189
914.5531	1801.2982	43022.9	42132.05
914.6934	1802.9755	42859.35	41965.8
914.8337	1804.6519	42766.35	41873.55
914.9739	1806.3277	42514.2	41623.3
915.1142	1808.0027	42289.35	41400.2
915.2544	1809.6769	42326.5	41433.1
915.3946	1811.3504	42161	41268.15
915.5348	1813.0231	42096.8	41204.5
915.675	1814.6951	41983.4	41092
915.8151	1816.3664	41967.35	41071.8
915.9553	1818.0369	41796.25	40904.4
916.0954	1819.7067	41663.7	40771.45
916.2355	1821.3757	41523.25	40629.95
916.3755	1823.044	41449.5	40557.05
916.5156	1824.7115	41356.5	40463.45
916.6556	1826.3783	41155.8	40266.5
916.7956	1828.0443	41005	40114.35
916.9356	1829.7096	40974.3	40080.25
917.0756	1831.3741	40862.55	39967.6
917.2155	1833.0379	40715.65	39825.6
917.3555	1834.701	40542.4	39649.3
917.4954	1836.3633	40497.5	39603.85
917.6353	1838.0248	40336.95	39443.45
917.7751	1839.6856	40267.55	39375.65
917.915	1841.3457	40216.5	39324.8
918.0548	1843.005	40110.65	39219.45
918.1946	1844.6636	39965.65	39073.75
918.3344	1846.3214	39870.75	38976.8
918.4742	1847.9785	39801.9	38911.35
918.6139	1849.6349	39664.65	38771.25
918.7537	1851.2904	39555.75	38655.95
918.8934	1852.9453	39421	38527.35
919.0331	1854.5994	39333	38440.2
919.1727	1856.2528	39295.2	38398.95
919.3124	1857.9054	39157.85	38266.45
919.452	1859.5572	39108.55	38216.15
919.5916	1861.2083	39016.1	38123.1
919.7312	1862.8587	38945.8	38053.2
919.8708	1864.5084	38810.25	37917.35
920.0103	1866.1572	38638.2	37745
920.1498	1867.8054	38466.9	37575
920.2893	1869.4528	38429.9	37535.8
920.4288	1871.0994	38277.55	37384.7
920.5683	1872.7453	38228.7	37335.25
920.7077	1874.3905	38163.55	37265.25
920.8471	1876.0349	37973.1	37082.3
920.9865	1877.6786	37951.2	37057.4
921.1259	1879.3215	37856.75	36963.65
921.2653	1880.9637	37796.3	36902.85
921.4046	1882.6051	37681.5	36790.8
921.5439	1884.2458	37564.65	36671.8
921.6832	1885.8858	37419	36526.05
921.8225	1887.525	37304.5	36411.55
921.9617	1889.1634	37110.25	36220.4
922.101	1890.8011	37027.75	36136.85
922.2402	1892.4381	36902.25	36010.35
922.3794	1894.0743	36873	35980.2
922.5185	1895.7098	36721.2	35830.7
922.6577	1897.3446	36595	35700.2
922.7968	1898.9786	36535.3	35640.45
922.9359	1900.6118	36476.65	35585.65
923.075	1902.2443	36255.75	35360.75
923.214	1903.8761	36203.15	35313
923.3531	1905.5071	35913.4	35022.2
923.4921	1907.1374	35839.65	34947.15
923.6311	1908.7669	35784.05	34890.85
923.77	1910.3957	35699.05	34807.4
923.909	1912.0237	35450.9	34559.6
924.0479	1913.651	35378.2	34485
924.1868	1915.2776	35301.55	34411.95
924.3257	1916.9034	35114.8	34224.25
924.4646	1918.5285	34940.8	34051
924.6034	1920.1528	34776.35	33883.9
924.7422	1921.7764	34692	33798.95
924.881	1923.3992	34593.75	33701.25
925.0198	1925.0213	34361.1	33469.8
925.1586	1926.6427	34193.1	33302.3
925.2973	1928.2633	34220.85	33219.55
925.436	1929.8832	34050.55	33156
925.5747	1931.5023	33841.8	32949.2
925.7134	1933.1207	33765.45	32873.5
925.852	1934.7383	33723.6	32832.6
925.9906	1936.3552	33545.1	32653.9
926.1292	1937.9714	33474.6	32581.8
926.2678	1939.5868	33327.2	32434.3
926.4064	1941.2015	33116.3	32223.35
926.5449	1942.8154	33006.55	32114.85
926.6834	1944.4286	32815.8	31923.6
926.8219	1946.041	32739.35	31828.4
926.9604	1947.6528	32535.85	31637.05
927.0988	1949.2637	32475.6	31583.65
927.2372	1950.8739	32367.5	31475.55
927.3756	1952.4834	32250.55	31359.5
927.514	1954.0921	32195.2	31301.25
927.6523	1955.7001	32074.5	31177.9
927.7907	1957.3074	31919.65	31028
927.929	1958.9139	31707.8	30817.55
928.0673	1960.5197	31651.6	30758.6
928.2055	1962.1247	31500.55	30609.4
928.3438	1963.729	31350.55	30459.85
928.482	1965.3325	31236.95	30322.55
928.6202	1966.9353	31114.55	30224
928.7584	1968.5374	31029.25	30135.55
928.8965	1970.1387	30912.85	30022.25
929.0346	1971.7393	30770.65	29878.45
929.1727	1973.3392	30693.95	29802.05
929.3108	1974.9383	30571.95	29680.65
929.4489	1976.5366	30482.5	29590.95
929.5869	1978.1342	30401.3	29509.95
929.7249	1979.7311	30321.4	29429.15
929.8629	1981.3273	30205.15	29311.35
930.0009	1982.9227	30096.4	29204.2
930.1388	1984.5173	29975.3	29086.05
930.2767	1986.1112	29852.55	28963.65
930.4146	1987.7044	29789.45	28900.35
930.5525	1989.2968	29689.2	28796.7
930.6904	1990.8885	29552.6	28658.25
930.8282	1992.4795	29488.55	28595.4
930.966	1994.0697	29341.6	28450.5
931.1038	1995.6592	29264.7	28373.25
931.2415	1997.2479	29151.05	28259.25
931.3793	1998.8359	29055.8	28164.2
931.517	2000.4232	28954.35	28064.15
931.6547	2002.0097	28849.75	27960.95
931.7923	2003.5955	28673.45	27782.4
931.93	2005.1805	28636.2	27743.2
932.0676	2006.7648	28552.55	27662.6
932.2052	2008.3484	28434.8	27541.1
932.3427	2009.9312	28488.3	27595.05
932.4803	2011.5133	28262	27372.1
932.6178	2013.0946	28205.5	27314.45
932.7553	2014.6752	28124.75	27235.25
932.8928	2016.2551	28067.2	27174.25
933.0302	2017.8342	27890.95	27000.8
933.1676	2019.4126	27790.45	26901.65
933.305	2020.9902	27671.15	26780.5
933.4424	2022.5672	27608.15	26716.95
933.5798	2024.1433	27541.2	26644.75
933.7171	2025.7188	27425.55	26535.05
933.8544	2027.2935	27380.45	26490.25
933.9917	2028.8674	27228.35	26336.75
934.129	2030.4406	27151.2	26262.75
934.2662	2032.0131	26991.25	26103.8
934.4034	2033.5849	26899.3	26003.4
934.5406	2035.1559	26864.2	25973.85
934.6778	2036.7261	26814.25	25922.5
934.8149	2038.2957	26728.95	25837.25
934.952	2039.8645	26608.6	25718.7
935.0891	2041.4325	26658.35	25765.35
935.2262	2042.9998	26466.75	25576.95
935.3632	2044.5664	26400.55	25506.85
935.5002	2046.1323	26330.1	25438
935.6372	2047.6974	26220.8	25330.85
935.7742	2049.2617	26178.65	25288.1
935.9111	2050.8254	26161.65	25249.4
936.048	2052.3883	26039.7	25148.65
936.1849	2053.9504	25958.2	25065.2
936.3218	2055.5118	25864.75	24973.35
936.4586	2057.0725	25717.9	24823.55
936.5955	2058.6325	25732.7	24843.4
936.7323	2060.1917	25564.7	24673.25
936.869	2061.7502	25517.8	24626.3
937.0058	2063.3079	25400	24507.4
937.1425	2064.8649	25361.55	24465.8
937.2792	2066.4212	25271.35	24379.45
937.4159	2067.9767	25192.55	24302.95
937.5525	2069.5315	25077.95	24187.85
937.6891	2071.0856	24927.5	24038.6
937.8257	2072.6389	24868.3	23975.3
937.9623	2074.1915	24746.85	23854.45
938.0989	2075.7433	24587.8	23695.8
938.2354	2077.2945	24590.15	23700.95
938.3719	2078.8448	24459	23568.75
938.5084	2080.3945	24375.35	23485.25
938.6448	2081.9434	24329	23437.55
938.7812	2083.4916	24251.9	23361.5
938.9176	2085.039	24138.05	23244.45
939.054	2086.5857	24143.4	23250.8
939.1903	2088.1317	24029.1	23136.45
939.3267	2089.677	23958.4	23067.35
939.463	2091.2215	23857.95	22966.15
939.5992	2092.7652	23789.9	22896.9
939.7355	2094.3083	23725.3	22832.3
939.8717	2095.8506	23680.35	22790.7
940.0079	2097.3921	23686.9	22797.4
940.1441	2098.933	23547.1	22655.35
940.2802	2100.4731	23496.6	22605
940.4163	2102.0124	23479.55	22580.8
940.5524	2103.5511	23385.55	22494.5
940.6885	2105.089	23346.35	22453.15
940.8245	2106.6261	23241.7	22349.75
940.9606	2108.1626	23184.8	22291.9
941.0965	2109.6983	23159.85	22239.75
941.2325	2111.2332	23040.1	22149.45
941.3684	2112.7675	22966.45	22075
941.5044	2114.301	22889.15	21997.25
941.6403	2115.8337	22847.7	21955.55
941.7761	2117.3657	22793.7	21902.15
941.912	2118.897	22706.15	21815.85
942.0478	2120.4276	22623.5	21724.5
942.1835	2121.9575	22497.8	21605.55
942.3193	2123.4866	22542.25	21638.6
942.455	2125.0149	22468.45	21576
942.5907	2126.5426	22284.5	21392.25
942.7264	2128.0695	22244.05	21348.5
942.8621	2129.5956	22189.55	21300.1
942.9977	2131.1211	22153.05	21256.65
943.1333	2132.6458	22032.05	21142.55
943.2689	2134.1698	22026.75	21136.85
943.4044	2135.693	21938.85	21041.95
943.54	2137.2155	21898.75	21005.4
943.6755	2138.7373	21853.65	20960.5
943.8109	2140.2584	21738.75	20848.75
943.9464	2141.7787	21683.1	20787.5
944.0818	2143.2983	21556.8	20664.5
944.2172	2144.8171	21418.05	20528.65
944.3526	2146.3353	21402.9	20511.25
944.4879	2147.8527	21304.35	20414.4
944.6232	2149.3693	21271	20380.35
944.7585	2150.8853	21197.25	20305.4
944.8938	2152.4005	21092.95	20201.75
945.029	2153.9149	21074.2	20181.7
945.1642	2155.4287	20994.55	20104.15
945.2994	2156.9417	20925.4	20030.7
945.4346	2158.454	20900.9	20006.05
945.5697	2159.9655	20799.45	19908.2
945.7048	2161.4764	20773.2	19882.85
945.8399	2162.9865	20648.95	19758
945.9749	2164.4958	20638.35	19745.4
946.1099	2166.0045	20558.65	19664.65
946.2449	2167.5124	20487.6	19597
946.3799	2169.0195	20441.6	19548.8
946.5148	2170.526	20445.65	19554.95
946.6498	2172.0317	20322.3	19430.25
946.7846	2173.5367	20278.8	19386.6
946.9195	2175.0409	20192.5	19303.65
947.0543	2176.5445	20188.05	19297.6
947.1891	2178.0473	20093.2	19199.55
947.3239	2179.5494	20018.5	19123.5
947.4587	2181.0507	19935.5	19044
947.5934	2182.5513	19866.1	18974.1
947.7281	2184.0512	19807	18915.75
947.8628	2185.5504	19735.1	18843.5
947.9974	2187.0488	19612.3	18723.35
948.132	2188.5465	19581.2	18689.1
948.2666	2190.0435	19537.8	18645.95
948.4012	2191.5397	19467.15	18576.45
948.5357	2193.0353	19351.25	18461.9
948.6702	2194.5301	19277	18385.4
948.8047	2196.0241	19177.75	18285.95
948.9392	2197.5175	19121.85	18230.1
949.0736	2199.0101	19106.35	18211.05
949.208	2200.502	18938.6	18046.7
949.3424	2201.9931	18898.95	18007.95
949.4767	2203.4835	18829.95	17939
949.611	2204.9733	18754.9	17857
949.7453	2206.4622	18701.15	17809.9
949.8796	2207.9505	18613.4	17717.8
950.0138	2209.438	18523.25	17633.15
950.148	2210.9248	18475.6	17582.65
950.2822	2212.4109	18410.25	17519.3
950.4164	2213.8962	18332.8	17437.9
950.5505	2215.3809	18322.05	17429.05
950.6846	2216.8648	18272.75	17381.65
950.8186	2218.3479	18202.5	17306.5
950.9527	2219.8304	18083.2	17186.55
951.0867	2221.3121	18064.2	17169.5
951.2207	2222.7931	18001.6	17112.1
951.3546	2224.2733	17930.3	17040.55
951.4886	2225.7529	17839.65	16947.1
951.6225	2227.2317	17763.7	16869.6
951.7563	2228.7098	17748.7	16857.35
951.8902	2230.1872	17641.7	16750.05
952.024	2231.6638	17632.35	16741.5
952.1578	2233.1397	17543	16645.85
952.2916	2234.6149	17528.2	16636.4
952.4253	2236.0894	17434.45	16543.55
952.559	2237.5632	17400.7	16500.55
952.6927	2239.0362	17287.05	16394.55
952.8263	2240.5085	17245.9	16353.9
952.9599	2241.9801	17188	16295.3
953.0935	2243.4509	17137.2	16247.5
953.2271	2244.921	17092.65	16201.25
953.3606	2246.3904	16969.95	16076.1
953.4941	2247.8591	16910.55	16019.8
953.6276	2249.3271	16886.65	15995.55
953.7611	2250.7943	16819.45	15925.1
953.8945	2252.2608	16735.9	15843.55
954.0279	2253.7266	16721.15	15830.25
954.1612	2255.1917	16668.4	15776.6
954.2946	2256.656	16584.6	15690.5
954.4279	2258.1197	16527.45	15635.5
954.5612	2259.5826	16470.85	15574.5
954.6944	2261.0447	16472.85	15580.05
954.8276	2262.5062	16331.2	15437.15
954.9608	2263.9669	16335.6	15441.55
955.094	2265.4269	16301.2	15410.6
955.2271	2266.8862	16229.8	15339.2
955.3602	2268.3448	16159.25	15266.35
955.4933	2269.8026	16156.7	15263.55
955.6264	2271.2598	16111.2	15219.65
955.7594	2272.7162	16032.05	15140.75
955.8924	2274.1719	16023.65	15131.5
956.0253	2275.6268	15919.05	15026.6
956.1583	2277.0811	15913.35	15022.3
956.2912	2278.5346	15853.75	14963.35
956.4241	2279.9874	15788.75	14897.9
956.5569	2281.4395	15743.6	14853.25
956.6897	2282.8908	15721.9	14827.15
956.8225	2284.3414	15704.35	14810.15
956.9553	2285.7914	15634.25	14743.7
957.088	2287.2406	15560.1	14664.8
957.2207	2288.689	15517.6	14625.4
957.3534	2290.1368	15441.3	14549.25
957.486	2291.5838	15396.15	14502.2
957.6186	2293.0302	15356	14461.65
957.7512	2294.4758	15280.4	14390.15
957.8838	2295.9206	15230.25	14334.1
958.0163	2297.3648	15193.15	14303.1
958.1488	2298.8082	15146.45	14252.85
958.2813	2300.251	15113.1	14221
958.4137	2301.693	15019.6	14125.75
958.5461	2303.1343	15017.6	14122.8
958.6785	2304.5748	14974.05	14081.2
958.8108	2306.0147	14903.5	14012.1
958.9432	2307.4538	14882	13988.05
959.0754	2308.8922	14842.8	13951.45
959.2077	2310.3299	14801.45	13909.05
959.3399	2311.7669	14704.4	13813.15
959.4721	2313.2031	14680.6	13790.4
959.6043	2314.6387	14593	13702.6
959.7365	2316.0735	14564.05	13672.6
959.8686	2317.5076	14509	13617.9
960.0006	2318.941	14456.4	13564.6
960.1327	2320.3737	14427	13534.6
960.2647	2321.8056	14391.1	13496.5
960.3967	2323.2369	14328.85	13436.1
960.5287	2324.6674	14267.35	13372.05
960.6606	2326.0972	14225.15	13331.2
960.7925	2327.5263	14188.95	13298.85
960.9244	2328.9547	14130.2	13238.05
961.0562	2330.3823	14103.7	13211.45
961.1881	2331.8092	14088.3	13193.45
961.3198	2333.2355	13971.8	13079.25
961.4516	2334.661	13962.65	13069.15
961.5833	2336.0858	13910.45	13015.6
961.715	2337.5098	13888.9	12998.4
961.8467	2338.9332	13853.35	12959.5
961.9783	2340.3558	13798.3	12901.9
962.1099	2341.7778	13741.8	12849.4
962.2415	2343.199	13683.25	12789.6
962.373	2344.6195	13653.3	12760.4
962.5045	2346.0393	13626.75	12737.75
962.636	2347.4583	13599.2	12708
962.7675	2348.8767	13538.75	12645.6
962.8989	2350.2943	13480.3	12585.75
963.0303	2351.7113	13455.2	12560.7
963.1617	2353.1275	13418.45	12527.05
963.293	2354.543	13390.65	12474.5
963.4243	2355.9578	13325.85	12434.1
963.5556	2357.3718	13240.8	12350.7
963.6868	2358.7852	13190.8	12296.45
963.818	2360.1978	13118.05	12225.8
963.9492	2361.6098	13109.6	12217.15
964.0803	2363.021	13054.25	12159.4
964.2114	2364.4315	13035.35	12144
964.3425	2365.8413	12949.4	12056.55
964.4736	2367.2504	12906.2	12014.9
964.6046	2368.6587	12833.4	11942.45
964.7356	2370.0664	12807.05	11915.95
964.8666	2371.4733	12767.1	11876.4
964.9975	2372.8795	12690.45	11800.1
965.1284	2374.285	12643.6	11753.1
965.2593	2375.6899	12610.35	11718
965.3901	2377.0939	12520.65	11629.85
965.5209	2378.4973	12484.2	11593.5
965.6517	2379.9	12429.8	11537.3
965.7825	2381.3019	12410.15	11520.3
965.9132	2382.7032	12336.4	11446.3
966.0439	2384.1037	12325.4	11434.95
966.1745	2385.5035	12258.4	11366.45
966.3051	2386.9027	12237.1	11347.2
966.4357	2388.3011	12225.05	11330
966.5663	2389.6987	12156.65	11266.55
966.6968	2391.0957	12115.3	11225.9
966.8273	2392.492	12058.25	11167.7
966.9578	2393.8876	11978.3	11086.15
967.0882	2395.2824	11930.85	11039.55
967.2186	2396.6765	11887.95	10997.35
967.349	2398.07	11844.6	10954.35
967.4793	2399.4627	11824.35	10932.15
967.6097	2400.8547	11765.4	10874
967.7399	2402.246	11712.15	10816.2
967.8702	2403.6366	11658.95	10768.4
968.0004	2405.0265	11595.2	10703.15
968.1306	2406.4156	11535.25	10640.6
968.2607	2407.8041	11517	10623.15
968.3909	2409.1918	11481.3	10587.15
968.521	2410.5789	11437.05	10545.4
968.651	2411.9652	11369.6	10474.8
968.781	2413.3508	11338.7	10445.9
968.911	2414.7358	11304.45	10411.75
969.041	2416.12	11260.2	10369.15
969.1709	2417.5035	11216.6	10325.55
969.3008	2418.8863	11196.05	10304.2
969.4307	2420.2684	11162.75	10270.2
969.5606	2421.6497	11096.2	10204.55
969.6904	2423.0304	11059.65	10168.95
969.8201	2424.4104	10997.5	10104.3
969.9499	2425.7896	10971.85	10073.3
970.0796	2427.1682	10935.2	10045
970.2093	2428.546	10907.45	10016.6
970.3389	2429.9232	10882.25	9991.35
970.4685	2431.2996	10839.6	9948.5
970.5981	2432.6753	10831.9	9939.6
970.7277	2434.0503	10797.8	9905.45
970.8572	2435.4246	10722.25	9832.65
970.9867	2436.7982	10677.45	9784.4
971.1161	2438.1711	10661.6	9772.1
971.2456	2439.5433	10626.4	9733.3
971.375	2440.9148	10598.4	9705.95
971.5043	2442.2856	10537.65	9646.25
971.6336	2443.6557	10503.85	9611.55
971.7629	2445.025	10480.6	9588
971.8922	2446.3937	10438.3	9547.3
972.0214	2447.7617	10386.9	9494.35
972.1506	2449.1289	10372.95	9482.95
972.2798	2450.4955	10343.35	9448.8
972.4089	2451.8613	10298.9	9408.2
972.538	2453.2265	10269.4	9379.2
972.6671	2454.5909	10269.35	9377.55
972.7961	2455.9546	10240.15	9349.6
972.9251	2457.3177	10171.05	9282.95
973.0541	2458.68	10134.35	9242
973.1831	2460.0416	10133.7	9242.55
973.312	2461.4025	10092.65	9200.65
973.4408	2462.7627	10100.65	9196.35
973.5697	2464.1222	10055.35	9165.05
973.6985	2465.4811	10010	9117.1
973.8273	2466.8392	9978.65	9086.95
973.956	2468.1966	9974.3	9081.4
974.0847	2469.5533	9919.5	9027.15
974.2134	2470.9093	9930.65	9039.25
974.3421	2472.2645	9861.4	8967.75
974.4707	2473.6191	9840.75	8951.05
974.5993	2474.973	9816.85	8925.65
974.7278	2476.3262	9756.95	8861.45
974.8563	2477.6787	9713.55	8824.35
974.9848	2479.0305	9673.35	8782.6
975.1132	2480.3816	9630.4	8737.3
975.2417	2481.7319	9615.9	8726
975.37	2483.0816	9588.95	8695.85
975.4984	2484.4306	9554.5	8662.15
975.6267	2485.7789	9494.3	8602.65
975.755	2487.1264	9453.4	8561.75
975.8833	2488.4733	9418.4	8528.75
976.0115	2489.8195	9401.55	8504.1
976.1397	2491.165	9348.15	8453.55
976.2678	2492.5097	9312.15	8420.25
976.3959	2493.8538	9277.05	8385.35
976.524	2495.1972	9206.75	8312.8
976.6521	2496.5398	9186.4	8293.35
976.7801	2497.8818	9158.75	8266.5
976.9081	2499.2231	9129.15	8237.8
977.036	2500.5637	9081.4	8188.5
977.164	2501.9035	9099.35	8206.95
977.2918	2503.2427	9061.2	8165.4
977.4197	2504.5812	8990.35	8097.7
977.5475	2505.919	8992.1	8100.65
977.6753	2507.256	8973.4	8082.1
977.8031	2508.5924	8924.65	8035.3
977.9308	2509.9281	8904.45	8006.65
978.0585	2511.2631	8869.3	7978.45
978.1861	2512.5974	8836.35	7944.35
978.3137	2513.9309	8816.6	7925.9
978.4413	2515.2638	8789.15	7863.55
978.5689	2516.596	8747.1	7856.9
978.6964	2517.9275	8691.95	7798.6
978.8239	2519.2583	8675.2	7783.4
978.9513	2520.5884	8648.25	7754.5
979.0788	2521.9178	8626.75	7734.55
979.2062	2523.2465	8577.45	7688.15
979.3335	2524.5745	8551.25	7660.3
979.4608	2525.9018	8519.25	7626.4
979.5881	2527.2284	8468.1	7576.05
979.7154	2528.5543	8463.05	7570.15
979.8426	2529.8796	8441	7550.3
979.9698	2531.2041	8432.4	7541.6
980.0969	2532.5279	8407.35	7516.65
980.224	2533.851	8398.45	7508.35
980.3511	2535.1735	8367.6	7475.15
980.4781	2536.4952	8334.65	7442.45
980.6052	2537.8163	8319.4	7427.75
980.7321	2539.1366	8291	7401.3
980.8591	2540.4562	8268.8	7375.4
980.986	2541.7752	8244.15	7353
981.1129	2543.0935	8198.7	7306.35
981.2397	2544.411	8206.75	7314.15
981.3665	2545.7279	8169.5	7278.3
981.4933	2547.0441	8167.4	7275.25
981.62	2548.3596	8157.45	7264
981.7467	2549.6744	8129.85	7239.6
981.8734	2550.9885	8115.1	7220.6
982.0001	2552.3019	8062.35	7170.4
982.1267	2553.6146	8056.2	7164.9
982.2532	2554.9266	8025.5	7134.2
982.3798	2556.2379	7978.7	7086.4
982.5063	2557.5485	7988.1	7097.55
982.6327	2558.8585	7970.15	7070.45
982.7592	2560.1677	7949.1	7052.15
982.8856	2561.4762	7903.2	7010.5
983.0119	2562.7841	7908.9	7014.1
983.1383	2564.0913	7865.45	6975.3
983.2646	2565.3977	7875.05	6985.5
983.3908	2566.7035	7830.95	6939.5
983.517	2568.0086	7821.5	6928.15
983.6432	2569.313	7816.05	6923.25
983.7694	2570.6167	7768.75	6871.5
983.8955	2571.9197	7766	6875.85
984.0216	2573.222	7758.25	6863.8
984.1476	2574.5236	7740.8	6850.3
984.2737	2575.8246	7709.2	6817.15
984.3996	2577.1248	7697	6802.85
984.5256	2578.4244	7686.35	6795.05
984.6515	2579.7232	7694	6803.3
984.7774	2581.0214	7688.85	6772.75
984.9032	2582.3189	7634.1	6742.5
985.029	2583.6157	7637.55	6743.6
985.1548	2584.9118	7603.25	6710.55
985.2806	2586.2072	7574.65	6685.2
985.4063	2587.5019	7542.8	6651.55
985.5319	2588.7959	7509.8	6615.5
985.6576	2590.0893	7543.9	6652.7
985.7832	2591.3819	7502.5	6609.9
985.9087	2592.6739	7492.2	6600.7
986.0343	2593.9652	7459.3	6567.1
986.1597	2595.2557	7440	6548.75
986.2852	2596.5456	7394.3	6499.4
986.4106	2597.8348	7366.9	6476.3
986.536	2599.1234	7350.7	6461.5
986.6614	2600.4112	7329	6437
986.7867	2601.6983	7289.55	6394.7
986.912	2602.9848	7277.1	6383.75
987.0372	2604.2705	7231.75	6332.5
987.1624	2605.5556	7228	6336
987.2876	2606.84	7193	6301.4
987.4128	2608.1237	7147.45	6254.35
987.5379	2609.4067	7150	6258.1
987.6629	2610.689	7134.15	6234.65
987.788	2611.9707	7082.3	6188
987.913	2613.2516	7070.3	6173.35
988.0379	2614.5319	7043.5	6151.9
988.1629	2615.8115	7028.75	6137.55
988.2878	2617.0903	6990.15	6098.55
988.4126	2618.3685	6951.2	6059.15
988.5375	2619.6461	6921.55	6030.1
988.6622	2620.9229	6926.1	6034.8
988.787	2622.199	6912.4	6020.45
988.9117	2623.4745	6878.2	5982.9
989.0364	2624.7493	6843.65	5949.2
989.161	2626.0234	6828.75	5939.5
989.2857	2627.2968	6808.5	5917.55
989.4102	2628.5695	6767.8	5874.8
989.5348	2629.8415	6729.25	5837.25
989.6593	2631.1128	6700.5	5807.4
989.7837	2632.3835	6696.4	5804.55
989.9082	2633.6535	6678.1	5787.7
990.0326	2634.9228	6647.85	5756.55
990.1569	2636.1914	6620.7	5729.35
990.2812	2637.4593	6609.35	5711.85
990.4055	2638.7265	6576.9	5682.15
990.5298	2639.9931	6557.5	5665.25
990.654	2641.259	6540.2	5647.95
990.7782	2642.5242	6529.15	5638.75
990.9023	2643.7887	6508.65	5616.85
991.0264	2645.0525	6474.35	5583.1
991.1505	2646.3156	6453.15	5560.5
991.2745	2647.5781	6438.1	5545.95
991.3985	2648.8398	6402	5509.4
991.5225	2650.1009	6397.9	5497.15
991.6464	2651.3613	6377.35	5486.85
991.7703	2652.6211	6358.5	5467.35
991.8942	2653.8801	6334.55	5443.1
992.018	2655.1385	6328.05	5434.4
992.1418	2656.3961	6305.95	5413.35
992.2655	2657.6531	6290.3	5399.2
992.3892	2658.9094	6284.35	5392.85
992.5129	2660.1651	6258.05	5366.5
992.6366	2661.42	6222.15	5328.85
992.7602	2662.6743	6230.4	5338.35
992.8837	2663.9279	6215.55	5323.2
993.0073	2665.1808	6202.6	5311.25
993.1307	2666.433	6161.35	5270.2
993.2542	2667.6846	6144.25	5252.35
993.3776	2668.9354	6131.8	5237.25
993.501	2670.1856	6122.4	5228.45
993.6244	2671.4351	6129.65	5238
993.7477	2672.6839	6139.85	5245.35
993.8709	2673.9321	6095.9	5205.6
993.9942	2675.1795	6086.55	5194.2
994.1174	2676.4263	6052.95	5160.5
994.2405	2677.6724	6043.05	5150.8
994.3637	2678.9179	6018.9	5126.75
994.4868	2680.1626	5997.6	5107.15
994.6098	2681.4067	5979.15	5087.1
994.7328	2682.6501	5976.75	5083.75
994.8558	2683.8928	5944.35	5050.65
994.9788	2685.1348	5921.75	5032.2
995.1017	2686.3761	5900.2	5007.65
995.2245	2687.6168	5880.15	4987.5
995.3474	2688.8568	5848.3	4956.6
995.4702	2690.0961	5852.5	4962.55
995.5929	2691.3348	5843.2	4951.35
995.7156	2692.5727	5791.9	4900.25
995.8383	2693.81	5798.3	4908.15
995.961	2695.0466	5777.55	4888.3
996.0836	2696.2826	5752.05	4860.2
996.2062	2697.5178	5738.45	4845.9
996.3287	2698.7524	5709.95	4818.05
996.4512	2699.9863	5705.75	4811
996.5737	2701.2195	5674.4	4782.3
996.6961	2702.452	5676.3	4784.95
996.8185	2703.6839	5648.05	4755.45
996.9408	2704.9151	5643.7	4751.9
997.0631	2706.1456	5620.65	4727.55
997.1854	2707.3755	5600.4	4708.05
997.3077	2708.6046	5601.2	4707.6
997.4299	2709.8331	5584.65	4691.5
997.552	2711.0609	5572.7	4681.45
997.6742	2712.2881	5579.35	4690.2
997.7963	2713.5145	5558.55	4665.15
997.9183	2714.7403	5556.6	4666.75
998.0403	2715.9654	5544.95	4652.65
998.1623	2717.1899	5555	4649.1
998.2842	2718.4136	5535.8	4644.4
998.4062	2719.6367	5529.9	4635.9
998.528	2720.8591	5511.7	4613.05
998.6498	2722.0809	5511.9	4619.6
998.7716	2723.3019	5485.4	4591.1
998.8934	2724.5223	5480.55	4590.95
999.0151	2725.7421	5460.6	4567
999.1368	2726.9611	5446.9	4555.3
999.2584	2728.1795	5445.95	4549.15
999.38	2729.3972	5411.85	4518.55
999.5016	2730.6142	5382.35	4483.5
999.6231	2731.8306	5338.95	4447.4
999.7446	2733.0462	5332.6	4439.4
999.8661	2734.2612	5300.35	4403.2
999.9875	2735.4756	5257.15	4364.4
1000.1089	2736.6892	5228.85	4335.9
1000.2302	2737.9022	5190.05	4299.55
1000.3515	2739.1145	5159.25	4266.95
1000.4728	2740.3262	5140.65	4241.1
1000.594	2741.5372	5106.2	4215.3
1000.7152	2742.7475	5094.05	4202.85
1000.8363	2743.9571	5060.7	4167.25
1000.9575	2745.1661	5038	4141.45
1001.0785	2746.3744	5005.05	4113.7
1001.1996	2747.582	4992.5	4101.3
1001.3206	2748.7889	4963	4069.3
1001.4415	2749.9952	4951.1	4059.8
1001.5625	2751.2008	4925.45	4033.6
1001.6833	2752.4057	4921.4	4028.55
1001.8042	2753.61	4902.6	4010.55
1001.925	2754.8136	4869.35	3977.55
1002.0458	2756.0165	4862.9	3971.85
1002.1665	2757.2188	4842.55	3950.5
1002.2872	2758.4204	4854.2	3961.5
1002.4078	2759.6213	4816.6	3922.5
1002.5285	2760.8215	4812.55	3917
1002.649	2762.0211	4786.85	3893.3
1002.7696	2763.22	4775.85	3879.15
1002.8901	2764.4182	4763.6	3871.5
1003.0106	2765.6158	4740.7	3851.7
1003.131	2766.8127	4718.2	3827.25
1003.2514	2768.009	4700.75	3809.15
1003.3717	2769.2045	4683.65	3791.05
1003.492	2770.3994	4668.8	3775.35
1003.6123	2771.5936	4657.8	3765.75
1003.7325	2772.7872	4640.5	3751.1
1003.8527	2773.9801	4618	3725.3
1003.9729	2775.1723	4611.85	3703.6
1004.093	2776.3639	4604.6	3714.5
1004.2131	2777.5548	4587.5	3694.25
1004.3331	2778.745	4552.7	3660.55
1004.4531	2779.9346	4550.95	3660.15
1004.5731	2781.1235	4563	3669
1004.693	2782.3117	4538.5	3648.4
1004.8129	2783.4992	4527.3	3635.15
1004.9328	2784.6861	4528.45	3636.95
1005.0526	2785.8723	4513.25	3620.05
1005.1723	2787.0579	4507.65	3615.45
1005.2921	2788.2428	4493.25	3601.75
1005.4118	2789.427	4497.55	3606.9
1005.5314	2790.6106	4476.15	3584.85
1005.651	2791.7935	4478.15	3585.15
1005.7706	2792.9757	4477.45	3587.7
1005.8902	2794.1573	4480.4	3587.25
1006.0097	2795.3382	4461.2	3570.25
1006.1291	2796.5184	4470.8	3579.2
1006.2485	2797.698	4490.4	3597.4
1006.3679	2798.8769	4476.25	3585.45
1006.4873	2800.0551	4480.45	3588.3
1006.6066	2801.2327	4498.85	3608.15
1006.7258	2802.4096	4493.7	3602
1006.8451	2803.5859	4501.85	3610.6
1006.9642	2804.7615	4516.1	3623.5
1007.0834	2805.9364	4501.6	3610.8
1007.2025	2807.1106	4523.6	3630.8
1007.3216	2808.2842	4551.95	3659.3
1007.4406	2809.4572	4565.25	3675.3
1007.5596	2810.6294	4589.85	3696.95
1007.6785	2811.801	4628.5	3735.5
1007.7975	2812.972	4650.4	3759.95
1007.9163	2814.1423	4689.7	3798.05
1008.0352	2815.3119	4726.35	3835.6
1008.154	2816.4808	4760.6	3872.1
1008.2727	2817.6491	4806.2	3914.8
1008.3914	2818.8167	4834.5	3943.45
1008.5101	2819.9837	4871.65	3976
1008.6288	2821.15	4897.25	4005.9
1008.7474	2822.3157	4920.45	4030.55
1008.8659	2823.4807	4967.5	4076.65
1008.9844	2824.645	5009.65	4117.3
1009.1029	2825.8086	5038.05	4147
1009.2214	2826.9716	5078.85	4189.6
1009.3398	2828.134	5104.8	4214.2
1009.4581	2829.2957	5136.35	4245.05
1009.5764	2830.4567	5146	4256.9
1009.6947	2831.617	5159.95	4269.45
1009.813	2832.7767	5161.45	4270.8
1009.9312	2833.9358	5149.45	4258.7
1010.0493	2835.0941	5136.05	4243.65
1010.1675	2836.2519	5108.3	4217.7
1010.2855	2837.4089	5092.75	4198.25
1010.4036	2838.5653	5074.5	4183.05
1010.5216	2839.7211	5090.3	4198.9
1010.6396	2840.8761	5095.4	4202.3
1010.7575	2842.0306	5092.15	4202.15
1010.8754	2843.1843	5133.75	4245.15
1010.9932	2844.3374	5175.1	4283.65
1011.111	2845.4899	5223.9	4332.65
1011.2288	2846.6417	5269.6	4379.2
1011.3465	2847.7928	5337.45	4447.25
1011.4642	2848.9433	5416.95	4526.45
1011.5818	2850.0931	5488.75	4597.4
1011.6995	2851.2422	5572.2	4679.05
1011.817	2852.3907	5638	4745.55
1011.9345	2853.5385	5679.9	4786.75
1012.052	2854.6857	5744.7	4829.6
1012.1695	2855.8323	5773.5	4882.25
1012.2869	2856.9781	5802.35	4912.25
1012.4042	2858.1233	5853.35	4963.85
1012.5216	2859.2679	5905.9	5016.1
1012.6389	2860.4118	5937.65	5043.6
1012.7561	2861.555	5944.65	5049.35
1012.8733	2862.6976	5990.95	5096.05
1012.9905	2863.8395	6013.15	5120.05
1013.1076	2864.9808	6005.15	5113.25
1013.2247	2866.1214	6030.7	5140.65
1013.3417	2867.2614	6015.85	5124.35
1013.4587	2868.4007	6021.45	5129.25
1013.5757	2869.5393	6019.25	5125.9
1013.6926	2870.6773	6042.2	5149.65
1013.8095	2871.8146	6043.85	5150.55
1013.9263	2872.9513	6009.65	5115.95
1014.0431	2874.0874	5991.4	5099.65
1014.1599	2875.2227	5988.15	5096.7
1014.2766	2876.3574	5959.75	5069.15
1014.3933	2877.4915	5911.9	5022.1
1014.51	2878.6249	5901.15	5010.15
1014.6266	2879.7577	5856	4963.65
1014.7431	2880.8898	5822.5	4922.25
1014.8596	2882.0212	5789.25	4897.65
1014.9761	2883.152	5773.75	4883.4
1015.0925	2884.2821	5728	4838.8
1015.2089	2885.4116	5709.5	4820.65
1015.3253	2886.5405	5726.2	4837.45
1015.4416	2887.6686	5712.45	4818.1
1015.5579	2888.7962	5682.25	4791.8
1015.6741	2889.923	5710.6	4819.9
1015.7903	2891.0493	5714.25	4822.45
1015.9065	2892.1748	5709.75	4819.75
1016.0226	2893.2997	5712.35	4821
1016.1387	2894.424	5706.05	4814.9
1016.2547	2895.5476	5722.65	4830.75
1016.3707	2896.6706	5747.85	4858.65
1016.4866	2897.7929	5768.8	4879.1
1016.6025	2898.9145	5789	4897.45
1016.7184	2900.0355	5779.4	4887.9
1016.8342	2901.1559	5825.55	4931.25
1016.95	2902.2756	5852.65	4960.05
1017.0658	2903.3946	5876.85	4986.25
1017.1815	2904.513	5879.95	4986.45
1017.2971	2905.6308	5900.2	5012.1
1017.4127	2906.7479	5932.65	5040.7
1017.5283	2907.8643	5937.95	5046.4
1017.6439	2908.9801	5935.3	5044.5
1017.7594	2910.0953	5929.85	5039.95
1017.8748	2911.2098	5924.8	5030.35
1017.9902	2912.3236	5905.4	5005.45
1018.1056	2913.4368	5891	4996.3
1018.2209	2914.5494	5872.1	4981.5
1018.3362	2915.6613	5827.6	4931.55
1018.4515	2916.7725	5786.4	4892.8
1018.5667	2917.8831	5753.85	4863.35
1018.6819	2918.9931	5712.85	4818.5
1018.797	2920.1024	5671.35	4777.8
1018.9121	2921.211	5640.7	4748.95
1019.0271	2922.319	5617.95	4726.25
1019.1421	2923.4264	5608.25	4718.4
1019.2571	2924.5331	5586.4	4696.95
1019.372	2925.6391	5552.85	4661.2
1019.4869	2926.7445	5532.6	4643.25
1019.6017	2927.8493	5518.95	4627.6
1019.7165	2928.9534	5526.05	4633.7
1019.8313	2930.0569	5493.35	4599.6
1019.946	2931.1597	5483.95	4590.4
1020.0606	2932.2619	5462.35	4572.8
1020.1753	2933.3634	5452.25	4562.4
1020.2899	2934.4643	5439.75	4542.05
1020.4044	2935.5645	5405.7	4507.75
1020.5189	2936.6641	5365.7	4470.5
1020.6334	2937.763	5291.6	4403
1020.7478	2938.8613	5255.2	4364.25
1020.8622	2939.959	5194.9	4299.4
1020.9765	2941.056	5087.65	4198.4
1021.0908	2942.1523	5008.15	4116.25
1021.2051	2943.248	4913.35	4022.65
1021.3193	2944.3431	4813.35	3922.9
1021.4334	2945.4375	4693.75	3801.95
1021.5476	2946.5313	4598.1	3707.7
1021.6617	2947.6244	4473.55	3580
1021.7757	2948.7169	4373.85	3482.55
1021.8897	2949.8087	4257.55	3365.2
1022.0037	2950.8999	4162.7	3272.6
1022.1176	2951.9904	4072.95	3183.8
1022.2315	2953.0803	3982.65	3092
1022.3453	2954.1696	3916.15	3027.05
1022.4591	2955.2582	3851.75	2960.95
1022.5728	2956.3462	3799.9	2907.5
1022.6865	2957.4335	3751.8	2860.15
1022.8002	2958.5202	3708.8	2817.2
1022.9138	2959.6062	3670.9	2778.75
1023.0274	2960.6916	3649	2758.35
1023.141	2961.7764	3623.15	2733.4
1023.2545	2962.8605	3595.05	2701.85
1023.3679	2963.9439	3576.55	2685.75
1023.4813	2965.0267	3539.95	2648.1
1023.5947	2966.1089	3570.05	2655.8
1023.708	2967.1905	3535.2	2643.2
1023.8213	2968.2714	3527.4	2638.5
1023.9346	2969.3516	3521.9	2630.3
1024.0478	2970.4312	3521.55	2622.1
1024.1609	2971.5102	3487.2	2597.35
1024.274	2972.5885	3482.7	2594.7
1024.3871	2973.6662	3484.85	2590.25
1024.5002	2974.7432	3472.4	2581.85
1024.6132	2975.8196	3457.5	2566.2
1024.7261	2976.8954	3438.8	2546.95
1024.839	2977.9705	3411.35	2519.45
1024.9519	2979.045	3376.25	2486.85
1025.0647	2980.1188	3365.25	2474.85
1025.1775	2981.192	3348.6	2459.8
1025.2902	2982.2645	3326.15	2433.3
1025.4029	2983.3364	3286.55	2395.85
1025.5156	2984.4077	3257.55	2367.15
1025.6282	2985.4783	3236	2340.35
1025.7407	2986.5483	3169.8	2279.85
1025.8532	2987.6177	3139.4	2250.75
1025.9657	2988.6864	3110.45	2220.15
1026.0782	2989.7545	3072.6	2178.35
1026.1906	2990.8219	3034.4	2144.15
1026.3029	2991.8887	2986.7	2093.45
1026.4152	2992.9548	2965.7	2073.15
1026.5275	2994.0204	2920.15	2029.95
1026.6397	2995.0852	2893.95	2003.8
1026.7519	2996.1495	2856.8	1965.95
1026.864	2997.2131	2811.5	1920.75
1026.9761	2998.276	2805.85	1914.5
1027.0882	2999.3383	2778.7	1887
1027.2002	3000.4	2747.9	1858
1027.3122	3001.4611	2728.95	1836.75
1027.4241	3002.5215	2705.05	1811.65
1027.536	3003.5812	2694.35	1804.05
1027.6478	3004.6404	2669.5	1778.8
1027.7596	3005.6989	2652.1	1758.45
1027.8714	3006.7567	2644.35	1753.7
1027.9831	3007.8139	2648.3	1734.55
1028.0947	3008.8705	2615.5	1726.85
1028.2064	3009.9264	2617.85	1725.75
1028.3179	3010.9818	2595.1	1703.7
1028.4295	3012.0364	2600.3	1711.1
1028.541	3013.0905	2597.3	1704.4
1028.6524	3014.1439	2587.15	1696.6
1028.7638	3015.1966	2577.45	1688.1
1028.8752	3016.2487	2567.15	1676.2
1028.9865	3017.3002	2574.25	1676.35
1029.0978	3018.3511	2557.1	1667.35
1029.209	3019.4013	2541.7	1650.85
1029.3202	3020.4509	2550.55	1660.85
1029.4314	3021.4998	2535.85	1645.75
1029.5425	3022.5481	2533.2	1641.1
1029.6535	3023.5958	2536.25	1646
1029.7645	3024.6428	2533.05	1641.8
1029.8755	3025.6892	2519.55	1630.85
1029.9864	3026.735	2533.6	1642.6
1030.0973	3027.7802	2525.5	1635.6
1030.2082	3028.8247	2524.1	1634.7
1030.319	3029.8685	2510.55	1621.1
1030.4297	3030.9118	2515.25	1624.1
1030.5404	3031.9544	2513.7	1622.65
1030.6511	3032.9963	2509.85	1618.2
1030.7617	3034.0376	2497	1606.6
1030.8723	3035.0783	2504.55	1612.2
1030.9829	3036.1184	2505	1613.15
1031.0934	3037.1578	2508.9	1619.7
1031.2038	3038.1966	2498.6	1607.8
1031.3142	3039.2348	2482.85	1591.65
1031.4246	3040.2723	2495.65	1595.55
1031.5349	3041.3092	2479.95	1589.9
1031.6452	3042.3455	2482.3	1590.45
1031.7554	3043.3811	2467.95	1576.1
1031.8656	3044.4161	2466.8	1576.2
1031.9758	3045.4505	2445.65	1555.3
1032.0859	3046.4842	2445.2	1554.4
1032.1959	3047.5173	2427	1537.45
1032.3059	3048.5498	2422.25	1532
1032.4159	3049.5816	2415.9	1525.7
1032.5258	3050.6128	2397.7	1504.5
1032.6357	3051.6434	2391.25	1498.55
1032.7455	3052.6734	2382	1489.7
1032.8553	3053.7027	2389.1	1499.55
1032.9651	3054.7314	2345.8	1457.65
1033.0748	3055.7594	2332.25	1440.65
1033.1845	3056.7868	2333.25	1443.3
1033.2941	3057.8136	2318.05	1429.05
1033.4037	3058.8398	2320.85	1430.1
1033.5132	3059.8653	2305.25	1414.1
1033.6227	3060.8902	2293.8	1404.45
1033.7321	3061.9145	2288.95	1399.4
1033.8415	3062.9381	2269.9	1380.9
1033.9509	3063.9612	2277.4	1371.45
1034.0602	3064.9835	2252	1360.4
1034.1694	3066.0053	2251.65	1360.6
1034.2787	3067.0264	2234.2	1343.45
1034.3878	3068.0469	2226.35	1337.6
1034.497	3069.0668	2226.95	1333
1034.6061	3070.086	2202.35	1312.4
1034.7151	3071.1046	2186.4	1295.05
1034.8241	3072.1226	2168.15	1277.35
1034.9331	3073.1399	2176.45	1286.7
1035.042	3074.1567	2155.9	1266.15
1035.1508	3075.1727	2143.25	1251.55
1035.2597	3076.1882	2117.35	1225.95
1035.3684	3077.203	2114.9	1225.45
1035.4772	3078.2173	2111.3	1221.2
1035.5859	3079.2308	2090.85	1199.4
1035.6945	3080.2438	2073.75	1181.45
1035.8031	3081.2561	2067.45	1177.3
1035.9117	3082.2678	2060.9	1171.7
1036.0202	3083.2789	2047.2	1158.05
1036.1286	3084.2893	2030.9	1140.15
1036.2371	3085.2991	2034.55	1144.2
1036.3454	3086.3083	2023.2	1127.85
1036.4538	3087.3169	2010.35	1117.35
1036.562	3088.3248	1998.6	1107.15
1036.6703	3089.3321	1988	1097
1036.7785	3090.3388	1978.5	1088.55
1036.8866	3091.3449	1971.85	1080.65
1036.9948	3092.3503	1966.45	1073.15
1037.1028	3093.3551	1948.7	1059.75
1037.2108	3094.3593	1957.45	1068.55
1037.3188	3095.3629	1940.45	1050.65
1037.4267	3096.3658	1940.05	1049.95
1037.5346	3097.3681	1931.3	1041.95
1037.6425	3098.3698	1922.5	1031.35
1037.7503	3099.3708	1918.2	1022.7
1037.858	3100.3713	1912.35	1021.85
1037.9657	3101.3711	1902.85	1013.15
1038.0734	3102.3702	1997.15	990.05
1038.181	3103.3688	1896.35	1004.4
1038.2886	3104.3667	1876.8	987.9
1038.3961	3105.364	1871.05	981.65
1038.5036	3106.3607	1861.45	969.25
1038.611	3107.3568	1858.35	966.15
1038.7184	3108.3522	1850.65	959.55
1038.8257	3109.347	1852.4	962.15
1038.933	3110.3412	1841.55	947.75
1039.0403	3111.3348	1834.85	942.85
1039.1475	3112.3277	1826.6	936.6
1039.2547	3113.32	1825.25	936.05
1039.3618	3114.3117	1826.7	936.45
1039.4689	3115.3028	1815.4	926.55
1039.5759	3116.2932	1814.9	921.5
1039.6829	3117.2831	1803.85	907.8
1039.7898	3118.2723	1795.9	905.05
1039.8967	3119.2608	1802.8	914.2
1040.0035	3120.2488	1793.05	902.8
1040.1103	3121.2361	1787.5	899.35
1040.2171	3122.2229	1781.35	891.1
1040.3238	3123.209	1769.55	878.55
1040.4305	3124.1944	1767.85	880.4
1040.5371	3125.1793	1763.1	870.65
1040.6437	3126.1635	1756.55	866.65
1040.7502	3127.1471	1752.8	862.4
1040.8567	3128.1301	1746.8	858.2
1040.9631	3129.1125	1741.5	852.45
1041.0695	3130.0942	1749.4	858.45
1041.1759	3131.0753	1757.9	858.9
1041.2822	3132.0558	1740.3	848.5
1041.3884	3133.0357	1723.6	833.2
1041.4946	3134.015	1719.5	828.7
1041.6008	3134.9936	1718.5	827.2
1041.7069	3135.9716	1735.35	824.4
1041.813	3136.949	1711.15	821.3
1041.919	3137.9258	1710.05	812.4
1042.025	3138.902	1705.45	808.9
1042.1309	3139.8775	1708.55	818.75
1042.2368	3140.8524	1701.95	812
1042.3427	3141.8267	1688.3	798.95
1042.4485	3142.8004	1689.15	798
1042.5542	3143.7735	1694.45	798.65
1042.6599	3144.7459	1680.05	789.05
1042.7656	3145.7178	1686.05	796.7
1042.8712	3146.689	1671.25	781.75
1042.9768	3147.6596	1668.25	777.7
1043.0823	3148.6295	1670.5	780.6
1043.1878	3149.5989	1658.9	769.3
1043.2932	3150.5676	1650.3	762.45
1043.3986	3151.5357	1646.15	757.6
1043.5039	3152.5032	1634.15	746.2
1043.6092	3153.4701	1638.45	749.1
1043.7145	3154.4364	1642.05	750.35
1043.8197	3155.402	1632.65	742.75
1043.9248	3156.367	1627.2	735.6
1044.03	3157.3315	1665.75	731.3
1044.135	3158.2952	1620.25	729.05
1044.24	3159.2584	1609.25	720.25
1044.345	3160.221	1601.6	709.7
1044.4499	3161.1829	1600.5	709.95
1044.5548	3162.1442	1597.95	707.2
1044.6596	3163.105	1591.3	701.6
1044.7644	3164.065	1591.25	701.65
1044.8692	3165.0245	1594.9	701.15
1044.9739	3165.9834	1579	690.7
1045.0785	3166.9416	1593.3	703.65
1045.1831	3167.8993	1571.45	683.35
1045.2877	3168.8563	1570.1	678.6
1045.3922	3169.8127	1570.75	679.7
1045.4966	3170.7684	1566.15	677.1
1045.6011	3171.7236	1563.1	672.05
1045.7054	3172.6782	1560.25	670.4
1045.8098	3173.6321	1552.45	661.05
1045.914	3174.5854	1554.15	661.05
1046.0183	3175.5381	1554.85	664
1046.1224	3176.4902	1555.05	665.55
1046.2266	3177.4417	1541.7	654.15
1046.3307	3178.3926	1532.1	642.2
1046.4347	3179.3428	1533.05	643.4
1046.5387	3180.2924	1527.9	637.55
1046.6427	3181.2415	1525.2	635.95
1046.7466	3182.1899	1523.55	631.35
1046.8504	3183.1377	1521.8	631.8
1046.9542	3184.0848	1522.8	629.8
1047.058	3185.0314	1516.75	625.55
1047.1617	3185.9773	1517.95	627.85
1047.2654	3186.9227	1503.3	613.75
1047.369	3187.8674	1501.15	611.85
1047.4726	3188.8115	1503.55	609.5
1047.5761	3189.755	1499.3	610.65
1047.6796	3190.6979	1490.45	599.45
1047.783	3191.6402	1494.65	606.3
1047.8864	3192.5818	1484	596.1
1047.9898	3193.5229	1511.05	596.95
1048.0931	3194.4633	1484.4	593.35
1048.1963	3195.4031	1473.85	582.65
1048.2995	3196.3423	1472.85	583
1048.4027	3197.2809	1469.3	578.7
1048.5058	3198.2189	1467.95	578.25
1048.6089	3199.1563	1471.25	573.9
1048.7119	3200.0931	1457.1	569.45
1048.8148	3201.0292	1452.65	565.25
1048.9178	3201.9648	1459.6	567.85
1049.0206	3202.8997	1457.6	565.25
1049.1235	3203.834	1451.15	561.95
1049.2262	3204.7677	1445.4	557.35
1049.329	3205.7008	1451.75	558.1
1049.4317	3206.6333	1441.35	551
1049.5343	3207.5652	1438.4	546.05
1049.6369	3208.4964	1438.15	549.1
1049.7394	3209.4271	1440.1	549.8
1049.8419	3210.3571	1432.75	543.55
1049.9444	3211.2865	1433.9	544.3
1050.0468	3212.2154	1425.85	536.05
1050.1491	3213.1436	1428.95	536
1050.2514	3214.0712	1432.15	536
1050.3537	3214.9982	1426.45	538.15
1050.4559	3215.9246	1413.8	522.8
1050.5581	3216.8503	1416.85	527.3
1050.6602	3217.7755	1406.1	514.75
1050.7623	3218.7001	1408.05	519.35
1050.8643	3219.624	1415.3	525.6
1050.9663	3220.5473	1410.7	521.8
1051.0682	3221.4701	1401.4	510.05
1051.1701	3222.3922	1402.05	510.25
1051.2719	3223.3137	1397.75	505.85
1051.3737	3224.2346	1397.6	508.6
1051.4754	3225.1549	1387.8	498.55
1051.5771	3226.0746	1382.65	492.3
1051.6788	3226.9937	1381.6	492.55
1051.7804	3227.9121	1371.6	482.4
1051.8819	3228.83	1374.4	485.7
1051.9834	3229.7473	1380.05	489.6
1052.0849	3230.6639	1375	484.45
1052.1863	3231.5799	1369.7	479.4
1052.2876	3232.4954	1372.5	481.55
1052.3889	3233.4102	1360.1	471.55
1052.4902	3234.3244	1364.35	474.8
1052.5914	3235.238	1360.15	473.3
1052.6926	3236.151	1379.7	468.3
1052.7937	3237.0634	1354.3	465
1052.8948	3237.9752	1352.35	462.7
1052.9958	3238.8864	1348.15	457.3
1053.0968	3239.797	1343.4	452.6
1053.1977	3240.7069	1349.55	460.35
1053.2986	3241.6163	1344.7	453
1053.3994	3242.5251	1337.3	448
1053.5002	3243.4332	1337.8	450.35
1053.6009	3244.3408	1338.85	448.25
1053.7016	3245.2477	1325.95	434.9
1053.8022	3246.154	1332.3	442.4
1053.9028	3247.0598	1323.4	433.45
1054.0034	3247.9649	1320.4	431
1054.1039	3248.8694	1312.75	423.55
1054.2043	3249.7733	1314.4	425.45
1054.3047	3250.6766	1315.15	426.1
1054.4051	3251.5793	1311.25	417.6
1054.5054	3252.4814	1300.1	408.8
1054.6056	3253.3829	1305.7	415.95
1054.7058	3254.2838	1303.65	414.35
1054.806	3255.1841	1299.95	411.05
1054.9061	3256.0838	1300	409.55
1055.0061	3256.9829	1290.45	402.6
1055.1062	3257.8814	1290.6	399.25
1055.2061	3258.7792	1292	398.65
1055.306	3259.6765	1286.55	396.5
1055.4059	3260.5731	1278.6	388.95
1055.5057	3261.4692	1277.15	386.7
1055.6055	3262.3647	1267.95	378
1055.7052	3263.2595	1255.35	365.5
1055.8049	3264.1538	1255.6	367.1
1055.9045	3265.0474	1246.55	355.25
1056.0041	3265.9404	1240.4	352
1056.1036	3266.8329	1239.8	350.9
1056.2031	3267.7247	1245.45	345.15
1056.3025	3268.616	1229.9	342.45
1056.4019	3269.5066	1216.65	328.8
1056.5013	3270.3966	1216.55	325.35
1056.6005	3271.286	1196.4	308.6
