Software Version:	3.9.2.0
Unit SN:	10000200
Spectrometer SN:	6960
Date:	3/6/2024 9:29:06 AM
Data Line Index:	25
Spectral Points:	2048
Integration time (ms):	125
Averages:	20
Delay (ms):	30
Sequence Number:	1
Processing:	dark subtract
Laser Power (mW):	300
Laser Current (mA):	821
Laser Diode Temp (C):	25.1
Laser Case Temp (C):	23.3
System Temp (C):	23.1
Spectrometer Temp (C):	20.8
CCD Temp (C):	-0.02
Secondary Temp (C):	20.004
Heatsink Temp (C):	17.641
CCDPCB Temp (C):	29.86
SecondaryPCB Temp (C):	25.291

Wavelength	RamanShift	Raw Counts	Dark Subtracted
787.061	30.1047	525.1	117.4
787.2016	32.3739	528.05	122.3
787.3422	34.6426	535.4	128.7
787.4828	36.9109	549.65	142.8
787.6235	39.1787	557.45	143.8
787.7642	41.4461	568.35	152.6
787.9049	43.7131	584.3	164.75
788.0456	45.9796	593	170.7
788.1863	48.2456	608.45	182.8
788.3271	50.5112	619.1	189.3
788.4679	52.7764	630.9	197.75
788.6087	55.0411	655.75	219
788.7496	57.3054	673.3	231.45
788.8904	59.5692	683.85	240.75
789.0313	61.8326	700.6	254.15
789.1722	64.0955	719	270.4
789.3132	66.3579	748.85	293.75
789.4541	68.6199	781.05	323.95
789.5951	70.8815	838.35	376.65
789.7361	73.1426	954.25	489.7
789.8771	75.4032	1244.3	776.4
790.0181	77.6634	1981.35	1508.4
790.1592	79.9231	3745.65	3271
790.3003	82.1824	7604.65	7124.85
790.4414	84.4412	14452.9	13965.3
790.5825	86.6995	23631.05	23134.6
790.7237	88.9574	32445.8	31942.35
790.8648	91.2148	38732.55	38223.3
791.006	93.4717	41960.8	41447.65
791.1472	95.7282	43374.1	42858.25
791.2885	97.9842	44051.75	43535.1
791.4297	100.2398	44461.65	43941.55
791.571	102.4949	44228.8	43704.6
791.7123	104.7495	44650.6	44124.25
791.8536	107.0036	44380.45	43851.7
791.9949	109.2573	44980.85	44452.65
792.1363	111.5105	44411.5	43881.95
792.2777	113.7632	44939.85	44412
792.4191	116.0154	45002.5	44460.5
792.5605	118.2672	45371.1	44834.6
792.7019	120.5185	45324.7	44786.9
792.8434	122.7693	45424.45	44883.15
792.9849	125.0197	45287.2	44741.45
793.1264	127.2696	45773.4	45222.45
793.2679	129.519	45998.3	45446.9
793.4094	131.7679	46416.2	45859.85
793.551	134.0163	45435.65	44879.2
793.6926	136.2642	45932.2	45373.05
793.8342	138.5117	46495.45	45933.4
793.9758	140.7587	46361.45	45797.5
794.1175	143.0052	46565.6	45999.65
794.2591	145.2512	46072.7	45507.75
794.4008	147.4967	46665.2	46095
794.5425	149.7417	46439.3	45865.9
794.6842	151.9863	46605.25	46027
794.826	154.2304	46064.15	45486.8
794.9677	156.4739	46530.65	45944.2
795.1095	158.717	46747.95	46162.3
795.2513	160.9596	46665.45	46074
795.3931	163.2017	46260.15	45667.95
795.535	165.4433	46839.55	46245.45
795.6768	167.6844	46577	45980.85
795.8187	169.925	46877.6	46276.7
795.9606	172.1651	46748.1	46144.85
796.1025	174.4047	46549.6	45939.7
796.2445	176.6439	46809.3	46201.45
796.3864	178.8825	46934.45	46323.1
796.5284	181.1206	47095.6	46478.9
796.6704	183.3582	47186.75	46566.4
796.8124	185.5954	46732.85	46109.35
796.9544	187.832	47070.35	46441.5
797.0965	190.0681	46990.6	46362.75
797.2386	192.3037	47428.35	46797.5
797.3806	194.5388	48039.7	47407.75
797.5228	196.7734	46940.5	46306.55
797.6649	199.0075	47800.25	47164.35
797.807	201.2411	47802.65	47164.95
797.9492	203.4742	48193.5	47552.55
798.0914	205.7068	48287.1	47643.1
798.2336	207.9389	48287.45	47644.75
798.3758	210.1704	48184.45	47553.1
798.518	212.4015	48753.7	48127.85
798.6603	214.632	47981	47360.55
798.8025	216.862	48633.75	48013.05
798.9448	219.0915	48790.75	48166.1
799.0871	221.3205	48431.55	47804.4
799.2294	223.549	48908.2	48284.05
799.3718	225.777	48953.2	48327.75
799.5141	228.0044	48998	48365.25
799.6565	230.2314	49070.4	48438.55
799.7989	232.4578	49025.6	48385.95
799.9413	234.6837	49065.35	48418.6
800.0837	236.909	49987.6	49339.35
800.2262	239.1339	48837.85	48166.75
800.3687	241.3582	49359.55	48701.45
800.5111	243.582	49307.05	48618.8
800.6536	245.8053	49468.35	48794.35
800.7961	248.0281	49407.55	48737
800.9387	250.2503	49626.75	48954.5
801.0812	252.472	49444.75	48771.5
801.2238	254.6932	49520.5	48845.95
801.3664	256.9139	49464.85	48790.5
801.509	259.134	50272.3	49592.8
801.6516	261.3536	49160.2	48482.6
801.7942	263.5727	50019.6	49340.35
801.9369	265.7912	49711.05	49031.5
802.0795	268.0092	49852.2	49172.9
802.2222	270.2267	49885.4	49204
802.3649	272.4436	49674.3	48989.25
802.5076	274.6601	49944.9	49248.7
802.6504	276.8759	50094.4	49403.9
802.7931	279.0913	50160.9	49470.85
802.9359	281.3061	49950.4	49260.1
803.0787	283.5204	50235.6	49539.95
803.2215	285.7341	50123.65	49429.15
803.3643	287.9473	50618.05	49911.2
803.5071	290.16	50143.6	49442.75
803.6499	292.3721	50776.65	50083.65
803.7928	294.5837	49885.4	49190.4
803.9357	296.7947	49778.45	49083.3
804.0786	299.0052	50263.7	49567.1
804.2215	301.2152	49969.05	49270.55
804.3644	303.4246	50530.55	49831.3
804.5074	305.6334	50434.9	49735.95
804.6503	307.8418	49900.5	49197.6
804.7933	310.0495	50213.55	49508.5
804.9363	312.2568	50048.8	49345.15
805.0793	314.4635	49926.45	49219.9
805.2223	316.6696	50019.7	49312.4
805.3653	318.8752	50320.15	49603.8
805.5084	321.0802	49408.8	48698.65
805.6514	323.2847	49752.45	49041.3
805.7945	325.4887	49865.85	49151.35
805.9376	327.692	49597.35	48881.55
806.0807	329.8949	49881.25	49165.55
806.2238	332.0972	49698.85	48982.9
806.367	334.2989	49937.35	49215
806.5101	336.5001	50278.8	49556.25
806.6533	338.7007	49698.55	48977.2
806.7965	340.9008	49980.55	49258.4
806.9397	343.1003	50005.65	49279.25
807.0829	345.2992	50173.55	49446.3
807.2261	347.4976	49815.45	49089.45
807.3693	349.6955	49990	49256.2
807.5126	351.8927	49854.35	49120.55
807.6559	354.0895	49965.2	49219.15
807.7991	356.2856	49896.25	49160.8
807.9424	358.4812	50171.75	49438.8
808.0857	360.6763	49867.55	49127
808.2291	362.8707	49888.85	49149.35
808.3724	365.0646	49848.05	49104.7
808.5158	367.258	49870.15	49125.4
808.6591	369.4508	49651.8	48903.25
808.8025	371.643	49803.95	49055.3
808.9459	373.8346	49772.25	49023.75
809.0893	376.0257	49689.35	48936.85
809.2327	378.2162	49557.35	48806.5
809.3762	380.4062	49430.05	48679.55
809.5196	382.5956	49465.2	48718.1
809.6631	384.7844	49573.15	48830.45
809.8066	386.9726	49498.6	48754.3
809.9501	389.1603	49631	48887.85
810.0936	391.3474	49215.8	48423.25
810.2371	393.5339	49578.9	48831.25
810.3806	395.7199	49043.3	48301.1
810.5241	397.9052	49139.55	48395.05
810.6677	400.09	49170.7	48424.25
810.8113	402.2743	49235.9	48485.9
810.9548	404.4579	49241.95	48492.5
811.0984	406.641	49106.2	48351.15
811.2421	408.8235	49287.45	48533.25
811.3857	411.0054	49218.4	48458.8
811.5293	413.1868	49271.9	48511.2
811.673	415.3675	49308.35	48542.8
811.8166	417.5477	49338.2	48574.95
811.9603	419.7273	49190.8	48424.35
812.104	421.9064	49005.9	48235
812.2477	424.0848	48993.6	48226.85
812.3914	426.2627	48987.3	48219.95
812.5351	428.4399	48633.35	47863.7
812.6788	430.6166	48542.2	47767.2
812.8226	432.7928	48598.35	47823.7
812.9663	434.9683	48333.05	47559.5
813.1101	437.1432	48376.75	47601.85
813.2539	439.3176	48309.65	47535.75
813.3977	441.4914	47993.85	47219.45
813.5415	443.6645	48049.4	47273.35
813.6853	445.8371	47905	47131.3
813.8291	448.0091	47634.85	46858.4
813.973	450.1806	47583.2	46808
814.1168	452.3514	47506.95	46727.75
814.2607	454.5216	47468.45	46682.6
814.4046	456.6913	47279.35	46498.75
814.5485	458.8603	47289.95	46511.9
814.6924	461.0288	47268	46491.15
814.8363	463.1967	47210.9	46430.95
814.9802	465.3639	47314.65	46533.5
815.1241	467.5306	47038.05	46255.5
815.2681	469.6967	46999.4	46218.65
815.412	471.8622	46907.35	46124.75
815.556	474.0271	46906.45	46124.55
815.7	476.1914	46925.1	46139.3
815.844	478.3551	46884.85	46101.55
815.988	480.5182	46991.4	46206.85
816.132	482.6807	46879.45	46092.5
816.276	484.8426	46923.75	46139.1
816.4201	487.0039	47055.2	46268.3
816.5641	489.1647	47054.9	46264.95
816.7082	491.3248	46938.9	46149.95
816.8522	493.4843	46970.4	46183.45
816.9963	495.6432	46942.35	46153.9
817.1404	497.8015	46775.45	45983.5
817.2845	499.9592	46863.5	46072
817.4286	502.1163	46810.7	46016.45
817.5727	504.2728	46665.25	45871.9
817.7168	506.4287	46797.25	46005.5
817.861	508.5839	46583.35	45792.25
818.0051	510.7386	46588.35	45795.6
818.1493	512.8927	46618.75	45812.35
818.2935	515.0461	46601.15	45802.95
818.4377	517.199	46629.2	45831.65
818.5818	519.3512	46601.65	45805.2
818.726	521.5029	46550.9	45746.5
818.8703	523.6539	46549.9	45750
819.0145	525.8043	46379	45576.85
819.1587	527.9541	46420.85	45619.7
819.303	530.1033	46325.2	45524.3
819.4472	532.2519	46321.1	45521
819.5915	534.3999	46227.05	45422.5
819.7357	536.5472	46216.3	45410.85
819.88	538.694	46067.45	45264.9
820.0243	540.8401	46207.55	45403.45
820.1686	542.9856	46185.25	45380.3
820.3129	545.1305	46099.1	45291.2
820.4572	547.2748	46161.55	45354.6
820.6016	549.4185	46185.85	45377.2
820.7459	551.5615	46048.35	45240.5
820.8902	553.704	46045.2	45235.5
821.0346	555.8458	45901.75	45096.05
821.1789	557.987	45946.4	45139.45
821.3233	560.1276	45898.75	45089.7
821.4677	562.2675	45959.55	45152.35
821.6121	564.4069	45886.2	45077.95
821.7565	566.5456	45898.7	45094.35
821.9009	568.6837	45804.35	44995.95
822.0453	570.8212	45669.5	44862.7
822.1897	572.958	45497.55	44686.3
822.3342	575.0942	45428.9	44619.9
822.4786	577.2299	45274.55	44462.8
822.6231	579.3648	45125.9	44315.9
822.7675	581.4992	44934.45	44124.35
822.912	583.6329	44802.85	43992.55
823.0565	585.766	44719.05	43906.3
823.201	587.8985	44719.3	43908.55
823.3454	590.0304	44586	43748.75
823.4899	592.1616	44533.5	43716.55
823.6345	594.2922	44474.05	43657
823.779	596.4222	44344.75	43526.55
823.9235	598.5515	44205.55	43388.3
824.068	600.6802	44122.55	43305.35
824.2126	602.8083	43890.6	43072
824.3571	604.9358	43849.45	43026.7
824.5017	607.0626	43746.6	42928.45
824.6462	609.1888	43700.85	42879.8
824.7908	611.3144	43685.25	42863.45
824.9354	613.4393	43592.4	42772.25
825.08	615.5636	43627.8	42807.4
825.2246	617.6873	43619.25	42797.75
825.3692	619.8103	43612.35	42789.3
825.5138	621.9327	43548.8	42723.15
825.6584	624.0544	43526.9	42707.1
825.803	626.1756	43443.05	42620.8
825.9477	628.2961	43374.8	42549.6
826.0923	630.4159	43285.2	42460.5
826.237	632.5351	43248.2	42423.6
826.3816	634.6537	43186.5	42361.95
826.5263	636.7716	43116.55	42287
826.6709	638.8889	43109	42281.15
826.8156	641.0056	43168.7	42341.75
826.9603	643.1216	43062.85	42236.05
827.105	645.237	43149.5	42324.8
827.2497	647.3518	43017.75	42191.95
827.3944	649.4659	42993.9	42168
827.5391	651.5793	42865.85	42040.15
827.6838	653.6922	42737.2	41910.2
827.8285	655.8043	42759.1	41931.15
827.9733	657.9159	42730.35	41901.75
828.118	660.0268	42570.1	41738.4
828.2627	662.137	42490.55	41659.45
828.4075	664.2466	42435.65	41601.3
828.5522	666.3556	42450.95	41619.55
828.697	668.4639	42306.6	41471
828.8418	670.5716	42368.15	41537.35
828.9865	672.6786	42316.75	41481.55
829.1313	674.785	42152.55	41315.2
829.2761	676.8907	42033.1	41199.3
829.4209	678.9958	42016.85	41183.75
829.5657	681.1002	41884.4	41048.4
829.7105	683.204	41844.15	41005.95
829.8553	685.3072	41778.25	40943.3
830.0001	687.4097	41664.7	40828.7
830.1449	689.5115	41678.9	40841.9
830.2898	691.6127	41645.55	40812.95
830.4346	693.7132	41521.35	40684
830.5794	695.8131	41619.6	40759.3
830.7243	697.9123	41589.3	40750.5
830.8691	700.0109	41516.8	40678.05
831.014	702.1089	41465.15	40628.35
831.1588	704.2061	41385.6	40546.3
831.3037	706.3028	41446.15	40603.35
831.4486	708.3987	41363.3	40524.3
831.5935	710.4941	41246.6	40405.6
831.7383	712.5887	41256.65	40417.9
831.8832	714.6827	41218.25	40375.6
832.0281	716.7761	41191.25	40348.85
832.173	718.8688	41132.05	40289.85
832.3179	720.9608	41024.35	40179.35
832.4628	723.0522	41093.95	40249.55
832.6077	725.1429	40907.4	40063.35
832.7527	727.233	40917.25	40073
832.8976	729.3224	40984.45	40142.65
833.0425	731.4112	40893	40049.85
833.1874	733.4993	40780.4	39937.15
833.3324	735.5867	40606.2	39761.7
833.4773	737.6735	40546.1	39699.35
833.6222	739.7596	40441.1	39594.65
833.7672	741.845	40354.35	39508.85
833.9122	743.9298	40254.95	39406.55
834.0571	746.014	40238.55	39393.25
834.2021	748.0974	40180.95	39334.5
834.347	750.1802	40039.2	39193.4
834.492	752.2624	39896.6	39050.5
834.637	754.3439	39768.8	38918.75
834.782	756.4247	39648.9	38794
834.9269	758.5048	39532.55	38686.4
835.0719	760.5843	39512.25	38661.3
835.2169	762.6631	39351	38503.8
835.3619	764.7413	39289.65	38441.95
835.5069	766.8188	39329.05	38478.15
835.6519	768.8956	39200.6	38350.55
835.7969	770.9718	39291.7	38443.9
835.9419	773.0473	39114.1	38267.35
836.0869	775.1221	39016.35	38169.2
836.232	777.1962	38863.2	38011.65
836.377	779.2697	38839.55	37988.35
836.522	781.3426	38812.85	37950.65
836.667	783.4147	38741.7	37891.25
836.8121	785.4862	38724.85	37876.6
836.9571	787.557	38576.05	37725.25
837.1021	789.6271	38489.4	37637.45
837.2472	791.6966	38314.85	37462.5
837.3922	793.7654	38176.85	37325.05
837.5373	795.8335	38150.8	37301.6
837.6823	797.901	37988.95	37136.2
837.8274	799.9678	37932.25	37080.05
837.9724	802.0339	37840.1	36987.95
838.1175	804.0993	37839.35	36976.85
838.2626	806.1641	37698.8	36845.6
838.4076	808.2282	37637.35	36784.8
838.5527	810.2916	37595	36741.25
838.6978	812.3544	37519	36669
838.8428	814.4164	37454.45	36601.5
838.9879	816.4778	37512.5	36657.9
839.133	818.5385	37325.65	36473.5
839.2781	820.5986	37396.3	36541.3
839.4232	822.658	37347.55	36493.1
839.5682	824.7166	37209.35	36354.4
839.7133	826.7747	37316.7	36463.1
839.8584	828.832	37256.65	36401.4
840.0035	830.8886	37083.95	36227.3
840.1486	832.9446	37138.7	36282.25
840.2937	834.9999	37053.25	36200.1
840.4388	837.0545	36971.4	36110.5
840.5839	839.1085	36829.5	35972.75
840.729	841.1618	36726.45	35866.4
840.8741	843.2143	36665.25	35808.8
841.0192	845.2662	36503.45	35647.05
841.1643	847.3175	36444.1	35588.4
841.3095	849.368	36327.25	35469.45
841.4546	851.4179	36305.2	35450.2
841.5997	853.467	36154.1	35296.45
841.7448	855.5155	36130.1	35271.75
841.8899	857.5633	36059.2	35202.8
842.0351	859.6105	35922.3	35064.95
842.1802	861.6569	35911.55	35053.95
842.3253	863.7027	35859.5	34997.95
842.4704	865.7478	35862.85	35002.8
842.6156	867.7922	35756.75	34899
842.7607	869.8359	35711.85	34851.65
842.9058	871.8789	35610.5	34753.05
843.0509	873.9212	35613.1	34721.35
843.1961	875.9629	35420.6	34561
843.3412	878.0039	35476.05	34614.35
843.4863	880.0441	35404.4	34545.3
843.6315	882.0837	35416.55	34554.15
843.7766	884.1226	35387.55	34524.45
843.9218	886.1609	35323.45	34466.7
844.0669	888.1984	35363.3	34504.3
844.212	890.2352	35385.4	34527.95
844.3572	892.2714	35292.5	34428
844.5023	894.3069	35316.05	34454.8
844.6475	896.3416	35118.75	34257.25
844.7926	898.3757	35029.65	34169.85
844.9377	900.4091	35027.55	34165.9
845.0829	902.4418	34943.55	34075.45
845.228	904.4739	34750.55	33885.55
845.3732	906.5052	34789.65	33927.2
845.5183	908.5358	34708.95	33849.15
845.6635	910.5658	34620.25	33755.85
845.8086	912.595	34555.65	33691.7
845.9538	914.6236	34388.55	33524.7
846.0989	916.6515	34352.7	33489.15
846.2441	918.6786	34222.7	33358.7
846.3892	920.7051	34182.7	33317.65
846.5344	922.7309	34279.55	33418
846.6795	924.756	34111.2	33246.6
846.8246	926.7804	34089.6	33225.05
846.9698	928.8041	33861.6	32993.4
847.1149	930.8272	33867.3	33004.65
847.2601	932.8495	33640.7	32775.65
847.4052	934.8711	33702	32834.85
847.5504	936.892	33551.45	32686.65
847.6955	938.9123	33457.05	32592.2
847.8407	940.9318	33376.05	32513
847.9858	942.9506	33319	32453.35
848.131	944.9688	33174.15	32307.9
848.2761	946.9862	33143.6	32278.6
848.4213	949.003	32947	32080.45
848.5664	951.019	32867.85	32000.4
848.7115	953.0344	32710.8	31845.45
848.8567	955.0491	32683.7	31815.3
849.0018	957.063	32678.8	31812.95
849.147	959.0763	32713.1	31846.6
849.2921	961.0888	32559.2	31689.1
849.4373	963.1007	32577.05	31709.25
849.5824	965.1119	32499.1	31634.15
849.7275	967.1223	32451.95	31585.3
849.8727	969.1321	32383.35	31516.2
850.0178	971.1412	32332.6	31467.65
850.1629	973.1495	32178.05	31310.75
850.3081	975.1572	32199.5	31287.25
850.4532	977.1641	32166.5	31301.45
850.5983	979.1704	32064.35	31196.95
850.7435	981.1759	31930.1	31061.35
850.8886	983.1808	31904.05	31033.8
851.0337	985.1849	31854.45	30980.55
851.1788	987.1884	31768.35	30898.7
851.324	989.1911	31658.75	30788.55
851.4691	991.1932	31573.35	30702.9
851.6142	993.1945	31481.5	30614.25
851.7593	995.1951	31301.1	30432.8
851.9045	997.1951	31303.05	30430.05
852.0496	999.1943	31121.9	30253.5
852.1947	1001.1928	30984.25	30113.95
852.3398	1003.1906	30866.35	29998.05
852.4849	1005.1877	30866.85	29997.2
852.63	1007.1841	30733	29860.8
852.7751	1009.1798	30623.95	29755.85
852.9202	1011.1748	30506.75	29638.5
853.0653	1013.1691	30470.8	29600.5
853.2104	1015.1627	30324.8	29455.8
853.3555	1017.1556	30110.45	29241.8
853.5006	1019.1477	30061.75	29191.45
853.6457	1021.1392	29856.5	28989.2
853.7908	1023.1299	29765.35	28898.65
853.9359	1025.12	29639.4	28768.2
854.081	1027.1093	29529.2	28661.05
854.2261	1029.0979	29427.6	28559.75
854.3712	1031.0859	29284.25	28417
854.5163	1033.0731	29254.7	28385.35
854.6613	1035.0596	29125.6	28254.5
854.8064	1037.0454	29034.65	28164.2
854.9515	1039.0304	28954.55	28084.1
855.0965	1041.0148	28816.75	27947.45
855.2416	1042.9985	28723.55	27850.4
855.3867	1044.9814	28714.35	27842.3
855.5317	1046.9636	28540.8	27668.3
855.6768	1048.9452	28450.45	27579.9
855.8219	1050.926	28476.2	27606.65
855.9669	1052.9061	28365.3	27492.55
856.112	1054.8855	28244.55	27372.6
856.257	1056.8642	28251	27379.35
856.4021	1058.8421	28234	27357.9
856.5471	1060.8194	28131.8	27259.35
856.6921	1062.7959	28084.6	27213.1
856.8372	1064.7717	27987.25	27115.3
856.9822	1066.7469	27901.45	27028.3
857.1272	1068.7213	27893.65	27019.5
857.2723	1070.695	27807.45	26935.15
857.4173	1072.6679	27678.85	26807.05
857.5623	1074.6402	27708.7	26834.25
857.7073	1076.6117	27677.95	26801.9
857.8523	1078.5826	27673.4	26800.8
857.9973	1080.5527	27521.1	26648.3
858.1423	1082.5221	27445	26573
858.2873	1084.4908	27373	26499.65
858.4323	1086.4587	27248.3	26374.35
858.5773	1088.426	27160.45	26286.65
858.7223	1090.3925	27071.45	26193.3
858.8673	1092.3584	27046.6	26172.3
859.0123	1094.3235	26912.45	26040.35
859.1573	1096.2879	26888.45	26016.55
859.3022	1098.2515	26816.95	25943.8
859.4472	1100.2145	26833.8	25959.6
859.5922	1102.1767	26750.8	25874
859.7371	1104.1382	26720.3	25846.75
859.8821	1106.099	26691.15	25816.85
860.027	1108.0591	26641.5	25767.6
860.172	1110.0185	26596.55	25720.55
860.3169	1111.9771	26563.45	25687.45
860.4619	1113.9351	26498.45	25623.3
860.6068	1115.8923	26489.8	25617.2
860.7517	1117.8488	26455.3	25577.95
860.8967	1119.8045	26312.2	25438.15
861.0416	1121.7596	26245.05	25368.45
861.1865	1123.7139	26063.75	25188.75
861.3314	1125.6675	25958.85	25085.95
861.4763	1127.6204	25927.1	25051.25
861.6212	1129.5726	25879.3	25001
861.7661	1131.524	25875	25002.2
861.911	1133.4748	25803.4	24927.25
862.0559	1135.4248	25657.55	24781.5
862.2008	1137.3741	25588.75	24710.8
862.3457	1139.3226	25486.1	24608.4
862.4905	1141.2705	25506.85	24632.9
862.6354	1143.2176	25399.1	24518.4
862.7803	1145.164	25391.55	24514.3
862.9251	1147.1097	25326.4	24451.3
863.07	1149.0546	25277.6	24400.95
863.2148	1150.9989	25216.3	24340.15
863.3597	1152.9424	25189.9	24315.4
863.5045	1154.8852	25123.5	24246.95
863.6493	1156.8272	25087.15	24212.1
863.7942	1158.7686	25089.45	24205.95
863.939	1160.7092	25010.3	24133.85
864.0838	1162.6491	24894.3	24015.8
864.2286	1164.5883	24879.9	24004.45
864.3734	1166.5267	24844.65	23967.9
864.5182	1168.4644	24861.15	23985.45
864.663	1170.4014	24785.45	23905.55
864.8078	1172.3377	24777.1	23902.15
864.9526	1174.2732	24792.05	23916.6
865.0974	1176.2081	24829.35	23952.45
865.2421	1178.1421	24838.3	23957.6
865.3869	1180.0755	24896.8	24021.65
865.5317	1182.0082	24832.45	23956.45
865.6764	1183.9401	24802.65	23924.9
865.8212	1185.8713	24722.45	23846.75
865.9659	1187.8017	24541	23662.75
866.1106	1189.7315	24457.95	23582.75
866.2554	1191.6605	24241.1	23366.15
866.4001	1193.5888	24167.9	23292.95
866.5448	1195.5163	24075.1	23198.95
866.6895	1197.4432	23972.55	23095.75
866.8342	1199.3693	23909.75	23032.8
866.9789	1201.2947	23769.35	22889.85
867.1236	1203.2193	23712.5	22835.4
867.2683	1205.1432	23668.95	22791.05
867.413	1207.0664	23597.2	22721.45
867.5576	1208.9889	23555.45	22675.4
867.7023	1210.9106	23470.85	22591.95
867.847	1212.8316	23353	22475.1
867.9916	1214.7519	23316.75	22430.4
868.1363	1216.6715	23241.65	22363.95
868.2809	1218.5903	23185.3	22306.95
868.4255	1220.5084	23135.5	22258.65
868.5701	1222.4257	23152.65	22274.4
868.7148	1224.3424	23032.45	22157.8
868.8594	1226.2583	23027.1	22146.25
869.004	1228.1735	22994.65	22117.25
869.1486	1230.0879	22876.3	21996.6
869.2932	1232.0016	22812.6	21933
869.4377	1233.9146	22804.75	21924.1
869.5823	1235.8269	22736.8	21858.15
869.7269	1237.7384	22787.45	21910.5
869.8715	1239.6492	22656.95	21778.35
870.016	1241.5592	22682.05	21803.15
870.1606	1243.4686	22568.8	21690.15
870.3051	1245.3772	22614.7	21737.1
870.4496	1247.285	22620.5	21743
870.5941	1249.1922	22586	21708.15
870.7387	1251.0986	22614.65	21736.4
870.8832	1253.0042	22581.85	21705.25
871.0277	1254.9092	22615.5	21734.6
871.1722	1256.8134	22628.35	21750.4
871.3167	1258.7169	22682.5	21801.75
871.4611	1260.6196	22653.8	21774.9
871.6056	1262.5216	22669.35	21789.4
871.7501	1264.4229	22628.95	21748.75
871.8945	1266.3234	22588.3	21710.4
872.039	1268.2232	22544.95	21665.85
872.1834	1270.1223	22431.5	21547.65
872.3278	1272.0207	22380.15	21502.05
872.4723	1273.9183	22305.25	21420.2
872.6167	1275.8151	22264.15	21383.25
872.7611	1277.7113	22250.3	21371.9
872.9055	1279.6067	22215.6	21336.15
873.0499	1281.5014	22275.6	21394.2
873.1943	1283.3953	22414.2	21531.2
873.3386	1285.2885	22541.45	21661.65
873.483	1287.181	22669.95	21791.4
873.6274	1289.0727	22753.75	21874.75
873.7717	1290.9637	22627.3	21748.5
873.9161	1292.854	22546.4	21666.7
874.0604	1294.7435	22395.2	21513.55
874.2047	1296.6323	22237.05	21356.55
874.349	1298.5204	22151.6	21268.9
874.4933	1300.4077	22065.8	21186
874.6376	1302.2943	21982.15	21102.4
874.7819	1304.1802	21979.25	21100
874.9262	1306.0653	21904.5	21022.75
875.0705	1307.9497	21842.7	20960.75
875.2147	1309.8333	21781.65	20901.15
875.359	1311.7162	21756.95	20877.5
875.5032	1313.5984	21728.95	20846.8
875.6475	1315.4798	21632.95	20742.4
875.7917	1317.3605	21610.45	20726.2
875.9359	1319.2405	21604.8	20723.8
876.0801	1321.1197	21568	20685.25
876.2243	1322.9982	21476.45	20592.6
876.3685	1324.876	21449.45	20568.4
876.5127	1326.753	21374.8	20494.9
876.6569	1328.6293	21294.7	20413
876.801	1330.5048	21252	20370.55
876.9452	1332.3796	21081.4	20202.9
877.0893	1334.2537	21041.55	20138.25
877.2335	1336.127	20967.75	20087.35
877.3776	1337.9996	20910.9	20030.2
877.5217	1339.8714	20861.55	19979.5
877.6658	1341.7426	20803.7	19876.9
877.8099	1343.6129	20764.6	19884.45
877.954	1345.4826	20674	19792.5
878.0981	1347.3515	20700.35	19816.15
878.2422	1349.2196	20609.85	19730.05
878.3862	1351.087	20610.75	19728.75
878.5303	1352.9537	20557.6	19677.65
878.6743	1354.8197	20596.7	19717.7
878.8184	1356.6849	20580	19697.6
878.9624	1358.5493	20528.7	19645.9
879.1064	1360.4131	20509.05	19629.8
879.2504	1362.276	20478.15	19599.2
879.3944	1364.1383	20468.45	19588.35
879.5384	1365.9998	20403.9	19518.1
879.6823	1367.8606	20334.85	19452.4
879.8263	1369.7206	20325.4	19444.95
879.9702	1371.5799	20276.75	19394
880.1142	1373.4384	20176	19295.1
880.2581	1375.2962	20187.4	19302.75
880.402	1377.1533	20050.85	19171.9
880.5459	1379.0096	19932.75	19053.15
880.6898	1380.8652	19855.1	18975.2
880.8337	1382.7201	19820.9	18940.85
880.9776	1384.5742	19699.55	18817.1
881.1215	1386.4275	19589.25	18706.1
881.2653	1388.2802	19526	18645.4
881.4092	1390.132	19435.55	18553
881.553	1391.9832	19434.65	18551.2
881.6968	1393.8336	19315.1	18433.3
881.8406	1395.6832	19300.5	18421.7
881.9844	1397.5322	19206.4	18326.25
882.1282	1399.3803	19126.75	18239.3
882.272	1401.2278	19062.9	18181.8
882.4158	1403.0745	19047.7	18165
882.5595	1404.9204	18934.4	18055.5
882.7033	1406.7656	18900.6	18020.6
882.847	1408.6101	18814.85	17932.9
882.9908	1410.4538	18733.15	17849.85
883.1345	1412.2968	18679.3	17796.1
883.2782	1414.139	18613.6	17731.25
883.4219	1415.9805	18570.85	17690.75
883.5656	1417.8213	18535.15	17628.7
883.7092	1419.6613	18479.15	17599.4
883.8529	1421.5006	18453.8	17569.35
883.9965	1423.3391	18440.15	17559.4
884.1402	1425.1769	18404.25	17522.45
884.2838	1427.0139	18428.2	17544.65
884.4274	1428.8502	18444.6	17561.25
884.571	1430.6858	18445.1	17563.85
884.7146	1432.5206	18404.3	17522.25
884.8582	1434.3547	18408.45	17524.15
885.0018	1436.188	18358.55	17477.4
885.1453	1438.0206	18316.4	17434.85
885.2889	1439.8524	18221.05	17337.35
885.4324	1441.6835	18222.4	17340.1
885.5759	1443.5139	18185.5	17299.5
885.7194	1445.3435	18118.95	17238.15
885.8629	1447.1724	18092.65	17211.9
886.0064	1449.0005	18111	17229.25
886.1499	1450.8279	18061.15	17177
886.2933	1452.6545	18040.7	17159.3
886.4368	1454.4804	18030.6	17151.4
886.5802	1456.3056	17982.45	17093.2
886.7237	1458.13	17944	17063.05
886.8671	1459.9536	17899.55	17015.25
887.0105	1461.7766	17855.15	16973.05
887.1539	1463.5987	17816.9	16933.25
887.2972	1465.4202	17734.75	16853.6
887.4406	1467.2409	17643.7	16760.45
887.584	1469.0608	17659.35	16777.9
887.7273	1470.88	17580.25	16698.75
887.8706	1472.6984	17523.7	16642.95
888.0139	1474.5161	17440.45	16555.35
888.1572	1476.3331	17384.45	16502.65
888.3005	1478.1493	17342.65	16458.8
888.4438	1479.9648	17317.3	16437.4
888.5871	1481.7795	17270.4	16388.05
888.7303	1483.5935	17263.35	16380.2
888.8736	1485.4067	17201.2	16320.05
889.0168	1487.2192	17190.25	16306.9
889.16	1489.031	17190.3	16306.55
889.3032	1490.842	17146.35	16266.25
889.4464	1492.6522	17141.8	16257.2
889.5896	1494.4618	17079.75	16197.2
889.7327	1496.2705	17076.75	16195.3
889.8759	1498.0785	17006.8	16123.5
890.019	1499.8858	16955.5	16074.2
890.1622	1501.6924	16910.5	16027.7
890.3053	1503.4981	16910.95	16028.9
890.4484	1505.3032	16860.45	15977.35
890.5914	1507.1075	16832.45	15951.05
890.7345	1508.911	16783	15900.05
890.8776	1510.7138	16754.85	15871.4
891.0206	1512.5159	16665.4	15783.65
891.1637	1514.3172	16630.7	15749.4
891.3067	1516.1178	16547.65	15667.9
891.4497	1517.9176	16551.6	15669.3
891.5927	1519.7166	16488.05	15605.95
891.7357	1521.515	16423.9	15536.55
891.8786	1523.3126	16371.65	15489.1
892.0216	1525.1094	16329.7	15445.85
892.1645	1526.9055	16268.7	15387.1
892.3074	1528.7008	16215.75	15332.7
892.4503	1530.4954	16154.2	15267.25
892.5932	1532.2893	16101.75	15219.45
892.7361	1534.0824	16029.4	15143.95
892.879	1535.8747	15984.45	15101.9
893.0218	1537.6663	15927.75	15046.1
893.1647	1539.4572	15900.15	15015.45
893.3075	1541.2473	15843.75	14960.45
893.4503	1543.0367	15752.25	14870.2
893.5931	1544.8253	15713.55	14825.95
893.7359	1546.6132	15698.05	14812.6
893.8787	1548.4003	15612.9	14722.15
894.0214	1550.1867	15602.6	14710.5
894.1642	1551.9723	15546.8	14661.6
894.3069	1553.7572	15518.2	14635.7
894.4496	1555.5414	15504.2	14619.45
894.5923	1557.3247	15448.95	14566.7
894.735	1559.1074	15447.45	14567.7
894.8777	1560.8893	15396.2	14513.45
895.0204	1562.6705	15356	14474.8
895.163	1564.4509	15369	14487.65
895.3056	1566.2305	15304.9	14423.75
895.4482	1568.0094	15341.8	14459.8
895.5908	1569.7876	15306	14424.4
895.7334	1571.565	15243.2	14360.9
895.876	1573.3417	15204.65	14321
896.0186	1575.1176	15157.85	14276.45
896.1611	1576.8928	15118.5	14236.7
896.3036	1578.6672	15052.2	14173.7
896.4461	1580.4409	15025.05	14146.35
896.5886	1582.2138	14992.8	14108.5
896.7311	1583.986	14979.05	14097.55
896.8736	1585.7575	15013.45	14133.05
897.0161	1587.5282	14983.15	14104.4
897.1585	1589.2981	15016.7	14135.55
897.3009	1591.0673	14948.6	14067.1
897.4433	1592.8358	14933.05	14052.9
897.5857	1594.6035	14895.85	14012
897.7281	1596.3704	14789.15	13906.9
897.8705	1598.1366	14729.5	13845.45
898.0128	1599.9021	14669.9	13787.7
898.1551	1601.6668	14566.65	13684.2
898.2975	1603.4308	14500.05	13616.45
898.4398	1605.194	14460.6	13574.7
898.5821	1606.9564	14408.35	13527.65
898.7243	1608.7182	14442.35	13555.35
898.8666	1610.4791	14457.65	13576.85
899.0088	1612.2394	14472.55	13592.1
899.1511	1613.9988	14502.9	13621.15
899.2933	1615.7576	14533.65	13654.25
899.4355	1617.5156	14574.15	13685.25
899.5776	1619.2728	14521.05	13639.3
899.7198	1621.0293	14453.35	13574
899.862	1622.785	14327.95	13443.7
900.0041	1624.54	14176	13293.35
900.1462	1626.2942	14060.2	13176.05
900.2883	1628.0477	13850.75	12965.7
900.4304	1629.8005	13772.65	12887.2
900.5725	1631.5525	13698.25	12817.75
900.7145	1633.3037	13597.6	12716.15
900.8566	1635.0542	13538.3	12656.4
900.9986	1636.804	13453.9	12572.6
901.1406	1638.553	13450.1	12478.2
901.2826	1640.3013	13348.75	12469.1
901.4245	1642.0488	13260.85	12378.6
901.5665	1643.7955	13226.5	12346.05
901.7085	1645.5416	13154.2	12273.4
901.8504	1647.2868	13150.9	12269.35
901.9923	1649.0313	13108.4	12225.7
902.1342	1650.7751	13056.7	12173.35
902.2761	1652.5181	13002.75	12123.65
902.4179	1654.2604	12954.55	12073.5
902.5598	1656.0019	12920.55	12038.6
902.7016	1657.7427	12912.75	12031.85
902.8434	1659.4828	12914	12030.9
902.9852	1661.222	12864.75	11982.65
903.127	1662.9606	12813.5	11932.45
903.2687	1664.6984	12846.5	11964.3
903.4105	1666.4354	12824.5	11940.2
903.5522	1668.1717	12786.4	11904.85
903.6939	1669.9072	12667.5	11784.3
903.8356	1671.642	12665.9	11783.1
903.9773	1673.3761	12551.15	11670.45
904.119	1675.1094	12509.5	11628.45
904.2606	1676.8419	12416	11534.5
904.4022	1678.5737	12390.75	11509.6
904.5439	1680.3048	12289.9	11407.65
904.6855	1682.0351	12228.9	11347.45
904.827	1683.7646	12197.55	11313.35
904.9686	1685.4934	12146.2	11266.8
905.1101	1687.2215	12075.05	11194.2
905.2517	1688.9488	12029.2	11147.1
905.3932	1690.6754	11967	11087.5
905.5347	1692.4012	11932.55	11048.15
905.6761	1694.1263	11882.15	11000.85
905.8176	1695.8506	11869.9	10986.15
905.9591	1697.5742	11824.9	10943.4
906.1005	1699.297	11793.6	10913.25
906.2419	1701.0191	11726.2	10845.65
906.3833	1702.7404	11679.15	10800.65
906.5246	1704.461	11614.85	10730.6
906.666	1706.1808	11562.8	10679.15
906.8073	1707.8999	11527	10644.8
906.9487	1709.6182	11520.75	10635.85
907.09	1711.3358	11474.3	10593
907.2313	1713.0527	11422.45	10541.75
907.3725	1714.7688	11374.7	10486.9
907.5138	1716.4841	11328.85	10444.95
907.655	1718.1987	11340.05	10451.65
907.7962	1719.9126	11294.5	10416.2
907.9374	1721.6257	11230.25	10346.3
908.0786	1723.338	11240.75	10358.6
908.2198	1725.0496	11190.7	10308.55
908.3609	1726.7605	11176.2	10292.75
908.502	1728.4706	11143.3	10261.6
908.6431	1730.18	11088.85	10206.95
908.7842	1731.8886	11076.1	10193.5
908.9253	1733.5964	11085.8	10182.8
909.0664	1735.3036	11038.3	10155.15
909.2074	1737.0099	11011.9	10130.5
909.3484	1738.7156	11003.15	10122.95
909.4894	1740.4204	10961.4	10077.35
909.6304	1742.1246	10920.45	10038.05
909.7714	1743.8279	10929.3	10049.75
909.9123	1745.5306	10899	10015.35
910.0532	1747.2325	10880.75	9999.25
910.1941	1748.9336	10848.1	9965.65
910.335	1750.634	10810.65	9928.25
910.4759	1752.3336	10796.7	9916.7
910.6168	1754.0325	10773.15	9892.75
910.7576	1755.7307	10768.7	9885.55
910.8984	1757.4281	10765.95	9883.3
911.0392	1759.1247	10716.8	9827
911.18	1760.8206	10715.1	9827.25
911.3208	1762.5158	10712.9	9825.35
911.4615	1764.2102	10661.35	9780.5
911.6022	1765.9039	10624.6	9743.05
911.7429	1767.5968	10618.05	9735.2
911.8836	1769.289	10582	9701.15
912.0243	1770.9804	10554.1	9669.8
912.1649	1772.6711	10547.75	9665.6
912.3056	1774.361	10502.75	9620.9
912.4462	1776.0502	10508.95	9626.55
912.5868	1777.7386	10473.25	9588
912.7274	1779.4263	10437.55	9554.7
912.8679	1781.1132	10444.75	9562.85
913.0084	1782.7994	10417.15	9533.25
913.149	1784.4849	10352.55	9472.3
913.2895	1786.1696	10344.45	9442.65
913.4299	1787.8535	10313.1	9432.4
913.5704	1789.5367	10296.45	9414.2
913.7108	1791.2192	10263.2	9381.8
913.8513	1792.9009	10223.15	9322.1
913.9917	1794.5818	10209.55	9327.5
914.132	1796.2621	10199.35	9319.65
914.2724	1797.9415	10152.75	9269.9
914.4128	1799.6202	10125.1	9242.2
914.5531	1801.2982	10104.35	9221
914.6934	1802.9755	10095.1	9213.45
914.8337	1804.6519	10048.25	9164.9
914.9739	1806.3277	10007.75	9126.3
915.1142	1808.0027	10001.15	9119.15
915.2544	1809.6769	9972.75	9091.4
915.3946	1811.3504	9967.4	9083.55
915.5348	1813.0231	9923.4	9041.75
915.675	1814.6951	9915.75	9034.55
915.8151	1816.3664	9902	9019.15
915.9553	1818.0369	9867.15	8984.3
916.0954	1819.7067	9846.15	8965.05
916.2355	1821.3757	9821.95	8936.9
916.3755	1823.044	9821.9	8940.1
916.5156	1824.7115	9818.05	8934.3
916.6556	1826.3783	9736.3	8855.25
916.7956	1828.0443	9732.45	8851.4
916.9356	1829.7096	9700.5	8818.45
917.0756	1831.3741	9693.4	8807.65
917.2155	1833.0379	9637	8755.35
917.3555	1834.701	9645.65	8761.4
917.4954	1836.3633	9639.3	8759.2
917.6353	1838.0248	9628.6	8745.85
917.7751	1839.6856	9595.9	8712.7
917.915	1841.3457	9557.05	8676.15
918.0548	1843.005	9542.75	8661.4
918.1946	1844.6636	9510.3	8630.3
918.3344	1846.3214	9493.55	8609.4
918.4742	1847.9785	9500.15	8617.9
918.6139	1849.6349	9475.95	8592.6
918.7537	1851.2904	9452.3	8560.25
918.8934	1852.9453	9414.3	8531.2
919.0331	1854.5994	9378.1	8492.7
919.1727	1856.2528	9396.25	8509.05
919.3124	1857.9054	9350.95	8467.15
919.452	1859.5572	9338.4	8459
919.5916	1861.2083	9317.1	8434.4
919.7312	1862.8587	9348.35	8466.75
919.8708	1864.5084	9307.35	8425.7
920.0103	1866.1572	9274.1	8393.1
920.1498	1867.8054	9212.25	8328
920.2893	1869.4528	9225.85	8344.1
920.4288	1871.0994	9163.65	8281.4
920.5683	1872.7453	9166.65	8284.15
920.7077	1874.3905	9156.6	8266.55
920.8471	1876.0349	9147.3	8263.15
920.9865	1877.6786	9109.05	8226.45
921.1259	1879.3215	9103.6	8222.15
921.2653	1880.9637	9085.85	8201.8
921.4046	1882.6051	9076.8	8196.35
921.5439	1884.2458	9046.35	8159.95
921.6832	1885.8858	9036.25	8155.05
921.8225	1887.525	9010	8126
921.9617	1889.1634	8970.95	8087.3
922.101	1890.8011	8946.75	8065.35
922.2402	1892.4381	8943.45	8062.75
922.3794	1894.0743	8911.3	8031.05
922.5185	1895.7098	8879.7	7996.8
922.6577	1897.3446	8884.95	8001.7
922.7968	1898.9786	8843.05	7955.7
922.9359	1900.6118	8835.1	7955.3
923.075	1902.2443	8814.7	7930.05
923.214	1903.8761	8795.5	7913.15
923.3531	1905.5071	8748	7863.05
923.4921	1907.1374	8716.15	7834.05
923.6311	1908.7669	8703.2	7821.7
923.77	1910.3957	8677.05	7794.85
923.909	1912.0237	8657.7	7776.15
924.0479	1913.651	8629.25	7744.25
924.1868	1915.2776	8593.6	7711.35
924.3257	1916.9034	8578.3	7697.15
924.4646	1918.5285	8548.45	7668.25
924.6034	1920.1528	8516.75	7634.95
924.7422	1921.7764	8502.15	7620.5
924.881	1923.3992	8466.85	7586.4
925.0198	1925.0213	8431.6	7549.1
925.1586	1926.6427	8384.05	7504.25
925.2973	1928.2633	8539.65	7449.7
925.436	1929.8832	8371.95	7485.1
925.5747	1931.5023	8325	7442.55
925.7134	1933.1207	8311.85	7430.25
925.852	1934.7383	8284.65	7403.4
925.9906	1936.3552	8281.05	7401.15
926.1292	1937.9714	8241.8	7359.2
926.2678	1939.5868	8223.35	7337.8
926.4064	1941.2015	8186.65	7304.95
926.5449	1942.8154	8170.95	7286
926.6834	1944.4286	8119.55	7239.1
926.8219	1946.041	8128.45	7220.5
926.9604	1947.6528	8069.85	7182.05
927.0988	1949.2637	8037.2	7155.85
927.2372	1950.8739	8004.05	7120.3
927.3756	1952.4834	7992.05	7108.7
927.514	1954.0921	7998.55	7115.15
927.6523	1955.7001	7970.25	7084.6
927.7907	1957.3074	7944.65	7062.8
927.929	1958.9139	7932.45	7052.1
928.0673	1960.5197	7911.65	7026.9
928.2055	1962.1247	7879.2	6997.65
928.3438	1963.729	7832.4	6952.15
928.482	1965.3325	7810.75	6908.4
928.6202	1966.9353	7795.7	6912.15
928.7584	1968.5374	7773.35	6891.5
928.8965	1970.1387	7748.1	6865.9
929.0346	1971.7393	7725.9	6844.6
929.1727	1973.3392	7706.3	6824.65
929.3108	1974.9383	7698.85	6817.85
929.4489	1976.5366	7625.65	6742.9
929.5869	1978.1342	7628.9	6747.3
929.7249	1979.7311	7622.25	6740.7
929.8629	1981.3273	7611.7	6731.5
930.0009	1982.9227	7553	6670.8
930.1388	1984.5173	7543.55	6664.85
930.2767	1986.1112	7544	6661.45
930.4146	1987.7044	7543.2	6662.85
930.5525	1989.2968	7509.6	6626.85
930.6904	1990.8885	7497.25	6612.95
930.8282	1992.4795	7470.3	6587.3
930.966	1994.0697	7435.4	6554
931.1038	1995.6592	7430.9	6551.3
931.2415	1997.2479	7402.75	6520.55
931.3793	1998.8359	7363.35	6481.7
931.517	2000.4232	7364.05	6484.1
931.6547	2002.0097	7331.9	6452.95
931.7923	2003.5955	7310.25	6428.65
931.93	2005.1805	7309.95	6428.2
932.0676	2006.7648	7297.2	6416.9
932.2052	2008.3484	7268.9	6388.2
932.3427	2009.9312	7278.85	6395.3
932.4803	2011.5133	7240.2	6359.25
932.6178	2013.0946	7212.45	6331.7
932.7553	2014.6752	7204.75	6324.95
932.8928	2016.2551	7197.05	6315.5
933.0302	2017.8342	7174.1	6293.8
933.1676	2019.4126	7139.45	6258.65
933.305	2020.9902	7117.05	6237.65
933.4424	2022.5672	7123.25	6241.4
933.5798	2024.1433	7116.9	6230.5
933.7171	2025.7188	7067.25	6185.95
933.8544	2027.2935	7060.95	6179.6
933.9917	2028.8674	7023.5	6144.35
934.129	2030.4406	7023.65	6144.65
934.2662	2032.0131	6980.85	6100.35
934.4034	2033.5849	6972.95	6088.95
934.5406	2035.1559	6956.3	6074.65
934.6778	2036.7261	6945	6064.05
934.8149	2038.2957	6941.55	6060.6
934.952	2039.8645	6917.45	6036.15
935.0891	2041.4325	6943.05	6060.3
935.2262	2042.9998	6915.55	6036.3
935.3632	2044.5664	6894.2	6012.55
935.5002	2046.1323	6875.25	5995.65
935.6372	2047.6974	6852.95	5972
935.7742	2049.2617	6834.35	5954.25
935.9111	2050.8254	6856.4	5956.3
936.048	2052.3883	6816.85	5936.5
936.1849	2053.9504	6826.75	5945.2
936.3218	2055.5118	6799.25	5919.1
936.4586	2057.0725	6765.25	5878.8
936.5955	2058.6325	6743.4	5863.05
936.7323	2060.1917	6734	5853.65
936.869	2061.7502	6732.4	5849.45
937.0058	2063.3079	6709.15	5829.7
937.1425	2064.8649	6692.95	5809.85
937.2792	2066.4212	6676.5	5793.95
937.4159	2067.9767	6661.75	5779.75
937.5525	2069.5315	6641.5	5762.3
937.6891	2071.0856	6604.05	5723.25
937.8257	2072.6389	6609.7	5729
937.9623	2074.1915	6576.55	5695.85
938.0989	2075.7433	6559.7	5679.05
938.2354	2077.2945	6556.2	5678
938.3719	2078.8448	6540.35	5661.8
938.5084	2080.3945	6508.75	5627.75
938.6448	2081.9434	6500.3	5619.15
938.7812	2083.4916	6491.75	5611.95
938.9176	2085.039	6471.5	5588.25
939.054	2086.5857	6476.1	5594.65
939.1903	2088.1317	6457.15	5575.05
939.3267	2089.677	6439.05	5557.2
939.463	2091.2215	6428.65	5547.25
939.5992	2092.7652	6436.55	5551.55
939.7355	2094.3083	6406.25	5528
939.8717	2095.8506	6403.95	5523.35
940.0079	2097.3921	6409.15	5530.3
940.1441	2098.933	6380	5499.05
940.2802	2100.4731	6378.3	5499
940.4163	2102.0124	6374.9	5476.55
940.5524	2103.5511	6336.7	5455.3
940.6885	2105.089	6333.05	5451.4
940.8245	2106.6261	6327.55	5446.85
940.9606	2108.1626	6324.75	5442.45
941.0965	2109.6983	6335.15	5426.9
941.2325	2111.2332	6287.45	5408.6
941.3684	2112.7675	6278.05	5394.35
941.5044	2114.301	6275.9	5393
941.6403	2115.8337	6252.15	5373.15
941.7761	2117.3657	6227.45	5347.05
941.912	2118.897	6227.5	5346.95
942.0478	2120.4276	6225.65	5338.1
942.1835	2121.9575	6197.1	5314.15
942.3193	2123.4866	6186.35	5302.35
942.455	2125.0149	6193.85	5308.1
942.5907	2126.5426	6167.2	5288.75
942.7264	2128.0695	6136.45	5250.35
942.8621	2129.5956	6108.5	5230.75
942.9977	2131.1211	6119.5	5233.1
943.1333	2132.6458	6103.35	5223.75
943.2689	2134.1698	6082.45	5202.25
943.4044	2135.693	6079.25	5194.7
943.54	2137.2155	6077.25	5196.35
943.6755	2138.7373	6068	5188.95
943.8109	2140.2584	6046.4	5166.7
943.9464	2141.7787	6018.65	5132.5
944.0818	2143.2983	6004.75	5125.55
944.2172	2144.8171	5978.45	5098.5
944.3526	2146.3353	5961.95	5080.65
944.4879	2147.8527	5945.6	5067.75
944.6232	2149.3693	5952.9	5072.3
944.7585	2150.8853	5923.2	5041.9
944.8938	2152.4005	5895.55	5014.95
945.029	2153.9149	5893.6	5013.4
945.1642	2155.4287	5887.5	5006.35
945.2994	2156.9417	5870.4	4989.65
945.4346	2158.454	5870.45	4986.8
945.5697	2159.9655	5845.85	4965.15
945.7048	2161.4764	5831.45	4950.1
945.8399	2162.9865	5813.75	4931.55
945.9749	2164.4958	5818.1	4938.4
946.1099	2166.0045	5798.3	4914.55
946.2449	2167.5124	5779.5	4899.4
946.3799	2169.0195	5769.7	4888.45
946.5148	2170.526	5768.5	4884.9
946.6498	2172.0317	5750.95	4870.3
946.7846	2173.5367	5738.4	4858.2
946.9195	2175.0409	5717.85	4838.45
947.0543	2176.5445	5723.75	4842.95
947.1891	2178.0473	5698.65	4816.45
947.3239	2179.5494	5675.8	4792.7
947.4587	2181.0507	5656.2	4775.4
947.5934	2182.5513	5625.95	4745.25
947.7281	2184.0512	5639.15	4759.65
947.8628	2185.5504	5613.3	4733.4
947.9974	2187.0488	5591.3	4711.15
948.132	2188.5465	5582.55	4701.8
948.2666	2190.0435	5558.4	4677.05
948.4012	2191.5397	5550.2	4671.7
948.5357	2193.0353	5527.35	4647.8
948.6702	2194.5301	5511.8	4629.6
948.8047	2196.0241	5503.35	4620.95
948.9392	2197.5175	5499.35	4620
949.0736	2199.0101	5476.7	4592.15
949.208	2200.502	5440.8	4560.4
949.3424	2201.9931	5421.05	4541.1
949.4767	2203.4835	5398.5	4515.95
949.611	2204.9733	5421.95	4536.35
949.7453	2206.4622	5400.7	4520.1
949.8796	2207.9505	5372.1	4491
950.0138	2209.438	5347.9	4468
950.148	2210.9248	5331.95	4451.25
950.2822	2212.4109	5311.1	4431.6
950.4164	2213.8962	5295.4	4410.6
950.5505	2215.3809	5287.5	4407.7
950.6846	2216.8648	5282.4	4399.45
950.8186	2218.3479	5261.15	4378.05
950.9527	2219.8304	5258.6	4374.85
951.0867	2221.3121	5247.6	4365.65
951.2207	2222.7931	5226.05	4345.55
951.3546	2224.2733	5204.75	4322.65
951.4886	2225.7529	5189.5	4307.25
951.6225	2227.2317	5170.85	4287.85
951.7563	2228.7098	5166.2	4285.55
951.8902	2230.1872	5134.35	4255.7
952.024	2231.6638	5146.8	4265.2
952.1578	2233.1397	5114.35	4229.5
952.2916	2234.6149	5098.6	4219.4
952.4253	2236.0894	5091.55	4211.35
952.559	2237.5632	5088.75	4205.75
952.6927	2239.0362	5064.8	4184.55
952.8263	2240.5085	5058.95	4176.5
952.9599	2241.9801	5049.75	4167.05
953.0935	2243.4509	5041.7	4161.05
953.2271	2244.921	5014.35	4135.55
953.3606	2246.3904	4997.25	4115.05
953.4941	2247.8591	4985.75	4103.85
953.6276	2249.3271	4966.8	4086.05
953.7611	2250.7943	4950.2	4068.7
953.8945	2252.2608	4927.7	4045.7
954.0279	2253.7266	4920.45	4039.55
954.1612	2255.1917	4912.1	4032.95
954.2946	2256.656	4889.25	4009.7
954.4279	2258.1197	4888.25	4008.9
954.5612	2259.5826	4873.65	3991.55
954.6944	2261.0447	4864.95	3983.2
954.8276	2262.5062	4848.3	3964.85
954.9608	2263.9669	4850.6	3968.15
955.094	2265.4269	4827.25	3947.7
955.2271	2266.8862	4825.55	3943.25
955.3602	2268.3448	4811.85	3930.95
955.4933	2269.8026	4799.15	3918.2
955.6264	2271.2598	4767.4	3887.2
955.7594	2272.7162	4777	3898.05
955.8924	2274.1719	4763.15	3883.1
956.0253	2275.6268	4733.3	3853.7
956.1583	2277.0811	4738.45	3857.6
956.2912	2278.5346	4724.95	3843.05
956.4241	2279.9874	4733.75	3852.6
956.5569	2281.4395	4712.4	3833.15
956.6897	2282.8908	4693.2	3806.5
956.8225	2284.3414	4685.5	3802.9
956.9553	2285.7914	4667.05	3787.65
957.088	2287.2406	4665.4	3783.45
957.2207	2288.689	4652.15	3771.5
957.3534	2290.1368	4639.85	3758.65
957.486	2291.5838	4627.95	3745.85
957.6186	2293.0302	4608.35	3727.9
957.7512	2294.4758	4609.7	3728.15
957.8838	2295.9206	4593.5	3710.05
958.0163	2297.3648	4580.3	3700.35
958.1488	2298.8082	4576.25	3694.05
958.2813	2300.251	4548.05	3667.85
958.4137	2301.693	4537.7	3654.05
958.5461	2303.1343	4535.45	3653.55
958.6785	2304.5748	4514.2	3634.6
958.8108	2306.0147	4486.6	3606
958.9432	2307.4538	4500.6	3616.85
959.0754	2308.8922	4488.7	3608.6
959.2077	2310.3299	4462.6	3581.6
959.3399	2311.7669	4448.35	3567.7
959.4721	2313.2031	4445.9	3565.95
959.6043	2314.6387	4436.4	3554.4
959.7365	2316.0735	4400.7	3521.8
959.8686	2317.5076	4408.95	3527.9
960.0006	2318.941	4412.8	3532.05
960.1327	2320.3737	4388.6	3507.45
960.2647	2321.8056	4385.5	3502.15
960.3967	2323.2369	4370.6	3491.05
960.5287	2324.6674	4369.65	3485.8
960.6606	2326.0972	4349.05	3467.3
960.7925	2327.5263	4334.65	3456.55
960.9244	2328.9547	4342.2	3461.2
961.0562	2330.3823	4303.1	3422.6
961.1881	2331.8092	4302.05	3416.45
961.3198	2333.2355	4289.95	3407.25
961.4516	2334.661	4299.6	3418.95
961.5833	2336.0858	4271.1	3388.3
961.715	2337.5098	4271.25	3390.1
961.8467	2338.9332	4254.45	3372.7
961.9783	2340.3558	4241.35	3355.55
962.1099	2341.7778	4241.85	3362.3
962.2415	2343.199	4220.2	3337.7
962.373	2344.6195	4214.3	3333.5
962.5045	2346.0393	4202.6	3322.5
962.636	2347.4583	4217.6	3334.75
962.7675	2348.8767	4177.15	3296.4
962.8989	2350.2943	4166.05	3283.7
963.0303	2351.7113	4153.4	3270.15
963.1617	2353.1275	4141.35	3259.9
963.293	2354.543	4149.3	3260.65
963.4243	2355.9578	4146.1	3264.7
963.5556	2357.3718	4104.15	3223.4
963.6868	2358.7852	4096.15	3211.15
963.818	2360.1978	4083.45	3201.65
963.9492	2361.6098	4064.3	3183.15
964.0803	2363.021	4063.5	3179.15
964.2114	2364.4315	4049.45	3168.25
964.3425	2365.8413	4055.95	3169.25
964.4736	2367.2504	4034.95	3153
964.6046	2368.6587	4000.1	3118.55
964.7356	2370.0664	3997.55	3115.1
964.8666	2371.4733	4001.55	3121.15
964.9975	2372.8795	3989.9	3109.4
965.1284	2374.285	3975	3092.3
965.2593	2375.6899	3948	3068.3
965.3901	2377.0939	3952.15	3070
965.5209	2378.4973	3936.35	3054.95
965.6517	2379.9	3929.65	3047.75
965.7825	2381.3019	3905.2	3023
965.9132	2382.7032	3900.85	3019.65
966.0439	2384.1037	3900.65	3020.95
966.1745	2385.5035	3879.7	3000.3
966.3051	2386.9027	3881.5	3000.75
966.4357	2388.3011	3867.4	2983.65
966.5663	2389.6987	3836.95	2954.05
966.6968	2391.0957	3836.15	2956
966.8273	2392.492	3819.65	2938.15
966.9578	2393.8876	3793.35	2910.85
967.0882	2395.2824	3787	2905.05
967.2186	2396.6765	3785.45	2904.2
967.349	2398.07	3765.85	2885.7
967.4793	2399.4627	3760.3	2878.35
967.6097	2400.8547	3751.9	2870.55
967.7399	2402.246	3740.9	2852.8
967.8702	2403.6366	3721.8	2838.95
968.0004	2405.0265	3723.75	2842.6
968.1306	2406.4156	3706.85	2822.2
968.2607	2407.8041	3703.8	2818.85
968.3909	2409.1918	3675.35	2792.15
968.521	2410.5789	3651.5	2770.3
968.651	2411.9652	3665.35	2778.4
968.781	2413.3508	3642.35	2761.65
968.911	2414.7358	3618.65	2735.1
969.041	2416.12	3614.25	2732.3
969.1709	2417.5035	3616.05	2733.7
969.3008	2418.8863	3597.1	2713.35
969.4307	2420.2684	3577.45	2695.1
969.5606	2421.6497	3573.25	2690.65
969.6904	2423.0304	3546.45	2664.85
969.8201	2424.4104	3559.7	2675.5
969.9499	2425.7896	3550.05	2666.35
970.0796	2427.1682	3534.1	2651.45
970.2093	2428.546	3521.8	2639.25
970.3389	2429.9232	3519.6	2636
970.4685	2431.2996	3500.05	2619.5
970.5981	2432.6753	3501.2	2620
970.7277	2434.0503	3492.1	2611.1
970.8572	2435.4246	3468.2	2586.2
970.9867	2436.7982	3473.8	2589.35
971.1161	2438.1711	3463.85	2583
971.2456	2439.5433	3463.1	2578.65
971.375	2440.9148	3458.05	2570.4
971.5043	2442.2856	3431.65	2548.9
971.6336	2443.6557	3429.45	2547
971.7629	2445.025	3403.05	2522
971.8922	2446.3937	3395.65	2511.25
972.0214	2447.7617	3406	2523.7
972.1506	2449.1289	3389.7	2508.35
972.2798	2450.4955	3398.15	2513.75
972.4089	2451.8613	3368.95	2488.3
972.538	2453.2265	3371.4	2488.85
972.6671	2454.5909	3355.1	2471.3
972.7961	2455.9546	3363.35	2481.4
972.9251	2457.3177	3343	2461.8
973.0541	2458.68	3338.3	2453.95
973.1831	2460.0416	3327.55	2446.65
973.312	2461.4025	3328.3	2446.15
973.4408	2462.7627	3327.3	2435.2
973.5697	2464.1222	3313.55	2435.35
973.6985	2465.4811	3300.85	2418.65
973.8273	2466.8392	3291.9	2410.2
973.956	2468.1966	3288.1	2404.7
974.0847	2469.5533	3281.25	2397.1
974.2134	2470.9093	3264.2	2381.7
974.3421	2472.2645	3251.25	2370.25
974.4707	2473.6191	3248.9	2366.75
974.5993	2474.973	3233.6	2353.2
974.7278	2476.3262	3234.3	2350.8
974.8563	2477.6787	3221.05	2340.7
974.9848	2479.0305	3206.95	2326.4
975.1132	2480.3816	3194.4	2311.75
975.2417	2481.7319	3188.65	2307.65
975.37	2483.0816	3186.85	2302.8
975.4984	2484.4306	3185	2303.9
975.6267	2485.7789	3170.2	2290.15
975.755	2487.1264	3152.25	2269.05
975.8833	2488.4733	3143.2	2261.3
976.0115	2489.8195	3140.35	2252.4
976.1397	2491.165	3127.2	2245.15
976.2678	2492.5097	3122.3	2237.85
976.3959	2493.8538	3106.9	2226.7
976.524	2495.1972	3094.7	2213
976.6521	2496.5398	3085.1	2204.15
976.7801	2497.8818	3080.25	2196.5
976.9081	2499.2231	3081.3	2200.95
977.036	2500.5637	3061.8	2177.45
977.164	2501.9035	3060.15	2178.55
977.2918	2503.2427	3052.8	2167.3
977.4197	2504.5812	3034.4	2152.5
977.5475	2505.919	3032.8	2150.4
977.6753	2507.256	3027.4	2146.55
977.8031	2508.5924	3018.9	2137.85
977.9308	2509.9281	3015.05	2128.9
978.0585	2511.2631	3005.45	2123.45
978.1861	2512.5974	2996.8	2115.7
978.3137	2513.9309	2982.95	2102.1
978.4413	2515.2638	2999.2	2089.7
978.5689	2516.596	2979.55	2099.45
978.6964	2517.9275	2951.4	2068.75
978.8239	2519.2583	2957.65	2076.25
978.9513	2520.5884	2942.85	2060.45
979.0788	2521.9178	2949.5	2069.45
979.2062	2523.2465	2920.45	2040
979.3335	2524.5745	2917.75	2037.3
979.4608	2525.9018	2908.5	2028.15
979.5881	2527.2284	2905.9	2025.9
979.7154	2528.5543	2894.25	2012
979.8426	2529.8796	2894.7	2013.45
979.9698	2531.2041	2889.3	2007.65
980.0969	2532.5279	2886.1	2009.8
980.224	2533.851	2871.9	1990.4
980.3511	2535.1735	2867.6	1988.05
980.4781	2536.4952	2847.4	1967.05
980.6052	2537.8163	2852.6	1972.35
980.7321	2539.1366	2837.35	1955.95
980.8591	2540.4562	2832.15	1949.6
980.986	2541.7752	2841.85	1958.6
981.1129	2543.0935	2821.6	1940.55
981.2397	2544.411	2819.7	1937.35
981.3665	2545.7279	2821.3	1940.75
981.4933	2547.0441	2821.15	1943
981.62	2548.3596	2826.7	1943.15
981.7467	2549.6744	2800.45	1921.5
981.8734	2550.9885	2797.6	1907.45
982.0001	2552.3019	2787.15	1907.3
982.1267	2553.6146	2789.45	1906.75
982.2532	2554.9266	2780.35	1897.65
982.3798	2556.2379	2769.8	1887.75
982.5063	2557.5485	2759.2	1878.3
982.6327	2558.8585	2774.65	1885.85
982.7592	2560.1677	2755.1	1870.35
982.8856	2561.4762	2750.35	1869.05
983.0119	2562.7841	2748.9	1862.7
983.1383	2564.0913	2742.45	1863.2
983.2646	2565.3977	2740.4	1859.1
983.3908	2566.7035	2723.85	1844.45
983.517	2568.0086	2726.9	1843.6
983.6432	2569.313	2727	1844.85
983.7694	2570.6167	2723.6	1840.7
983.8955	2571.9197	2706.55	1826.1
984.0216	2573.222	2710.8	1826.4
984.1476	2574.5236	2700.35	1817.55
984.2737	2575.8246	2690.65	1806.65
984.3996	2577.1248	2696.45	1812.2
984.5256	2578.4244	2685.6	1804.1
984.6515	2579.7232	2681.3	1801.15
984.7774	2581.0214	2716.5	1811.25
984.9032	2582.3189	2675.65	1795.8
985.029	2583.6157	2672.75	1786.25
985.1548	2584.9118	2662.55	1780.55
985.2806	2586.2072	2652.4	1772.8
985.4063	2587.5019	2654.2	1774.45
985.5319	2588.7959	2640.1	1757.7
985.6576	2590.0893	2633.4	1750.7
985.7832	2591.3819	2632.6	1751.95
985.9087	2592.6739	2630.9	1752.9
986.0343	2593.9652	2612.65	1727.6
986.1597	2595.2557	2613.45	1731.75
986.2852	2596.5456	2595.55	1711.55
986.4106	2597.8348	2598.35	1717.3
986.536	2599.1234	2587.05	1708.45
986.6614	2600.4112	2578.7	1696.45
986.7867	2601.6983	2578.8	1695.4
986.912	2602.9848	2563.15	1683.15
987.0372	2604.2705	2565.85	1676.35
987.1624	2605.5556	2564.8	1684.5
987.2876	2606.84	2559.4	1676.9
987.4128	2608.1237	2536.75	1654.2
987.5379	2609.4067	2531.1	1650.2
987.6629	2610.689	2521.6	1631.65
987.788	2611.9707	2515.9	1631.6
987.913	2613.2516	2506.55	1621.45
988.0379	2614.5319	2496.9	1616.2
988.1629	2615.8115	2488	1606.3
988.2878	2617.0903	2485.7	1603.3
988.4126	2618.3685	2473.05	1590.75
988.5375	2619.6461	2467.25	1586.05
988.6622	2620.9229	2462.65	1581.75
988.787	2622.199	2462.7	1580.6
988.9117	2623.4745	2458.7	1576.2
989.0364	2624.7493	2447.6	1566.25
989.161	2626.0234	2430.4	1551.1
989.2857	2627.2968	2429.3	1548.3
989.4102	2628.5695	2421.15	1539.6
989.5348	2629.8415	2414.1	1531.95
989.6593	2631.1128	2410.2	1524.05
989.7837	2632.3835	2400.65	1520
989.9082	2633.6535	2395.5	1513.7
990.0326	2634.9228	2402.95	1522.1
990.1569	2636.1914	2378.15	1497.1
990.2812	2637.4593	2382.95	1495.8
990.4055	2638.7265	2362.85	1482.05
990.5298	2639.9931	2370	1490.4
990.654	2641.259	2370.15	1486.85
990.7782	2642.5242	2361.8	1480.5
990.9023	2643.7887	2349.35	1467.9
991.0264	2645.0525	2340.15	1459
991.1505	2646.3156	2332.9	1449.1
991.2745	2647.5781	2338.2	1458.25
991.3985	2648.8398	2330.55	1449.85
991.5225	2650.1009	2353.6	1436.15
991.6464	2651.3613	2326.8	1444.35
991.7703	2652.6211	2312.25	1430.6
991.8942	2653.8801	2316	1436.9
992.018	2655.1385	2303.8	1419
992.1418	2656.3961	2298.1	1416.4
992.2655	2657.6531	2295.15	1414.6
992.3892	2658.9094	2295.2	1412.45
992.5129	2660.1651	2278.25	1398.75
992.6366	2661.42	2273.4	1391.45
992.7602	2662.6743	2270.65	1388.6
992.8837	2663.9279	2270.8	1391.2
993.0073	2665.1808	2262.2	1379.55
993.1307	2666.433	2273.7	1389.85
993.2542	2667.6846	2252.2	1370.8
993.3776	2668.9354	2256.65	1372.05
993.501	2670.1856	2247.9	1366.3
993.6244	2671.4351	2240.3	1359.25
993.7477	2672.6839	2235.2	1351.7
993.8709	2673.9321	2228.4	1347.7
993.9942	2675.1795	2228.55	1348.5
994.1174	2676.4263	2227	1345.9
994.2405	2677.6724	2213.8	1335.5
994.3637	2678.9179	2202.7	1319.4
994.4868	2680.1626	2208.65	1327.6
994.6098	2681.4067	2199.35	1318.4
994.7328	2682.6501	2191.75	1309.5
994.8558	2683.8928	2184.2	1304.05
994.9788	2685.1348	2194.75	1315.25
995.1017	2686.3761	2171.5	1292.05
995.2245	2687.6168	2176.95	1293.85
995.3474	2688.8568	2170.25	1290.2
995.4702	2690.0961	2165.35	1284.9
995.5929	2691.3348	2143.45	1262.85
995.7156	2692.5727	2151.15	1268.9
995.8383	2693.81	2143.75	1262.15
995.961	2695.0466	2144.85	1261.3
996.0836	2696.2826	2143.95	1262.45
996.2062	2697.5178	2152.25	1252
996.3287	2698.7524	2136.2	1255.1
996.4512	2699.9863	2137.05	1254.2
996.5737	2701.2195	2130.8	1251.3
996.6961	2702.452	2125.3	1242.45
996.8185	2703.6839	2110.65	1229.1
996.9408	2704.9151	2109.45	1229.45
997.0631	2706.1456	2103.65	1222.7
997.1854	2707.3755	2091	1211.45
997.3077	2708.6046	2095.55	1210.4
997.4299	2709.8331	2089.85	1207.75
997.552	2711.0609	2073.45	1193.8
997.6742	2712.2881	2076	1195.6
997.7963	2713.5145	2078.05	1192.95
997.9183	2714.7403	2069.15	1189
998.0403	2715.9654	2066.35	1184.15
998.1623	2717.1899	2069.3	1172.85
998.2842	2718.4136	2058.2	1178.15
998.4062	2719.6367	2040.4	1158.75
998.528	2720.8591	2056.85	1168.3
998.6498	2722.0809	2034.7	1152.85
998.7716	2723.3019	2043.9	1157.1
998.8934	2724.5223	2032.45	1151.1
999.0151	2725.7421	2023.15	1140.7
999.1368	2726.9611	2034.45	1149.6
999.2584	2728.1795	2007.85	1122.6
999.38	2729.3972	2016.25	1135.55
999.5016	2730.6142	2012	1122.1
999.6231	2731.8306	1993.85	1113.4
999.7446	2733.0462	1989.3	1106
999.8661	2734.2612	1987.9	1101.9
999.9875	2735.4756	1973.55	1091.9
1000.1089	2736.6892	1973.2	1089.3
1000.2302	2737.9022	1967	1088.7
1000.3515	2739.1145	1959.8	1076.6
1000.4728	2740.3262	1961.05	1074.25
1000.594	2741.5372	1948.35	1067.8
1000.7152	2742.7475	1941.45	1060.2
1000.8363	2743.9571	1950.65	1068.85
1000.9575	2745.1661	1945.25	1060.2
1001.0785	2746.3744	1945.05	1064
1001.1996	2747.582	1929.55	1047.6
1001.3206	2748.7889	1928.75	1044.4
1001.4415	2749.9952	1920.55	1040
1001.5625	2751.2008	1914.65	1031.35
1001.6833	2752.4057	1912.65	1028.5
1001.8042	2753.61	1913.55	1030.95
1001.925	2754.8136	1901.1	1016.75
1002.0458	2756.0165	1901.45	1021.45
1002.1665	2757.2188	1898.7	1020.05
1002.2872	2758.4204	1889.15	1006.65
1002.4078	2759.6213	1889.85	1008.3
1002.5285	2760.8215	1888.7	1004.85
1002.649	2762.0211	1884.05	1001.7
1002.7696	2763.22	1870.9	985.5
1002.8901	2764.4182	1868.55	987.35
1003.0106	2765.6158	1868.15	986.4
1003.131	2766.8127	1863.95	982.35
1003.2514	2768.009	1852.65	971.15
1003.3717	2769.2045	1855.25	974.25
1003.492	2770.3994	1860.35	976.9
1003.6123	2771.5936	1851.45	969.75
1003.7325	2772.7872	1846.85	969.4
1003.8527	2773.9801	1830.35	947.1
1003.9729	2775.1723	1847.7	951.95
1004.093	2776.3639	1824.5	944.5
1004.2131	2777.5548	1821.95	939
1004.3331	2778.745	1811.75	929.35
1004.4531	2779.9346	1825.05	942.9
1004.5731	2781.1235	1823.4	942.4
1004.693	2782.3117	1812.85	932.5
1004.8129	2783.4992	1806	926.45
1004.9328	2784.6861	1794.2	913.25
1005.0526	2785.8723	1806	924.45
1005.1723	2787.0579	1793.85	911.8
1005.2921	2788.2428	1781.85	902.2
1005.4118	2789.427	1790.45	909.95
1005.5314	2790.6106	1784.05	901.4
1005.651	2791.7935	1786.2	903.1
1005.7706	2792.9757	1774.45	894.35
1005.8902	2794.1573	1775.6	891.85
1006.0097	2795.3382	1766.35	886.9
1006.1291	2796.5184	1764.1	883.2
1006.2485	2797.698	1758.45	875.75
1006.3679	2798.8769	1756.05	875.35
1006.4873	2800.0551	1751.9	870.25
1006.6066	2801.2327	1756.8	875.15
1006.7258	2802.4096	1737.95	858.65
1006.8451	2803.5859	1738.1	855.35
1006.9642	2804.7615	1734.55	852.95
1007.0834	2805.9364	1731.95	852.6
1007.2025	2807.1106	1732.25	852
1007.3216	2808.2842	1736.65	854.6
1007.4406	2809.4572	1726	842.3
1007.5596	2810.6294	1721.65	840.05
1007.6785	2811.801	1717.2	836.45
1007.7975	2812.972	1717.1	837.9
1007.9163	2814.1423	1713.3	833.6
1008.0352	2815.3119	1709.5	829.2
1008.154	2816.4808	1714.1	836.05
1008.2727	2817.6491	1714.4	832.9
1008.3914	2818.8167	1716.15	836.4
1008.5101	2819.9837	1724.3	839.7
1008.6288	2821.15	1719.65	839.3
1008.7474	2822.3157	1713.55	833.35
1008.8659	2823.4807	1716.55	834.95
1008.9844	2824.645	1725.9	844.2
1009.1029	2825.8086	1728.05	847.3
1009.2214	2826.9716	1722.15	843.5
1009.3398	2828.134	1743.8	862.05
1009.4581	2829.2957	1746.25	866.8
1009.5764	2830.4567	1740	860.8
1009.6947	2831.617	1743.25	861.4
1009.813	2832.7767	1742	862.05
1009.9312	2833.9358	1735.4	855.75
1010.0493	2835.0941	1734.55	851.75
1010.1675	2836.2519	1738.75	857.35
1010.2855	2837.4089	1728.1	847.7
1010.4036	2838.5653	1723.1	842.7
1010.5216	2839.7211	1716.4	834.6
1010.6396	2840.8761	1717.5	836.2
1010.7575	2842.0306	1706.65	825.1
1010.8754	2843.1843	1709.85	829.35
1010.9932	2844.3374	1706.2	826.2
1011.111	2845.4899	1699.15	817.7
1011.2288	2846.6417	1702.75	823.55
1011.3465	2847.7928	1701.6	820.35
1011.4642	2848.9433	1704.9	825.9
1011.5818	2850.0931	1701.8	820.3
1011.6995	2851.2422	1699.15	818.6
1011.817	2852.3907	1696.8	817
1011.9345	2853.5385	1689.1	807.85
1012.052	2854.6857	1695.7	805.05
1012.1695	2855.8323	1693.9	813.15
1012.2869	2856.9781	1683.25	804.3
1012.4042	2858.1233	1689.5	808.9
1012.5216	2859.2679	1690.75	810.15
1012.6389	2860.4118	1688.05	806.7
1012.7561	2861.555	1695.65	811.6
1012.8733	2862.6976	1683.75	801.3
1012.9905	2863.8395	1685.5	804.95
1013.1076	2864.9808	1685.2	802.8
1013.2247	2866.1214	1685.95	806.85
1013.3417	2867.2614	1681.15	801.75
1013.4587	2868.4007	1679.55	798.65
1013.5757	2869.5393	1677.9	795.45
1013.6926	2870.6773	1684.3	798.2
1013.8095	2871.8146	1683.65	800.85
1013.9263	2872.9513	1683.15	800.95
1014.0431	2874.0874	1673.9	792.65
1014.1599	2875.2227	1671.2	787.95
1014.2766	2876.3574	1667.5	785.25
1014.3933	2877.4915	1665.6	784.45
1014.51	2878.6249	1671.95	793.55
1014.6266	2879.7577	1662.85	780.6
1014.7431	2880.8898	1673.1	783.05
1014.8596	2882.0212	1673.15	793.55
1014.9761	2883.152	1668.05	787.7
1015.0925	2884.2821	1670.15	792.15
1015.2089	2885.4116	1662.15	780.8
1015.3253	2886.5405	1663.25	782.65
1015.4416	2887.6686	1664.25	782.7
1015.5579	2888.7962	1653.45	772.05
1015.6741	2889.923	1647.8	770.7
1015.7903	2891.0493	1654.55	774.7
1015.9065	2892.1748	1642.05	763.8
1016.0226	2893.2997	1635.65	755.4
1016.1387	2894.424	1634.15	755.95
1016.2547	2895.5476	1625.1	745.05
1016.3707	2896.6706	1624.2	744.5
1016.4866	2897.7929	1628.2	747.85
1016.6025	2898.9145	1625.95	745.7
1016.7184	2900.0355	1628.45	747.35
1016.8342	2901.1559	1613.6	733.9
1016.95	2902.2756	1614.85	735.25
1017.0658	2903.3946	1616.1	735.65
1017.1815	2904.513	1610.9	726.3
1017.2971	2905.6308	1601.8	722.65
1017.4127	2906.7479	1607.35	727.35
1017.5283	2907.8643	1604.4	724.15
1017.6439	2908.9801	1596.3	716.25
1017.7594	2910.0953	1594.45	714.65
1017.8748	2911.2098	1595.8	712.5
1017.9902	2912.3236	1594.7	705.55
1018.1056	2913.4368	1585.4	703.5
1018.2209	2914.5494	1582.4	701.15
1018.3362	2915.6613	1588.35	702.3
1018.4515	2916.7725	1581.35	699.05
1018.5667	2917.8831	1570.45	689.3
1018.6819	2918.9931	1579.75	697.2
1018.797	2920.1024	1563.8	683.35
1018.9121	2921.211	1560.1	680.85
1019.0271	2922.319	1558.1	677.4
1019.1421	2923.4264	1550.2	670.5
1019.2571	2924.5331	1547.2	668.6
1019.372	2925.6391	1548.65	668.9
1019.4869	2926.7445	1547.3	667.35
1019.6017	2927.8493	1553.15	673
1019.7165	2928.9534	1534.85	654.75
1019.8313	2930.0569	1541.45	657.9
1019.946	2931.1597	1540.65	659.5
1020.0606	2932.2619	1534.25	652.5
1020.1753	2933.3634	1534.5	653.75
1020.2899	2934.4643	1539.55	650.55
1020.4044	2935.5645	1544.95	660.05
1020.5189	2936.6641	1546.6	661.85
1020.6334	2937.763	1535.3	658.1
1020.7478	2938.8613	1534.45	653.1
1020.8622	2939.959	1532.55	646.35
1020.9765	2941.056	1521.45	643.55
1021.0908	2942.1523	1514.2	633.15
1021.2051	2943.248	1509.35	629.75
1021.3193	2944.3431	1495.35	616
1021.4334	2945.4375	1490.4	609.1
1021.5476	2946.5313	1479.5	600.25
1021.6617	2947.6244	1474.65	594.2
1021.7757	2948.7169	1461.1	579.9
1021.8897	2949.8087	1452.6	571.55
1022.0037	2950.8999	1447.85	568.15
1022.1176	2951.9904	1435.65	555.1
1022.2315	2953.0803	1436.7	556.4
1022.3453	2954.1696	1421.7	543
1022.4591	2955.2582	1425.95	544.55
1022.5728	2956.3462	1418.7	538.15
1022.6865	2957.4335	1415.6	535.25
1022.8002	2958.5202	1408.35	525.3
1022.9138	2959.6062	1412	531.75
1023.0274	2960.6916	1415.85	536.9
1023.141	2961.7764	1405.4	524.85
1023.2545	2962.8605	1400.85	520.4
1023.3679	2963.9439	1397.7	517.4
1023.4813	2965.0267	1390.95	512
1023.5947	2966.1089	1415.95	512.25
1023.708	2967.1905	1394.7	515.7
1023.8213	2968.2714	1387.35	510
1023.9346	2969.3516	1388.9	507.95
1024.0478	2970.4312	1391.95	505.55
1024.1609	2971.5102	1380.45	500.25
1024.274	2972.5885	1379	498
1024.3871	2973.6662	1384.35	500.9
1024.5002	2974.7432	1376.05	495.5
1024.6132	2975.8196	1377.8	498.05
1024.7261	2976.8954	1370	490
1024.839	2977.9705	1371.8	491.9
1024.9519	2979.045	1364.8	485.1
1025.0647	2980.1188	1364.2	483.4
1025.1775	2981.192	1355.95	477.45
1025.2902	2982.2645	1356.05	475.3
1025.4029	2983.3364	1354.25	474.5
1025.5156	2984.4077	1350.85	470.9
1025.6282	2985.4783	1356.15	469.7
1025.7407	2986.5483	1342.65	462.55
1025.8532	2987.6177	1340.75	462.55
1025.9657	2988.6864	1336.1	456.5
1026.0782	2989.7545	1332.75	452.35
1026.1906	2990.8219	1323.95	445.85
1026.3029	2991.8887	1329.65	446.05
1026.4152	2992.9548	1322.35	441.6
1026.5275	2994.0204	1319.35	439.05
1026.6397	2995.0852	1317.15	436.9
1026.7519	2996.1495	1314.45	434.8
1026.864	2997.2131	1303.35	422.8
1026.9761	2998.276	1307.15	427.95
1027.0882	2999.3383	1306.9	425.35
1027.2002	3000.4	1300.65	418.7
1027.3122	3001.4611	1293.4	414.05
1027.4241	3002.5215	1290.05	407.55
1027.536	3003.5812	1290.95	410.7
1027.6478	3004.6404	1284.25	405.65
1027.7596	3005.6989	1282.2	399.1
1027.8714	3006.7567	1269.85	386.5
1027.9831	3007.8139	1298.7	395.9
1028.0947	3008.8705	1273.95	392
1028.2064	3009.9264	1276.55	393.15
1028.3179	3010.9818	1269.75	390
1028.4295	3012.0364	1273.2	393.15
1028.541	3013.0905	1275.1	395.35
1028.6524	3014.1439	1260.8	380
1028.7638	3015.1966	1265.55	387.4
1028.8752	3016.2487	1264.85	386.2
1028.9865	3017.3002	1263.7	378.6
1029.0978	3018.3511	1259.6	381.95
1029.209	3019.4013	1256.55	377.8
1029.3202	3020.4509	1256.25	377.75
1029.4314	3021.4998	1258.25	378.45
1029.5425	3022.5481	1250.7	371.3
1029.6535	3023.5958	1248.65	368.9
1029.7645	3024.6428	1242.05	360.35
1029.8755	3025.6892	1240.5	362.4
1029.9864	3026.735	1243.3	362.05
1030.0973	3027.7802	1259.3	378.9
1030.2082	3028.8247	1240.35	361.1
1030.319	3029.8685	1242.2	363
1030.4297	3030.9118	1237.8	356.9
1030.5404	3031.9544	1231.2	351.8
1030.6511	3032.9963	1233.8	353.25
1030.7617	3034.0376	1228.65	350.4
1030.8723	3035.0783	1237.25	354.15
1030.9829	3036.1184	1225.3	343.65
1031.0934	3037.1578	1229	348.95
1031.2038	3038.1966	1231.2	349.15
1031.3142	3039.2348	1223.85	344.05
1031.4246	3040.2723	1232.25	344.1
1031.5349	3041.3092	1227.05	348.1
1031.6452	3042.3455	1225.05	343
1031.7554	3043.3811	1220.35	339.7
1031.8656	3044.4161	1219.2	338.05
1031.9758	3045.4505	1213.6	335.95
1032.0859	3046.4842	1215.75	333.9
1032.1959	3047.5173	1212.2	331.9
1032.3059	3048.5498	1218.15	337.75
1032.4159	3049.5816	1212.6	330.85
1032.5258	3050.6128	1214.25	332.85
1032.6357	3051.6434	1207.45	326.65
1032.7455	3052.6734	1210.4	330.65
1032.8553	3053.7027	1207.4	327
1032.9651	3054.7314	1199.95	319.6
1033.0748	3055.7594	1206.45	327.05
1033.1845	3056.7868	1208.7	327.15
1033.2941	3057.8136	1202.3	323.9
1033.4037	3058.8398	1200.95	322.75
1033.5132	3059.8653	1197.1	317.65
1033.6227	3060.8902	1200.75	321.35
1033.7321	3061.9145	1199.35	319.45
1033.8415	3062.9381	1202.85	321.4
1033.9509	3063.9612	1210.05	314.6
1034.0602	3064.9835	1192.4	312.95
1034.1694	3066.0053	1194.75	312.8
1034.2787	3067.0264	1189.1	308.65
1034.3878	3068.0469	1195.35	314.8
1034.497	3069.0668	1192.6	312.1
1034.6061	3070.086	1190.3	311.1
1034.7151	3071.1046	1186	307.35
1034.8241	3072.1226	1189.9	310.6
1034.9331	3073.1399	1183.35	304.3
1035.042	3074.1567	1190.1	308.8
1035.1508	3075.1727	1186.2	304.7
1035.2597	3076.1882	1181.3	300.65
1035.3684	3077.203	1181.45	300.45
1035.4772	3078.2173	1184.2	304.15
1035.5859	3079.2308	1182.65	300.7
1035.6945	3080.2438	1175.75	293.7
1035.8031	3081.2561	1174.45	293.35
1035.9117	3082.2678	1171.35	292.9
1036.0202	3083.2789	1166.85	288.95
1036.1286	3084.2893	1165.4	286.2
1036.2371	3085.2991	1168.75	286.45
1036.3454	3086.3083	1173.5	289.8
1036.4538	3087.3169	1165.3	281.7
1036.562	3088.3248	1160.4	278.05
1036.6703	3089.3321	1159.05	278.4
1036.7785	3090.3388	1154.85	278.15
1036.8866	3091.3449	1158.05	278.3
1036.9948	3092.3503	1160.3	278.05
1037.1028	3093.3551	1150.1	271
1037.2108	3094.3593	1160.7	282.9
1037.3188	3095.3629	1152.6	275
1037.4267	3096.3658	1148.5	266
1037.5346	3097.3681	1148.1	268.8
1037.6425	3098.3698	1151	268.2
1037.7503	3099.3708	1154.35	265.85
1037.858	3100.3713	1144.1	265.45
1037.9657	3101.3711	1146.35	266.55
1038.0734	3102.3702	1272.6	256.95
1038.181	3103.3688	1144.1	262.35
1038.2886	3104.3667	1140.1	260.8
1038.3961	3105.364	1134.5	254.1
1038.5036	3106.3607	1135.95	254.45
1038.611	3107.3568	1137	256.6
1038.7184	3108.3522	1129.45	249.45
1038.8257	3109.347	1135.95	256.45
1038.933	3110.3412	1133.35	250.6
1039.0403	3111.3348	1130.55	250.55
1039.1475	3112.3277	1124.8	244.9
1039.2547	3113.32	1131.3	252
1039.3618	3114.3117	1126.45	244.4
1039.4689	3115.3028	1118.4	238.15
1039.5759	3116.2932	1121.85	239.25
1039.6829	3117.2831	1129.7	243.95
1039.7898	3118.2723	1116.25	237.45
1039.8967	3119.2608	1117.8	238.95
1040.0035	3120.2488	1119.1	237.65
1040.1103	3121.2361	1114.5	234.7
1040.2171	3122.2229	1116.35	237.3
1040.3238	3123.209	1110.9	231.1
1040.4305	3124.1944	1107.35	226.85
1040.5371	3125.1793	1111.7	228.8
1040.6437	3126.1635	1103.1	224.1
1040.7502	3127.1471	1110.4	229.7
1040.8567	3128.1301	1103.35	223.25
1040.9631	3129.1125	1099.7	219.5
1041.0695	3130.0942	1104.35	225.8
1041.1759	3131.0753	1109.65	220.05
1041.2822	3132.0558	1101.45	219.85
1041.3884	3133.0357	1102.15	222.55
1041.4946	3134.015	1098.65	217.25
1041.6008	3134.9936	1099.3	217.45
1041.7069	3135.9716	1113.2	212.55
1041.813	3136.949	1097.15	217.1
1041.919	3137.9258	1099.5	212.45
1042.025	3138.902	1096.55	211.2
1042.1309	3139.8775	1094.1	214.35
1042.2368	3140.8524	1091.5	211.4
1042.3427	3141.8267	1096.15	213.8
1042.4485	3142.8004	1087.3	207.5
1042.5542	3143.7735	1096.25	208.85
1042.6599	3144.7459	1090.95	208.75
1042.7656	3145.7178	1091.95	212.05
1042.8712	3146.689	1087.6	208.45
1042.9768	3147.6596	1091	207.85
1043.0823	3148.6295	1084.6	206.3
1043.1878	3149.5989	1082.95	203.45
1043.2932	3150.5676	1082.85	203.9
1043.3986	3151.5357	1080.35	201.2
1043.5039	3152.5032	1080.15	202.65
1043.6092	3153.4701	1079.75	202.25
1043.7145	3154.4364	1080.7	199.95
1043.8197	3155.402	1077.2	199.65
1043.9248	3156.367	1082.7	200.95
1044.03	3157.3315	1113.3	194.5
1044.135	3158.2952	1071.5	192.7
1044.24	3159.2584	1070.8	187.85
1044.345	3160.221	1070.8	191.15
1044.4499	3161.1829	1071.2	189.8
1044.5548	3162.1442	1067.6	188.4
1044.6596	3163.105	1066.15	187.35
1044.7644	3164.065	1065.8	185.15
1044.8692	3165.0245	1068.5	185.65
1044.9739	3165.9834	1064.1	185.8
1045.0785	3166.9416	1064.75	185
1045.1831	3167.8993	1067	187.6
1045.2877	3168.8563	1063.85	183.45
1045.3922	3169.8127	1060.7	180.95
1045.4966	3170.7684	1059.45	180.5
1045.6011	3171.7236	1058.05	178.05
1045.7054	3172.6782	1060.5	179.25
1045.8098	3173.6321	1058.05	176.3
1045.914	3174.5854	1058.45	174.65
1046.0183	3175.5381	1053.8	173.05
1046.1224	3176.4902	1053	172.2
1046.2266	3177.4417	1054.85	175.45
1046.3307	3178.3926	1051.25	172.7
1046.4347	3179.3428	1049.4	171.25
1046.5387	3180.2924	1046.5	168.35
1046.6427	3181.2415	1050.15	169.85
1046.7466	3182.1899	1045.9	164.6
1046.8504	3183.1377	1047.3	167.2
1046.9542	3184.0848	1049.5	168.35
1047.058	3185.0314	1044.7	164.05
1047.1617	3185.9773	1046	164.15
1047.2654	3186.9227	1041.8	162.25
1047.369	3187.8674	1046.05	165.25
1047.4726	3188.8115	1047	162.35
1047.5761	3189.755	1042.05	162.85
1047.6796	3190.6979	1042.15	163.95
1047.783	3191.6402	1039.55	161.35
1047.8864	3192.5818	1037.9	157.1
1047.9898	3193.5229	1043.9	159.05
1048.0931	3194.4633	1037.85	157.3
1048.1963	3195.4031	1039.95	160.55
1048.2995	3196.3423	1035.05	157.1
1048.4027	3197.2809	1036.6	157.85
1048.5058	3198.2189	1033.1	151.5
1048.6089	3199.1563	1041.15	152.75
1048.7119	3200.0931	1031.25	151.9
1048.8148	3201.0292	1028.8	148.95
1048.9178	3201.9648	1029.45	149.8
1049.0206	3202.8997	1034.6	152.1
1049.1235	3203.834	1029.2	149.1
1049.2262	3204.7677	1031.3	150.6
1049.329	3205.7008	1031.35	149.85
1049.4317	3206.6333	1026.15	147.45
1049.5343	3207.5652	1029.8	149.1
1049.6369	3208.4964	1029.3	148.6
1049.7394	3209.4271	1025.6	146.25
1049.8419	3210.3571	1026.85	146.75
1049.9444	3211.2865	1022.45	142.25
1050.0468	3212.2154	1025.3	143.95
1050.1491	3213.1436	1023.75	142.35
1050.2514	3214.0712	1026.75	141.05
1050.3537	3214.9982	1020	142.85
1050.4559	3215.9246	1020.55	139.2
1050.5581	3216.8503	1019.7	140
1050.6602	3217.7755	1020.3	140.5
1050.7623	3218.7001	1017.95	139.5
1050.8643	3219.624	1017.85	137.65
1050.9663	3220.5473	1014.25	133.5
1051.0682	3221.4701	1017.15	138.55
1051.1701	3222.3922	1018.9	137.2
1051.2719	3223.3137	1012.75	132.7
1051.3737	3224.2346	1013	131.45
1051.4754	3225.1549	1010.9	131.35
1051.5771	3226.0746	1013.35	132.8
1051.6788	3226.9937	1008.65	129.5
1051.7804	3227.9121	1012.05	134.75
1051.8819	3228.83	1007.25	126.75
1051.9834	3229.7473	1013.45	132.65
1052.0849	3230.6639	1008.7	129.4
1052.1863	3231.5799	1008	128.45
1052.2876	3232.4954	1008.35	127.85
1052.3889	3233.4102	1007.85	129.9
1052.4902	3234.3244	1003.4	123.25
1052.5914	3235.238	1003.75	123.85
1052.6926	3236.151	1022.9	121.25
1052.7937	3237.0634	999.85	120.2
1052.8948	3237.9752	1002.4	122.55
1052.9958	3238.8864	1000.85	121.8
1053.0968	3239.797	1000.95	121.55
1053.1977	3240.7069	1002.2	121.25
1053.2986	3241.6163	1000.1	118.25
1053.3994	3242.5251	997.95	119.35
1053.5002	3243.4332	996.9	117.75
1053.6009	3244.3408	995.2	116.85
1053.7016	3245.2477	998.9	118.8
1053.8022	3246.154	995.25	113.3
1053.9028	3247.0598	995.35	114.95
1054.0034	3247.9649	991.75	113.05
1054.1039	3248.8694	993.45	111.65
1054.2043	3249.7733	994	115.4
1054.3047	3250.6766	994.3	113.55
1054.4051	3251.5793	993.2	113.1
1054.5054	3252.4814	990.05	109.6
1054.6056	3253.3829	993.8	113.85
1054.7058	3254.2838	986.85	109.3
1054.806	3255.1841	989.55	109.7
1054.9061	3256.0838	987.95	107.1
1055.0061	3256.9829	989.3	111.2
1055.1062	3257.8814	988.3	106.9
1055.2061	3258.7792	987.2	106.15
1055.306	3259.6765	984.9	102.8
1055.4059	3260.5731	980.15	101.85
1055.5057	3261.4692	984.2	100.9
1055.6055	3262.3647	981.05	100.8
1055.7052	3263.2595	982.5	103.65
1055.8049	3264.1538	977.35	99.65
1055.9045	3265.0474	978.95	96.5
1056.0041	3265.9404	977.15	98.6
1056.1036	3266.8329	969.15	89.35
1056.2031	3267.7247	983.1	92.6
1056.3025	3268.616	970.15	92
1056.4019	3269.5066	968.85	87.65
1056.5013	3270.3966	964.2	83
1056.6005	3271.286	963.35	84.5
