Software Version:	3.9.2.0
Unit SN:	10000200
Spectrometer SN:	6960
Date:	3/6/2024 10:05:38 AM
Data Line Index:	25
Spectral Points:	2048
Integration time (ms):	125
Averages:	20
Delay (ms):	30
Sequence Number:	1
Processing:	dark subtract
Laser Power (mW):	305
Laser Current (mA):	825
Laser Diode Temp (C):	25
Laser Case Temp (C):	24.8
System Temp (C):	24.6
Spectrometer Temp (C):	22.2
CCD Temp (C):	-0.003
Secondary Temp (C):	20.01
Heatsink Temp (C):	18.545
CCDPCB Temp (C):	30.982
SecondaryPCB Temp (C):	26.314

Wavelength	RamanShift	Raw Counts	Dark Subtracted
787.061	30.1047	687.3	278.5
787.2016	32.3739	694.2	286.35
787.3422	34.6426	709.15	302.55
787.4828	36.9109	734.45	325.3
787.6235	39.1787	755	341.65
787.7642	41.4461	778.1	361.2
787.9049	43.7131	809.05	388.35
788.0456	45.9796	830.7	407.5
788.1863	48.2456	859.95	432.2
788.3271	50.5112	894.3	462.35
788.4679	52.7764	916.5	481.45
788.6087	55.0411	944.65	505.7
788.7496	57.3054	982.7	539.1
788.8904	59.5692	1017.7	572.75
789.0313	61.8326	1060.05	613.6
789.1722	64.0955	1098.55	647.75
789.3132	66.3579	1159.95	704.75
789.4541	68.6199	1226.6	768.1
789.5951	70.8815	1337.9	876.7
789.7361	73.1426	1581	1114.3
789.8771	75.4032	2203.15	1732.15
790.0181	77.6634	3767.4	3292.3
790.1592	79.9231	7700.55	7218.8
790.3003	82.1824	17404.3	16913.25
790.4414	84.4412	37449.55	36939.55
790.5825	86.6995	54807.75	54275.1
790.7237	88.9574	61040.95	60492.4
790.8648	91.2148	64045.25	63486.5
791.006	93.4717	64589.55	64018
791.1472	95.7282	64861.4	64282.7
791.2885	97.9842	65014.75	64435.2
791.4297	100.2398	64979.9	64398.3
791.571	102.4949	65009	64427.95
791.7123	104.7495	65013.55	64427.35
791.8536	107.0036	64967.95	64381.05
791.9949	109.2573	65086.6	64502.35
792.1363	111.5105	65032.7	64441.55
792.2777	113.7632	65027.3	64437.05
792.4191	116.0154	65095.5	64492.5
792.5605	118.2672	65171.45	64575.55
792.7019	120.5185	65188.75	64591.1
792.8434	122.7693	65210.9	64610.1
792.9849	125.0197	65085.1	64478.2
793.1264	127.2696	65287.8	64679.75
793.2679	129.519	65232.45	64615.95
793.4094	131.7679	65313.35	64700.9
793.551	134.0163	65162.2	64542.35
793.6926	136.2642	65233.3	64612.95
793.8342	138.5117	65332.6	64709.25
793.9758	140.7587	65309.95	64686.75
794.1175	143.0052	65296.65	64667.8
794.2591	145.2512	65210.65	64582.65
794.4008	147.4967	65324	64692.2
794.5425	149.7417	65309.25	64679.8
794.6842	151.9863	65297.65	64662.05
794.826	154.2304	65264.2	64622.8
794.9677	156.4739	65285.75	64635.6
795.1095	158.717	65346.1	64698.75
795.2513	160.9596	65314.4	64665.2
795.3931	163.2017	65253.9	64601.8
795.535	165.4433	65337.3	64680
795.6768	167.6844	65298.9	64641.25
795.8187	169.925	65328.9	64668.9
795.9606	172.1651	65290.9	64630.3
796.1025	174.4047	65340.6	64673.8
796.2445	176.6439	65316.9	64649.65
796.3864	178.8825	65293.25	64622.05
796.5284	181.1206	65358.2	64680.9
796.6704	183.3582	65347.75	64663.45
796.8124	185.5954	65340.1	64659.35
796.9544	187.832	65332.45	64647.95
797.0965	190.0681	65289.6	64603.25
797.2386	192.3037	65363.2	64668.45
797.3806	194.5388	65429.25	64736.3
797.5228	196.7734	65247.05	64550.4
797.6649	199.0075	65423.65	64728.65
797.807	201.2411	65366.25	64668.5
797.9492	203.4742	65441.6	64744.05
798.0914	205.7068	65417	64712.25
798.2336	207.9389	65414	64703.65
798.3758	210.1704	65405.05	64705.85
798.518	212.4015	65459.05	64768.85
798.6603	214.632	65407.7	64722.6
798.8025	216.862	65480	64797.3
798.9448	219.0915	65417.8	64732.8
799.0871	221.3205	65422.05	64733.2
799.2294	223.549	65486.75	64804.55
799.3718	225.777	65471.05	64786.5
799.5141	228.0044	65510.55	64820.4
799.6565	230.2314	65481.6	64783.55
799.7989	232.4578	65487.05	64788.9
799.9413	234.6837	65492	64788.3
800.0837	236.909	65535	64830.5
800.2262	239.1339	65449.9	64717.15
800.3687	241.3582	65519.15	64802.45
800.5111	243.582	65519	64771.8
800.6536	245.8053	65493.9	64762.2
800.7961	248.0281	65515.4	64785.65
800.9387	250.2503	65522.9	64789.15
801.0812	252.472	65490	64753.5
801.2238	254.6932	65523.15	64790.1
801.3664	256.9139	65510.65	64776.35
801.509	259.134	65535	64797.6
801.6516	261.3536	65506.75	64767.6
801.7942	263.5727	65522.15	64782.5
801.9369	265.7912	65516.2	64775.85
802.0795	268.0092	65523.6	64785.45
802.2222	270.2267	65526.75	64787.2
802.3649	272.4436	65509.75	64769.9
802.5076	274.6601	65529.15	64776.2
802.6504	276.8759	65533.6	64784.8
802.7931	279.0913	65523.1	64771.7
802.9359	281.3061	65533.95	64782.05
803.0787	283.5204	65530.8	64778.95
803.2215	285.7341	65530.7	64771.05
803.3643	287.9473	65535	64765.1
803.5071	290.16	65530.55	64768.3
803.6499	292.3721	65531.7	64780.1
803.7928	294.5837	65529.05	64773.65
803.9357	296.7947	65520.45	64763.95
804.0786	299.0052	65535	64778.55
804.2215	301.2152	65532.6	64770.5
804.3644	303.4246	65535	64779.3
804.5074	305.6334	65535	64776.9
804.6503	307.8418	65528.9	64770.6
804.7933	310.0495	65525	64761.35
804.9363	312.2568	65527.05	64760.85
805.0793	314.4635	65526.55	64763.9
805.2223	316.6696	65535	64767
805.3653	318.8752	65535	64758
805.5084	321.0802	65512.6	64739.75
805.6514	323.2847	65527.7	64754.9
805.7945	325.4887	65522.95	64749.2
805.9376	327.692	65521	64745.4
806.0807	329.8949	65526.75	64751.3
806.2238	332.0972	65521.85	64745
806.367	334.2989	65528.95	64747.15
806.5101	336.5001	65534.9	64752.6
806.6533	338.7007	65506.75	64727.2
806.7965	340.9008	65526.6	64746.5
806.9397	343.1003	65531.15	64748.35
807.0829	345.2992	65535	64751.35
807.2261	347.4976	65524.25	64739.05
807.3693	349.6955	65531.2	64741.55
807.5126	351.8927	65520.2	64726.25
807.6559	354.0895	65528.4	64728
807.7991	356.2856	65528	64734.95
807.9424	358.4812	65535	64741.55
808.0857	360.6763	65520.2	64723.35
808.2291	362.8707	65535	64735.5
808.3724	365.0646	65527.5	64728.5
808.5158	367.258	65526.95	64726.35
808.6591	369.4508	65505.4	64702.35
808.8025	371.643	65534.6	64730.6
808.9459	373.8346	65523.25	64717.8
809.0893	376.0257	65528.25	64715.3
809.2327	378.2162	65525.8	64716.9
809.3762	380.4062	65501.25	64688.4
809.5196	382.5956	65528.7	64720.4
809.6631	384.7844	65522.6	64718.55
809.8066	386.9726	65528.65	64725.65
809.9501	389.1603	65522.85	64720.95
810.0936	391.3474	65518.25	64675.9
810.2371	393.5339	65524.7	64724.85
810.3806	395.7199	65490.3	64692.35
810.5241	397.9052	65504.95	64706.8
810.6677	400.09	65519.45	64718.55
810.8113	402.2743	65533.9	64730.2
810.9548	404.4579	65502.6	64701.05
811.0984	406.641	65516.3	64709.05
811.2421	408.8235	65520.9	64716.6
811.3857	411.0054	65525.3	64716.2
811.5293	413.1868	65527.35	64716.05
811.673	415.3675	65518.3	64702.7
811.8166	417.5477	65519	64702.55
811.9603	419.7273	65521.6	64699.85
812.104	421.9064	65521.55	64696.15
812.2477	424.0848	65520.3	64699.25
812.3914	426.2627	65533.8	64711.25
812.5351	428.4399	65519.95	64700.4
812.6788	430.6166	65468.35	64640.8
812.8226	432.7928	65524.05	64697.25
812.9663	434.9683	65499.1	64671.5
813.1101	437.1432	65491.2	64662.3
813.2539	439.3176	65521.25	64696.4
813.3977	441.4914	65451.7	64626.7
813.5415	443.6645	65472	64650.45
813.6853	445.8371	65487.8	64662.95
813.8291	448.0091	65456.25	64629.1
813.973	450.1806	65431.15	64603.65
814.1168	452.3514	65455.3	64624.6
814.2607	454.5216	65420.35	64584.9
814.4046	456.6913	65471.25	64639.95
814.5485	458.8603	65482	64653.4
814.6924	461.0288	65414.05	64588.85
814.8363	463.1967	65468.3	64644.5
814.9802	465.3639	65458.45	64631
815.1241	467.5306	65373.1	64540.2
815.2681	469.6967	65429.55	64601.95
815.412	471.8622	65467	64640.95
815.556	474.0271	65421.35	64592.55
815.7	476.1914	65431.1	64598.95
815.844	478.3551	65427.8	64596.85
815.988	480.5182	65496.4	64663.45
816.132	482.6807	65412.75	64582.65
816.276	484.8426	65406.45	64581.7
816.4201	487.0039	65472.95	64644.15
816.5641	489.1647	65468.95	64636.45
816.7082	491.3248	65392.65	64556.85
816.8522	493.4843	65481.35	64647.4
816.9963	495.6432	65490.05	64654.3
817.1404	497.8015	65407.45	64568.7
817.2845	499.9592	65449.6	64608.1
817.4286	502.1163	65446	64603.2
817.5727	504.2728	65432.8	64593.35
817.7168	506.4287	65421.95	64587.2
817.861	508.5839	65396.9	64565
818.0051	510.7386	65432.5	64593.05
818.1493	512.8927	65435.3	64590.55
818.2935	515.0461	65424.8	64580.6
818.4377	517.199	65458.1	64613.05
818.5818	519.3512	65410.75	64563.55
818.726	521.5029	65425.65	64577.9
818.8703	523.6539	65429.4	64583.7
819.0145	525.8043	65376.55	64529.65
819.1587	527.9541	65427.4	64577.6
819.303	530.1033	65426.65	64578.75
819.4472	532.2519	65394	64544.1
819.5915	534.3999	65435.8	64584.8
819.7357	536.5472	65445.35	64595.7
819.88	538.694	65361.95	64516.3
820.0243	540.8401	65403.65	64556.95
820.1686	542.9856	65416.75	64563.3
820.3129	545.1305	65447.65	64589.25
820.4572	547.2748	65395.15	64537.9
820.6016	549.4185	65392.6	64529.8
820.7459	551.5615	65446.95	64587.9
820.8902	553.704	65426.85	64572.8
821.0346	555.8458	65395	64540.2
821.1789	557.987	65411	64556.6
821.3233	560.1276	65413.7	64556.45
821.4677	562.2675	65401.9	64547.6
821.6121	564.4069	65408.8	64551.85
821.7565	566.5456	65432.15	64577.95
821.9009	568.6837	65369.55	64515.5
822.0453	570.8212	65404.9	64551
822.1897	572.958	65338.95	64482.15
822.3342	575.0942	65407.2	64555.1
822.4786	577.2299	65356.95	64503.3
822.6231	579.3648	65348	64498.65
822.7675	581.4992	65337.65	64492.5
822.912	583.6329	65326	64481.55
823.0565	585.766	65320	64471.7
823.201	587.8985	65339.05	64490.3
823.3454	590.0304	65253.9	64377.25
823.4899	592.1616	65337.9	64478.1
823.6345	594.2922	65309.5	64446.7
823.779	596.4222	65250	64387.55
823.9235	598.5515	65277.4	64414.6
824.068	600.6802	65326.25	64462.25
824.2126	602.8083	65240.25	64380.5
824.3571	604.9358	65223.35	64359.55
824.5017	607.0626	65308.55	64445.55
824.6462	609.1888	65175.35	64305.85
824.7908	611.3144	65273.15	64404.8
824.9354	613.4393	65234.95	64367.95
825.08	615.5636	65129.55	64262.2
825.2246	617.6873	65232.85	64365.15
825.3692	619.8103	65112.95	64242.5
825.5138	621.9327	65255.2	64387.15
825.6584	624.0544	65263.45	64398.35
825.803	626.1756	65191.65	64325.55
825.9477	628.2961	65179.75	64313.75
826.0923	630.4159	65143.5	64275.3
826.237	632.5351	65105.15	64234.2
826.3816	634.6537	65279.7	64409.2
826.5263	636.7716	65085.45	64211.1
826.6709	638.8889	65132.85	64259.5
826.8156	641.0056	65128.4	64252.5
826.9603	643.1216	65162.35	64288.55
827.105	645.237	65208.05	64333.55
827.2497	647.3518	65096.05	64223.5
827.3944	649.4659	65129.15	64263.85
827.5391	651.5793	65136.35	64266.55
827.6838	653.6922	65158.5	64291.05
827.8285	655.8043	64988.15	64118.5
827.9733	657.9159	65206.5	64335.05
828.118	660.0268	64856.15	63985.7
828.2627	662.137	65087.8	64212.65
828.4075	664.2466	65113.55	64236.25
828.5522	666.3556	65021.85	64147.75
828.697	668.4639	65103.05	64225.85
828.8418	670.5716	64993.7	64121.3
828.9865	672.6786	65079.45	64205.3
829.1313	674.785	64936.25	64054.55
829.2761	676.8907	64956.7	64078.7
829.4209	678.9958	65025.9	64152.55
829.5657	681.1002	65038.8	64164.7
829.7105	683.204	64904.4	64023.2
829.8553	685.3072	64831.8	63949.4
830.0001	687.4097	64919.2	64040.5
830.1449	689.5115	64858.85	63978.3
830.2898	691.6127	64998	64121.55
830.4346	693.7132	64875.55	63996.25
830.5794	695.8131	64883	63981.4
830.7243	697.9123	64940	64057.55
830.8691	700.0109	64937.6	64056.6
831.014	702.1089	64788.35	63914
831.1588	704.2061	64832.2	63951.15
831.3037	706.3028	64833.65	63952.7
831.4486	708.3987	64859.7	63978.1
831.5935	710.4941	64787.2	63905.4
831.7383	712.5887	64871.55	63988.75
831.8832	714.6827	64766.7	63882.15
832.0281	716.7761	64863.85	63982.15
832.173	718.8688	64864.5	63983.95
832.3179	720.9608	64757.7	63869.55
832.4628	723.0522	64764.55	63878.3
832.6077	725.1429	64661.2	63774.9
832.7527	727.233	64980.2	64095
832.8976	729.3224	64501.7	63616.3
833.0425	731.4112	64713.3	63828.5
833.1874	733.4993	64706.45	63820.65
833.3324	735.5867	64724.95	63840.45
833.4773	737.6735	64619.35	63733.35
833.6222	739.7596	64515.25	63628.3
833.7672	741.845	64504.85	63618.85
833.9122	743.9298	64676.4	63787.95
834.0571	746.014	64486.7	63601.85
834.2021	748.0974	64361.5	63473.1
834.347	750.1802	64629.1	63739.3
834.492	752.2624	64295.25	63405.15
834.637	754.3439	64349.05	63457.15
834.782	756.4247	64426.2	63528.3
834.9269	758.5048	64291.35	63401.8
835.0719	760.5843	64321.55	63431.7
835.2169	762.6631	64345.15	63456.65
835.3619	764.7413	64260.45	63372.9
835.5069	766.8188	64234.4	63343.45
835.6519	768.8956	64327.6	63433.1
835.7969	770.9718	64287.2	63399.4
835.9419	773.0473	64248.3	63358.75
836.0869	775.1221	64078.85	63187.55
836.232	777.1962	64087.15	63196.55
836.377	779.2697	63906.7	63013.15
836.522	781.3426	64032.45	63124.65
836.667	783.4147	64097.4	63205.5
836.8121	785.4862	64003	63113.35
836.9571	787.557	63824.45	62932.4
837.1021	789.6271	64066.9	63174.6
837.2472	791.6966	63910.3	63016.25
837.3922	793.7654	63742.9	62849.25
837.5373	795.8335	63779.55	62889.55
837.6823	797.901	63816.75	62925.25
837.8274	799.9678	63723.4	62828.25
837.9724	802.0339	63662.4	62769.55
838.1175	804.0993	63674.1	62769.75
838.2626	806.1641	63618	62723.9
838.4076	808.2282	63558.9	62664
838.5527	810.2916	63532.1	62633.65
838.6978	812.3544	63647	62755.4
838.8428	814.4164	63394.55	62501.4
838.9879	816.4778	63475.75	62580
839.133	818.5385	63454.25	62558.35
839.2781	820.5986	63436.75	62545.35
839.4232	822.658	63469.15	62571.75
839.5682	824.7166	63483.5	62589.4
839.7133	826.7747	63290.15	62393.7
839.8584	828.832	63344.7	62449.8
840.0035	830.8886	63452.4	62555.05
840.1486	832.9446	63453.6	62556.85
840.2937	834.9999	63086.7	62192.15
840.4388	837.0545	63263.45	62364.35
840.5839	839.1085	63347.5	62451.85
840.729	841.1618	63262.75	62361.4
840.8741	843.2143	63004.25	62108.5
841.0192	845.2662	62985.3	62090.05
841.1643	847.3175	63085.15	62188.3
841.3095	849.368	62775.1	61877.95
841.4546	851.4179	63055.75	62158.15
841.5997	853.467	62817.05	61917.35
841.7448	855.5155	62931.3	62033.65
841.8899	857.5633	62790.5	61889.4
842.0351	859.6105	62645.95	61748.65
842.1802	861.6569	62766	61868.15
842.3253	863.7027	62505.65	61605.4
842.4704	865.7478	62662.55	61763.8
842.6156	867.7922	62598.5	61698.35
842.7607	869.8359	62704.95	61806.1
842.9058	871.8789	62378.75	61481.7
843.0509	873.9212	62554.35	61627.1
843.1961	875.9629	62524.7	61625.2
843.3412	878.0039	62477.5	61575.7
843.4863	880.0441	62393.3	61492.45
843.6315	882.0837	62376.95	61479
843.7766	884.1226	62377.4	61477.7
843.9218	886.1609	62392.75	61495.55
844.0669	888.1984	62282	61382.4
844.212	890.2352	62501.9	61600.9
844.3572	892.2714	62192.6	61287.75
844.5023	894.3069	62322.25	61420.15
844.6475	896.3416	62209.5	61308.9
844.7926	898.3757	62174.5	61272.7
844.9377	900.4091	61892	60988.4
845.0829	902.4418	62231.75	61324.2
845.228	904.4739	61984.75	61082.45
845.3732	906.5052	62022.95	61116.35
845.5183	908.5358	61934.75	61036.55
845.6635	910.5658	61860.1	60955.45
845.8086	912.595	61878	60974.55
845.9538	914.6236	61595.6	60694.05
846.0989	916.6515	61978.15	61076.95
846.2441	918.6786	61499.65	60595.4
846.3892	920.7051	61600.1	60694.7
846.5344	922.7309	61556.15	60653.6
846.6795	924.756	61583	60680.7
846.8246	926.7804	61467.35	60563.2
846.9698	928.8041	61203.85	60299.55
847.1149	930.8272	61392.5	60490.55
847.2601	932.8495	61374.6	60470.45
847.4052	934.8711	61189.4	60283.35
847.5504	936.892	61089.6	60186.35
847.6955	938.9123	61132.25	60230.45
847.8407	940.9318	61022.65	60120.3
847.9858	942.9506	60971.6	60067.6
848.131	944.9688	60979	60076.5
848.2761	946.9862	60697.4	59793.95
848.4213	949.003	60764.85	59860.75
848.5664	951.019	60542.2	59638
848.7115	953.0344	60575.5	59671.5
848.8567	955.0491	60528.4	59623.2
849.0018	957.063	60605.35	59700.6
849.147	959.0763	60578.65	59676.7
849.2921	961.0888	60437.85	59532.45
849.4373	963.1007	60528.55	59625.05
849.5824	965.1119	60481.05	59580.75
849.7275	967.1223	60396.45	59500.95
849.8727	969.1321	60496.5	59600.8
850.0178	971.1412	60312.75	59412.45
850.1629	973.1495	60202.3	59300
850.3081	975.1572	60259.45	59314.35
850.4532	977.1641	60222.6	59318.65
850.5983	979.1704	60130.1	59225.55
850.7435	981.1759	60114.5	59205.15
850.8886	983.1808	60044.25	59137.1
851.0337	985.1849	60012.1	59097.4
851.1788	987.1884	59952.3	59043.75
851.324	989.1911	60044.55	59135.7
851.4691	991.1932	59826.65	58921.05
851.6142	993.1945	59782.8	58878.65
851.7593	995.1951	59763.1	58856.8
851.9045	997.1951	59718.25	58811.8
852.0496	999.1943	59600.7	58699.25
852.1947	1001.1928	59541.25	58635.2
852.3398	1003.1906	59490.4	58585.45
852.4849	1005.1877	59380.8	58473.3
852.63	1007.1841	59295.25	58390.05
852.7751	1009.1798	59244.75	58339.8
852.9202	1011.1748	59213.25	58306.4
853.0653	1013.1691	59150.7	58245
853.2104	1015.1627	58924	58019.1
853.3555	1017.1556	58905.6	58003.4
853.5006	1019.1477	58922.05	58017.3
853.6457	1021.1392	58730.4	57830.25
853.7908	1023.1299	58551.85	57652.6
853.9359	1025.12	58558.75	57657.4
854.081	1027.1093	58469.95	57576.05
854.2261	1029.0979	58464.55	57574.25
854.3712	1031.0859	58390.95	57495.8
854.5163	1033.0731	58212.8	57313.15
854.6613	1035.0596	58245.1	57343.6
854.8064	1037.0454	58104.7	57201
854.9515	1039.0304	58023.65	57116.55
855.0965	1041.0148	57807.55	56901.85
855.2416	1042.9985	57818.35	56913.05
855.3867	1044.9814	57934.1	57029.8
855.5317	1046.9636	57658.65	56750.75
855.6768	1048.9452	57642.1	56739.65
855.8219	1050.926	57573.7	56669.95
855.9669	1052.9061	57564.45	56663.2
856.112	1054.8855	57535.45	56633.6
856.257	1056.8642	57398.6	56494.75
856.4021	1058.8421	57291.8	56380.55
856.5471	1060.8194	57315.55	56407.45
856.6921	1062.7959	57163.25	56257.85
856.8372	1064.7717	57272.85	56367.35
856.9822	1066.7469	57193.95	56287.8
857.1272	1068.7213	57176.15	56270.1
857.2723	1070.695	57074.3	56169.1
857.4173	1072.6679	56950.2	56042.45
857.5623	1074.6402	56991.55	56085.65
857.7073	1076.6117	56868.1	55957.25
857.8523	1078.5826	56845.1	55940.2
857.9973	1080.5527	56845.15	55935.45
858.1423	1082.5221	56665.05	55758.6
858.2873	1084.4908	56666.6	55760.4
858.4323	1086.4587	56537.7	55631.5
858.5773	1088.426	56499.25	55591.5
858.7223	1090.3925	56471.5	55561.95
858.8673	1092.3584	56441.75	55538.15
859.0123	1094.3235	56225.1	55321.6
859.1573	1096.2879	56203.8	55295.95
859.3022	1098.2515	56262.4	55357.35
859.4472	1100.2145	56163.5	55259.5
859.5922	1102.1767	56097.6	55190.95
859.7371	1104.1382	56151.9	55247.3
859.8821	1106.099	56103.5	55195.25
860.027	1108.0591	55981.7	55075.25
860.172	1110.0185	55732.7	54826.6
860.3169	1111.9771	55979.8	55075.55
860.4619	1113.9351	55821.7	54919.1
860.6068	1115.8923	55708.35	54800.7
860.7517	1117.8488	55536.45	54631.85
860.8967	1119.8045	55360.45	54455.7
861.0416	1121.7596	55452.75	54547.15
861.1865	1123.7139	55296.45	54391.85
861.3314	1125.6675	55287.5	54383.2
861.4763	1127.6204	55238.35	54334.85
861.6212	1129.5726	55018.7	54111.85
861.7661	1131.524	55113.1	54207.75
861.911	1133.4748	55102.25	54195.95
862.0559	1135.4248	54868.55	53962.8
862.2008	1137.3741	54856.95	53951.6
862.3457	1139.3226	54799.75	53890.25
862.4905	1141.2705	54745.7	53838.9
862.6354	1143.2176	54697.9	53785.6
862.7803	1145.164	54448.9	53540.95
862.9251	1147.1097	54533.15	53628.2
863.07	1149.0546	54526.25	53616.55
863.2148	1150.9989	54518.65	53611.8
863.3597	1152.9424	54296.15	53389.3
863.5045	1154.8852	54437.9	53532.85
863.6493	1156.8272	54220.5	53314.75
863.7942	1158.7686	54404.65	53489.75
863.939	1160.7092	54075	53167.75
864.0838	1162.6491	54057.45	53149.55
864.2286	1164.5883	54070.25	53165.55
864.3734	1166.5267	53920	53012.9
864.5182	1168.4644	54020.45	53114.55
864.663	1170.4014	53932.65	53024
864.8078	1172.3377	54046.3	53143.7
864.9526	1174.2732	54098.75	53196.6
865.0974	1176.2081	54017	53111.5
865.2421	1178.1421	53929.65	53023.5
865.3869	1180.0755	54066.4	53158.45
865.5317	1182.0082	53960.4	53055.5
865.6764	1183.9401	54010.2	53105.15
865.8212	1185.8713	53784.05	52881.7
865.9659	1187.8017	53731.1	52831.15
866.1106	1189.7315	53677.55	52780.25
866.2554	1191.6605	53537.4	52610.15
866.4001	1193.5888	53352.95	52453.35
866.5448	1195.5163	53209.6	52306.3
866.6895	1197.4432	53161.85	52255.55
866.8342	1199.3693	53093.2	52189.7
866.9789	1201.2947	52960.8	52048.3
867.1236	1203.2193	52956.05	52051.4
867.2683	1205.1432	52752.05	51847.45
867.413	1207.0664	52722.2	51819.55
867.5576	1208.9889	52667.45	51760.2
867.7023	1210.9106	52593.65	51689.4
867.847	1212.8316	52464.8	51560.85
867.9916	1214.7519	52432.9	51517.15
868.1363	1216.6715	52346.5	51441.85
868.2809	1218.5903	52343.4	51438.45
868.4255	1220.5084	52245.2	51339.25
868.5701	1222.4257	52256.6	51353.85
868.7148	1224.3424	52138.75	51235
868.8594	1226.2583	51981.3	51072.25
869.004	1228.1735	52061.85	51157.55
869.1486	1230.0879	51852.4	50949.5
869.2932	1232.0016	51933.75	51027.45
869.4377	1233.9146	51740.9	50835.65
869.5823	1235.8269	51755.05	50850.95
869.7269	1237.7384	51705.9	50803.55
869.8715	1239.6492	51554.8	50652
870.016	1241.5592	51388.2	50483.25
870.1606	1243.4686	51466.25	50562.55
870.3051	1245.3772	51269.1	50366.55
870.4496	1247.285	51379.75	50474.85
870.5941	1249.1922	51146.9	50241.55
870.7387	1251.0986	51262.2	50356.15
870.8832	1253.0042	51090.25	50184.15
871.0277	1254.9092	51139.85	50238.7
871.1722	1256.8134	50821.65	49918.45
871.3167	1258.7169	51108.95	50203.5
871.4611	1260.6196	50847.75	49945.95
871.6056	1262.5216	50902.45	49997.55
871.7501	1264.4229	50918.1	50014.75
871.8945	1266.3234	51035.3	50130.5
872.039	1268.2232	50935.35	50030.05
872.1834	1270.1223	50764.55	49856.8
872.3278	1272.0207	50744.9	49838.8
872.4723	1273.9183	50704.75	49794.1
872.6167	1275.8151	50657.2	49753.9
872.7611	1277.7113	50578.2	49676.6
872.9055	1279.6067	50401.25	49501.1
873.0499	1281.5014	50371.85	49466.35
873.1943	1283.3953	50553.4	49647.65
873.3386	1285.2885	50499.9	49597.85
873.483	1287.181	50557.85	49654.05
873.6274	1289.0727	50638.1	49736.15
873.7717	1290.9637	50302.35	49398.8
873.9161	1292.854	50659.45	49755.95
874.0604	1294.7435	50476.05	49571
874.2047	1296.6323	50466.9	49563.55
874.349	1298.5204	50330.2	49423.85
874.4933	1300.4077	50437.25	49531.65
874.6376	1302.2943	50171.85	49267
874.7819	1304.1802	50039.45	49136.9
874.9262	1306.0653	49863.4	48958.45
875.0705	1307.9497	49728.85	48822.6
875.2147	1309.8333	49713.1	48806.8
875.359	1311.7162	49572.45	48668.5
875.5032	1313.5984	49573.9	48667.6
875.6475	1315.4798	49329.5	48423.55
875.7917	1317.3605	49341	48422.35
875.9359	1319.2405	49319.6	48411.85
876.0801	1321.1197	48924	48018.5
876.2243	1322.9982	48974.85	48066.2
876.3685	1324.876	48900.25	47998.8
876.5127	1326.753	48661.55	47755.3
876.6569	1328.6293	48900.9	47993.25
876.801	1330.5048	48713.25	47803.8
876.9452	1332.3796	48480	47576.2
877.0893	1334.2537	48433.05	47504.05
877.2335	1336.127	48495.25	47590.5
877.3776	1337.9996	48270.5	47367.6
877.5217	1339.8714	48397.3	47491.2
877.6658	1341.7426	48042.3	47093.35
877.8099	1343.6129	48174.3	47271.75
877.954	1345.4826	48147.05	47241.85
878.0981	1347.3515	47905.05	46997.15
878.2422	1349.2196	48042.65	47137.6
878.3862	1351.087	47969.4	47062.95
878.5303	1352.9537	47936.65	47030.1
878.6743	1354.8197	47965.8	47061.4
878.8184	1356.6849	47966.2	47060.2
878.9624	1358.5493	47907.25	47002.55
879.1064	1360.4131	47744.35	46841.1
879.2504	1362.276	47951.95	47049.4
879.3944	1364.1383	47662.95	46758.85
879.5384	1365.9998	47462.85	46553.35
879.6823	1367.8606	47407	46500.9
879.8263	1369.7206	47224.05	46317.75
879.9702	1371.5799	47108.85	46203.15
880.1142	1373.4384	46848.9	45944
880.2581	1375.2962	46929.7	46025.95
880.402	1377.1533	46502.65	45599.4
880.5459	1379.0096	46278.75	45375.45
880.6898	1380.8652	46144.85	45241.85
880.8337	1382.7201	45976.6	45074.25
880.9776	1384.5742	45877.35	44974.9
881.1215	1386.4275	45518.45	44611.9
881.2653	1388.2802	45540.45	44635.5
881.4092	1390.132	45528.95	44623.6
881.553	1391.9832	45225.8	44318.1
881.6968	1393.8336	45004.75	44099.25
881.8406	1395.6832	45002.25	44097.2
881.9844	1397.5322	44908	44004.4
882.1282	1399.3803	44717.95	43809.1
882.272	1401.2278	44623.45	43717.8
882.4158	1403.0745	44537.05	43633.3
882.5595	1404.9204	44384.6	43482.7
882.7033	1406.7656	44389	43484.95
882.847	1408.6101	44084.65	43178.6
882.9908	1410.4538	44048.3	43141.8
883.1345	1412.2968	44034.65	43129.7
883.2782	1414.139	43846.75	42942.05
883.4219	1415.9805	43886.75	42986.6
883.5656	1417.8213	43680.4	42770.75
883.7092	1419.6613	43704.6	42804.45
883.8529	1421.5006	43626.25	42723.25
883.9965	1423.3391	43527.95	42625.3
884.1402	1425.1769	43478.1	42574.2
884.2838	1427.0139	43642.25	42737.05
884.4274	1428.8502	43678.15	42771.6
884.571	1430.6858	43742.4	42840.6
884.7146	1432.5206	43859.5	42956.75
884.8582	1434.3547	43739.15	42836.4
885.0018	1436.188	43650.65	42746.45
885.1453	1438.0206	43679.15	42775.45
885.2889	1439.8524	43545.8	42641.65
885.4324	1441.6835	43395.4	42492.05
885.5759	1443.5139	43362	42456.25
885.7194	1445.3435	43223.95	42322.75
885.8629	1447.1724	43243.5	42342.8
886.0064	1449.0005	43047.5	42145.85
886.1499	1450.8279	43077.65	42174.7
886.2933	1452.6545	42995.95	42091
886.4368	1454.4804	43001.05	42098.7
886.5802	1456.3056	42862.2	41954.7
886.7237	1458.13	42825.5	41926.5
886.8671	1459.9536	42870.95	41969.15
887.0105	1461.7766	42653.2	41752.1
887.1539	1463.5987	42458.45	41556.45
887.2972	1465.4202	42325.85	41422.25
887.4406	1467.2409	42128.05	41226.7
887.584	1469.0608	42023.55	41120.5
887.7273	1470.88	41937.75	41034.6
887.8706	1472.6984	41882.8	40980.7
888.0139	1474.5161	41609.75	40704
888.1572	1476.3331	41604.8	40704.2
888.3005	1478.1493	41457.4	40555.5
888.4438	1479.9648	41397.65	40497.1
888.5871	1481.7795	41303.15	40402.35
888.7303	1483.5935	41277.55	40375.1
888.8736	1485.4067	41175.3	40270.2
889.0168	1487.2192	41182.45	40279.2
889.16	1489.031	41078.7	40174.2
889.3032	1490.842	41056.25	40156
889.4464	1492.6522	41034.15	40133.75
889.5896	1494.4618	40881.95	39978.65
889.7327	1496.2705	40863.3	39960.3
889.8759	1498.0785	40739.05	39836.1
890.019	1499.8858	40716.05	39812.25
890.1622	1501.6924	40668.15	39765.85
890.3053	1503.4981	40547.05	39646.5
890.4484	1505.3032	40568.65	39668.5
890.5914	1507.1075	40434.55	39532.85
890.7345	1508.911	40391.45	39489.9
890.8776	1510.7138	40297.5	39396.05
891.0206	1512.5159	40245.9	39346.55
891.1637	1514.3172	40071.85	39169.85
891.3067	1516.1178	40035.05	39133.6
891.4497	1517.9176	40019.7	39118.05
891.5927	1519.7166	39871.05	38969.65
891.7357	1521.515	39813.95	38906.95
891.8786	1523.3126	39751.1	38851.9
892.0216	1525.1094	39657	38754.8
892.1645	1526.9055	39526.2	38626.55
892.3074	1528.7008	39456.7	38555.35
892.4503	1530.4954	39261.9	38360.2
892.5932	1532.2893	39252.4	38356.6
892.7361	1534.0824	39097.4	38196.4
892.879	1535.8747	39066.8	38168.3
893.0218	1537.6663	39044.9	38143.65
893.1647	1539.4572	38836	37936.3
893.3075	1541.2473	38869.9	37970.55
893.4503	1543.0367	38715.25	37817.1
893.5931	1544.8253	38613	37708.35
893.7359	1546.6132	38582.75	37681
893.8787	1548.4003	38490.95	37581.95
894.0214	1550.1867	38440.55	37534.2
894.1642	1551.9723	38415.35	37514.05
894.3069	1553.7572	38400.05	37502.6
894.4496	1555.5414	38327.55	37430
894.5923	1557.3247	38290.1	37394.35
894.735	1559.1074	38273.95	37378.65
894.8777	1560.8893	38228.8	37334.95
895.0204	1562.6705	38153	37259.2
895.163	1564.4509	38125.25	37229.05
895.3056	1566.2305	38026.3	37131.85
895.4482	1568.0094	38087.55	37195.3
895.5908	1569.7876	38053.75	37159.45
895.7334	1571.565	37963.35	37067.8
895.876	1573.3417	37923.1	37028.4
896.0186	1575.1176	37813.05	36917
896.1611	1576.8928	37767.6	36873.8
896.3036	1578.6672	37658.8	36768.45
896.4461	1580.4409	37617.45	36728.8
896.5886	1582.2138	37508.2	36613.7
896.7311	1583.986	37430.4	36539.25
896.8736	1585.7575	37411.85	36518.2
897.0161	1587.5282	37389.65	36498.75
897.1585	1589.2981	37389.7	36499.3
897.3009	1591.0673	37244.55	36353.9
897.4433	1592.8358	37274.05	36383.2
897.5857	1594.6035	37225.3	36331.65
897.7281	1596.3704	37137	36241.7
897.8705	1598.1366	37054.9	36164.05
898.0128	1599.9021	36985.45	36094.5
898.1551	1601.6668	36949.45	36054.45
898.2975	1603.4308	36867.55	35973.8
898.4398	1605.194	36904.45	36004.95
898.5821	1606.9564	36866.05	35975.3
898.7243	1608.7182	36850.75	35959.95
898.8666	1610.4791	36885.75	36000.05
899.0088	1612.2394	36855	35968.45
899.1511	1613.9988	36849.65	35960.8
899.2933	1615.7576	36942.1	36053.4
899.4355	1617.5156	36940.6	36042.95
899.5776	1619.2728	36890.15	35997.65
899.7198	1621.0293	36830.5	35940.95
899.862	1622.785	36712.85	35819.35
900.0041	1624.54	36558.65	35666.8
900.1462	1626.2942	36450.85	35559.15
900.2883	1628.0477	36208.1	35313.55
900.4304	1629.8005	35996.25	35102.45
900.5725	1631.5525	35917	35025.9
900.7145	1633.3037	35685.8	34797.65
900.8566	1635.0542	35590.45	34701.85
900.9986	1636.804	35526.95	34636.35
901.1406	1638.553	35321.85	34385.65
901.2826	1640.3013	35218.85	34327.95
901.4245	1642.0488	35067.75	34176.1
901.5665	1643.7955	35154.3	34266.75
901.7085	1645.5416	35015.9	34126.5
901.8504	1647.2868	34902.2	34012.7
901.9923	1649.0313	34995	34104.35
902.1342	1650.7751	34888.4	33995.65
902.2761	1652.5181	34829.65	33940.4
902.4179	1654.2604	34772.05	33881.75
902.5598	1656.0019	34847.1	33958.35
902.7016	1657.7427	34816.2	33927.85
902.8434	1659.4828	34966.15	34075.05
902.9852	1661.222	34773.5	33882.85
903.127	1662.9606	34859.1	33970.35
903.2687	1664.6984	34603.8	33715.45
903.4105	1666.4354	34530.6	33638
903.5522	1668.1717	34089.55	33196.85
903.6939	1669.9072	33683.65	32791.7
903.8356	1671.642	33552.45	32659
903.9773	1673.3761	33380.9	32490.7
904.119	1675.1094	33157	32265.9
904.2606	1676.8419	32878.9	31988.65
904.4022	1678.5737	32789.4	31897.85
904.5439	1680.3048	32581.35	31689.9
904.6855	1682.0351	32394.45	31505.3
904.827	1683.7646	32225.8	31331.25
904.9686	1685.4934	32182.5	31293.1
905.1101	1687.2215	31908.9	31018.45
905.2517	1688.9488	31891.3	31000.15
905.3932	1690.6754	31484.25	30595.85
905.5347	1692.4012	31596	30705
905.6761	1694.1263	31561.75	30673.25
905.8176	1695.8506	31381.95	30490.5
905.9591	1697.5742	31263.85	30374.45
906.1005	1699.297	31210.9	30325.5
906.2419	1701.0191	31073.6	30185.7
906.3833	1702.7404	30848.15	29959.85
906.5246	1704.461	30716.65	29828.05
906.666	1706.1808	30702.5	29812.15
906.8073	1707.8999	30572.2	29683.75
906.9487	1709.6182	30509.35	29623.9
907.09	1711.3358	30438.75	29552.3
907.2313	1713.0527	30331.9	29447.1
907.3725	1714.7688	30248.8	29358.1
907.5138	1716.4841	30039.85	29151.25
907.655	1718.1987	30026.55	29134.45
907.7962	1719.9126	29922.2	29035.45
907.9374	1721.6257	29812.4	28924.45
908.0786	1723.338	29822.65	28936.45
908.2198	1725.0496	29580.4	28692.4
908.3609	1726.7605	29566.8	28677.35
908.502	1728.4706	29450.45	28562.65
908.6431	1730.18	29333.95	28442.45
908.7842	1731.8886	29269.6	28380.35
908.9253	1733.5964	29197.65	28303.75
909.0664	1735.3036	29199.95	28309.45
909.2074	1737.0099	29124.4	28235.9
909.3484	1738.7156	29032.65	28149.35
909.4894	1740.4204	28896.35	28008.3
909.6304	1742.1246	28827.1	27940.05
909.7714	1743.8279	28816.95	27931.35
909.9123	1745.5306	28765.45	27878.4
910.0532	1747.2325	28589.9	27704.75
910.1941	1748.9336	28552.45	27666.8
910.335	1750.634	28430.65	27541
910.4759	1752.3336	28436.9	27550
910.6168	1754.0325	28303.4	27418.75
910.7576	1755.7307	28330.65	27445.2
910.8984	1757.4281	28279.45	27392.95
911.0392	1759.1247	28246.8	27350.4
911.18	1760.8206	28119.25	27226.7
911.3208	1762.5158	28070.85	27179.5
911.4615	1764.2102	27992.05	27106.85
911.6022	1765.9039	27911.65	27024.85
911.7429	1767.5968	27852.35	26965.1
911.8836	1769.289	27764.65	26877.65
912.0243	1770.9804	27680.9	26794.6
912.1649	1772.6711	27660.4	26774.4
912.3056	1774.361	27555.6	26666.55
912.4462	1776.0502	27510.4	26623.2
912.5868	1777.7386	27479	26591.15
912.7274	1779.4263	27393.4	26506.8
912.8679	1781.1132	27355.55	26471.65
913.0084	1782.7994	27278.25	26392.2
913.149	1784.4849	27224.75	26339.65
913.2895	1786.1696	27149.55	26246.05
913.4299	1787.8535	27075.95	26190.45
913.5704	1789.5367	27078.7	26193.2
913.7108	1791.2192	26979.8	26095.9
913.8513	1792.9009	26877.7	25961.8
913.9917	1794.5818	26850.1	25962.75
914.132	1796.2621	26729.35	25844.1
914.2724	1797.9415	26669.15	25782.35
914.4128	1799.6202	26617.75	25729.85
914.5531	1801.2982	26560.75	25672.6
914.6934	1802.9755	26486.75	25599.75
914.8337	1804.6519	26462.9	25576.2
914.9739	1806.3277	26374.25	25486.8
915.1142	1808.0027	26190.65	25306.7
915.2544	1809.6769	26200.25	25317.2
915.3946	1811.3504	26157.5	25271.85
915.5348	1813.0231	26115.45	25232.6
915.675	1814.6951	26103.25	25218.15
915.8151	1816.3664	26086.85	25199.85
915.9553	1818.0369	25965.85	25078.35
916.0954	1819.7067	25866.5	24981.45
916.2355	1821.3757	25875.6	24986.6
916.3755	1823.044	25817.4	24933.05
916.5156	1824.7115	25720.75	24834.4
916.6556	1826.3783	25643.55	24756.75
916.7956	1828.0443	25581.95	24697.15
916.9356	1829.7096	25516.15	24631.45
917.0756	1831.3741	25498.8	24609.3
917.2155	1833.0379	25391.9	24508.5
917.3555	1834.701	25339.85	24451.4
917.4954	1836.3633	25336.6	24452.05
917.6353	1838.0248	25282	24395.85
917.7751	1839.6856	25227	24341.15
917.915	1841.3457	25179.05	24293.75
918.0548	1843.005	25140.15	24256.4
918.1946	1844.6636	25084.45	24201
918.3344	1846.3214	25004.85	24121.95
918.4742	1847.9785	25029.45	24144.25
918.6139	1849.6349	24910.05	24023.85
918.7537	1851.2904	24841.7	23946.75
918.8934	1852.9453	24777.05	23888.4
919.0331	1854.5994	24716	23827.55
919.1727	1856.2528	24760.4	23870.8
919.3124	1857.9054	24623.9	23735.7
919.452	1859.5572	24619.45	23735.95
919.5916	1861.2083	24616.3	23730.05
919.7312	1862.8587	24604.55	23719
919.8708	1864.5084	24524.4	23637.25
920.0103	1866.1572	24425.35	23537.85
920.1498	1867.8054	24340.55	23454.1
920.2893	1869.4528	24309.85	23421.9
920.4288	1871.0994	24192.8	23305.65
920.5683	1872.7453	24198.95	23313
920.7077	1874.3905	24089.9	23199.15
920.8471	1876.0349	24034.35	23147.9
920.9865	1877.6786	24049.75	23161.3
921.1259	1879.3215	24075.95	23191
921.2653	1880.9637	23970.35	23083.5
921.4046	1882.6051	23919.05	23033.3
921.5439	1884.2458	23856.8	22967.5
921.6832	1885.8858	23764.05	22878
921.8225	1887.525	23728.65	22843.25
921.9617	1889.1634	23584.2	22698.7
922.101	1890.8011	23544.15	22656
922.2402	1892.4381	23492.1	22605.75
922.3794	1894.0743	23483.1	22596.35
922.5185	1895.7098	23413.35	22527.55
922.6577	1897.3446	23387.85	22500.65
922.7968	1898.9786	23319.75	22428.1
922.9359	1900.6118	23246.1	22362.1
923.075	1902.2443	23148.1	22260.1
923.214	1903.8761	23086.6	22199.7
923.3531	1905.5071	22972.3	22086.3
923.4921	1907.1374	22926.05	22039.3
923.6311	1908.7669	22896.6	22010.95
923.77	1910.3957	22853.8	21969.7
923.909	1912.0237	22715.55	21830.2
924.0479	1913.651	22698.65	21811
924.1868	1915.2776	22623.35	21739.6
924.3257	1916.9034	22555.8	21673.15
924.4646	1918.5285	22455.25	21572.8
924.6034	1920.1528	22338.8	21454.15
924.7422	1921.7764	22353.8	21468.2
924.881	1923.3992	22248.55	21364.1
925.0198	1925.0213	22140.5	21256.25
925.1586	1926.6427	22001.1	21116.65
925.2973	1928.2633	22178.1	21049.05
925.436	1929.8832	21948.95	21059.1
925.5747	1931.5023	21838.35	20952.3
925.7134	1933.1207	21786.3	20902.05
925.852	1934.7383	21719.7	20832.45
925.9906	1936.3552	21645.4	20761.35
926.1292	1937.9714	21585.15	20699.25
926.2678	1939.5868	21531.25	20643.6
926.4064	1941.2015	21425.35	20537.75
926.5449	1942.8154	21347.1	20461.2
926.6834	1944.4286	21273.35	20388.5
926.8219	1946.041	21192.15	20283.95
926.9604	1947.6528	21100.95	20209.05
927.0988	1949.2637	21074.45	20188.05
927.2372	1950.8739	20977.05	20091.35
927.3756	1952.4834	20958.45	20075.15
927.514	1954.0921	20928.85	20043.65
927.6523	1955.7001	20854.3	19967.25
927.7907	1957.3074	20784.4	19901.75
927.929	1958.9139	20671.35	19789
928.0673	1960.5197	20630.75	19745.5
928.2055	1962.1247	20544.1	19660.05
928.3438	1963.729	20468.2	19586
928.482	1965.3325	20376.05	19469.55
928.6202	1966.9353	20334.8	19452.6
928.7584	1968.5374	20286.05	19399.8
928.8965	1970.1387	20201.6	19316.1
929.0346	1971.7393	20110.55	19225.95
929.1727	1973.3392	20089.45	19205.2
929.3108	1974.9383	20005.95	19124.35
929.4489	1976.5366	19882.15	18998.35
929.5869	1978.1342	19905.45	19023.3
929.7249	1979.7311	19825.1	18940.25
929.8629	1981.3273	19743.85	18859.95
930.0009	1982.9227	19713.95	18828.95
930.1388	1984.5173	19638.15	18753.9
930.2767	1986.1112	19526.65	18643.25
930.4146	1987.7044	19522.55	18640.65
930.5525	1989.2968	19439.6	18553.9
930.6904	1990.8885	19425.25	18538.6
930.8282	1992.4795	19417.85	18535.85
930.966	1994.0697	19312.85	18431.6
931.1038	1995.6592	19245.1	18363.1
931.2415	1997.2479	19198.3	18315.5
931.3793	1998.8359	19124.2	18242.3
931.517	2000.4232	19017.05	18134.85
931.6547	2002.0097	19029.8	18149.35
931.7923	2003.5955	18935.45	18054.2
931.93	2005.1805	18936.2	18054.3
932.0676	2006.7648	18872.85	17992.35
932.2052	2008.3484	18804.35	17922.65
932.3427	2009.9312	18824.4	17944.05
932.4803	2011.5133	18715.6	17834.45
932.6178	2013.0946	18649.9	17770.65
932.7553	2014.6752	18595.7	17716.2
932.8928	2016.2551	18557.85	17675.5
933.0302	2017.8342	18510.75	17629.45
933.1676	2019.4126	18482	17602
933.305	2020.9902	18355.95	17475.2
933.4424	2022.5672	18317	17436.9
933.5798	2024.1433	18307.85	17422.7
933.7171	2025.7188	18225.5	17346.9
933.8544	2027.2935	18186.95	17305.6
933.9917	2028.8674	18081.3	17201.25
934.129	2030.4406	18033.1	17154.95
934.2662	2032.0131	17982.55	17101.75
934.4034	2033.5849	17909.55	17023.75
934.5406	2035.1559	17902.5	17021.7
934.6778	2036.7261	17855.4	16973.4
934.8149	2038.2957	17776.7	16895.05
934.952	2039.8645	17749.05	16867.9
935.0891	2041.4325	17790.6	16906.25
935.2262	2042.9998	17681.15	16800.35
935.3632	2044.5664	17666.25	16783.45
935.5002	2046.1323	17575.05	16695.05
935.6372	2047.6974	17549.9	16669.6
935.7742	2049.2617	17465.35	16586
935.9111	2050.8254	17458.7	16572.9
936.048	2052.3883	17426.2	16544.85
936.1849	2053.9504	17381.65	16500.65
936.3218	2055.5118	17306.9	16424.1
936.4586	2057.0725	17246	16361.7
936.5955	2058.6325	17190.85	16310.5
936.7323	2060.1917	17158.55	16278
936.869	2061.7502	17152.9	16270.5
937.0058	2063.3079	17046.85	16166.45
937.1425	2064.8649	17012.95	16128.5
937.2792	2066.4212	16962.45	16080.05
937.4159	2067.9767	16922.6	16043.1
937.5525	2069.5315	16833.05	15952.1
937.6891	2071.0856	16797.95	15917.55
937.8257	2072.6389	16722.5	15841.25
937.9623	2074.1915	16622.45	15744.3
938.0989	2075.7433	16599.5	15716.2
938.2354	2077.2945	16568.8	15688.25
938.3719	2078.8448	16516.85	15635.6
938.5084	2080.3945	16457.6	15576.65
938.6448	2081.9434	16405.65	15524.45
938.7812	2083.4916	16369.25	15485.3
938.9176	2085.039	16326.45	15441.65
939.054	2086.5857	16275.35	15390.65
939.1903	2088.1317	16248.45	15364.95
939.3267	2089.677	16181.5	15295.8
939.463	2091.2215	16144.3	15260.6
939.5992	2092.7652	16074.5	15190.75
939.7355	2094.3083	16084.6	15200.5
939.8717	2095.8506	16065.75	15182.4
940.0079	2097.3921	16018.1	15135.6
940.1441	2098.933	15988.15	15105.9
940.2802	2100.4731	15944.2	15063.2
940.4163	2102.0124	15895.2	14995.25
940.5524	2103.5511	15877.9	14997.15
940.6885	2105.089	15825.45	14944.2
940.8245	2106.6261	15794.35	14913.1
940.9606	2108.1626	15770.15	14887.1
941.0965	2109.6983	15766.35	14856.2
941.2325	2111.2332	15686.5	14803.5
941.3684	2112.7675	15652.1	14768.55
941.5044	2114.301	15634.4	14748.25
941.6403	2115.8337	15581.15	14699.25
941.7761	2117.3657	15527.35	14645.05
941.912	2118.897	15479.3	14595.25
942.0478	2120.4276	15431.25	14541.25
942.1835	2121.9575	15346.6	14461.3
942.3193	2123.4866	15364.3	14468.8
942.455	2125.0149	15307.7	14422.2
942.5907	2126.5426	15235.45	14353.5
942.7264	2128.0695	15198.1	14313.5
942.8621	2129.5956	15164.9	14286.3
942.9977	2131.1211	15121.6	14236.9
943.1333	2132.6458	15084.25	14202.9
943.2689	2134.1698	15066.35	14183.25
943.4044	2135.693	15020.95	14135.5
943.54	2137.2155	15000.85	14115.05
943.6755	2138.7373	14960.1	14078.05
943.8109	2140.2584	14901.1	14019.2
943.9464	2141.7787	14845.95	13958
944.0818	2143.2983	14791.9	13911.7
944.2172	2144.8171	14719.35	13837.7
944.3526	2146.3353	14685.35	13803
944.4879	2147.8527	14636.6	13756
944.6232	2149.3693	14642.1	13760
944.7585	2150.8853	14573.1	13690.8
944.8938	2152.4005	14492	13609.55
945.029	2153.9149	14501.95	13620.25
945.1642	2155.4287	14444.65	13562.45
945.2994	2156.9417	14426.6	13540.15
945.4346	2158.454	14345	13459.95
945.5697	2159.9655	14336.55	13454.65
945.7048	2161.4764	14318.25	13437.8
945.8399	2162.9865	14267.95	13385.45
945.9749	2164.4958	14229.75	13348.8
946.1099	2166.0045	14178.75	13295.25
946.2449	2167.5124	14153.75	13270.65
946.3799	2169.0195	14147.8	13266.95
946.5148	2170.526	14120.9	13236.15
946.6498	2172.0317	14047.05	13164.15
946.7846	2173.5367	14018.55	13135.9
946.9195	2175.0409	13951.55	13069.4
947.0543	2176.5445	13951.2	13067.6
947.1891	2178.0473	13881.4	12997
947.3239	2179.5494	13856.65	12967.55
947.4587	2181.0507	13788.45	12905.45
947.5934	2182.5513	13753.6	12870.3
947.7281	2184.0512	13735.35	12850.5
947.8628	2185.5504	13687.85	12805.1
947.9974	2187.0488	13616.7	12734.85
948.132	2188.5465	13576.95	12696.3
948.2666	2190.0435	13510.25	12627.3
948.4012	2191.5397	13493.3	12611.55
948.5357	2193.0353	13473.4	12592.05
948.6702	2194.5301	13396.1	12511.65
948.8047	2196.0241	13354.15	12468.2
948.9392	2197.5175	13285.65	12400.55
949.0736	2199.0101	13244.6	12358.1
949.208	2200.502	13191.5	12308.7
949.3424	2201.9931	13150.35	12268.6
949.4767	2203.4835	13115.15	12233.1
949.611	2204.9733	13103.7	12217
949.7453	2206.4622	13038.2	12156.7
949.8796	2207.9505	13034.45	12151.4
950.0138	2209.438	12936.4	12056.8
950.148	2210.9248	12913.7	12032.9
950.2822	2212.4109	12877.3	11993.7
950.4164	2213.8962	12838.85	11953.3
950.5505	2215.3809	12806.55	11920.8
950.6846	2216.8648	12754.35	11868.05
950.8186	2218.3479	12721.8	11832.25
950.9527	2219.8304	12674.5	11787.65
951.0867	2221.3121	12641.15	11755.05
951.2207	2222.7931	12608.85	11726.65
951.3546	2224.2733	12530.1	11647.25
951.4886	2225.7529	12491.3	11608.95
951.6225	2227.2317	12513.65	11628.3
951.7563	2228.7098	12460.6	11579.95
951.8902	2230.1872	12394.05	11512.65
952.024	2231.6638	12383.1	11499.7
952.1578	2233.1397	12306.55	11418.05
952.2916	2234.6149	12321.75	11441.85
952.4253	2236.0894	12260.25	11376.75
952.559	2237.5632	12223.6	11334
952.6927	2239.0362	12191	11310
952.8263	2240.5085	12167	11284.6
952.9599	2241.9801	12090.65	11207.25
953.0935	2243.4509	12061.75	11177.9
953.2271	2244.921	12024.15	11140.15
953.3606	2246.3904	11997.4	11108.65
953.4941	2247.8591	11963.85	11081.6
953.6276	2249.3271	11893.6	11011.1
953.7611	2250.7943	11892.35	11006.1
953.8945	2252.2608	11849.45	10966.5
954.0279	2253.7266	11797	10914.3
954.1612	2255.1917	11766.65	10884.05
954.2946	2256.656	11729.5	10845.65
954.4279	2258.1197	11690.25	10808.3
954.5612	2259.5826	11654.9	10771.45
954.6944	2261.0447	11665.2	10781.2
954.8276	2262.5062	11611.9	10725.45
954.9608	2263.9669	11576.05	10689.9
955.094	2265.4269	11570.25	10686.6
955.2271	2266.8862	11503.7	10618.95
955.3602	2268.3448	11472.5	10590.2
955.4933	2269.8026	11470.7	10588.8
955.6264	2271.2598	11437.85	10555.45
955.7594	2272.7162	11387.95	10505.8
955.8924	2274.1719	11351.75	10468.2
956.0253	2275.6268	11315.7	10433.25
956.1583	2277.0811	11286.9	10404.05
956.2912	2278.5346	11253.05	10371.45
956.4241	2279.9874	11253.85	10369.95
956.5569	2281.4395	11250.9	10368.75
956.6897	2282.8908	11196.55	10308.65
956.8225	2284.3414	11170.15	10285.45
956.9553	2285.7914	11092.8	10211.6
957.088	2287.2406	11085.65	10198.55
957.2207	2288.689	11074.75	10190.85
957.3534	2290.1368	11012.35	10126.75
957.486	2291.5838	10984.85	10097.2
957.6186	2293.0302	10968.8	10079.9
957.7512	2294.4758	10888.9	10003.55
957.8838	2295.9206	10842.85	9956.7
958.0163	2297.3648	10836.45	9953.15
958.1488	2298.8082	10819.25	9932.3
958.2813	2300.251	10778	9897
958.4137	2301.693	10735.7	9846.2
958.5461	2303.1343	10751.6	9866.2
958.6785	2304.5748	10703.05	9818.4
958.8108	2306.0147	10663.25	9780.4
958.9432	2307.4538	10643.15	9759.2
959.0754	2308.8922	10623.05	9740.3
959.2077	2310.3299	10570.1	9686.9
959.3399	2311.7669	10519.4	9636.2
959.4721	2313.2031	10521.3	9638.25
959.6043	2314.6387	10478.2	9595.3
959.7365	2316.0735	10457.3	9574.4
959.8686	2317.5076	10434	9549.05
960.0006	2318.941	10400.65	9515.6
960.1327	2320.3737	10384.8	9500
960.2647	2321.8056	10374.7	9488.25
960.3967	2323.2369	10323.85	9440.6
960.5287	2324.6674	10305	9420.7
960.6606	2326.0972	10252.75	9367
960.7925	2327.5263	10215.65	9331.9
960.9244	2328.9547	10179	9296
961.0562	2330.3823	10171.35	9286.45
961.1881	2331.8092	10143.95	9256.9
961.3198	2333.2355	10091	9204.95
961.4516	2334.661	10086.6	9200.2
961.5833	2336.0858	10076.8	9190.75
961.715	2337.5098	10020.8	9137.3
961.8467	2338.9332	9994.9	9109.3
961.9783	2340.3558	9974.95	9089.7
962.1099	2341.7778	9911.05	9027.4
962.2415	2343.199	9888.05	9004.85
962.373	2344.6195	9863.6	8980.1
962.5045	2346.0393	9840.65	8957.45
962.636	2347.4583	9839.55	8955.8
962.7675	2348.8767	9793.3	8908.1
962.8989	2350.2943	9804.05	8918.45
963.0303	2351.7113	9744.8	8858.6
963.1617	2353.1275	9707.3	8821.05
963.293	2354.543	9695.4	8800.85
963.4243	2355.9578	9680.75	8795.35
963.5556	2357.3718	9616.85	8731.75
963.6868	2358.7852	9582.95	8696.55
963.818	2360.1978	9553.55	8669.9
963.9492	2361.6098	9514.95	8633.25
964.0803	2363.021	9508.75	8619.6
964.2114	2364.4315	9472.65	8589.05
964.3425	2365.8413	9433.45	8549.4
964.4736	2367.2504	9409.7	8525.6
964.6046	2368.6587	9353.4	8469.65
964.7356	2370.0664	9320.3	8436.1
964.8666	2371.4733	9318.8	8434.6
964.9975	2372.8795	9287.45	8405.5
965.1284	2374.285	9241.45	8354.5
965.2593	2375.6899	9174.55	8291.6
965.3901	2377.0939	9138.6	8255.25
965.5209	2378.4973	9115.55	8234.25
965.6517	2379.9	9092.1	8206.3
965.7825	2381.3019	9085.95	8203
965.9132	2382.7032	9059.3	8177.15
966.0439	2384.1037	9052.9	8172.45
966.1745	2385.5035	8980.2	8097.5
966.3051	2386.9027	8944.95	8062.95
966.4357	2388.3011	8959.5	8075.35
966.5663	2389.6987	8929.4	8047.2
966.6968	2391.0957	8891.3	8010.3
966.8273	2392.492	8850.95	7970.1
966.9578	2393.8876	8803.15	7919.1
967.0882	2395.2824	8768.4	7884.9
967.2186	2396.6765	8765	7883.35
967.349	2398.07	8701.85	7819.8
967.4793	2399.4627	8701.3	7817.15
967.6097	2400.8547	8664	7779.85
967.7399	2402.246	8636.05	7746.7
967.8702	2403.6366	8590.4	7707.4
968.0004	2405.0265	8551.55	7669.05
968.1306	2406.4156	8523.55	7636.5
968.2607	2407.8041	8505.5	7620.65
968.3909	2409.1918	8480.25	7591.5
968.521	2410.5789	8461.45	7576.5
968.651	2411.9652	8421.05	7534.4
968.781	2413.3508	8378.45	7494.95
968.911	2414.7358	8368.8	7483
969.041	2416.12	8317.15	7437.8
969.1709	2417.5035	8294.95	7412.9
969.3008	2418.8863	8267.45	7383.55
969.4307	2420.2684	8272.15	7389.95
969.5606	2421.6497	8205.05	7318.9
969.6904	2423.0304	8155.85	7272.9
969.8201	2424.4104	8145.65	7262.5
969.9499	2425.7896	8109.9	7223.4
970.0796	2427.1682	8112.05	7228.25
970.2093	2428.546	8086.5	7203.45
970.3389	2429.9232	8054.4	7169.2
970.4685	2431.2996	8034.65	7150.45
970.5981	2432.6753	8041.55	7158.6
970.7277	2434.0503	8019.9	7134.35
970.8572	2435.4246	7969.65	7087.75
970.9867	2436.7982	7956.2	7070.35
971.1161	2438.1711	7925.5	7045.5
971.2456	2439.5433	7905.25	7019.1
971.375	2440.9148	7861.2	6971.65
971.5043	2442.2856	7823.25	6937.65
971.6336	2443.6557	7822	6937.15
971.7629	2445.025	7787.65	6904.6
971.8922	2446.3937	7788.6	6905.1
972.0214	2447.7617	7746.3	6861.55
972.1506	2449.1289	7730.55	6849.3
972.2798	2450.4955	7719.6	6831.7
972.4089	2451.8613	7681.45	6798.35
972.538	2453.2265	7682.55	6798.4
972.6671	2454.5909	7643.85	6760.75
972.7961	2455.9546	7626.4	6742.7
972.9251	2457.3177	7604.9	6721.3
973.0541	2458.68	7581.05	6698
973.1831	2460.0416	7554.4	6670.15
973.312	2461.4025	7553.15	6669.45
973.4408	2462.7627	7529.5	6634.65
973.5697	2464.1222	7516.85	6636.45
973.6985	2465.4811	7499	6614.1
973.8273	2466.8392	7471.3	6589.75
973.956	2468.1966	7446.35	6561.85
974.0847	2469.5533	7428.7	6543.15
974.2134	2470.9093	7408.75	6525.35
974.3421	2472.2645	7390	6504.85
974.4707	2473.6191	7359.3	6476.75
974.5993	2474.973	7331.15	6448.3
974.7278	2476.3262	7321.75	6436.15
974.8563	2477.6787	7276.55	6395.95
974.9848	2479.0305	7228.45	6345.45
975.1132	2480.3816	7246.9	6361.15
975.2417	2481.7319	7217.5	6334.3
975.37	2483.0816	7164.85	6279.4
975.4984	2484.4306	7139.65	6256.7
975.6267	2485.7789	7114.3	6229.85
975.755	2487.1264	7115.55	6230.1
975.8833	2488.4733	7067.5	6185.95
976.0115	2489.8195	7065.8	6175.15
976.1397	2491.165	7037.75	6152.1
976.2678	2492.5097	7030.2	6145.4
976.3959	2493.8538	6970.35	6089.15
976.524	2495.1972	6944.45	6061.5
976.6521	2496.5398	6924.7	6039.45
976.7801	2497.8818	6914	6031.05
976.9081	2499.2231	6874.55	5989.7
977.036	2500.5637	6864.05	5979.8
977.164	2501.9035	6838.05	5955.05
977.2918	2503.2427	6839.35	5951.15
977.4197	2504.5812	6817.15	5934.3
977.5475	2505.919	6803.6	5916.35
977.6753	2507.256	6781.25	5897.75
977.8031	2508.5924	6777.5	5895.7
977.9308	2509.9281	6729.4	5838.35
978.0585	2511.2631	6696.1	5812.3
978.1861	2512.5974	6688.45	5805.35
978.3137	2513.9309	6661.55	5779.8
978.4413	2515.2638	6674.75	5761.45
978.5689	2516.596	6642.9	5756.95
978.6964	2517.9275	6600.85	5714.95
978.8239	2519.2583	6572.75	5686.9
978.9513	2520.5884	6539.55	5655.35
979.0788	2521.9178	6553	5671.2
979.2062	2523.2465	6507	5623.65
979.3335	2524.5745	6499.05	5617.45
979.4608	2525.9018	6472.75	5589.55
979.5881	2527.2284	6444.25	5561.85
979.7154	2528.5543	6446.1	5562.9
979.8426	2529.8796	6418.35	5534.85
979.9698	2531.2041	6395.15	5511.1
980.0969	2532.5279	6385.1	5504.5
980.224	2533.851	6377.2	5493.1
980.3511	2535.1735	6354.35	5471.45
980.4781	2536.4952	6332.3	5450.15
980.6052	2537.8163	6330.7	5446.05
980.7321	2539.1366	6299.15	5417.4
980.8591	2540.4562	6273.6	5388
980.986	2541.7752	6292.6	5407.55
981.1129	2543.0935	6267.85	5383
981.2397	2544.411	6254.75	5368.7
981.3665	2545.7279	6250.65	5369
981.4933	2547.0441	6235.45	5351.55
981.62	2548.3596	6217.45	5331.3
981.7467	2549.6744	6226.85	5344.65
981.8734	2550.9885	6192.4	5300.8
982.0001	2552.3019	6191.75	5307.85
982.1267	2553.6146	6158.7	5276.35
982.2532	2554.9266	6135.3	5252.4
982.3798	2556.2379	6129.65	5244.55
982.5063	2557.5485	6118.7	5237.25
982.6327	2558.8585	6104.45	5214.3
982.7592	2560.1677	6063.2	5175
982.8856	2561.4762	6056.5	5171.7
983.0119	2562.7841	6058.65	5172.35
983.1383	2564.0913	6042.15	5159.7
983.2646	2565.3977	6018.35	5134.2
983.3908	2566.7035	6004.05	5120.1
983.517	2568.0086	5993.45	5105.8
983.6432	2569.313	5997.2	5111.6
983.7694	2570.6167	5970.5	5082.35
983.8955	2571.9197	5973.05	5090.6
984.0216	2573.222	5970.9	5084.95
984.1476	2574.5236	5948.15	5064.35
984.2737	2575.8246	5925.45	5039.9
984.3996	2577.1248	5913.25	5027.4
984.5256	2578.4244	5890.45	5007.85
984.6515	2579.7232	5902.15	5017.2
984.7774	2581.0214	5906.2	4995.7
984.9032	2582.3189	5867.7	4984.05
985.029	2583.6157	5852.6	4963.35
985.1548	2584.9118	5835.6	4953.75
985.2806	2586.2072	5837.25	4954
985.4063	2587.5019	5803.7	4920.75
985.5319	2588.7959	5796.65	4911.95
985.6576	2590.0893	5785.1	4899.05
985.7832	2591.3819	5768.65	4888.6
985.9087	2592.6739	5740.9	4858
986.0343	2593.9652	5743.7	4858.6
986.1597	2595.2557	5710.85	4827.8
986.2852	2596.5456	5696.7	4811.3
986.4106	2597.8348	5679.45	4798.4
986.536	2599.1234	5642.3	4758.95
986.6614	2600.4112	5640.9	4756.5
986.7867	2601.6983	5619.35	4734.5
986.912	2602.9848	5586.45	4702.35
987.0372	2604.2705	5584.65	4694.75
987.1624	2605.5556	5573.2	4690.1
987.2876	2606.84	5550.75	4668.8
987.4128	2608.1237	5526.1	4641.7
987.5379	2609.4067	5505.95	4621.3
987.6629	2610.689	5493.05	4601.2
987.788	2611.9707	5482.5	4595.95
987.913	2613.2516	5442.4	4554.95
988.0379	2614.5319	5414.95	4531.35
988.1629	2615.8115	5418.25	4534.8
988.2878	2617.0903	5396.9	4512.6
988.4126	2618.3685	5377.95	4494.75
988.5375	2619.6461	5348.75	4464.65
988.6622	2620.9229	5358	4476.05
988.787	2622.199	5343.95	4458.45
988.9117	2623.4745	5327.9	4445
989.0364	2624.7493	5290.3	4406.6
989.161	2626.0234	5277.25	4393.6
989.2857	2627.2968	5253.85	4371
989.4102	2628.5695	5246.9	4361.45
989.5348	2629.8415	5216.85	4333.7
989.6593	2631.1128	5218.95	4335.3
989.7837	2632.3835	5193.2	4309.9
989.9082	2633.6535	5166.15	4285.3
990.0326	2634.9228	5147.5	4265.75
990.1569	2636.1914	5130.35	4248.2
990.2812	2637.4593	5115.35	4225.2
990.4055	2638.7265	5104	4220.8
990.5298	2639.9931	5086.35	4203.5
990.654	2641.259	5083.45	4198.15
990.7782	2642.5242	5076.3	4192.65
990.9023	2643.7887	5048.2	4163.2
991.0264	2645.0525	5027.75	4145.9
991.1505	2646.3156	5011.85	4127.45
991.2745	2647.5781	4994.55	4112.15
991.3985	2648.8398	4979.55	4099.05
991.5225	2650.1009	4965.7	4073.25
991.6464	2651.3613	4969.05	4087.5
991.7703	2652.6211	4950.05	4067.6
991.8942	2653.8801	4937.25	4054.15
992.018	2655.1385	4924.15	4039.25
992.1418	2656.3961	4900.9	4019.85
992.2655	2657.6531	4900.1	4016.8
992.3892	2658.9094	4876.9	3994.45
992.5129	2660.1651	4860.1	3977.95
992.6366	2661.42	4865	3983.75
992.7602	2662.6743	4866.25	3982.3
992.8837	2663.9279	4858.4	3974.55
993.0073	2665.1808	4835	3950.9
993.1307	2666.433	4807.05	3922.5
993.2542	2667.6846	4804.9	3921.9
993.3776	2668.9354	4798	3913.35
993.501	2670.1856	4779.4	3895.65
993.6244	2671.4351	4761.9	3879.7
993.7477	2672.6839	4762.6	3878.5
993.8709	2673.9321	4736	3855
993.9942	2675.1795	4748.25	3867.1
994.1174	2676.4263	4707.1	3822.7
994.2405	2677.6724	4692	3810.4
994.3637	2678.9179	4681.15	3798.65
994.4868	2680.1626	4681.1	3798.7
994.6098	2681.4067	4671.1	3788
994.7328	2682.6501	4631.05	3745.75
994.8558	2683.8928	4631.5	3748.4
994.9788	2685.1348	4615.2	3733.2
995.1017	2686.3761	4622.65	3739.3
995.2245	2687.6168	4597.5	3714.8
995.3474	2688.8568	4570.45	3688.8
995.4702	2690.0961	4561.4	3680.6
995.5929	2691.3348	4557.05	3674.8
995.7156	2692.5727	4551.6	3668.7
995.8383	2693.81	4529.75	3648.3
995.961	2695.0466	4510.35	3628.7
996.0836	2696.2826	4499.55	3615.9
996.2062	2697.5178	4497.95	3594.9
996.3287	2698.7524	4484.85	3602.8
996.4512	2699.9863	4467.9	3583.9
996.5737	2701.2195	4451.8	3570.8
996.6961	2702.452	4463.25	3580.7
996.8185	2703.6839	4435	3551.15
996.9408	2704.9151	4436	3554.25
997.0631	2706.1456	4411.15	3526.35
997.1854	2707.3755	4404.55	3522.2
997.3077	2708.6046	4405.4	3519.85
997.4299	2709.8331	4380.9	3497.7
997.552	2711.0609	4367.75	3486.15
997.6742	2712.2881	4355.35	3473.15
997.7963	2713.5145	4347.3	3461.45
997.9183	2714.7403	4329.75	3448.35
998.0403	2715.9654	4310.55	3426.95
998.1623	2717.1899	4307.6	3423.5
998.2842	2718.4136	4294.75	3412.95
998.4062	2719.6367	4275.05	3392
998.528	2720.8591	4278.85	3390.3
998.6498	2722.0809	4270	3388.4
998.7716	2723.3019	4256.5	3371.25
998.8934	2724.5223	4244.6	3361.2
999.0151	2725.7421	4231.9	3347.15
999.1368	2726.9611	4234.25	3351.05
999.2584	2728.1795	4212.8	3323.25
999.38	2729.3972	4211.5	3328.9
999.5016	2730.6142	4171.2	3285.95
999.6231	2731.8306	4157.7	3273.3
999.7446	2733.0462	4137.7	3253.5
999.8661	2734.2612	4109.25	3221.75
999.9875	2735.4756	4103.8	3219.1
1000.1089	2736.6892	4069.35	3187.25
1000.2302	2737.9022	4061.2	3180.1
1000.3515	2739.1145	4049.25	3166
1000.4728	2740.3262	4036.05	3144.7
1000.594	2741.5372	4019.9	3138
1000.7152	2742.7475	4014.3	3132.45
1000.8363	2743.9571	3983.8	3098.1
1000.9575	2745.1661	3983.3	3095.75
1001.0785	2746.3744	3959.9	3076.45
1001.1996	2747.582	3950.1	3067.85
1001.3206	2748.7889	3942.55	3059.25
1001.4415	2749.9952	3918.8	3035.35
1001.5625	2751.2008	3890.75	3006.85
1001.6833	2752.4057	3889	3007.2
1001.8042	2753.61	3868.95	2985.8
1001.925	2754.8136	3887.95	3004.65
1002.0458	2756.0165	3868.9	2986.55
1002.1665	2757.2188	3845.2	2964.15
1002.2872	2758.4204	3840	2958
1002.4078	2759.6213	3832.15	2948.2
1002.5285	2760.8215	3808.5	2923.55
1002.649	2762.0211	3799.75	2917.45
1002.7696	2763.22	3792.25	2906.8
1002.8901	2764.4182	3785.25	2903.75
1003.0106	2765.6158	3762.5	2880.85
1003.131	2766.8127	3766.1	2885.8
1003.2514	2768.009	3756.35	2877.35
1003.3717	2769.2045	3731.85	2849.4
1003.492	2770.3994	3746.5	2863.4
1003.6123	2771.5936	3711	2827.6
1003.7325	2772.7872	3689.6	2808.95
1003.8527	2773.9801	3676.15	2793.05
1003.9729	2775.1723	3683.6	2786.35
1004.093	2776.3639	3671	2791.35
1004.2131	2777.5548	3679.15	2793.4
1004.3331	2778.745	3639.95	2757.1
1004.4531	2779.9346	3632.3	2750.55
1004.5731	2781.1235	3642.7	2758.95
1004.693	2782.3117	3624.4	2745.25
1004.8129	2783.4992	3612.25	2729.5
1004.9328	2784.6861	3611.3	2727.45
1005.0526	2785.8723	3594.2	2711.3
1005.1723	2787.0579	3571.25	2688.55
1005.2921	2788.2428	3571.8	2690.35
1005.4118	2789.427	3555.25	2673.15
1005.5314	2790.6106	3532.5	2651.9
1005.651	2791.7935	3540	2657.7
1005.7706	2792.9757	3529.75	2648.1
1005.8902	2794.1573	3505	2621.6
1006.0097	2795.3382	3514.7	2633.8
1006.1291	2796.5184	3505.25	2624.6
1006.2485	2797.698	3516.6	2633.3
1006.3679	2798.8769	3503.3	2619.85
1006.4873	2800.0551	3495.2	2614.55
1006.6066	2801.2327	3488.45	2605
1006.7258	2802.4096	3480.35	2599.65
1006.8451	2803.5859	3474.35	2591.1
1006.9642	2804.7615	3468.55	2585.95
1007.0834	2805.9364	3472.95	2590.75
1007.2025	2807.1106	3465.35	2583.7
1007.3216	2808.2842	3466.8	2584.3
1007.4406	2809.4572	3456.65	2576.15
1007.5596	2810.6294	3471.1	2590.1
1007.6785	2811.801	3478.35	2597.35
1007.7975	2812.972	3475.25	2594.75
1007.9163	2814.1423	3486.6	2603.5
1008.0352	2815.3119	3503.65	2623.4
1008.154	2816.4808	3501.15	2621.25
1008.2727	2817.6491	3526.65	2644.05
1008.3914	2818.8167	3532.45	2653.6
1008.5101	2819.9837	3549.8	2664.2
1008.6288	2821.15	3570.2	2688.25
1008.7474	2822.3157	3589.65	2709.6
1008.8659	2823.4807	3592.85	2710.9
1008.9844	2824.645	3621.05	2738.65
1009.1029	2825.8086	3616.35	2734.45
1009.2214	2826.9716	3627.85	2750.5
1009.3398	2828.134	3651.6	2771.75
1009.4581	2829.2957	3680.8	2798.4
1009.5764	2830.4567	3684.85	2802.65
1009.6947	2831.617	3673.55	2790.2
1009.813	2832.7767	3672.45	2791.05
1009.9312	2833.9358	3674.7	2794.4
1010.0493	2835.0941	3664.65	2783.1
1010.1675	2836.2519	3650.1	2771.1
1010.2855	2837.4089	3637.8	2758.3
1010.4036	2838.5653	3636.6	2755.8
1010.5216	2839.7211	3623.4	2744.2
1010.6396	2840.8761	3601.85	2718.7
1010.7575	2842.0306	3594.05	2713.7
1010.8754	2843.1843	3599.65	2718.85
1010.9932	2844.3374	3615.2	2732.65
1011.111	2845.4899	3619.45	2740.1
1011.2288	2846.6417	3640.1	2757.75
1011.3465	2847.7928	3659.7	2782.2
1011.4642	2848.9433	3678.8	2800.1
1011.5818	2850.0931	3688.95	2812.35
1011.6995	2851.2422	3722.5	2839.45
1011.817	2852.3907	3727.75	2846.55
1011.9345	2853.5385	3743.6	2861.9
1012.052	2854.6857	3761.2	2867.3
1012.1695	2855.8323	3778.7	2898.05
1012.2869	2856.9781	3774.9	2892.75
1012.4042	2858.1233	3784.45	2903.4
1012.5216	2859.2679	3808.15	2927.65
1012.6389	2860.4118	3819.95	2939.55
1012.7561	2861.555	3840.75	2957.05
1012.8733	2862.6976	3847.55	2966
1012.9905	2863.8395	3852.95	2971.5
1013.1076	2864.9808	3860.65	2980.25
1013.2247	2866.1214	3846.9	2966.45
1013.3417	2867.2614	3849.25	2970.65
1013.4587	2868.4007	3848.6	2965
1013.5757	2869.5393	3853	2969.05
1013.6926	2870.6773	3844.95	2960.8
1013.8095	2871.8146	3845.25	2959.6
1013.9263	2872.9513	3810.2	2927.25
1014.0431	2874.0874	3808.85	2929.3
1014.1599	2875.2227	3806.5	2924.3
1014.2766	2876.3574	3789.7	2909.85
1014.3933	2877.4915	3765.2	2885.25
1014.51	2878.6249	3733.55	2853.4
1014.6266	2879.7577	3728.75	2847.6
1014.7431	2880.8898	3735.55	2844.65
1014.8596	2882.0212	3707.3	2830.75
1014.9761	2883.152	3692.7	2810.55
1015.0925	2884.2821	3676.9	2799.85
1015.2089	2885.4116	3663.8	2782.85
1015.3253	2886.5405	3658.7	2776.7
1015.4416	2887.6686	3643.2	2759.25
1015.5579	2888.7962	3647.9	2769.1
1015.6741	2889.923	3644.05	2764.8
1015.7903	2891.0493	3635.35	2757.35
1015.9065	2892.1748	3627.05	2746.95
1016.0226	2893.2997	3610.65	2728.85
1016.1387	2894.424	3612.2	2733.65
1016.2547	2895.5476	3625.85	2743.35
1016.3707	2896.6706	3621.8	2741.05
1016.4866	2897.7929	3625.15	2743
1016.6025	2898.9145	3617.55	2737.85
1016.7184	2900.0355	3630.4	2749.8
1016.8342	2901.1559	3627.15	2747.3
1016.95	2902.2756	3624.6	2746.35
1017.0658	2903.3946	3637.85	2757.9
1017.1815	2904.513	3648.75	2765.2
1017.2971	2905.6308	3657.7	2778.55
1017.4127	2906.7479	3643.65	2762.15
1017.5283	2907.8643	3662.95	2782.9
1017.6439	2908.9801	3633.2	2751.8
1017.7594	2910.0953	3636.95	2757.95
1017.8748	2911.2098	3625.7	2742
1017.9902	2912.3236	3621.5	2733.25
1018.1056	2913.4368	3620.55	2737.25
1018.2209	2914.5494	3594.55	2712.85
1018.3362	2915.6613	3581.3	2695.85
1018.4515	2916.7725	3545.1	2661.7
1018.5667	2917.8831	3545.6	2663.15
1018.6819	2918.9931	3517.9	2635.15
1018.797	2920.1024	3495.65	2613
1018.9121	2921.211	3485.05	2601.95
1019.0271	2922.319	3468.55	2585.45
1019.1421	2923.4264	3446.55	2568.25
1019.2571	2924.5331	3437.55	2558.8
1019.372	2925.6391	3435.7	2555.4
1019.4869	2926.7445	3430.3	2551.45
1019.6017	2927.8493	3430.25	2550.15
1019.7165	2928.9534	3424.5	2543.8
1019.8313	2930.0569	3422.7	2541.15
1019.946	2931.1597	3404.35	2521.85
1020.0606	2932.2619	3418.1	2538.8
1020.1753	2933.3634	3406	2524.75
1020.2899	2934.4643	3403.7	2517.4
1020.4044	2935.5645	3390.9	2503.1
1020.5189	2936.6641	3389.75	2504.75
1020.6334	2937.763	3358.05	2478.5
1020.7478	2938.8613	3333.25	2451.2
1020.8622	2939.959	3317.9	2430.8
1020.9765	2941.056	3272.3	2394.85
1021.0908	2942.1523	3244.05	2362
1021.2051	2943.248	3198.9	2318.75
1021.3193	2944.3431	3145.9	2265.3
1021.4334	2945.4375	3109	2227
1021.5476	2946.5313	3071.4	2191.9
1021.6617	2947.6244	3029.2	2148.85
1021.7757	2948.7169	2982.95	2102.65
1021.8897	2949.8087	2935.5	2055.55
1022.0037	2950.8999	2902.05	2022.75
1022.1176	2951.9904	2838.25	1958.4
1022.2315	2953.0803	2808.8	1926.95
1022.3453	2954.1696	2775.2	1895.75
1022.4591	2955.2582	2751	1870.95
1022.5728	2956.3462	2737.45	1857.75
1022.6865	2957.4335	2718.5	1837.4
1022.8002	2958.5202	2694.4	1810.95
1022.9138	2959.6062	2665.95	1786.1
1023.0274	2960.6916	2654.25	1774.05
1023.141	2961.7764	2643.7	1760.35
1023.2545	2962.8605	2621.6	1743.55
1023.3679	2963.9439	2620.7	1741.8
1023.4813	2965.0267	2601.55	1720.05
1023.5947	2966.1089	2611.4	1707.5
1023.708	2967.1905	2590.5	1712.25
1023.8213	2968.2714	2588.7	1708.55
1023.9346	2969.3516	2575.05	1697.45
1024.0478	2970.4312	2587.95	1701.2
1024.1609	2971.5102	2560.85	1683.35
1024.274	2972.5885	2557.85	1677.1
1024.3871	2973.6662	2564.9	1680.9
1024.5002	2974.7432	2550.2	1671.65
1024.6132	2975.8196	2548.9	1669.3
1024.7261	2976.8954	2531.4	1653.45
1024.839	2977.9705	2524.5	1644.3
1024.9519	2979.045	2520.6	1642.75
1025.0647	2980.1188	2500.2	1619.8
1025.1775	2981.192	2492.9	1613.4
1025.2902	2982.2645	2484.15	1603.55
1025.4029	2983.3364	2468.35	1588.05
1025.5156	2984.4077	2452.2	1573.95
1025.6282	2985.4783	2448.35	1563.4
1025.7407	2986.5483	2421.65	1542.05
1025.8532	2987.6177	2388.95	1508.75
1025.9657	2988.6864	2374.4	1492.8
1026.0782	2989.7545	2357.9	1475.35
1026.1906	2990.8219	2350.35	1468.95
1026.3029	2991.8887	2325.9	1443.9
1026.4152	2992.9548	2315.3	1435.1
1026.5275	2994.0204	2286.6	1407.2
1026.6397	2995.0852	2265.95	1387.15
1026.7519	2996.1495	2255.95	1374.6
1026.864	2997.2131	2244.35	1366.3
1026.9761	2998.276	2226.15	1344.75
1027.0882	2999.3383	2211.8	1330.75
1027.2002	3000.4	2203.75	1320.5
1027.3122	3001.4611	2187.9	1308.85
1027.4241	3002.5215	2182.5	1304.7
1027.536	3003.5812	2161	1281.25
1027.6478	3004.6404	2166.3	1286.3
1027.7596	3005.6989	2149.05	1267.5
1027.8714	3006.7567	2137.15	1257.8
1027.9831	3007.8139	2156.65	1245.6
1028.0947	3008.8705	2124.4	1245.75
1028.2064	3009.9264	2125.7	1243.55
1028.3179	3010.9818	2115	1234.65
1028.4295	3012.0364	2104.25	1223.75
1028.541	3013.0905	2095.05	1213.85
1028.6524	3014.1439	2087.95	1209.1
1028.7638	3015.1966	2080.9	1200.95
1028.8752	3016.2487	2068.9	1188.45
1028.9865	3017.3002	2071.05	1188.75
1029.0978	3018.3511	2072.25	1193.3
1029.209	3019.4013	2057.45	1177.6
1029.3202	3020.4509	2051.05	1170.7
1029.4314	3021.4998	2043.4	1165
1029.5425	3022.5481	2054.75	1176.4
1029.6535	3023.5958	2043.85	1164.5
1029.7645	3024.6428	2037.7	1157.15
1029.8755	3025.6892	2021.75	1144.05
1029.9864	3026.735	2032.05	1153.1
1030.0973	3027.7802	2021.35	1141.05
1030.2082	3028.8247	2018	1137.4
1030.319	3029.8685	2006.95	1124.9
1030.4297	3030.9118	2008.45	1126.55
1030.5404	3031.9544	2008.05	1128.2
1030.6511	3032.9963	1993.25	1114.75
1030.7617	3034.0376	1999	1119.95
1030.8723	3035.0783	2000.25	1118.5
1030.9829	3036.1184	1995.75	1115.25
1031.0934	3037.1578	1988.15	1108.55
1031.2038	3038.1966	1988	1106.8
1031.3142	3039.2348	1976.8	1097.5
1031.4246	3040.2723	1984.45	1095.7
1031.5349	3041.3092	1967.7	1088.45
1031.6452	3042.3455	1967.6	1086.05
1031.7554	3043.3811	1957.4	1077.4
1031.8656	3044.4161	1955.85	1075.2
1031.9758	3045.4505	1952.45	1073.8
1032.0859	3046.4842	1949.15	1070.5
1032.1959	3047.5173	1936.25	1058.25
1032.3059	3048.5498	1945.15	1065.65
1032.4159	3049.5816	1937.4	1060.6
1032.5258	3050.6128	1932.65	1051.05
1032.6357	3051.6434	1928.2	1045.6
1032.7455	3052.6734	1923.15	1042.2
1032.8553	3053.7027	1925.25	1046.15
1032.9651	3054.7314	1904.85	1023.75
1033.0748	3055.7594	1908.4	1031.2
1033.1845	3056.7868	1896.55	1016.25
1033.2941	3057.8136	1899.7	1020.25
1033.4037	3058.8398	1894.4	1016.4
1033.5132	3059.8653	1887.45	1007.95
1033.6227	3060.8902	1873.85	996
1033.7321	3061.9145	1876.65	997.35
1033.8415	3062.9381	1877.75	998.35
1033.9509	3063.9612	1881.15	984.65
1034.0602	3064.9835	1867.35	987.3
1034.1694	3066.0053	1855.55	975.15
1034.2787	3067.0264	1855.35	974.95
1034.3878	3068.0469	1853	974.45
1034.497	3069.0668	1848.9	965.95
1034.6061	3070.086	1834.8	955.25
1034.7151	3071.1046	1830.25	951.5
1034.8241	3072.1226	1830.05	951.1
1034.9331	3073.1399	1821.85	944.15
1035.042	3074.1567	1807.45	927.6
1035.1508	3075.1727	1814.05	933.9
1035.2597	3076.1882	1798.45	918.85
1035.3684	3077.203	1788.35	908.75
1035.4772	3078.2173	1786.95	904.25
1035.5859	3079.2308	1793.05	909.55
1035.6945	3080.2438	1777.25	896.3
1035.8031	3081.2561	1766.6	886.8
1035.9117	3082.2678	1760.05	881.4
1036.0202	3083.2789	1762	881.9
1036.1286	3084.2893	1753.8	876.7
1036.2371	3085.2991	1753	873.95
1036.3454	3086.3083	1741.4	856.85
1036.4538	3087.3169	1734.9	854.7
1036.562	3088.3248	1727.65	845.65
1036.6703	3089.3321	1726.15	844.5
1036.7785	3090.3388	1722	844.2
1036.8866	3091.3449	1713.05	833.45
1036.9948	3092.3503	1716.65	835.5
1037.1028	3093.3551	1706.35	828.8
1037.2108	3094.3593	1705.35	827.6
1037.3188	3095.3629	1696.85	819.65
1037.4267	3096.3658	1690.5	809.75
1037.5346	3097.3681	1685.15	804.85
1037.6425	3098.3698	1677.45	797.3
1037.7503	3099.3708	1678.55	792.7
1037.858	3100.3713	1673.5	795.1
1037.9657	3101.3711	1671.55	790.7
1038.0734	3102.3702	1784.95	771.2
1038.181	3103.3688	1670.4	788.75
1038.2886	3104.3667	1650.9	773.45
1038.3961	3105.364	1652.05	774.25
1038.5036	3106.3607	1648.15	767.15
1038.611	3107.3568	1641.35	760.75
1038.7184	3108.3522	1636.2	757.9
1038.8257	3109.347	1634.15	754.8
1038.933	3110.3412	1625.35	741.45
1039.0403	3111.3348	1623.15	745.1
1039.1475	3112.3277	1617.55	736.8
1039.2547	3113.32	1620.05	741
1039.3618	3114.3117	1616.95	735.7
1039.4689	3115.3028	1606.15	728.9
1039.5759	3116.2932	1600.95	718.2
1039.6829	3117.2831	1600.15	713.95
1039.7898	3118.2723	1591.4	714.25
1039.8967	3119.2608	1581.5	702.6
1040.0035	3120.2488	1585.65	706.2
1040.1103	3121.2361	1578.25	699.95
1040.2171	3122.2229	1570.2	690.45
1040.3238	3123.209	1567.4	686.5
1040.4305	3124.1944	1562.8	684
1040.5371	3125.1793	1570.95	690.95
1040.6437	3126.1635	1565.65	686.55
1040.7502	3127.1471	1556.75	677.3
1040.8567	3128.1301	1553.85	674.95
1040.9631	3129.1125	1553.6	675.25
1041.0695	3130.0942	1551.25	675.1
1041.1759	3131.0753	1548.3	661.3
1041.2822	3132.0558	1543.35	662.35
1041.3884	3133.0357	1532.15	652.95
1041.4946	3134.015	1528.75	648
1041.6008	3134.9936	1537.8	656.4
1041.7069	3135.9716	1547.6	647.9
1041.813	3136.949	1523.3	644.6
1041.919	3137.9258	1523.55	639.55
1042.025	3138.902	1522.15	638.6
1042.1309	3139.8775	1515.05	634.65
1042.2368	3140.8524	1520.15	641.95
1042.3427	3141.8267	1514.4	634.5
1042.4485	3142.8004	1505.05	625.25
1042.5542	3143.7735	1511.45	625.95
1042.6599	3144.7459	1504.95	622.8
1042.7656	3145.7178	1501.3	621.95
1042.8712	3146.689	1498.55	620.85
1042.9768	3147.6596	1494.95	615.65
1043.0823	3148.6295	1490.7	611.65
1043.1878	3149.5989	1486.35	606.05
1043.2932	3150.5676	1482.8	606.1
1043.3986	3151.5357	1479.8	600.25
1043.5039	3152.5032	1470.3	591.7
1043.6092	3153.4701	1478	599.45
1043.7145	3154.4364	1476.75	595.2
1043.8197	3155.402	1464.75	585.75
1043.9248	3156.367	1464.65	583.25
1044.03	3157.3315	1491.55	573
1044.135	3158.2952	1457.2	576.95
1044.24	3159.2584	1447.6	568.4
1044.345	3160.221	1449.9	569.75
1044.4499	3161.1829	1443.9	564.85
1044.5548	3162.1442	1444.75	567.4
1044.6596	3163.105	1436.9	557.8
1044.7644	3164.065	1436.9	557.45
1044.8692	3165.0245	1437.35	555.45
1044.9739	3165.9834	1423	547.35
1045.0785	3166.9416	1423.5	545.3
1045.1831	3167.8993	1426.4	546.6
1045.2877	3168.8563	1429.9	549.35
1045.3922	3169.8127	1417.05	539.85
1045.4966	3170.7684	1418.55	538.55
1045.6011	3171.7236	1421.2	542.8
1045.7054	3172.6782	1409.85	532
1045.8098	3173.6321	1409.7	530.4
1045.914	3174.5854	1403.75	519.2
1046.0183	3175.5381	1393.85	517.65
1046.1224	3176.4902	1399.45	520.55
1046.2266	3177.4417	1405	527.75
1046.3307	3178.3926	1399.35	521.95
1046.4347	3179.3428	1389.95	511.85
1046.5387	3180.2924	1390.7	511.35
1046.6427	3181.2415	1382.95	503.35
1046.7466	3182.1899	1381.05	499.4
1046.8504	3183.1377	1377.25	499.8
1046.9542	3184.0848	1378.35	496.7
1047.058	3185.0314	1367.75	489.2
1047.1617	3185.9773	1365.6	486.8
1047.2654	3186.9227	1364.4	485.7
1047.369	3187.8674	1369.9	490.9
1047.4726	3188.8115	1362.55	479.45
1047.5761	3189.755	1356.15	478.4
1047.6796	3190.6979	1356.3	477.4
1047.783	3191.6402	1352.5	473.4
1047.8864	3192.5818	1350.05	471.65
1047.9898	3193.5229	1366.65	469.3
1048.0931	3194.4633	1355.2	476.05
1048.1963	3195.4031	1342.35	461.3
1048.2995	3196.3423	1345.2	466.15
1048.4027	3197.2809	1342.55	464.45
1048.5058	3198.2189	1341.05	460.5
1048.6089	3199.1563	1352.35	457.65
1048.7119	3200.0931	1330.65	453.2
1048.8148	3201.0292	1325.4	446.9
1048.9178	3201.9648	1327.9	449.25
1049.0206	3202.8997	1328.8	445
1049.1235	3203.834	1322.35	444.55
1049.2262	3204.7677	1323.45	444.7
1049.329	3205.7008	1323.3	442.85
1049.4317	3206.6333	1309.35	432.85
1049.5343	3207.5652	1314.85	433.35
1049.6369	3208.4964	1312.5	435.55
1049.7394	3209.4271	1305.05	427.2
1049.8419	3210.3571	1308.75	429.25
1049.9444	3211.2865	1309.05	429.9
1050.0468	3212.2154	1305.65	426.7
1050.1491	3213.1436	1310.5	429.3
1050.2514	3214.0712	1309.1	422.8
1050.3537	3214.9982	1298	422.65
1050.4559	3215.9246	1298	417.7
1050.5581	3216.8503	1290.8	411.35
1050.6602	3217.7755	1301.3	421.85
1050.7623	3218.7001	1288.55	409.7
1050.8643	3219.624	1290.2	411
1050.9663	3220.5473	1280.75	402.35
1051.0682	3221.4701	1286.9	407.2
1051.1701	3222.3922	1284.6	403.4
1051.2719	3223.3137	1284.85	406.7
1051.3737	3224.2346	1276.95	398.8
1051.4754	3225.1549	1277.65	402
1051.5771	3226.0746	1267.3	388.05
1051.6788	3226.9937	1269.65	391.6
1051.7804	3227.9121	1270.45	393.25
1051.8819	3228.83	1266.25	385.4
1051.9834	3229.7473	1266.05	387.5
1052.0849	3230.6639	1262	383.8
1052.1863	3231.5799	1258.35	380
1052.2876	3232.4954	1262.9	382.05
1052.3889	3233.4102	1254.15	374.3
1052.4902	3234.3244	1257.9	379.75
1052.5914	3235.238	1255.3	376.95
1052.6926	3236.151	1269.65	369.7
1052.7937	3237.0634	1241.45	363.05
1052.8948	3237.9752	1246.25	368
1052.9958	3238.8864	1237.9	359.3
1053.0968	3239.797	1245.1	366.95
1053.1977	3240.7069	1235.35	355.35
1053.2986	3241.6163	1237.8	359.6
1053.3994	3242.5251	1228.5	352.6
1053.5002	3243.4332	1231.7	355.4
1053.6009	3244.3408	1222.85	342.95
1053.7016	3245.2477	1224.75	346.1
1053.8022	3246.154	1223.15	344.6
1053.9028	3247.0598	1226.45	343.75
1054.0034	3247.9649	1215.15	336.55
1054.1039	3248.8694	1214.3	334.8
1054.2043	3249.7733	1215.25	336.45
1054.3047	3250.6766	1211.65	330.7
1054.4051	3251.5793	1217.7	337.75
1054.5054	3252.4814	1206.15	326.9
1054.6056	3253.3829	1204.95	328.2
1054.7058	3254.2838	1201.7	323.9
1054.806	3255.1841	1204.65	326.85
1054.9061	3256.0838	1196	317.45
1055.0061	3256.9829	1194.1	314.75
1055.1062	3257.8814	1197.9	318.4
1055.2061	3258.7792	1189.95	308.8
1055.306	3259.6765	1194.65	316.5
1055.4059	3260.5731	1185.85	305.5
1055.5057	3261.4692	1179.2	299.85
1055.6055	3262.3647	1182.6	302.55
1055.7052	3263.2595	1175.2	296.95
1055.8049	3264.1538	1169.5	291.55
1055.9045	3265.0474	1168.5	288.65
1056.0041	3265.9404	1160.2	283.85
1056.1036	3266.8329	1154.35	277.6
1056.2031	3267.7247	1163.85	275.55
1056.3025	3268.616	1144.45	266.9
1056.4019	3269.5066	1138.65	259.3
1056.5013	3270.3966	1133.8	253.85
1056.6005	3271.286	1126	248.75
