Software Version:	3.9.2.0
Unit SN:	10000200
Spectrometer SN:	6960
Date:	3/6/2024 10:48:26 AM
Data Line Index:	25
Spectral Points:	2048
Integration time (ms):	125
Averages:	20
Delay (ms):	30
Sequence Number:	1
Processing:	dark subtract
Laser Power (mW):	305
Laser Current (mA):	822
Laser Diode Temp (C):	25.1
Laser Case Temp (C):	27.5
System Temp (C):	27.3
Spectrometer Temp (C):	24.7
CCD Temp (C):	-0.003
Secondary Temp (C):	20.004
Heatsink Temp (C):	22.97
CCDPCB Temp (C):	36.74
SecondaryPCB Temp (C):	33.739

Wavelength	RamanShift	Raw Counts	Dark Subtracted
787.061	30.1047	1196.75	783.95
787.2016	32.3739	1233.25	821.65
787.3422	34.6426	1276.85	864.95
787.4828	36.9109	1331.7	917.6
787.6235	39.1787	1393.65	974.7
787.7642	41.4461	1462.15	1039.3
787.9049	43.7131	1539.1	1111.05
788.0456	45.9796	1604.9	1174.05
788.1863	48.2456	1681.85	1247.7
788.3271	50.5112	1755.65	1318.3
788.4679	52.7764	1821.45	1380.5
788.6087	55.0411	1917.15	1473.45
788.7496	57.3054	2010.9	1563
788.8904	59.5692	2112.9	1661.35
789.0313	61.8326	2215.1	1760
789.1722	64.0955	2323.9	1865.4
789.3132	66.3579	2480.8	2016.8
789.4541	68.6199	2660.7	2195.4
789.5951	70.8815	2924.95	2454.35
789.7361	73.1426	3472.35	2997.75
789.8771	75.4032	4888.7	4409.15
790.0181	77.6634	8536.25	8051.8
790.1592	79.9231	18509.45	18022.1
790.3003	82.1824	60519.4	60022.7
790.4414	84.4412	65535	65022.55
790.5825	86.6995	65535	65000.05
790.7237	88.9574	65535	64982
790.8648	91.2148	65535	64966.1
791.006	93.4717	65535	64956.95
791.1472	95.7282	65535	64950.15
791.2885	97.9842	65535	64949.2
791.4297	100.2398	65535	64948.75
791.571	102.4949	65535	64943.45
791.7123	104.7495	65535	64938.85
791.8536	107.0036	65535	64937.45
791.9949	109.2573	65535	64941.1
792.1363	111.5105	65535	64936.45
792.2777	113.7632	65535	64933.25
792.4191	116.0154	65535	64921.2
792.5605	118.2672	65535	64931.25
792.7019	120.5185	65535	64929.85
792.8434	122.7693	65535	64927.55
792.9849	125.0197	65535	64923.95
793.1264	127.2696	65535	64924.15
793.2679	129.519	65535	64918.6
793.4094	131.7679	65535	64916.35
793.551	134.0163	65535	64911.85
793.6926	136.2642	65535	64906.8
793.8342	138.5117	65535	64896
793.9758	140.7587	65535	64904.25
794.1175	143.0052	65535	64903.55
794.2591	145.2512	65535	64902.35
794.4008	147.4967	65535	64899.35
794.5425	149.7417	65535	64897.85
794.6842	151.9863	65535	64895.35
794.826	154.2304	65535	64891.4
794.9677	156.4739	65535	64882.6
795.1095	158.717	65535	64886.5
795.2513	160.9596	65535	64880.35
795.3931	163.2017	65535	64879.4
795.535	165.4433	65535	64876.25
795.6768	167.6844	65535	64874.45
795.8187	169.925	65535	64873.3
795.9606	172.1651	65535	64866.25
796.1025	174.4047	65535	64867
796.2445	176.6439	65535	64864.9
796.3864	178.8825	65535	64858.75
796.5284	181.1206	65535	64854.65
796.6704	183.3582	65535	64853.65
796.8124	185.5954	65535	64851.55
796.9544	187.832	65535	64848.8
797.0965	190.0681	65535	64847.25
797.2386	192.3037	65535	64843.8
797.3806	194.5388	65535	64840.4
797.5228	196.7734	65535	64842.05
797.6649	199.0075	65535	64834.3
797.807	201.2411	65535	64827.4
797.9492	203.4742	65535	64833.1
798.0914	205.7068	65535	64830.15
798.2336	207.9389	65535	64829.4
798.3758	210.1704	65535	64821.1
798.518	212.4015	65535	64823.15
798.6603	214.632	65535	64827.3
798.8025	216.862	65535	64838.15
798.9448	219.0915	65535	64845.5
799.0871	221.3205	65535	64840.4
799.2294	223.549	65535	64846
799.3718	225.777	65535	64844.6
799.5141	228.0044	65535	64842.5
799.6565	230.2314	65535	64846.75
799.7989	232.4578	65535	64839.95
799.9413	234.6837	65535	64832.25
800.0837	236.909	65535	64830.35
800.2262	239.1339	65535	64806.5
800.3687	241.3582	65535	64824.5
800.5111	243.582	65535	64788.95
800.6536	245.8053	65535	64807.75
800.7961	248.0281	65535	64808.45
800.9387	250.2503	65535	64805.35
801.0812	252.472	65535	64799.85
801.2238	254.6932	65535	64795.8
801.3664	256.9139	65535	64799.15
801.509	259.134	65535	64794
801.6516	261.3536	65535	64793.9
801.7942	263.5727	65535	64791.65
801.9369	265.7912	65535	64797.8
802.0795	268.0092	65535	64793.5
802.2222	270.2267	65535	64789.6
802.3649	272.4436	65535	64792
802.5076	274.6601	65535	64781.95
802.6504	276.8759	65535	64787.45
802.7931	279.0913	65535	64782.4
802.9359	281.3061	65535	64784.3
803.0787	283.5204	65535	64780.95
803.2215	285.7341	65535	64775.85
803.3643	287.9473	65535	64764.85
803.5071	290.16	65535	64771.5
803.6499	292.3721	65535	64778.95
803.7928	294.5837	65535	64775.6
803.9357	296.7947	65535	64779.5
804.0786	299.0052	65535	64777.05
804.2215	301.2152	65535	64773.6
804.3644	303.4246	65535	64773.7
804.5074	305.6334	65535	64774.5
804.6503	307.8418	65535	64770.45
804.7933	310.0495	65535	64770.05
804.9363	312.2568	65535	64772.4
805.0793	314.4635	65535	64771.7
805.2223	316.6696	65535	64765.2
805.3653	318.8752	65535	64759
805.5084	321.0802	65535	64764.9
805.6514	323.2847	65535	64764.1
805.7945	325.4887	65535	64765.9
805.9376	327.692	65535	64762.45
806.0807	329.8949	65535	64761.95
806.2238	332.0972	65535	64761.5
806.367	334.2989	65535	64755.6
806.5101	336.5001	65535	64755.15
806.6533	338.7007	65535	64755.65
806.7965	340.9008	65535	64756.1
806.9397	343.1003	65535	64753.25
807.0829	345.2992	65535	64753.9
807.2261	347.4976	65535	64749.35
807.3693	349.6955	65535	64747
807.5126	351.8927	65535	64744.25
807.6559	354.0895	65535	64734.1
807.7991	356.2856	65535	64747.2
807.9424	358.4812	65535	64744.15
808.0857	360.6763	65535	64742.25
808.2291	362.8707	65535	64740.1
808.3724	365.0646	65535	64739.6
808.5158	367.258	65535	64737.3
808.6591	369.4508	65535	64733.15
808.8025	371.643	65535	64735.8
808.9459	373.8346	65535	64733.2
809.0893	376.0257	65535	64730.95
809.2327	378.2162	65535	64728.35
809.3762	380.4062	65535	64727.3
809.5196	382.5956	65535	64723.75
809.6631	384.7844	65535	64723.75
809.8066	386.9726	65535	64728.75
809.9501	389.1603	65535	64728.55
810.0936	391.3474	65535	64687.85
810.2371	393.5339	65535	64729.1
810.3806	395.7199	65535	64736.25
810.5241	397.9052	65535	64735.35
810.6677	400.09	65535	64733.25
810.8113	402.2743	65535	64735.55
810.9548	404.4579	65535	64733.45
811.0984	406.641	65535	64732.65
811.2421	408.8235	65535	64733.65
811.3857	411.0054	65535	64731.3
811.5293	413.1868	65535	64727.8
811.673	415.3675	65535	64727.8
811.8166	417.5477	65535	64725.1
811.9603	419.7273	65535	64721.15
812.104	421.9064	65535	64715.85
812.2477	424.0848	65535	64715.8
812.3914	426.2627	65535	64717.1
812.5351	428.4399	65535	64715.65
812.6788	430.6166	65535	64711.4
812.8226	432.7928	65535	64712.75
812.9663	434.9683	65535	64709.4
813.1101	437.1432	65535	64707.2
813.2539	439.3176	65535	64711.75
813.3977	441.4914	65535	64707.6
813.5415	443.6645	65535	64708.4
813.6853	445.8371	65535	64706.25
813.8291	448.0091	65535	64708.3
813.973	450.1806	65535	64708.15
814.1168	452.3514	65535	64707.1
814.2607	454.5216	65535	64696.1
814.4046	456.6913	65535	64706.55
814.5485	458.8603	65535	64703.3
814.6924	461.0288	65535	64707.85
814.8363	463.1967	65535	64706.65
814.9802	465.3639	65535	64703.45
815.1241	467.5306	65535	64702.7
815.2681	469.6967	65535	64701.7
815.412	471.8622	65535	64702.85
815.556	474.0271	65535	64704.05
815.7	476.1914	65535	64698.4
815.844	478.3551	65535	64703.45
815.988	480.5182	65535	64698.45
816.132	482.6807	65535	64700.45
816.276	484.8426	65535	64702.25
816.4201	487.0039	65535	64701.35
816.5641	489.1647	65535	64700.8
816.7082	491.3248	65535	64699.75
816.8522	493.4843	65535	64700.1
816.9963	495.6432	65535	64697.05
817.1404	497.8015	65535	64693.5
817.2845	499.9592	65535	64694.75
817.4286	502.1163	65535	64695
817.5727	504.2728	65535	64693.15
817.7168	506.4287	65535	64694.6
817.861	508.5839	65535	64693.1
818.0051	510.7386	65535	64693.55
818.1493	512.8927	65535	64690.25
818.2935	515.0461	65535	64691.15
818.4377	517.199	65535	64694.8
818.5818	519.3512	65535	64691.75
818.726	521.5029	65535	64684.05
818.8703	523.6539	65535	64688.85
819.0145	525.8043	65535	64686.65
819.1587	527.9541	65535	64686.75
819.303	530.1033	65535	64690.15
819.4472	532.2519	65535	64687.65
819.5915	534.3999	65535	64686.35
819.7357	536.5472	65535	64686.45
819.88	538.694	65535	64687.5
820.0243	540.8401	65535	64684.95
820.1686	542.9856	65535	64681.45
820.3129	545.1305	65535	64679.45
820.4572	547.2748	65535	64679.3
820.6016	549.4185	65535	64680.7
820.7459	551.5615	65535	64683.15
820.8902	553.704	65535	64680.55
821.0346	555.8458	65535	64679.45
821.1789	557.987	65535	64681.8
821.3233	560.1276	65535	64680.25
821.4677	562.2675	65535	64681.2
821.6121	564.4069	65535	64679.1
821.7565	566.5456	65535	64682.2
821.9009	568.6837	65535	64684.9
822.0453	570.8212	65535	64683.8
822.1897	572.958	65535	64681.55
822.3342	575.0942	65535	64683.35
822.4786	577.2299	65535	64681.55
822.6231	579.3648	65535	64680.05
822.7675	581.4992	65535	64686.65
822.912	583.6329	65535	64684.25
823.0565	585.766	65535	64682.85
823.201	587.8985	65535	64683.45
823.3454	590.0304	65535	64656.55
823.4899	592.1616	65535	64679.05
823.6345	594.2922	65535	64675.9
823.779	596.4222	65535	64676
823.9235	598.5515	65535	64671.85
824.068	600.6802	65535	64677.3
824.2126	602.8083	65535	64677.35
824.3571	604.9358	65535	64671.4
824.5017	607.0626	65535	64674.1
824.6462	609.1888	65535	64672.15
824.7908	611.3144	65535	64671.95
824.9354	613.4393	65535	64674.15
825.08	615.5636	65535	64673.2
825.2246	617.6873	65535	64672.45
825.3692	619.8103	65535	64669.75
825.5138	621.9327	65535	64669.2
825.6584	624.0544	65535	64672.3
825.803	626.1756	65535	64672.9
825.9477	628.2961	65535	64671.45
826.0923	630.4159	65535	64669.8
826.237	632.5351	65535	64669.1
826.3816	634.6537	65535	64672.45
826.5263	636.7716	65535	64667.05
826.6709	638.8889	65535	64668.95
826.8156	641.0056	65535	64668.6
826.9603	643.1216	65535	64664.8
827.105	645.237	65535	64665.45
827.2497	647.3518	65535	64667.15
827.3944	649.4659	65535	64667.75
827.5391	651.5793	65535	64666.5
827.6838	653.6922	65535	64668.25
827.8285	655.8043	65535	64667.35
827.9733	657.9159	65535	64669.7
828.118	660.0268	65535	64664.25
828.2627	662.137	65535	64666.35
828.4075	664.2466	65535	64661.55
828.5522	666.3556	65535	64664
828.697	668.4639	65535	64661.1
828.8418	670.5716	65535	64663.75
828.9865	672.6786	65535	64663.2
829.1313	674.785	65535	64662.45
829.2761	676.8907	65535	64663.6
829.4209	678.9958	65535	64664.35
829.5657	681.1002	65535	64664.25
829.7105	683.204	65535	64657.95
829.8553	685.3072	65535	64660.4
830.0001	687.4097	65535	64663.95
830.1449	689.5115	65535	64661.8
830.2898	691.6127	65535	64662.45
830.4346	693.7132	65535	64657.85
830.5794	695.8131	65535	64646.7
830.7243	697.9123	65535	64660.95
830.8691	700.0109	65535	64660.1
831.014	702.1089	65535	64661.15
831.1588	704.2061	65535	64658.95
831.3037	706.3028	65535	64660.15
831.4486	708.3987	65535	64659.85
831.5935	710.4941	65535	64658.3
831.7383	712.5887	65535	64657.9
831.8832	714.6827	65535	64654.3
832.0281	716.7761	65535	64659.4
832.173	718.8688	65535	64657.55
832.3179	720.9608	65535	64651.2
832.4628	723.0522	65535	64651.5
832.6077	725.1429	65535	64658.5
832.7527	727.233	65535	64655.3
832.8976	729.3224	65535	64655.95
833.0425	731.4112	65535	64655.5
833.1874	733.4993	65535	64654
833.3324	735.5867	65535	64655.35
833.4773	737.6735	65535	64651.15
833.6222	739.7596	65535	64652.6
833.7672	741.845	65535	64654.15
833.9122	743.9298	65535	64653.25
834.0571	746.014	65535	64653.25
834.2021	748.0974	65535	64651.6
834.347	750.1802	65535	64649.7
834.492	752.2624	65535	64653.35
834.637	754.3439	65535	64652.9
834.782	756.4247	65535	64645.1
834.9269	758.5048	65535	64652.2
835.0719	760.5843	65535	64651.2
835.2169	762.6631	65535	64652.6
835.3619	764.7413	65535	64655.1
835.5069	766.8188	65535	64652.6
835.6519	768.8956	65535	64651.4
835.7969	770.9718	65535	64654.1
835.9419	773.0473	65535	64651.1
836.0869	775.1221	65535	64651.1
836.232	777.1962	65535	64650.8
836.377	779.2697	65535	64650.8
836.522	781.3426	65535	64632.4
836.667	783.4147	65535	64650.25
836.8121	785.4862	65535	64652.7
836.9571	787.557	65535	64652
837.1021	789.6271	65535	64649.3
837.2472	791.6966	65535	64649.85
837.3922	793.7654	65535	64649.75
837.5373	795.8335	65535	64651.9
837.6823	797.901	65535	64650.65
837.8274	799.9678	65535	64650.1
837.9724	802.0339	65535	64652.95
838.1175	804.0993	65535	64641.9
838.2626	806.1641	65535	64650.45
838.4076	808.2282	65535	64650.75
838.5527	810.2916	65535	64647
838.6978	812.3544	65535	64651.4
838.8428	814.4164	65535	64651.7
838.9879	816.4778	65535	64647.35
839.133	818.5385	65535	64649.85
839.2781	820.5986	65535	64649.75
839.4232	822.658	65535	64649.05
839.5682	824.7166	65535	64650.4
839.7133	826.7747	65535	64650.55
839.8584	828.832	65535	64648.8
840.0035	830.8886	65535	64645.95
840.1486	832.9446	65535	64647.3
840.2937	834.9999	65535	64651.25
840.4388	837.0545	65535	64645.25
840.5839	839.1085	65535	64647.45
840.729	841.1618	65535	64644.25
840.8741	843.2143	65535	64649.15
841.0192	845.2662	65535	64649.2
841.1643	847.3175	65535	64647.15
841.3095	849.368	65535	64648.15
841.4546	851.4179	65535	64646
841.5997	853.467	65535	64647.15
841.7448	855.5155	65535	64645.9
841.8899	857.5633	65535	64647.15
842.0351	859.6105	65535	64649.45
842.1802	861.6569	65535	64649.4
842.3253	863.7027	65535	64645.05
842.4704	865.7478	65535	64645.95
842.6156	867.7922	65535	64647
842.7607	869.8359	65535	64644.35
842.9058	871.8789	65535	64644.1
843.0509	873.9212	65535	64614.45
843.1961	875.9629	65535	64645.2
843.3412	878.0039	65535	64644.55
843.4863	880.0441	65535	64645.5
843.6315	882.0837	65535	64645.7
843.7766	884.1226	65535	64644.45
843.9218	886.1609	65535	64644.65
844.0669	888.1984	65535	64645.3
844.212	890.2352	65535	64647
844.3572	892.2714	65535	64642.5
844.5023	894.3069	65535	64644.85
844.6475	896.3416	65535	64645.45
844.7926	898.3757	65535	64642.65
844.9377	900.4091	65535	64641.75
845.0829	902.4418	65535	64640.35
845.228	904.4739	65535	64640.4
845.3732	906.5052	65535	64642.05
845.5183	908.5358	65535	64643.75
845.6635	910.5658	65535	64641.6
845.8086	912.595	65535	64642.7
845.9538	914.6236	65535	64643.55
846.0989	916.6515	65535	64646.45
846.2441	918.6786	65535	64642.75
846.3892	920.7051	65535	64641.6
846.5344	922.7309	65535	64642.75
846.6795	924.756	65535	64640.8
846.8246	926.7804	65535	64640.65
846.9698	928.8041	65535	64639.45
847.1149	930.8272	65535	64641.5
847.2601	932.8495	65535	64639.5
847.4052	934.8711	65535	64641.25
847.5504	936.892	65535	64644
847.6955	938.9123	65535	64642.25
847.8407	940.9318	65535	64641.75
847.9858	942.9506	65535	64640.9
848.131	944.9688	65535	64642.8
848.2761	946.9862	65535	64642.7
848.4213	949.003	65535	64641.85
848.5664	951.019	65535	64643.2
848.7115	953.0344	65535	64641.2
848.8567	955.0491	65535	64637.55
849.0018	957.063	65535	64642.45
849.147	959.0763	65535	64642.85
849.2921	961.0888	65535	64640.25
849.4373	963.1007	65535	64640.75
849.5824	965.1119	65535	64642.25
849.7275	967.1223	65535	64642.35
849.8727	969.1321	65535	64643.7
850.0178	971.1412	65535	64641.45
850.1629	973.1495	65535	64641.75
850.3081	975.1572	65535	64608.65
850.4532	977.1641	65535	64642.5
850.5983	979.1704	65535	64637.8
850.7435	981.1759	65535	64638.4
850.8886	983.1808	65535	64639.9
851.0337	985.1849	65535	64637.45
851.1788	987.1884	65535	64638.95
851.324	989.1911	65535	64638.3
851.4691	991.1932	65535	64640.45
851.6142	993.1945	65535	64642.7
851.7593	995.1951	65535	64640.4
851.9045	997.1951	65535	64635.45
852.0496	999.1943	65535	64641.85
852.1947	1001.1928	65535	64640.45
852.3398	1003.1906	65535	64642.55
852.4849	1005.1877	65535	64638.8
852.63	1007.1841	65535	64639.75
852.7751	1009.1798	65535	64642.05
852.9202	1011.1748	65535	64639.95
853.0653	1013.1691	65535	64641.1
853.2104	1015.1627	65535	64642.45
853.3555	1017.1556	65535	64641.9
853.5006	1019.1477	65535	64640.65
853.6457	1021.1392	65535	64640.05
853.7908	1023.1299	65535	64642.45
853.9359	1025.12	65535	64641.6
854.081	1027.1093	65535	64643.45
854.2261	1029.0979	65535	64645.95
854.3712	1031.0859	65535	64641.8
854.5163	1033.0731	65535	64641.55
854.6613	1035.0596	65535	64641.1
854.8064	1037.0454	65535	64638.8
854.9515	1039.0304	65535	64641.55
855.0965	1041.0148	65535	64641.9
855.2416	1042.9985	65535	64641
855.3867	1044.9814	65535	64642.55
855.5317	1046.9636	65535	64640.1
855.6768	1048.9452	65535	64643.2
855.8219	1050.926	65535	64640.45
855.9669	1052.9061	65535	64641.2
856.112	1054.8855	65535	64639.95
856.257	1056.8642	65535	64641.2
856.4021	1058.8421	65535	64635.55
856.5471	1060.8194	65535	64638.2
856.6921	1062.7959	65535	64638.55
856.8372	1064.7717	65535	64638.4
856.9822	1066.7469	65535	64638.95
857.1272	1068.7213	65535	64638.85
857.2723	1070.695	65535	64640.25
857.4173	1072.6679	65535	64639.9
857.5623	1074.6402	65535	64640.45
857.7073	1076.6117	65535	64635.5
857.8523	1078.5826	65535	64640
857.9973	1080.5527	65535	64634.5
858.1423	1082.5221	65535	64637.4
858.2873	1084.4908	65535	64642.35
858.4323	1086.4587	65535	64637.6
858.5773	1088.426	65535	64639.3
858.7223	1090.3925	65535	64635.2
858.8673	1092.3584	65535	64639.1
859.0123	1094.3235	65535	64640.95
859.1573	1096.2879	65535	64636.6
859.3022	1098.2515	65535	64637.9
859.4472	1100.2145	65535	64639.3
859.5922	1102.1767	65535	64636.6
859.7371	1104.1382	65535	64640.4
859.8821	1106.099	65535	64635.5
860.027	1108.0591	65535	64638.9
860.172	1110.0185	65535	64638.8
860.3169	1111.9771	65535	64637.35
860.4619	1113.9351	65535	64638.7
860.6068	1115.8923	65535	64639.55
860.7517	1117.8488	65535	64635.7
860.8967	1119.8045	65535	64637.4
861.0416	1121.7596	65535	64639.1
861.1865	1123.7139	65535	64640.25
861.3314	1125.6675	65535	64638.45
861.4763	1127.6204	65535	64639.05
861.6212	1129.5726	65535	64638.2
861.7661	1131.524	65535	64638.8
861.911	1133.4748	65535	64638.85
862.0559	1135.4248	65535	64638.6
862.2008	1137.3741	65535	64639.05
862.3457	1139.3226	65535	64636.8
862.4905	1141.2705	65535	64638.45
862.6354	1143.2176	65535	64634.15
862.7803	1145.164	65535	64636.05
862.9251	1147.1097	65535	64639.3
863.07	1149.0546	65535	64636.25
863.2148	1150.9989	65535	64638.9
863.3597	1152.9424	65535	64637.15
863.5045	1154.8852	65535	64637.05
863.6493	1156.8272	65535	64637.3
863.7942	1158.7686	65535	64631.7
863.939	1160.7092	65535	64636.3
864.0838	1162.6491	65535	64636.95
864.2286	1164.5883	65535	64636.65
864.3734	1166.5267	65535	64638.9
864.5182	1168.4644	65535	64638.8
864.663	1170.4014	65535	64630.85
864.8078	1172.3377	65535	64640.05
864.9526	1174.2732	65535	64638.9
865.0974	1176.2081	65535	64639.05
865.2421	1178.1421	65535	64637.45
865.3869	1180.0755	65535	64636.65
865.5317	1182.0082	65535	64638.3
865.6764	1183.9401	65535	64636.3
865.8212	1185.8713	65535	64639.35
865.9659	1187.8017	65535	64638.8
866.1106	1189.7315	65535	64640.05
866.2554	1191.6605	65535	64614.35
866.4001	1193.5888	65535	64640.9
866.5448	1195.5163	65535	64638.5
866.6895	1197.4432	65535	64635.9
866.8342	1199.3693	65535	64638.2
866.9789	1201.2947	65535	64636.05
867.1236	1203.2193	65535	64637.9
867.2683	1205.1432	65535	64637.05
867.413	1207.0664	65535	64639.75
867.5576	1208.9889	65535	64635.6
867.7023	1210.9106	65535	64637.8
867.847	1212.8316	65535	64642.1
867.9916	1214.7519	65535	64628.7
868.1363	1216.6715	65535	64635.7
868.2809	1218.5903	65535	64637.3
868.4255	1220.5084	65535	64637.5
868.5701	1222.4257	65535	64639.1
868.7148	1224.3424	65535	64640.6
868.8594	1226.2583	65535	64633.4
869.004	1228.1735	65535	64637.1
869.1486	1230.0879	65535	64636.4
869.2932	1232.0016	65535	64642.15
869.4377	1233.9146	65535	64635.65
869.5823	1235.8269	65535	64637.35
869.7269	1237.7384	65535	64637
869.8715	1239.6492	65535	64639.3
870.016	1241.5592	65535	64637.65
870.1606	1243.4686	65535	64637.8
870.3051	1245.3772	65535	64640.35
870.4496	1247.285	65535	64637.75
870.5941	1249.1922	65535	64637.05
870.7387	1251.0986	65535	64641.9
870.8832	1253.0042	65535	64636.25
871.0277	1254.9092	65535	64639.9
871.1722	1256.8134	65535	64638.65
871.3167	1258.7169	65535	64636.05
871.4611	1260.6196	65535	64639.05
871.6056	1262.5216	65535	64637.6
871.7501	1264.4229	65535	64637.55
871.8945	1266.3234	65535	64637.7
872.039	1268.2232	65535	64636.45
872.1834	1270.1223	65535	64638
872.3278	1272.0207	65535	64637.2
872.4723	1273.9183	65535	64630.2
872.6167	1275.8151	65535	64639.9
872.7611	1277.7113	65535	64637.45
872.9055	1279.6067	65535	64640.2
873.0499	1281.5014	65535	64635.35
873.1943	1283.3953	65535	64637.15
873.3386	1285.2885	65535	64639.25
873.483	1287.181	65535	64635.3
873.6274	1289.0727	65535	64640.65
873.7717	1290.9637	65535	64636.8
873.9161	1292.854	65535	64639.1
874.0604	1294.7435	65535	64637
874.2047	1296.6323	65535	64636.35
874.349	1298.5204	65535	64634.75
874.4933	1300.4077	65535	64637.9
874.6376	1302.2943	65535	64639.1
874.7819	1304.1802	65535	64639.6
874.9262	1306.0653	65535	64636.5
875.0705	1307.9497	65535	64639.1
875.2147	1309.8333	65535	64639.3
875.359	1311.7162	65535	64637.75
875.5032	1313.5984	65535	64635.4
875.6475	1315.4798	65535	64627.35
875.7917	1317.3605	65535	64621.45
875.9359	1319.2405	65535	64636.45
876.0801	1321.1197	65535	64636.9
876.2243	1322.9982	65535	64634.55
876.3685	1324.876	65535	64638.05
876.5127	1326.753	65535	64635.1
876.6569	1328.6293	65535	64635.85
876.801	1330.5048	65535	64636.85
876.9452	1332.3796	65535	64636.55
877.0893	1334.2537	65535	64611.85
877.2335	1336.127	65535	64636.85
877.3776	1337.9996	65535	64638.05
877.5217	1339.8714	65535	64638.35
877.6658	1341.7426	65535	64592.8
877.8099	1343.6129	65535	64634.95
877.954	1345.4826	65535	64637.15
878.0981	1347.3515	65535	64635.1
878.2422	1349.2196	65535	64635.5
878.3862	1351.087	65535	64638
878.5303	1352.9537	65535	64638.8
878.6743	1354.8197	65535	64637.15
878.8184	1356.6849	65535	64639.2
878.9624	1358.5493	65535	64635.65
879.1064	1360.4131	65535	64635.7
879.2504	1362.276	65535	64637.8
879.3944	1364.1383	65535	64636.5
879.5384	1365.9998	65535	64630.95
879.6823	1367.8606	65535	64636.3
879.8263	1369.7206	65535	64638.65
879.9702	1371.5799	65535	64635.65
880.1142	1373.4384	65535	64637.7
880.2581	1375.2962	65535	64637.15
880.402	1377.1533	65535	64637.95
880.5459	1379.0096	65535	64636.4
880.6898	1380.8652	65535	64636.7
880.8337	1382.7201	65535	64635.25
880.9776	1384.5742	65535	64638.6
881.1215	1386.4275	65535	64636.85
881.2653	1388.2802	65535	64638.35
881.4092	1390.132	65535	64638.4
881.553	1391.9832	65535	64633.75
881.6968	1393.8336	65535	64637.35
881.8406	1395.6832	65535	64636.45
881.9844	1397.5322	65535	64638.05
882.1282	1399.3803	65535	64633.1
882.272	1401.2278	65535	64637.95
882.4158	1403.0745	65535	64636.95
882.5595	1404.9204	65535	64638.35
882.7033	1406.7656	65535	64635.85
882.847	1408.6101	65535	64637.7
882.9908	1410.4538	65535	64637.55
883.1345	1412.2968	65535	64635.95
883.2782	1414.139	65535	64638.75
883.4219	1415.9805	65535	64638.65
883.5656	1417.8213	65535	64631.4
883.7092	1419.6613	65535	64636.6
883.8529	1421.5006	65535	64637.05
883.9965	1423.3391	65535	64637.15
884.1402	1425.1769	65535	64637.95
884.2838	1427.0139	65535	64636.65
884.4274	1428.8502	65535	64635.1
884.571	1430.6858	65535	64635.75
884.7146	1432.5206	65535	64637.85
884.8582	1434.3547	65535	64636.9
885.0018	1436.188	65535	64637.55
885.1453	1438.0206	65535	64636
885.2889	1439.8524	65535	64639.05
885.4324	1441.6835	65535	64636.55
885.5759	1443.5139	65535	64632.1
885.7194	1445.3435	65535	64636.2
885.8629	1447.1724	65535	64637.4
886.0064	1449.0005	65535	64638.5
886.1499	1450.8279	65535	64634.25
886.2933	1452.6545	65535	64636.85
886.4368	1454.4804	65535	64639.55
886.5802	1456.3056	65535	64631.1
886.7237	1458.13	65535	64639.5
886.8671	1459.9536	65535	64637.85
887.0105	1461.7766	65535	64639
887.1539	1463.5987	65535	64638.2
887.2972	1465.4202	65535	64636.65
887.4406	1467.2409	65535	64637.75
887.584	1469.0608	65535	64637.75
887.7273	1470.88	65535	64635.15
887.8706	1472.6984	65535	64637.8
888.0139	1474.5161	65535	64634.55
888.1572	1476.3331	65535	64637.8
888.3005	1478.1493	65535	64636.7
888.4438	1479.9648	65535	64637.25
888.5871	1481.7795	65535	64636.85
888.7303	1483.5935	65535	64636.85
888.8736	1485.4067	65535	64636.75
889.0168	1487.2192	65535	64638.35
889.16	1489.031	65535	64634.3
889.3032	1490.842	65535	64638.25
889.4464	1492.6522	65535	64637.5
889.5896	1494.4618	65535	64637.75
889.7327	1496.2705	65535	64638.4
889.8759	1498.0785	65535	64639.9
890.019	1499.8858	65535	64637.65
890.1622	1501.6924	65535	64639.85
890.3053	1503.4981	65535	64639.3
890.4484	1505.3032	65535	64636.5
890.5914	1507.1075	65535	64637.15
890.7345	1508.911	65535	64639.75
890.8776	1510.7138	65535	64637.6
891.0206	1512.5159	65535	64638.3
891.1637	1514.3172	65535	64638.25
891.3067	1516.1178	65535	64639.9
891.4497	1517.9176	65535	64634.85
891.5927	1519.7166	65535	64638.1
891.7357	1521.515	65535	64631.8
891.8786	1523.3126	65535	64635.65
892.0216	1525.1094	65535	64638.95
892.1645	1526.9055	65535	64639.9
892.3074	1528.7008	65535	64639.45
892.4503	1530.4954	65535	64632.5
892.5932	1532.2893	65535	64640.3
892.7361	1534.0824	65535	64633.15
892.879	1535.8747	65535	64639.25
893.0218	1537.6663	65535	64635.85
893.1647	1539.4572	65535	64636.75
893.3075	1541.2473	65535	64638.3
893.4503	1543.0367	65535	64638.65
893.5931	1544.8253	65535	64633.65
893.7359	1546.6132	65535	64634.7
893.8787	1548.4003	65535	64631.15
894.0214	1550.1867	65535	64630.95
894.1642	1551.9723	65535	64633.6
894.3069	1553.7572	65535	64638.45
894.4496	1555.5414	65535	64639.45
894.5923	1557.3247	65535	64638.55
894.735	1559.1074	65535	64640.45
894.8777	1560.8893	65535	64639.35
895.0204	1562.6705	65535	64641.15
895.163	1564.4509	65535	64639.5
895.3056	1566.2305	65535	64640.05
895.4482	1568.0094	65535	64642.25
895.5908	1569.7876	65535	64639.55
895.7334	1571.565	65535	64639.3
895.876	1573.3417	65535	64640.85
896.0186	1575.1176	65535	64639.2
896.1611	1576.8928	65535	64639.95
896.3036	1578.6672	65535	64639.2
896.4461	1580.4409	65535	64643.1
896.5886	1582.2138	65535	64637.35
896.7311	1583.986	65535	64637.85
896.8736	1585.7575	65535	64641.55
897.0161	1587.5282	65535	64641.35
897.1585	1589.2981	65535	64641.5
897.3009	1591.0673	65535	64638.75
897.4433	1592.8358	65535	64639.3
897.5857	1594.6035	65535	64638.4
897.7281	1596.3704	65535	64642.05
897.8705	1598.1366	65535	64640.95
898.0128	1599.9021	65535	64641.2
898.1551	1601.6668	65535	64637
898.2975	1603.4308	65535	64638.9
898.4398	1605.194	65535	64636.3
898.5821	1606.9564	65534.4	64638.25
898.7243	1608.7182	65535	64638.55
898.8666	1610.4791	65535	64642.25
899.0088	1612.2394	65535	64642.8
899.1511	1613.9988	65533.85	64640.5
899.2933	1615.7576	65535	64640.55
899.4355	1617.5156	65535	64636.05
899.5776	1619.2728	65535	64638.05
899.7198	1621.0293	65535	64641.3
899.862	1622.785	65535	64635.7
900.0041	1624.54	65535	64638.6
900.1462	1626.2942	65531.1	64634.9
900.2883	1628.0477	65512.85	64616.1
900.4304	1629.8005	65414	64516.1
900.5725	1631.5525	65511.35	64617.15
900.7145	1633.3037	65351.35	64457.4
900.8566	1635.0542	65264.45	64371.75
900.9986	1636.804	65442.75	64547.8
901.1406	1638.553	64982.55	64006.05
901.2826	1640.3013	65200.25	64307.05
901.4245	1642.0488	64859.2	63964.35
901.5665	1643.7955	65147.7	64255.55
901.7085	1645.5416	64850.5	63955.6
901.8504	1647.2868	64290.6	63397.15
901.9923	1649.0313	64974.85	64081.95
902.1342	1650.7751	64669	63774.05
902.2761	1652.5181	64335	63441.85
902.4179	1654.2604	64461	63566.1
902.5598	1656.0019	64682.15	63789.7
902.7016	1657.7427	64560.55	63667.2
902.8434	1659.4828	65043.05	64149.2
902.9852	1661.222	64404.8	63510.8
903.127	1662.9606	65040.9	64148.6
903.2687	1664.6984	64149.95	63256.3
903.4105	1666.4354	64549.8	63656.05
903.5522	1668.1717	63389.7	62496.85
903.6939	1669.9072	62313.8	61418.3
903.8356	1671.642	62287.3	61392.8
903.9773	1673.3761	61978.25	61087
904.119	1675.1094	61732.35	60839.35
904.2606	1676.8419	60812.65	59917.3
904.4022	1678.5737	61015.9	60122.5
904.5439	1680.3048	60633.4	59740.5
904.6855	1682.0351	60236.85	59344.3
904.827	1683.7646	59890.35	58994.65
904.9686	1685.4934	60152.35	59259
905.1101	1687.2215	58780.25	57888.35
905.2517	1688.9488	59762.05	58870.45
905.3932	1690.6754	57729.4	56835.3
905.5347	1692.4012	58604.65	57713.75
905.6761	1694.1263	58614.7	57722.45
905.8176	1695.8506	57978.05	57084.05
905.9591	1697.5742	57904.5	57010.15
906.1005	1699.297	57593.15	56699.2
906.2419	1701.0191	57622.25	56729.9
906.3833	1702.7404	56798.2	55905.85
906.5246	1704.461	56550.35	55654.35
906.666	1706.1808	56683.85	55788.65
906.8073	1707.8999	56550.95	55658
906.9487	1709.6182	56203.9	55309.4
907.09	1711.3358	56045.2	55151.6
907.2313	1713.0527	55830.65	54940.05
907.3725	1714.7688	55825.65	54927.75
907.5138	1716.4841	54973.1	54078.85
907.655	1718.1987	55223.6	54326.85
907.7962	1719.9126	54955.6	54064.35
907.9374	1721.6257	54901.75	54006.3
908.0786	1723.338	54964.3	54072.4
908.2198	1725.0496	54058	53164.35
908.3609	1726.7605	54039.95	53146.4
908.502	1728.4706	53772.35	52878.85
908.6431	1730.18	53772	52877.05
908.7842	1731.8886	53554.75	52661.9
908.9253	1733.5964	53313.55	52403.75
909.0664	1735.3036	53429.7	52533.65
909.2074	1737.0099	53140.8	52248.5
909.3484	1738.7156	52844.3	51952.15
909.4894	1740.4204	52535.5	51642.7
909.6304	1742.1246	52627.15	51732.2
909.7714	1743.8279	52515.9	51623.25
909.9123	1745.5306	52453.05	51560.25
910.0532	1747.2325	51877.5	50985.55
910.1941	1748.9336	51743.65	50852.55
910.335	1750.634	51539	50645.6
910.4759	1752.3336	51607	50715.9
910.6168	1754.0325	51318.55	50430.05
910.7576	1755.7307	51390.35	50500.2
910.8984	1757.4281	51083.45	50193.65
911.0392	1759.1247	51178.15	50277.35
911.18	1760.8206	50801.85	49903.55
911.3208	1762.5158	50752.15	49857.95
911.4615	1764.2102	50562.1	49670.45
911.6022	1765.9039	50373.95	49482.15
911.7429	1767.5968	50243.9	49351.85
911.8836	1769.289	50098.8	49207.55
912.0243	1770.9804	50005.5	49112
912.1649	1772.6711	49854.3	48961.85
912.3056	1774.361	49695	48803.9
912.4462	1776.0502	49565.25	48672.55
912.5868	1777.7386	49332.9	48438.95
912.7274	1779.4263	49144.9	48252.55
912.8679	1781.1132	49155.7	48261.55
913.0084	1782.7994	48851.65	47959.95
913.149	1784.4849	48843.9	47952.1
913.2895	1786.1696	48612.35	47712.95
913.4299	1787.8535	48477.05	47583.75
913.5704	1789.5367	48287.15	47392.7
913.7108	1791.2192	48193.6	47302.8
913.8513	1792.9009	48028.4	47106
913.9917	1794.5818	47938.8	47045.1
914.132	1796.2621	47749.55	46858.7
914.2724	1797.9415	47640.9	46747.5
914.4128	1799.6202	47467.8	46574.15
914.5531	1801.2982	47377.4	46486.5
914.6934	1802.9755	47222.05	46328.05
914.8337	1804.6519	47111.55	46219.6
914.9739	1806.3277	46936.2	46043.75
915.1142	1808.0027	46633.1	45742.75
915.2544	1809.6769	46621.9	45729.45
915.3946	1811.3504	46490.05	45595.8
915.5348	1813.0231	46328.15	45437.75
915.675	1814.6951	46236.05	45344.55
915.8151	1816.3664	46237	45343.35
915.9553	1818.0369	46023.55	45131.8
916.0954	1819.7067	45882.95	44992.1
916.2355	1821.3757	45770.6	44876.65
916.3755	1823.044	45631.85	44739.05
916.5156	1824.7115	45536.7	44644.3
916.6556	1826.3783	45335.7	44445.55
916.7956	1828.0443	45159.55	44268.95
916.9356	1829.7096	45038.5	44144.95
917.0756	1831.3741	44957.4	44063.25
917.2155	1833.0379	44849.4	43955.75
917.3555	1834.701	44639.5	43746.15
917.4954	1836.3633	44534.85	43643.15
917.6353	1838.0248	44400.3	43505.6
917.7751	1839.6856	44315.35	43424.35
917.915	1841.3457	44251.4	43359.6
918.0548	1843.005	44120.75	43229.9
918.1946	1844.6636	44034.6	43142.55
918.3344	1846.3214	43820.5	42929.55
918.4742	1847.9785	43772.45	42880.95
918.6139	1849.6349	43653.75	42760.55
918.7537	1851.2904	43559.4	42659.4
918.8934	1852.9453	43364.6	42471.9
919.0331	1854.5994	43232.55	42339
919.1727	1856.2528	43279.25	42382.95
919.3124	1857.9054	43116.4	42224.2
919.452	1859.5572	43082.4	42193.25
919.5916	1861.2083	42923.5	42030.25
919.7312	1862.8587	42846.3	41953.25
919.8708	1864.5084	42689.05	41797.25
920.0103	1866.1572	42546.45	41655.65
920.1498	1867.8054	42338.4	41446.35
920.2893	1869.4528	42238.8	41347.8
920.4288	1871.0994	42065.05	41173.1
920.5683	1872.7453	42041.85	41149
920.7077	1874.3905	41921.35	41022.9
920.8471	1876.0349	41724.65	40832
920.9865	1877.6786	41718.35	40825.85
921.1259	1879.3215	41651.3	40759.9
921.2653	1880.9637	41503.95	40611.2
921.4046	1882.6051	41474.15	40582.05
921.5439	1884.2458	41307.25	40413.9
921.6832	1885.8858	41127.35	40236.2
921.8225	1887.525	41021.8	40128.65
921.9617	1889.1634	40828.95	39937.8
922.101	1890.8011	40695.7	39802.5
922.2402	1892.4381	40523.05	39630.3
922.3794	1894.0743	40536.75	39645.4
922.5185	1895.7098	40357.7	39466.95
922.6577	1897.3446	40327.9	39435.6
922.7968	1898.9786	40116.6	39220.15
922.9359	1900.6118	40000.1	39107.4
923.075	1902.2443	39761.8	38868.3
923.214	1903.8761	39712.4	38820.8
923.3531	1905.5071	39467.7	38575.6
923.4921	1907.1374	39349.1	38456.75
923.6311	1908.7669	39231.35	38340.25
923.77	1910.3957	39185.2	38294.95
923.909	1912.0237	38914.15	38022.8
924.0479	1913.651	38873.85	37980.9
924.1868	1915.2776	38761.3	37871
924.3257	1916.9034	38583.3	37693.15
924.4646	1918.5285	38399.1	37508.85
924.6034	1920.1528	38177.35	37283.35
924.7422	1921.7764	38186.55	37295.1
924.881	1923.3992	37984.25	37091.75
925.0198	1925.0213	37759.25	36867
925.1586	1926.6427	37579.65	36689.2
925.2973	1928.2633	37596.05	36587.95
925.436	1929.8832	37352.75	36459.6
925.5747	1931.5023	37191.45	36299.4
925.7134	1933.1207	37097.45	36205.05
925.852	1934.7383	37021.45	36130
925.9906	1936.3552	36852.75	35962.8
926.1292	1937.9714	36706.8	35814.9
926.2678	1939.5868	36587.1	35691.75
926.4064	1941.2015	36335.65	35443.45
926.5449	1942.8154	36185.8	35294.6
926.6834	1944.4286	36013.2	35120.65
926.8219	1946.041	35881.75	34972
926.9604	1947.6528	35716.25	34820.2
927.0988	1949.2637	35627.05	34736.75
927.2372	1950.8739	35477.6	34585.35
927.3756	1952.4834	35410.3	34518.8
927.514	1954.0921	35345.65	34453.55
927.6523	1955.7001	35140.35	34242.4
927.7907	1957.3074	34989.4	34097
927.929	1958.9139	34882.4	33991.2
928.0673	1960.5197	34744.9	33852.3
928.2055	1962.1247	34592.95	33702.3
928.3438	1963.729	34443.5	33554.35
928.482	1965.3325	34294.75	33380.15
928.6202	1966.9353	34182	33291.3
928.7584	1968.5374	34058.75	33165.8
928.8965	1970.1387	33919.45	33025.45
929.0346	1971.7393	33794.5	32903
929.1727	1973.3392	33683.35	32793.1
929.3108	1974.9383	33573.75	32683.6
929.4489	1976.5366	33383.95	32493.6
929.5869	1978.1342	33330.7	32440.45
929.7249	1979.7311	33232.85	32339.85
929.8629	1981.3273	33116.55	32225.95
930.0009	1982.9227	33001.6	32108
930.1388	1984.5173	32887.4	31996.55
930.2767	1986.1112	32687.15	31797.4
930.4146	1987.7044	32641.15	31750.65
930.5525	1989.2968	32502.35	31610.2
930.6904	1990.8885	32452.3	31557.4
930.8282	1992.4795	32324	31432.75
930.966	1994.0697	32174.95	31284.15
931.1038	1995.6592	32067.9	31177.35
931.2415	1997.2479	31967.2	31075.45
931.3793	1998.8359	31842.9	30952.3
931.517	2000.4232	31685.45	30795.45
931.6547	2002.0097	31585.65	30696
931.7923	2003.5955	31394.8	30503.6
931.93	2005.1805	31417.35	30526.1
932.0676	2006.7648	31295.45	30405.05
932.2052	2008.3484	31209	30316.65
932.3427	2009.9312	31167.75	30276
932.4803	2011.5133	31018.5	30127.7
932.6178	2013.0946	30929.55	30037.25
932.7553	2014.6752	30825.45	29936.55
932.8928	2016.2551	30729.1	29837.1
933.0302	2017.8342	30595.15	29704.45
933.1676	2019.4126	30459.35	29569.85
933.305	2020.9902	30325.35	29434.85
933.4424	2022.5672	30241.7	29348.95
933.5798	2024.1433	30176.55	29278.9
933.7171	2025.7188	30044.45	29154
933.8544	2027.2935	29969.7	29077.45
933.9917	2028.8674	29825.3	28936.65
934.129	2030.4406	29726.7	28836.2
934.2662	2032.0131	29584.55	28695.15
934.4034	2033.5849	29472.65	28575.9
934.5406	2035.1559	29403.55	28513.7
934.6778	2036.7261	29376.3	28485.9
934.8149	2038.2957	29243.45	28353.2
934.952	2039.8645	29175.7	28284.65
935.0891	2041.4325	29166.75	28271.25
935.2262	2042.9998	28982.35	28092.2
935.3632	2044.5664	28906.9	28015.05
935.5002	2046.1323	28803.3	27911.15
935.6372	2047.6974	28701.05	27810
935.7742	2049.2617	28642.05	27751.25
935.9111	2050.8254	28552.2	27640.55
936.048	2052.3883	28528.35	27635.1
936.1849	2053.9504	28424.7	27531.85
936.3218	2055.5118	28263	27370
936.4586	2057.0725	28130.8	27234.8
936.5955	2058.6325	28089.9	27198.55
936.7323	2060.1917	28041.25	27150.1
936.869	2061.7502	27951.05	27057.95
937.0058	2063.3079	27796.75	26905.75
937.1425	2064.8649	27689.85	26794.15
937.2792	2066.4212	27598.8	26708.75
937.4159	2067.9767	27521.45	26630.2
937.5525	2069.5315	27430.2	26539.8
937.6891	2071.0856	27287.05	26396.3
937.8257	2072.6389	27173.85	26281.95
937.9623	2074.1915	27050.9	26161.75
938.0989	2075.7433	26918.8	26026
938.2354	2077.2945	26886.9	25997.9
938.3719	2078.8448	26746.3	25856.3
938.5084	2080.3945	26657.55	25763.3
938.6448	2081.9434	26603.75	25711.6
938.7812	2083.4916	26519.15	25626.8
938.9176	2085.039	26380.4	25487.55
939.054	2086.5857	26357.4	25464.15
939.1903	2088.1317	26309.1	25417.15
939.3267	2089.677	26197.65	25304.05
939.463	2091.2215	26104.85	25213.3
939.5992	2092.7652	25990.6	25098.35
939.7355	2094.3083	25947.8	25054.95
939.8717	2095.8506	25910.3	25021.25
940.0079	2097.3921	25866.75	24976.55
940.1441	2098.933	25747.8	24856.45
940.2802	2100.4731	25678.5	24789.8
940.4163	2102.0124	25612.4	24714.45
940.5524	2103.5511	25561.4	24668.2
940.6885	2105.089	25498.65	24606.55
940.8245	2106.6261	25428.85	24538
940.9606	2108.1626	25299.85	24407.25
941.0965	2109.6983	25269.2	24348.6
941.2325	2111.2332	25126.85	24233.35
941.3684	2112.7675	25033.15	24141.8
941.5044	2114.301	24971.3	24079.2
941.6403	2115.8337	24958.15	24066.45
941.7761	2117.3657	24875.9	23981.7
941.912	2118.897	24777.55	23886.55
942.0478	2120.4276	24718.35	23820.6
942.1835	2121.9575	24567.8	23677.1
942.3193	2123.4866	24580.4	23676.85
942.455	2125.0149	24531.15	23637.45
942.5907	2126.5426	24330.75	23437.7
942.7264	2128.0695	24316.85	23422.1
942.8621	2129.5956	24271.45	23379.25
942.9977	2131.1211	24173	23276.25
943.1333	2132.6458	24107.15	23215.4
943.2689	2134.1698	24013.4	23122.15
943.4044	2135.693	23931.95	23039.1
943.54	2137.2155	23917.55	23024.7
943.6755	2138.7373	23810.1	22917.65
943.8109	2140.2584	23732.75	22840.8
943.9464	2141.7787	23685.7	22788.45
944.0818	2143.2983	23502.05	22610.75
944.2172	2144.8171	23377.7	22488.8
944.3526	2146.3353	23293.95	22401.15
944.4879	2147.8527	23255.15	22366.2
944.6232	2149.3693	23212.15	22319.35
944.7585	2150.8853	23142.7	22251.05
944.8938	2152.4005	22980.05	22089.35
945.029	2153.9149	22935.85	22044.25
945.1642	2155.4287	22875.6	21983.9
945.2994	2156.9417	22833.95	21941.1
945.4346	2158.454	22762.2	21869.15
945.5697	2159.9655	22703.95	21813.6
945.7048	2161.4764	22654.4	21762.05
945.8399	2162.9865	22599.85	21706.7
945.9749	2164.4958	22499.05	21605.5
946.1099	2166.0045	22401.7	21505.85
946.2449	2167.5124	22380.85	21490.9
946.3799	2169.0195	22293.4	21402.35
946.5148	2170.526	22242.5	21351.1
946.6498	2172.0317	22154.8	21263.4
946.7846	2173.5367	22068.95	21176.9
946.9195	2175.0409	22013.05	21120.2
947.0543	2176.5445	22004.45	21112.75
947.1891	2178.0473	21906.05	21014.9
947.3239	2179.5494	21824.7	20929.3
947.4587	2181.0507	21739.75	20847.2
947.5934	2182.5513	21620.15	20729.4
947.7281	2184.0512	21594.25	20701.95
947.8628	2185.5504	21525.4	20634.4
947.9974	2187.0488	21399.85	20508.55
948.132	2188.5465	21305.4	20414.1
948.2666	2190.0435	21251.9	20360.15
948.4012	2191.5397	21181.9	20288.65
948.5357	2193.0353	21119	20229.9
948.6702	2194.5301	20966.9	20073.3
948.8047	2196.0241	20897.25	20003.1
948.9392	2197.5175	20827.7	19936.5
949.0736	2199.0101	20759.15	19863.45
949.208	2200.502	20669.1	19778.9
949.3424	2201.9931	20559.2	19667.35
949.4767	2203.4835	20475.05	19581.8
949.611	2204.9733	20459	19561.4
949.7453	2206.4622	20384.2	19493.65
949.8796	2207.9505	20305.55	19411
950.0138	2209.438	20173.1	19283.95
950.148	2210.9248	20116.1	19223.55
950.2822	2212.4109	20063.15	19172.4
950.4164	2213.8962	20002.95	19109
950.5505	2215.3809	19944.95	19052.7
950.6846	2216.8648	19891.75	19000.25
950.8186	2218.3479	19797.3	18900.5
950.9527	2219.8304	19763.85	18869.85
951.0867	2221.3121	19651.5	18758
951.2207	2222.7931	19575.95	18683.55
951.3546	2224.2733	19493.95	18602.4
951.4886	2225.7529	19427.5	18535.5
951.6225	2227.2317	19372.5	18479.1
951.7563	2228.7098	19342.3	18451.75
951.8902	2230.1872	19241.45	18349.65
952.024	2231.6638	19168.95	18277.95
952.1578	2233.1397	19090.5	18193.6
952.2916	2234.6149	19082.65	18191.4
952.4253	2236.0894	18975.2	18082.5
952.559	2237.5632	18919.35	18017.9
952.6927	2239.0362	18838.9	17948.15
952.8263	2240.5085	18795.65	17904.6
952.9599	2241.9801	18694.3	17802.25
953.0935	2243.4509	18635.3	17745.95
953.2271	2244.921	18565.4	17672.85
953.3606	2246.3904	18509.65	17615.55
953.4941	2247.8591	18412	17520.35
953.6276	2249.3271	18369.2	17476.8
953.7611	2250.7943	18321.75	17429.55
953.8945	2252.2608	18226.75	17336.45
954.0279	2253.7266	18187	17296
954.1612	2255.1917	18135.8	17245.25
954.2946	2256.656	18039.75	17146.75
954.4279	2258.1197	18007.15	17114.3
954.5612	2259.5826	17957.35	17063.7
954.6944	2261.0447	17929.95	17037.8
954.8276	2262.5062	17816.25	16924.5
954.9608	2263.9669	17818.9	16924.6
955.094	2265.4269	17742.25	16852.2
955.2271	2266.8862	17678.4	16786
955.3602	2268.3448	17588.7	16699.5
955.4933	2269.8026	17577.25	16683.15
955.6264	2271.2598	17535.5	16642.5
955.7594	2272.7162	17440.1	16548.9
955.8924	2274.1719	17397.75	16506.3
956.0253	2275.6268	17338.05	16448.95
956.1583	2277.0811	17300.6	16407.6
956.2912	2278.5346	17199.35	16308
956.4241	2279.9874	17214.4	16323.15
956.5569	2281.4395	17144.05	16253.65
956.6897	2282.8908	17079.35	16182.3
956.8225	2284.3414	17048.05	16154.25
956.9553	2285.7914	16945.5	16054.1
957.088	2287.2406	16894.2	16002.1
957.2207	2288.689	16814.85	15921.75
957.3534	2290.1368	16751.55	15859.25
957.486	2291.5838	16740.85	15845.25
957.6186	2293.0302	16661.7	15768.15
957.7512	2294.4758	16591.35	15702.65
957.8838	2295.9206	16540.3	15647.75
958.0163	2297.3648	16486.55	15595.65
958.1488	2298.8082	16432.7	15540
958.2813	2300.251	16392.5	15499.35
958.4137	2301.693	16346.5	15453.35
958.5461	2303.1343	16327.8	15435.2
958.6785	2304.5748	16286.3	15396.3
958.8108	2306.0147	16181.55	15288.5
958.9432	2307.4538	16161.15	15265.6
959.0754	2308.8922	16065.8	15175.25
959.2077	2310.3299	16017.7	15125.8
959.3399	2311.7669	15963.85	15072.2
959.4721	2313.2031	15901.75	15009.4
959.6043	2314.6387	15871.3	14980.15
959.7365	2316.0735	15810.8	14919.7
959.8686	2317.5076	15760	14867.4
960.0006	2318.941	15702.9	14811.15
960.1327	2320.3737	15643.25	14752.25
960.2647	2321.8056	15593.65	14699.8
960.3967	2323.2369	15555.45	14663.35
960.5287	2324.6674	15511	14616.95
960.6606	2326.0972	15466.2	14572.75
960.7925	2327.5263	15382.5	14490.7
960.9244	2328.9547	15349.8	14456.4
961.0562	2330.3823	15284.75	14390.5
961.1881	2331.8092	15292	14397.5
961.3198	2333.2355	15213.05	14319.5
961.4516	2334.661	15172.75	14280.75
961.5833	2336.0858	15146.65	14253.55
961.715	2337.5098	15106.6	14216.45
961.8467	2338.9332	15044.85	14152.05
961.9783	2340.3558	14965.85	14071.3
962.1099	2341.7778	14930	14039.35
962.2415	2343.199	14845	13950.4
962.373	2344.6195	14812.15	13920.35
962.5045	2346.0393	14740.4	13849.95
962.636	2347.4583	14689.85	13798.3
962.7675	2348.8767	14686.6	13794.65
962.8989	2350.2943	14633.75	13741.6
963.0303	2351.7113	14587.25	13695.45
963.1617	2353.1275	14527.8	13635.6
963.293	2354.543	14506.25	13605.3
963.4243	2355.9578	14445.9	13553.65
963.5556	2357.3718	14353.85	13462.6
963.6868	2358.7852	14287.05	13395
963.818	2360.1978	14259.2	13368.7
963.9492	2361.6098	14200.05	13309.3
964.0803	2363.021	14160.7	13265.2
964.2114	2364.4315	14135.7	13243.65
964.3425	2365.8413	14059.35	13166.45
964.4736	2367.2504	14001.75	13110.4
964.6046	2368.6587	13930.8	13039.15
964.7356	2370.0664	13863	12971.6
964.8666	2371.4733	13823.95	12932.25
964.9975	2372.8795	13741	12846.9
965.1284	2374.285	13712.8	12820.8
965.2593	2375.6899	13648.85	12758.95
965.3901	2377.0939	13581.8	12690.8
965.5209	2378.4973	13510.1	12618.3
965.6517	2379.9	13476.95	12585.8
965.7825	2381.3019	13446.75	12556
965.9132	2382.7032	13366.8	12479.15
966.0439	2384.1037	13359.5	12469.35
966.1745	2385.5035	13297.25	12405.65
966.3051	2386.9027	13237.1	12347.2
966.4357	2388.3011	13197.1	12303.05
966.5663	2389.6987	13147.15	12254.85
966.6968	2391.0957	13086.8	12195.95
966.8273	2392.492	13036.3	12145.5
966.9578	2393.8876	12995.6	12103.65
967.0882	2395.2824	12925.7	12033.5
967.2186	2396.6765	12873.95	11984.8
967.349	2398.07	12806.85	11916.45
967.4793	2399.4627	12787.8	11897.75
967.6097	2400.8547	12729.05	11838.6
967.7399	2402.246	12689.45	11794.2
967.8702	2403.6366	12626	11734.1
968.0004	2405.0265	12583.55	11691.85
968.1306	2406.4156	12523.2	11627.5
968.2607	2407.8041	12465.55	11571.2
968.3909	2409.1918	12415.75	11522.5
968.521	2410.5789	12384.65	11492.4
968.651	2411.9652	12336.9	11442.6
968.781	2413.3508	12288.65	11396.55
968.911	2414.7358	12219.6	11327.95
969.041	2416.12	12176.85	11286
969.1709	2417.5035	12151.2	11259.9
969.3008	2418.8863	12103.8	11210
969.4307	2420.2684	12059.35	11167.4
969.5606	2421.6497	11999.95	11108.85
969.6904	2423.0304	11931.35	11042.25
969.8201	2424.4104	11915.75	11023.85
969.9499	2425.7896	11869.85	10977.35
970.0796	2427.1682	11829	10936.85
970.2093	2428.546	11802.85	10908.75
970.3389	2429.9232	11771.55	10878.45
970.4685	2431.2996	11730.1	10837.85
970.5981	2432.6753	11708.3	10816.3
970.7277	2434.0503	11679.35	10789.05
970.8572	2435.4246	11592.9	10700.7
970.9867	2436.7982	11568.9	10677.1
971.1161	2438.1711	11524.9	10635.75
971.2456	2439.5433	11493.35	10600.1
971.375	2440.9148	11426.9	10533.1
971.5043	2442.2856	11375.15	10483.35
971.6336	2443.6557	11331.2	10438.65
971.7629	2445.025	11303.1	10415
971.8922	2446.3937	11272.25	10380.85
972.0214	2447.7617	11223.1	10331.9
972.1506	2449.1289	11211.55	10321.7
972.2798	2450.4955	11173.75	10277.8
972.4089	2451.8613	11146.85	10255.95
972.538	2453.2265	11127.85	10235
972.6671	2454.5909	11078.25	10185.25
972.7961	2455.9546	11042.3	10150.45
972.9251	2457.3177	10995.4	10105.4
973.0541	2458.68	10979.8	10086.95
973.1831	2460.0416	10947.6	10055.45
973.312	2461.4025	10930	10037
973.4408	2462.7627	10879.75	9977.5
973.5697	2464.1222	10858.3	9968.2
973.6985	2465.4811	10817.2	9925.35
973.8273	2466.8392	10764.7	9872.9
973.956	2468.1966	10750.8	9858.15
974.0847	2469.5533	10729.9	9837.1
974.2134	2470.9093	10710.3	9816.75
974.3421	2472.2645	10658.4	9763.45
974.4707	2473.6191	10628.65	9736.1
974.5993	2474.973	10583.65	9692
974.7278	2476.3262	10549.2	9657.25
974.8563	2477.6787	10502.3	9612.95
974.9848	2479.0305	10448.05	9558.55
975.1132	2480.3816	10429.45	9537.7
975.2417	2481.7319	10416.25	9523.8
975.37	2483.0816	10330.1	9435.6
975.4984	2484.4306	10305.75	9411.1
975.6267	2485.7789	10272.7	9380.3
975.755	2487.1264	10204.15	9311.4
975.8833	2488.4733	10166.6	9276.35
976.0115	2489.8195	10138.85	9232.3
976.1397	2491.165	10103.35	9209.95
976.2678	2492.5097	10068.2	9175.1
976.3959	2493.8538	9996.35	9104.7
976.524	2495.1972	9943.7	9051.05
976.6521	2496.5398	9901.35	9007.5
976.7801	2497.8818	9894.9	9000.75
976.9081	2499.2231	9862.7	8972.75
977.036	2500.5637	9826.75	8933.2
977.164	2501.9035	9780.8	8887.9
977.2918	2503.2427	9755.95	8861.15
977.4197	2504.5812	9704.35	8812.7
977.5475	2505.919	9693.75	8801.55
977.6753	2507.256	9660.35	8769.65
977.8031	2508.5924	9639.4	8747.9
977.9308	2509.9281	9589.15	8692.15
978.0585	2511.2631	9557.6	8664.7
978.1861	2512.5974	9523.85	8633.55
978.3137	2513.9309	9486.25	8594.25
978.4413	2515.2638	9453.1	8526.9
978.5689	2516.596	9403.75	8510.5
978.6964	2517.9275	9380.7	8488.2
978.8239	2519.2583	9351.3	8458.2
978.9513	2520.5884	9324.3	8431.5
979.0788	2521.9178	9284.65	8393.8
979.2062	2523.2465	9230.75	8340.7
979.3335	2524.5745	9185.2	8291.2
979.4608	2525.9018	9167.95	8275.35
979.5881	2527.2284	9145.85	8256.1
979.7154	2528.5543	9101.95	8211.25
979.8426	2529.8796	9084.95	8193.85
979.9698	2531.2041	9063.75	8172.05
980.0969	2532.5279	9040.15	8148.45
980.224	2533.851	9039.35	8147.4
980.3511	2535.1735	8971.1	8080.65
980.4781	2536.4952	8965.1	8073
980.6052	2537.8163	8960.4	8070.4
980.7321	2539.1366	8922.1	8029.85
980.8591	2540.4562	8876.45	7982.15
980.986	2541.7752	8870	7978.35
981.1129	2543.0935	8835.6	7944.15
981.2397	2544.411	8842.1	7948.75
981.3665	2545.7279	8791.25	7898.8
981.4933	2547.0441	8799.95	7906.65
981.62	2548.3596	8789.15	7894.55
981.7467	2549.6744	8761.4	7869.55
981.8734	2550.9885	8724.45	7830.3
982.0001	2552.3019	8690.25	7798.3
982.1267	2553.6146	8654.35	7762.8
982.2532	2554.9266	8629.45	7737.55
982.3798	2556.2379	8587.05	7694.1
982.5063	2557.5485	8596.9	7705.6
982.6327	2558.8585	8571.55	7671.4
982.7592	2560.1677	8555.2	7659.25
982.8856	2561.4762	8503.6	7610.45
983.0119	2562.7841	8515.05	7621.15
983.1383	2564.0913	8489.65	7600.2
983.2646	2565.3977	8484.35	7593.9
983.3908	2566.7035	8442.8	7553.05
983.517	2568.0086	8423	7530
983.6432	2569.313	8394.75	7502.65
983.7694	2570.6167	8377.3	7483.8
983.8955	2571.9197	8368.25	7477.25
984.0216	2573.222	8349.65	7453.95
984.1476	2574.5236	8319.25	7428.45
984.2737	2575.8246	8308	7413.35
984.3996	2577.1248	8284.65	7390.3
984.5256	2578.4244	8263.65	7371.4
984.6515	2579.7232	8262.5	7372.5
984.7774	2581.0214	8233.65	7318.25
984.9032	2582.3189	8195	7303.1
985.029	2583.6157	8187.15	7289.95
985.1548	2584.9118	8189.5	7298.7
985.2806	2586.2072	8134.7	7244.3
985.4063	2587.5019	8114.4	7224.75
985.5319	2588.7959	8086.1	7193.75
985.6576	2590.0893	8088.35	7194.7
985.7832	2591.3819	8058.9	7167.6
985.9087	2592.6739	7998.25	7104.9
986.0343	2593.9652	8007.75	7115.1
986.1597	2595.2557	7972.35	7081.3
986.2852	2596.5456	7940.55	7048.3
986.4106	2597.8348	7912.7	7020.65
986.536	2599.1234	7862.85	6972.25
986.6614	2600.4112	7848.5	6956.95
986.7867	2601.6983	7823.7	6929.05
986.912	2602.9848	7806.45	6913.2
987.0372	2604.2705	7756.65	6857.4
987.1624	2605.5556	7750.7	6856.55
987.2876	2606.84	7728.9	6837.65
987.4128	2608.1237	7681.65	6789.15
987.5379	2609.4067	7670	6776.9
987.6629	2610.689	7634.2	6733.65
987.788	2611.9707	7624.75	6727.65
987.913	2613.2516	7575.3	6679.45
988.0379	2614.5319	7556.05	6664.2
988.1629	2615.8115	7508.65	6618.5
988.2878	2617.0903	7478.7	6586.05
988.4126	2618.3685	7458.95	6567.3
988.5375	2619.6461	7434.85	6541.95
988.6622	2620.9229	7395.4	6502.6
988.787	2622.199	7404.15	6513.15
988.9117	2623.4745	7383.35	6490.1
989.0364	2624.7493	7348.05	6456.85
989.161	2626.0234	7312.25	6420.25
989.2857	2627.2968	7305.35	6414.85
989.4102	2628.5695	7264.9	6371.55
989.5348	2629.8415	7244.2	6353
989.6593	2631.1128	7196.45	6302.2
989.7837	2632.3835	7156.15	6264.75
989.9082	2633.6535	7121.5	6232.5
990.0326	2634.9228	7134.25	6244.95
990.1569	2636.1914	7082.35	6189.9
990.2812	2637.4593	7074.05	6175.6
990.4055	2638.7265	7058.15	6163.45
990.5298	2639.9931	7029	6136.65
990.654	2641.259	7022.2	6129.8
990.7782	2642.5242	7019.3	6127.15
990.9023	2643.7887	6970.25	6079.25
991.0264	2645.0525	6947.75	6057.5
991.1505	2646.3156	6909.45	6016.75
991.2745	2647.5781	6891.05	6000.95
991.3985	2648.8398	6858.8	5964.75
991.5225	2650.1009	6868.35	5968.25
991.6464	2651.3613	6832.7	5942
991.7703	2652.6211	6818.45	5925.4
991.8942	2653.8801	6798	5907.7
992.018	2655.1385	6791.1	5898.2
992.1418	2656.3961	6763.4	5871.55
992.2655	2657.6531	6739.75	5847.6
992.3892	2658.9094	6729.4	5835.85
992.5129	2660.1651	6694.3	5805.2
992.6366	2661.42	6661.1	5769.5
992.7602	2662.6743	6662.9	5769.55
992.8837	2663.9279	6656.05	5763.6
993.0073	2665.1808	6616.35	5724.05
993.1307	2666.433	6604.9	5711.55
993.2542	2667.6846	6579.15	5688.7
993.3776	2668.9354	6579.1	5684.75
993.501	2670.1856	6554.6	5662.1
993.6244	2671.4351	6552.75	5660.2
993.7477	2672.6839	6545.1	5653.65
993.8709	2673.9321	6512.25	5620.4
993.9942	2675.1795	6495.15	5602.95
994.1174	2676.4263	6479.6	5587.8
994.2405	2677.6724	6456.9	5565.5
994.3637	2678.9179	6454.55	5562.1
994.4868	2680.1626	6416.95	5525.3
994.6098	2681.4067	6399.05	5507.35
994.7328	2682.6501	6385.3	5494.4
994.8558	2683.8928	6343.85	5451.35
994.9788	2685.1348	6313.05	5422
995.1017	2686.3761	6286.9	5393
995.2245	2687.6168	6283.95	5391.2
995.3474	2688.8568	6272.9	5381.75
995.4702	2690.0961	6234.65	5344.75
995.5929	2691.3348	6214.05	5322.25
995.7156	2692.5727	6196.15	5303.8
995.8383	2693.81	6185.65	5293.85
995.961	2695.0466	6147.6	5257.7
996.0836	2696.2826	6137.25	5243.8
996.2062	2697.5178	6126.35	5230.35
996.3287	2698.7524	6106.45	5213.65
996.4512	2699.9863	6098.4	5204.5
996.5737	2701.2195	6078.15	5188.45
996.6961	2702.452	6076.35	5181.75
996.8185	2703.6839	6041.4	5150.1
996.9408	2704.9151	6023	5130.9
997.0631	2706.1456	6011.4	5118.05
997.1854	2707.3755	5992.7	5101.4
997.3077	2708.6046	5964.75	5071.3
997.4299	2709.8331	5971.45	5079.1
997.552	2711.0609	5941.9	5048.95
997.6742	2712.2881	5916.3	5024.7
997.7963	2713.5145	5912.65	5018.6
997.9183	2714.7403	5914	5024.3
998.0403	2715.9654	5874.7	4982.6
998.1623	2717.1899	5882.95	4976.55
998.2842	2718.4136	5873.95	4982
998.4062	2719.6367	5870.8	4978.15
998.528	2720.8591	5870.85	4971.6
998.6498	2722.0809	5842.05	4950.1
998.7716	2723.3019	5846.5	4952.3
998.8934	2724.5223	5834.8	4942.55
999.0151	2725.7421	5804.05	4910.95
999.1368	2726.9611	5818.7	4922.55
999.2584	2728.1795	5777.35	4880.35
999.38	2729.3972	5769.05	4878.35
999.5016	2730.6142	5744.85	4847.45
999.6231	2731.8306	5683.35	4792.55
999.7446	2733.0462	5653.9	4760.75
999.8661	2734.2612	5613.3	4717
999.9875	2735.4756	5565.5	4671.2
1000.1089	2736.6892	5558.2	4666.3
1000.2302	2737.9022	5505.75	4614.05
1000.3515	2739.1145	5478.55	4587.65
1000.4728	2740.3262	5454.9	4554.95
1000.594	2741.5372	5439.4	4547.5
1000.7152	2742.7475	5382.4	4490.25
1000.8363	2743.9571	5375	4481.95
1000.9575	2745.1661	5359.2	4461.25
1001.0785	2746.3744	5344.3	4451.85
1001.1996	2747.582	5330	4439.2
1001.3206	2748.7889	5283.8	4390.95
1001.4415	2749.9952	5259.25	4370.4
1001.5625	2751.2008	5244.95	4354.05
1001.6833	2752.4057	5242.5	4347.55
1001.8042	2753.61	5205.75	4312.85
1001.925	2754.8136	5195.4	4300.9
1002.0458	2756.0165	5164.95	4274.95
1002.1665	2757.2188	5138.05	4246.6
1002.2872	2758.4204	5125.05	4235.35
1002.4078	2759.6213	5111.65	4218.5
1002.5285	2760.8215	5116.7	4221.6
1002.649	2762.0211	5105	4212
1002.7696	2763.22	5082.15	4187.55
1002.8901	2764.4182	5053.55	4160
1003.0106	2765.6158	5031.2	4139.95
1003.131	2766.8127	5020.3	4127.8
1003.2514	2768.009	4992.55	4101.05
1003.3717	2769.2045	4982.15	4089.55
1003.492	2770.3994	4967.2	4074.25
1003.6123	2771.5936	4952.9	4059.85
1003.7325	2772.7872	4934.9	4043.85
1003.8527	2773.9801	4919.3	4025.9
1003.9729	2775.1723	4910.05	4002.15
1004.093	2776.3639	4887.6	3996.2
1004.2131	2777.5548	4874.75	3981
1004.3331	2778.745	4862.3	3968.6
1004.4531	2779.9346	4846.35	3953.5
1004.5731	2781.1235	4827.85	3934.85
1004.693	2782.3117	4815.35	3924.75
1004.8129	2783.4992	4809.5	3919.2
1004.9328	2784.6861	4791.8	3898.75
1005.0526	2785.8723	4794.5	3901.45
1005.1723	2787.0579	4782.2	3890
1005.2921	2788.2428	4775.45	3885.2
1005.4118	2789.427	4759.3	3869
1005.5314	2790.6106	4773.85	3880.55
1005.651	2791.7935	4754.35	3860
1005.7706	2792.9757	4745.4	3853.45
1005.8902	2794.1573	4749.7	3857
1006.0097	2795.3382	4738.9	3848.05
1006.1291	2796.5184	4732.65	3842.05
1006.2485	2797.698	4748.25	3854.25
1006.3679	2798.8769	4731.2	3838.7
1006.4873	2800.0551	4758.35	3867.95
1006.6066	2801.2327	4747.45	3851.6
1006.7258	2802.4096	4740.8	3847.4
1006.8451	2803.5859	4745.55	3853.25
1006.9642	2804.7615	4744.05	3852.65
1007.0834	2805.9364	4739.25	3847.25
1007.2025	2807.1106	4785.9	3894.45
1007.3216	2808.2842	4794.45	3901.65
1007.4406	2809.4572	4806.2	3915.95
1007.5596	2810.6294	4836	3943.9
1007.6785	2811.801	4879.3	3989.2
1007.7975	2812.972	4896.95	4005.9
1007.9163	2814.1423	4917.1	4024.35
1008.0352	2815.3119	4957.9	4066.25
1008.154	2816.4808	5009.85	4120.6
1008.2727	2817.6491	5048.2	4156.25
1008.3914	2818.8167	5069	4179.8
1008.5101	2819.9837	5096.55	4201.3
1008.6288	2821.15	5148.25	4257.2
1008.7474	2822.3157	5173.45	4284.2
1008.8659	2823.4807	5209.6	4318.55
1008.9844	2824.645	5246	4353.6
1009.1029	2825.8086	5284.7	4392.25
1009.2214	2826.9716	5301.25	4410.55
1009.3398	2828.134	5356.25	4464.9
1009.4581	2829.2957	5371.1	4478.75
1009.5764	2830.4567	5388.65	4498.9
1009.6947	2831.617	5391.6	4500.75
1009.813	2832.7767	5401.65	4510.35
1009.9312	2833.9358	5387.05	4496.8
1010.0493	2835.0941	5373	4479.4
1010.1675	2836.2519	5342.85	4453.05
1010.2855	2837.4089	5324.7	4431.8
1010.4036	2838.5653	5302.75	4410.25
1010.5216	2839.7211	5305.3	4415.25
1010.6396	2840.8761	5286.25	4394.55
1010.7575	2842.0306	5313.8	4424.3
1010.8754	2843.1843	5362.35	4470.55
1010.9932	2844.3374	5377.9	4486.55
1011.111	2845.4899	5431.05	4540.35
1011.2288	2846.6417	5497.1	4606.05
1011.3465	2847.7928	5585.85	4694.15
1011.4642	2848.9433	5635.6	4744.55
1011.5818	2850.0931	5705.9	4814.6
1011.6995	2851.2422	5789.05	4895.85
1011.817	2852.3907	5840.7	4947.95
1011.9345	2853.5385	5892.05	4998.95
1012.052	2854.6857	5965.65	5047.4
1012.1695	2855.8323	5965.85	5078.15
1012.2869	2856.9781	6019.9	5128.65
1012.4042	2858.1233	6065.3	5175.45
1012.5216	2859.2679	6099.05	5209
1012.6389	2860.4118	6117.65	5225.15
1012.7561	2861.555	6155.9	5259.1
1012.8733	2862.6976	6168.9	5275.05
1012.9905	2863.8395	6176.75	5286.55
1013.1076	2864.9808	6195.05	5304
1013.2247	2866.1214	6205.15	5313.65
1013.3417	2867.2614	6207.55	5315.15
1013.4587	2868.4007	6221.2	5330.15
1013.5757	2869.5393	6211.55	5318.6
1013.6926	2870.6773	6208.4	5312.35
1013.8095	2871.8146	6236.15	5340.4
1013.9263	2872.9513	6200.7	5305.95
1014.0431	2874.0874	6180.5	5289.6
1014.1599	2875.2227	6155.95	5265.2
1014.2766	2876.3574	6142.15	5251.9
1014.3933	2877.4915	6107.15	5215.9
1014.51	2878.6249	6070.45	5180.1
1014.6266	2879.7577	6043.45	5150.05
1014.7431	2880.8898	6001.9	5100.15
1014.8596	2882.0212	5976.75	5086.9
1014.9761	2883.152	5962.55	5069.95
1015.0925	2884.2821	5919.4	5028.3
1015.2089	2885.4116	5913.5	5020.3
1015.3253	2886.5405	5902.15	5012.5
1015.4416	2887.6686	5900.4	5004.85
1015.5579	2888.7962	5879.4	4989.3
1015.6741	2889.923	5888.55	4998
1015.7903	2891.0493	5883.65	4992.8
1015.9065	2892.1748	5898.05	5007.25
1016.0226	2893.2997	5882.6	4988.95
1016.1387	2894.424	5880.8	4991.65
1016.2547	2895.5476	5900.45	5009.95
1016.3707	2896.6706	5910.05	5019.7
1016.4866	2897.7929	5923.3	5031.9
1016.6025	2898.9145	5938.85	5046.95
1016.7184	2900.0355	5964.1	5069.9
1016.8342	2901.1559	5986.65	5094.6
1016.95	2902.2756	6020.2	5128.6
1017.0658	2903.3946	6037.65	5147.8
1017.1815	2904.513	6057.75	5164.8
1017.2971	2905.6308	6064.05	5174.65
1017.4127	2906.7479	6085.85	5195.85
1017.5283	2907.8643	6101.8	5208.7
1017.6439	2908.9801	6088	5195.55
1017.7594	2910.0953	6083.45	5192.2
1017.8748	2911.2098	6072.55	5178.75
1017.9902	2912.3236	6069.45	5168.3
1018.1056	2913.4368	6056.3	5160.85
1018.2209	2914.5494	6016.95	5123.8
1018.3362	2915.6613	5974.05	5077.85
1018.4515	2916.7725	5926.35	5034.05
1018.5667	2917.8831	5906.5	5014.95
1018.6819	2918.9931	5863.4	4968.45
1018.797	2920.1024	5823.3	4929.95
1018.9121	2921.211	5800.55	4908.55
1019.0271	2922.319	5779.5	4887.55
1019.1421	2923.4264	5773.15	4881.7
1019.2571	2924.5331	5710.75	4820.35
1019.372	2925.6391	5705.7	4813.8
1019.4869	2926.7445	5683.45	4793.45
1019.6017	2927.8493	5675.3	4782.4
1019.7165	2928.9534	5658.25	4766.05
1019.8313	2930.0569	5641.7	4747.1
1019.946	2931.1597	5631.35	4739.5
1020.0606	2932.2619	5610.05	4718.95
1020.1753	2933.3634	5592.55	4701.6
1020.2899	2934.4643	5582.9	4685.25
1020.4044	2935.5645	5555.8	4659.6
1020.5189	2936.6641	5504.95	4609.1
1020.6334	2937.763	5437.05	4545.55
1020.7478	2938.8613	5372.05	4480.25
1020.8622	2939.959	5313.7	4417.15
1020.9765	2941.056	5250.35	4359.15
1021.0908	2942.1523	5146.85	4255.2
1021.2051	2943.248	5050.85	4157.65
1021.3193	2944.3431	4963.05	4073.15
1021.4334	2945.4375	4851.45	3959.5
1021.5476	2946.5313	4723.75	3833.4
1021.6617	2947.6244	4611.55	3720.8
1021.7757	2948.7169	4507.25	3616.4
1021.8897	2949.8087	4408.35	3517.55
1022.0037	2950.8999	4297.45	3406.35
1022.1176	2951.9904	4212	3322.9
1022.2315	2953.0803	4126.5	3235.15
1022.3453	2954.1696	4046.45	3154.55
1022.4591	2955.2582	4005.9	3115.1
1022.5728	2956.3462	3931.15	3039.75
1022.6865	2957.4335	3891.6	3001.35
1022.8002	2958.5202	3854	2959.45
1022.9138	2959.6062	3795.85	2906.5
1023.0274	2960.6916	3778.85	2886.8
1023.141	2961.7764	3741.95	2849.6
1023.2545	2962.8605	3736.45	2844.65
1023.3679	2963.9439	3710	2820.8
1023.4813	2965.0267	3691.55	2799.65
1023.5947	2966.1089	3697.1	2782.55
1023.708	2967.1905	3653.95	2764.45
1023.8213	2968.2714	3654.3	2764.1
1023.9346	2969.3516	3636.6	2746.35
1024.0478	2970.4312	3636.55	2738.5
1024.1609	2971.5102	3633.7	2742.1
1024.274	2972.5885	3622	2730.7
1024.3871	2973.6662	3613.6	2716.55
1024.5002	2974.7432	3599.95	2710.1
1024.6132	2975.8196	3575.6	2684.7
1024.7261	2976.8954	3566.1	2676.1
1024.839	2977.9705	3533.1	2643.2
1024.9519	2979.045	3527.1	2634.35
1025.0647	2980.1188	3497.35	2606.6
1025.1775	2981.192	3470.8	2580.7
1025.2902	2982.2645	3445.55	2552.45
1025.4029	2983.3364	3419.4	2526.7
1025.5156	2984.4077	3382.35	2489.55
1025.6282	2985.4783	3340.95	2443.55
1025.7407	2986.5483	3304.1	2414.6
1025.8532	2987.6177	3263.05	2373.1
1025.9657	2988.6864	3220.15	2330.8
1026.0782	2989.7545	3186.65	2294.4
1026.1906	2990.8219	3149.65	2259.85
1026.3029	2991.8887	3119.8	2226
1026.4152	2992.9548	3068.65	2178.15
1026.5275	2994.0204	3039.8	2151.25
1026.6397	2995.0852	3006.85	2116.65
1026.7519	2996.1495	2979.45	2086.35
1026.864	2997.2131	2936.85	2048.15
1026.9761	2998.276	2911.6	2021.35
1027.0882	2999.3383	2891.7	1999.1
1027.2002	3000.4	2870.35	1977.45
1027.3122	3001.4611	2837.35	1946.3
1027.4241	3002.5215	2825.35	1934.45
1027.536	3003.5812	2810.35	1918.8
1027.6478	3004.6404	2781.1	1890.5
1027.7596	3005.6989	2768.1	1877.2
1027.8714	3006.7567	2761.9	1871.5
1027.9831	3007.8139	2773.15	1858.5
1028.0947	3008.8705	2732.75	1840.55
1028.2064	3009.9264	2729.3	1834.35
1028.3179	3010.9818	2707.35	1816.55
1028.4295	3012.0364	2703.25	1811
1028.541	3013.0905	2690.65	1801
1028.6524	3014.1439	2678.95	1788.15
1028.7638	3015.1966	2701.25	1811.05
1028.8752	3016.2487	2673.6	1781.5
1028.9865	3017.3002	2680.3	1782.75
1029.0978	3018.3511	2667.9	1776.35
1029.209	3019.4013	2655.45	1764.4
1029.3202	3020.4509	2658.35	1767.8
1029.4314	3021.4998	2655.9	1764.6
1029.5425	3022.5481	2650.7	1760.35
1029.6535	3023.5958	2642.2	1751.7
1029.7645	3024.6428	2634.55	1742.3
1029.8755	3025.6892	2625.4	1735.65
1029.9864	3026.735	2621.35	1730.9
1030.0973	3027.7802	2616.3	1724.7
1030.2082	3028.8247	2623.1	1733.65
1030.319	3029.8685	2611.3	1719.45
1030.4297	3030.9118	2616	1724.2
1030.5404	3031.9544	2616.45	1726.2
1030.6511	3032.9963	2599.8	1707.2
1030.7617	3034.0376	2600.75	1709.85
1030.8723	3035.0783	2607.1	1715.4
1030.9829	3036.1184	2605.2	1712.45
1031.0934	3037.1578	2603.6	1715
1031.2038	3038.1966	2610.7	1718.2
1031.3142	3039.2348	2597.4	1707.6
1031.4246	3040.2723	2590.55	1692.85
1031.5349	3041.3092	2589.15	1698.45
1031.6452	3042.3455	2576.8	1687.15
1031.7554	3043.3811	2550.55	1661.45
1031.8656	3044.4161	2556.95	1666.2
1031.9758	3045.4505	2553.75	1663.75
1032.0859	3046.4842	2521.3	1629.9
1032.1959	3047.5173	2512.5	1623.05
1032.3059	3048.5498	2512.95	1620.85
1032.4159	3049.5816	2493.5	1602.45
1032.5258	3050.6128	2490.85	1599.7
1032.6357	3051.6434	2478.15	1586.7
1032.7455	3052.6734	2470.65	1579.95
1032.8553	3053.7027	2461.75	1571.45
1032.9651	3054.7314	2442.95	1551.65
1033.0748	3055.7594	2437.6	1547.8
1033.1845	3056.7868	2421.15	1529.4
1033.2941	3057.8136	2418.85	1531
1033.4037	3058.8398	2406.8	1517.75
1033.5132	3059.8653	2395.85	1502.8
1033.6227	3060.8902	2373.85	1484.05
1033.7321	3061.9145	2374.6	1485.15
1033.8415	3062.9381	2362.5	1471.45
1033.9509	3063.9612	2367.3	1461.35
1034.0602	3064.9835	2335.35	1444.85
1034.1694	3066.0053	2327.65	1434.65
1034.2787	3067.0264	2326.25	1436.75
1034.3878	3068.0469	2308.65	1415.7
1034.497	3069.0668	2308.6	1414.45
1034.6061	3070.086	2287.8	1399.35
1034.7151	3071.1046	2277	1384.6
1034.8241	3072.1226	2263.25	1373.35
1034.9331	3073.1399	2243.9	1354.8
1035.042	3074.1567	2234.65	1342.4
1035.1508	3075.1727	2218.6	1327.3
1035.2597	3076.1882	2201.4	1310.8
1035.3684	3077.203	2193.5	1303.35
1035.4772	3078.2173	2186.95	1295.2
1035.5859	3079.2308	2178.7	1285.25
1035.6945	3080.2438	2151.4	1259.35
1035.8031	3081.2561	2140.9	1251.25
1035.9117	3082.2678	2134.6	1244.25
1036.0202	3083.2789	2125.85	1235.95
1036.1286	3084.2893	2110.25	1219.4
1036.2371	3085.2991	2103.75	1212.9
1036.3454	3086.3083	2104.2	1210.9
1036.4538	3087.3169	2084.6	1192.05
1036.562	3088.3248	2072.05	1179.9
1036.6703	3089.3321	2070.3	1179.05
1036.7785	3090.3388	2061.15	1173
1036.8866	3091.3449	2048.45	1158.7
1036.9948	3092.3503	2059.55	1166.35
1037.1028	3093.3551	2031.05	1142.2
1037.2108	3094.3593	2024.35	1134.65
1037.3188	3095.3629	2022.7	1133.95
1037.4267	3096.3658	2010.35	1118.1
1037.5346	3097.3681	1994.7	1102.6
1037.6425	3098.3698	2001.1	1109.3
1037.7503	3099.3708	1998.75	1101.9
1037.858	3100.3713	1983.15	1092.85
1037.9657	3101.3711	1976	1085.35
1038.0734	3102.3702	2072.05	1066.85
1038.181	3103.3688	1974.15	1082.25
1038.2886	3104.3667	1963.35	1074.15
1038.3961	3105.364	1955	1065.5
1038.5036	3106.3607	1941.45	1048.85
1038.611	3107.3568	1937.4	1044.35
1038.7184	3108.3522	1925.6	1033.75
1038.8257	3109.347	1923.3	1033.75
1038.933	3110.3412	1917	1021.65
1039.0403	3111.3348	1918	1027.5
1039.1475	3112.3277	1904.6	1014.9
1039.2547	3113.32	1898.15	1008
1039.3618	3114.3117	1897.4	1006.55
1039.4689	3115.3028	1881.15	991.75
1039.5759	3116.2932	1880.9	987.3
1039.6829	3117.2831	1875.25	978.95
1039.7898	3118.2723	1876.3	986
1039.8967	3119.2608	1861.25	971.05
1040.0035	3120.2488	1865.85	975.8
1040.1103	3121.2361	1849.75	958.25
1040.2171	3122.2229	1846.65	956.3
1040.3238	3123.209	1846.4	955.55
1040.4305	3124.1944	1833.95	944.4
1040.5371	3125.1793	1838	946.6
1040.6437	3126.1635	1822.2	932.8
1040.7502	3127.1471	1816.95	927.8
1040.8567	3128.1301	1817.5	927.2
1040.9631	3129.1125	1810.1	920.95
1041.0695	3130.0942	1806.85	914.85
1041.1759	3131.0753	1809.4	910.5
1041.2822	3132.0558	1812.4	917.7
1041.3884	3133.0357	1788.3	897.5
1041.4946	3134.015	1784.7	893.9
1041.6008	3134.9936	1778.1	887.2
1041.7069	3135.9716	1805.25	894.35
1041.813	3136.949	1773.9	882.35
1041.919	3137.9258	1771.9	874.75
1042.025	3138.902	1763.75	867.4
1042.1309	3139.8775	1753.4	864.4
1042.2368	3140.8524	1764.25	875.85
1042.3427	3141.8267	1757.2	865.15
1042.4485	3142.8004	1754.15	863.4
1042.5542	3143.7735	1747.6	851.95
1042.6599	3144.7459	1753.6	862.3
1042.7656	3145.7178	1738.85	845.8
1042.8712	3146.689	1729.2	839.6
1042.9768	3147.6596	1725.5	834.45
1043.0823	3148.6295	1720.8	830.6
1043.1878	3149.5989	1720	828.75
1043.2932	3150.5676	1706	817.75
1043.3986	3151.5357	1710.35	821.5
1043.5039	3152.5032	1704.05	815
1043.6092	3153.4701	1694.1	803.15
1043.7145	3154.4364	1693.15	798.6
1043.8197	3155.402	1693.3	804.9
1043.9248	3156.367	1686.6	796.05
1044.03	3157.3315	1717.4	783.05
1044.135	3158.2952	1670.2	778
1044.24	3159.2584	1669.6	779.5
1044.345	3160.221	1670.3	781.2
1044.4499	3161.1829	1655.4	764.8
1044.5548	3162.1442	1651.6	761.25
1044.6596	3163.105	1660.8	769.5
1044.7644	3164.065	1645.4	755.1
1044.8692	3165.0245	1649.6	757.3
1044.9739	3165.9834	1638.8	752.4
1045.0785	3166.9416	1640.7	753.25
1045.1831	3167.8993	1627.7	739.65
1045.2877	3168.8563	1632.35	742.85
1045.3922	3169.8127	1628.9	740.55
1045.4966	3170.7684	1618.85	726.95
1045.6011	3171.7236	1611.55	718.7
1045.7054	3172.6782	1609.1	718.45
1045.8098	3173.6321	1607.8	716.65
1045.914	3174.5854	1597.85	704.25
1046.0183	3175.5381	1600.8	711.4
1046.1224	3176.4902	1594.65	704.8
1046.2266	3177.4417	1587.85	700.25
1046.3307	3178.3926	1593.45	703.2
1046.4347	3179.3428	1583.65	696.55
1046.5387	3180.2924	1576.4	685.6
1046.6427	3181.2415	1581.45	690.2
1046.7466	3182.1899	1575.15	683.4
1046.8504	3183.1377	1571.4	680.75
1046.9542	3184.0848	1571.05	678.8
1047.058	3185.0314	1559.3	668.35
1047.1617	3185.9773	1556.35	666.55
1047.2654	3186.9227	1551.9	662.1
1047.369	3187.8674	1547	656.9
1047.4726	3188.8115	1549.4	655.55
1047.5761	3189.755	1541.5	651.9
1047.6796	3190.6979	1534.85	644.3
1047.783	3191.6402	1533.65	644.1
1047.8864	3192.5818	1530.55	640.7
1047.9898	3193.5229	1546.35	642.7
1048.0931	3194.4633	1527.3	637.9
1048.1963	3195.4031	1517.4	627.5
1048.2995	3196.3423	1524	634.35
1048.4027	3197.2809	1515.35	626.35
1048.5058	3198.2189	1512.15	622.45
1048.6089	3199.1563	1514.95	619.7
1048.7119	3200.0931	1509.65	621.65
1048.8148	3201.0292	1503.5	613.3
1048.9178	3201.9648	1494.15	602.35
1049.0206	3202.8997	1500.1	606.4
1049.1235	3203.834	1490.25	600.9
1049.2262	3204.7677	1489.9	601.1
1049.329	3205.7008	1488.45	597.5
1049.4317	3206.6333	1486.4	596.95
1049.5343	3207.5652	1485.35	594.75
1049.6369	3208.4964	1478.05	586.1
1049.7394	3209.4271	1481.75	592.5
1049.8419	3210.3571	1479.55	589.1
1049.9444	3211.2865	1470.1	580.9
1050.0468	3212.2154	1466.65	576.5
1050.1491	3213.1436	1473.9	581
1050.2514	3214.0712	1470.7	574.2
1050.3537	3214.9982	1462.5	572.7
1050.4559	3215.9246	1455.7	563.7
1050.5581	3216.8503	1449.95	560.9
1050.6602	3217.7755	1451.5	562.05
1050.7623	3218.7001	1451.85	562.6
1050.8643	3219.624	1445.5	556.25
1050.9663	3220.5473	1448.9	559.2
1051.0682	3221.4701	1443.15	552.65
1051.1701	3222.3922	1436.75	544.6
1051.2719	3223.3137	1428.4	539.15
1051.3737	3224.2346	1434.4	543.95
1051.4754	3225.1549	1428.4	539.75
1051.5771	3226.0746	1423.8	534.5
1051.6788	3226.9937	1427.2	535.6
1051.7804	3227.9121	1413	523.8
1051.8819	3228.83	1417.65	528.65
1051.9834	3229.7473	1405.55	517.2
1052.0849	3230.6639	1406.95	518.4
1052.1863	3231.5799	1407.9	519.6
1052.2876	3232.4954	1410.15	519.6
1052.3889	3233.4102	1400.6	509.35
1052.4902	3234.3244	1397.75	508.45
1052.5914	3235.238	1397.7	509.6
1052.6926	3236.151	1408.5	495.35
1052.7937	3237.0634	1390.05	501.75
1052.8948	3237.9752	1390.35	499.45
1052.9958	3238.8864	1386.2	496.2
1053.0968	3239.797	1385.4	496.8
1053.1977	3240.7069	1380.9	490.2
1053.2986	3241.6163	1379.6	487.85
1053.3994	3242.5251	1368.3	480.7
1053.5002	3243.4332	1370.7	484.05
1053.6009	3244.3408	1367.45	476.6
1053.7016	3245.2477	1363.05	473.9
1053.8022	3246.154	1369	479
1053.9028	3247.0598	1365.1	475.45
1054.0034	3247.9649	1356.5	465.7
1054.1039	3248.8694	1354.15	463.2
1054.2043	3249.7733	1349.45	460.2
1054.3047	3250.6766	1343.75	453.65
1054.4051	3251.5793	1350.3	460.1
1054.5054	3252.4814	1340.2	449.8
1054.6056	3253.3829	1333.15	444.4
1054.7058	3254.2838	1339	449.7
1054.806	3255.1841	1336.05	448.2
1054.9061	3256.0838	1335.15	445.7
1055.0061	3256.9829	1331.25	442.1
1055.1062	3257.8814	1321.4	430
1055.2061	3258.7792	1317.05	425.2
1055.306	3259.6765	1317.75	426.55
1055.4059	3260.5731	1312.4	421.3
1055.5057	3261.4692	1303.55	414.4
1055.6055	3262.3647	1302.85	414.35
1055.7052	3263.2595	1294.65	405.1
1055.8049	3264.1538	1283.4	393.35
1055.9045	3265.0474	1280.05	391.8
1056.0041	3265.9404	1277	389.2
1056.1036	3266.8329	1273.25	384.7
1056.2031	3267.7247	1272.4	372
1056.3025	3268.616	1254.15	366
1056.4019	3269.5066	1245.4	356.1
1056.5013	3270.3966	1233.25	341.6
1056.6005	3271.286	1235.85	348.35
