Software Version:	3.9.2.0
Unit SN:	10000200
Spectrometer SN:	6960
Date:	3/6/2024 10:42:02 AM
Data Line Index:	25
Spectral Points:	2048
Integration time (ms):	125
Averages:	20
Delay (ms):	30
Sequence Number:	1
Processing:	dark subtract
Laser Power (mW):	300
Laser Current (mA):	822
Laser Diode Temp (C):	25
Laser Case Temp (C):	27
System Temp (C):	26.8
Spectrometer Temp (C):	24.1
CCD Temp (C):	0.016
Secondary Temp (C):	20.01
Heatsink Temp (C):	22.609
CCDPCB Temp (C):	36.451
SecondaryPCB Temp (C):	33.183

Wavelength	RamanShift	Raw Counts	Dark Subtracted
787.061	30.1047	1114.2	703
787.2016	32.3739	1142.6	733.85
787.3422	34.6426	1186.05	774.7
787.4828	36.9109	1238.7	826.35
787.6235	39.1787	1289.85	871.9
787.7642	41.4461	1349.95	927.8
787.9049	43.7131	1413.4	988.2
788.0456	45.9796	1473.15	1044.5
788.1863	48.2456	1544.5	1112.7
788.3271	50.5112	1619.65	1184.5
788.4679	52.7764	1694.05	1254.35
788.6087	55.0411	1762.9	1319.65
788.7496	57.3054	1847.05	1398.35
788.8904	59.5692	1934.35	1483.1
789.0313	61.8326	2042.2	1587
789.1722	64.0955	2127.25	1666.9
789.3132	66.3579	2268.75	1806.35
789.4541	68.6199	2415.75	1949.8
789.5951	70.8815	2661.05	2192.25
789.7361	73.1426	3177.35	2701.6
789.8771	75.4032	4472	3992.25
790.0181	77.6634	7774.5	7291.95
790.1592	79.9231	16434.45	15946.8
790.3003	82.1824	53596.75	53097
790.4414	84.4412	65535	65014.65
790.5825	86.6995	65535	64984
790.7237	88.9574	65535	64962.15
790.8648	91.2148	65535	64946.4
791.006	93.4717	65535	64931.85
791.1472	95.7282	65535	64927.2
791.2885	97.9842	65535	64922.6
791.4297	100.2398	65535	64923.3
791.571	102.4949	65535	64916.35
791.7123	104.7495	65535	64914.6
791.8536	107.0036	65535	64914.9
791.9949	109.2573	65535	64914.75
792.1363	111.5105	65535	64915.4
792.2777	113.7632	65535	64912.4
792.4191	116.0154	65535	64897
792.5605	118.2672	65535	64907.45
792.7019	120.5185	65535	64907.05
792.8434	122.7693	65535	64902.2
792.9849	125.0197	65535	64898.15
793.1264	127.2696	65535	64894.15
793.2679	129.519	65535	64891.95
793.4094	131.7679	65535	64887.1
793.551	134.0163	65535	64880.5
793.6926	136.2642	65535	64883
793.8342	138.5117	65535	64871.25
793.9758	140.7587	65535	64879.35
794.1175	143.0052	65535	64878.45
794.2591	145.2512	65535	64874.55
794.4008	147.4967	65535	64876.75
794.5425	149.7417	65535	64872.45
794.6842	151.9863	65535	64869
794.826	154.2304	65535	64862.95
794.9677	156.4739	65535	64859.5
795.1095	158.717	65535	64859.45
795.2513	160.9596	65535	64854.35
795.3931	163.2017	65535	64855.55
795.535	165.4433	65535	64854.2
795.6768	167.6844	65535	64850.8
795.8187	169.925	65535	64847.8
795.9606	172.1651	65535	64843.7
796.1025	174.4047	65535	64839.95
796.2445	176.6439	65535	64835.7
796.3864	178.8825	65535	64837.25
796.5284	181.1206	65535	64828.65
796.6704	183.3582	65535	64828.3
796.8124	185.5954	65535	64824.9
796.9544	187.832	65535	64823.1
797.0965	190.0681	65535	64817.65
797.2386	192.3037	65535	64816.65
797.3806	194.5388	65535	64815.65
797.5228	196.7734	65535	64812.3
797.6649	199.0075	65535	64807.05
797.807	201.2411	65535	64810.35
797.9492	203.4742	65535	64808.25
798.0914	205.7068	65535	64803.2
798.2336	207.9389	65535	64801.95
798.3758	210.1704	65535	64803.1
798.518	212.4015	65535	64802.95
798.6603	214.632	65535	64810.4
798.8025	216.862	65535	64818.55
798.9448	219.0915	65535	64821.45
799.0871	221.3205	65535	64816.75
799.2294	223.549	65535	64823.6
799.3718	225.777	65535	64822.6
799.5141	228.0044	65535	64817.85
799.6565	230.2314	65535	64819.05
799.7989	232.4578	65535	64815.95
799.9413	234.6837	65535	64810.85
800.0837	236.909	65535	64809.35
800.2262	239.1339	65535	64782.9
800.3687	241.3582	65535	64793.95
800.5111	243.582	65535	64765.45
800.6536	245.8053	65535	64777.55
800.7961	248.0281	65535	64782.05
800.9387	250.2503	65535	64777.05
801.0812	252.472	65535	64774
801.2238	254.6932	65535	64775
801.3664	256.9139	65535	64774.55
801.509	259.134	65535	64770.65
801.6516	261.3536	65535	64770.35
801.7942	263.5727	65535	64770.05
801.9369	265.7912	65535	64772.9
802.0795	268.0092	65535	64767.65
802.2222	270.2267	65535	64765.6
802.3649	272.4436	65535	64768.95
802.5076	274.6601	65535	64758.05
802.6504	276.8759	65535	64761.9
802.7931	279.0913	65535	64755.75
802.9359	281.3061	65535	64761.35
803.0787	283.5204	65535	64758.5
803.2215	285.7341	65535	64754.2
803.3643	287.9473	65535	64740.6
803.5071	290.16	65535	64749.15
803.6499	292.3721	65535	64754.5
803.7928	294.5837	65535	64754.75
803.9357	296.7947	65535	64758.55
804.0786	299.0052	65535	64756.6
804.2215	301.2152	65535	64752.8
804.3644	303.4246	65535	64756.7
804.5074	305.6334	65535	64753.55
804.6503	307.8418	65535	64752.45
804.7933	310.0495	65535	64748.65
804.9363	312.2568	65535	64746.05
805.0793	314.4635	65535	64748.55
805.2223	316.6696	65535	64745.4
805.3653	318.8752	65535	64732.25
805.5084	321.0802	65535	64744.75
805.6514	323.2847	65535	64742.75
805.7945	325.4887	65535	64740.85
805.9376	327.692	65535	64740.15
806.0807	329.8949	65535	64741.1
806.2238	332.0972	65535	64738.7
806.367	334.2989	65535	64734.25
806.5101	336.5001	65535	64735.9
806.6533	338.7007	65535	64731.55
806.7965	340.9008	65535	64735.3
806.9397	343.1003	65535	64731.5
807.0829	345.2992	65535	64730.1
807.2261	347.4976	65535	64730.85
807.3693	349.6955	65535	64726.6
807.5126	351.8927	65535	64725.05
807.6559	354.0895	65535	64713.4
807.7991	356.2856	65535	64721.1
807.9424	358.4812	65535	64724.3
808.0857	360.6763	65535	64720.8
808.2291	362.8707	65535	64719.05
808.3724	365.0646	65535	64716.7
808.5158	367.258	65535	64714
808.6591	369.4508	65535	64712.6
808.8025	371.643	65535	64710.7
808.9459	373.8346	65535	64710.3
809.0893	376.0257	65535	64708.1
809.2327	378.2162	65535	64708.3
809.3762	380.4062	65535	64706.3
809.5196	382.5956	65535	64705.85
809.6631	384.7844	65535	64711
809.8066	386.9726	65535	64713.35
809.9501	389.1603	65535	64717.2
810.0936	391.3474	65535	64675.2
810.2371	393.5339	65535	64708.55
810.3806	395.7199	65535	64713.45
810.5241	397.9052	65535	64714.35
810.6677	400.09	65535	64715.35
810.8113	402.2743	65535	64716.9
810.9548	404.4579	65535	64717.3
811.0984	406.641	65535	64709.15
811.2421	408.8235	65535	64708.65
811.3857	411.0054	65535	64708.45
811.5293	413.1868	65535	64703.7
811.673	415.3675	65535	64704.35
811.8166	417.5477	65535	64703.5
811.9603	419.7273	65535	64695.65
812.104	421.9064	65535	64692.7
812.2477	424.0848	65535	64697.35
812.3914	426.2627	65535	64700.05
812.5351	428.4399	65535	64696.1
812.6788	430.6166	65535	64693.1
812.8226	432.7928	65535	64691.05
812.9663	434.9683	65535	64693.7
813.1101	437.1432	65535	64689.35
813.2539	439.3176	65535	64689.85
813.3977	441.4914	65535	64691.4
813.5415	443.6645	65535	64691.75
813.6853	445.8371	65535	64687.7
813.8291	448.0091	65535	64689.95
813.973	450.1806	65535	64687.85
814.1168	452.3514	65535	64685.45
814.2607	454.5216	65535	64679.35
814.4046	456.6913	65535	64685
814.5485	458.8603	65535	64686.65
814.6924	461.0288	65535	64685.7
814.8363	463.1967	65535	64686.9
814.9802	465.3639	65535	64684.15
815.1241	467.5306	65535	64686
815.2681	469.6967	65535	64686.25
815.412	471.8622	65535	64685.7
815.556	474.0271	65535	64691.75
815.7	476.1914	65535	64682.7
815.844	478.3551	65535	64683.9
815.988	480.5182	65535	64682.45
816.132	482.6807	65535	64683.1
816.276	484.8426	65535	64685.3
816.4201	487.0039	65535	64684.35
816.5641	489.1647	65535	64681.8
816.7082	491.3248	65535	64681.25
816.8522	493.4843	65535	64680.7
816.9963	495.6432	65535	64683.05
817.1404	497.8015	65535	64677.5
817.2845	499.9592	65535	64674.8
817.4286	502.1163	65535	64675.1
817.5727	504.2728	65535	64676
817.7168	506.4287	65535	64679.05
817.861	508.5839	65535	64679.9
818.0051	510.7386	65535	64677.4
818.1493	512.8927	65535	64670.2
818.2935	515.0461	65535	64676.4
818.4377	517.199	65535	64675.45
818.5818	519.3512	65535	64676.5
818.726	521.5029	65535	64667.85
818.8703	523.6539	65535	64672.9
819.0145	525.8043	65535	64670.4
819.1587	527.9541	65535	64668.1
819.303	530.1033	65535	64671.3
819.4472	532.2519	65535	64671.35
819.5915	534.3999	65535	64668.3
819.7357	536.5472	65535	64673.1
819.88	538.694	65535	64667.4
820.0243	540.8401	65535	64670.2
820.1686	542.9856	65535	64666.75
820.3129	545.1305	65535	64666.15
820.4572	547.2748	65535	64666.4
820.6016	549.4185	65535	64664.8
820.7459	551.5615	65535	64664.45
820.8902	553.704	65535	64667
821.0346	555.8458	65535	64669.55
821.1789	557.987	65535	64668.2
821.3233	560.1276	65535	64664.65
821.4677	562.2675	65535	64667.65
821.6121	564.4069	65535	64666.2
821.7565	566.5456	65535	64665.65
821.9009	568.6837	65535	64664.75
822.0453	570.8212	65535	64664.3
822.1897	572.958	65535	64665.25
822.3342	575.0942	65535	64664.7
822.4786	577.2299	65535	64665
822.6231	579.3648	65535	64667.85
822.7675	581.4992	65535	64668.55
822.912	583.6329	65535	64666
823.0565	585.766	65535	64666.1
823.201	587.8985	65535	64665.7
823.3454	590.0304	65535	64641.05
823.4899	592.1616	65535	64660.5
823.6345	594.2922	65535	64663.4
823.779	596.4222	65535	64658.9
823.9235	598.5515	65535	64657.7
824.068	600.6802	65535	64660.1
824.2126	602.8083	65535	64662
824.3571	604.9358	65535	64660.6
824.5017	607.0626	65535	64658.8
824.6462	609.1888	65535	64655.4
824.7908	611.3144	65535	64658.8
824.9354	613.4393	65535	64658.65
825.08	615.5636	65535	64654.7
825.2246	617.6873	65535	64660.75
825.3692	619.8103	65535	64658.05
825.5138	621.9327	65535	64655.25
825.6584	624.0544	65535	64655.2
825.803	626.1756	65535	64656.85
825.9477	628.2961	65535	64654.7
826.0923	630.4159	65535	64653
826.237	632.5351	65535	64655.75
826.3816	634.6537	65535	64655.6
826.5263	636.7716	65535	64653.1
826.6709	638.8889	65535	64651.1
826.8156	641.0056	65535	64653.8
826.9603	643.1216	65535	64651.25
827.105	645.237	65535	64649.1
827.2497	647.3518	65535	64653.9
827.3944	649.4659	65535	64654.95
827.5391	651.5793	65535	64653.1
827.6838	653.6922	65535	64654.35
827.8285	655.8043	65535	64651.8
827.9733	657.9159	65535	64649.4
828.118	660.0268	65535	64651.6
828.2627	662.137	65535	64651.85
828.4075	664.2466	65535	64648.4
828.5522	666.3556	65535	64653.9
828.697	668.4639	65535	64647.25
828.8418	670.5716	65535	64656.75
828.9865	672.6786	65535	64649.5
829.1313	674.785	65535	64646.9
829.2761	676.8907	65535	64651.3
829.4209	678.9958	65535	64651.25
829.5657	681.1002	65535	64647.25
829.7105	683.204	65535	64646.8
829.8553	685.3072	65535	64649
830.0001	687.4097	65535	64646.4
830.1449	689.5115	65535	64647.45
830.2898	691.6127	65535	64648.05
830.4346	693.7132	65535	64647.85
830.5794	695.8131	65535	64633.15
830.7243	697.9123	65535	64644.25
830.8691	700.0109	65535	64644.8
831.014	702.1089	65535	64646.6
831.1588	704.2061	65535	64645.85
831.3037	706.3028	65535	64643.05
831.4486	708.3987	65535	64646.7
831.5935	710.4941	65535	64647.35
831.7383	712.5887	65535	64644.95
831.8832	714.6827	65535	64640.45
832.0281	716.7761	65535	64644.5
832.173	718.8688	65535	64646.2
832.3179	720.9608	65535	64639.95
832.4628	723.0522	65535	64639.55
832.6077	725.1429	65535	64643.85
832.7527	727.233	65535	64642.45
832.8976	729.3224	65535	64644.4
833.0425	731.4112	65535	64641.95
833.1874	733.4993	65535	64640.45
833.3324	735.5867	65535	64643.1
833.4773	737.6735	65535	64640.75
833.6222	739.7596	65535	64641.65
833.7672	741.845	65535	64642.95
833.9122	743.9298	65535	64640.35
834.0571	746.014	65535	64645.5
834.2021	748.0974	65535	64640.2
834.347	750.1802	65535	64638.9
834.492	752.2624	65535	64640.25
834.637	754.3439	65535	64639.8
834.782	756.4247	65535	64631
834.9269	758.5048	65535	64640.45
835.0719	760.5843	65535	64641.4
835.2169	762.6631	65535	64640.55
835.3619	764.7413	65535	64639.1
835.5069	766.8188	65535	64637.45
835.6519	768.8956	65535	64636.85
835.7969	770.9718	65535	64639.25
835.9419	773.0473	65535	64639.4
836.0869	775.1221	65535	64641.3
836.232	777.1962	65535	64640.65
836.377	779.2697	65535	64639.5
836.522	781.3426	65535	64621.2
836.667	783.4147	65535	64637.7
836.8121	785.4862	65535	64642.15
836.9571	787.557	65535	64642.75
837.1021	789.6271	65535	64639.2
837.2472	791.6966	65535	64639.9
837.3922	793.7654	65535	64637.55
837.5373	795.8335	65535	64639.3
837.6823	797.901	65535	64639.6
837.8274	799.9678	65535	64637.7
837.9724	802.0339	65535	64639.4
838.1175	804.0993	65535	64628.3
838.2626	806.1641	65535	64637.1
838.4076	808.2282	65535	64638.05
838.5527	810.2916	65535	64635.15
838.6978	812.3544	65535	64641.25
838.8428	814.4164	65535	64638.85
838.9879	816.4778	65535	64636.9
839.133	818.5385	65535	64637.05
839.2781	820.5986	65535	64640.75
839.4232	822.658	65535	64635.85
839.5682	824.7166	65535	64637.8
839.7133	826.7747	65535	64636.2
839.8584	828.832	65535	64637.3
840.0035	830.8886	65535	64636.7
840.1486	832.9446	65535	64635.15
840.2937	834.9999	65535	64638.6
840.4388	837.0545	65535	64633.45
840.5839	839.1085	65535	64637.55
840.729	841.1618	65535	64631.8
840.8741	843.2143	65535	64636.55
841.0192	845.2662	65535	64637.15
841.1643	847.3175	65535	64637.4
841.3095	849.368	65535	64637.45
841.4546	851.4179	65535	64636.75
841.5997	853.467	65535	64636.6
841.7448	855.5155	65535	64636.75
841.8899	857.5633	65535	64635.35
842.0351	859.6105	65535	64636.25
842.1802	861.6569	65535	64637.15
842.3253	863.7027	65535	64634.95
842.4704	865.7478	65535	64635.35
842.6156	867.7922	65535	64635.55
842.7607	869.8359	65535	64634.7
842.9058	871.8789	65535	64631.45
843.0509	873.9212	65535	64603.85
843.1961	875.9629	65535	64633.1
843.3412	878.0039	65535	64633.2
843.4863	880.0441	65535	64633.4
843.6315	882.0837	65535	64634.2
843.7766	884.1226	65535	64634.2
843.9218	886.1609	65535	64636.15
844.0669	888.1984	65535	64634.7
844.212	890.2352	65535	64633.3
844.3572	892.2714	65535	64629.2
844.5023	894.3069	65535	64634.35
844.6475	896.3416	65535	64631
844.7926	898.3757	65535	64633.75
844.9377	900.4091	65535	64633.6
845.0829	902.4418	65535	64628.85
845.228	904.4739	65535	64629.95
845.3732	906.5052	65535	64632.55
845.5183	908.5358	65535	64631.05
845.6635	910.5658	65535	64632.6
845.8086	912.595	65535	64633.25
845.9538	914.6236	65535	64635.7
846.0989	916.6515	65535	64631.8
846.2441	918.6786	65535	64629.35
846.3892	920.7051	65535	64632.35
846.5344	922.7309	65535	64633.35
846.6795	924.756	65535	64632.2
846.8246	926.7804	65535	64630.15
846.9698	928.8041	65535	64628.2
847.1149	930.8272	65535	64631.7
847.2601	932.8495	65535	64632.15
847.4052	934.8711	65535	64628.8
847.5504	936.892	65535	64630.45
847.6955	938.9123	65535	64631.05
847.8407	940.9318	65535	64630.15
847.9858	942.9506	65535	64633.6
848.131	944.9688	65535	64630.25
848.2761	946.9862	65535	64633.55
848.4213	949.003	65535	64633.05
848.5664	951.019	65535	64632.8
848.7115	953.0344	65535	64632.85
848.8567	955.0491	65535	64631.85
849.0018	957.063	65535	64634.1
849.147	959.0763	65535	64631.7
849.2921	961.0888	65535	64629.8
849.4373	963.1007	65535	64632
849.5824	965.1119	65535	64632.75
849.7275	967.1223	65535	64632.4
849.8727	969.1321	65535	64635.1
850.0178	971.1412	65535	64635.7
850.1629	973.1495	65535	64631.95
850.3081	975.1572	65535	64581.1
850.4532	977.1641	65535	64632.8
850.5983	979.1704	65535	64630.4
850.7435	981.1759	65535	64628.6
850.8886	983.1808	65535	64630.95
851.0337	985.1849	65535	64623.9
851.1788	987.1884	65535	64627.8
851.324	989.1911	65535	64628.8
851.4691	991.1932	65535	64629.75
851.6142	993.1945	65535	64631.75
851.7593	995.1951	65535	64630.7
851.9045	997.1951	65535	64627.3
852.0496	999.1943	65535	64634.8
852.1947	1001.1928	65535	64630.25
852.3398	1003.1906	65535	64629.95
852.4849	1005.1877	65535	64630
852.63	1007.1841	65535	64631.4
852.7751	1009.1798	65535	64633.3
852.9202	1011.1748	65535	64631.5
853.0653	1013.1691	65535	64631.95
853.2104	1015.1627	65535	64629.9
853.3555	1017.1556	65535	64631.15
853.5006	1019.1477	65535	64632.3
853.6457	1021.1392	65535	64633.35
853.7908	1023.1299	65535	64632.7
853.9359	1025.12	65535	64632.05
854.081	1027.1093	65535	64635.45
854.2261	1029.0979	65535	64637.8
854.3712	1031.0859	65535	64637.5
854.5163	1033.0731	65535	64634.05
854.6613	1035.0596	65535	64632.65
854.8064	1037.0454	65535	64633.75
854.9515	1039.0304	65535	64631.75
855.0965	1041.0148	65535	64634.2
855.2416	1042.9985	65535	64630.95
855.3867	1044.9814	65535	64631.85
855.5317	1046.9636	65535	64630.3
855.6768	1048.9452	65535	64633.3
855.8219	1050.926	65535	64634.5
855.9669	1052.9061	65535	64631.75
856.112	1054.8855	65535	64628.85
856.257	1056.8642	65535	64630.65
856.4021	1058.8421	65535	64627.5
856.5471	1060.8194	65535	64630.7
856.6921	1062.7959	65535	64631.05
856.8372	1064.7717	65535	64629.3
856.9822	1066.7469	65535	64630.95
857.1272	1068.7213	65535	64631.2
857.2723	1070.695	65535	64632.8
857.4173	1072.6679	65535	64628.55
857.5623	1074.6402	65535	64632.25
857.7073	1076.6117	65535	64627.6
857.8523	1078.5826	65535	64630.2
857.9973	1080.5527	65535	64631.75
858.1423	1082.5221	65535	64632.05
858.2873	1084.4908	65535	64632.5
858.4323	1086.4587	65535	64632.9
858.5773	1088.426	65535	64630.4
858.7223	1090.3925	65535	64628.1
858.8673	1092.3584	65535	64630.95
859.0123	1094.3235	65535	64634.25
859.1573	1096.2879	65535	64632.45
859.3022	1098.2515	65535	64632.95
859.4472	1100.2145	65535	64631.4
859.5922	1102.1767	65535	64629.2
859.7371	1104.1382	65535	64631.75
859.8821	1106.099	65535	64631.65
860.027	1108.0591	65535	64633.1
860.172	1110.0185	65535	64629.2
860.3169	1111.9771	65535	64632.15
860.4619	1113.9351	65535	64630.9
860.6068	1115.8923	65535	64633.05
860.7517	1117.8488	65535	64630.15
860.8967	1119.8045	65535	64634
861.0416	1121.7596	65535	64630.55
861.1865	1123.7139	65535	64632.55
861.3314	1125.6675	65535	64633
861.4763	1127.6204	65535	64633.8
861.6212	1129.5726	65535	64629.85
861.7661	1131.524	65535	64631.6
861.911	1133.4748	65535	64632.05
862.0559	1135.4248	65535	64632.3
862.2008	1137.3741	65535	64631.55
862.3457	1139.3226	65535	64631.9
862.4905	1141.2705	65535	64630.75
862.6354	1143.2176	65535	64625.9
862.7803	1145.164	65535	64631.7
862.9251	1147.1097	65535	64632.2
863.07	1149.0546	65535	64633.4
863.2148	1150.9989	65535	64628.2
863.3597	1152.9424	65535	64631
863.5045	1154.8852	65535	64630.1
863.6493	1156.8272	65535	64633.05
863.7942	1158.7686	65535	64621.95
863.939	1160.7092	65535	64631.6
864.0838	1162.6491	65535	64626.45
864.2286	1164.5883	65535	64631.3
864.3734	1166.5267	65535	64630.3
864.5182	1168.4644	65535	64631.95
864.663	1170.4014	65535	64627.8
864.8078	1172.3377	65535	64631.55
864.9526	1174.2732	65535	64632.7
865.0974	1176.2081	65535	64630.7
865.2421	1178.1421	65535	64629
865.3869	1180.0755	65535	64631.8
865.5317	1182.0082	65535	64634.1
865.6764	1183.9401	65535	64631.35
865.8212	1185.8713	65535	64633.2
865.9659	1187.8017	65535	64633.4
866.1106	1189.7315	65535	64633.75
866.2554	1191.6605	65535	64606.15
866.4001	1193.5888	65535	64633.9
866.5448	1195.5163	65535	64633.7
866.6895	1197.4432	65535	64630.1
866.8342	1199.3693	65535	64632.9
866.9789	1201.2947	65535	64630.4
867.1236	1203.2193	65535	64631.95
867.2683	1205.1432	65535	64629.1
867.413	1207.0664	65535	64631.15
867.5576	1208.9889	65535	64630.2
867.7023	1210.9106	65535	64631
867.847	1212.8316	65535	64633.65
867.9916	1214.7519	65535	64622.3
868.1363	1216.6715	65535	64631.9
868.2809	1218.5903	65535	64633.25
868.4255	1220.5084	65535	64633.25
868.5701	1222.4257	65535	64631.5
868.7148	1224.3424	65535	64633.9
868.8594	1226.2583	65535	64628.8
869.004	1228.1735	65535	64631.9
869.1486	1230.0879	65535	64633.6
869.2932	1232.0016	65535	64635.8
869.4377	1233.9146	65535	64631.4
869.5823	1235.8269	65535	64635.75
869.7269	1237.7384	65535	64632.15
869.8715	1239.6492	65535	64631.55
870.016	1241.5592	65535	64631.2
870.1606	1243.4686	65535	64633.75
870.3051	1245.3772	65535	64634.3
870.4496	1247.285	65535	64631.55
870.5941	1249.1922	65535	64632.05
870.7387	1251.0986	65535	64634.25
870.8832	1253.0042	65535	64633.5
871.0277	1254.9092	65535	64633.6
871.1722	1256.8134	65535	64634.05
871.3167	1258.7169	65535	64632.2
871.4611	1260.6196	65535	64634.35
871.6056	1262.5216	65535	64630.8
871.7501	1264.4229	65535	64632.6
871.8945	1266.3234	65535	64633.5
872.039	1268.2232	65535	64629.7
872.1834	1270.1223	65535	64632.45
872.3278	1272.0207	65535	64633.7
872.4723	1273.9183	65535	64627.85
872.6167	1275.8151	65535	64633.5
872.7611	1277.7113	65535	64633.3
872.9055	1279.6067	65535	64632.95
873.0499	1281.5014	65535	64630.7
873.1943	1283.3953	65535	64630.15
873.3386	1285.2885	65535	64633.05
873.483	1287.181	65535	64633.4
873.6274	1289.0727	65535	64632.95
873.7717	1290.9637	65535	64631.95
873.9161	1292.854	65535	64632.3
874.0604	1294.7435	65535	64631.65
874.2047	1296.6323	65535	64632.75
874.349	1298.5204	65535	64629.65
874.4933	1300.4077	65535	64632.8
874.6376	1302.2943	65535	64633.3
874.7819	1304.1802	65535	64634.1
874.9262	1306.0653	65535	64631.8
875.0705	1307.9497	65535	64633.7
875.2147	1309.8333	65535	64633.05
875.359	1311.7162	65535	64631
875.5032	1313.5984	65535	64630.45
875.6475	1315.4798	65535	64622.65
875.7917	1317.3605	65535	64615.7
875.9359	1319.2405	65535	64629.6
876.0801	1321.1197	65535	64628.65
876.2243	1322.9982	65535	64627.8
876.3685	1324.876	65535	64634.75
876.5127	1326.753	65535	64631.95
876.6569	1328.6293	65535	64632.6
876.801	1330.5048	65535	64631.5
876.9452	1332.3796	65535	64632.1
877.0893	1334.2537	65535	64607.95
877.2335	1336.127	65535	64630.95
877.3776	1337.9996	65535	64632.75
877.5217	1339.8714	65535	64633.7
877.6658	1341.7426	65535	64586.65
877.8099	1343.6129	65535	64630.45
877.954	1345.4826	65535	64632.7
878.0981	1347.3515	65535	64629.7
878.2422	1349.2196	65535	64632.75
878.3862	1351.087	65535	64630.95
878.5303	1352.9537	65535	64630.65
878.6743	1354.8197	65535	64631.65
878.8184	1356.6849	65535	64633.7
878.9624	1358.5493	65535	64632.1
879.1064	1360.4131	65535	64633.3
879.2504	1362.276	65535	64634.55
879.3944	1364.1383	65535	64633.4
879.5384	1365.9998	65535	64627.25
879.6823	1367.8606	65535	64631.1
879.8263	1369.7206	65535	64631.05
879.9702	1371.5799	65535	64631.2
880.1142	1373.4384	65535	64634
880.2581	1375.2962	65535	64630.3
880.402	1377.1533	65535	64634.05
880.5459	1379.0096	65535	64633.25
880.6898	1380.8652	65535	64633.7
880.8337	1382.7201	65535	64634.2
880.9776	1384.5742	65535	64631.9
881.1215	1386.4275	65535	64631.8
881.2653	1388.2802	65535	64632.8
881.4092	1390.132	65535	64633.05
881.553	1391.9832	65535	64632.15
881.6968	1393.8336	65535	64631.05
881.8406	1395.6832	65535	64630.75
881.9844	1397.5322	65535	64633.15
882.1282	1399.3803	65535	64628.2
882.272	1401.2278	65535	64633.1
882.4158	1403.0745	65535	64635.05
882.5595	1404.9204	65535	64635.4
882.7033	1406.7656	65535	64633.6
882.847	1408.6101	65535	64631.95
882.9908	1410.4538	65535	64633.95
883.1345	1412.2968	65535	64633.45
883.2782	1414.139	65535	64635.25
883.4219	1415.9805	65535	64634.15
883.5656	1417.8213	65535	64628
883.7092	1419.6613	65535	64633.05
883.8529	1421.5006	65535	64631.6
883.9965	1423.3391	65535	64632.5
884.1402	1425.1769	65535	64631.15
884.2838	1427.0139	65535	64633.15
884.4274	1428.8502	65535	64632.4
884.571	1430.6858	65535	64634.25
884.7146	1432.5206	65535	64635
884.8582	1434.3547	65535	64635.6
885.0018	1436.188	65535	64635.25
885.1453	1438.0206	65535	64633.4
885.2889	1439.8524	65535	64633.9
885.4324	1441.6835	65535	64630.75
885.5759	1443.5139	65535	64629.5
885.7194	1445.3435	65535	64633.45
885.8629	1447.1724	65535	64634.8
886.0064	1449.0005	65535	64633.85
886.1499	1450.8279	65535	64631.3
886.2933	1452.6545	65535	64634.85
886.4368	1454.4804	65535	64635.25
886.5802	1456.3056	65535	64626.95
886.7237	1458.13	65535	64635.95
886.8671	1459.9536	65535	64634.85
887.0105	1461.7766	65535	64632.4
887.1539	1463.5987	65535	64633.3
887.2972	1465.4202	65535	64633.65
887.4406	1467.2409	65535	64634.8
887.584	1469.0608	65535	64634.7
887.7273	1470.88	65535	64633.7
887.8706	1472.6984	65535	64631.25
888.0139	1474.5161	65535	64629.7
888.1572	1476.3331	65535	64634.15
888.3005	1478.1493	65535	64634.95
888.4438	1479.9648	65535	64632.6
888.5871	1481.7795	65535	64635
888.7303	1483.5935	65535	64634.7
888.8736	1485.4067	65535	64635.25
889.0168	1487.2192	65535	64633.9
889.16	1489.031	65535	64633.55
889.3032	1490.842	65535	64635.3
889.4464	1492.6522	65535	64634.35
889.5896	1494.4618	65535	64632.6
889.7327	1496.2705	65535	64635.15
889.8759	1498.0785	65535	64633.75
890.019	1499.8858	65535	64632.75
890.1622	1501.6924	65535	64636.25
890.3053	1503.4981	65535	64632.8
890.4484	1505.3032	65535	64634.45
890.5914	1507.1075	65535	64634.85
890.7345	1508.911	65535	64635
890.8776	1510.7138	65535	64633.65
891.0206	1512.5159	65535	64633.85
891.1637	1514.3172	65535	64632.85
891.3067	1516.1178	65535	64635.55
891.4497	1517.9176	65535	64632.7
891.5927	1519.7166	65535	64635.25
891.7357	1521.515	65535	64627.6
891.8786	1523.3126	65535	64634
892.0216	1525.1094	65535	64634.25
892.1645	1526.9055	65535	64636.4
892.3074	1528.7008	65535	64634.5
892.4503	1530.4954	65535	64627.85
892.5932	1532.2893	65535	64638.55
892.7361	1534.0824	65535	64631.8
892.879	1535.8747	65535	64632.8
893.0218	1537.6663	65535	64633.8
893.1647	1539.4572	65535	64631.9
893.3075	1541.2473	65535	64634.85
893.4503	1543.0367	65535	64638.2
893.5931	1544.8253	65535	64630.5
893.7359	1546.6132	65535	64632.4
893.8787	1548.4003	65535	64624.7
894.0214	1550.1867	65535	64627.75
894.1642	1551.9723	65535	64631.95
894.3069	1553.7572	65535	64633.1
894.4496	1555.5414	65535	64635.95
894.5923	1557.3247	65528.6	64629.5
894.735	1559.1074	65535	64637.4
894.8777	1560.8893	65535	64636.75
895.0204	1562.6705	65535	64636.05
895.163	1564.4509	65530.4	64633.15
895.3056	1566.2305	65535	64636.9
895.4482	1568.0094	65535	64637.95
895.5908	1569.7876	65535	64636.05
895.7334	1571.565	65530.8	64631.7
895.876	1573.3417	65533.65	64635.3
896.0186	1575.1176	65532.55	64636
896.1611	1576.8928	65529.15	64633
896.3036	1578.6672	65517.6	64622.3
896.4461	1580.4409	65526.2	64631.1
896.5886	1582.2138	65490.1	64591.25
896.7311	1583.986	65510.65	64612.75
896.8736	1585.7575	65458.45	64561.5
897.0161	1587.5282	65484.25	64588.65
897.1585	1589.2981	65486.3	64592.6
897.3009	1591.0673	65402.45	64504.95
897.4433	1592.8358	65328.2	64431.3
897.5857	1594.6035	65389.35	64488.15
897.7281	1596.3704	65419.4	64520.95
897.8705	1598.1366	65242.4	64343.9
898.0128	1599.9021	65129.95	64233.9
898.1551	1601.6668	65345.05	64447.55
898.2975	1603.4308	65211.3	64315.1
898.4398	1605.194	65208.35	64307.25
898.5821	1606.9564	64927.9	64030.55
898.7243	1608.7182	65102	64202
898.8666	1610.4791	64951	64058.5
899.0088	1612.2394	65143.05	64246.95
899.1511	1613.9988	64886.2	63991.95
899.2933	1615.7576	65141.2	64247.35
899.4355	1617.5156	65119.1	64217.2
899.5776	1619.2728	65327.05	64429.8
899.7198	1621.0293	64977.35	64079.75
899.862	1622.785	64991.45	64092.85
900.0041	1624.54	65115.85	64216.35
900.1462	1626.2942	64873.9	63976.05
900.2883	1628.0477	64410.2	63510.3
900.4304	1629.8005	63907.95	63009.4
900.5725	1631.5525	64454.7	63559.6
900.7145	1633.3037	63613.25	62716.95
900.8566	1635.0542	63524.05	62629.6
900.9986	1636.804	63959.65	63061.8
901.1406	1638.553	62860.15	61883.4
901.2826	1640.3013	63262.95	62367.2
901.4245	1642.0488	62510.3	61612.75
901.5665	1643.7955	63096.55	62202.45
901.7085	1645.5416	62518.95	61624.3
901.8504	1647.2868	61975.25	61080.1
901.9923	1649.0313	62898.55	62002
902.1342	1650.7751	62376.6	61481.1
902.2761	1652.5181	61974.9	61080.35
902.4179	1654.2604	62084.4	61186.95
902.5598	1656.0019	62490.05	61595
902.7016	1657.7427	62240.05	61342.5
902.8434	1659.4828	62895.25	61999.6
902.9852	1661.222	62253.6	61356.35
903.127	1662.9606	63029.5	62133.75
903.2687	1664.6984	62037.4	61142.6
903.4105	1666.4354	62306.1	61408.55
903.5522	1668.1717	61069	60173.5
903.6939	1669.9072	60143.95	59248.9
903.8356	1671.642	59953.5	59054.05
903.9773	1673.3761	59636.65	58742.25
904.119	1675.1094	59388.55	58493.3
904.2606	1676.8419	58628.1	57733.6
904.4022	1678.5737	58639.35	57745
904.5439	1680.3048	58256.1	57359.6
904.6855	1682.0351	57950.2	57054.15
904.827	1683.7646	57658.75	56760.95
904.9686	1685.4934	57839.75	56946.25
905.1101	1687.2215	56639.25	55743.55
905.2517	1688.9488	57367.05	56470.9
905.3932	1690.6754	55754.1	54859.4
905.5347	1692.4012	56447.7	55552
905.6761	1694.1263	56335.05	55440.65
905.8176	1695.8506	55891.6	54996.9
905.9591	1697.5742	55774.3	54879.6
906.1005	1699.297	55514.95	54621.65
906.2419	1701.0191	55505.1	54612.65
906.3833	1702.7404	54846.45	53951.35
906.5246	1704.461	54587.2	53691.8
906.666	1706.1808	54643.95	53747.6
906.8073	1707.8999	54497.8	53602.45
906.9487	1709.6182	54214.3	53320.55
907.09	1711.3358	54054.05	53159.8
907.2313	1713.0527	53852.5	52959.45
907.3725	1714.7688	53866.35	52968.85
907.5138	1716.4841	53161.75	52266.5
907.655	1718.1987	53304.2	52403.7
907.7962	1719.9126	53087.5	52194.6
907.9374	1721.6257	52909.45	52011.85
908.0786	1723.338	52986.55	52092.1
908.2198	1725.0496	52291.2	51396.05
908.3609	1726.7605	52237	51341.55
908.502	1728.4706	51993.35	51097.85
908.6431	1730.18	51851	50956.35
908.7842	1731.8886	51683.7	50791.3
908.9253	1733.5964	51479.6	50566.9
909.0664	1735.3036	51497.2	50599.75
909.2074	1737.0099	51282.1	50386.9
909.3484	1738.7156	51039.55	50147.4
909.4894	1740.4204	50813.7	49917.7
909.6304	1742.1246	50800.45	49905.65
909.7714	1743.8279	50705.2	49811.9
909.9123	1745.5306	50659.65	49765.8
910.0532	1747.2325	50209.3	49314.15
910.1941	1748.9336	50074.5	49182.75
910.335	1750.634	49888.8	48992.05
910.4759	1752.3336	49907.7	49014.75
910.6168	1754.0325	49650.55	48756.05
910.7576	1755.7307	49643.3	48751.05
910.8984	1757.4281	49454.5	48561.55
911.0392	1759.1247	49507.4	48604.65
911.18	1760.8206	49197.05	48295
911.3208	1762.5158	49151.6	48253.05
911.4615	1764.2102	48927.5	48036.75
911.6022	1765.9039	48709.35	47816.6
911.7429	1767.5968	48625.55	47732.35
911.8836	1769.289	48462.35	47570.35
912.0243	1770.9804	48322	47427.8
912.1649	1772.6711	48226.15	47332.75
912.3056	1774.361	48066.65	47171.55
912.4462	1776.0502	47971.15	47076.85
912.5868	1777.7386	47822.15	46926.9
912.7274	1779.4263	47673.75	46780.1
912.8679	1781.1132	47617.3	46725.95
913.0084	1782.7994	47395.95	46501.75
913.149	1784.4849	47335.5	46443.65
913.2895	1786.1696	47154.6	46254.5
913.4299	1787.8535	47038.3	46145.85
913.5704	1789.5367	46896.4	46005
913.7108	1791.2192	46842.65	45949.95
913.8513	1792.9009	46628.3	45704.3
913.9917	1794.5818	46465.7	45571.1
914.132	1796.2621	46384.25	45494.35
914.2724	1797.9415	46258.3	45366
914.4128	1799.6202	46041.2	45146.95
914.5531	1801.2982	45968.25	45074.35
914.6934	1802.9755	45819.45	44926.75
914.8337	1804.6519	45767.85	44874.25
914.9739	1806.3277	45544.55	44652.35
915.1142	1808.0027	45328.35	44435.8
915.2544	1809.6769	45306.8	44412.6
915.3946	1811.3504	45139.15	44245.3
915.5348	1813.0231	44970.45	44077.1
915.675	1814.6951	44964.4	44070.1
915.8151	1816.3664	44889.6	43993.05
915.9553	1818.0369	44733	43840.25
916.0954	1819.7067	44568.05	43674.85
916.2355	1821.3757	44510.7	43615.85
916.3755	1823.044	44380.15	43488.25
916.5156	1824.7115	44210.95	43317.05
916.6556	1826.3783	44008.45	43115.4
916.7956	1828.0443	43890.35	42997.35
916.9356	1829.7096	43711.65	42817.65
917.0756	1831.3741	43703.7	42807.9
917.2155	1833.0379	43610.05	42718.05
917.3555	1834.701	43447	42552.25
917.4954	1836.3633	43319.75	42427
917.6353	1838.0248	43165.5	42272.05
917.7751	1839.6856	43098.05	42203.95
917.915	1841.3457	43069	42175.55
918.0548	1843.005	42872.05	41979.7
918.1946	1844.6636	42822.9	41930.55
918.3344	1846.3214	42652.3	41758.95
918.4742	1847.9785	42607.5	41717.4
918.6139	1849.6349	42452.65	41557.8
918.7537	1851.2904	42406.9	41504.9
918.8934	1852.9453	42253.85	41360
919.0331	1854.5994	42114.55	41219.4
919.1727	1856.2528	42164.5	41267.35
919.3124	1857.9054	41967.85	41075.1
919.452	1859.5572	41896.5	41005.4
919.5916	1861.2083	41755.35	40862.35
919.7312	1862.8587	41768.75	40877.35
919.8708	1864.5084	41621.2	40727.7
920.0103	1866.1572	41438.35	40545.8
920.1498	1867.8054	41263.65	40371.25
920.2893	1869.4528	41162.55	40268.8
920.4288	1871.0994	41066.05	40174
920.5683	1872.7453	40957.75	40063.85
920.7077	1874.3905	40880.8	39983.65
920.8471	1876.0349	40691.05	39801.25
920.9865	1877.6786	40671.6	39778.65
921.1259	1879.3215	40657.9	39765.75
921.2653	1880.9637	40523.8	39630.05
921.4046	1882.6051	40470.9	39576.7
921.5439	1884.2458	40293.35	39400
921.6832	1885.8858	40115.9	39224.85
921.8225	1887.525	40048.55	39154.5
921.9617	1889.1634	39880	38988.1
922.101	1890.8011	39668.55	38777.55
922.2402	1892.4381	39606.25	38713.65
922.3794	1894.0743	39571.4	38679.7
922.5185	1895.7098	39410.05	38518.65
922.6577	1897.3446	39315.25	38420.05
922.7968	1898.9786	39209.3	38313.55
922.9359	1900.6118	39128.9	38236.35
923.075	1902.2443	38915.25	38020
923.214	1903.8761	38810.3	37917.9
923.3531	1905.5071	38572.1	37679
923.4921	1907.1374	38456.9	37562.3
923.6311	1908.7669	38399.5	37506.05
923.77	1910.3957	38274.65	37382.15
923.909	1912.0237	38062	37168.5
924.0479	1913.651	38019	37125.8
924.1868	1915.2776	37856.9	36965.05
924.3257	1916.9034	37744.85	36852.25
924.4646	1918.5285	37570.7	36678.35
924.6034	1920.1528	37318.8	36427.1
924.7422	1921.7764	37308.3	36417.75
924.881	1923.3992	37200.3	36308.95
925.0198	1925.0213	36922.05	36028
925.1586	1926.6427	36728.6	35839.35
925.2973	1928.2633	36764.6	35755.85
925.436	1929.8832	36544.3	35650.2
925.5747	1931.5023	36372.45	35480.2
925.7134	1933.1207	36271.8	35379.9
925.852	1934.7383	36215.65	35322.8
925.9906	1936.3552	36035.4	35142.25
926.1292	1937.9714	35945.05	35052.2
926.2678	1939.5868	35789.45	34895.8
926.4064	1941.2015	35578	34684.6
926.5449	1942.8154	35438.5	34543.8
926.6834	1944.4286	35325.65	34433.8
926.8219	1946.041	35179	34264.7
926.9604	1947.6528	34923.45	34026.75
927.0988	1949.2637	34933.75	34042.6
927.2372	1950.8739	34788.2	33896.3
927.3756	1952.4834	34672.25	33779.6
927.514	1954.0921	34616.8	33722.6
927.6523	1955.7001	34441.65	33546.4
927.7907	1957.3074	34359	33467.15
927.929	1958.9139	34192.15	33300.4
928.0673	1960.5197	34099	33205.25
928.2055	1962.1247	33888.85	32997.2
928.3438	1963.729	33770.35	32880.8
928.482	1965.3325	33668.7	32755.2
928.6202	1966.9353	33483.85	32593.05
928.7584	1968.5374	33425.65	32532.2
928.8965	1970.1387	33326.65	32434.8
929.0346	1971.7393	33195.8	32303.35
929.1727	1973.3392	33035.35	32143.65
929.3108	1974.9383	32855	31963.2
929.4489	1976.5366	32728	31835.55
929.5869	1978.1342	32729.1	31837.6
929.7249	1979.7311	32594	31700.65
929.8629	1981.3273	32471.5	31580.95
930.0009	1982.9227	32400.35	31507.4
930.1388	1984.5173	32245	31355.05
930.2767	1986.1112	32050.55	31159.8
930.4146	1987.7044	32045.6	31154.95
930.5525	1989.2968	31923.05	31030.5
930.6904	1990.8885	31827.25	30935
930.8282	1992.4795	31787.45	30895.75
930.966	1994.0697	31646.8	30754.15
931.1038	1995.6592	31531.8	30642.55
931.2415	1997.2479	31431.35	30539.3
931.3793	1998.8359	31296.55	30405.2
931.517	2000.4232	31165.65	30276.8
931.6547	2002.0097	31036.45	30148
931.7923	2003.5955	30866.35	29976.4
931.93	2005.1805	30884.15	29992.45
932.0676	2006.7648	30792.1	29901.75
932.2052	2008.3484	30656.95	29766.1
932.3427	2009.9312	30638.7	29745.3
932.4803	2011.5133	30428.35	29536.9
932.6178	2013.0946	30371.9	29479.95
932.7553	2014.6752	30254.25	29365.45
932.8928	2016.2551	30215.8	29325.75
933.0302	2017.8342	30056.05	29166.45
933.1676	2019.4126	29900.9	29010.8
933.305	2020.9902	29811.85	28923
933.4424	2022.5672	29765.45	28870.85
933.5798	2024.1433	29696.15	28799.35
933.7171	2025.7188	29565.6	28676.9
933.8544	2027.2935	29460.4	28569.6
933.9917	2028.8674	29388.4	28500.35
934.129	2030.4406	29303.05	28414.85
934.2662	2032.0131	29129	28239.9
934.4034	2033.5849	29013.35	28116.7
934.5406	2035.1559	28974.5	28083.05
934.6778	2036.7261	28918.75	28029.1
934.8149	2038.2957	28795.8	27904.05
934.952	2039.8645	28767.85	27877.25
935.0891	2041.4325	28755.8	27862.05
935.2262	2042.9998	28611.3	27719.95
935.3632	2044.5664	28511.75	27619.7
935.5002	2046.1323	28425.15	27535.1
935.6372	2047.6974	28302.25	27413.35
935.7742	2049.2617	28213.8	27324.55
935.9111	2050.8254	28168.35	27254.75
936.048	2052.3883	28109.15	27214.75
936.1849	2053.9504	27979.95	27086.1
936.3218	2055.5118	27888.1	26996.35
936.4586	2057.0725	27762.15	26868.15
936.5955	2058.6325	27692.2	26802.4
936.7323	2060.1917	27582.2	26692.95
936.869	2061.7502	27518.55	26627.65
937.0058	2063.3079	27405.75	26515.5
937.1425	2064.8649	27340.05	26445.95
937.2792	2066.4212	27290.85	26397.5
937.4159	2067.9767	27228.1	26337.45
937.5525	2069.5315	27040.7	26149.95
937.6891	2071.0856	26906.85	26015.45
937.8257	2072.6389	26800.65	25910.3
937.9623	2074.1915	26702.65	25814.3
938.0989	2075.7433	26570.8	25679
938.2354	2077.2945	26543.95	25655.15
938.3719	2078.8448	26437.75	25546.65
938.5084	2080.3945	26348.3	25457.65
938.6448	2081.9434	26299.55	25406.4
938.7812	2083.4916	26211.15	25319.05
938.9176	2085.039	26102.45	25210.2
939.054	2086.5857	26021.65	25128.35
939.1903	2088.1317	25984.45	25092.65
939.3267	2089.677	25890.35	25000.3
939.463	2091.2215	25718.6	24828.65
939.5992	2092.7652	25667.4	24775.15
939.7355	2094.3083	25621.1	24728.7
939.8717	2095.8506	25600.95	24710.8
940.0079	2097.3921	25531.15	24640.65
940.1441	2098.933	25434	24543.8
940.2802	2100.4731	25363.9	24474.45
940.4163	2102.0124	25313.15	24413.95
940.5524	2103.5511	25264.3	24375
940.6885	2105.089	25188.55	24296.5
940.8245	2106.6261	25141.3	24250.1
940.9606	2108.1626	25052.55	24160.6
941.0965	2109.6983	25016.15	24094.9
941.2325	2111.2332	24914.6	24020.95
941.3684	2112.7675	24823.6	23932.7
941.5044	2114.301	24702.1	23808.6
941.6403	2115.8337	24705.7	23815.3
941.7761	2117.3657	24606.8	23713.45
941.912	2118.897	24526.5	23636.05
942.0478	2120.4276	24469.15	23571.45
942.1835	2121.9575	24318.3	23428.35
942.3193	2123.4866	24312.45	23407.35
942.455	2125.0149	24246.3	23351.25
942.5907	2126.5426	24084.75	23193.8
942.7264	2128.0695	24007.55	23112.25
942.8621	2129.5956	23976.85	23086.85
942.9977	2131.1211	23940.5	23045.2
943.1333	2132.6458	23845.35	22954.05
943.2689	2134.1698	23801	22909
943.4044	2135.693	23700.45	22807.4
943.54	2137.2155	23648.25	22753.25
943.6755	2138.7373	23527.1	22635.4
943.8109	2140.2584	23482.05	22589.8
943.9464	2141.7787	23388.4	22492.05
944.0818	2143.2983	23289.15	22399.35
944.2172	2144.8171	23169.3	22279.05
944.3526	2146.3353	23147.05	22252.75
944.4879	2147.8527	23049	22157.8
944.6232	2149.3693	23018.45	22128.45
944.7585	2150.8853	22900.05	22009.5
944.8938	2152.4005	22801.05	21907.9
945.029	2153.9149	22774.25	21882.55
945.1642	2155.4287	22683.5	21794.3
945.2994	2156.9417	22632.8	21740.55
945.4346	2158.454	22564	21672.1
945.5697	2159.9655	22459.4	21568.55
945.7048	2161.4764	22450.85	21560.5
945.8399	2162.9865	22366.8	21475.5
945.9749	2164.4958	22308.9	21414.7
946.1099	2166.0045	22191.9	21298.25
946.2449	2167.5124	22182.9	21290.4
946.3799	2169.0195	22121.35	21230
946.5148	2170.526	22081.6	21191.2
946.6498	2172.0317	22019.3	21126.9
946.7846	2173.5367	21928.75	21038.1
946.9195	2175.0409	21845.55	20955.1
947.0543	2176.5445	21827.1	20937.5
947.1891	2178.0473	21734.5	20841.9
947.3239	2179.5494	21627.4	20733.1
947.4587	2181.0507	21554.4	20662.1
947.5934	2182.5513	21519.25	20628.4
947.7281	2184.0512	21447.2	20556.4
947.8628	2185.5504	21357.05	20467.8
947.9974	2187.0488	21258.2	20365.6
948.132	2188.5465	21194.85	20304.15
948.2666	2190.0435	21131.45	20239.55
948.4012	2191.5397	21009.95	20118.95
948.5357	2193.0353	20967.95	20077.7
948.6702	2194.5301	20854.4	19963.85
948.8047	2196.0241	20782.4	19889.95
948.9392	2197.5175	20728.25	19838.2
949.0736	2199.0101	20645.55	19750.05
949.208	2200.502	20507.75	19618.65
949.3424	2201.9931	20462.5	19572.5
949.4767	2203.4835	20386.9	19495.35
949.611	2204.9733	20326.7	19427.2
949.7453	2206.4622	20293.25	19404.2
949.8796	2207.9505	20225	19331.05
950.0138	2209.438	20071.7	19180.8
950.148	2210.9248	20008	19116.1
950.2822	2212.4109	19962.55	19072.95
950.4164	2213.8962	19900.35	19006.1
950.5505	2215.3809	19792.95	18898.9
950.6846	2216.8648	19760.05	18868.95
950.8186	2218.3479	19710.75	18815.95
950.9527	2219.8304	19592.65	18698.85
951.0867	2221.3121	19500.2	18607.05
951.2207	2222.7931	19482.3	18590.55
951.3546	2224.2733	19416.95	18525.3
951.4886	2225.7529	19320.95	18429.95
951.6225	2227.2317	19244.65	18351.85
951.7563	2228.7098	19250.95	18361.8
951.8902	2230.1872	19145.1	18254.9
952.024	2231.6638	19105.15	18213.85
952.1578	2233.1397	19043.15	18146.25
952.2916	2234.6149	18952.35	18062.15
952.4253	2236.0894	18849.05	17956.6
952.559	2237.5632	18843.7	17942.45
952.6927	2239.0362	18746.95	17856.7
952.8263	2240.5085	18688.5	17797.35
952.9599	2241.9801	18631.25	17740.45
953.0935	2243.4509	18584.65	17693.85
953.2271	2244.921	18513.1	17622.45
953.3606	2246.3904	18376.55	17481.65
953.4941	2247.8591	18324.85	17432.1
953.6276	2249.3271	18310.1	17419.15
953.7611	2250.7943	18245.45	17352.65
953.8945	2252.2608	18154	17264.35
954.0279	2253.7266	18118.55	17226.3
954.1612	2255.1917	18055.05	17163.15
954.2946	2256.656	17945.35	17055.45
954.4279	2258.1197	17927.6	17036.8
954.5612	2259.5826	17852.95	16961.15
954.6944	2261.0447	17829.05	16935.9
954.8276	2262.5062	17753.3	16858.65
954.9608	2263.9669	17697.15	16803.3
955.094	2265.4269	17666.55	16775.7
955.2271	2266.8862	17560	16668.6
955.3602	2268.3448	17564.7	16673.5
955.4933	2269.8026	17544.1	16653
955.6264	2271.2598	17453.45	16561.9
955.7594	2272.7162	17394.9	16503.95
955.8924	2274.1719	17344.65	16454.5
956.0253	2275.6268	17310.9	16419.55
956.1583	2277.0811	17245.95	16353
956.2912	2278.5346	17181.15	16293.1
956.4241	2279.9874	17146.1	16254.7
956.5569	2281.4395	17115.55	16224.8
956.6897	2282.8908	17017.3	16124.1
956.8225	2284.3414	16991.25	16097
956.9553	2285.7914	16908.9	16020.6
957.088	2287.2406	16842.75	15950.2
957.2207	2288.689	16807.05	15915.15
957.3534	2290.1368	16762.05	15870.9
957.486	2291.5838	16713.95	15818.2
957.6186	2293.0302	16642.7	15752
957.7512	2294.4758	16571.9	15680.65
957.8838	2295.9206	16513.35	15620.2
958.0163	2297.3648	16479.35	15588.15
958.1488	2298.8082	16414.65	15522.85
958.2813	2300.251	16354.3	15463.4
958.4137	2301.693	16331.75	15438.65
958.5461	2303.1343	16286.35	15394.9
958.6785	2304.5748	16223.35	15332.85
958.8108	2306.0147	16178.95	15287.35
958.9432	2307.4538	16126	15232.5
959.0754	2308.8922	16076.5	15186.75
959.2077	2310.3299	16028.9	15139.1
959.3399	2311.7669	16006.1	15116.25
959.4721	2313.2031	15924.55	15035.6
959.6043	2314.6387	15851.3	14960.1
959.7365	2316.0735	15771	14878.1
959.8686	2317.5076	15755.9	14865.95
960.0006	2318.941	15719.95	14829.95
960.1327	2320.3737	15663.4	14771.6
960.2647	2321.8056	15590.3	14696.4
960.3967	2323.2369	15543.55	14651.35
960.5287	2324.6674	15533.3	14640.35
960.6606	2326.0972	15474.8	14582.3
960.7925	2327.5263	15395.1	14503.95
960.9244	2328.9547	15321.75	14429.5
961.0562	2330.3823	15291.85	14400.4
961.1881	2331.8092	15273.75	14379
961.3198	2333.2355	15195.75	14303.6
961.4516	2334.661	15182.1	14290.1
961.5833	2336.0858	15101.6	14207.2
961.715	2337.5098	15060.25	14169.1
961.8467	2338.9332	15027.65	14135.6
961.9783	2340.3558	14983.1	14087.45
962.1099	2341.7778	14916.9	14026.75
962.2415	2343.199	14866.05	13973.9
962.373	2344.6195	14811	13921.1
962.5045	2346.0393	14776.4	13887.2
962.636	2347.4583	14758.85	13866.3
962.7675	2348.8767	14693.3	13802.1
962.8989	2350.2943	14639.6	13746.25
963.0303	2351.7113	14617.7	13723.75
963.1617	2353.1275	14561.9	13670.7
963.293	2354.543	14553.95	13653.05
963.4243	2355.9578	14468.4	13575.75
963.5556	2357.3718	14362.5	13471.45
963.6868	2358.7852	14334.45	13440.45
963.818	2360.1978	14245.65	13353
963.9492	2361.6098	14235.05	13343.95
964.0803	2363.021	14170.25	13273.35
964.2114	2364.4315	14157.25	13268
964.3425	2365.8413	14118.05	13226.9
964.4736	2367.2504	14053.45	13161.75
964.6046	2368.6587	13950.6	13058.25
964.7356	2370.0664	13871.35	12979.25
964.8666	2371.4733	13840.65	12947.85
964.9975	2372.8795	13815.55	12923.7
965.1284	2374.285	13734.95	12845.05
965.2593	2375.6899	13661.55	12772
965.3901	2377.0939	13598.5	12708.1
965.5209	2378.4973	13571.3	12679.65
965.6517	2379.9	13518.7	12626.6
965.7825	2381.3019	13442.35	12551.85
965.9132	2382.7032	13409.65	12520.5
966.0439	2384.1037	13392.35	12503.5
966.1745	2385.5035	13348.55	12458.4
966.3051	2386.9027	13290.05	12401.6
966.4357	2388.3011	13233.05	12337.55
966.5663	2389.6987	13215.75	12322.9
966.6968	2391.0957	13160.3	12266.85
966.8273	2392.492	13079.65	12188.95
966.9578	2393.8876	13004.9	12115.1
967.0882	2395.2824	12978	12088.25
967.2186	2396.6765	12905.5	12018.85
967.349	2398.07	12842.25	11953.9
967.4793	2399.4627	12819.85	11928.85
967.6097	2400.8547	12796.75	11904
967.7399	2402.246	12735.25	11839.1
967.8702	2403.6366	12643.25	11751.35
968.0004	2405.0265	12586.1	11696.15
968.1306	2406.4156	12563.6	11668.2
968.2607	2407.8041	12482.95	11588.6
968.3909	2409.1918	12461.15	11569.95
968.521	2410.5789	12424.4	11534.5
968.651	2411.9652	12384.25	11488.95
968.781	2413.3508	12327.25	11434.45
968.911	2414.7358	12266.75	11375
969.041	2416.12	12225.05	11335.4
969.1709	2417.5035	12214.45	11323
969.3008	2418.8863	12150.55	11258.65
969.4307	2420.2684	12098	11208.8
969.5606	2421.6497	12068.95	11176.7
969.6904	2423.0304	11975.45	11084.8
969.8201	2424.4104	11943.65	11050.6
969.9499	2425.7896	11899.85	11008.35
970.0796	2427.1682	11897.95	11006.55
970.2093	2428.546	11822.4	10931.35
970.3389	2429.9232	11818.95	10926.2
970.4685	2431.2996	11779.3	10889.25
970.5981	2432.6753	11769	10878.55
970.7277	2434.0503	11713.3	10822.5
970.8572	2435.4246	11678.8	10787.45
970.9867	2436.7982	11647.35	10754.4
971.1161	2438.1711	11578.85	10688.4
971.2456	2439.5433	11551.3	10660.35
971.375	2440.9148	11502.45	10609.95
971.5043	2442.2856	11444.8	10554.8
971.6336	2443.6557	11405.55	10512
971.7629	2445.025	11363.25	10472.65
971.8922	2446.3937	11339.2	10447.3
972.0214	2447.7617	11297.5	10406.1
972.1506	2449.1289	11255.45	10365.5
972.2798	2450.4955	11241.95	10349.6
972.4089	2451.8613	11193.55	10304.05
972.538	2453.2265	11176.95	10287.05
972.6671	2454.5909	11155.2	10264.15
972.7961	2455.9546	11121.15	10231.35
972.9251	2457.3177	11042.6	10150.85
973.0541	2458.68	11012.85	10120.6
973.1831	2460.0416	10993.8	10103.1
973.312	2461.4025	10983.6	10091.8
973.4408	2462.7627	10929.4	10026.75
973.5697	2464.1222	10916.2	10024.4
973.6985	2465.4811	10879.2	9988.3
973.8273	2466.8392	10830.25	9938.15
973.956	2468.1966	10821.05	9928.6
974.0847	2469.5533	10795	9903.2
974.2134	2470.9093	10779.8	9889.8
974.3421	2472.2645	10725.15	9833.1
974.4707	2473.6191	10692.05	9803.1
974.5993	2474.973	10630.5	9741.35
974.7278	2476.3262	10636.4	9743.4
974.8563	2477.6787	10566.95	9677.4
974.9848	2479.0305	10515.7	9622.85
975.1132	2480.3816	10481.1	9590.15
975.2417	2481.7319	10437.85	9546.65
975.37	2483.0816	10402.3	9509.05
975.4984	2484.4306	10374.25	9482.35
975.6267	2485.7789	10314.5	9424.85
975.755	2487.1264	10255.95	9366.1
975.8833	2488.4733	10208.8	9318.8
976.0115	2489.8195	10181.6	9274.1
976.1397	2491.165	10133.25	9241.4
976.2678	2492.5097	10123	9230.45
976.3959	2493.8538	10076	9185.9
976.524	2495.1972	10030.35	9139.85
976.6521	2496.5398	9990.05	9096.55
976.7801	2497.8818	9971.75	9079.1
976.9081	2499.2231	9942.35	9051.7
977.036	2500.5637	9884.35	8992.25
977.164	2501.9035	9844.05	8952.3
977.2918	2503.2427	9848.7	8953.35
977.4197	2504.5812	9785.95	8896.15
977.5475	2505.919	9795.15	8901.65
977.6753	2507.256	9762.4	8869
977.8031	2508.5924	9710.6	8819.95
977.9308	2509.9281	9673.15	8776.85
978.0585	2511.2631	9632.95	8742.6
978.1861	2512.5974	9609	8718.9
978.3137	2513.9309	9573.6	8682.9
978.4413	2515.2638	9534.05	8617.6
978.5689	2516.596	9498	8606.55
978.6964	2517.9275	9463.05	8572.35
978.8239	2519.2583	9414.3	8521
978.9513	2520.5884	9379.55	8486
979.0788	2521.9178	9335.75	8443.65
979.2062	2523.2465	9315.8	8425.55
979.3335	2524.5745	9310.75	8419.75
979.4608	2525.9018	9251.15	8361.15
979.5881	2527.2284	9209.85	8318.25
979.7154	2528.5543	9187.55	8297.6
979.8426	2529.8796	9181.95	8291.2
979.9698	2531.2041	9161.95	8271.4
980.0969	2532.5279	9139.25	8248.35
980.224	2533.851	9124.2	8231.55
980.3511	2535.1735	9081	8191.4
980.4781	2536.4952	9053.05	8161.3
980.6052	2537.8163	9032.1	8140.7
980.7321	2539.1366	8986.2	8095.3
980.8591	2540.4562	8946.35	8053.05
980.986	2541.7752	8960.75	8068.85
981.1129	2543.0935	8936.4	8043.95
981.2397	2544.411	8913.75	8020.95
981.3665	2545.7279	8880.7	7990.4
981.4933	2547.0441	8863.6	7972.5
981.62	2548.3596	8863.1	7970.75
981.7467	2549.6744	8831.95	7941.55
981.8734	2550.9885	8811.35	7918.75
982.0001	2552.3019	8768.3	7877.6
982.1267	2553.6146	8751.1	7859.2
982.2532	2554.9266	8705.65	7815.55
982.3798	2556.2379	8684.6	7790.5
982.5063	2557.5485	8671.15	7780.65
982.6327	2558.8585	8636.85	7737.7
982.7592	2560.1677	8619.4	7723.6
982.8856	2561.4762	8605.05	7713
983.0119	2562.7841	8599.2	7704.55
983.1383	2564.0913	8569.55	7678.8
983.2646	2565.3977	8553.5	7663.35
983.3908	2566.7035	8524.1	7630.95
983.517	2568.0086	8516.7	7625.25
983.6432	2569.313	8495.2	7603.1
983.7694	2570.6167	8479.65	7584.85
983.8955	2571.9197	8438.9	7550.75
984.0216	2573.222	8434.55	7540.55
984.1476	2574.5236	8394.75	7501.95
984.2737	2575.8246	8380.45	7484.7
984.3996	2577.1248	8372.25	7479.1
984.5256	2578.4244	8342.65	7451.15
984.6515	2579.7232	8343.3	7451.65
984.7774	2581.0214	8332.75	7416.4
984.9032	2582.3189	8302.8	7411.4
985.029	2583.6157	8267.15	7372.55
985.1548	2584.9118	8246.8	7354.85
985.2806	2586.2072	8210.8	7321.5
985.4063	2587.5019	8207.85	7319.8
985.5319	2588.7959	8198.35	7305.3
985.6576	2590.0893	8184.95	7291.3
985.7832	2591.3819	8125.05	7233.85
985.9087	2592.6739	8101.75	7209.05
986.0343	2593.9652	8068.7	7177.5
986.1597	2595.2557	8075.8	7184.65
986.2852	2596.5456	8037.45	7144.9
986.4106	2597.8348	7997.1	7104.2
986.536	2599.1234	7950.3	7061.9
986.6614	2600.4112	7914.95	7023.2
986.7867	2601.6983	7927	7033.4
986.912	2602.9848	7907.4	7015.15
987.0372	2604.2705	7873.45	6974.95
987.1624	2605.5556	7857.05	6965.45
987.2876	2606.84	7819.9	6928.65
987.4128	2608.1237	7777.7	6885.8
987.5379	2609.4067	7756	6866.1
987.6629	2610.689	7738.55	6840.95
987.788	2611.9707	7702.8	6809.3
987.913	2613.2516	7677.5	6781.1
988.0379	2614.5319	7627.15	6735.35
988.1629	2615.8115	7585	6691.4
988.2878	2617.0903	7570.2	6677
988.4126	2618.3685	7537.5	6644.25
988.5375	2619.6461	7523	6631.45
988.6622	2620.9229	7499.25	6610.6
988.787	2622.199	7476.75	6585.7
988.9117	2623.4745	7464.2	6573.75
989.0364	2624.7493	7427.05	6534.85
989.161	2626.0234	7394.6	6504.75
989.2857	2627.2968	7392.9	6502.45
989.4102	2628.5695	7365.25	6471.15
989.5348	2629.8415	7309.9	6418.25
989.6593	2631.1128	7312.7	6419.8
989.7837	2632.3835	7236.6	6345.6
989.9082	2633.6535	7223.2	6333.95
990.0326	2634.9228	7211.8	6319.55
990.1569	2636.1914	7166.15	6274.85
990.2812	2637.4593	7163.45	6270.2
990.4055	2638.7265	7166.05	6273.2
990.5298	2639.9931	7107.3	6216.85
990.654	2641.259	7082	6186.7
990.7782	2642.5242	7085.5	6195.4
990.9023	2643.7887	7059.3	6166.95
991.0264	2645.0525	7038.15	6144.85
991.1505	2646.3156	7012	6119.35
991.2745	2647.5781	6984.65	6093.6
991.3985	2648.8398	6967.75	6077.95
991.5225	2650.1009	6944.6	6047.05
991.6464	2651.3613	6936.55	6045.15
991.7703	2652.6211	6901.35	6010.2
991.8942	2653.8801	6875.8	5984.3
992.018	2655.1385	6865.8	5972.2
992.1418	2656.3961	6840.8	5949.8
992.2655	2657.6531	6822.9	5932.25
992.3892	2658.9094	6812.4	5919.85
992.5129	2660.1651	6771.5	5881.6
992.6366	2661.42	6772.25	5884
992.7602	2662.6743	6746.4	5855.7
992.8837	2663.9279	6743.2	5851.65
993.0073	2665.1808	6696.45	5803.55
993.1307	2666.433	6702.65	5808.6
993.2542	2667.6846	6675.45	5785.05
993.3776	2668.9354	6664.35	5770.75
993.501	2670.1856	6633.05	5742.15
993.6244	2671.4351	6640.8	5750
993.7477	2672.6839	6617.6	5726.05
993.8709	2673.9321	6610.45	5721.35
993.9942	2675.1795	6576.3	5686.55
994.1174	2676.4263	6568.7	5677.3
994.2405	2677.6724	6558.6	5666.6
994.3637	2678.9179	6519.2	5629.2
994.4868	2680.1626	6510.2	5618.9
994.6098	2681.4067	6511.7	5619.95
994.7328	2682.6501	6457.05	5564.2
994.8558	2683.8928	6448.85	5556.4
994.9788	2685.1348	6419.8	5529.3
995.1017	2686.3761	6408.05	5516.55
995.2245	2687.6168	6362.95	5473.25
995.3474	2688.8568	6351.5	5459.85
995.4702	2690.0961	6330.2	5439.6
995.5929	2691.3348	6300.1	5408.45
995.7156	2692.5727	6291.55	5399.65
995.8383	2693.81	6269.4	5377.55
995.961	2695.0466	6249.05	5357.75
996.0836	2696.2826	6234.45	5341.4
996.2062	2697.5178	6225.3	5333.15
996.3287	2698.7524	6203.75	5313.45
996.4512	2699.9863	6189.3	5295.6
996.5737	2701.2195	6151.4	5260.95
996.6961	2702.452	6139.1	5247
996.8185	2703.6839	6118.75	5227.95
996.9408	2704.9151	6124.9	5234.6
997.0631	2706.1456	6098.1	5206.6
997.1854	2707.3755	6062.9	5171.55
997.3077	2708.6046	6063.25	5169.45
997.4299	2709.8331	6048.3	5155.5
997.552	2711.0609	6025.8	5134
997.6742	2712.2881	6029.3	5138.95
997.7963	2713.5145	6001.85	5108.2
997.9183	2714.7403	6002.8	5112.55
998.0403	2715.9654	5982.4	5088.9
998.1623	2717.1899	5984.2	5080.55
998.2842	2718.4136	5978.35	5087.5
998.4062	2719.6367	5943.3	5051.8
998.528	2720.8591	5944.4	5047.55
998.6498	2722.0809	5911.3	5020.35
998.7716	2723.3019	5925.6	5030.4
998.8934	2724.5223	5893.05	5001.7
999.0151	2725.7421	5901.35	5009.35
999.1368	2726.9611	5903.65	5011.95
999.2584	2728.1795	5861.8	4966.05
999.38	2729.3972	5842.65	4950.9
999.5016	2730.6142	5821.3	4915.45
999.6231	2731.8306	5767.95	4876.65
999.7446	2733.0462	5733.45	4840.65
999.8661	2734.2612	5694.9	4801.15
999.9875	2735.4756	5655.4	4761.65
1000.1089	2736.6892	5639.75	4747.85
1000.2302	2737.9022	5598.85	4708.25
1000.3515	2739.1145	5555.85	4665
1000.4728	2740.3262	5545.4	4646.95
1000.594	2741.5372	5518.25	4628.55
1000.7152	2742.7475	5473.3	4583.75
1000.8363	2743.9571	5454.75	4562.45
1000.9575	2745.1661	5446.5	4551.85
1001.0785	2746.3744	5410.2	4518.3
1001.1996	2747.582	5384.8	4494.1
1001.3206	2748.7889	5379.75	4487.2
1001.4415	2749.9952	5356.8	4468.5
1001.5625	2751.2008	5329.05	4436.45
1001.6833	2752.4057	5329.9	4438.05
1001.8042	2753.61	5278.05	4386.4
1001.925	2754.8136	5277.95	4385.75
1002.0458	2756.0165	5252.15	4361.85
1002.1665	2757.2188	5249.75	4360.4
1002.2872	2758.4204	5232.7	4343.85
1002.4078	2759.6213	5215.65	4321.15
1002.5285	2760.8215	5198.85	4303.65
1002.649	2762.0211	5165.25	4272.1
1002.7696	2763.22	5149.1	4253.8
1002.8901	2764.4182	5137.85	4246.1
1003.0106	2765.6158	5124.65	4233.8
1003.131	2766.8127	5111.5	4220.4
1003.2514	2768.009	5076.2	4186.85
1003.3717	2769.2045	5054.75	4162.9
1003.492	2770.3994	5054.85	4161.7
1003.6123	2771.5936	5041.8	4149.5
1003.7325	2772.7872	5021.4	4129.95
1003.8527	2773.9801	5002.75	4111.15
1003.9729	2775.1723	4991.65	4086.95
1004.093	2776.3639	4960.3	4071.65
1004.2131	2777.5548	4937.95	4044.75
1004.3331	2778.745	4929.2	4037.1
1004.4531	2779.9346	4924.3	4035.4
1004.5731	2781.1235	4919.15	4026.85
1004.693	2782.3117	4921.2	4030.7
1004.8129	2783.4992	4881.7	3989.85
1004.9328	2784.6861	4882.3	3991.45
1005.0526	2785.8723	4859.7	3968.7
1005.1723	2787.0579	4865.7	3972.35
1005.2921	2788.2428	4827.75	3937.55
1005.4118	2789.427	4840.35	3949.95
1005.5314	2790.6106	4843.1	3952.3
1005.651	2791.7935	4825.3	3933.95
1005.7706	2792.9757	4823.15	3932.65
1005.8902	2794.1573	4806.5	3913.55
1006.0097	2795.3382	4799.7	3908.65
1006.1291	2796.5184	4801.75	3910.35
1006.2485	2797.698	4810.8	3919
1006.3679	2798.8769	4831.55	3939.55
1006.4873	2800.0551	4830.85	3939.65
1006.6066	2801.2327	4814.85	3922.3
1006.7258	2802.4096	4812.5	3922.2
1006.8451	2803.5859	4830.4	3939.85
1006.9642	2804.7615	4841	3950.3
1007.0834	2805.9364	4821.45	3931.95
1007.2025	2807.1106	4840.8	3951.7
1007.3216	2808.2842	4865.4	3974.9
1007.4406	2809.4572	4886.05	3996.55
1007.5596	2810.6294	4910.65	4019.4
1007.6785	2811.801	4932.75	4043.6
1007.7975	2812.972	4964.65	4075.25
1007.9163	2814.1423	5014.75	4124.45
1008.0352	2815.3119	5046.45	4155.8
1008.154	2816.4808	5064.35	4174.7
1008.2727	2817.6491	5095.25	4202.7
1008.3914	2818.8167	5144.1	4255
1008.5101	2819.9837	5176.25	4281.45
1008.6288	2821.15	5201.05	4310.55
1008.7474	2822.3157	5246.25	4357.3
1008.8659	2823.4807	5281.3	4390.6
1008.9844	2824.645	5305.4	4414.3
1009.1029	2825.8086	5333.65	4443.5
1009.2214	2826.9716	5360.25	4471.5
1009.3398	2828.134	5399.25	4509.8
1009.4581	2829.2957	5405.6	4516.2
1009.5764	2830.4567	5434.5	4545.7
1009.6947	2831.617	5432.3	4539.4
1009.813	2832.7767	5438.3	4547.85
1009.9312	2833.9358	5443	4552.25
1010.0493	2835.0941	5446.15	4555
1010.1675	2836.2519	5417.75	4528.95
1010.2855	2837.4089	5389.1	4499.2
1010.4036	2838.5653	5359.1	4469.45
1010.5216	2839.7211	5373.95	4483.75
1010.6396	2840.8761	5394.25	4502.95
1010.7575	2842.0306	5395.95	4506.7
1010.8754	2843.1843	5416	4526.3
1010.9932	2844.3374	5450.9	4558.95
1011.111	2845.4899	5495.25	4604.95
1011.2288	2846.6417	5562.05	4671.8
1011.3465	2847.7928	5619.75	4730.95
1011.4642	2848.9433	5695.3	4803.65
1011.5818	2850.0931	5753.35	4864.15
1011.6995	2851.2422	5825.15	4933.15
1011.817	2852.3907	5911.5	5021.6
1011.9345	2853.5385	5954.35	5063.95
1012.052	2854.6857	6017.8	5101.3
1012.1695	2855.8323	6036.3	5146.15
1012.2869	2856.9781	6079.9	5189.65
1012.4042	2858.1233	6113.85	5222.5
1012.5216	2859.2679	6150.9	5263.25
1012.6389	2860.4118	6174.1	5282.95
1012.7561	2861.555	6223.3	5327.2
1012.8733	2862.6976	6268.95	5377.4
1012.9905	2863.8395	6243.5	5354.1
1013.1076	2864.9808	6266.15	5377.65
1013.2247	2866.1214	6259.5	5368.5
1013.3417	2867.2614	6269.7	5379.1
1013.4587	2868.4007	6271.65	5380
1013.5757	2869.5393	6262.45	5368.85
1013.6926	2870.6773	6270.5	5377.8
1013.8095	2871.8146	6262.3	5368.95
1013.9263	2872.9513	6248.6	5356.1
1014.0431	2874.0874	6214.5	5324.45
1014.1599	2875.2227	6207.9	5315.85
1014.2766	2876.3574	6211.1	5322.95
1014.3933	2877.4915	6150.35	5261.6
1014.51	2878.6249	6130.95	5241.7
1014.6266	2879.7577	6084.85	5193.9
1014.7431	2880.8898	6073.2	5171.3
1014.8596	2882.0212	6016.2	5125.1
1014.9761	2883.152	6007.95	5113.9
1015.0925	2884.2821	5977.95	5087.95
1015.2089	2885.4116	5941.95	5054.25
1015.3253	2886.5405	5948.05	5056.6
1015.4416	2887.6686	5951.5	5057.75
1015.5579	2888.7962	5934.4	5046.8
1015.6741	2889.923	5938.4	5049.45
1015.7903	2891.0493	5921.65	5032.65
1015.9065	2892.1748	5928.9	5037.4
1016.0226	2893.2997	5932.95	5041.95
1016.1387	2894.424	5936.2	5049.9
1016.2547	2895.5476	5942.55	5052.6
1016.3707	2896.6706	5952.05	5062.7
1016.4866	2897.7929	5966.15	5075.5
1016.6025	2898.9145	5983.9	5091.95
1016.7184	2900.0355	5989.3	5098.55
1016.8342	2901.1559	6008.05	5117.95
1016.95	2902.2756	6041.8	5151.85
1017.0658	2903.3946	6071.5	5181
1017.1815	2904.513	6079.85	5186.2
1017.2971	2905.6308	6101.05	5211.95
1017.4127	2906.7479	6089.6	5198.35
1017.5283	2907.8643	6125.9	5235.15
1017.6439	2908.9801	6125.2	5235.2
1017.7594	2910.0953	6129.3	5239.75
1017.8748	2911.2098	6122.15	5229.85
1017.9902	2912.3236	6113.2	5214.25
1018.1056	2913.4368	6088.45	5194.45
1018.2209	2914.5494	6053	5162.3
1018.3362	2915.6613	6005.8	5109.6
1018.4515	2916.7725	5981.85	5089.45
1018.5667	2917.8831	5935.25	5042.8
1018.6819	2918.9931	5894.7	5002.65
1018.797	2920.1024	5873	4982.35
1018.9121	2921.211	5843.35	4952.3
1019.0271	2922.319	5803.4	4913.6
1019.1421	2923.4264	5785.1	4894.5
1019.2571	2924.5331	5738.45	4850.1
1019.372	2925.6391	5723.3	4834.05
1019.4869	2926.7445	5714.55	4824.6
1019.6017	2927.8493	5699.4	4809.75
1019.7165	2928.9534	5692.15	4801.25
1019.8313	2930.0569	5664.05	4771.3
1019.946	2931.1597	5649.7	4760.5
1020.0606	2932.2619	5638.5	4748.9
1020.1753	2933.3634	5610.35	4722.45
1020.2899	2934.4643	5613.6	4717.65
1020.4044	2935.5645	5600.25	4702.45
1020.5189	2936.6641	5552.9	4658.55
1020.6334	2937.763	5499.55	4610.15
1020.7478	2938.8613	5420.1	4531.7
1020.8622	2939.959	5354.05	4460.35
1020.9765	2941.056	5262.35	4371.75
1021.0908	2942.1523	5180.5	4288.35
1021.2051	2943.248	5097.6	4205.55
1021.3193	2944.3431	4986	4097.2
1021.4334	2945.4375	4873.3	3983.05
1021.5476	2946.5313	4753.3	3864
1021.6617	2947.6244	4656.7	3767.85
1021.7757	2948.7169	4548.5	3658.1
1021.8897	2949.8087	4431.2	3540.8
1022.0037	2950.8999	4342.55	3451.55
1022.1176	2951.9904	4261.4	3371.5
1022.2315	2953.0803	4173.95	3282.75
1022.3453	2954.1696	4106.8	3216.25
1022.4591	2955.2582	4049.05	3158.15
1022.5728	2956.3462	3989.1	3099.1
1022.6865	2957.4335	3940	3047.95
1022.8002	2958.5202	3894.35	3002.6
1022.9138	2959.6062	3853.15	2962.65
1023.0274	2960.6916	3822.8	2933.6
1023.141	2961.7764	3793.55	2903.05
1023.2545	2962.8605	3778.6	2888.6
1023.3679	2963.9439	3747.55	2858.35
1023.4813	2965.0267	3739.1	2847.75
1023.5947	2966.1089	3740.75	2827.8
1023.708	2967.1905	3703.45	2814.75
1023.8213	2968.2714	3693.55	2805.5
1023.9346	2969.3516	3682.2	2792.65
1024.0478	2970.4312	3670.7	2774.9
1024.1609	2971.5102	3673.65	2785.05
1024.274	2972.5885	3661.55	2772.8
1024.3871	2973.6662	3671.8	2775.15
1024.5002	2974.7432	3636.9	2747.35
1024.6132	2975.8196	3621.5	2731.65
1024.7261	2976.8954	3599.85	2710.2
1024.839	2977.9705	3591.2	2701.2
1024.9519	2979.045	3563.6	2673.85
1025.0647	2980.1188	3535.6	2647.65
1025.1775	2981.192	3510.3	2622.5
1025.2902	2982.2645	3485.9	2596.3
1025.4029	2983.3364	3453.4	2563.8
1025.5156	2984.4077	3416.05	2526.8
1025.6282	2985.4783	3396.55	2501.5
1025.7407	2986.5483	3343.5	2455.75
1025.8532	2987.6177	3299.35	2411.2
1025.9657	2988.6864	3265.65	2375.2
1026.0782	2989.7545	3233.25	2342.95
1026.1906	2990.8219	3186.5	2296.45
1026.3029	2991.8887	3147.75	2255.65
1026.4152	2992.9548	3114.05	2223
1026.5275	2994.0204	3071.45	2182.55
1026.6397	2995.0852	3044.1	2156.7
1026.7519	2996.1495	3017.1	2126.55
1026.864	2997.2131	2980.05	2091
1026.9761	2998.276	2952.25	2063.8
1027.0882	2999.3383	2926.9	2037.2
1027.2002	3000.4	2912.35	2019.95
1027.3122	3001.4611	2901.15	2008.6
1027.4241	3002.5215	2867.95	1976.9
1027.536	3003.5812	2847	1958.65
1027.6478	3004.6404	2825.35	1936.1
1027.7596	3005.6989	2809.35	1916.6
1027.8714	3006.7567	2812.95	1923.5
1027.9831	3007.8139	2803.8	1892.35
1028.0947	3008.8705	2783	1892.8
1028.2064	3009.9264	2758.95	1867
1028.3179	3010.9818	2755.1	1865.45
1028.4295	3012.0364	2745.9	1855.75
1028.541	3013.0905	2735.25	1845.9
1028.6524	3014.1439	2732.65	1841.95
1028.7638	3015.1966	2720.15	1830.65
1028.8752	3016.2487	2706.85	1817.65
1028.9865	3017.3002	2713.3	1821.2
1029.0978	3018.3511	2711.5	1822.25
1029.209	3019.4013	2695.8	1806.95
1029.3202	3020.4509	2698.7	1809.05
1029.4314	3021.4998	2690.35	1799.9
1029.5425	3022.5481	2678.7	1789.95
1029.6535	3023.5958	2671.25	1780.55
1029.7645	3024.6428	2671.1	1781.15
1029.8755	3025.6892	2668.75	1779.8
1029.9864	3026.735	2660.9	1771.7
1030.0973	3027.7802	2669.55	1781.15
1030.2082	3028.8247	2644.55	1755.1
1030.319	3029.8685	2648.65	1758.5
1030.4297	3030.9118	2641.3	1751.7
1030.5404	3031.9544	2639	1751.8
1030.6511	3032.9963	2651.7	1761.9
1030.7617	3034.0376	2644.6	1753.15
1030.8723	3035.0783	2643.7	1752.15
1030.9829	3036.1184	2637.35	1747.1
1031.0934	3037.1578	2634.7	1747
1031.2038	3038.1966	2637.9	1746.1
1031.3142	3039.2348	2636.15	1748.85
1031.4246	3040.2723	2631.8	1734.05
1031.5349	3041.3092	2620.55	1730.55
1031.6452	3042.3455	2610.3	1719.85
1031.7554	3043.3811	2595.7	1705.1
1031.8656	3044.4161	2584.35	1696.8
1031.9758	3045.4505	2575.95	1687.3
1032.0859	3046.4842	2568.95	1679.3
1032.1959	3047.5173	2552.6	1664.35
1032.3059	3048.5498	2539.95	1650.55
1032.4159	3049.5816	2536.6	1647.7
1032.5258	3050.6128	2533.75	1642.75
1032.6357	3051.6434	2512.6	1621.75
1032.7455	3052.6734	2506.9	1616.6
1032.8553	3053.7027	2496.6	1607.85
1032.9651	3054.7314	2490.05	1600.55
1033.0748	3055.7594	2469.6	1579.6
1033.1845	3056.7868	2462.65	1571.55
1033.2941	3057.8136	2451.1	1562.35
1033.4037	3058.8398	2437.15	1547.45
1033.5132	3059.8653	2429.35	1538
1033.6227	3060.8902	2416.6	1527.9
1033.7321	3061.9145	2409.45	1521.2
1033.8415	3062.9381	2394.45	1504.8
1033.9509	3063.9612	2401	1496.05
1034.0602	3064.9835	2382.25	1493
1034.1694	3066.0053	2369	1478.75
1034.2787	3067.0264	2350.25	1461.6
1034.3878	3068.0469	2345.7	1454.55
1034.497	3069.0668	2348.25	1457.55
1034.6061	3070.086	2317.9	1430.2
1034.7151	3071.1046	2321.85	1432.8
1034.8241	3072.1226	2290.15	1401.3
1034.9331	3073.1399	2296.7	1407
1035.042	3074.1567	2273.4	1384.4
1035.1508	3075.1727	2262.8	1371.65
1035.2597	3076.1882	2241.3	1350.5
1035.3684	3077.203	2232	1341.9
1035.4772	3078.2173	2216.8	1326.95
1035.5859	3079.2308	2200.4	1309.15
1035.6945	3080.2438	2202.3	1311.6
1035.8031	3081.2561	2175.15	1286
1035.9117	3082.2678	2168.25	1280.3
1036.0202	3083.2789	2152.95	1263.05
1036.1286	3084.2893	2159.95	1270.8
1036.2371	3085.2991	2138.45	1248.3
1036.3454	3086.3083	2136.65	1243.45
1036.4538	3087.3169	2105.9	1214.7
1036.562	3088.3248	2107.4	1214.85
1036.6703	3089.3321	2102.3	1210.8
1036.7785	3090.3388	2084.25	1196.1
1036.8866	3091.3449	2079	1190
1036.9948	3092.3503	2078.3	1187.6
1037.1028	3093.3551	2060.7	1171.45
1037.2108	3094.3593	2056.85	1167.1
1037.3188	3095.3629	2051.8	1164.35
1037.4267	3096.3658	2044	1152.95
1037.5346	3097.3681	2043.45	1154.7
1037.6425	3098.3698	2027.45	1136.1
1037.7503	3099.3708	2021.05	1123.6
1037.858	3100.3713	2017.3	1128.15
1037.9657	3101.3711	2006.2	1117.15
1038.0734	3102.3702	2122.7	1099.05
1038.181	3103.3688	1998.45	1107.55
1038.2886	3104.3667	1989.6	1100.9
1038.3961	3105.364	1969.35	1081.5
1038.5036	3106.3607	1979.5	1088.55
1038.611	3107.3568	1964.25	1074.55
1038.7184	3108.3522	1948.25	1058.2
1038.8257	3109.347	1955.1	1063.75
1038.933	3110.3412	1956	1061.15
1039.0403	3111.3348	1936.7	1049.15
1039.1475	3112.3277	1933.3	1045
1039.2547	3113.32	1922.7	1034.35
1039.3618	3114.3117	1921	1031.95
1039.4689	3115.3028	1920.15	1030.5
1039.5759	3116.2932	1910.85	1017.8
1039.6829	3117.2831	1905.65	1011.65
1039.7898	3118.2723	1888.8	998.1
1039.8967	3119.2608	1892.3	1004
1040.0035	3120.2488	1889.6	1000.1
1040.1103	3121.2361	1879.3	988.85
1040.2171	3122.2229	1876.35	986.85
1040.3238	3123.209	1869.45	979.8
1040.4305	3124.1944	1863.15	974.05
1040.5371	3125.1793	1855.8	963.9
1040.6437	3126.1635	1851.3	962.1
1040.7502	3127.1471	1843.15	954.4
1040.8567	3128.1301	1831.95	943
1040.9631	3129.1125	1834.5	947
1041.0695	3130.0942	1830.1	941.05
1041.1759	3131.0753	1839.55	942.65
1041.2822	3132.0558	1834.7	942.65
1041.3884	3133.0357	1816.45	926.4
1041.4946	3134.015	1812.35	922
1041.6008	3134.9936	1812.15	922.3
1041.7069	3135.9716	1815.55	907.75
1041.813	3136.949	1794.5	903.2
1041.919	3137.9258	1801.65	907.7
1042.025	3138.902	1795.7	902.6
1042.1309	3139.8775	1783.8	895.15
1042.2368	3140.8524	1773.45	884.35
1042.3427	3141.8267	1777.05	884.85
1042.4485	3142.8004	1778.7	889.85
1042.5542	3143.7735	1783.75	887.3
1042.6599	3144.7459	1771.65	882.35
1042.7656	3145.7178	1758.95	869.4
1042.8712	3146.689	1755.55	866
1042.9768	3147.6596	1753.45	862.8
1043.0823	3148.6295	1742.4	851.6
1043.1878	3149.5989	1742.75	852.85
1043.2932	3150.5676	1734.3	845.2
1043.3986	3151.5357	1734.85	845.6
1043.5039	3152.5032	1725.7	837.75
1043.6092	3153.4701	1721	832.1
1043.7145	3154.4364	1721.75	830.3
1043.8197	3155.402	1709	820.3
1043.9248	3156.367	1712.7	821.65
1044.03	3157.3315	1741.25	808.1
1044.135	3158.2952	1695.65	806.7
1044.24	3159.2584	1694.4	807
1044.345	3160.221	1688.2	800.15
1044.4499	3161.1829	1684.1	795.9
1044.5548	3162.1442	1681.85	792.4
1044.6596	3163.105	1670.05	781.2
1044.7644	3164.065	1668.05	780.15
1044.8692	3165.0245	1670.25	778
1044.9739	3165.9834	1657.8	770.75
1045.0785	3166.9416	1658.6	770.6
1045.1831	3167.8993	1649.15	761.05
1045.2877	3168.8563	1649.15	760.2
1045.3922	3169.8127	1639.1	750.95
1045.4966	3170.7684	1640.9	752.85
1045.6011	3171.7236	1638.85	748.6
1045.7054	3172.6782	1634.55	747.65
1045.8098	3173.6321	1623.8	734.65
1045.914	3174.5854	1628.6	737.25
1046.0183	3175.5381	1622.8	733.45
1046.1224	3176.4902	1606.15	717.8
1046.2266	3177.4417	1615.15	727
1046.3307	3178.3926	1607.8	718.8
1046.4347	3179.3428	1612.9	722
1046.5387	3180.2924	1597.6	705.6
1046.6427	3181.2415	1595.8	705.2
1046.7466	3182.1899	1591.35	702
1046.8504	3183.1377	1593.25	704.8
1046.9542	3184.0848	1584.5	691.85
1047.058	3185.0314	1581.6	692.6
1047.1617	3185.9773	1579	689.35
1047.2654	3186.9227	1573.15	684.1
1047.369	3187.8674	1566.5	676.25
1047.4726	3188.8115	1571.7	677.55
1047.5761	3189.755	1561.15	672.65
1047.6796	3190.6979	1558.55	669.8
1047.783	3191.6402	1550.9	664.55
1047.8864	3192.5818	1556.3	668.25
1047.9898	3193.5229	1557.05	656.5
1048.0931	3194.4633	1550.15	659.35
1048.1963	3195.4031	1548.55	657.55
1048.2995	3196.3423	1537.4	648.85
1048.4027	3197.2809	1533.45	645.5
1048.5058	3198.2189	1531.6	643.75
1048.6089	3199.1563	1530.05	634.7
1048.7119	3200.0931	1522.85	634.45
1048.8148	3201.0292	1520.9	632.55
1048.9178	3201.9648	1519.35	629.8
1049.0206	3202.8997	1517.55	627.45
1049.1235	3203.834	1516.55	628.85
1049.2262	3204.7677	1513.85	624.9
1049.329	3205.7008	1513.4	622.35
1049.4317	3206.6333	1503.6	614.6
1049.5343	3207.5652	1493.3	602.45
1049.6369	3208.4964	1497.6	608.15
1049.7394	3209.4271	1495.75	608.25
1049.8419	3210.3571	1493.85	606.1
1049.9444	3211.2865	1488.05	597.55
1050.0468	3212.2154	1484.15	595.25
1050.1491	3213.1436	1488.35	595.6
1050.2514	3214.0712	1493.65	598.05
1050.3537	3214.9982	1482.95	593.6
1050.4559	3215.9246	1476.85	588.1
1050.5581	3216.8503	1467.8	581.55
1050.6602	3217.7755	1463.7	574.55
1050.7623	3218.7001	1464.7	576
1050.8643	3219.624	1462.65	572.7
1050.9663	3220.5473	1458.9	568.5
1051.0682	3221.4701	1458	566.6
1051.1701	3222.3922	1456.25	566.35
1051.2719	3223.3137	1452.85	563.75
1051.3737	3224.2346	1451.3	563.3
1051.4754	3225.1549	1444.85	555.9
1051.5771	3226.0746	1438.3	548.65
1051.6788	3226.9937	1437.3	549.75
1051.7804	3227.9121	1437.55	550.15
1051.8819	3228.83	1438.6	549.5
1051.9834	3229.7473	1428.8	538.1
1052.0849	3230.6639	1422.45	533.5
1052.1863	3231.5799	1420	531.2
1052.2876	3232.4954	1421.25	532.8
1052.3889	3233.4102	1423.4	534.4
1052.4902	3234.3244	1417.7	527.3
1052.5914	3235.238	1410	520.9
1052.6926	3236.151	1432.4	519.35
1052.7937	3237.0634	1401	512.35
1052.8948	3237.9752	1405.05	515.35
1052.9958	3238.8864	1394.8	504.5
1053.0968	3239.797	1399.05	511.6
1053.1977	3240.7069	1390.5	499.45
1053.2986	3241.6163	1384.95	494.5
1053.3994	3242.5251	1389.7	502.45
1053.5002	3243.4332	1381.8	493.6
1053.6009	3244.3408	1372.7	482.4
1053.7016	3245.2477	1378.8	491.35
1053.8022	3246.154	1376.85	488.4
1053.9028	3247.0598	1378.65	489.05
1054.0034	3247.9649	1365.75	478.1
1054.1039	3248.8694	1366.1	477.9
1054.2043	3249.7733	1362.85	473.35
1054.3047	3250.6766	1360.7	472.05
1054.4051	3251.5793	1359.15	468.2
1054.5054	3252.4814	1347.15	457.25
1054.6056	3253.3829	1348.6	459.45
1054.7058	3254.2838	1353.25	464.4
1054.806	3255.1841	1346.3	457.75
1054.9061	3256.0838	1339.65	452.6
1055.0061	3256.9829	1336.9	450.15
1055.1062	3257.8814	1330.8	438.7
1055.2061	3258.7792	1329.4	437.45
1055.306	3259.6765	1326.6	437.25
1055.4059	3260.5731	1317	426.95
1055.5057	3261.4692	1313.3	424.2
1055.6055	3262.3647	1307.75	418.65
1055.7052	3263.2595	1300	412.4
1055.8049	3264.1538	1295.65	407.8
1055.9045	3265.0474	1288.25	400.85
1056.0041	3265.9404	1286.55	399.35
1056.1036	3266.8329	1282.85	393.15
1056.2031	3267.7247	1284.2	386.05
1056.3025	3268.616	1269.3	381.55
1056.4019	3269.5066	1251.35	363.25
1056.5013	3270.3966	1245.3	354.15
1056.6005	3271.286	1237.55	350
