Software Version:	3.9.2.0
Unit SN:	10000200
Spectrometer SN:	6960
Date:	3/6/2024 10:49:52 AM
Data Line Index:	25
Spectral Points:	2048
Integration time (ms):	125
Averages:	20
Delay (ms):	30
Sequence Number:	1
Processing:	dark subtract
Laser Power (mW):	305
Laser Current (mA):	821
Laser Diode Temp (C):	25
Laser Case Temp (C):	27.6
System Temp (C):	27.4
Spectrometer Temp (C):	24.7
CCD Temp (C):	-0.005
Secondary Temp (C):	20.042
Heatsink Temp (C):	23.166
CCDPCB Temp (C):	36.84
SecondaryPCB Temp (C):	34.195

Wavelength	RamanShift	Raw Counts	Dark Subtracted
787.061	30.1047	1138	724.1
787.2016	32.3739	1171	757.7
787.3422	34.6426	1223.9	809.55
787.4828	36.9109	1263.6	848.65
787.6235	39.1787	1322.25	902.35
787.7642	41.4461	1378.65	954.8
787.9049	43.7131	1448.5	1020.3
788.0456	45.9796	1509.85	1080.55
788.1863	48.2456	1593.1	1159.6
788.3271	50.5112	1654	1215.15
788.4679	52.7764	1725.85	1287.05
788.6087	55.0411	1811.7	1368.35
788.7496	57.3054	1889.15	1439.4
788.8904	59.5692	1986.8	1534.8
789.0313	61.8326	2084.9	1630.05
789.1722	64.0955	2187.7	1730.35
789.3132	66.3579	2325.8	1861.1
789.4541	68.6199	2480.2	2014.1
789.5951	70.8815	2740.35	2269.85
789.7361	73.1426	3270.3	2796.05
789.8771	75.4032	4562.8	4082.5
790.0181	77.6634	7916.35	7432.9
790.1592	79.9231	16722.5	16235.2
790.3003	82.1824	54906.4	54409.15
790.4414	84.4412	65535	65017.75
790.5825	86.6995	65535	64994
790.7237	88.9574	65535	64972.45
790.8648	91.2148	65535	64957.15
791.006	93.4717	65535	64947.5
791.1472	95.7282	65535	64941.3
791.2885	97.9842	65535	64938.55
791.4297	100.2398	65535	64933.65
791.571	102.4949	65535	64931.7
791.7123	104.7495	65535	64928.35
791.8536	107.0036	65535	64926.9
791.9949	109.2573	65535	64928.95
792.1363	111.5105	65535	64926.4
792.2777	113.7632	65535	64924.8
792.4191	116.0154	65535	64911.3
792.5605	118.2672	65535	64919.85
792.7019	120.5185	65535	64921.45
792.8434	122.7693	65535	64916.15
792.9849	125.0197	65535	64915.7
793.1264	127.2696	65535	64909.4
793.2679	129.519	65535	64907.55
793.4094	131.7679	65535	64902.85
793.551	134.0163	65535	64900.6
793.6926	136.2642	65535	64895.65
793.8342	138.5117	65535	64886.4
793.9758	140.7587	65535	64894.75
794.1175	143.0052	65535	64891.85
794.2591	145.2512	65535	64889.7
794.4008	147.4967	65535	64888.6
794.5425	149.7417	65535	64887.45
794.6842	151.9863	65535	64882.65
794.826	154.2304	65535	64879.25
794.9677	156.4739	65535	64870.4
795.1095	158.717	65535	64877.95
795.2513	160.9596	65535	64870
795.3931	163.2017	65535	64867.25
795.535	165.4433	65535	64865.25
795.6768	167.6844	65535	64861.35
795.8187	169.925	65535	64863.3
795.9606	172.1651	65535	64857.05
796.1025	174.4047	65535	64852.15
796.2445	176.6439	65535	64853.45
796.3864	178.8825	65535	64849.95
796.5284	181.1206	65535	64846.55
796.6704	183.3582	65535	64845.5
796.8124	185.5954	65535	64840.3
796.9544	187.832	65535	64838.05
797.0965	190.0681	65535	64834.15
797.2386	192.3037	65535	64834.45
797.3806	194.5388	65535	64828.2
797.5228	196.7734	65535	64828.1
797.6649	199.0075	65535	64821
797.807	201.2411	65535	64821
797.9492	203.4742	65535	64817.85
798.0914	205.7068	65535	64818.2
798.2336	207.9389	65535	64818.95
798.3758	210.1704	65535	64818.95
798.518	212.4015	65535	64814.65
798.6603	214.632	65535	64814.35
798.8025	216.862	65535	64829.4
798.9448	219.0915	65535	64834.25
799.0871	221.3205	65535	64833.65
799.2294	223.549	65535	64835.65
799.3718	225.777	65535	64835.85
799.5141	228.0044	65535	64832
799.6565	230.2314	65535	64832.95
799.7989	232.4578	65535	64828.35
799.9413	234.6837	65535	64826.05
800.0837	236.909	65535	64822.05
800.2262	239.1339	65535	64797.05
800.3687	241.3582	65535	64810.05
800.5111	243.582	65535	64780.25
800.6536	245.8053	65535	64794.55
800.7961	248.0281	65535	64795.4
800.9387	250.2503	65535	64794.6
801.0812	252.472	65535	64787.35
801.2238	254.6932	65535	64786.25
801.3664	256.9139	65535	64783.65
801.509	259.134	65535	64781.85
801.6516	261.3536	65535	64788.25
801.7942	263.5727	65535	64779.75
801.9369	265.7912	65535	64783.5
802.0795	268.0092	65535	64784.7
802.2222	270.2267	65535	64780.2
802.3649	272.4436	65535	64781.25
802.5076	274.6601	65535	64767.8
802.6504	276.8759	65535	64774.25
802.7931	279.0913	65535	64774.55
802.9359	281.3061	65535	64773.3
803.0787	283.5204	65535	64770.2
803.2215	285.7341	65535	64770.25
803.3643	287.9473	65535	64753.15
803.5071	290.16	65535	64760.15
803.6499	292.3721	65535	64766.25
803.7928	294.5837	65535	64769
803.9357	296.7947	65535	64768.1
804.0786	299.0052	65535	64765.7
804.2215	301.2152	65535	64763.45
804.3644	303.4246	65535	64767.9
804.5074	305.6334	65535	64765.6
804.6503	307.8418	65535	64760.15
804.7933	310.0495	65535	64758.8
804.9363	312.2568	65535	64759.25
805.0793	314.4635	65535	64759.1
805.2223	316.6696	65535	64756.25
805.3653	318.8752	65535	64747.25
805.5084	321.0802	65535	64757.95
805.6514	323.2847	65535	64752.7
805.7945	325.4887	65535	64755
805.9376	327.692	65535	64750.8
806.0807	329.8949	65535	64754.1
806.2238	332.0972	65535	64752.35
806.367	334.2989	65535	64746.05
806.5101	336.5001	65535	64750.05
806.6533	338.7007	65535	64748.95
806.7965	340.9008	65535	64744.95
806.9397	343.1003	65535	64742.2
807.0829	345.2992	65535	64743.2
807.2261	347.4976	65535	64739.55
807.3693	349.6955	65535	64737.3
807.5126	351.8927	65535	64737.3
807.6559	354.0895	65535	64725.35
807.7991	356.2856	65535	64735.8
807.9424	358.4812	65535	64739.1
808.0857	360.6763	65535	64730.55
808.2291	362.8707	65535	64732.95
808.3724	365.0646	65535	64729.05
808.5158	367.258	65535	64724
808.6591	369.4508	65535	64723.75
808.8025	371.643	65535	64723.3
808.9459	373.8346	65535	64722.55
809.0893	376.0257	65535	64717.75
809.2327	378.2162	65535	64720.05
809.3762	380.4062	65535	64716.4
809.5196	382.5956	65535	64716.4
809.6631	384.7844	65535	64719.1
809.8066	386.9726	65535	64718.35
809.9501	389.1603	65535	64720.25
810.0936	391.3474	65535	64683.8
810.2371	393.5339	65535	64723
810.3806	395.7199	65535	64723.85
810.5241	397.9052	65535	64727.6
810.6677	400.09	65535	64726.2
810.8113	402.2743	65535	64726.25
810.9548	404.4579	65535	64726.6
811.0984	406.641	65535	64722.9
811.2421	408.8235	65535	64722.65
811.3857	411.0054	65535	64722.6
811.5293	413.1868	65535	64718.3
811.673	415.3675	65535	64715.9
811.8166	417.5477	65535	64713.6
811.9603	419.7273	65535	64713.2
812.104	421.9064	65535	64703.1
812.2477	424.0848	65535	64709.75
812.3914	426.2627	65535	64709.05
812.5351	428.4399	65535	64705.35
812.6788	430.6166	65535	64703.2
812.8226	432.7928	65535	64702.45
812.9663	434.9683	65535	64705
813.1101	437.1432	65535	64697.9
813.2539	439.3176	65535	64699.45
813.3977	441.4914	65535	64702.2
813.5415	443.6645	65535	64699.35
813.6853	445.8371	65535	64699.85
813.8291	448.0091	65535	64702.15
813.973	450.1806	65535	64700.25
814.1168	452.3514	65535	64698.85
814.2607	454.5216	65535	64689.25
814.4046	456.6913	65535	64696.75
814.5485	458.8603	65535	64696.2
814.6924	461.0288	65535	64698.15
814.8363	463.1967	65535	64701.05
814.9802	465.3639	65535	64697
815.1241	467.5306	65535	64696.2
815.2681	469.6967	65535	64695.35
815.412	471.8622	65535	64696.55
815.556	474.0271	65535	64696.25
815.7	476.1914	65535	64691.65
815.844	478.3551	65535	64693.55
815.988	480.5182	65535	64691.9
816.132	482.6807	65535	64692.35
816.276	484.8426	65535	64696.4
816.4201	487.0039	65535	64693.1
816.5641	489.1647	65535	64690.45
816.7082	491.3248	65535	64692.45
816.8522	493.4843	65535	64689.9
816.9963	495.6432	65535	64690.95
817.1404	497.8015	65535	64685.75
817.2845	499.9592	65535	64689.2
817.4286	502.1163	65535	64685.45
817.5727	504.2728	65535	64684.1
817.7168	506.4287	65535	64686.5
817.861	508.5839	65535	64688.7
818.0051	510.7386	65535	64689.05
818.1493	512.8927	65535	64682.85
818.2935	515.0461	65535	64684.9
818.4377	517.199	65535	64686.5
818.5818	519.3512	65535	64681.9
818.726	521.5029	65535	64675.85
818.8703	523.6539	65535	64681.4
819.0145	525.8043	65535	64678.7
819.1587	527.9541	65535	64680.4
819.303	530.1033	65535	64676.6
819.4472	532.2519	65535	64682.2
819.5915	534.3999	65535	64677.75
819.7357	536.5472	65535	64678.6
819.88	538.694	65535	64679
820.0243	540.8401	65535	64680.9
820.1686	542.9856	65535	64674.75
820.3129	545.1305	65535	64674.05
820.4572	547.2748	65535	64673.2
820.6016	549.4185	65535	64674.45
820.7459	551.5615	65535	64677.3
820.8902	553.704	65535	64675.65
821.0346	555.8458	65535	64678.25
821.1789	557.987	65535	64677
821.3233	560.1276	65535	64673.9
821.4677	562.2675	65535	64675.4
821.6121	564.4069	65535	64670.2
821.7565	566.5456	65535	64676.35
821.9009	568.6837	65535	64674.6
822.0453	570.8212	65535	64675.25
822.1897	572.958	65535	64670.65
822.3342	575.0942	65535	64675.3
822.4786	577.2299	65535	64672.75
822.6231	579.3648	65535	64675.15
822.7675	581.4992	65535	64675.7
822.912	583.6329	65535	64677.75
823.0565	585.766	65535	64674.4
823.201	587.8985	65535	64670.4
823.3454	590.0304	65535	64649.05
823.4899	592.1616	65535	64670.05
823.6345	594.2922	65535	64671.9
823.779	596.4222	65535	64669.25
823.9235	598.5515	65535	64667.45
824.068	600.6802	65535	64668.5
824.2126	602.8083	65535	64666.55
824.3571	604.9358	65535	64669
824.5017	607.0626	65535	64667.75
824.6462	609.1888	65535	64667.4
824.7908	611.3144	65535	64666.35
824.9354	613.4393	65535	64667
825.08	615.5636	65535	64663.25
825.2246	617.6873	65535	64667.05
825.3692	619.8103	65535	64665.85
825.5138	621.9327	65535	64664.65
825.6584	624.0544	65535	64665.4
825.803	626.1756	65535	64669.7
825.9477	628.2961	65535	64664.7
826.0923	630.4159	65535	64664.55
826.237	632.5351	65535	64662
826.3816	634.6537	65535	64661.55
826.5263	636.7716	65535	64661.75
826.6709	638.8889	65535	64659.2
826.8156	641.0056	65535	64658.35
826.9603	643.1216	65535	64661.6
827.105	645.237	65535	64658.65
827.2497	647.3518	65535	64663.6
827.3944	649.4659	65535	64662.55
827.5391	651.5793	65535	64661.95
827.6838	653.6922	65535	64661.15
827.8285	655.8043	65535	64659.85
827.9733	657.9159	65535	64657.65
828.118	660.0268	65535	64657.75
828.2627	662.137	65535	64659.4
828.4075	664.2466	65535	64654.05
828.5522	666.3556	65535	64658.6
828.697	668.4639	65535	64651.75
828.8418	670.5716	65535	64658.8
828.9865	672.6786	65535	64658.7
829.1313	674.785	65535	64653.4
829.2761	676.8907	65535	64658.4
829.4209	678.9958	65535	64655.85
829.5657	681.1002	65535	64656.55
829.7105	683.204	65535	64652.55
829.8553	685.3072	65535	64659
830.0001	687.4097	65535	64656.95
830.1449	689.5115	65535	64652.5
830.2898	691.6127	65535	64657.2
830.4346	693.7132	65535	64657.45
830.5794	695.8131	65535	64636.8
830.7243	697.9123	65535	64650.3
830.8691	700.0109	65535	64653
831.014	702.1089	65535	64653.5
831.1588	704.2061	65535	64651.55
831.3037	706.3028	65535	64655.65
831.4486	708.3987	65535	64651.95
831.5935	710.4941	65535	64651.6
831.7383	712.5887	65535	64651.65
831.8832	714.6827	65535	64648.25
832.0281	716.7761	65535	64651.35
832.173	718.8688	65535	64653.6
832.3179	720.9608	65535	64649.25
832.4628	723.0522	65535	64650.4
832.6077	725.1429	65535	64649.35
832.7527	727.233	65535	64651.15
832.8976	729.3224	65535	64648.95
833.0425	731.4112	65535	64651.7
833.1874	733.4993	65535	64648.55
833.3324	735.5867	65535	64649.45
833.4773	737.6735	65535	64647.5
833.6222	739.7596	65535	64646
833.7672	741.845	65535	64647.8
833.9122	743.9298	65535	64645.2
834.0571	746.014	65535	64650.7
834.2021	748.0974	65535	64645.55
834.347	750.1802	65535	64645.95
834.492	752.2624	65535	64649.2
834.637	754.3439	65535	64647.55
834.782	756.4247	65535	64638.8
834.9269	758.5048	65535	64647.45
835.0719	760.5843	65535	64646.95
835.2169	762.6631	65535	64645
835.3619	764.7413	65535	64648.05
835.5069	766.8188	65535	64644.6
835.6519	768.8956	65535	64646.75
835.7969	770.9718	65535	64646.75
835.9419	773.0473	65535	64645.05
836.0869	775.1221	65535	64644.45
836.232	777.1962	65535	64645.35
836.377	779.2697	65535	64643.55
836.522	781.3426	65535	64624.3
836.667	783.4147	65535	64645.2
836.8121	785.4862	65535	64646.2
836.9571	787.557	65535	64645.1
837.1021	789.6271	65535	64644.3
837.2472	791.6966	65535	64642.5
837.3922	793.7654	65535	64644.15
837.5373	795.8335	65535	64645.3
837.6823	797.901	65535	64644.3
837.8274	799.9678	65535	64642.6
837.9724	802.0339	65535	64646.15
838.1175	804.0993	65535	64632.15
838.2626	806.1641	65535	64642.85
838.4076	808.2282	65535	64645.05
838.5527	810.2916	65535	64640.45
838.6978	812.3544	65535	64644.35
838.8428	814.4164	65535	64648.05
838.9879	816.4778	65535	64641
839.133	818.5385	65535	64643.85
839.2781	820.5986	65535	64644.7
839.4232	822.658	65535	64642.55
839.5682	824.7166	65535	64644.15
839.7133	826.7747	65535	64645.65
839.8584	828.832	65535	64642
840.0035	830.8886	65535	64641.35
840.1486	832.9446	65535	64640.7
840.2937	834.9999	65535	64642.3
840.4388	837.0545	65535	64637.75
840.5839	839.1085	65535	64641.25
840.729	841.1618	65535	64637.55
840.8741	843.2143	65535	64644.35
841.0192	845.2662	65535	64642.85
841.1643	847.3175	65535	64641.85
841.3095	849.368	65535	64641.75
841.4546	851.4179	65535	64644.2
841.5997	853.467	65535	64641.5
841.7448	855.5155	65535	64640.25
841.8899	857.5633	65535	64641.1
842.0351	859.6105	65535	64641.6
842.1802	861.6569	65535	64640.75
842.3253	863.7027	65535	64639.25
842.4704	865.7478	65535	64638.85
842.6156	867.7922	65535	64638.85
842.7607	869.8359	65535	64638.4
842.9058	871.8789	65535	64641.5
843.0509	873.9212	65535	64612.8
843.1961	875.9629	65535	64641.85
843.3412	878.0039	65535	64639.7
843.4863	880.0441	65535	64641.55
843.6315	882.0837	65535	64639.75
843.7766	884.1226	65535	64636.15
843.9218	886.1609	65535	64638.85
844.0669	888.1984	65535	64642.95
844.212	890.2352	65535	64640.1
844.3572	892.2714	65535	64637.95
844.5023	894.3069	65535	64640.5
844.6475	896.3416	65535	64638.75
844.7926	898.3757	65535	64640.15
844.9377	900.4091	65535	64639
845.0829	902.4418	65535	64634.5
845.228	904.4739	65535	64639.1
845.3732	906.5052	65535	64637.55
845.5183	908.5358	65535	64639.55
845.6635	910.5658	65535	64634.5
845.8086	912.595	65535	64639.75
845.9538	914.6236	65535	64639
846.0989	916.6515	65535	64639.3
846.2441	918.6786	65535	64637.2
846.3892	920.7051	65535	64636.1
846.5344	922.7309	65535	64636.35
846.6795	924.756	65535	64637.65
846.8246	926.7804	65535	64636
846.9698	928.8041	65535	64635.25
847.1149	930.8272	65535	64639
847.2601	932.8495	65535	64638.25
847.4052	934.8711	65535	64637.85
847.5504	936.892	65535	64637.65
847.6955	938.9123	65535	64638.2
847.8407	940.9318	65535	64635.75
847.9858	942.9506	65535	64636.55
848.131	944.9688	65535	64638.25
848.2761	946.9862	65535	64636.9
848.4213	949.003	65535	64636.4
848.5664	951.019	65535	64636.95
848.7115	953.0344	65535	64635.85
848.8567	955.0491	65535	64635.6
849.0018	957.063	65535	64635.7
849.147	959.0763	65535	64638.75
849.2921	961.0888	65535	64635.45
849.4373	963.1007	65535	64636.5
849.5824	965.1119	65535	64640.1
849.7275	967.1223	65535	64637.7
849.8727	969.1321	65535	64639.65
850.0178	971.1412	65535	64641.55
850.1629	973.1495	65535	64637
850.3081	975.1572	65535	64603
850.4532	977.1641	65535	64636.2
850.5983	979.1704	65535	64635
850.7435	981.1759	65535	64633.35
850.8886	983.1808	65535	64633.3
851.0337	985.1849	65535	64625.8
851.1788	987.1884	65535	64636.65
851.324	989.1911	65535	64635.6
851.4691	991.1932	65535	64639.25
851.6142	993.1945	65535	64636.3
851.7593	995.1951	65535	64636.9
851.9045	997.1951	65535	64629.95
852.0496	999.1943	65535	64634.3
852.1947	1001.1928	65535	64632.65
852.3398	1003.1906	65535	64634.75
852.4849	1005.1877	65535	64635.7
852.63	1007.1841	65535	64635.9
852.7751	1009.1798	65535	64637.05
852.9202	1011.1748	65535	64635.1
853.0653	1013.1691	65535	64633.15
853.2104	1015.1627	65535	64637.65
853.3555	1017.1556	65535	64635.6
853.5006	1019.1477	65535	64634.55
853.6457	1021.1392	65535	64639.1
853.7908	1023.1299	65535	64636.15
853.9359	1025.12	65535	64634.55
854.081	1027.1093	65535	64640.75
854.2261	1029.0979	65535	64641.4
854.3712	1031.0859	65535	64640.2
854.5163	1033.0731	65535	64636.45
854.6613	1035.0596	65535	64637.7
854.8064	1037.0454	65535	64637.8
854.9515	1039.0304	65535	64635.75
855.0965	1041.0148	65535	64638.7
855.2416	1042.9985	65535	64636.65
855.3867	1044.9814	65535	64637.3
855.5317	1046.9636	65535	64634
855.6768	1048.9452	65535	64637.75
855.8219	1050.926	65535	64638.65
855.9669	1052.9061	65535	64639.85
856.112	1054.8855	65535	64636.25
856.257	1056.8642	65535	64635.2
856.4021	1058.8421	65535	64628.8
856.5471	1060.8194	65535	64634.55
856.6921	1062.7959	65535	64636.15
856.8372	1064.7717	65535	64635.85
856.9822	1066.7469	65535	64637
857.1272	1068.7213	65535	64634
857.2723	1070.695	65535	64634.9
857.4173	1072.6679	65535	64635.9
857.5623	1074.6402	65535	64633.95
857.7073	1076.6117	65535	64629.6
857.8523	1078.5826	65535	64635.5
857.9973	1080.5527	65535	64633.75
858.1423	1082.5221	65535	64635.55
858.2873	1084.4908	65535	64634.25
858.4323	1086.4587	65535	64636.8
858.5773	1088.426	65535	64635.3
858.7223	1090.3925	65535	64629.8
858.8673	1092.3584	65535	64637.1
859.0123	1094.3235	65535	64634.9
859.1573	1096.2879	65535	64634.3
859.3022	1098.2515	65535	64635.6
859.4472	1100.2145	65535	64635.4
859.5922	1102.1767	65535	64635.8
859.7371	1104.1382	65535	64634.55
859.8821	1106.099	65535	64636.25
860.027	1108.0591	65535	64637
860.172	1110.0185	65535	64636.55
860.3169	1111.9771	65535	64635.95
860.4619	1113.9351	65535	64635.05
860.6068	1115.8923	65535	64636.5
860.7517	1117.8488	65535	64634.25
860.8967	1119.8045	65535	64637.5
861.0416	1121.7596	65535	64636.2
861.1865	1123.7139	65535	64634.65
861.3314	1125.6675	65535	64637.1
861.4763	1127.6204	65535	64633.8
861.6212	1129.5726	65535	64632.75
861.7661	1131.524	65535	64635.9
861.911	1133.4748	65535	64634.8
862.0559	1135.4248	65535	64634.15
862.2008	1137.3741	65535	64636.55
862.3457	1139.3226	65535	64634.6
862.4905	1141.2705	65535	64636.5
862.6354	1143.2176	65535	64625.8
862.7803	1145.164	65535	64633.7
862.9251	1147.1097	65535	64635.35
863.07	1149.0546	65535	64632.15
863.2148	1150.9989	65535	64634.65
863.3597	1152.9424	65535	64635.6
863.5045	1154.8852	65535	64634
863.6493	1156.8272	65535	64635.05
863.7942	1158.7686	65535	64626.7
863.939	1160.7092	65535	64633.2
864.0838	1162.6491	65535	64632.95
864.2286	1164.5883	65535	64636.05
864.3734	1166.5267	65535	64632.7
864.5182	1168.4644	65535	64635
864.663	1170.4014	65535	64632.9
864.8078	1172.3377	65535	64636.25
864.9526	1174.2732	65535	64635.85
865.0974	1176.2081	65535	64635.6
865.2421	1178.1421	65535	64631.3
865.3869	1180.0755	65535	64635.6
865.5317	1182.0082	65535	64635.9
865.6764	1183.9401	65535	64634.2
865.8212	1185.8713	65535	64635.85
865.9659	1187.8017	65535	64635.1
866.1106	1189.7315	65535	64638.55
866.2554	1191.6605	65535	64610
866.4001	1193.5888	65535	64635.95
866.5448	1195.5163	65535	64636.4
866.6895	1197.4432	65535	64633.15
866.8342	1199.3693	65535	64635.4
866.9789	1201.2947	65535	64633.95
867.1236	1203.2193	65535	64636.4
867.2683	1205.1432	65535	64637.15
867.413	1207.0664	65535	64633.6
867.5576	1208.9889	65535	64632.3
867.7023	1210.9106	65535	64634.05
867.847	1212.8316	65535	64636.6
867.9916	1214.7519	65535	64625.4
868.1363	1216.6715	65535	64635.35
868.2809	1218.5903	65535	64635.5
868.4255	1220.5084	65535	64634.8
868.5701	1222.4257	65535	64636.95
868.7148	1224.3424	65535	64635.8
868.8594	1226.2583	65535	64628.75
869.004	1228.1735	65535	64634.55
869.1486	1230.0879	65535	64634.5
869.2932	1232.0016	65535	64635.85
869.4377	1233.9146	65535	64636.4
869.5823	1235.8269	65535	64635.3
869.7269	1237.7384	65535	64635.75
869.8715	1239.6492	65535	64635.85
870.016	1241.5592	65535	64632.35
870.1606	1243.4686	65535	64633.05
870.3051	1245.3772	65535	64635.05
870.4496	1247.285	65535	64636.1
870.5941	1249.1922	65535	64636.05
870.7387	1251.0986	65535	64634.05
870.8832	1253.0042	65535	64635.8
871.0277	1254.9092	65535	64633.25
871.1722	1256.8134	65535	64635.8
871.3167	1258.7169	65535	64634.7
871.4611	1260.6196	65535	64636.85
871.6056	1262.5216	65535	64633.35
871.7501	1264.4229	65535	64636.7
871.8945	1266.3234	65535	64634.65
872.039	1268.2232	65535	64633.2
872.1834	1270.1223	65535	64634.25
872.3278	1272.0207	65535	64635.1
872.4723	1273.9183	65535	64630.65
872.6167	1275.8151	65535	64634.15
872.7611	1277.7113	65535	64634.05
872.9055	1279.6067	65535	64635.95
873.0499	1281.5014	65535	64632.65
873.1943	1283.3953	65535	64632.3
873.3386	1285.2885	65535	64635
873.483	1287.181	65535	64634.95
873.6274	1289.0727	65535	64636.4
873.7717	1290.9637	65535	64636.85
873.9161	1292.854	65535	64635.1
874.0604	1294.7435	65535	64635.8
874.2047	1296.6323	65535	64636.15
874.349	1298.5204	65535	64630.25
874.4933	1300.4077	65535	64632.8
874.6376	1302.2943	65535	64635.25
874.7819	1304.1802	65535	64637.6
874.9262	1306.0653	65535	64634.1
875.0705	1307.9497	65535	64636.7
875.2147	1309.8333	65535	64635.35
875.359	1311.7162	65535	64636.75
875.5032	1313.5984	65535	64630.45
875.6475	1315.4798	65535	64622.3
875.7917	1317.3605	65535	64617.7
875.9359	1319.2405	65535	64633.5
876.0801	1321.1197	65535	64632
876.2243	1322.9982	65535	64630.3
876.3685	1324.876	65535	64636.55
876.5127	1326.753	65535	64635.95
876.6569	1328.6293	65535	64633.85
876.801	1330.5048	65535	64632.8
876.9452	1332.3796	65535	64637.05
877.0893	1334.2537	65535	64609.65
877.2335	1336.127	65535	64632.45
877.3776	1337.9996	65535	64635.2
877.5217	1339.8714	65535	64633.25
877.6658	1341.7426	65535	64589.35
877.8099	1343.6129	65535	64635.95
877.954	1345.4826	65535	64634.25
878.0981	1347.3515	65535	64632.8
878.2422	1349.2196	65535	64634.95
878.3862	1351.087	65535	64634.9
878.5303	1352.9537	65535	64635.8
878.6743	1354.8197	65535	64633.9
878.8184	1356.6849	65535	64634.45
878.9624	1358.5493	65535	64635.2
879.1064	1360.4131	65535	64632.7
879.2504	1362.276	65535	64635.05
879.3944	1364.1383	65535	64635.85
879.5384	1365.9998	65535	64630.15
879.6823	1367.8606	65535	64634.6
879.8263	1369.7206	65535	64635.15
879.9702	1371.5799	65535	64631.1
880.1142	1373.4384	65535	64635.25
880.2581	1375.2962	65535	64636.45
880.402	1377.1533	65535	64635.95
880.5459	1379.0096	65535	64633.6
880.6898	1380.8652	65535	64636.15
880.8337	1382.7201	65535	64635.9
880.9776	1384.5742	65535	64632.8
881.1215	1386.4275	65535	64635.7
881.2653	1388.2802	65535	64637.2
881.4092	1390.132	65535	64635.4
881.553	1391.9832	65535	64632.1
881.6968	1393.8336	65535	64633.1
881.8406	1395.6832	65535	64633.25
881.9844	1397.5322	65535	64634.4
882.1282	1399.3803	65535	64629.1
882.272	1401.2278	65535	64635.2
882.4158	1403.0745	65535	64635.05
882.5595	1404.9204	65535	64637.6
882.7033	1406.7656	65535	64632.55
882.847	1408.6101	65535	64634.55
882.9908	1410.4538	65535	64634.05
883.1345	1412.2968	65535	64632.7
883.2782	1414.139	65535	64635.55
883.4219	1415.9805	65535	64634.8
883.5656	1417.8213	65535	64628
883.7092	1419.6613	65535	64637.5
883.8529	1421.5006	65535	64632.5
883.9965	1423.3391	65535	64636.55
884.1402	1425.1769	65535	64634.2
884.2838	1427.0139	65535	64635.65
884.4274	1428.8502	65535	64634
884.571	1430.6858	65535	64633.5
884.7146	1432.5206	65535	64633.5
884.8582	1434.3547	65535	64633.75
885.0018	1436.188	65535	64635.2
885.1453	1438.0206	65535	64634.85
885.2889	1439.8524	65535	64636.5
885.4324	1441.6835	65535	64634.75
885.5759	1443.5139	65535	64631.4
885.7194	1445.3435	65535	64634.65
885.8629	1447.1724	65535	64634.1
886.0064	1449.0005	65535	64635.4
886.1499	1450.8279	65535	64635.85
886.2933	1452.6545	65535	64635.65
886.4368	1454.4804	65535	64636.85
886.5802	1456.3056	65535	64628.5
886.7237	1458.13	65535	64635.5
886.8671	1459.9536	65535	64637.4
887.0105	1461.7766	65535	64636.35
887.1539	1463.5987	65535	64634.45
887.2972	1465.4202	65535	64635.05
887.4406	1467.2409	65535	64635.4
887.584	1469.0608	65535	64636.25
887.7273	1470.88	65535	64636.25
887.8706	1472.6984	65535	64636.2
888.0139	1474.5161	65535	64633.35
888.1572	1476.3331	65535	64634.95
888.3005	1478.1493	65535	64634.9
888.4438	1479.9648	65535	64635.65
888.5871	1481.7795	65535	64635.35
888.7303	1483.5935	65535	64636.4
888.8736	1485.4067	65535	64636.1
889.0168	1487.2192	65535	64633.85
889.16	1489.031	65535	64632.7
889.3032	1490.842	65535	64634.7
889.4464	1492.6522	65535	64636.3
889.5896	1494.4618	65535	64632.75
889.7327	1496.2705	65535	64636.75
889.8759	1498.0785	65535	64635.7
890.019	1499.8858	65535	64633.65
890.1622	1501.6924	65535	64637.35
890.3053	1503.4981	65535	64636.9
890.4484	1505.3032	65535	64634.95
890.5914	1507.1075	65535	64634.85
890.7345	1508.911	65535	64634.65
890.8776	1510.7138	65535	64634.25
891.0206	1512.5159	65535	64636.1
891.1637	1514.3172	65535	64637.25
891.3067	1516.1178	65535	64636.6
891.4497	1517.9176	65535	64634.65
891.5927	1519.7166	65535	64637.45
891.7357	1521.515	65535	64629.35
891.8786	1523.3126	65535	64635.55
892.0216	1525.1094	65535	64634.6
892.1645	1526.9055	65535	64638.1
892.3074	1528.7008	65535	64636.65
892.4503	1530.4954	65535	64628.55
892.5932	1532.2893	65535	64638.2
892.7361	1534.0824	65535	64632.15
892.879	1535.8747	65535	64634.9
893.0218	1537.6663	65535	64638.2
893.1647	1539.4572	65535	64635.1
893.3075	1541.2473	65535	64635.45
893.4503	1543.0367	65535	64637
893.5931	1544.8253	65535	64631.45
893.7359	1546.6132	65535	64633.35
893.8787	1548.4003	65535	64625.85
894.0214	1550.1867	65535	64627.95
894.1642	1551.9723	65535	64632.3
894.3069	1553.7572	65535	64636.8
894.4496	1555.5414	65535	64637.45
894.5923	1557.3247	65525.65	64627.45
894.735	1559.1074	65535	64638.9
894.8777	1560.8893	65535	64636.45
895.0204	1562.6705	65535	64637.85
895.163	1564.4509	65532.3	64635.65
895.3056	1566.2305	65535	64638.75
895.4482	1568.0094	65535	64638.85
895.5908	1569.7876	65535	64640.15
895.7334	1571.565	65530.75	64632.95
895.876	1573.3417	65534.05	64636
896.0186	1575.1176	65534.35	64640.5
896.1611	1576.8928	65530.35	64632.6
896.3036	1578.6672	65521.25	64628.15
896.4461	1580.4409	65530.3	64636.05
896.5886	1582.2138	65497.7	64600.1
896.7311	1583.986	65511.6	64614.1
896.8736	1585.7575	65430.1	64535.25
897.0161	1587.5282	65484.2	64587.85
897.1585	1589.2981	65479.1	64584.05
897.3009	1591.0673	65379.6	64483.6
897.4433	1592.8358	65256.2	64362.8
897.5857	1594.6035	65392.2	64493.3
897.7281	1596.3704	65383.05	64483.35
897.8705	1598.1366	65082.35	64185.5
898.0128	1599.9021	64869.75	63973.2
898.1551	1601.6668	65262.95	64365.2
898.2975	1603.4308	65048	64151.95
898.4398	1605.194	65023.9	64123.5
898.5821	1606.9564	64423.65	63525.85
898.7243	1608.7182	64814.6	63916.9
898.8666	1610.4791	64445.85	63552.45
899.0088	1612.2394	64838.25	63939.95
899.1511	1613.9988	64302.8	63408.7
899.2933	1615.7576	64838.05	63941.4
899.4355	1617.5156	64800.2	63897.1
899.5776	1619.2728	65195.7	64298.45
899.7198	1621.0293	64504.25	63607.95
899.862	1622.785	64541.8	63645.7
900.0041	1624.54	64802.4	63904.4
900.1462	1626.2942	64273.8	63377.65
900.2883	1628.0477	63475.75	62576.5
900.4304	1629.8005	62713.55	61814.1
900.5725	1631.5525	63483.05	62588.55
900.7145	1633.3037	62283.4	61386.5
900.8566	1635.0542	62105.6	61209.95
900.9986	1636.804	62617.4	61721.8
901.1406	1638.553	61427.25	60423.5
901.2826	1640.3013	61785.8	60888.7
901.4245	1642.0488	61031.55	60135.75
901.5665	1643.7955	61577.1	60683.75
901.7085	1645.5416	61060.95	60165.9
901.8504	1647.2868	60511.8	59618.1
901.9923	1649.0313	61344	60449.65
902.1342	1650.7751	60791.25	59893.65
902.2761	1652.5181	60424.05	59530.8
902.4179	1654.2604	60512.35	59616.75
902.5598	1656.0019	60920.65	60026.9
902.7016	1657.7427	60676.5	59780.9
902.8434	1659.4828	61286.3	60392.45
902.9852	1661.222	60866.2	59970.2
903.127	1662.9606	61431.05	60537.65
903.2687	1664.6984	60477.55	59582.4
903.4105	1666.4354	60686.6	59791.5
903.5522	1668.1717	59517.05	58622.05
903.6939	1669.9072	58696.85	57803.1
903.8356	1671.642	58435.25	57538.3
903.9773	1673.3761	58104.65	57208.65
904.119	1675.1094	57767.25	56872.75
904.2606	1676.8419	57163.35	56268.55
904.4022	1678.5737	57145.7	56252.55
904.5439	1680.3048	56834.45	55939.7
904.6855	1682.0351	56485.25	55591.15
904.827	1683.7646	56171.8	55274.8
904.9686	1685.4934	56233.6	55340.7
905.1101	1687.2215	55228.35	54333.2
905.2517	1688.9488	55756.1	54861.75
905.3932	1690.6754	54350.7	53459
905.5347	1692.4012	54858.7	53964.2
905.6761	1694.1263	54734.75	53840.85
905.8176	1695.8506	54371.55	53478.4
905.9591	1697.5742	54239.05	53345.35
906.1005	1699.297	53984.85	53091.15
906.2419	1701.0191	53854.55	52960.25
906.3833	1702.7404	53344.85	52450.45
906.5246	1704.461	53044.25	52148.5
906.666	1706.1808	52981.3	52087.8
906.8073	1707.8999	52908.9	52013.45
906.9487	1709.6182	52651.65	51757.65
907.09	1711.3358	52458.3	51565.35
907.2313	1713.0527	52223.25	51331.85
907.3725	1714.7688	52177.6	51276.45
907.5138	1716.4841	51673.2	50777.8
907.655	1718.1987	51787.95	50888.5
907.7962	1719.9126	51504.95	50612.95
907.9374	1721.6257	51377.75	50481.7
908.0786	1723.338	51385.05	50493.3
908.2198	1725.0496	50765.2	49871.4
908.3609	1726.7605	50785.05	49891.9
908.502	1728.4706	50576.8	49682.25
908.6431	1730.18	50325.2	49428.95
908.7842	1731.8886	50194.45	49301.85
908.9253	1733.5964	50046.8	49133.55
909.0664	1735.3036	49983.1	49087.3
909.2074	1737.0099	49755.35	48862.65
909.3484	1738.7156	49569.35	48675.4
909.4894	1740.4204	49330.1	48434.15
909.6304	1742.1246	49266.8	48371.1
909.7714	1743.8279	49100.5	48207.85
909.9123	1745.5306	49069.15	48176.45
910.0532	1747.2325	48702.9	47808.35
910.1941	1748.9336	48527.95	47634.35
910.335	1750.634	48374.45	47479.45
910.4759	1752.3336	48310.65	47418.9
910.6168	1754.0325	48145.75	47254.65
910.7576	1755.7307	48090.15	47198.5
910.8984	1757.4281	47951.25	47056.9
911.0392	1759.1247	47856.9	46954.85
911.18	1760.8206	47695.05	46797.4
911.3208	1762.5158	47622.3	46725.55
911.4615	1764.2102	47369	46475.3
911.6022	1765.9039	47267.85	46375.45
911.7429	1767.5968	47114.75	46220.75
911.8836	1769.289	46921.4	46026.85
912.0243	1770.9804	46817.75	45923.25
912.1649	1772.6711	46795.9	45901.45
912.3056	1774.361	46574	45679.35
912.4462	1776.0502	46473.55	45579.75
912.5868	1777.7386	46260.6	45364.35
912.7274	1779.4263	46081.25	45186.45
912.8679	1781.1132	46097.45	45205.3
913.0084	1782.7994	45869.85	44975.95
913.149	1784.4849	45732.5	44840.95
913.2895	1786.1696	45570.1	44670.95
913.4299	1787.8535	45472.2	44581.85
913.5704	1789.5367	45338.4	44445.95
913.7108	1791.2192	45312.35	44419.5
913.8513	1792.9009	45067.05	44143.35
913.9917	1794.5818	44936.65	44041.15
914.132	1796.2621	44831.4	43940
914.2724	1797.9415	44686.55	43795.65
914.4128	1799.6202	44545.95	43654.45
914.5531	1801.2982	44409.3	43515.9
914.6934	1802.9755	44341	43445.3
914.8337	1804.6519	44229.1	43338.35
914.9739	1806.3277	44012.3	43120.2
915.1142	1808.0027	43794.55	42902.95
915.2544	1809.6769	43769.95	42877.8
915.3946	1811.3504	43602.2	42709.45
915.5348	1813.0231	43474.7	42582.7
915.675	1814.6951	43399.65	42506.3
915.8151	1816.3664	43425.7	42530.8
915.9553	1818.0369	43219.8	42327
916.0954	1819.7067	43079.1	42187
916.2355	1821.3757	42979.95	42086.15
916.3755	1823.044	42889.55	41997.55
916.5156	1824.7115	42780.8	41887.1
916.6556	1826.3783	42555.85	41663
916.7956	1828.0443	42347.15	41455.3
916.9356	1829.7096	42254.2	41359.9
917.0756	1831.3741	42216	41319.4
917.2155	1833.0379	42048.55	41154.85
917.3555	1834.701	41914.15	41020.9
917.4954	1836.3633	41799.85	40906.4
917.6353	1838.0248	41727	40832.5
917.7751	1839.6856	41620.1	40726.95
917.915	1841.3457	41572.6	40681.1
918.0548	1843.005	41444.65	40552.95
918.1946	1844.6636	41395.45	40504.9
918.3344	1846.3214	41189.15	40297.95
918.4742	1847.9785	41116.75	40224.1
918.6139	1849.6349	41018.45	40124
918.7537	1851.2904	40903.3	40001.7
918.8934	1852.9453	40738.85	39844.4
919.0331	1854.5994	40619.6	39725.65
919.1727	1856.2528	40611.4	39713.8
919.3124	1857.9054	40486.45	39593.8
919.452	1859.5572	40417.9	39525.8
919.5916	1861.2083	40323.6	39431.8
919.7312	1862.8587	40235.7	39341.45
919.8708	1864.5084	40115.5	39223.3
920.0103	1866.1572	39963.3	39070.6
920.1498	1867.8054	39756.35	38864.6
920.2893	1869.4528	39705	38813.3
920.4288	1871.0994	39548.3	38654.6
920.5683	1872.7453	39488.45	38595.2
920.7077	1874.3905	39368.6	38469.25
920.8471	1876.0349	39210.7	38316.1
920.9865	1877.6786	39179.5	38285.1
921.1259	1879.3215	39158.6	38265.5
921.2653	1880.9637	39000.3	38105.9
921.4046	1882.6051	38974.15	38081.05
921.5439	1884.2458	38813.6	37919.4
921.6832	1885.8858	38662.55	37768.95
921.8225	1887.525	38580.05	37686.55
921.9617	1889.1634	38359.45	37465.7
922.101	1890.8011	38243.5	37351.55
922.2402	1892.4381	38139.3	37247.8
922.3794	1894.0743	38124.55	37233.8
922.5185	1895.7098	37908.05	37015
922.6577	1897.3446	37861.1	36969.3
922.7968	1898.9786	37728.1	36831.6
922.9359	1900.6118	37619.25	36727.25
923.075	1902.2443	37471.05	36577.75
923.214	1903.8761	37287.9	36396.35
923.3531	1905.5071	37047.95	36153.7
923.4921	1907.1374	37013.9	36119.6
923.6311	1908.7669	36938.5	36047.05
923.77	1910.3957	36897	36005.55
923.909	1912.0237	36633.2	35741.05
924.0479	1913.651	36520.05	35626
924.1868	1915.2776	36415.15	35524.15
924.3257	1916.9034	36259.55	35368
924.4646	1918.5285	36078.5	35189.4
924.6034	1920.1528	35938.55	35045.1
924.7422	1921.7764	35871.6	34978.05
924.881	1923.3992	35710.5	34817.95
925.0198	1925.0213	35500.95	34607.4
925.1586	1926.6427	35352.85	34460.75
925.2973	1928.2633	35338.25	34337.4
925.436	1929.8832	35148.05	34255.4
925.5747	1931.5023	34931	34038.2
925.7134	1933.1207	34902.15	34009.95
925.852	1934.7383	34794.45	33902.4
925.9906	1936.3552	34630.55	33739.05
926.1292	1937.9714	34561.15	33668.65
926.2678	1939.5868	34390.45	33497.1
926.4064	1941.2015	34171.3	33277.15
926.5449	1942.8154	34086.1	33193.55
926.6834	1944.4286	33909.1	33017.1
926.8219	1946.041	33722.1	32812.85
926.9604	1947.6528	33587	32688.35
927.0988	1949.2637	33541.8	32650.9
927.2372	1950.8739	33382.9	32490.9
927.3756	1952.4834	33315.5	32424.35
927.514	1954.0921	33189.05	32297.6
927.6523	1955.7001	33068.85	32172.4
927.7907	1957.3074	32959.65	32067.9
927.929	1958.9139	32842.3	31950.2
928.0673	1960.5197	32767.15	31873.4
928.2055	1962.1247	32549.7	31658.6
928.3438	1963.729	32374.35	31482.65
928.482	1965.3325	32290.95	31375.95
928.6202	1966.9353	32135.75	31245.1
928.7584	1968.5374	32039.5	31147.2
928.8965	1970.1387	31919.8	31027.85
929.0346	1971.7393	31789	30897.25
929.1727	1973.3392	31665.05	30772.95
929.3108	1974.9383	31583.6	30692.4
929.4489	1976.5366	31433.4	30544.6
929.5869	1978.1342	31358.65	30466.85
929.7249	1979.7311	31271.7	30379.5
929.8629	1981.3273	31191.3	30300.55
930.0009	1982.9227	31010.45	30116.55
930.1388	1984.5173	30916.65	30026.05
930.2767	1986.1112	30768.5	29876.95
930.4146	1987.7044	30706.1	29817.95
930.5525	1989.2968	30592.5	29697.45
930.6904	1990.8885	30527	29633.05
930.8282	1992.4795	30465.25	29571.4
930.966	1994.0697	30271.55	29378.8
931.1038	1995.6592	30208.45	29319.35
931.2415	1997.2479	30099.9	29209.2
931.3793	1998.8359	30014.4	29123
931.517	2000.4232	29867.5	28977.15
931.6547	2002.0097	29758.7	28869.7
931.7923	2003.5955	29606.65	28715.25
931.93	2005.1805	29547.45	28654.8
932.0676	2006.7648	29459.4	28567.3
932.2052	2008.3484	29324.8	28432.65
932.3427	2009.9312	29398.15	28505.25
932.4803	2011.5133	29175.85	28286.3
932.6178	2013.0946	29105.6	28214.2
932.7553	2014.6752	29009.4	28118.6
932.8928	2016.2551	28943.2	28050.15
933.0302	2017.8342	28785.15	27894
933.1676	2019.4126	28692.9	27802.3
933.305	2020.9902	28554.9	27663.85
933.4424	2022.5672	28498.7	27605.8
933.5798	2024.1433	28392	27496.4
933.7171	2025.7188	28313.35	27422.45
933.8544	2027.2935	28224.65	27335
933.9917	2028.8674	28077.15	27186.65
934.129	2030.4406	27995	27103.25
934.2662	2032.0131	27875	26985.7
934.4034	2033.5849	27754.8	26855.7
934.5406	2035.1559	27715.6	26824.35
934.6778	2036.7261	27654.55	26763.65
934.8149	2038.2957	27571.95	26680.8
934.952	2039.8645	27496	26604.7
935.0891	2041.4325	27551.8	26658.9
935.2262	2042.9998	27343.85	26454.15
935.3632	2044.5664	27279.1	26387.8
935.5002	2046.1323	27175.2	26284.5
935.6372	2047.6974	27080.3	26190.45
935.7742	2049.2617	27037.95	26148.2
935.9111	2050.8254	26944.95	26031.25
936.048	2052.3883	26903.1	26010.65
936.1849	2053.9504	26782.9	25890.65
936.3218	2055.5118	26709.8	25818.65
936.4586	2057.0725	26553.15	25656.95
936.5955	2058.6325	26493.85	25600.9
936.7323	2060.1917	26409.35	25519.15
936.869	2061.7502	26348.6	25456.85
937.0058	2063.3079	26236.15	25346.5
937.1425	2064.8649	26160.3	25265.75
937.2792	2066.4212	26079.8	25187.5
937.4159	2067.9767	26012.4	25119.95
937.5525	2069.5315	25857.85	24965.7
937.6891	2071.0856	25722.15	24830.15
937.8257	2072.6389	25639.05	24746.95
937.9623	2074.1915	25530.5	24642.8
938.0989	2075.7433	25400.9	24508.5
938.2354	2077.2945	25337.9	24446.75
938.3719	2078.8448	25265.35	24374.1
938.5084	2080.3945	25188.05	24297.9
938.6448	2081.9434	25144.3	24254.25
938.7812	2083.4916	25038.3	24148.45
938.9176	2085.039	24911.55	24018.95
939.054	2086.5857	24866	23973.8
939.1903	2088.1317	24833.75	23940.9
939.3267	2089.677	24696.5	23802.95
939.463	2091.2215	24590.3	23697.55
939.5992	2092.7652	24564.8	23669.3
939.7355	2094.3083	24512.7	23620.5
939.8717	2095.8506	24448.6	23558
940.0079	2097.3921	24403.35	23513.15
940.1441	2098.933	24274.05	23382.25
940.2802	2100.4731	24258.65	23369.55
940.4163	2102.0124	24185.7	23288.7
940.5524	2103.5511	24126.95	23238.45
940.6885	2105.089	24046.95	23155.8
940.8245	2106.6261	23962.15	23071.15
940.9606	2108.1626	23913.35	23022.05
941.0965	2109.6983	23855.45	22935.4
941.2325	2111.2332	23753.7	22861
941.3684	2112.7675	23676.3	22783.2
941.5044	2114.301	23596.7	22704.7
941.6403	2115.8337	23557.45	22666.45
941.7761	2117.3657	23462.9	22570.65
941.912	2118.897	23428.1	22535.8
942.0478	2120.4276	23301.05	22402.35
942.1835	2121.9575	23228.25	22337.7
942.3193	2123.4866	23249.65	22344
942.455	2125.0149	23168	22272.35
942.5907	2126.5426	22975.65	22082
942.7264	2128.0695	22926.25	22030.25
942.8621	2129.5956	22852.2	21962.8
942.9977	2131.1211	22829.25	21933.8
943.1333	2132.6458	22774.6	21884.85
943.2689	2134.1698	22685.65	21795.1
943.4044	2135.693	22644.25	21751.3
943.54	2137.2155	22585.95	21691.25
943.6755	2138.7373	22519.7	21627.15
943.8109	2140.2584	22404.2	21512.4
943.9464	2141.7787	22322.7	21425.1
944.0818	2143.2983	22191.3	21302.5
944.2172	2144.8171	22062.6	21171.55
944.3526	2146.3353	22043	21152.45
944.4879	2147.8527	21920.05	21029
944.6232	2149.3693	21927.35	21037.4
944.7585	2150.8853	21843.75	20951.8
944.8938	2152.4005	21725.15	20833.05
945.029	2153.9149	21698.3	20806.6
945.1642	2155.4287	21646.6	20754.9
945.2994	2156.9417	21570.35	20676.1
945.4346	2158.454	21507.2	20611.2
945.5697	2159.9655	21430.5	20540.9
945.7048	2161.4764	21387.55	20496.75
945.8399	2162.9865	21310.45	20418.05
945.9749	2164.4958	21256	20363.25
946.1099	2166.0045	21140.1	20245.65
946.2449	2167.5124	21123	20232.1
946.3799	2169.0195	21064.6	20173.35
946.5148	2170.526	21056.8	20162.75
946.6498	2172.0317	20961.95	20069.8
946.7846	2173.5367	20897.05	20004.9
946.9195	2175.0409	20826	19935.35
947.0543	2176.5445	20792.2	19900.8
947.1891	2178.0473	20684.65	19792.1
947.3239	2179.5494	20632.25	19738.4
947.4587	2181.0507	20511.8	19617.75
947.5934	2182.5513	20426.7	19535.05
947.7281	2184.0512	20404.55	19513.2
947.8628	2185.5504	20355.35	19462.2
947.9974	2187.0488	20229.95	19338.6
948.132	2188.5465	20155.45	19264.3
948.2666	2190.0435	20098.4	19207.3
948.4012	2191.5397	20021.85	19130.6
948.5357	2193.0353	19952.2	19060.1
948.6702	2194.5301	19832.3	18939.4
948.8047	2196.0241	19770.9	18876.8
948.9392	2197.5175	19716.2	18826.65
949.0736	2199.0101	19608.55	18711.95
949.208	2200.502	19516.55	18626.55
949.3424	2201.9931	19453.65	18563.85
949.4767	2203.4835	19379.7	18487.8
949.611	2204.9733	19300.75	18403.65
949.7453	2206.4622	19243.7	18352.95
949.8796	2207.9505	19171.55	18276.9
950.0138	2209.438	19064.5	18172.95
950.148	2210.9248	19029.9	18138.75
950.2822	2212.4109	18951.25	18060.3
950.4164	2213.8962	18903.55	18009.45
950.5505	2215.3809	18874.65	17981.55
950.6846	2216.8648	18803.45	17911.5
950.8186	2218.3479	18766.8	17867.5
950.9527	2219.8304	18678	17781.3
951.0867	2221.3121	18594.25	17699.65
951.2207	2222.7931	18506.85	17616.7
951.3546	2224.2733	18448	17557.55
951.4886	2225.7529	18374.95	17481.7
951.6225	2227.2317	18297.15	17403.2
951.7563	2228.7098	18246.9	17354
951.8902	2230.1872	18152.3	17260.45
952.024	2231.6638	18149.5	17259
952.1578	2233.1397	18060.25	17161.95
952.2916	2234.6149	17989.15	17097.95
952.4253	2236.0894	17959.25	17067.35
952.559	2237.5632	17899	16996.25
952.6927	2239.0362	17828.2	16936.5
952.8263	2240.5085	17772.75	16882.65
952.9599	2241.9801	17725.4	16834.55
953.0935	2243.4509	17617.3	16727.1
953.2271	2244.921	17564.85	16672.2
953.3606	2246.3904	17525.7	16632.5
953.4941	2247.8591	17416.45	16525.6
953.6276	2249.3271	17408.15	16516.2
953.7611	2250.7943	17323.8	16430.65
953.8945	2252.2608	17249.8	16357.45
954.0279	2253.7266	17219.8	16329.7
954.1612	2255.1917	17146.4	16255.35
954.2946	2256.656	17077.65	16186.3
954.4279	2258.1197	17031.75	16141.05
954.5612	2259.5826	16941.7	16048.2
954.6944	2261.0447	16928.55	16035.75
954.8276	2262.5062	16862.5	15967.4
954.9608	2263.9669	16829.2	15934.35
955.094	2265.4269	16792.1	15900.75
955.2271	2266.8862	16709.2	15817.6
955.3602	2268.3448	16682.4	15792.35
955.4933	2269.8026	16651.15	15761.3
955.6264	2271.2598	16578.65	15687.4
955.7594	2272.7162	16523.4	15632.7
955.8924	2274.1719	16448.45	15555.95
956.0253	2275.6268	16401.25	15509.45
956.1583	2277.0811	16365.7	15471.55
956.2912	2278.5346	16286.6	15394.1
956.4241	2279.9874	16247.1	15354.55
956.5569	2281.4395	16232.4	15343.05
956.6897	2282.8908	16149.4	15252.3
956.8225	2284.3414	16134.55	15241.7
956.9553	2285.7914	16094.4	15204.05
957.088	2287.2406	16027.8	15136.35
957.2207	2288.689	15989.3	15096.85
957.3534	2290.1368	15897.3	15004.5
957.486	2291.5838	15867.9	14974.6
957.6186	2293.0302	15853.9	14959.95
957.7512	2294.4758	15734.9	14841.95
957.8838	2295.9206	15665.25	14770.5
958.0163	2297.3648	15637.5	14745.35
958.1488	2298.8082	15596.1	14702.95
958.2813	2300.251	15554.2	14662.15
958.4137	2301.693	15518	14623.65
958.5461	2303.1343	15475.25	14581.4
958.6785	2304.5748	15416.2	14524.85
958.8108	2306.0147	15345.9	14453.35
958.9432	2307.4538	15286.65	14392.9
959.0754	2308.8922	15255.3	14366.05
959.2077	2310.3299	15203.6	14312.35
959.3399	2311.7669	15155.2	14263.2
959.4721	2313.2031	15076.15	14184.95
959.6043	2314.6387	15023.1	14130.4
959.7365	2316.0735	14968.55	14078.4
959.8686	2317.5076	14936.6	14043.65
960.0006	2318.941	14906.1	14014.7
960.1327	2320.3737	14809.05	13917.1
960.2647	2321.8056	14804.05	13907.5
960.3967	2323.2369	14758.5	13865.7
960.5287	2324.6674	14724.75	13830.65
960.6606	2326.0972	14633.3	13740.95
960.7925	2327.5263	14586.7	13696.95
960.9244	2328.9547	14532.15	13638.95
961.0562	2330.3823	14496.9	13604.95
961.1881	2331.8092	14477.9	13582.25
961.3198	2333.2355	14399.55	13508.1
961.4516	2334.661	14368.65	13476.15
961.5833	2336.0858	14323.6	13429.85
961.715	2337.5098	14291	13398.2
961.8467	2338.9332	14267.85	13375
961.9783	2340.3558	14177.35	13280.35
962.1099	2341.7778	14142.2	13250.6
962.2415	2343.199	14093.95	13200.4
962.373	2344.6195	14030.65	13139.6
962.5045	2346.0393	13986.85	13096.55
962.636	2347.4583	13962.9	13072.35
962.7675	2348.8767	13899.9	13008.4
962.8989	2350.2943	13879.1	12985.85
963.0303	2351.7113	13862.6	12969.95
963.1617	2353.1275	13779.8	12886.85
963.293	2354.543	13743.25	12841.85
963.4243	2355.9578	13708.65	12817.9
963.5556	2357.3718	13620.75	12731.05
963.6868	2358.7852	13552.55	12658.35
963.818	2360.1978	13506.75	12614.85
963.9492	2361.6098	13470.65	12580.75
964.0803	2363.021	13447.15	12552.4
964.2114	2364.4315	13375.4	12483.05
964.3425	2365.8413	13339.4	12447.1
964.4736	2367.2504	13257.45	12366.5
964.6046	2368.6587	13200.2	12308.75
964.7356	2370.0664	13144.35	12252.55
964.8666	2371.4733	13107.75	12216.5
964.9975	2372.8795	13078.3	12187.25
965.1284	2374.285	12981.05	12089.8
965.2593	2375.6899	12938.85	12046.8
965.3901	2377.0939	12909.9	12018.4
965.5209	2378.4973	12841.25	11951.2
965.6517	2379.9	12784.95	11894.5
965.7825	2381.3019	12749.9	11859.8
965.9132	2382.7032	12709	11817.7
966.0439	2384.1037	12672.85	11782.35
966.1745	2385.5035	12629.2	11737.95
966.3051	2386.9027	12569.9	11678.95
966.4357	2388.3011	12547.55	11654.4
966.5663	2389.6987	12501.05	11609.7
966.6968	2391.0957	12454.2	11564.7
966.8273	2392.492	12385.15	11494.95
966.9578	2393.8876	12324.4	11432.35
967.0882	2395.2824	12271.55	11380.85
967.2186	2396.6765	12205.65	11315.45
967.349	2398.07	12165.5	11274.5
967.4793	2399.4627	12124.45	11231.95
967.6097	2400.8547	12114.8	11223.65
967.7399	2402.246	12060.05	11162.5
967.8702	2403.6366	11984.3	11093.75
968.0004	2405.0265	11905.5	11015.35
968.1306	2406.4156	11904.5	11009.9
968.2607	2407.8041	11856.15	10962.6
968.3909	2409.1918	11787.15	10894.8
968.521	2410.5789	11759.95	10868.7
968.651	2411.9652	11690.3	10795.3
968.781	2413.3508	11665.35	10772.9
968.911	2414.7358	11614.2	10723.15
969.041	2416.12	11562.6	10671.7
969.1709	2417.5035	11518.25	10629.2
969.3008	2418.8863	11520.35	10627
969.4307	2420.2684	11455.75	10565.6
969.5606	2421.6497	11400.35	10509.1
969.6904	2423.0304	11350.05	10461.95
969.8201	2424.4104	11290.95	10398.5
969.9499	2425.7896	11262.25	10369
970.0796	2427.1682	11247.3	10355.5
970.2093	2428.546	11217	10326.8
970.3389	2429.9232	11182.45	10290.9
970.4685	2431.2996	11145.85	10254
970.5981	2432.6753	11108.8	10217.85
970.7277	2434.0503	11077.55	10186.75
970.8572	2435.4246	11049.9	10160.15
970.9867	2436.7982	10998.15	10108.35
971.1161	2438.1711	10971.95	10081.05
971.2456	2439.5433	10909.45	10017.45
971.375	2440.9148	10871.3	9978.1
971.5043	2442.2856	10825.8	9933.15
971.6336	2443.6557	10801.25	9908.5
971.7629	2445.025	10765.85	9875.35
971.8922	2446.3937	10719.75	9828.95
972.0214	2447.7617	10673.5	9782.1
972.1506	2449.1289	10662.85	9772.85
972.2798	2450.4955	10634.05	9739.6
972.4089	2451.8613	10581.95	9693.3
972.538	2453.2265	10578.3	9687.6
972.6671	2454.5909	10543.45	9652.5
972.7961	2455.9546	10512.5	9622.45
972.9251	2457.3177	10465.4	9575.75
973.0541	2458.68	10419.7	9526.85
973.1831	2460.0416	10401.85	9509.2
973.312	2461.4025	10378.2	9485.55
973.4408	2462.7627	10375.4	9471.55
973.5697	2464.1222	10308.65	9418
973.6985	2465.4811	10273.9	9381.85
973.8273	2466.8392	10259.8	9368.3
973.956	2468.1966	10226.4	9334.25
974.0847	2469.5533	10216.5	9322.4
974.2134	2470.9093	10181.75	9289.5
974.3421	2472.2645	10132.85	9239.3
974.4707	2473.6191	10110.4	9219.1
974.5993	2474.973	10070.6	9179.8
974.7278	2476.3262	10049.4	9157.85
974.8563	2477.6787	10013.9	9123.65
974.9848	2479.0305	9928.1	9036.6
975.1132	2480.3816	9900.35	9009.5
975.2417	2481.7319	9875.5	8983.05
975.37	2483.0816	9819.4	8928.45
975.4984	2484.4306	9790	8899.6
975.6267	2485.7789	9759.6	8868.6
975.755	2487.1264	9722.65	8829.7
975.8833	2488.4733	9629.75	8741.15
976.0115	2489.8195	9643.95	8735.75
976.1397	2491.165	9600.9	8705.85
976.2678	2492.5097	9553.95	8660.55
976.3959	2493.8538	9523.95	8633.3
976.524	2495.1972	9470.4	8579.9
976.6521	2496.5398	9456.55	8563.1
976.7801	2497.8818	9416.95	8522.4
976.9081	2499.2231	9387.1	8495.45
977.036	2500.5637	9346.7	8451.65
977.164	2501.9035	9322.2	8430.2
977.2918	2503.2427	9284.8	8391.15
977.4197	2504.5812	9247.3	8355.7
977.5475	2505.919	9225.1	8331.25
977.6753	2507.256	9205.5	8315.8
977.8031	2508.5924	9159.15	8269.55
977.9308	2509.9281	9140.2	8244.7
978.0585	2511.2631	9077.55	8186.65
978.1861	2512.5974	9052.4	8161.35
978.3137	2513.9309	9021.5	8128.85
978.4413	2515.2638	9028	8102.25
978.5689	2516.596	8963.15	8072.35
978.6964	2517.9275	8935	8042.45
978.8239	2519.2583	8926.1	8034.3
978.9513	2520.5884	8886.8	7992.3
979.0788	2521.9178	8840.65	7949.75
979.2062	2523.2465	8813.85	7922.55
979.3335	2524.5745	8777.75	7888.35
979.4608	2525.9018	8754.6	7862.95
979.5881	2527.2284	8714.4	7823.8
979.7154	2528.5543	8695.3	7806.55
979.8426	2529.8796	8685.95	7794.6
979.9698	2531.2041	8648.55	7754.85
980.0969	2532.5279	8627.35	7737.05
980.224	2533.851	8626.95	7733.1
980.3511	2535.1735	8580.1	7688.65
980.4781	2536.4952	8544.4	7652.6
980.6052	2537.8163	8545.45	7654
980.7321	2539.1366	8503.75	7614.2
980.8591	2540.4562	8462.45	7569.65
980.986	2541.7752	8464.75	7572.3
981.1129	2543.0935	8458.7	7567.3
981.2397	2544.411	8422	7528.2
981.3665	2545.7279	8387.55	7498.05
981.4933	2547.0441	8391.3	7499.35
981.62	2548.3596	8372.15	7478.75
981.7467	2549.6744	8354.3	7461.6
981.8734	2550.9885	8323.4	7429.45
982.0001	2552.3019	8283.9	7393.35
982.1267	2553.6146	8274.2	7381.8
982.2532	2554.9266	8217.2	7326.7
982.3798	2556.2379	8208.65	7316.8
982.5063	2557.5485	8191	7300.1
982.6327	2558.8585	8160.25	7263.55
982.7592	2560.1677	8148.65	7251.7
982.8856	2561.4762	8135.45	7243.75
983.0119	2562.7841	8143.2	7250.4
983.1383	2564.0913	8084.85	7193.7
983.2646	2565.3977	8074	7183.15
983.3908	2566.7035	8029.7	7136.85
983.517	2568.0086	8032.3	7138.35
983.6432	2569.313	8019.2	7126.6
983.7694	2570.6167	8017.65	7122.7
983.8955	2571.9197	7953.45	7063.75
984.0216	2573.222	7952.25	7057.8
984.1476	2574.5236	7947.85	7054.75
984.2737	2575.8246	7919.45	7026.15
984.3996	2577.1248	7885.65	6989.4
984.5256	2578.4244	7876.3	6984.7
984.6515	2579.7232	7871.4	6979.5
984.7774	2581.0214	7861.65	6944.6
984.9032	2582.3189	7828.15	6938.45
985.029	2583.6157	7829.4	6932.75
985.1548	2584.9118	7786.3	6895.05
985.2806	2586.2072	7779.9	6889.05
985.4063	2587.5019	7740.6	6849.2
985.5319	2588.7959	7712.05	6821.4
985.6576	2590.0893	7731	6837.55
985.7832	2591.3819	7677.7	6788.5
985.9087	2592.6739	7645.4	6753.7
986.0343	2593.9652	7642.35	6748.85
986.1597	2595.2557	7597.8	6705.75
986.2852	2596.5456	7573.3	6679
986.4106	2597.8348	7558.4	6667.45
986.536	2599.1234	7525.65	6634.55
986.6614	2600.4112	7512.35	6619.4
986.7867	2601.6983	7484.3	6589.9
986.912	2602.9848	7451.5	6559.55
987.0372	2604.2705	7421.4	6522
987.1624	2605.5556	7408.5	6517.25
987.2876	2606.84	7369	6477.85
987.4128	2608.1237	7336	6445.55
987.5379	2609.4067	7316.15	6425.45
987.6629	2610.689	7292.95	6390.5
987.788	2611.9707	7290.85	6395.95
987.913	2613.2516	7246.95	6350.15
988.0379	2614.5319	7207.05	6316.4
988.1629	2615.8115	7187.45	6295.1
988.2878	2617.0903	7161.45	6266.95
988.4126	2618.3685	7153.15	6264.35
988.5375	2619.6461	7137	6246.5
988.6622	2620.9229	7082	6191.05
988.787	2622.199	7075.7	6181.65
988.9117	2623.4745	7056.35	6162.6
989.0364	2624.7493	7034.6	6142.85
989.161	2626.0234	7012.95	6120.75
989.2857	2627.2968	6972.75	6080.55
989.4102	2628.5695	6946.3	6054.75
989.5348	2629.8415	6895.35	6004.25
989.6593	2631.1128	6880.9	5987.65
989.7837	2632.3835	6852.45	5959.35
989.9082	2633.6535	6826.95	5936.4
990.0326	2634.9228	6811.9	5921.25
990.1569	2636.1914	6784.9	5893.45
990.2812	2637.4593	6759.85	5862.6
990.4055	2638.7265	6749.1	5856.55
990.5298	2639.9931	6715.2	5823.35
990.654	2641.259	6709.95	5818.65
990.7782	2642.5242	6701.4	5807.6
990.9023	2643.7887	6671.7	5778.55
991.0264	2645.0525	6654.15	5762.2
991.1505	2646.3156	6629.5	5735.05
991.2745	2647.5781	6587.65	5697.2
991.3985	2648.8398	6558.25	5666.35
991.5225	2650.1009	6541.35	5641.1
991.6464	2651.3613	6513.4	5621.2
991.7703	2652.6211	6517.6	5624.05
991.8942	2653.8801	6514.55	5625.45
992.018	2655.1385	6476.05	5580.25
992.1418	2656.3961	6458.6	5565.8
992.2655	2657.6531	6451.25	5558.8
992.3892	2658.9094	6431.15	5539.75
992.5129	2660.1651	6416.95	5526.75
992.6366	2661.42	6385.9	5491.25
992.7602	2662.6743	6387.5	5494.2
992.8837	2663.9279	6379.35	5488.5
993.0073	2665.1808	6333.95	5442.35
993.1307	2666.433	6340.85	5448.7
993.2542	2667.6846	6300.05	5406.4
993.3776	2668.9354	6291.25	5396.15
993.501	2670.1856	6271.65	5381
993.6244	2671.4351	6274.95	5382.35
993.7477	2672.6839	6256.8	5365.15
993.8709	2673.9321	6217.45	5328.6
993.9942	2675.1795	6217.15	5324.1
994.1174	2676.4263	6185.15	5293.95
994.2405	2677.6724	6163.05	5273.2
994.3637	2678.9179	6160.35	5269
994.4868	2680.1626	6139.9	5248.55
994.6098	2681.4067	6129.55	5235.9
994.7328	2682.6501	6106.3	5214.4
994.8558	2683.8928	6094.95	5202.35
994.9788	2685.1348	6049.6	5159.05
995.1017	2686.3761	6028.45	5137.6
995.2245	2687.6168	6016.25	5124.75
995.3474	2688.8568	6010.3	5119.2
995.4702	2690.0961	5977.25	5087.35
995.5929	2691.3348	5969.05	5076.1
995.7156	2692.5727	5959.1	5067.65
995.8383	2693.81	5918.25	5024.65
995.961	2695.0466	5917.8	5028.55
996.0836	2696.2826	5883.55	4990.85
996.2062	2697.5178	5869.9	4975.65
996.3287	2698.7524	5840	4947.4
996.4512	2699.9863	5840.45	4944.9
996.5737	2701.2195	5805.1	4916.15
996.6961	2702.452	5817.15	4924.2
996.8185	2703.6839	5801.1	4910.35
996.9408	2704.9151	5785	4895.75
997.0631	2706.1456	5752.7	4860.65
997.1854	2707.3755	5737.7	4846.65
997.3077	2708.6046	5739.55	4844.9
997.4299	2709.8331	5718	4826.05
997.552	2711.0609	5699.5	4807.95
997.6742	2712.2881	5685.85	4794
997.7963	2713.5145	5694.45	4800.3
997.9183	2714.7403	5671.9	4780.5
998.0403	2715.9654	5657.4	4764.6
998.1623	2717.1899	5657.15	4753.55
998.2842	2718.4136	5658.65	4767.25
998.4062	2719.6367	5644.1	4752.95
998.528	2720.8591	5630.95	4732.75
998.6498	2722.0809	5598.5	4705.55
998.7716	2723.3019	5593.05	4697.9
998.8934	2724.5223	5587.65	4694.7
999.0151	2725.7421	5587.45	4696.3
999.1368	2726.9611	5542.1	4647.75
999.2584	2728.1795	5539.35	4643.2
999.38	2729.3972	5526.3	4634.25
999.5016	2730.6142	5516.5	4617.9
999.6231	2731.8306	5468.6	4574.95
999.7446	2733.0462	5424.3	4531.85
999.8661	2734.2612	5393.8	4498.65
999.9875	2735.4756	5364.45	4470.55
1000.1089	2736.6892	5323	4430.65
1000.2302	2737.9022	5321.85	4430.9
1000.3515	2739.1145	5269.3	4378.45
1000.4728	2740.3262	5239.9	4338.9
1000.594	2741.5372	5215.8	4324.4
1000.7152	2742.7475	5178.1	4284.7
1000.8363	2743.9571	5156.6	4265.65
1000.9575	2745.1661	5135.3	4239.85
1001.0785	2746.3744	5118.95	4227.9
1001.1996	2747.582	5109.65	4220.7
1001.3206	2748.7889	5089.4	4196.35
1001.4415	2749.9952	5048.15	4157.65
1001.5625	2751.2008	5032.65	4140.15
1001.6833	2752.4057	5027.25	4134.25
1001.8042	2753.61	5012.5	4119.4
1001.925	2754.8136	5006.4	4113.85
1002.0458	2756.0165	4968.55	4076.85
1002.1665	2757.2188	4949.7	4060.1
1002.2872	2758.4204	4933.45	4042.55
1002.4078	2759.6213	4922.25	4027.05
1002.5285	2760.8215	4917	4021
1002.649	2762.0211	4899.2	4005
1002.7696	2763.22	4878.8	3985.2
1002.8901	2764.4182	4853.2	3961.15
1003.0106	2765.6158	4848	3956.1
1003.131	2766.8127	4820.65	3928.35
1003.2514	2768.009	4796.9	3905.3
1003.3717	2769.2045	4799.55	3906.9
1003.492	2770.3994	4786.1	3893.1
1003.6123	2771.5936	4767.55	3874.15
1003.7325	2772.7872	4746.8	3855.85
1003.8527	2773.9801	4724.45	3832
1003.9729	2775.1723	4724.6	3814.85
1004.093	2776.3639	4680.35	3791
1004.2131	2777.5548	4675	3784.15
1004.3331	2778.745	4659.45	3766.05
1004.4531	2779.9346	4665.65	3776.95
1004.5731	2781.1235	4649.6	3756.95
1004.693	2782.3117	4653.7	3761.95
1004.8129	2783.4992	4623.6	3730.75
1004.9328	2784.6861	4617.8	3724
1005.0526	2785.8723	4618.85	3724.8
1005.1723	2787.0579	4596.7	3705.05
1005.2921	2788.2428	4601.6	3710.05
1005.4118	2789.427	4575.65	3684.65
1005.5314	2790.6106	4575.45	3683.9
1005.651	2791.7935	4575.85	3683.15
1005.7706	2792.9757	4564.65	3674.05
1005.8902	2794.1573	4570.55	3676.85
1006.0097	2795.3382	4577	3685.05
1006.1291	2796.5184	4559.55	3669.8
1006.2485	2797.698	4568.85	3675.25
1006.3679	2798.8769	4571	3680.3
1006.4873	2800.0551	4564.65	3674.75
1006.6066	2801.2327	4566.15	3675.2
1006.7258	2802.4096	4588.55	3698.55
1006.8451	2803.5859	4585.95	3695.9
1006.9642	2804.7615	4592.95	3701.25
1007.0834	2805.9364	4609.65	3717.85
1007.2025	2807.1106	4622.4	3732.4
1007.3216	2808.2842	4625.15	3733.2
1007.4406	2809.4572	4652.8	3761.25
1007.5596	2810.6294	4683.6	3791.5
1007.6785	2811.801	4692.2	3800.5
1007.7975	2812.972	4725.75	3836.9
1007.9163	2814.1423	4755.65	3862.1
1008.0352	2815.3119	4794.9	3903.55
1008.154	2816.4808	4814.35	3924
1008.2727	2817.6491	4862.8	3971.75
1008.3914	2818.8167	4899	4011.5
1008.5101	2819.9837	4936.25	4039.55
1008.6288	2821.15	4972.05	4080.6
1008.7474	2822.3157	5013.05	4122
1008.8659	2823.4807	5050.45	4157.8
1008.9844	2824.645	5088.15	4196.15
1009.1029	2825.8086	5124.75	4232.5
1009.2214	2826.9716	5143.05	4254.45
1009.3398	2828.134	5183.4	4292.8
1009.4581	2829.2957	5205.9	4315.5
1009.5764	2830.4567	5224.15	4334.55
1009.6947	2831.617	5232.9	4339.65
1009.813	2832.7767	5238.5	4347.4
1009.9312	2833.9358	5234.3	4343.35
1010.0493	2835.0941	5224.65	4332.7
1010.1675	2836.2519	5205.65	4316
1010.2855	2837.4089	5184.15	4290.4
1010.4036	2838.5653	5159.5	4266.8
1010.5216	2839.7211	5149.45	4258.9
1010.6396	2840.8761	5156.3	4262.75
1010.7575	2842.0306	5167.85	4279.25
1010.8754	2843.1843	5193.75	4303.65
1010.9932	2844.3374	5245.5	4355.55
1011.111	2845.4899	5283.7	4391.55
1011.2288	2846.6417	5364.9	4473.2
1011.3465	2847.7928	5426.45	4535.45
1011.4642	2848.9433	5491.3	4600.05
1011.5818	2850.0931	5574.05	4683.05
1011.6995	2851.2422	5627.15	4735.35
1011.817	2852.3907	5701.6	4810.1
1011.9345	2853.5385	5764	4869.65
1012.052	2854.6857	5823.05	4906.3
1012.1695	2855.8323	5847.4	4957
1012.2869	2856.9781	5880.45	4990.6
1012.4042	2858.1233	5907.3	5017.15
1012.5216	2859.2679	5952.8	5063.7
1012.6389	2860.4118	5988.45	5098.1
1012.7561	2861.555	6027.1	5130.65
1012.8733	2862.6976	6046.7	5154.35
1012.9905	2863.8395	6056.25	5164.15
1013.1076	2864.9808	6085.1	5194.3
1013.2247	2866.1214	6078.5	5188.05
1013.3417	2867.2614	6077.7	5186.25
1013.4587	2868.4007	6071.3	5181.05
1013.5757	2869.5393	6063.65	5170.45
1013.6926	2870.6773	6055.1	5161.8
1013.8095	2871.8146	6076.75	5183.55
1013.9263	2872.9513	6085.4	5193.15
1014.0431	2874.0874	6055.2	5165.25
1014.1599	2875.2227	6047.65	5155.25
1014.2766	2876.3574	6024.65	5133.8
1014.3933	2877.4915	5973.2	5084.15
1014.51	2878.6249	5923.75	5032.6
1014.6266	2879.7577	5889.5	4999.85
1014.7431	2880.8898	5888.05	4986.55
1014.8596	2882.0212	5836.2	4946.45
1014.9761	2883.152	5833.8	4941.85
1015.0925	2884.2821	5793.75	4903.45
1015.2089	2885.4116	5782.85	4893.6
1015.3253	2886.5405	5793.25	4903.1
1015.4416	2887.6686	5799.2	4902.75
1015.5579	2888.7962	5760.85	4872.4
1015.6741	2889.923	5761.2	4872.9
1015.7903	2891.0493	5758.45	4868.55
1015.9065	2892.1748	5767.3	4876.35
1016.0226	2893.2997	5760.75	4870.45
1016.1387	2894.424	5761.45	4871.85
1016.2547	2895.5476	5780.95	4891
1016.3707	2896.6706	5788.95	4899.65
1016.4866	2897.7929	5794.95	4903.95
1016.6025	2898.9145	5821.65	4929.4
1016.7184	2900.0355	5845.7	4953.85
1016.8342	2901.1559	5888.1	4994.95
1016.95	2902.2756	5881.1	4990.75
1017.0658	2903.3946	5903.8	5013.4
1017.1815	2904.513	5924.85	5033
1017.2971	2905.6308	5949.8	5060.05
1017.4127	2906.7479	5950.45	5059.2
1017.5283	2907.8643	5982	5089.05
1017.6439	2908.9801	5970.65	5079.7
1017.7594	2910.0953	5977.5	5086.65
1017.8748	2911.2098	5964.05	5072.7
1017.9902	2912.3236	5957.85	5058.85
1018.1056	2913.4368	5923	5028.75
1018.2209	2914.5494	5902.25	5011.25
1018.3362	2915.6613	5856.4	4958.55
1018.4515	2916.7725	5844.25	4950.1
1018.5667	2917.8831	5807.2	4914.55
1018.6819	2918.9931	5773.35	4880.05
1018.797	2920.1024	5702.75	4811.6
1018.9121	2921.211	5687.55	4797
1019.0271	2922.319	5665.45	4774.5
1019.1421	2923.4264	5642.2	4750.3
1019.2571	2924.5331	5629.35	4737.75
1019.372	2925.6391	5600.1	4708.15
1019.4869	2926.7445	5581.9	4693.65
1019.6017	2927.8493	5567.35	4678.05
1019.7165	2928.9534	5548.7	4658.55
1019.8313	2930.0569	5526.35	4632.85
1019.946	2931.1597	5498.65	4606.15
1020.0606	2932.2619	5507.95	4616.8
1020.1753	2933.3634	5494.05	4602.35
1020.2899	2934.4643	5471.4	4574.05
1020.4044	2935.5645	5459.8	4560.4
1020.5189	2936.6641	5410.75	4514.3
1020.6334	2937.763	5346.3	4457.1
1020.7478	2938.8613	5303.3	4411.25
1020.8622	2939.959	5235.25	4340.85
1020.9765	2941.056	5138.4	4248.1
1021.0908	2942.1523	5057.1	4163.75
1021.2051	2943.248	4967.5	4077.7
1021.3193	2944.3431	4848.8	3958.75
1021.4334	2945.4375	4741.4	3849.9
1021.5476	2946.5313	4649	3759.15
1021.6617	2947.6244	4509.8	3617.1
1021.7757	2948.7169	4418.65	3527.05
1021.8897	2949.8087	4315.4	3425.3
1022.0037	2950.8999	4208.15	3317.6
1022.1176	2951.9904	4123.6	3232.85
1022.2315	2953.0803	4039.65	3148.15
1022.3453	2954.1696	3964.6	3073.1
1022.4591	2955.2582	3923.35	3032.4
1022.5728	2956.3462	3854.35	2964.3
1022.6865	2957.4335	3802.2	2912.8
1022.8002	2958.5202	3759	2865.35
1022.9138	2959.6062	3716.7	2828.2
1023.0274	2960.6916	3691.35	2801
1023.141	2961.7764	3662.2	2769.75
1023.2545	2962.8605	3635.15	2744.95
1023.3679	2963.9439	3621	2732.2
1023.4813	2965.0267	3581	2687.3
1023.5947	2966.1089	3619.95	2706.9
1023.708	2967.1905	3575	2685.2
1023.8213	2968.2714	3556.15	2666.65
1023.9346	2969.3516	3560.2	2670.1
1024.0478	2970.4312	3563.15	2665.2
1024.1609	2971.5102	3536.45	2645.85
1024.274	2972.5885	3539.45	2649.25
1024.3871	2973.6662	3527.55	2632.85
1024.5002	2974.7432	3503.1	2614.15
1024.6132	2975.8196	3506.4	2616.7
1024.7261	2976.8954	3478.4	2588.25
1024.839	2977.9705	3473	2583.7
1024.9519	2979.045	3429.05	2538.6
1025.0647	2980.1188	3413.5	2523
1025.1775	2981.192	3394	2502.8
1025.2902	2982.2645	3351.9	2462.45
1025.4029	2983.3364	3331.15	2441.05
1025.5156	2984.4077	3282.35	2392.35
1025.6282	2985.4783	3277	2380.2
1025.7407	2986.5483	3234.65	2345.05
1025.8532	2987.6177	3198	2307.65
1025.9657	2988.6864	3150.55	2260.7
1026.0782	2989.7545	3115.45	2223
1026.1906	2990.8219	3071.85	2182.95
1026.3029	2991.8887	3027.3	2136.9
1026.4152	2992.9548	2994.05	2102.2
1026.5275	2994.0204	2951	2060.95
1026.6397	2995.0852	2929.95	2041
1026.7519	2996.1495	2891.65	1999.95
1026.864	2997.2131	2862.15	1972.3
1026.9761	2998.276	2841.85	1951.55
1027.0882	2999.3383	2809.65	1919.7
1027.2002	3000.4	2792	1901.2
1027.3122	3001.4611	2778.95	1888.2
1027.4241	3002.5215	2754.1	1864.1
1027.536	3003.5812	2724.1	1834.45
1027.6478	3004.6404	2712.55	1821.15
1027.7596	3005.6989	2696.6	1804.8
1027.8714	3006.7567	2683.75	1794.95
1027.9831	3007.8139	2692.9	1777.7
1028.0947	3008.8705	2659.6	1769.2
1028.2064	3009.9264	2654.1	1759.35
1028.3179	3010.9818	2638.9	1749.05
1028.4295	3012.0364	2632.9	1742.65
1028.541	3013.0905	2624.4	1733.5
1028.6524	3014.1439	2626.15	1736.4
1028.7638	3015.1966	2614.35	1724.35
1028.8752	3016.2487	2600.95	1710.45
1028.9865	3017.3002	2599.5	1701.05
1029.0978	3018.3511	2590.95	1702.8
1029.209	3019.4013	2579.2	1688.05
1029.3202	3020.4509	2571.55	1681.95
1029.4314	3021.4998	2583.9	1693.9
1029.5425	3022.5481	2581.3	1691.2
1029.6535	3023.5958	2569.5	1677.65
1029.7645	3024.6428	2576.25	1684.8
1029.8755	3025.6892	2574.85	1684.7
1029.9864	3026.735	2558.65	1667.65
1030.0973	3027.7802	2555.25	1664.05
1030.2082	3028.8247	2546.9	1654.75
1030.319	3029.8685	2548.4	1656.7
1030.4297	3030.9118	2544.3	1652.75
1030.5404	3031.9544	2546.75	1656.5
1030.6511	3032.9963	2526.15	1638.1
1030.7617	3034.0376	2548.4	1658.05
1030.8723	3035.0783	2547.8	1655.75
1030.9829	3036.1184	2545.3	1653.9
1031.0934	3037.1578	2540.75	1650.8
1031.2038	3038.1966	2534.7	1642.8
1031.3142	3039.2348	2529	1639.55
1031.4246	3040.2723	2535.55	1637.05
1031.5349	3041.3092	2518.8	1628.45
1031.6452	3042.3455	2515.75	1625.45
1031.7554	3043.3811	2510.4	1619.35
1031.8656	3044.4161	2496.6	1606.25
1031.9758	3045.4505	2482.05	1591.75
1032.0859	3046.4842	2467.2	1577.1
1032.1959	3047.5173	2452	1563.35
1032.3059	3048.5498	2455.35	1564.15
1032.4159	3049.5816	2445.65	1555.5
1032.5258	3050.6128	2435.5	1542.75
1032.6357	3051.6434	2423.95	1532.75
1032.7455	3052.6734	2405.55	1514.3
1032.8553	3053.7027	2394.6	1504.45
1032.9651	3054.7314	2390.15	1500.15
1033.0748	3055.7594	2372.45	1481.25
1033.1845	3056.7868	2364.75	1474.05
1033.2941	3057.8136	2358	1467.3
1033.4037	3058.8398	2346.1	1455.8
1033.5132	3059.8653	2328.65	1439.05
1033.6227	3060.8902	2326.2	1435.4
1033.7321	3061.9145	2314.95	1427.05
1033.8415	3062.9381	2318.4	1430.1
1033.9509	3063.9612	2311.35	1405.85
1034.0602	3064.9835	2290.85	1399.65
1034.1694	3066.0053	2260.5	1367
1034.2787	3067.0264	2254.2	1366.15
1034.3878	3068.0469	2258.85	1368.35
1034.497	3069.0668	2249.05	1354.35
1034.6061	3070.086	2219.85	1331.4
1034.7151	3071.1046	2217	1325.5
1034.8241	3072.1226	2205.65	1314.5
1034.9331	3073.1399	2192.5	1304.2
1035.042	3074.1567	2175.3	1283.75
1035.1508	3075.1727	2164.35	1270.25
1035.2597	3076.1882	2140.25	1250.05
1035.3684	3077.203	2152.1	1261.05
1035.4772	3078.2173	2129	1238.9
1035.5859	3079.2308	2118.1	1225.2
1035.6945	3080.2438	2100.05	1209.9
1035.8031	3081.2561	2085.15	1196
1035.9117	3082.2678	2080.8	1190
1036.0202	3083.2789	2077.35	1188.2
1036.1286	3084.2893	2058.95	1168.75
1036.2371	3085.2991	2048.85	1158.3
1036.3454	3086.3083	2044.1	1148.9
1036.4538	3087.3169	2031.3	1140.6
1036.562	3088.3248	2027.9	1137.3
1036.6703	3089.3321	2017.95	1127.05
1036.7785	3090.3388	2001.45	1113.75
1036.8866	3091.3449	1993.55	1101.85
1036.9948	3092.3503	1997.2	1104.5
1037.1028	3093.3551	1983.05	1092.9
1037.2108	3094.3593	1979.9	1090.15
1037.3188	3095.3629	1962.75	1073.2
1037.4267	3096.3658	1962.7	1071.6
1037.5346	3097.3681	1965.35	1073.65
1037.6425	3098.3698	1948.2	1057.5
1037.7503	3099.3708	1958.55	1062.05
1037.858	3100.3713	1930.25	1041.55
1037.9657	3101.3711	1922.15	1032.75
1038.0734	3102.3702	2020.45	1018.15
1038.181	3103.3688	1920.65	1030.05
1038.2886	3104.3667	1909.8	1021.7
1038.3961	3105.364	1893.95	1003.45
1038.5036	3106.3607	1890.75	999.85
1038.611	3107.3568	1893.6	1000.6
1038.7184	3108.3522	1877.6	988.9
1038.8257	3109.347	1877.05	987.35
1038.933	3110.3412	1875.2	980.1
1039.0403	3111.3348	1860.3	971.85
1039.1475	3112.3277	1852.7	963.25
1039.2547	3113.32	1851.1	963.2
1039.3618	3114.3117	1855	964.55
1039.4689	3115.3028	1834.7	943.85
1039.5759	3116.2932	1832.85	939.75
1039.6829	3117.2831	1834.25	938.2
1039.7898	3118.2723	1817.3	926.4
1039.8967	3119.2608	1824.3	933.95
1040.0035	3120.2488	1816.05	926.8
1040.1103	3121.2361	1809.55	921.55
1040.2171	3122.2229	1805.95	914.55
1040.3238	3123.209	1787.55	896
1040.4305	3124.1944	1790	901.7
1040.5371	3125.1793	1787.1	897.35
1040.6437	3126.1635	1780.3	891.75
1040.7502	3127.1471	1777.95	888.15
1040.8567	3128.1301	1774.85	884.25
1040.9631	3129.1125	1765.4	876.7
1041.0695	3130.0942	1768.9	878.2
1041.1759	3131.0753	1767.85	868
1041.2822	3132.0558	1759.55	867.4
1041.3884	3133.0357	1755.5	863.8
1041.4946	3134.015	1740.85	851.95
1041.6008	3134.9936	1745.7	853.4
1041.7069	3135.9716	1753.75	841.95
1041.813	3136.949	1734	843.15
1041.919	3137.9258	1737.3	839.5
1042.025	3138.902	1731.2	835.35
1042.1309	3139.8775	1722.55	833.1
1042.2368	3140.8524	1720.8	832.25
1042.3427	3141.8267	1720.9	828.25
1042.4485	3142.8004	1711.2	820.45
1042.5542	3143.7735	1708.3	814.4
1042.6599	3144.7459	1711.8	818.9
1042.7656	3145.7178	1706.5	817.1
1042.8712	3146.689	1695.8	807.85
1042.9768	3147.6596	1698.95	807.65
1043.0823	3148.6295	1686.6	797.15
1043.1878	3149.5989	1680.8	788.35
1043.2932	3150.5676	1677.35	788.95
1043.3986	3151.5357	1664.7	775.9
1043.5039	3152.5032	1669.2	776.75
1043.6092	3153.4701	1657.85	769.65
1043.7145	3154.4364	1664.35	769.6
1043.8197	3155.402	1650.5	760.6
1043.9248	3156.367	1652.75	761.8
1044.03	3157.3315	1681.1	750.25
1044.135	3158.2952	1642.2	751.25
1044.24	3159.2584	1640.55	751.85
1044.345	3160.221	1630.3	738.15
1044.4499	3161.1829	1623.85	734.65
1044.5548	3162.1442	1617.1	726.7
1044.6596	3163.105	1615.05	725.35
1044.7644	3164.065	1620.55	729.1
1044.8692	3165.0245	1613.75	721.85
1044.9739	3165.9834	1604.95	717.25
1045.0785	3166.9416	1597.95	706.9
1045.1831	3167.8993	1590.65	701.25
1045.2877	3168.8563	1595.45	704.35
1045.3922	3169.8127	1591.7	701.55
1045.4966	3170.7684	1586.9	699.8
1045.6011	3171.7236	1583.6	692.4
1045.7054	3172.6782	1577.95	686.85
1045.8098	3173.6321	1587.1	697.7
1045.914	3174.5854	1572.4	678.15
1046.0183	3175.5381	1562.2	671.25
1046.1224	3176.4902	1565.45	676.8
1046.2266	3177.4417	1560.55	671.9
1046.3307	3178.3926	1553.2	664.3
1046.4347	3179.3428	1550.45	662.75
1046.5387	3180.2924	1545.75	656.45
1046.6427	3181.2415	1545.15	653.25
1046.7466	3182.1899	1538.35	645.8
1046.8504	3183.1377	1542.2	652.3
1046.9542	3184.0848	1537.5	642.8
1047.058	3185.0314	1529.05	639.25
1047.1617	3185.9773	1524.85	634.45
1047.2654	3186.9227	1519.8	630.6
1047.369	3187.8674	1522.8	633.15
1047.4726	3188.8115	1521.5	626.9
1047.5761	3189.755	1520.45	631.3
1047.6796	3190.6979	1517.05	627
1047.783	3191.6402	1504.5	614.8
1047.8864	3192.5818	1501.65	612.1
1047.9898	3193.5229	1517.7	604.35
1048.0931	3194.4633	1500.2	610.8
1048.1963	3195.4031	1499.6	610.2
1048.2995	3196.3423	1496.45	607.95
1048.4027	3197.2809	1489.05	598.9
1048.5058	3198.2189	1481.75	591.85
1048.6089	3199.1563	1486.2	590.15
1048.7119	3200.0931	1476.75	587.1
1048.8148	3201.0292	1471.5	585.65
1048.9178	3201.9648	1470.15	581.65
1049.0206	3202.8997	1478.55	586.95
1049.1235	3203.834	1470.45	581.75
1049.2262	3204.7677	1470.6	581.3
1049.329	3205.7008	1461.05	569.8
1049.4317	3206.6333	1451.2	563.9
1049.5343	3207.5652	1453	560.25
1049.6369	3208.4964	1449.65	559
1049.7394	3209.4271	1445.65	556.2
1049.8419	3210.3571	1443.85	555.25
1049.9444	3211.2865	1444.6	553
1050.0468	3212.2154	1444.65	555.55
1050.1491	3213.1436	1445.75	552.45
1050.2514	3214.0712	1448.2	551.7
1050.3537	3214.9982	1430.25	541.7
1050.4559	3215.9246	1423.45	533.25
1050.5581	3216.8503	1427.05	538.05
1050.6602	3217.7755	1431.7	540.9
1050.7623	3218.7001	1421.5	533.15
1050.8643	3219.624	1426.65	536.7
1050.9663	3220.5473	1418.45	527.85
1051.0682	3221.4701	1415.45	523.2
1051.1701	3222.3922	1416.1	527.05
1051.2719	3223.3137	1412.45	523
1051.3737	3224.2346	1413.25	523.65
1051.4754	3225.1549	1405.15	515.7
1051.5771	3226.0746	1403.6	515.8
1051.6788	3226.9937	1398.15	509.15
1051.7804	3227.9121	1396.8	506.9
1051.8819	3228.83	1394.1	503.7
1051.9834	3229.7473	1393.95	503.9
1052.0849	3230.6639	1390.05	500.2
1052.1863	3231.5799	1390.6	500.65
1052.2876	3232.4954	1381.15	491.9
1052.3889	3233.4102	1376.6	487.75
1052.4902	3234.3244	1372.85	482.65
1052.5914	3235.238	1366.95	476.8
1052.6926	3236.151	1389.85	477
1052.7937	3237.0634	1363.7	475.85
1052.8948	3237.9752	1364.85	475.8
1052.9958	3238.8864	1359.95	470.05
1053.0968	3239.797	1354.25	465.65
1053.1977	3240.7069	1353.4	462.6
1053.2986	3241.6163	1356.5	463.95
1053.3994	3242.5251	1344.75	456.55
1053.5002	3243.4332	1347.9	457.95
1053.6009	3244.3408	1344.35	453.4
1053.7016	3245.2477	1336.2	445.9
1053.8022	3246.154	1335.7	445.05
1053.9028	3247.0598	1346.9	457.4
1054.0034	3247.9649	1334.2	443.75
1054.1039	3248.8694	1332.05	442.65
1054.2043	3249.7733	1326.75	435.9
1054.3047	3250.6766	1323.95	434.3
1054.4051	3251.5793	1325	432.7
1054.5054	3252.4814	1322.05	431.45
1054.6056	3253.3829	1319.2	431.35
1054.7058	3254.2838	1316.15	427.2
1054.806	3255.1841	1307.45	418
1054.9061	3256.0838	1306.9	417
1055.0061	3256.9829	1305.25	416.75
1055.1062	3257.8814	1308.05	416.75
1055.2061	3258.7792	1299.1	406.3
1055.306	3259.6765	1296.35	403.3
1055.4059	3260.5731	1292.15	403.9
1055.5057	3261.4692	1282.1	392.9
1055.6055	3262.3647	1279.5	388.5
1055.7052	3263.2595	1269.35	376.45
1055.8049	3264.1538	1270.6	381.75
1055.9045	3265.0474	1261.4	371.75
1056.0041	3265.9404	1256.4	367.95
1056.1036	3266.8329	1249.15	362.5
1056.2031	3267.7247	1255.65	356.3
1056.3025	3268.616	1231.9	342.45
1056.4019	3269.5066	1227.45	336.9
1056.5013	3270.3966	1226.1	335.05
1056.6005	3271.286	1207.75	320
