Software Version:	3.9.2.0
Unit SN:	10000200
Spectrometer SN:	6960
Date:	3/6/2024 10:29:55 AM
Data Line Index:	25
Spectral Points:	2048
Integration time (ms):	125
Averages:	20
Delay (ms):	30
Sequence Number:	1
Processing:	dark subtract
Laser Power (mW):	305
Laser Current (mA):	825
Laser Diode Temp (C):	25.1
Laser Case Temp (C):	26.2
System Temp (C):	26
Spectrometer Temp (C):	23.4
CCD Temp (C):	-0.01
Secondary Temp (C):	20.01
Heatsink Temp (C):	21.577
CCDPCB Temp (C):	36.207
SecondaryPCB Temp (C):	28.882

Wavelength	RamanShift	Raw Counts	Dark Subtracted
787.061	30.1047	1123.85	713.5
787.2016	32.3739	1166.95	757.35
787.3422	34.6426	1210.85	800.35
787.4828	36.9109	1255.55	843.95
787.6235	39.1787	1316.7	901.25
787.7642	41.4461	1376.9	956.7
787.9049	43.7131	1444.3	1021.6
788.0456	45.9796	1488.65	1059.45
788.1863	48.2456	1564.15	1132.15
788.3271	50.5112	1637	1202
788.4679	52.7764	1700.6	1262.65
788.6087	55.0411	1768.9	1327.35
788.7496	57.3054	1857.8	1408.25
788.8904	59.5692	1946.8	1495.7
789.0313	61.8326	2045.65	1593.85
789.1722	64.0955	2147.1	1689.9
789.3132	66.3579	2278.85	1818.8
789.4541	68.6199	2429.4	1964.1
789.5951	70.8815	2700.7	2230.7
789.7361	73.1426	3212.1	2736.4
789.8771	75.4032	4586.3	4109.1
790.0181	77.6634	8051.15	7569.65
790.1592	79.9231	17324.15	16837.35
790.3003	82.1824	55830.95	55332.5
790.4414	84.4412	65535	65014.6
790.5825	86.6995	65535	64984.45
790.7237	88.9574	65535	64959.15
790.8648	91.2148	65535	64940.8
791.006	93.4717	65535	64930.6
791.1472	95.7282	65535	64925.35
791.2885	97.9842	65535	64922.3
791.4297	100.2398	65535	64915.85
791.571	102.4949	65535	64912.95
791.7123	104.7495	65535	64911.7
791.8536	107.0036	65535	64907.9
791.9949	109.2573	65535	64909.3
792.1363	111.5105	65535	64908.55
792.2777	113.7632	65535	64908.3
792.4191	116.0154	65535	64896.4
792.5605	118.2672	65535	64904.5
792.7019	120.5185	65535	64903.15
792.8434	122.7693	65535	64896.95
792.9849	125.0197	65535	64892.75
793.1264	127.2696	65535	64894.05
793.2679	129.519	65535	64886.75
793.4094	131.7679	65535	64886.35
793.551	134.0163	65535	64886.4
793.6926	136.2642	65535	64881.35
793.8342	138.5117	65535	64868.2
793.9758	140.7587	65535	64880.55
794.1175	143.0052	65535	64872.7
794.2591	145.2512	65535	64873.5
794.4008	147.4967	65535	64869.85
794.5425	149.7417	65535	64866.95
794.6842	151.9863	65535	64870.45
794.826	154.2304	65535	64863.8
794.9677	156.4739	65535	64855.7
795.1095	158.717	65535	64856.75
795.2513	160.9596	65535	64852.3
795.3931	163.2017	65535	64848.25
795.535	165.4433	65535	64846.3
795.6768	167.6844	65535	64844.1
795.8187	169.925	65535	64841.6
795.9606	172.1651	65535	64841.55
796.1025	174.4047	65535	64837.65
796.2445	176.6439	65535	64836.45
796.3864	178.8825	65535	64834.95
796.5284	181.1206	65535	64829.1
796.6704	183.3582	65535	64822.15
796.8124	185.5954	65535	64823.3
796.9544	187.832	65535	64820.2
797.0965	190.0681	65535	64815.2
797.2386	192.3037	65535	64814.45
797.3806	194.5388	65535	64810.9
797.5228	196.7734	65535	64811.3
797.6649	199.0075	65535	64806.35
797.807	201.2411	65535	64803.75
797.9492	203.4742	65535	64808.45
798.0914	205.7068	65535	64798.55
798.2336	207.9389	65535	64800.8
798.3758	210.1704	65535	64802.15
798.518	212.4015	65535	64804.85
798.6603	214.632	65535	64811.05
798.8025	216.862	65535	64821.25
798.9448	219.0915	65535	64821.2
799.0871	221.3205	65535	64816.65
799.2294	223.549	65535	64820.75
799.3718	225.777	65535	64821.6
799.5141	228.0044	65535	64816.9
799.6565	230.2314	65535	64815.2
799.7989	232.4578	65535	64815.65
799.9413	234.6837	65535	64804.35
800.0837	236.909	65535	64801.3
800.2262	239.1339	65535	64776.25
800.3687	241.3582	65535	64789.95
800.5111	243.582	65535	64757.65
800.6536	245.8053	65535	64775.95
800.7961	248.0281	65535	64780.05
800.9387	250.2503	65535	64774.4
801.0812	252.472	65535	64767.4
801.2238	254.6932	65535	64774
801.3664	256.9139	65535	64771.15
801.509	259.134	65535	64767.5
801.6516	261.3536	65535	64770.65
801.7942	263.5727	65535	64767.3
801.9369	265.7912	65535	64767.6
802.0795	268.0092	65535	64768.85
802.2222	270.2267	65535	64765.8
802.3649	272.4436	65535	64765.1
802.5076	274.6601	65535	64757.45
802.6504	276.8759	65535	64759.2
802.7931	279.0913	65535	64755.8
802.9359	281.3061	65535	64759.7
803.0787	283.5204	65535	64757.55
803.2215	285.7341	65535	64749.15
803.3643	287.9473	65535	64741.3
803.5071	290.16	65535	64747.35
803.6499	292.3721	65535	64756.6
803.7928	294.5837	65535	64750.2
803.9357	296.7947	65535	64750.55
804.0786	299.0052	65535	64751.75
804.2215	301.2152	65535	64749.55
804.3644	303.4246	65535	64755.2
804.5074	305.6334	65535	64751.1
804.6503	307.8418	65535	64747.55
804.7933	310.0495	65535	64746.6
804.9363	312.2568	65535	64747.45
805.0793	314.4635	65535	64744.6
805.2223	316.6696	65535	64745.85
805.3653	318.8752	65535	64732.85
805.5084	321.0802	65535	64740.95
805.6514	323.2847	65535	64740.7
805.7945	325.4887	65535	64737.55
805.9376	327.692	65535	64741.9
806.0807	329.8949	65535	64737.35
806.2238	332.0972	65535	64733.05
806.367	334.2989	65535	64731.55
806.5101	336.5001	65535	64733.1
806.6533	338.7007	65535	64733.55
806.7965	340.9008	65535	64735.7
806.9397	343.1003	65535	64728.1
807.0829	345.2992	65535	64726.25
807.2261	347.4976	65535	64726.1
807.3693	349.6955	65535	64723.5
807.5126	351.8927	65535	64724.35
807.6559	354.0895	65535	64710.85
807.7991	356.2856	65535	64720.45
807.9424	358.4812	65535	64719.3
808.0857	360.6763	65535	64719.05
808.2291	362.8707	65535	64718.7
808.3724	365.0646	65535	64715.5
808.5158	367.258	65535	64713.2
808.6591	369.4508	65535	64709.5
808.8025	371.643	65535	64710.75
808.9459	373.8346	65535	64705.9
809.0893	376.0257	65535	64704
809.2327	378.2162	65535	64704.2
809.3762	380.4062	65535	64704.45
809.5196	382.5956	65535	64701.45
809.6631	384.7844	65535	64702.55
809.8066	386.9726	65535	64704.3
809.9501	389.1603	65535	64711.95
810.0936	391.3474	65535	64665.9
810.2371	393.5339	65535	64708.85
810.3806	395.7199	65535	64711.85
810.5241	397.9052	65535	64712.15
810.6677	400.09	65535	64711.8
810.8113	402.2743	65535	64714.35
810.9548	404.4579	65535	64716.25
811.0984	406.641	65535	64710.15
811.2421	408.8235	65535	64706.95
811.3857	411.0054	65535	64707.8
811.5293	413.1868	65535	64706.45
811.673	415.3675	65535	64702.1
811.8166	417.5477	65535	64702.3
811.9603	419.7273	65535	64697.95
812.104	421.9064	65535	64687.75
812.2477	424.0848	65535	64696.1
812.3914	426.2627	65535	64694.05
812.5351	428.4399	65535	64695.35
812.6788	430.6166	65535	64691.1
812.8226	432.7928	65535	64689.9
812.9663	434.9683	65535	64685.95
813.1101	437.1432	65535	64688.65
813.2539	439.3176	65535	64690.8
813.3977	441.4914	65535	64687.4
813.5415	443.6645	65535	64688.65
813.6853	445.8371	65535	64687.6
813.8291	448.0091	65535	64688.6
813.973	450.1806	65535	64687.75
814.1168	452.3514	65535	64689.1
814.2607	454.5216	65535	64677.15
814.4046	456.6913	65535	64687.3
814.5485	458.8603	65535	64687.7
814.6924	461.0288	65535	64685.45
814.8363	463.1967	65535	64689.5
814.9802	465.3639	65535	64682.3
815.1241	467.5306	65535	64685.9
815.2681	469.6967	65535	64684.9
815.412	471.8622	65535	64683.65
815.556	474.0271	65535	64684.6
815.7	476.1914	65535	64679.45
815.844	478.3551	65535	64684.3
815.988	480.5182	65535	64684.6
816.132	482.6807	65535	64682.2
816.276	484.8426	65535	64685.65
816.4201	487.0039	65535	64685.15
816.5641	489.1647	65535	64680.9
816.7082	491.3248	65535	64679.25
816.8522	493.4843	65535	64680.05
816.9963	495.6432	65535	64682.7
817.1404	497.8015	65535	64674.25
817.2845	499.9592	65535	64677.6
817.4286	502.1163	65535	64674.1
817.5727	504.2728	65535	64677
817.7168	506.4287	65535	64675.4
817.861	508.5839	65535	64677.55
818.0051	510.7386	65535	64679.3
818.1493	512.8927	65535	64671.55
818.2935	515.0461	65535	64672.95
818.4377	517.199	65535	64672
818.5818	519.3512	65535	64672.85
818.726	521.5029	65535	64666.75
818.8703	523.6539	65535	64671.7
819.0145	525.8043	65535	64670.05
819.1587	527.9541	65535	64669.6
819.303	530.1033	65535	64667.85
819.4472	532.2519	65535	64671.15
819.5915	534.3999	65535	64667.9
819.7357	536.5472	65535	64667.05
819.88	538.694	65535	64668.7
820.0243	540.8401	65535	64667.8
820.1686	542.9856	65535	64665.9
820.3129	545.1305	65535	64663.3
820.4572	547.2748	65535	64661.6
820.6016	549.4185	65535	64661.55
820.7459	551.5615	65535	64663.65
820.8902	553.704	65535	64660.45
821.0346	555.8458	65535	64665.55
821.1789	557.987	65535	64664.9
821.3233	560.1276	65535	64663.05
821.4677	562.2675	65535	64661.8
821.6121	564.4069	65535	64663.8
821.7565	566.5456	65535	64664.4
821.9009	568.6837	65535	64663.7
822.0453	570.8212	65535	64663.7
822.1897	572.958	65535	64664.65
822.3342	575.0942	65535	64663.9
822.4786	577.2299	65535	64665.55
822.6231	579.3648	65535	64665.35
822.7675	581.4992	65535	64666.15
822.912	583.6329	65535	64666.4
823.0565	585.766	65535	64666.2
823.201	587.8985	65535	64664.65
823.3454	590.0304	65535	64638.2
823.4899	592.1616	65535	64659.4
823.6345	594.2922	65535	64658.55
823.779	596.4222	65535	64656.8
823.9235	598.5515	65535	64655.7
824.068	600.6802	65535	64661.05
824.2126	602.8083	65535	64657.85
824.3571	604.9358	65535	64656.4
824.5017	607.0626	65535	64655.55
824.6462	609.1888	65535	64655.9
824.7908	611.3144	65535	64654.65
824.9354	613.4393	65535	64657.1
825.08	615.5636	65535	64657.65
825.2246	617.6873	65535	64655.3
825.3692	619.8103	65535	64653.75
825.5138	621.9327	65535	64653.8
825.6584	624.0544	65535	64655.6
825.803	626.1756	65535	64659.65
825.9477	628.2961	65535	64657.6
826.0923	630.4159	65535	64654.65
826.237	632.5351	65535	64654.25
826.3816	634.6537	65535	64654.6
826.5263	636.7716	65535	64651.85
826.6709	638.8889	65535	64651.25
826.8156	641.0056	65535	64649.6
826.9603	643.1216	65535	64648.45
827.105	645.237	65535	64648.3
827.2497	647.3518	65535	64651.8
827.3944	649.4659	65535	64650.3
827.5391	651.5793	65535	64651.3
827.6838	653.6922	65535	64650.3
827.8285	655.8043	65535	64650.6
827.9733	657.9159	65535	64648.2
828.118	660.0268	65535	64648.7
828.2627	662.137	65535	64650.35
828.4075	664.2466	65535	64646.25
828.5522	666.3556	65535	64650.1
828.697	668.4639	65535	64649.45
828.8418	670.5716	65535	64647.9
828.9865	672.6786	65535	64646.15
829.1313	674.785	65535	64646.85
829.2761	676.8907	65535	64645.75
829.4209	678.9958	65535	64648.95
829.5657	681.1002	65535	64647.1
829.7105	683.204	65535	64642.2
829.8553	685.3072	65535	64642.3
830.0001	687.4097	65535	64645.15
830.1449	689.5115	65535	64642.65
830.2898	691.6127	65535	64648.15
830.4346	693.7132	65535	64647.15
830.5794	695.8131	65535	64638.35
830.7243	697.9123	65535	64642.45
830.8691	700.0109	65535	64643.7
831.014	702.1089	65535	64647
831.1588	704.2061	65535	64644.35
831.3037	706.3028	65535	64641.45
831.4486	708.3987	65535	64644.7
831.5935	710.4941	65535	64645.5
831.7383	712.5887	65535	64643.2
831.8832	714.6827	65535	64640.4
832.0281	716.7761	65535	64643.4
832.173	718.8688	65535	64642.15
832.3179	720.9608	65535	64640.6
832.4628	723.0522	65535	64638.65
832.6077	725.1429	65535	64641.8
832.7527	727.233	65535	64637.95
832.8976	729.3224	65535	64640.7
833.0425	731.4112	65535	64639.05
833.1874	733.4993	65535	64641.8
833.3324	735.5867	65535	64639.05
833.4773	737.6735	65535	64640.05
833.6222	739.7596	65535	64642.75
833.7672	741.845	65535	64639.1
833.9122	743.9298	65535	64639.95
834.0571	746.014	65535	64641.4
834.2021	748.0974	65535	64636.85
834.347	750.1802	65535	64637.9
834.492	752.2624	65535	64635.7
834.637	754.3439	65535	64639.1
834.782	756.4247	65535	64629.8
834.9269	758.5048	65535	64639.9
835.0719	760.5843	65535	64640.1
835.2169	762.6631	65535	64636.75
835.3619	764.7413	65535	64638.05
835.5069	766.8188	65535	64637.45
835.6519	768.8956	65535	64636.8
835.7969	770.9718	65535	64638.95
835.9419	773.0473	65535	64638.7
836.0869	775.1221	65535	64639.8
836.232	777.1962	65535	64640.85
836.377	779.2697	65535	64635.95
836.522	781.3426	65535	64622.65
836.667	783.4147	65535	64635.55
836.8121	785.4862	65535	64641.7
836.9571	787.557	65535	64640.1
837.1021	789.6271	65535	64637.7
837.2472	791.6966	65535	64637.45
837.3922	793.7654	65535	64635.5
837.5373	795.8335	65535	64641
837.6823	797.901	65535	64637
837.8274	799.9678	65535	64633.3
837.9724	802.0339	65535	64636.65
838.1175	804.0993	65535	64627.55
838.2626	806.1641	65535	64637.85
838.4076	808.2282	65535	64637.75
838.5527	810.2916	65535	64633.5
838.6978	812.3544	65535	64640.55
838.8428	814.4164	65535	64638.7
838.9879	816.4778	65535	64635.75
839.133	818.5385	65535	64638.15
839.2781	820.5986	65535	64636.35
839.4232	822.658	65535	64634
839.5682	824.7166	65535	64636.4
839.7133	826.7747	65535	64636.45
839.8584	828.832	65535	64635.25
840.0035	830.8886	65535	64632.9
840.1486	832.9446	65535	64631.6
840.2937	834.9999	65535	64637.2
840.4388	837.0545	65535	64631.05
840.5839	839.1085	65535	64637.5
840.729	841.1618	65535	64630.85
840.8741	843.2143	65535	64635.65
841.0192	845.2662	65535	64635.9
841.1643	847.3175	65535	64635.9
841.3095	849.368	65535	64635.2
841.4546	851.4179	65535	64635.3
841.5997	853.467	65535	64635
841.7448	855.5155	65535	64633.3
841.8899	857.5633	65535	64635.4
842.0351	859.6105	65535	64635.1
842.1802	861.6569	65535	64634.5
842.3253	863.7027	65535	64633.9
842.4704	865.7478	65535	64632.1
842.6156	867.7922	65535	64635.8
842.7607	869.8359	65535	64634.6
842.9058	871.8789	65535	64631.2
843.0509	873.9212	65535	64605.5
843.1961	875.9629	65535	64634.3
843.3412	878.0039	65535	64634.9
843.4863	880.0441	65535	64635.55
843.6315	882.0837	65535	64630.4
843.7766	884.1226	65535	64630.9
843.9218	886.1609	65535	64633.1
844.0669	888.1984	65535	64632.7
844.212	890.2352	65535	64635.75
844.3572	892.2714	65535	64630.05
844.5023	894.3069	65535	64631.05
844.6475	896.3416	65535	64633.55
844.7926	898.3757	65535	64631.85
844.9377	900.4091	65535	64633
845.0829	902.4418	65535	64626.15
845.228	904.4739	65535	64632.4
845.3732	906.5052	65535	64631.8
845.5183	908.5358	65535	64631.5
845.6635	910.5658	65535	64627.5
845.8086	912.595	65535	64629.25
845.9538	914.6236	65535	64630.4
846.0989	916.6515	65535	64632.65
846.2441	918.6786	65535	64628.65
846.3892	920.7051	65535	64629.15
846.5344	922.7309	65535	64634.15
846.6795	924.756	65535	64630.5
846.8246	926.7804	65535	64628.25
846.9698	928.8041	65535	64625.6
847.1149	930.8272	65535	64628.1
847.2601	932.8495	65535	64629.35
847.4052	934.8711	65535	64627.85
847.5504	936.892	65535	64631.6
847.6955	938.9123	65535	64632.75
847.8407	940.9318	65535	64630.05
847.9858	942.9506	65535	64629.2
848.131	944.9688	65535	64632.45
848.2761	946.9862	65535	64629.15
848.4213	949.003	65535	64632
848.5664	951.019	65535	64630.95
848.7115	953.0344	65535	64629.2
848.8567	955.0491	65535	64629
849.0018	957.063	65535	64629.9
849.147	959.0763	65535	64630.8
849.2921	961.0888	65535	64631.25
849.4373	963.1007	65535	64631.6
849.5824	965.1119	65535	64631.6
849.7275	967.1223	65535	64631.6
849.8727	969.1321	65535	64630.65
850.0178	971.1412	65535	64630.8
850.1629	973.1495	65535	64629.5
850.3081	975.1572	65535	64600.8
850.4532	977.1641	65535	64631.05
850.5983	979.1704	65535	64630.8
850.7435	981.1759	65535	64625.4
850.8886	983.1808	65535	64627.15
851.0337	985.1849	65535	64619.15
851.1788	987.1884	65535	64626.5
851.324	989.1911	65535	64627.95
851.4691	991.1932	65535	64629.85
851.6142	993.1945	65535	64629.55
851.7593	995.1951	65535	64628.6
851.9045	997.1951	65535	64626
852.0496	999.1943	65535	64629.55
852.1947	1001.1928	65535	64628.85
852.3398	1003.1906	65535	64633.2
852.4849	1005.1877	65535	64627.95
852.63	1007.1841	65535	64631.3
852.7751	1009.1798	65535	64631.75
852.9202	1011.1748	65535	64630.6
853.0653	1013.1691	65535	64630.6
853.2104	1015.1627	65535	64631.95
853.3555	1017.1556	65535	64632.75
853.5006	1019.1477	65535	64630.5
853.6457	1021.1392	65535	64634.6
853.7908	1023.1299	65535	64633.75
853.9359	1025.12	65535	64629.55
854.081	1027.1093	65535	64635.2
854.2261	1029.0979	65535	64635.9
854.3712	1031.0859	65535	64633.75
854.5163	1033.0731	65535	64631.05
854.6613	1035.0596	65535	64633.6
854.8064	1037.0454	65535	64630.9
854.9515	1039.0304	65535	64629.5
855.0965	1041.0148	65535	64631.7
855.2416	1042.9985	65535	64629.2
855.3867	1044.9814	65535	64630.3
855.5317	1046.9636	65535	64630.45
855.6768	1048.9452	65535	64631.95
855.8219	1050.926	65535	64632.55
855.9669	1052.9061	65535	64631.45
856.112	1054.8855	65535	64631.1
856.257	1056.8642	65535	64631.55
856.4021	1058.8421	65535	64627.5
856.5471	1060.8194	65535	64627.35
856.6921	1062.7959	65535	64631.1
856.8372	1064.7717	65535	64630.9
856.9822	1066.7469	65535	64631.15
857.1272	1068.7213	65535	64630.2
857.2723	1070.695	65535	64632.95
857.4173	1072.6679	65535	64630.95
857.5623	1074.6402	65535	64631.4
857.7073	1076.6117	65535	64624.1
857.8523	1078.5826	65535	64629
857.9973	1080.5527	65535	64627.3
858.1423	1082.5221	65535	64629.15
858.2873	1084.4908	65535	64631.15
858.4323	1086.4587	65535	64631.2
858.5773	1088.426	65535	64629.7
858.7223	1090.3925	65535	64626.6
858.8673	1092.3584	65535	64632.05
859.0123	1094.3235	65535	64631.05
859.1573	1096.2879	65535	64631.3
859.3022	1098.2515	65535	64631.35
859.4472	1100.2145	65535	64630.8
859.5922	1102.1767	65535	64625.5
859.7371	1104.1382	65535	64632
859.8821	1106.099	65535	64628.55
860.027	1108.0591	65535	64632.45
860.172	1110.0185	65535	64627.75
860.3169	1111.9771	65535	64632.05
860.4619	1113.9351	65535	64631.7
860.6068	1115.8923	65535	64629.5
860.7517	1117.8488	65535	64628.25
860.8967	1119.8045	65535	64629.85
861.0416	1121.7596	65535	64629.05
861.1865	1123.7139	65535	64631.5
861.3314	1125.6675	65535	64632.45
861.4763	1127.6204	65535	64631.35
861.6212	1129.5726	65535	64627.8
861.7661	1131.524	65535	64629.25
861.911	1133.4748	65535	64630.25
862.0559	1135.4248	65535	64631.3
862.2008	1137.3741	65535	64631.2
862.3457	1139.3226	65535	64631.55
862.4905	1141.2705	65535	64631.7
862.6354	1143.2176	65535	64625.15
862.7803	1145.164	65535	64629.25
862.9251	1147.1097	65535	64632
863.07	1149.0546	65535	64630.45
863.2148	1150.9989	65535	64630.55
863.3597	1152.9424	65535	64631.55
863.5045	1154.8852	65535	64631.9
863.6493	1156.8272	65535	64632.25
863.7942	1158.7686	65535	64623.75
863.939	1160.7092	65535	64629.1
864.0838	1162.6491	65535	64628.4
864.2286	1164.5883	65535	64630.25
864.3734	1166.5267	65535	64629.3
864.5182	1168.4644	65535	64628.4
864.663	1170.4014	65535	64626.55
864.8078	1172.3377	65535	64632.75
864.9526	1174.2732	65535	64631.45
865.0974	1176.2081	65535	64631.2
865.2421	1178.1421	65535	64627.2
865.3869	1180.0755	65535	64632.55
865.5317	1182.0082	65535	64630.05
865.6764	1183.9401	65535	64630.2
865.8212	1185.8713	65535	64631.05
865.9659	1187.8017	65535	64633.55
866.1106	1189.7315	65535	64635.9
866.2554	1191.6605	65535	64606.8
866.4001	1193.5888	65535	64633.85
866.5448	1195.5163	65535	64631.95
866.6895	1197.4432	65535	64630.25
866.8342	1199.3693	65535	64631.8
866.9789	1201.2947	65535	64630.3
867.1236	1203.2193	65535	64629.6
867.2683	1205.1432	65535	64632
867.413	1207.0664	65535	64632.2
867.5576	1208.9889	65535	64629.05
867.7023	1210.9106	65535	64630.35
867.847	1212.8316	65535	64632.85
867.9916	1214.7519	65535	64621.75
868.1363	1216.6715	65535	64632.8
868.2809	1218.5903	65535	64632.9
868.4255	1220.5084	65535	64632.15
868.5701	1222.4257	65535	64632.75
868.7148	1224.3424	65535	64633.85
868.8594	1226.2583	65535	64623.45
869.004	1228.1735	65535	64631.4
869.1486	1230.0879	65535	64630.25
869.2932	1232.0016	65535	64631.25
869.4377	1233.9146	65535	64631.65
869.5823	1235.8269	65535	64632.15
869.7269	1237.7384	65535	64632.35
869.8715	1239.6492	65535	64633
870.016	1241.5592	65535	64631.5
870.1606	1243.4686	65535	64631.7
870.3051	1245.3772	65535	64630.1
870.4496	1247.285	65535	64632.65
870.5941	1249.1922	65535	64631.1
870.7387	1251.0986	65535	64634.5
870.8832	1253.0042	65535	64630.95
871.0277	1254.9092	65535	64631.1
871.1722	1256.8134	65535	64634.65
871.3167	1258.7169	65535	64630.85
871.4611	1260.6196	65535	64632.5
871.6056	1262.5216	65535	64629.45
871.7501	1264.4229	65535	64633.75
871.8945	1266.3234	65535	64634.15
872.039	1268.2232	65535	64633.05
872.1834	1270.1223	65535	64629.5
872.3278	1272.0207	65535	64631.65
872.4723	1273.9183	65535	64626.8
872.6167	1275.8151	65535	64632.7
872.7611	1277.7113	65535	64629.25
872.9055	1279.6067	65535	64633.4
873.0499	1281.5014	65535	64630.25
873.1943	1283.3953	65535	64630.2
873.3386	1285.2885	65535	64635.7
873.483	1287.181	65535	64631.4
873.6274	1289.0727	65535	64631.05
873.7717	1290.9637	65535	64631.95
873.9161	1292.854	65535	64632.2
874.0604	1294.7435	65535	64632.9
874.2047	1296.6323	65535	64630.15
874.349	1298.5204	65535	64627.5
874.4933	1300.4077	65535	64630.4
874.6376	1302.2943	65535	64632.8
874.7819	1304.1802	65535	64633.95
874.9262	1306.0653	65535	64631.5
875.0705	1307.9497	65535	64632.65
875.2147	1309.8333	65535	64633.05
875.359	1311.7162	65535	64633.5
875.5032	1313.5984	65535	64629.4
875.6475	1315.4798	65535	64631.2
875.7917	1317.3605	65535	64616
875.9359	1319.2405	65535	64633.3
876.0801	1321.1197	65535	64630.95
876.2243	1322.9982	65535	64628.9
876.3685	1324.876	65535	64632.7
876.5127	1326.753	65535	64632.15
876.6569	1328.6293	65535	64631.8
876.801	1330.5048	65535	64629.15
876.9452	1332.3796	65535	64631.45
877.0893	1334.2537	65535	64606.8
877.2335	1336.127	65535	64630.65
877.3776	1337.9996	65535	64633.5
877.5217	1339.8714	65535	64632.45
877.6658	1341.7426	65535	64591.05
877.8099	1343.6129	65535	64630.9
877.954	1345.4826	65535	64632.45
878.0981	1347.3515	65535	64631.45
878.2422	1349.2196	65535	64631.15
878.3862	1351.087	65535	64632.7
878.5303	1352.9537	65535	64630.85
878.6743	1354.8197	65535	64631.85
878.8184	1356.6849	65535	64633.3
878.9624	1358.5493	65535	64631.8
879.1064	1360.4131	65535	64631.45
879.2504	1362.276	65535	64632
879.3944	1364.1383	65535	64632.55
879.5384	1365.9998	65535	64628.6
879.6823	1367.8606	65535	64631.7
879.8263	1369.7206	65535	64633.8
879.9702	1371.5799	65535	64629.35
880.1142	1373.4384	65535	64630.6
880.2581	1375.2962	65535	64629.05
880.402	1377.1533	65535	64632.75
880.5459	1379.0096	65535	64631.75
880.6898	1380.8652	65535	64631.75
880.8337	1382.7201	65535	64633.15
880.9776	1384.5742	65535	64633
881.1215	1386.4275	65535	64631.9
881.2653	1388.2802	65535	64634.95
881.4092	1390.132	65535	64632
881.553	1391.9832	65535	64631.65
881.6968	1393.8336	65535	64631.75
881.8406	1395.6832	65535	64631.15
881.9844	1397.5322	65535	64631.05
882.1282	1399.3803	65535	64626.75
882.272	1401.2278	65535	64633.25
882.4158	1403.0745	65535	64631.1
882.5595	1404.9204	65535	64635.4
882.7033	1406.7656	65535	64633.9
882.847	1408.6101	65535	64630.75
882.9908	1410.4538	65535	64632.2
883.1345	1412.2968	65535	64633.5
883.2782	1414.139	65535	64632.25
883.4219	1415.9805	65535	64632.85
883.5656	1417.8213	65535	64625.35
883.7092	1419.6613	65535	64633.25
883.8529	1421.5006	65535	64631.4
883.9965	1423.3391	65535	64632.6
884.1402	1425.1769	65535	64632.75
884.2838	1427.0139	65535	64631.95
884.4274	1428.8502	65535	64631.25
884.571	1430.6858	65535	64632.8
884.7146	1432.5206	65535	64632.1
884.8582	1434.3547	65535	64632.05
885.0018	1436.188	65535	64632.6
885.1453	1438.0206	65535	64633.6
885.2889	1439.8524	65535	64633.2
885.4324	1441.6835	65535	64634
885.5759	1443.5139	65535	64631.9
885.7194	1445.3435	65535	64632.95
885.8629	1447.1724	65535	64634.5
886.0064	1449.0005	65535	64634.7
886.1499	1450.8279	65535	64632.3
886.2933	1452.6545	65535	64632.55
886.4368	1454.4804	65535	64634.95
886.5802	1456.3056	65535	64628.15
886.7237	1458.13	65535	64635.2
886.8671	1459.9536	65535	64632
887.0105	1461.7766	65535	64633.2
887.1539	1463.5987	65535	64632.75
887.2972	1465.4202	65535	64633.25
887.4406	1467.2409	65535	64634.2
887.584	1469.0608	65535	64633.5
887.7273	1470.88	65535	64633.85
887.8706	1472.6984	65535	64634.25
888.0139	1474.5161	65535	64630.8
888.1572	1476.3331	65535	64636.4
888.3005	1478.1493	65535	64630.8
888.4438	1479.9648	65535	64634.7
888.5871	1481.7795	65535	64634.5
888.7303	1483.5935	65535	64633.25
888.8736	1485.4067	65535	64634
889.0168	1487.2192	65535	64632.9
889.16	1489.031	65535	64633.6
889.3032	1490.842	65535	64635.2
889.4464	1492.6522	65535	64636.15
889.5896	1494.4618	65535	64635.25
889.7327	1496.2705	65535	64636.75
889.8759	1498.0785	65535	64634.5
890.019	1499.8858	65535	64633.75
890.1622	1501.6924	65535	64634.3
890.3053	1503.4981	65535	64632.2
890.4484	1505.3032	65535	64635.2
890.5914	1507.1075	65535	64634.7
890.7345	1508.911	65535	64637.45
890.8776	1510.7138	65535	64632.4
891.0206	1512.5159	65535	64635.1
891.1637	1514.3172	65535	64637.15
891.3067	1516.1178	65535	64635.8
891.4497	1517.9176	65535	64633.65
891.5927	1519.7166	65535	64634.65
891.7357	1521.515	65535	64627.55
891.8786	1523.3126	65535	64632.1
892.0216	1525.1094	65535	64633.55
892.1645	1526.9055	65535	64637.3
892.3074	1528.7008	65535	64634.25
892.4503	1530.4954	65535	64633.85
892.5932	1532.2893	65535	64637.4
892.7361	1534.0824	65535	64628.9
892.879	1535.8747	65535	64635.8
893.0218	1537.6663	65535	64633.55
893.1647	1539.4572	65535	64633.6
893.3075	1541.2473	65535	64634.7
893.4503	1543.0367	65535	64635.3
893.5931	1544.8253	65535	64632.55
893.7359	1546.6132	65535	64632.15
893.8787	1548.4003	65535	64626.8
894.0214	1550.1867	65535	64628.4
894.1642	1551.9723	65535	64631.75
894.3069	1553.7572	65535	64634.05
894.4496	1555.5414	65535	64634.7
894.5923	1557.3247	65535	64635
894.735	1559.1074	65535	64637.35
894.8777	1560.8893	65535	64636.9
895.0204	1562.6705	65535	64638.5
895.163	1564.4509	65535	64636.35
895.3056	1566.2305	65535	64636.05
895.4482	1568.0094	65535	64639.05
895.5908	1569.7876	65535	64637.5
895.7334	1571.565	65535	64637
895.876	1573.3417	65535	64636.9
896.0186	1575.1176	65535	64637.5
896.1611	1576.8928	65535	64637.45
896.3036	1578.6672	65535	64640.5
896.4461	1580.4409	65535	64642.1
896.5886	1582.2138	65535	64637.9
896.7311	1583.986	65535	64636.85
896.8736	1585.7575	65535	64638.45
897.0161	1587.5282	65535	64637.5
897.1585	1589.2981	65535	64637.7
897.3009	1591.0673	65535	64640.5
897.4433	1592.8358	65535	64638.25
897.5857	1594.6035	65535	64634.3
897.7281	1596.3704	65535	64637.9
897.8705	1598.1366	65535	64639.85
898.0128	1599.9021	65535	64640.05
898.1551	1601.6668	65535	64635.55
898.2975	1603.4308	65535	64638.05
898.4398	1605.194	65535	64633.65
898.5821	1606.9564	65535	64641.65
898.7243	1608.7182	65535	64637.25
898.8666	1610.4791	65535	64642.35
899.0088	1612.2394	65535	64639.2
899.1511	1613.9988	65535	64639.25
899.2933	1615.7576	65535	64641.55
899.4355	1617.5156	65535	64634.85
899.5776	1619.2728	65535	64640.05
899.7198	1621.0293	65535	64640.3
899.862	1622.785	65535	64636.75
900.0041	1624.54	65535	64636.95
900.1462	1626.2942	65535	64640.25
900.2883	1628.0477	65535	64638.25
900.4304	1629.8005	65535	64637.45
900.5725	1631.5525	65535	64639.2
900.7145	1633.3037	65535	64640.95
900.8566	1635.0542	65535	64640.25
900.9986	1636.804	65535	64642.1
901.1406	1638.553	65535	64548.95
901.2826	1640.3013	65535	64637.8
901.4245	1642.0488	65535	64636.65
901.5665	1643.7955	65535	64641
901.7085	1645.5416	65535	64640.2
901.8504	1647.2868	65535	64641.55
901.9923	1649.0313	65535	64639.85
902.1342	1650.7751	65535	64638.05
902.2761	1652.5181	65535	64641
902.4179	1654.2604	65535	64639.45
902.5598	1656.0019	65535	64641.05
902.7016	1657.7427	65535	64639.7
902.8434	1659.4828	65535	64641.1
902.9852	1661.222	65535	64641.8
903.127	1662.9606	65535	64640.85
903.2687	1664.6984	65535	64641.1
903.4105	1666.4354	65535	64639.3
903.5522	1668.1717	65535	64638.9
903.6939	1669.9072	65535	64631
903.8356	1671.642	65535	64452.85
903.9773	1673.3761	65535	64539.9
904.119	1675.1094	65535	64628.35
904.2606	1676.8419	65535	64639.6
904.4022	1678.5737	65535	64639.35
904.5439	1680.3048	65535	64641.65
904.6855	1682.0351	65535	64641.2
904.827	1683.7646	65535	64636.8
904.9686	1685.4934	65535	64640.9
905.1101	1687.2215	65535	64640.35
905.2517	1688.9488	65535	64640.55
905.3932	1690.6754	65535	64642.05
905.5347	1692.4012	65535	64641.65
905.6761	1694.1263	65535	64639.45
905.8176	1695.8506	65535	64641.3
905.9591	1697.5742	65535	64640.15
906.1005	1699.297	65535	64641
906.2419	1701.0191	65535	64641.5
906.3833	1702.7404	65532.95	64639.3
906.5246	1704.461	65523.25	64627.2
906.666	1706.1808	65535	64639.8
906.8073	1707.8999	65533.8	64637.7
906.9487	1709.6182	65532.45	64640.25
907.09	1711.3358	65524.75	64631.9
907.2313	1713.0527	65523.95	64631.05
907.3725	1714.7688	65527.9	64627.8
907.5138	1716.4841	65450.3	64555.6
907.655	1718.1987	65487.35	64591.35
907.7962	1719.9126	65458.8	64567.65
907.9374	1721.6257	65502.15	64605.55
908.0786	1723.338	65495.8	64600.9
908.2198	1725.0496	65240.05	64345.35
908.3609	1726.7605	65306.9	64411.95
908.502	1728.4706	65189.5	64295.65
908.6431	1730.18	65385.4	64490.8
908.7842	1731.8886	65166.2	64274.2
908.9253	1733.5964	65065	64167.7
909.0664	1735.3036	65301.35	64404.15
909.2074	1737.0099	65133.05	64241.2
909.3484	1738.7156	64999.95	64109.8
909.4894	1740.4204	64913.1	64017.6
909.6304	1742.1246	64988.5	64092.5
909.7714	1743.8279	65042.2	64150.15
909.9123	1745.5306	64994.4	64101
910.0532	1747.2325	64491.6	63599.8
910.1941	1748.9336	64533.7	63642.25
910.335	1750.634	64729.3	63832.65
910.4759	1752.3336	64848.05	63955
910.6168	1754.0325	64474.35	63583.65
910.7576	1755.7307	64838.8	63945.95
910.8984	1757.4281	64323.8	63432.6
911.0392	1759.1247	64726.55	63824.95
911.18	1760.8206	64138.75	63241.3
911.3208	1762.5158	64227.4	63329.4
911.4615	1764.2102	64375.95	63483.35
911.6022	1765.9039	64305.35	63412.35
911.7429	1767.5968	64149.1	63259.05
911.8836	1769.289	64069.9	63178.4
912.0243	1770.9804	64185.2	63292.75
912.1649	1772.6711	64071.25	63179.65
912.3056	1774.361	63976.25	63082.9
912.4462	1776.0502	63991.55	63097.35
912.5868	1777.7386	63509.35	62610.45
912.7274	1779.4263	63811.95	62918.65
912.8679	1781.1132	63805.75	62913.15
913.0084	1782.7994	63665.8	62773.7
913.149	1784.4849	63685.05	62792.85
913.2895	1786.1696	63084.6	62184.9
913.4299	1787.8535	63473.9	62582.25
913.5704	1789.5367	63507.9	62617.6
913.7108	1791.2192	63206.7	62314.35
913.8513	1792.9009	62879.05	61956.9
913.9917	1794.5818	63262.8	62367.35
914.132	1796.2621	62880	61986.65
914.2724	1797.9415	62955.25	62062.55
914.4128	1799.6202	62890.65	61997.95
914.5531	1801.2982	62888.8	61996.1
914.6934	1802.9755	62396.6	61501.65
914.8337	1804.6519	62221.7	61329.3
914.9739	1806.3277	62955.55	62065.65
915.1142	1808.0027	61719.05	60828.55
915.2544	1809.6769	62220.6	61329.3
915.3946	1811.3504	62328.5	61434.45
915.5348	1813.0231	61318.15	60424.7
915.675	1814.6951	61997.4	61105.6
915.8151	1816.3664	61522.65	60629.25
915.9553	1818.0369	61609.7	60715.65
916.0954	1819.7067	61268.8	60377.55
916.2355	1821.3757	61934.25	61038.55
916.3755	1823.044	61016.55	60125.35
916.5156	1824.7115	60468.85	59576.45
916.6556	1826.3783	60825.65	59934.85
916.7956	1828.0443	60899.25	60006.05
916.9356	1829.7096	60531.95	59639.2
917.0756	1831.3741	59744.45	58848.25
917.2155	1833.0379	60307.5	59416.85
917.3555	1834.701	60268.25	59374.9
917.4954	1836.3633	59644.65	58752.55
917.6353	1838.0248	60040.6	59147.9
917.7751	1839.6856	59795.6	58903.35
917.915	1841.3457	59203.35	58310.95
918.0548	1843.005	59940.8	59048.5
918.1946	1844.6636	59427.4	58538.15
918.3344	1846.3214	58603.5	57712
918.4742	1847.9785	58772.8	57881.65
918.6139	1849.6349	58737.9	57844.8
918.7537	1851.2904	59371.85	58470.9
918.8934	1852.9453	58341.2	57448.1
919.0331	1854.5994	58750.05	57858.8
919.1727	1856.2528	58766.6	57870.05
919.3124	1857.9054	58164.85	57273.85
919.452	1859.5572	57891.35	56999.35
919.5916	1861.2083	58119.95	57228
919.7312	1862.8587	58670.3	57779.05
919.8708	1864.5084	57131.4	56239.8
920.0103	1866.1572	57783.85	56892.6
920.1498	1867.8054	56967.85	56075.9
920.2893	1869.4528	57489.2	56597.1
920.4288	1871.0994	56832.5	55938.4
920.5683	1872.7453	56838.55	55945.6
920.7077	1874.3905	57136.1	56238.8
920.8471	1876.0349	56475.1	55581.1
920.9865	1877.6786	56940	56046.75
921.1259	1879.3215	56394.5	55503.45
921.2653	1880.9637	56928	56035.05
921.4046	1882.6051	56332.25	55440.8
921.5439	1884.2458	56043.35	55149.6
921.6832	1885.8858	55728.95	54837.15
921.8225	1887.525	55954.8	55059.5
921.9617	1889.1634	55764.3	54872.15
922.101	1890.8011	55516.5	54625.95
922.2402	1892.4381	54921.15	54030.55
922.3794	1894.0743	55541.7	54649.8
922.5185	1895.7098	55132.85	54239.35
922.6577	1897.3446	54726.45	53831.5
922.7968	1898.9786	54864.9	53969.65
922.9359	1900.6118	54505.2	53614.35
923.075	1902.2443	54163.15	53269.65
923.214	1903.8761	54498.35	53607
923.3531	1905.5071	54078.35	53185.8
923.4921	1907.1374	53393.15	52501.45
923.6311	1908.7669	53723.45	52830.85
923.77	1910.3957	53927.8	53035.55
923.909	1912.0237	53226.15	52335.1
924.0479	1913.651	53034.2	52140.7
924.1868	1915.2776	52852.45	51961.1
924.3257	1916.9034	52832.65	51942.6
924.4646	1918.5285	52564.25	51674.1
924.6034	1920.1528	52500.9	51610.7
924.7422	1921.7764	52340.9	51448.9
924.881	1923.3992	52197.3	51305.7
925.0198	1925.0213	51802.85	50911.9
925.1586	1926.6427	51456.2	50563.9
925.2973	1928.2633	51542.1	50569.45
925.436	1929.8832	51381.15	50488.25
925.5747	1931.5023	51200.55	50310.05
925.7134	1933.1207	50863.8	49972.5
925.852	1934.7383	51030.4	50137.3
925.9906	1936.3552	50612.95	49721.9
926.1292	1937.9714	50565.7	49673.55
926.2678	1939.5868	50483.3	49590.65
926.4064	1941.2015	50037.7	49145.55
926.5449	1942.8154	49760.8	48869.3
926.6834	1944.4286	49717.05	48825.45
926.8219	1946.041	49637.9	48728.55
926.9604	1947.6528	49283.05	48386.15
927.0988	1949.2637	49157.4	48267.95
927.2372	1950.8739	48916.2	48023.7
927.3756	1952.4834	48955.8	48066.15
927.514	1954.0921	48814.5	47923.65
927.6523	1955.7001	48512	47618.9
927.7907	1957.3074	48506	47616.75
927.929	1958.9139	48211.75	47320.3
928.0673	1960.5197	48128.8	47237.05
928.2055	1962.1247	47967	47077.05
928.3438	1963.729	47683.95	46794.1
928.482	1965.3325	47525.2	46610.8
928.6202	1966.9353	47442.95	46553.5
928.7584	1968.5374	47227.6	46333.45
928.8965	1970.1387	47068.6	46179.35
929.0346	1971.7393	46896.9	46006.3
929.1727	1973.3392	46757.2	45867.6
929.3108	1974.9383	46525.5	45635.4
929.4489	1976.5366	46324.15	45433.55
929.5869	1978.1342	46343.4	45452.15
929.7249	1979.7311	46192.6	45301.9
929.8629	1981.3273	46051.25	45161
930.0009	1982.9227	45862.3	44971.15
930.1388	1984.5173	45746.6	44856.3
930.2767	1986.1112	45446.5	44558
930.4146	1987.7044	45473.2	44584.05
930.5525	1989.2968	45179.15	44287.7
930.6904	1990.8885	45151.45	44257.45
930.8282	1992.4795	45022.65	44131.6
930.966	1994.0697	44849.05	43958.6
931.1038	1995.6592	44676.1	43784.45
931.2415	1997.2479	44516.1	43625.85
931.3793	1998.8359	44351	43460.55
931.517	2000.4232	44185.15	43295.45
931.6547	2002.0097	44056.75	43168.9
931.7923	2003.5955	43862.6	42971.45
931.93	2005.1805	43789	42897.9
932.0676	2006.7648	43678.95	42789.65
932.2052	2008.3484	43565.45	42676.1
932.3427	2009.9312	43587.55	42697.85
932.4803	2011.5133	43331.7	42442.9
932.6178	2013.0946	43234.7	42346.15
932.7553	2014.6752	43072.2	42184
932.8928	2016.2551	42977.3	42086.6
933.0302	2017.8342	42850.45	41962.05
933.1676	2019.4126	42643.35	41756.05
933.305	2020.9902	42392.95	41504.3
933.4424	2022.5672	42351.4	41460.3
933.5798	2024.1433	42282.05	41385.55
933.7171	2025.7188	42128.45	41240.95
933.8544	2027.2935	41936.4	41048.2
933.9917	2028.8674	41829.8	40940.55
934.129	2030.4406	41676.75	40790.55
934.2662	2032.0131	41461.8	40573.65
934.4034	2033.5849	41332.25	40437.15
934.5406	2035.1559	41299.25	40410.25
934.6778	2036.7261	41244.3	40354.25
934.8149	2038.2957	41095.35	40207.45
934.952	2039.8645	40988.75	40100.25
935.0891	2041.4325	41038.15	40147.1
935.2262	2042.9998	40805.75	39916.45
935.3632	2044.5664	40668.15	39777.6
935.5002	2046.1323	40606	39716.5
935.6372	2047.6974	40408.55	39519.7
935.7742	2049.2617	40341.9	39453.1
935.9111	2050.8254	40280.75	39386.25
936.048	2052.3883	40216.45	39324.75
936.1849	2053.9504	40051.35	39161.6
936.3218	2055.5118	39906.25	39017
936.4586	2057.0725	39712.15	38820.95
936.5955	2058.6325	39667	38777.75
936.7323	2060.1917	39501.9	38614.45
936.869	2061.7502	39433.1	38541.7
937.0058	2063.3079	39226.65	38337.85
937.1425	2064.8649	39084.5	38192.95
937.2792	2066.4212	39027	38136.45
937.4159	2067.9767	38869.65	37978.05
937.5525	2069.5315	38674.5	37785.25
937.6891	2071.0856	38476.9	37586.65
937.8257	2072.6389	38405.05	37515.75
937.9623	2074.1915	38213.5	37327.1
938.0989	2075.7433	37998.2	37107.65
938.2354	2077.2945	38002.2	37114.15
938.3719	2078.8448	37854.45	36963.1
938.5084	2080.3945	37757.25	36866.35
938.6448	2081.9434	37733.8	36843.55
938.7812	2083.4916	37541.55	36648.8
938.9176	2085.039	37391	36499.55
939.054	2086.5857	37324.35	36432.7
939.1903	2088.1317	37277.7	36386.25
939.3267	2089.677	37123	36232.15
939.463	2091.2215	36968.2	36080.15
939.5992	2092.7652	36919.85	36028.6
939.7355	2094.3083	36819.25	35928.75
939.8717	2095.8506	36784.95	35894.95
940.0079	2097.3921	36732.05	35842.65
940.1441	2098.933	36563.7	35672.65
940.2802	2100.4731	36474.25	35585.15
940.4163	2102.0124	36431.65	35534.05
940.5524	2103.5511	36301.8	35410.7
940.6885	2105.089	36237.15	35347.65
940.8245	2106.6261	36100.3	35211.2
940.9606	2108.1626	36002.75	35112.25
941.0965	2109.6983	35916.75	34998.15
941.2325	2111.2332	35780.65	34888.9
941.3684	2112.7675	35728.25	34837.4
941.5044	2114.301	35582.75	34691.15
941.6403	2115.8337	35588.35	34697.25
941.7761	2117.3657	35396.95	34508.2
941.912	2118.897	35318.7	34427.85
942.0478	2120.4276	35208.35	34312.35
942.1835	2121.9575	35014.8	34124.4
942.3193	2123.4866	35109.85	34206.25
942.455	2125.0149	34961.15	34069
942.5907	2126.5426	34688.6	33798.7
942.7264	2128.0695	34638.3	33745.3
942.8621	2129.5956	34594.5	33704.9
942.9977	2131.1211	34493.35	33600.75
943.1333	2132.6458	34453.15	33564.75
943.2689	2134.1698	34311	33421.05
943.4044	2135.693	34220.3	33327.55
943.54	2137.2155	34143.1	33249.4
943.6755	2138.7373	34047.35	33156.4
943.8109	2140.2584	33904.3	33014.8
943.9464	2141.7787	33780.15	32886.45
944.0818	2143.2983	33623.8	32737.2
944.2172	2144.8171	33436.05	32545.95
944.3526	2146.3353	33347.1	32455.95
944.4879	2147.8527	33243.8	32355.3
944.6232	2149.3693	33252.25	32362.4
944.7585	2150.8853	33096	32204.15
944.8938	2152.4005	32885.35	31996.5
945.029	2153.9149	32882.95	31992.35
945.1642	2155.4287	32720.95	31830.65
945.2994	2156.9417	32702.35	31811.9
945.4346	2158.454	32581.95	31689.6
945.5697	2159.9655	32562.25	31672.4
945.7048	2161.4764	32488.05	31599.2
945.8399	2162.9865	32375.2	31484.6
945.9749	2164.4958	32287.9	31396.3
946.1099	2166.0045	32149.95	31257.85
946.2449	2167.5124	32101.15	31212.75
946.3799	2169.0195	31975.8	31086.6
946.5148	2170.526	31960.6	31072.15
946.6498	2172.0317	31864.75	30975.4
946.7846	2173.5367	31704.75	30813.05
946.9195	2175.0409	31675.6	30785.15
947.0543	2176.5445	31641.95	30753.15
947.1891	2178.0473	31478.6	30590.45
947.3239	2179.5494	31336.85	30442.85
947.4587	2181.0507	31243.15	30353.9
947.5934	2182.5513	31141.7	30252.45
947.7281	2184.0512	31075.95	30185.75
947.8628	2185.5504	30963.25	30074.1
947.9974	2187.0488	30791.25	29901.4
948.132	2188.5465	30709.5	29820.65
948.2666	2190.0435	30577.55	29685.2
948.4012	2191.5397	30446.45	29556.75
948.5357	2193.0353	30357.1	29470.6
948.6702	2194.5301	30213.1	29320.8
948.8047	2196.0241	30114.5	29224.4
948.9392	2197.5175	30024.5	29135.05
949.0736	2199.0101	29906.35	29012.95
949.208	2200.502	29753.55	28864.95
949.3424	2201.9931	29627.7	28738.6
949.4767	2203.4835	29521.25	28630.6
949.611	2204.9733	29505.3	28609.4
949.7453	2206.4622	29431.65	28543.85
949.8796	2207.9505	29332.05	28439.75
950.0138	2209.438	29155.15	28267.75
950.148	2210.9248	29074.35	28184.25
950.2822	2212.4109	29000.3	28110.6
950.4164	2213.8962	28857.2	27964.55
950.5505	2215.3809	28805.5	27914.2
950.6846	2216.8648	28742.6	27851.8
950.8186	2218.3479	28647.15	27751.05
950.9527	2219.8304	28484.1	27590.25
951.0867	2221.3121	28408.6	27513.35
951.2207	2222.7931	28281.05	27391.2
951.3546	2224.2733	28193.15	27302.85
951.4886	2225.7529	28131.6	27239.7
951.6225	2227.2317	27973.7	27080.75
951.7563	2228.7098	28008.05	27117.3
951.8902	2230.1872	27809.55	26920.6
952.024	2231.6638	27784.6	26896.05
952.1578	2233.1397	27644.2	26749.8
952.2916	2234.6149	27585.9	26695.8
952.4253	2236.0894	27452.6	26561.25
952.559	2237.5632	27399.7	26508.2
952.6927	2239.0362	27315.4	26426.25
952.8263	2240.5085	27263.25	26374.4
952.9599	2241.9801	27109.4	26220.85
953.0935	2243.4509	27028.45	26139.05
953.2271	2244.921	26884.05	25994.9
953.3606	2246.3904	26817.45	25924.7
953.4941	2247.8591	26752.05	25861.8
953.6276	2249.3271	26639.9	25748.65
953.7611	2250.7943	26553.05	25661.35
953.8945	2252.2608	26438.85	25548.75
954.0279	2253.7266	26365.1	25476.5
954.1612	2255.1917	26300.25	25410.85
954.2946	2256.656	26216.25	25326.1
954.4279	2258.1197	26123.5	25234
954.5612	2259.5826	26055.1	25164.6
954.6944	2261.0447	26017.55	25126.5
954.8276	2262.5062	25874.95	24984.8
954.9608	2263.9669	25854	24963.35
955.094	2265.4269	25800.1	24909.05
955.2271	2266.8862	25676.95	24787.05
955.3602	2268.3448	25587.75	24697.25
955.4933	2269.8026	25530.35	24639.7
955.6264	2271.2598	25477.25	24585.45
955.7594	2272.7162	25385.25	24496.35
955.8924	2274.1719	25316.7	24426.65
956.0253	2275.6268	25226.95	24337.9
956.1583	2277.0811	25161.9	24271.25
956.2912	2278.5346	25088.75	24200.3
956.4241	2279.9874	25046	24156.3
956.5569	2281.4395	25010.4	24122.9
956.6897	2282.8908	24836	23941.6
956.8225	2284.3414	24802.45	23909.9
956.9553	2285.7914	24691.75	23802.8
957.088	2287.2406	24644.75	23752.7
957.2207	2288.689	24596.75	23704.65
957.3534	2290.1368	24486	23596.65
957.486	2291.5838	24404.6	23511.5
957.6186	2293.0302	24322.55	23432.45
957.7512	2294.4758	24228.3	23337.25
957.8838	2295.9206	24139.05	23246.5
958.0163	2297.3648	24075.95	23186.95
958.1488	2298.8082	24031.15	23139.2
958.2813	2300.251	23939.15	23049.3
958.4137	2301.693	23867.55	22975.45
958.5461	2303.1343	23854.35	22963.05
958.6785	2304.5748	23728.65	22839
958.8108	2306.0147	23673.5	22782.7
958.9432	2307.4538	23617.55	22723.95
959.0754	2308.8922	23516	22628.15
959.2077	2310.3299	23437.85	22549.5
959.3399	2311.7669	23327.1	22439.45
959.4721	2313.2031	23243.35	22355.5
959.6043	2314.6387	23157.5	22269.3
959.7365	2316.0735	23090.2	22202.35
959.8686	2317.5076	22999	22106.35
960.0006	2318.941	22973.15	22084.4
960.1327	2320.3737	22914.45	22022.2
960.2647	2321.8056	22772	21880
960.3967	2323.2369	22721.35	21830.6
960.5287	2324.6674	22679.35	21785.7
960.6606	2326.0972	22609.4	21718.6
960.7925	2327.5263	22507.15	21616.3
960.9244	2328.9547	22422.3	21532.45
961.0562	2330.3823	22374.1	21484.15
961.1881	2331.8092	22373.15	21479.4
961.3198	2333.2355	22238.25	21348.5
961.4516	2334.661	22211.65	21320.4
961.5833	2336.0858	22118.3	21226.25
961.715	2337.5098	22102.9	21213.8
961.8467	2338.9332	22049.2	21157.5
961.9783	2340.3558	21928.2	21035.25
962.1099	2341.7778	21884.8	20994.7
962.2415	2343.199	21811.3	20920.45
962.373	2344.6195	21732.3	20843.1
962.5045	2346.0393	21687.5	20800.4
962.636	2347.4583	21616.35	20726.75
962.7675	2348.8767	21542.6	20653.05
962.8989	2350.2943	21479.8	20589
963.0303	2351.7113	21466.05	20576.3
963.1617	2353.1275	21323.85	20434.4
963.293	2354.543	21249.45	20351.3
963.4243	2355.9578	21173.25	20283.85
963.5556	2357.3718	21052.4	20162.25
963.6868	2358.7852	20975	20083.8
963.818	2360.1978	20907.45	20017.05
963.9492	2361.6098	20880.45	19991.45
964.0803	2363.021	20816.65	19923.55
964.2114	2364.4315	20736.6	19846.2
964.3425	2365.8413	20687.5	19796.25
964.4736	2367.2504	20582.95	19694.75
964.6046	2368.6587	20482.75	19593.05
964.7356	2370.0664	20426.65	19536.4
964.8666	2371.4733	20356.95	19466.7
964.9975	2372.8795	20325.15	19435.8
965.1284	2374.285	20225.95	19336.4
965.2593	2375.6899	20090.5	19203.5
965.3901	2377.0939	20007	19119.45
965.5209	2378.4973	19930.85	19040.2
965.6517	2379.9	19879.65	18989.15
965.7825	2381.3019	19828.75	18940.05
965.9132	2382.7032	19758.2	18869.15
966.0439	2384.1037	19686.6	18801.1
966.1745	2385.5035	19647.2	18757.4
966.3051	2386.9027	19559.4	18670.95
966.4357	2388.3011	19500.65	18608.55
966.5663	2389.6987	19475.65	18585.5
966.6968	2391.0957	19351.4	18462.35
966.8273	2392.492	19276.2	18387.75
966.9578	2393.8876	19151.9	18262.9
967.0882	2395.2824	19082.65	18193.8
967.2186	2396.6765	19027.1	18137.05
967.349	2398.07	18927.05	18040.7
967.4793	2399.4627	18887.1	17997.8
967.6097	2400.8547	18847.8	17959.95
967.7399	2402.246	18753.95	17858.8
967.8702	2403.6366	18641.5	17750.35
968.0004	2405.0265	18568.1	17678.8
968.1306	2406.4156	18517.45	17624.7
968.2607	2407.8041	18395.05	17503.9
968.3909	2409.1918	18356.85	17465.9
968.521	2410.5789	18293.95	17405.3
968.651	2411.9652	18251.6	17361.7
968.781	2413.3508	18151.25	17260.95
968.911	2414.7358	18077.2	17186.4
969.041	2416.12	18010.3	17123.9
969.1709	2417.5035	17970.6	17081
969.3008	2418.8863	17883.1	16994.3
969.4307	2420.2684	17842.4	16953.55
969.5606	2421.6497	17745.05	16854.65
969.6904	2423.0304	17664.55	16778.55
969.8201	2424.4104	17633.25	16743.3
969.9499	2425.7896	17553.05	16661.6
970.0796	2427.1682	17542.95	16651.9
970.2093	2428.546	17473.25	16583
970.3389	2429.9232	17436.7	16545.85
970.4685	2431.2996	17381.85	16493.1
970.5981	2432.6753	17330.4	16443.45
970.7277	2434.0503	17255.7	16364.55
970.8572	2435.4246	17169.4	16280
970.9867	2436.7982	17111.95	16219.75
971.1161	2438.1711	17080.7	16191.55
971.2456	2439.5433	17040.75	16150.85
971.375	2440.9148	16924.6	16029.5
971.5043	2442.2856	16861.55	15972.75
971.6336	2443.6557	16830.8	15939.95
971.7629	2445.025	16766.7	15877.2
971.8922	2446.3937	16739.25	15849.45
972.0214	2447.7617	16665.9	15776.4
972.1506	2449.1289	16658.6	15768.1
972.2798	2450.4955	16560.5	15667.2
972.4089	2451.8613	16524.85	15635.65
972.538	2453.2265	16452.75	15564.3
972.6671	2454.5909	16405.6	15516.1
972.7961	2455.9546	16394.8	15507.15
972.9251	2457.3177	16320.95	15430.4
973.0541	2458.68	16246.5	15356.6
973.1831	2460.0416	16247.5	15358.55
973.312	2461.4025	16223.55	15334.5
973.4408	2462.7627	16153.65	15254.1
973.5697	2464.1222	16076.4	15187.35
973.6985	2465.4811	16022.15	15133.4
973.8273	2466.8392	15946.5	15056.4
973.956	2468.1966	15948.1	15056.85
974.0847	2469.5533	15925.7	15032.5
974.2134	2470.9093	15884.05	14995.9
974.3421	2472.2645	15774.7	14880.95
974.4707	2473.6191	15751.35	14862.8
974.5993	2474.973	15676	14788.05
974.7278	2476.3262	15639.45	14748.1
974.8563	2477.6787	15581.75	14692.3
974.9848	2479.0305	15470.55	14581.5
975.1132	2480.3816	15450.5	14559.2
975.2417	2481.7319	15398.55	14509.3
975.37	2483.0816	15306.8	14413.1
975.4984	2484.4306	15257.2	14367.5
975.6267	2485.7789	15198.4	14311.15
975.755	2487.1264	15123.1	14232.3
975.8833	2488.4733	15067	14178.95
976.0115	2489.8195	15042.5	14145.2
976.1397	2491.165	14954.3	14062.55
976.2678	2492.5097	14936.55	14045.4
976.3959	2493.8538	14892.85	14002.75
976.524	2495.1972	14756.6	13866.7
976.6521	2496.5398	14729.1	13838.45
976.7801	2497.8818	14700	13808.8
976.9081	2499.2231	14628.1	13737.8
977.036	2500.5637	14562.6	13671.7
977.164	2501.9035	14524	13634.7
977.2918	2503.2427	14512.6	13620.6
977.4197	2504.5812	14410.15	13520.2
977.5475	2505.919	14394.2	13502.95
977.6753	2507.256	14365.5	13475.3
977.8031	2508.5924	14276.85	13388.8
977.9308	2509.9281	14244.2	13347.75
978.0585	2511.2631	14213.25	13323.9
978.1861	2512.5974	14161.4	13275.1
978.3137	2513.9309	14074.8	13183.3
978.4413	2515.2638	14062.4	13146.8
978.5689	2516.596	14032.4	13145.2
978.6964	2517.9275	13956.5	13068.55
978.8239	2519.2583	13906.05	13016.2
978.9513	2520.5884	13860.1	12967.55
979.0788	2521.9178	13787.6	12898.55
979.2062	2523.2465	13775.25	12886.4
979.3335	2524.5745	13676.45	12788.35
979.4608	2525.9018	13627.35	12737.25
979.5881	2527.2284	13592.35	12704.7
979.7154	2528.5543	13606.15	12719.1
979.8426	2529.8796	13519.3	12631.2
979.9698	2531.2041	13478.4	12589.75
980.0969	2532.5279	13456.15	12566.1
980.224	2533.851	13427.45	12536.35
980.3511	2535.1735	13397.05	12510.2
980.4781	2536.4952	13340.05	12452.9
980.6052	2537.8163	13330.4	12440.9
980.7321	2539.1366	13272.6	12383.75
980.8591	2540.4562	13220.75	12330.6
980.986	2541.7752	13215.6	12324.2
981.1129	2543.0935	13158.65	12269.3
981.2397	2544.411	13181.8	12293.2
981.3665	2545.7279	13103	12214.3
981.4933	2547.0441	13079.4	12190.95
981.62	2548.3596	13050.35	12159.05
981.7467	2549.6744	13002.05	12113
981.8734	2550.9885	12978.2	12080.85
982.0001	2552.3019	12916.6	12026.05
982.1267	2553.6146	12876.2	11986.4
982.2532	2554.9266	12868	11978.25
982.3798	2556.2379	12815.55	11925.65
982.5063	2557.5485	12801.1	11913
982.6327	2558.8585	12737.1	11841.35
982.7592	2560.1677	12730.2	11837.9
982.8856	2561.4762	12675.35	11786.5
983.0119	2562.7841	12635.8	11743.05
983.1383	2564.0913	12608.6	11719.3
983.2646	2565.3977	12581.55	11694.75
983.3908	2566.7035	12542.65	11651.75
983.517	2568.0086	12538.3	11647.65
983.6432	2569.313	12507.3	11617.35
983.7694	2570.6167	12494.55	11601.7
983.8955	2571.9197	12447.4	11557.4
984.0216	2573.222	12413.9	11520.75
984.1476	2574.5236	12417.8	11526.9
984.2737	2575.8246	12355.85	11464.7
984.3996	2577.1248	12321.6	11428.95
984.5256	2578.4244	12307.45	11419.75
984.6515	2579.7232	12299	11410.3
984.7774	2581.0214	12272.25	11357.75
984.9032	2582.3189	12200.55	11311.1
985.029	2583.6157	12166	11271.65
985.1548	2584.9118	12163.4	11273.05
985.2806	2586.2072	12129.15	11238.55
985.4063	2587.5019	12077.1	11190.8
985.5319	2588.7959	12038.5	11148.7
985.6576	2590.0893	12043.45	11152.05
985.7832	2591.3819	12030.8	11141.95
985.9087	2592.6739	11947.9	11059
986.0343	2593.9652	11921.8	11030.75
986.1597	2595.2557	11863.15	10974.3
986.2852	2596.5456	11816.35	10924.45
986.4106	2597.8348	11793.65	10905.65
986.536	2599.1234	11736.85	10847.75
986.6614	2600.4112	11694.45	10805.4
986.7867	2601.6983	11673.15	10782.25
986.912	2602.9848	11616.7	10729.6
987.0372	2604.2705	11563.2	10667.45
987.1624	2605.5556	11560.7	10669.85
987.2876	2606.84	11519.85	10629.95
987.4128	2608.1237	11458.3	10568.2
987.5379	2609.4067	11403.9	10515.3
987.6629	2610.689	11370.1	10472.05
987.788	2611.9707	11307.95	10413.7
987.913	2613.2516	11269.2	10376.2
988.0379	2614.5319	11203.95	10315.85
988.1629	2615.8115	11167.4	10275.95
988.2878	2617.0903	11123.65	10234
988.4126	2618.3685	11093.65	10203.75
988.5375	2619.6461	11056.25	10166.65
988.6622	2620.9229	11026.85	10137.85
988.787	2622.199	10989.8	10099.3
988.9117	2623.4745	10961.1	10073
989.0364	2624.7493	10904.55	10016.85
989.161	2626.0234	10899.05	10010.65
989.2857	2627.2968	10827.5	9937.9
989.4102	2628.5695	10804.15	9914
989.5348	2629.8415	10727.95	9837.55
989.6593	2631.1128	10703.5	9812.1
989.7837	2632.3835	10666.3	9777.25
989.9082	2633.6535	10588.6	9699.95
990.0326	2634.9228	10567.9	9678.8
990.1569	2636.1914	10531.55	9644.05
990.2812	2637.4593	10499.6	9610.95
990.4055	2638.7265	10478.1	9589.05
990.5298	2639.9931	10428.8	9539.3
990.654	2641.259	10386.8	9494.85
990.7782	2642.5242	10363.6	9473.35
990.9023	2643.7887	10325.2	9435.4
991.0264	2645.0525	10327.2	9438.4
991.1505	2646.3156	10245.2	9357.4
991.2745	2647.5781	10239.1	9350.35
991.3985	2648.8398	10203.35	9317.15
991.5225	2650.1009	10192.65	9266.35
991.6464	2651.3613	10147.5	9256.8
991.7703	2652.6211	10094.55	9205.95
991.8942	2653.8801	10060.15	9172.2
992.018	2655.1385	10053.2	9159.05
992.1418	2656.3961	10020.25	9129.65
992.2655	2657.6531	9988.45	9100.5
992.3892	2658.9094	9942.85	9053.55
992.5129	2660.1651	9941.05	9051.55
992.6366	2661.42	9919.75	9030
992.7602	2662.6743	9875.65	8984.05
992.8837	2663.9279	9869.95	8982.1
993.0073	2665.1808	9828.3	8938.75
993.1307	2666.433	9829	8938.75
993.2542	2667.6846	9743.5	8855.3
993.3776	2668.9354	9742.2	8851.1
993.501	2670.1856	9718	8827.8
993.6244	2671.4351	9696.9	8809.5
993.7477	2672.6839	9653.05	8762.25
993.8709	2673.9321	9618.65	8729.55
993.9942	2675.1795	9595	8706.65
994.1174	2676.4263	9567.2	8678.25
994.2405	2677.6724	9548.65	8659.1
994.3637	2678.9179	9497.9	8607
994.4868	2680.1626	9482.55	8593.1
994.6098	2681.4067	9464.3	8576.1
994.7328	2682.6501	9425.1	8536.4
994.8558	2683.8928	9396.55	8506.85
994.9788	2685.1348	9374.6	8487.8
995.1017	2686.3761	9337.6	8449.6
995.2245	2687.6168	9301.5	8412
995.3474	2688.8568	9291.1	8400.3
995.4702	2690.0961	9192.15	8301.6
995.5929	2691.3348	9200	8311.35
995.7156	2692.5727	9179.7	8289.05
995.8383	2693.81	9143.35	8254.5
995.961	2695.0466	9104.55	8216.7
996.0836	2696.2826	9093.8	8205.1
996.2062	2697.5178	9058.8	8165.55
996.3287	2698.7524	9040.15	8151.95
996.4512	2699.9863	8995.45	8104.4
996.5737	2701.2195	8969.1	8078.65
996.6961	2702.452	8943.85	8052.45
996.8185	2703.6839	8923.85	8032.9
996.9408	2704.9151	8902.65	8014.7
997.0631	2706.1456	8860	7970.5
997.1854	2707.3755	8836.3	7949
997.3077	2708.6046	8820.95	7929.05
997.4299	2709.8331	8784.9	7894.95
997.552	2711.0609	8742.75	7854.15
997.6742	2712.2881	8737.65	7848.2
997.7963	2713.5145	8691.45	7801.5
997.9183	2714.7403	8711.45	7823.3
998.0403	2715.9654	8684.7	7794.55
998.1623	2717.1899	8639.65	7735.35
998.2842	2718.4136	8607.3	7719.7
998.4062	2719.6367	8581.8	7693.55
998.528	2720.8591	8572.05	7674.05
998.6498	2722.0809	8557.9	7669.7
998.7716	2723.3019	8523.7	7631
998.8934	2724.5223	8493.55	7602.95
999.0151	2725.7421	8474.65	7584.9
999.1368	2726.9611	8443.55	7553.35
999.2584	2728.1795	8437.25	7542.5
999.38	2729.3972	8411.65	7523.35
999.5016	2730.6142	8344.75	7444.9
999.6231	2731.8306	8307.8	7417.95
999.7446	2733.0462	8276.9	7386.3
999.8661	2734.2612	8190.7	7297.35
999.9875	2735.4756	8141.85	7251.8
1000.1089	2736.6892	8102.95	7212.5
1000.2302	2737.9022	8054.95	7167.6
1000.3515	2739.1145	8035.95	7147.2
1000.4728	2740.3262	8002.55	7103.25
1000.594	2741.5372	7958.2	7067.9
1000.7152	2742.7475	7917.75	7030.05
1000.8363	2743.9571	7892.4	6999.95
1000.9575	2745.1661	7862.6	6968.75
1001.0785	2746.3744	7837	6946.65
1001.1996	2747.582	7799.65	6911.05
1001.3206	2748.7889	7748.4	6858.7
1001.4415	2749.9952	7737.9	6849.5
1001.5625	2751.2008	7713.6	6823.45
1001.6833	2752.4057	7712.05	6820.75
1001.8042	2753.61	7635.4	6743.9
1001.925	2754.8136	7620.5	6729.8
1002.0458	2756.0165	7608.15	6720.8
1002.1665	2757.2188	7577.4	6690.05
1002.2872	2758.4204	7525.95	6638.55
1002.4078	2759.6213	7486.3	6594.05
1002.5285	2760.8215	7484.4	6589.45
1002.649	2762.0211	7466.5	6576.9
1002.7696	2763.22	7424	6529.85
1002.8901	2764.4182	7420.45	6530.7
1003.0106	2765.6158	7403.5	6514.3
1003.131	2766.8127	7381.55	6494.2
1003.2514	2768.009	7339.4	6451.15
1003.3717	2769.2045	7315.4	6424.85
1003.492	2770.3994	7300.35	6408.55
1003.6123	2771.5936	7274.15	6384.75
1003.7325	2772.7872	7245.1	6357.25
1003.8527	2773.9801	7204.95	6315.9
1003.9729	2775.1723	7203.15	6297.65
1004.093	2776.3639	7163.6	6276.2
1004.2131	2777.5548	7129.25	6238.75
1004.3331	2778.745	7105	6215.2
1004.4531	2779.9346	7103.25	6214.8
1004.5731	2781.1235	7081.05	6193.05
1004.693	2782.3117	7050.5	6162.45
1004.8129	2783.4992	7016.4	6128.65
1004.9328	2784.6861	7021.1	6132.1
1005.0526	2785.8723	6995.2	6106.05
1005.1723	2787.0579	6974.8	6084.4
1005.2921	2788.2428	6945.5	6057
1005.4118	2789.427	6932.3	6042.8
1005.5314	2790.6106	6908.4	6019.1
1005.651	2791.7935	6886.6	5997.3
1005.7706	2792.9757	6876.85	5989.55
1005.8902	2794.1573	6869.6	5978.25
1006.0097	2795.3382	6842.3	5954.05
1006.1291	2796.5184	6831.25	5946.25
1006.2485	2797.698	6824.65	5935.35
1006.3679	2798.8769	6836.05	5945.9
1006.4873	2800.0551	6799.85	5910.25
1006.6066	2801.2327	6785.5	5893.9
1006.7258	2802.4096	6782.75	5894.6
1006.8451	2803.5859	6780.55	5891.95
1006.9642	2804.7615	6758.4	5870.25
1007.0834	2805.9364	6762.15	5874
1007.2025	2807.1106	6757.85	5869.9
1007.3216	2808.2842	6778.65	5888.4
1007.4406	2809.4572	6784.8	5896.1
1007.5596	2810.6294	6809.9	5920.05
1007.6785	2811.801	6829.35	5942.6
1007.7975	2812.972	6830.55	5942.45
1007.9163	2814.1423	6850.25	5963.1
1008.0352	2815.3119	6865.3	5976.7
1008.154	2816.4808	6909.9	6022.05
1008.2727	2817.6491	6939.15	6048.25
1008.3914	2818.8167	6954.05	6065.85
1008.5101	2819.9837	7006.3	6114.55
1008.6288	2821.15	7028.85	6140.1
1008.7474	2822.3157	7018.2	6130.5
1008.8659	2823.4807	7075.75	6186.85
1008.9844	2824.645	7106.95	6215.95
1009.1029	2825.8086	7122.95	6233.5
1009.2214	2826.9716	7165.25	6277.65
1009.3398	2828.134	7206.05	6317.85
1009.4581	2829.2957	7217.5	6328.75
1009.5764	2830.4567	7234.65	6348.5
1009.6947	2831.617	7254.9	6364.95
1009.813	2832.7767	7241.95	6354
1009.9312	2833.9358	7195.05	6308.3
1010.0493	2835.0941	7181.6	6290.4
1010.1675	2836.2519	7162.3	6274.2
1010.2855	2837.4089	7139.05	6247.6
1010.4036	2838.5653	7126.55	6240.65
1010.5216	2839.7211	7101.05	6214.3
1010.6396	2840.8761	7103.1	6212.9
1010.7575	2842.0306	7103.4	6217.2
1010.8754	2843.1843	7126.9	6238.55
1010.9932	2844.3374	7135.35	6246.5
1011.111	2845.4899	7186.75	6297.55
1011.2288	2846.6417	7208.4	6319.8
1011.3465	2847.7928	7281.1	6392.85
1011.4642	2848.9433	7320.65	6432.5
1011.5818	2850.0931	7384.95	6497.25
1011.6995	2851.2422	7448.65	6558
1011.817	2852.3907	7509.4	6619.15
1011.9345	2853.5385	7541.5	6651.5
1012.052	2854.6857	7600.4	6684
1012.1695	2855.8323	7603.15	6714.9
1012.2869	2856.9781	7616.5	6728.9
1012.4042	2858.1233	7660.35	6772.95
1012.5216	2859.2679	7680.55	6792.55
1012.6389	2860.4118	7725.55	6838.85
1012.7561	2861.555	7723.6	6829.95
1012.8733	2862.6976	7762.2	6870.65
1012.9905	2863.8395	7750.35	6862.8
1013.1076	2864.9808	7772	6884.55
1013.2247	2866.1214	7773.6	6886.85
1013.3417	2867.2614	7783.6	6893.8
1013.4587	2868.4007	7760.75	6869.2
1013.5757	2869.5393	7732.45	6843.5
1013.6926	2870.6773	7736.45	6846.35
1013.8095	2871.8146	7736.05	6845.35
1013.9263	2872.9513	7690.15	6799.9
1014.0431	2874.0874	7680.9	6793.75
1014.1599	2875.2227	7661.45	6772.9
1014.2766	2876.3574	7633.75	6744.15
1014.3933	2877.4915	7572.55	6685.25
1014.51	2878.6249	7521.9	6633.95
1014.6266	2879.7577	7466.55	6577.8
1014.7431	2880.8898	7469.4	6568.9
1014.8596	2882.0212	7423	6534.6
1014.9761	2883.152	7401.85	6514.15
1015.0925	2884.2821	7358.45	6470.9
1015.2089	2885.4116	7334.85	6447.8
1015.3253	2886.5405	7309.6	6421.55
1015.4416	2887.6686	7312.1	6422.65
1015.5579	2888.7962	7281.2	6392.5
1015.6741	2889.923	7297.2	6410.9
1015.7903	2891.0493	7276.8	6388.35
1015.9065	2892.1748	7252.9	6364.2
1016.0226	2893.2997	7223.45	6336.25
1016.1387	2894.424	7235.5	6347.45
1016.2547	2895.5476	7231.9	6346.55
1016.3707	2896.6706	7261.75	6374.65
1016.4866	2897.7929	7258.75	6368.1
1016.6025	2898.9145	7270.45	6383.5
1016.7184	2900.0355	7277.2	6387.35
1016.8342	2901.1559	7296.95	6407.95
1016.95	2902.2756	7298.05	6410.25
1017.0658	2903.3946	7305.2	6417.15
1017.1815	2904.513	7325.8	6435.65
1017.2971	2905.6308	7350	6461.15
1017.4127	2906.7479	7350.85	6464.2
1017.5283	2907.8643	7327.7	6438.85
1017.6439	2908.9801	7327.4	6440.55
1017.7594	2910.0953	7334.25	6446.4
1017.8748	2911.2098	7290.95	6398.15
1017.9902	2912.3236	7283.4	6385.4
1018.1056	2913.4368	7247.05	6355.25
1018.2209	2914.5494	7220.95	6331.45
1018.3362	2915.6613	7169.45	6274.65
1018.4515	2916.7725	7135.5	6243.95
1018.5667	2917.8831	7095.1	6205.85
1018.6819	2918.9931	7048.1	6157.5
1018.797	2920.1024	7008.5	6119.3
1018.9121	2921.211	6979.1	6091.4
1019.0271	2922.319	6962.3	6073
1019.1421	2923.4264	6915.15	6027.55
1019.2571	2924.5331	6885.8	6001.05
1019.372	2925.6391	6849.2	5958.8
1019.4869	2926.7445	6845.9	5960
1019.6017	2927.8493	6832.3	5944.95
1019.7165	2928.9534	6819.9	5930.95
1019.8313	2930.0569	6788.7	5897.15
1019.946	2931.1597	6793.4	5904.3
1020.0606	2932.2619	6760.55	5873
1020.1753	2933.3634	6742.45	5855.05
1020.2899	2934.4643	6721.4	5826.9
1020.4044	2935.5645	6693.9	5798.9
1020.5189	2936.6641	6643.85	5751.7
1020.6334	2937.763	6603.35	5715.15
1020.7478	2938.8613	6550.4	5663.15
1020.8622	2939.959	6488.4	5594.65
1020.9765	2941.056	6403.8	5517.95
1021.0908	2942.1523	6312.65	5424.2
1021.2051	2943.248	6207.25	5318.8
1021.3193	2944.3431	6126.95	5240.05
1021.4334	2945.4375	5986.95	5097.65
1021.5476	2946.5313	5888.65	5002.85
1021.6617	2947.6244	5766.05	4877.9
1021.7757	2948.7169	5645.65	4757.65
1021.8897	2949.8087	5555.65	4668.95
1022.0037	2950.8999	5455.05	4566.5
1022.1176	2951.9904	5363.9	4475.3
1022.2315	2953.0803	5284.65	4394
1022.3453	2954.1696	5220	4330.4
1022.4591	2955.2582	5138.6	4251.6
1022.5728	2956.3462	5084.25	4196.6
1022.6865	2957.4335	5039.95	4149.85
1022.8002	2958.5202	4999.7	4109.05
1022.9138	2959.6062	4948.9	4059.25
1023.0274	2960.6916	4930.8	4042.7
1023.141	2961.7764	4886.05	3998.1
1023.2545	2962.8605	4852.05	3964.95
1023.3679	2963.9439	4817.3	3930.85
1023.4813	2965.0267	4782.45	3893.55
1023.5947	2966.1089	4800.35	3891.3
1023.708	2967.1905	4747	3858.3
1023.8213	2968.2714	4728.3	3841.8
1023.9346	2969.3516	4698.3	3809.3
1024.0478	2970.4312	4704.2	3808.7
1024.1609	2971.5102	4684.75	3798.25
1024.274	2972.5885	4694.65	3807.75
1024.3871	2973.6662	4663.2	3771
1024.5002	2974.7432	4646.85	3759
1024.6132	2975.8196	4631.65	3744.45
1024.7261	2976.8954	4616.4	3731.8
1024.839	2977.9705	4587.25	3699.4
1024.9519	2979.045	4574.85	3687.7
1025.0647	2980.1188	4528.55	3640.35
1025.1775	2981.192	4490.7	3604.95
1025.2902	2982.2645	4479.65	3592.35
1025.4029	2983.3364	4426.8	3540.45
1025.5156	2984.4077	4400.25	3512.35
1025.6282	2985.4783	4374.65	3481.65
1025.7407	2986.5483	4337	3448.8
1025.8532	2987.6177	4281.2	3395.3
1025.9657	2988.6864	4257.9	3370.2
1026.0782	2989.7545	4216.35	3328.55
1026.1906	2990.8219	4162.85	3276.45
1026.3029	2991.8887	4110.75	3219.45
1026.4152	2992.9548	4084.15	3196.2
1026.5275	2994.0204	4045.9	3159.4
1026.6397	2995.0852	4012.4	3125.7
1026.7519	2996.1495	3971.8	3081.15
1026.864	2997.2131	3926.75	3039.05
1026.9761	2998.276	3899.6	3012.25
1027.0882	2999.3383	3868.25	2979.95
1027.2002	3000.4	3843.15	2955.3
1027.3122	3001.4611	3822.1	2934.6
1027.4241	3002.5215	3790.45	2902.4
1027.536	3003.5812	3766.2	2879.35
1027.6478	3004.6404	3759.1	2870.25
1027.7596	3005.6989	3735.5	2846.4
1027.8714	3006.7567	3708.25	2820.2
1027.9831	3007.8139	3717.6	2809.7
1028.0947	3008.8705	3666.75	2777.25
1028.2064	3009.9264	3662.15	2771.25
1028.3179	3010.9818	3650.8	2763.3
1028.4295	3012.0364	3641.85	2754.05
1028.541	3013.0905	3626.95	2739.55
1028.6524	3014.1439	3612.45	2725.35
1028.7638	3015.1966	3610.25	2723.5
1028.8752	3016.2487	3582.15	2695.85
1028.9865	3017.3002	3562.85	2672.55
1029.0978	3018.3511	3569.15	2681.3
1029.209	3019.4013	3551.2	2662.05
1029.3202	3020.4509	3558.6	2671.95
1029.4314	3021.4998	3536.1	2646.7
1029.5425	3022.5481	3541.15	2654.05
1029.6535	3023.5958	3502.4	2614.65
1029.7645	3024.6428	3519.55	2630.1
1029.8755	3025.6892	3497.4	2610.25
1029.9864	3026.735	3503.3	2614.85
1030.0973	3027.7802	3489.1	2602.95
1030.2082	3028.8247	3478.3	2589.35
1030.319	3029.8685	3463.45	2575.45
1030.4297	3030.9118	3437.35	2548
1030.5404	3031.9544	3457.7	2570.95
1030.6511	3032.9963	3447.55	2561.1
1030.7617	3034.0376	3431.3	2543
1030.8723	3035.0783	3436.5	2545.2
1030.9829	3036.1184	3418.75	2531.5
1031.0934	3037.1578	3417.95	2530.65
1031.2038	3038.1966	3414.25	2527.3
1031.3142	3039.2348	3394.65	2507.85
1031.4246	3040.2723	3395.45	2500.1
1031.5349	3041.3092	3384.55	2499.15
1031.6452	3042.3455	3368.5	2480.75
1031.7554	3043.3811	3370.15	2480.6
1031.8656	3044.4161	3335.2	2445.05
1031.9758	3045.4505	3325.25	2438.95
1032.0859	3046.4842	3327.4	2437.65
1032.1959	3047.5173	3296.15	2410.25
1032.3059	3048.5498	3296.1	2407.25
1032.4159	3049.5816	3282.8	2395.4
1032.5258	3050.6128	3280.65	2390.6
1032.6357	3051.6434	3269.15	2379.05
1032.7455	3052.6734	3259.1	2369.15
1032.8553	3053.7027	3245	2357.3
1032.9651	3054.7314	3219.3	2332.95
1033.0748	3055.7594	3202.75	2316.55
1033.1845	3056.7868	3177.2	2288
1033.2941	3057.8136	3178.8	2292.45
1033.4037	3058.8398	3158.95	2271.35
1033.5132	3059.8653	3151.45	2262.75
1033.6227	3060.8902	3119.3	2231.2
1033.7321	3061.9145	3127.1	2238.75
1033.8415	3062.9381	3106.9	2219.9
1033.9509	3063.9612	3117.95	2214.35
1034.0602	3064.9835	3087.7	2200.75
1034.1694	3066.0053	3072	2182.55
1034.2787	3067.0264	3060.3	2173.75
1034.3878	3068.0469	3054.1	2165.05
1034.497	3069.0668	3042.2	2149.5
1034.6061	3070.086	3024.6	2136.5
1034.7151	3071.1046	3013.5	2125.75
1034.8241	3072.1226	2984.35	2095.8
1034.9331	3073.1399	2981.65	2093.3
1035.042	3074.1567	2960.6	2075.1
1035.1508	3075.1727	2945.8	2055.4
1035.2597	3076.1882	2925.2	2037.8
1035.3684	3077.203	2910.5	2022.55
1035.4772	3078.2173	2903.5	2015.1
1035.5859	3079.2308	2895.95	2006.9
1035.6945	3080.2438	2880.75	1991.5
1035.8031	3081.2561	2857.8	1971.45
1035.9117	3082.2678	2838.7	1951.65
1036.0202	3083.2789	2830.55	1942.8
1036.1286	3084.2893	2816.45	1929.5
1036.2371	3085.2991	2811	1923.55
1036.3454	3086.3083	2801.35	1908.3
1036.4538	3087.3169	2790.65	1901.65
1036.562	3088.3248	2776.1	1888.2
1036.6703	3089.3321	2754.05	1866.05
1036.7785	3090.3388	2742	1854.9
1036.8866	3091.3449	2726.55	1838.95
1036.9948	3092.3503	2725.15	1834.6
1037.1028	3093.3551	2719.25	1831.75
1037.2108	3094.3593	2711.75	1824
1037.3188	3095.3629	2689.8	1802.4
1037.4267	3096.3658	2690.45	1803.95
1037.5346	3097.3681	2673.85	1788.25
1037.6425	3098.3698	2670.25	1779.95
1037.7503	3099.3708	2660.05	1766.55
1037.858	3100.3713	2646.3	1760.05
1037.9657	3101.3711	2635.45	1747.65
1038.0734	3102.3702	2734	1713.25
1038.181	3103.3688	2629.25	1739.1
1038.2886	3104.3667	2604.85	1718.1
1038.3961	3105.364	2590.3	1703.75
1038.5036	3106.3607	2565.65	1676.55
1038.611	3107.3568	2564.1	1676
1038.7184	3108.3522	2552.05	1666.7
1038.8257	3109.347	2546.5	1657.8
1038.933	3110.3412	2538.5	1646.85
1039.0403	3111.3348	2529.1	1640.8
1039.1475	3112.3277	2520.2	1635.8
1039.2547	3113.32	2505.55	1619.45
1039.3618	3114.3117	2505.4	1618.3
1039.4689	3115.3028	2487.6	1601.4
1039.5759	3116.2932	2488	1599.15
1039.6829	3117.2831	2489.65	1597.4
1039.7898	3118.2723	2469.75	1581.7
1039.8967	3119.2608	2459.35	1571.75
1040.0035	3120.2488	2452.25	1565.1
1040.1103	3121.2361	2427.15	1538.75
1040.2171	3122.2229	2427.75	1540.15
1040.3238	3123.209	2411.2	1522.15
1040.4305	3124.1944	2412.65	1525.25
1040.5371	3125.1793	2406.25	1516.75
1040.6437	3126.1635	2388.35	1501.35
1040.7502	3127.1471	2381.05	1493.9
1040.8567	3128.1301	2376.35	1490.65
1040.9631	3129.1125	2369.45	1481.75
1041.0695	3130.0942	2367.8	1481.55
1041.1759	3131.0753	2362.8	1464.85
1041.2822	3132.0558	2352.5	1461.65
1041.3884	3133.0357	2335.6	1446.6
1041.4946	3134.015	2336.3	1447.85
1041.6008	3134.9936	2330.6	1442.55
1041.7069	3135.9716	2349.05	1442.7
1041.813	3136.949	2317.4	1429.35
1041.919	3137.9258	2315.1	1419.9
1042.025	3138.902	2306.55	1412.55
1042.1309	3139.8775	2299.65	1413.75
1042.2368	3140.8524	2295	1408.15
1042.3427	3141.8267	2287.8	1399.95
1042.4485	3142.8004	2286.25	1399.6
1042.5542	3143.7735	2271.55	1378.65
1042.6599	3144.7459	2269.6	1380.5
1042.7656	3145.7178	2262.8	1374.1
1042.8712	3146.689	2262.45	1376.4
1042.9768	3147.6596	2250.8	1359.25
1043.0823	3148.6295	2241.35	1351.8
1043.1878	3149.5989	2227.05	1339.7
1043.2932	3150.5676	2224.3	1338.9
1043.3986	3151.5357	2221.7	1336.15
1043.5039	3152.5032	2209.6	1323.65
1043.6092	3153.4701	2203.75	1316.9
1043.7145	3154.4364	2188.6	1298
1043.8197	3155.402	2180.1	1295.1
1043.9248	3156.367	2181.35	1291.75
1044.03	3157.3315	2207.5	1276.2
1044.135	3158.2952	2169.9	1283.35
1044.24	3159.2584	2151.9	1266.3
1044.345	3160.221	2151.3	1263.15
1044.4499	3161.1829	2154.3	1267.1
1044.5548	3162.1442	2129.5	1242.9
1044.6596	3163.105	2125.25	1237.35
1044.7644	3164.065	2112	1225.8
1044.8692	3165.0245	2115.75	1223.9
1044.9739	3165.9834	2112.95	1224.65
1045.0785	3166.9416	2097.7	1211.3
1045.1831	3167.8993	2094.1	1206.65
1045.2877	3168.8563	2081.1	1194.25
1045.3922	3169.8127	2075.4	1188.75
1045.4966	3170.7684	2069.15	1181.7
1045.6011	3171.7236	2074.2	1186.2
1045.7054	3172.6782	2056.9	1168.1
1045.8098	3173.6321	2061.5	1173.05
1045.914	3174.5854	2051.95	1160.95
1046.0183	3175.5381	2040.6	1151.1
1046.1224	3176.4902	2035.35	1148.95
1046.2266	3177.4417	2024	1136.6
1046.3307	3178.3926	2024.65	1138.9
1046.4347	3179.3428	2026.95	1142.05
1046.5387	3180.2924	2001.3	1113.8
1046.6427	3181.2415	2000.9	1114.05
1046.7466	3182.1899	1997.2	1109.05
1046.8504	3183.1377	1996.75	1110.5
1046.9542	3184.0848	1988.95	1098.65
1047.058	3185.0314	1982.2	1094.4
1047.1617	3185.9773	1975.25	1089.15
1047.2654	3186.9227	1973.6	1084.8
1047.369	3187.8674	1955.2	1068.5
1047.4726	3188.8115	1959.3	1069.3
1047.5761	3189.755	1944.35	1056.95
1047.6796	3190.6979	1946.55	1059.65
1047.783	3191.6402	1935.2	1048.8
1047.8864	3192.5818	1930.05	1044.15
1047.9898	3193.5229	1950.8	1038.55
1048.0931	3194.4633	1932.15	1044
1048.1963	3195.4031	1921.6	1033.6
1048.2995	3196.3423	1911.5	1025.55
1048.4027	3197.2809	1917.9	1031.1
1048.5058	3198.2189	1911.9	1027.15
1048.6089	3199.1563	1900.9	1007.4
1048.7119	3200.0931	1888.35	1001.25
1048.8148	3201.0292	1879.65	992.75
1048.9178	3201.9648	1875.65	987.8
1049.0206	3202.8997	1883.05	992.9
1049.1235	3203.834	1871	983.4
1049.2262	3204.7677	1869.65	981.55
1049.329	3205.7008	1866.3	977.55
1049.4317	3206.6333	1854.5	968.8
1049.5343	3207.5652	1850.2	962.15
1049.6369	3208.4964	1850.4	964.5
1049.7394	3209.4271	1841.6	951.9
1049.8419	3210.3571	1835.65	949.45
1049.9444	3211.2865	1825.95	939.5
1050.0468	3212.2154	1830.15	943.4
1050.1491	3213.1436	1826.8	937.55
1050.2514	3214.0712	1834.5	941.2
1050.3537	3214.9982	1818.25	929.5
1050.4559	3215.9246	1811.05	923.15
1050.5581	3216.8503	1801.85	915.45
1050.6602	3217.7755	1806.55	919.2
1050.7623	3218.7001	1791.05	904.35
1050.8643	3219.624	1788.45	902.7
1050.9663	3220.5473	1780.7	893.35
1051.0682	3221.4701	1782.65	894.45
1051.1701	3222.3922	1777.65	887.2
1051.2719	3223.3137	1774.3	887.6
1051.3737	3224.2346	1774.75	887.9
1051.4754	3225.1549	1761.65	875.55
1051.5771	3226.0746	1750	862.95
1051.6788	3226.9937	1758.55	872.95
1051.7804	3227.9121	1746.55	859.35
1051.8819	3228.83	1747	858.8
1051.9834	3229.7473	1747.4	859.9
1052.0849	3230.6639	1733.95	846.15
1052.1863	3231.5799	1729.55	844.4
1052.2876	3232.4954	1724.4	835.35
1052.3889	3233.4102	1720.35	834.4
1052.4902	3234.3244	1715.4	827.9
1052.5914	3235.238	1706	818.2
1052.6926	3236.151	1727.45	818.1
1052.7937	3237.0634	1703.15	815.9
1052.8948	3237.9752	1700.6	812.85
1052.9958	3238.8864	1691.35	805.4
1053.0968	3239.797	1687.5	800.45
1053.1977	3240.7069	1680.4	793.05
1053.2986	3241.6163	1674.95	785.65
1053.3994	3242.5251	1673.1	787.4
1053.5002	3243.4332	1677.75	791.6
1053.6009	3244.3408	1670.4	783.05
1053.7016	3245.2477	1652.7	766.05
1053.8022	3246.154	1650.85	763.05
1053.9028	3247.0598	1651.7	764.6
1054.0034	3247.9649	1645	757.65
1054.1039	3248.8694	1643.3	755.85
1054.2043	3249.7733	1641.6	755.65
1054.3047	3250.6766	1626.7	739.5
1054.4051	3251.5793	1623.95	735.05
1054.5054	3252.4814	1618.25	731.45
1054.6056	3253.3829	1619.55	732.5
1054.7058	3254.2838	1612	725.65
1054.806	3255.1841	1608.55	724.5
1054.9061	3256.0838	1607.35	720.1
1055.0061	3256.9829	1598	712.8
1055.1062	3257.8814	1586.1	697.7
1055.2061	3258.7792	1580.5	692.7
1055.306	3259.6765	1574.75	686.85
1055.4059	3260.5731	1566.65	679.1
1055.5057	3261.4692	1550.25	664.15
1055.6055	3262.3647	1546.7	659.45
1055.7052	3263.2595	1538.9	652.25
1055.8049	3264.1538	1529.35	642.55
1055.9045	3265.0474	1525.05	636.75
1056.0041	3265.9404	1522.7	636.9
1056.1036	3266.8329	1499.55	612.05
1056.2031	3267.7247	1500.8	605.35
1056.3025	3268.616	1479.6	593.9
1056.4019	3269.5066	1458.9	570.85
1056.5013	3270.3966	1451.45	563.5
1056.6005	3271.286	1424.8	538.15
