Software Version:	3.9.2.0
Unit SN:	10000200
Spectrometer SN:	6960
Date:	3/6/2024 9:35:26 AM
Data Line Index:	25
Spectral Points:	2048
Integration time (ms):	125
Averages:	20
Delay (ms):	30
Sequence Number:	1
Processing:	dark subtract
Laser Power (mW):	300
Laser Current (mA):	824
Laser Diode Temp (C):	25
Laser Case Temp (C):	23.8
System Temp (C):	23.6
Spectrometer Temp (C):	21.3
CCD Temp (C):	-0.037
Secondary Temp (C):	20.008
Heatsink Temp (C):	17.543
CCDPCB Temp (C):	30.349
SecondaryPCB Temp (C):	25.625

Wavelength	RamanShift	Raw Counts	Dark Subtracted
787.061	30.1047	516.55	108.45
787.2016	32.3739	516.8	110.2
787.3422	34.6426	525.95	118.65
787.4828	36.9109	535.35	127.3
787.6235	39.1787	546.05	132.65
787.7642	41.4461	561.3	144.75
787.9049	43.7131	570.55	148.95
788.0456	45.9796	584.25	161.2
788.1863	48.2456	590.65	162.5
788.3271	50.5112	607.95	177.1
788.4679	52.7764	616.95	184
788.6087	55.0411	632.25	194.85
788.7496	57.3054	648.65	204.85
788.8904	59.5692	663.35	219.5
789.0313	61.8326	683.1	237.25
789.1722	64.0955	701	253.45
789.3132	66.3579	728.85	273.85
789.4541	68.6199	754.6	296.7
789.5951	70.8815	807.05	343.65
789.7361	73.1426	913.8	448.15
789.8771	75.4032	1188.5	717.45
790.0181	77.6634	1871.3	1399.4
790.1592	79.9231	3507.2	3033.05
790.3003	82.1824	7079.7	6602.25
790.4414	84.4412	13387.25	12901.65
790.5825	86.6995	21853.55	21360.35
790.7237	88.9574	29992.45	29492.6
790.8648	91.2148	35732.25	35230.3
791.006	93.4717	38768.5	38262.6
791.1472	95.7282	40052.65	39546.75
791.2885	97.9842	40692.65	40185.05
791.4297	100.2398	40949.1	40437.85
791.571	102.4949	41007.85	40494.3
791.7123	104.7495	41213.5	40694.95
791.8536	107.0036	41145.3	40626.9
791.9949	109.2573	41381.1	40863.45
792.1363	111.5105	41205.55	40684.3
792.2777	113.7632	41361.3	40836.9
792.4191	116.0154	41453.9	40919.5
792.5605	118.2672	41709.6	41181.15
792.7019	120.5185	41685.85	41154.9
792.8434	122.7693	41783.15	41248.55
792.9849	125.0197	41835.65	41297.45
793.1264	127.2696	41979.35	41438.65
793.2679	129.519	42216.3	41671.8
793.4094	131.7679	42498.6	41954.35
793.551	134.0163	42063.75	41513
793.6926	136.2642	42371.35	41817.85
793.8342	138.5117	42591.7	42036.15
793.9758	140.7587	42602.7	42047.5
794.1175	143.0052	42728.05	42169
794.2591	145.2512	42566.1	42005.8
794.4008	147.4967	42793.35	42230.6
794.5425	149.7417	42740.7	42175.85
794.6842	151.9863	42765.65	42196.45
794.826	154.2304	42616.4	42044.5
794.9677	156.4739	42716.7	42139.2
795.1095	158.717	42898.85	42319
795.2513	160.9596	42942.75	42360.4
795.3931	163.2017	42799.9	42215.55
795.535	165.4433	43035.25	42448.45
795.6768	167.6844	42964.1	42374.55
795.8187	169.925	43094.35	42502.85
795.9606	172.1651	42991.75	42396.7
796.1025	174.4047	42984.7	42384.5
796.2445	176.6439	43068.95	42466.55
796.3864	178.8825	43108.1	42504.7
796.5284	181.1206	43267.25	42660.35
796.6704	183.3582	43340.6	42728.75
796.8124	185.5954	43170.7	42555.85
796.9544	187.832	43357.15	42737.4
797.0965	190.0681	43409.85	42790.2
797.2386	192.3037	43648.3	43024.5
797.3806	194.5388	43921.15	43295.1
797.5228	196.7734	43533.15	42906.6
797.6649	199.0075	43991.4	43362.45
797.807	201.2411	44170.25	43542.2
797.9492	203.4742	44289	43657.45
798.0914	205.7068	44475.85	43835.95
798.2336	207.9389	44515.2	43877.3
798.3758	210.1704	44612.95	43979.95
798.518	212.4015	44806.9	44186.65
798.6603	214.632	44589.95	43978.2
798.8025	216.862	44831.95	44217.6
798.9448	219.0915	44965.95	44348.55
799.0871	221.3205	44886.05	44266.5
799.2294	223.549	45128.5	44514
799.3718	225.777	45237.1	44618.95
799.5141	228.0044	45278.8	44651.6
799.6565	230.2314	45458.7	44831.7
799.7989	232.4578	45381.55	44752.75
799.9413	234.6837	45490.05	44852.05
800.0837	236.909	45905.05	45265.3
800.2262	239.1339	45454.75	44788.65
800.3687	241.3582	45670.75	45023.15
800.5111	243.582	45731.95	45050.1
800.6536	245.8053	45869.75	45202.4
800.7961	248.0281	45828.5	45166.15
800.9387	250.2503	45940.05	45274.6
801.0812	252.472	45887.05	45218.3
801.2238	254.6932	45986.55	45319.6
801.3664	256.9139	45960.1	45293.4
801.509	259.134	46350.25	45677.8
801.6516	261.3536	45883.35	45213.05
801.7942	263.5727	46319.2	45648
801.9369	265.7912	46168.85	45494.75
802.0795	268.0092	46325.85	45654.1
802.2222	270.2267	46352.25	45678.15
802.3649	272.4436	46421.25	45745.15
802.5076	274.6601	46521.6	45834.65
802.6504	276.8759	46553.65	45871.9
802.7931	279.0913	46682.15	45999.7
802.9359	281.3061	46617.05	45933.45
803.0787	283.5204	46792.2	46105.15
803.2215	285.7341	46854.25	46165.9
803.3643	287.9473	47082.45	46382.15
803.5071	290.16	46811	46118.8
803.6499	292.3721	47260.6	46573.35
803.7928	294.5837	46689.6	46001.15
803.9357	296.7947	46624.95	45935.6
804.0786	299.0052	46838.6	46148.05
804.2215	301.2152	46704.65	46011.2
804.3644	303.4246	46920.85	46230.15
804.5074	305.6334	46906.75	46214.85
804.6503	307.8418	46701.15	46004.3
804.7933	310.0495	46810.2	46112.65
804.9363	312.2568	46741.8	46045.6
805.0793	314.4635	46585.35	45885.55
805.2223	316.6696	46585.3	45881.65
805.3653	318.8752	46669.85	45958.65
805.5084	321.0802	46202.85	45499.6
805.6514	323.2847	46350.7	45645.4
805.7945	325.4887	46430	45725.15
805.9376	327.692	46289.45	45579.15
806.0807	329.8949	46565.85	45857.3
806.2238	332.0972	46484.35	45773
806.367	334.2989	46640.8	45923.35
806.5101	336.5001	46707.35	45993.35
806.6533	338.7007	46494.5	45779.4
806.7965	340.9008	46612.2	45895.9
806.9397	343.1003	46533.3	45814.25
807.0829	345.2992	46622.75	45903.1
807.2261	347.4976	46445.15	45724.55
807.3693	349.6955	46523.6	45796.65
807.5126	351.8927	46554.4	45828.6
807.6559	354.0895	46506.8	45768.1
807.7991	356.2856	46555.7	45828.4
807.9424	358.4812	46595.6	45867.35
808.0857	360.6763	46538.7	45809.15
808.2291	362.8707	46447.4	45714.7
808.3724	365.0646	46479.95	45743.3
808.5158	367.258	46467.85	45729.35
808.6591	369.4508	46335.45	45593.1
808.8025	371.643	46486.25	45745.1
808.9459	373.8346	46334.95	45591.6
809.0893	376.0257	46342.9	45596.2
809.2327	378.2162	46246.95	45503.25
809.3762	380.4062	46240.55	45498
809.5196	382.5956	46219.05	45476.9
809.6631	384.7844	46220.75	45485
809.8066	386.9726	46044.9	45306.2
809.9501	389.1603	46102.4	45368.1
810.0936	391.3474	46004.1	45218.7
810.2371	393.5339	46081.4	45340.9
810.3806	395.7199	45795.35	45060
810.5241	397.9052	45848.35	45112
810.6677	400.09	45875.55	45137.2
810.8113	402.2743	45891.05	45150.5
810.9548	404.4579	45967.5	45221.95
811.0984	406.641	45961.75	45217.6
811.2421	408.8235	46049.65	45302
811.3857	411.0054	46017.55	45270.35
811.5293	413.1868	46117.85	45366.15
811.673	415.3675	46106.7	45350.75
811.8166	417.5477	46116.35	45360.75
811.9603	419.7273	46042.2	45283.05
812.104	421.9064	45856.1	45089.85
812.2477	424.0848	45747.6	44988.4
812.3914	426.2627	45716.05	44955.85
812.5351	428.4399	45494.05	44732.1
812.6788	430.6166	45376.8	44610.3
812.8226	432.7928	45324.6	44555.25
812.9663	434.9683	45175.5	44407.95
813.1101	437.1432	45151.5	44380.35
813.2539	439.3176	45056.15	44289.15
813.3977	441.4914	44825.45	44058.3
813.5415	443.6645	44844.65	44074.25
813.6853	445.8371	44628.35	43858.9
813.8291	448.0091	44443.25	43673
813.973	450.1806	44379.85	43609.65
814.1168	452.3514	44232.95	43458.6
814.2607	454.5216	44292.2	43510.8
814.4046	456.6913	44052	43277.15
814.5485	458.8603	44048.65	43276.1
814.6924	461.0288	44134	43362
814.8363	463.1967	44026.85	43251.45
814.9802	465.3639	44117	43338.25
815.1241	467.5306	43969.8	43193.6
815.2681	469.6967	43875.9	43099.35
815.412	471.8622	43782.7	43005.05
815.556	474.0271	43746.6	42970.4
815.7	476.1914	43683.55	42901.55
815.844	478.3551	43673.2	42894.1
815.988	480.5182	43794.4	43013.95
816.132	482.6807	43750.65	42969.65
816.276	484.8426	43767.6	42988.3
816.4201	487.0039	43843.6	43063.65
816.5641	489.1647	43884.85	43103.6
816.7082	491.3248	43926.85	43143.25
816.8522	493.4843	43872.15	43088.75
816.9963	495.6432	43837.35	43054.25
817.1404	497.8015	43718.15	42932.45
817.2845	499.9592	43781.5	42997.45
817.4286	502.1163	43677.7	42890.8
817.5727	504.2728	43490.85	42699.95
817.7168	506.4287	43588.45	42800.85
817.861	508.5839	43441.45	42652.7
818.0051	510.7386	43407.4	42618.9
818.1493	512.8927	43440.25	42642.85
818.2935	515.0461	43450.85	42658.2
818.4377	517.199	43372.4	42580.95
818.5818	519.3512	43367.5	42575.6
818.726	521.5029	43440.3	42642.15
818.8703	523.6539	43447	42652.95
819.0145	525.8043	43390.75	42596.85
819.1587	527.9541	43335.55	42537.65
819.303	530.1033	43152.05	42354.7
819.4472	532.2519	43075.1	42275.5
819.5915	534.3999	43024.05	42227.3
819.7357	536.5472	43027.55	42229.75
819.88	538.694	43012.4	42214.4
820.0243	540.8401	43033.15	42233.55
820.1686	542.9856	42996.85	42195.3
820.3129	545.1305	42944.35	42143.2
820.4572	547.2748	43000.8	42199.45
820.6016	549.4185	42949.1	42145.45
820.7459	551.5615	42840.4	42038.35
820.8902	553.704	42895.2	42093.7
821.0346	555.8458	42767.85	41967.15
821.1789	557.987	42869.7	42070.05
821.3233	560.1276	42718.6	41917.9
821.4677	562.2675	42838.3	42037.15
821.6121	564.4069	42786.5	41986.05
821.7565	566.5456	42771.3	41970.15
821.9009	568.6837	42735.8	41933
822.0453	570.8212	42564.85	41762.75
822.1897	572.958	42417.1	41610.4
822.3342	575.0942	42282.9	41478.2
822.4786	577.2299	42159.75	41354.55
822.6231	579.3648	41979.6	41173.65
822.7675	581.4992	41837.65	41031.35
822.912	583.6329	41756.05	40949.95
823.0565	585.766	41724.65	40918.35
823.201	587.8985	41688.3	40883.3
823.3454	590.0304	41552.15	40732.35
823.4899	592.1616	41520.05	40705.45
823.6345	594.2922	41463.1	40651.6
823.779	596.4222	41355.2	40542.65
823.9235	598.5515	41231.15	40420.05
824.068	600.6802	41092.75	40281.1
824.2126	602.8083	40883.8	40070.2
824.3571	604.9358	40845.5	40034.85
824.5017	607.0626	40746.4	39934.3
824.6462	609.1888	40662.1	39847.55
824.7908	611.3144	40603.65	39790.1
824.9354	613.4393	40572.05	39757.15
825.08	615.5636	40597.7	39783.2
825.2246	617.6873	40622.6	39807.2
825.3692	619.8103	40703.1	39885
825.5138	621.9327	40543.95	39723.55
825.6584	624.0544	40529.05	39712.45
825.803	626.1756	40431.95	39615.2
825.9477	628.2961	40317.25	39498.9
826.0923	630.4159	40191.75	39372
826.237	632.5351	40176	39355.8
826.3816	634.6537	40109.45	39291.25
826.5263	636.7716	40068.75	39247
826.6709	638.8889	40048.95	39226.85
826.8156	641.0056	40119.05	39297.55
826.9603	643.1216	40016.7	39193.15
827.105	645.237	40111.6	39289.3
827.2497	647.3518	39908.45	39087.55
827.3944	649.4659	39900.05	39078.3
827.5391	651.5793	39829.75	39006.8
827.6838	653.6922	39686.55	38865.65
827.8285	655.8043	39700.45	38877.35
827.9733	657.9159	39645.35	38820.2
828.118	660.0268	39499.3	38673.85
828.2627	662.137	39469.7	38645.45
828.4075	664.2466	39368.1	38539.05
828.5522	666.3556	39405.85	38579.9
828.697	668.4639	39317.35	38490.45
828.8418	670.5716	39344.05	38516.5
828.9865	672.6786	39292.95	38464.05
829.1313	674.785	39132.6	38304.3
829.2761	676.8907	39010.5	38182.2
829.4209	678.9958	39024.9	38197.25
829.5657	681.1002	38871.35	38041.8
829.7105	683.204	38819.7	37985.9
829.8553	685.3072	38757.85	37927.85
830.0001	687.4097	38688.5	37859.55
830.1449	689.5115	38664.9	37830.95
830.2898	691.6127	38648.2	37820.2
830.4346	693.7132	38576.95	37746.6
830.5794	695.8131	38597.95	37742.3
830.7243	697.9123	38572.7	37740.6
830.8691	700.0109	38529	37693.3
831.014	702.1089	38449.35	37617.35
831.1588	704.2061	38382.15	37549.1
831.3037	706.3028	38404.45	37570.85
831.4486	708.3987	38392.7	37557.7
831.5935	710.4941	38359.55	37524.6
831.7383	712.5887	38289.55	37454.45
831.8832	714.6827	38304.05	37466.45
832.0281	716.7761	38242.9	37406.7
832.173	718.8688	38214.45	37377.65
832.3179	720.9608	38095	37254.2
832.4628	723.0522	38165.1	37326.35
832.6077	725.1429	37992.6	37156.1
832.7527	727.233	38011.85	37176.6
832.8976	729.3224	38104.45	37266
833.0425	731.4112	38005.45	37168.05
833.1874	733.4993	37935.9	37095.4
833.3324	735.5867	37785.95	36947.65
833.4773	737.6735	37714.95	36874.15
833.6222	739.7596	37642.9	36800.8
833.7672	741.845	37485.5	36646.45
833.9122	743.9298	37390.25	36549.4
834.0571	746.014	37334.7	36496.55
834.2021	748.0974	37271.05	36428.8
834.347	750.1802	37145.65	36303.6
834.492	752.2624	37031.8	36192
834.637	754.3439	36978.8	36136.1
834.782	756.4247	36802.85	35951.45
834.9269	758.5048	36711.25	35871
835.0719	760.5843	36622.65	35780.85
835.2169	762.6631	36559.3	35715.5
835.3619	764.7413	36565.85	35724.05
835.5069	766.8188	36561.5	35716.7
835.6519	768.8956	36439.15	35592.65
835.7969	770.9718	36587.3	35744.25
835.9419	773.0473	36434.4	35590.75
836.0869	775.1221	36355.75	35512.85
836.232	777.1962	36224.45	35379.35
836.377	779.2697	36249.9	35404.7
836.522	781.3426	36192.8	35329.5
836.667	783.4147	36188.6	35343.3
836.8121	785.4862	36177.8	35335.25
836.9571	787.557	36046.6	35201.8
837.1021	789.6271	35885.15	35037.85
837.2472	791.6966	35715.4	34868.7
837.3922	793.7654	35504.65	34660.05
837.5373	795.8335	35473.45	34627.65
837.6823	797.901	35306	34459.45
837.8274	799.9678	35236.75	34389.35
837.9724	802.0339	35160.3	34312.65
838.1175	804.0993	35138.6	34281.05
838.2626	806.1641	35041.8	34191.75
838.4076	808.2282	34955.5	34107.75
838.5527	810.2916	34932.05	34082.15
838.6978	812.3544	34857.3	34010.75
838.8428	814.4164	34799.95	33954.6
838.9879	816.4778	34851.4	34002.2
839.133	818.5385	34707.45	33859.45
839.2781	820.5986	34734.25	33887.2
839.4232	822.658	34732.55	33880.75
839.5682	824.7166	34697.5	33849
839.7133	826.7747	34813.45	33965.15
839.8584	828.832	34854.8	34003.35
840.0035	830.8886	34662.4	33809.75
840.1486	832.9446	34636.75	33784.25
840.2937	834.9999	34594.6	33747.75
840.4388	837.0545	34503.3	33650.9
840.5839	839.1085	34384.95	33533.7
840.729	841.1618	34224.15	33368.95
840.8741	843.2143	34146.9	33295.7
841.0192	845.2662	33966.6	33115.5
841.1643	847.3175	33962.35	33110.1
841.3095	849.368	33834.5	32982
841.4546	851.4179	33818.1	32968.1
841.5997	853.467	33637.05	32785.25
841.7448	855.5155	33631.5	32780.3
841.8899	857.5633	33575.2	32723.95
842.0351	859.6105	33499.5	32647.85
842.1802	861.6569	33489.05	32636.1
842.3253	863.7027	33356.75	32501.95
842.4704	865.7478	33394.65	32541
842.6156	867.7922	33356.7	32504.7
842.7607	869.8359	33249.45	32395.05
842.9058	871.8789	33189.35	32333.55
843.0509	873.9212	33194.6	32308.8
843.1961	875.9629	33059.6	32204.5
843.3412	878.0039	33085.45	32228.7
843.4863	880.0441	33044.15	32190.2
843.6315	882.0837	33059.95	32205.45
843.7766	884.1226	32928.25	32071.1
843.9218	886.1609	33027.05	32172.5
844.0669	888.1984	33037.45	32183.4
844.212	890.2352	33120.8	32267.6
844.3572	892.2714	33082.15	32224.9
844.5023	894.3069	33029.5	32172.85
844.6475	896.3416	32805.2	31949.8
844.7926	898.3757	32753.2	31896.05
844.9377	900.4091	32719.7	31860.75
845.0829	902.4418	32685.55	31823.45
845.228	904.4739	32553.95	31693.7
845.3732	906.5052	32555.25	31697.5
845.5183	908.5358	32535.95	31678.7
845.6635	910.5658	32458.65	31599.05
845.8086	912.595	32330.9	31473.85
845.9538	914.6236	32239	31382.85
846.0989	916.6515	32171.1	31313.9
846.2441	918.6786	32052.85	31192.9
846.3892	920.7051	32036.2	31178.05
846.5344	922.7309	32058.8	31199.7
846.6795	924.756	31922.1	31064.45
846.8246	926.7804	31885.45	31026
846.9698	928.8041	31663.1	30803.1
847.1149	930.8272	31691.4	30831.85
847.2601	932.8495	31556.9	30696.45
847.4052	934.8711	31567.45	30705.45
847.5504	936.892	31432.85	30573.15
847.6955	938.9123	31390	30527.7
847.8407	940.9318	31343.6	30482.35
847.9858	942.9506	31203.95	30342.95
848.131	944.9688	31132.95	30274
848.2761	946.9862	31064.15	30205.75
848.4213	949.003	30892	30031.2
848.5664	951.019	30839.2	29979.75
848.7115	953.0344	30747.05	29885.95
848.8567	955.0491	30655.4	29794.4
849.0018	957.063	30627.75	29766.8
849.147	959.0763	30651.5	29792
849.2921	961.0888	30540.85	29677
849.4373	963.1007	30534.7	29672
849.5824	965.1119	30497.8	29636.1
849.7275	967.1223	30470.55	29609.05
849.8727	969.1321	30400.85	29542
850.0178	971.1412	30363.2	29504
850.1629	973.1495	30262.95	29402.55
850.3081	975.1572	30249.45	29342.3
850.4532	977.1641	30205.75	29343.75
850.5983	979.1704	30120.35	29255.8
850.7435	981.1759	30006.5	29141.2
850.8886	983.1808	30027.1	29161.3
851.0337	985.1849	29960.3	29092.45
851.1788	987.1884	29871.75	29004.75
851.324	989.1911	29793.6	28927.9
851.4691	991.1932	29758.9	28894.75
851.6142	993.1945	29635.05	28770.65
851.7593	995.1951	29456.45	28591.95
851.9045	997.1951	29447.95	28579.15
852.0496	999.1943	29354.9	28491.9
852.1947	1001.1928	29240.45	28374.8
852.3398	1003.1906	29089.5	28223.25
852.4849	1005.1877	29129.4	28264.5
852.63	1007.1841	29031.35	28168.5
852.7751	1009.1798	28916.9	28051.9
852.9202	1011.1748	28825.95	27961.55
853.0653	1013.1691	28760.4	27894.95
853.2104	1015.1627	28647.2	27782.5
853.3555	1017.1556	28415.5	27551.65
853.5006	1019.1477	28367.35	27500.6
853.6457	1021.1392	28211.1	27346.65
853.7908	1023.1299	28119.6	27254.8
853.9359	1025.12	27994.85	27127.6
854.081	1027.1093	27854.1	26991.4
854.2261	1029.0979	27850.85	26988.6
854.3712	1031.0859	27758.45	26894.7
854.5163	1033.0731	27709	26839.75
854.6613	1035.0596	27650.55	26786.65
854.8064	1037.0454	27446.8	26580.25
854.9515	1039.0304	27402.6	26537.3
855.0965	1041.0148	27249.1	26383.25
855.2416	1042.9985	27214.9	26346.4
855.3867	1044.9814	27198.5	26333.55
855.5317	1046.9636	27062.05	26193.35
855.6768	1048.9452	26934.65	26068.1
855.8219	1050.926	26955.75	26090.15
855.9669	1052.9061	26913.95	26047.65
856.112	1054.8855	26858.7	25992.35
856.257	1056.8642	26796.65	25928.85
856.4021	1058.8421	26748.65	25877.1
856.5471	1060.8194	26680.8	25813.1
856.6921	1062.7959	26610.2	25741.7
856.8372	1064.7717	26563.1	25693.3
856.9822	1066.7469	26538.05	25668
857.1272	1068.7213	26506.2	25636.45
857.2723	1070.695	26471.45	25604.85
857.4173	1072.6679	26346.05	25477.25
857.5623	1074.6402	26358.5	25490.2
857.7073	1076.6117	26367.4	25495.6
857.8523	1078.5826	26331.4	25459.4
857.9973	1080.5527	26232.65	25361.3
858.1423	1082.5221	26065.1	25195.35
858.2873	1084.4908	26051.4	25182.45
858.4323	1086.4587	25981.05	25112.25
858.5773	1088.426	25853.4	24984.45
858.7223	1090.3925	25789.95	24916.2
858.8673	1092.3584	25764.85	24894.75
859.0123	1094.3235	25660.25	24792.75
859.1573	1096.2879	25612.9	24743.2
859.3022	1098.2515	25596.05	24726.65
859.4472	1100.2145	25623.35	24753.65
859.5922	1102.1767	25584.55	24714.85
859.7371	1104.1382	25615.5	24746.3
859.8821	1106.099	25581	24710.4
860.027	1108.0591	25531.85	24661.3
860.172	1110.0185	25485.35	24613.6
860.3169	1111.9771	25501.85	24633.15
860.4619	1113.9351	25497.65	24626.6
860.6068	1115.8923	25438.15	24565.85
860.7517	1117.8488	25503.1	24631.3
860.8967	1119.8045	25305.3	24435.85
861.0416	1121.7596	25215.5	24346.1
861.1865	1123.7139	25013.85	24143.6
861.3314	1125.6675	24928.1	24060.2
861.4763	1127.6204	24934.75	24065.2
861.6212	1129.5726	24839	23966.5
861.7661	1131.524	24812.1	23943.85
861.911	1133.4748	24750.35	23880.75
862.0559	1135.4248	24634.65	23762.2
862.2008	1137.3741	24527.9	23656.6
862.3457	1139.3226	24452.95	23579.6
862.4905	1141.2705	24478.65	23606.4
862.6354	1143.2176	24341.3	23465.15
862.7803	1145.164	24325.85	23452.25
862.9251	1147.1097	24276.35	23405.1
863.07	1149.0546	24262.05	23389.95
863.2148	1150.9989	24241.4	23369.05
863.3597	1152.9424	24176.7	23302.85
863.5045	1154.8852	24139.05	23267.35
863.6493	1156.8272	24075.45	23205.2
863.7942	1158.7686	24058.65	23181.25
863.939	1160.7092	23990.25	23116.5
864.0838	1162.6491	23904.85	23030.8
864.2286	1164.5883	23932.4	23060.5
864.3734	1166.5267	23901.15	23029.5
864.5182	1168.4644	23893.25	23020.75
864.663	1170.4014	23879.8	23002.95
864.8078	1172.3377	23931.2	23060.9
864.9526	1174.2732	23914.9	23042.7
865.0974	1176.2081	23963.45	23088.65
865.2421	1178.1421	24027.15	23150.65
865.3869	1180.0755	24126.05	23253.65
865.5317	1182.0082	24129.65	23257.25
865.6764	1183.9401	24130.45	23257.95
865.8212	1185.8713	23925.95	23054.9
865.9659	1187.8017	23799.15	22926.6
866.1106	1189.7315	23677.8	22806.4
866.2554	1191.6605	23446.55	22573.2
866.4001	1193.5888	23303.15	22431.1
866.5448	1195.5163	23244.3	22372.1
866.6895	1197.4432	23186.45	22312.95
866.8342	1199.3693	23071.7	22198.85
866.9789	1201.2947	22973.05	22097.15
867.1236	1203.2193	22870.05	21997.1
867.2683	1205.1432	22818.8	21946.65
867.413	1207.0664	22771.35	21897.7
867.5576	1208.9889	22724.75	21847.1
867.7023	1210.9106	22627.2	21753.45
867.847	1212.8316	22562.75	21689.55
867.9916	1214.7519	22516.85	21633.5
868.1363	1216.6715	22443.05	21572.75
868.2809	1218.5903	22486.25	21612.65
868.4255	1220.5084	22454.55	21580.4
868.5701	1222.4257	22457.7	21584.65
868.7148	1224.3424	22341.75	21470
868.8594	1226.2583	22295.2	21419
869.004	1228.1735	22308.95	21433.8
869.1486	1230.0879	22249.35	21374.9
869.2932	1232.0016	22218.85	21344.85
869.4377	1233.9146	22228.15	21351.7
869.5823	1235.8269	22157.7	21283.55
869.7269	1237.7384	22180.15	21306.25
869.8715	1239.6492	22084.35	21210.45
870.016	1241.5592	22067.45	21193.2
870.1606	1243.4686	22048.05	21173.55
870.3051	1245.3772	22095.95	21220.9
870.4496	1247.285	22108.5	21233.8
870.5941	1249.1922	22164.85	21290.4
870.7387	1251.0986	22217.2	21343.4
870.8832	1253.0042	22199.9	21324.3
871.0277	1254.9092	22245.35	21368.55
871.1722	1256.8134	22302.7	21428.4
871.3167	1258.7169	22421.7	21545.85
871.4611	1260.6196	22430.15	21555.15
871.6056	1262.5216	22405.6	21527.95
871.7501	1264.4229	22370.9	21496.15
871.8945	1266.3234	22316.65	21441.15
872.039	1268.2232	22264.65	21389.4
872.1834	1270.1223	22154.85	21277.75
872.3278	1272.0207	22069.7	21192.85
872.4723	1273.9183	22008.55	21124.4
872.6167	1275.8151	21959.35	21085.4
872.7611	1277.7113	22002.2	21126.2
872.9055	1279.6067	21998.65	21124.5
873.0499	1281.5014	22119.7	21241.15
873.1943	1283.3953	22273	21395.85
873.3386	1285.2885	22438.05	21563.85
873.483	1287.181	22624.95	21746.5
873.6274	1289.0727	22688.9	21814.55
873.7717	1290.9637	22589.75	21712.45
873.9161	1292.854	22530.95	21655.3
874.0604	1294.7435	22292.55	21414.3
874.2047	1296.6323	22159.1	21284.65
874.349	1298.5204	22021.25	21141.45
874.4933	1300.4077	21912.65	21036.7
874.6376	1302.2943	21871.55	20997.05
874.7819	1304.1802	21815.55	20938.6
874.9262	1306.0653	21685.3	20806.75
875.0705	1307.9497	21625.1	20749.6
875.2147	1309.8333	21615.25	20739.4
875.359	1311.7162	21560.15	20685
875.5032	1313.5984	21527.9	20648.9
875.6475	1315.4798	21451.65	20574.75
875.7917	1317.3605	21418.65	20538.5
875.9359	1319.2405	21392.6	20513.4
876.0801	1321.1197	21346.95	20468.85
876.2243	1322.9982	21211.25	20330.95
876.3685	1324.876	21181.65	20305.65
876.5127	1326.753	21061.9	20182.7
876.6569	1328.6293	20959.65	20081.6
876.801	1330.5048	20856.6	19975.95
876.9452	1332.3796	20736.35	19861.75
877.0893	1334.2537	20666.5	19762.35
877.2335	1336.127	20545.75	19670.95
877.3776	1337.9996	20459.1	19580.65
877.5217	1339.8714	20417.4	19539.6
877.6658	1341.7426	20378.05	19458.55
877.8099	1343.6129	20334.6	19458.9
877.954	1345.4826	20242.25	19365.35
878.0981	1347.3515	20278.1	19398
878.2422	1349.2196	20199.5	19322.3
878.3862	1351.087	20184.8	19307.55
878.5303	1352.9537	20171.05	19294.65
878.6743	1354.8197	20135.1	19259.1
878.8184	1356.6849	20155.75	19279.1
878.9624	1358.5493	20108.95	19231.7
879.1064	1360.4131	20109.4	19234.1
879.2504	1362.276	20094.4	19219.65
879.3944	1364.1383	20077.95	19200
879.5384	1365.9998	20098.95	19218.55
879.6823	1367.8606	19989.05	19112.25
879.8263	1369.7206	19921.4	19043.25
879.9702	1371.5799	19901.5	19022.15
880.1142	1373.4384	19851.55	18972.85
880.2581	1375.2962	19803.95	18927.65
880.402	1377.1533	19655.75	18779.05
880.5459	1379.0096	19535.15	18658.25
880.6898	1380.8652	19454.2	18577.2
880.8337	1382.7201	19374.35	18496.3
880.9776	1384.5742	19254.6	18377.1
881.1215	1386.4275	19201.3	18321.5
881.2653	1388.2802	19113.6	18235.9
881.4092	1390.132	19049.6	18174.45
881.553	1391.9832	19053.65	18175.4
881.6968	1393.8336	18911.75	18036.35
881.8406	1395.6832	18862.7	17984.85
881.9844	1397.5322	18811.35	17933.95
882.1282	1399.3803	18738.35	17856.05
882.272	1401.2278	18619.5	17742.3
882.4158	1403.0745	18601.1	17722.6
882.5595	1404.9204	18508.3	17631.65
882.7033	1406.7656	18503.85	17625
882.847	1408.6101	18426.95	17548.55
882.9908	1410.4538	18351.7	17472.9
883.1345	1412.2968	18325.05	17447.7
883.2782	1414.139	18258.15	17379.95
883.4219	1415.9805	18240.75	17362.55
883.5656	1417.8213	18223.3	17326.8
883.7092	1419.6613	18144.5	17268.55
883.8529	1421.5006	18138.65	17260
883.9965	1423.3391	18128.95	17250.35
884.1402	1425.1769	18087.35	17205.55
884.2838	1427.0139	18171.05	17291.75
884.4274	1428.8502	18216.35	17335.7
884.571	1430.6858	18218.95	17341.75
884.7146	1432.5206	18205.85	17328.35
884.8582	1434.3547	18217.3	17336.55
885.0018	1436.188	18156.45	17280.2
885.1453	1438.0206	18119.95	17239.9
885.2889	1439.8524	18041.45	17162
885.4324	1441.6835	18033.9	17154.35
885.5759	1443.5139	17976.6	17095.05
885.7194	1445.3435	17920.55	17040.85
885.8629	1447.1724	17965.3	17087.9
886.0064	1449.0005	17939.2	17061.4
886.1499	1450.8279	17867.65	16988.1
886.2933	1452.6545	17851.15	16971.5
886.4368	1454.4804	17820.05	16941.65
886.5802	1456.3056	17791.35	16904.45
886.7237	1458.13	17759.5	16883.65
886.8671	1459.9536	17711.3	16832.8
887.0105	1461.7766	17645.45	16767.7
887.1539	1463.5987	17548.7	16667.8
887.2972	1465.4202	17491.15	16613.15
887.4406	1467.2409	17397.15	16519.25
887.584	1469.0608	17385.75	16507.9
887.7273	1470.88	17324.4	16444.3
887.8706	1472.6984	17231.4	16356
888.0139	1474.5161	17167.35	16286.55
888.1572	1476.3331	17097.45	16221.5
888.3005	1478.1493	17087.7	16207.85
888.4438	1479.9648	17086.1	16206.9
888.5871	1481.7795	17001.25	16121.75
888.7303	1483.5935	16983.95	16106.25
888.8736	1485.4067	16965.55	16086.65
889.0168	1487.2192	16963.75	16085.15
889.16	1489.031	16953.1	16071.15
889.3032	1490.842	16881.75	16004
889.4464	1492.6522	16876.5	15998.7
889.5896	1494.4618	16835.7	15955.15
889.7327	1496.2705	16818.15	15940.35
889.8759	1498.0785	16758.25	15879.85
890.019	1499.8858	16683	15803.55
890.1622	1501.6924	16669.65	15790.15
890.3053	1503.4981	16630.65	15752
890.4484	1505.3032	16618.95	15741.25
890.5914	1507.1075	16534.85	15656
890.7345	1508.911	16560	15681.75
890.8776	1510.7138	16519.15	15639.7
891.0206	1512.5159	16436.8	15558.1
891.1637	1514.3172	16389.15	15509.3
891.3067	1516.1178	16337.5	15459.55
891.4497	1517.9176	16313.55	15430.35
891.5927	1519.7166	16246.9	15371.1
891.7357	1521.515	16235.8	15348.9
891.8786	1523.3126	16135.95	15256.3
892.0216	1525.1094	16094.9	15213.15
892.1645	1526.9055	16066.35	15187.65
892.3074	1528.7008	15989.1	15110.25
892.4503	1530.4954	15897.35	15016.8
892.5932	1532.2893	15879.95	15002.5
892.7361	1534.0824	15777.75	14894.8
892.879	1535.8747	15783.75	14904.35
893.0218	1537.6663	15705	14824.45
893.1647	1539.4572	15656.55	14775.2
893.3075	1541.2473	15623.7	14744.4
893.4503	1543.0367	15591.65	14711.65
893.5931	1544.8253	15531.85	14647.4
893.7359	1546.6132	15510.1	14629.7
893.8787	1548.4003	15436.5	14547.15
894.0214	1550.1867	15448.5	14561.5
894.1642	1551.9723	15410.7	14524.8
894.3069	1553.7572	15384.55	14503.5
894.4496	1555.5414	15329.5	14447.7
894.5923	1557.3247	15312.05	14432.85
894.735	1559.1074	15287.65	14408.6
894.8777	1560.8893	15290.05	14412.95
895.0204	1562.6705	15289.7	14408.8
895.163	1564.4509	15258.4	14381.25
895.3056	1566.2305	15250.45	14373.4
895.4482	1568.0094	15264.2	14387
895.5908	1569.7876	15230.5	14351.15
895.7334	1571.565	15195.05	14315.8
895.876	1573.3417	15167.9	14289.4
896.0186	1575.1176	15132.75	14253.4
896.1611	1576.8928	15108.4	14229.75
896.3036	1578.6672	15056.3	14177.6
896.4461	1580.4409	15022	14144.1
896.5886	1582.2138	15006.9	14125.75
896.7311	1583.986	15030.5	14151.35
896.8736	1585.7575	15086.4	14208.2
897.0161	1587.5282	15053.65	14176.15
897.1585	1589.2981	15085.15	14207
897.3009	1591.0673	15022.95	14145
897.4433	1592.8358	15016.3	14138.05
897.5857	1594.6035	14979.75	14098.9
897.7281	1596.3704	14896.6	14016.35
897.8705	1598.1366	14830.4	13950.55
898.0128	1599.9021	14779.35	13901.05
898.1551	1601.6668	14651.1	13772.2
898.2975	1603.4308	14592.25	13711.95
898.4398	1605.194	14554.2	13672
898.5821	1606.9564	14552	13674.45
898.7243	1608.7182	14556.8	13675.5
898.8666	1610.4791	14611.3	13733.75
899.0088	1612.2394	14683.3	13805.4
899.1511	1613.9988	14742.9	13862.35
899.2933	1615.7576	14821.15	13941.15
899.4355	1617.5156	14848.25	13964.2
899.5776	1619.2728	14818	13939.65
899.7198	1621.0293	14686.35	13809.35
899.862	1622.785	14533.05	13652.2
900.0041	1624.54	14327.65	13446.75
900.1462	1626.2942	14144.85	13264.5
900.2883	1628.0477	13968.6	13085.65
900.4304	1629.8005	13837.75	12950.25
900.5725	1631.5525	13727.4	12846.6
900.7145	1633.3037	13615.4	12735.65
900.8566	1635.0542	13554.4	12674.85
900.9986	1636.804	13453.4	12573
901.1406	1638.553	13453.95	12485.45
901.2826	1640.3013	13334.05	12456.55
901.4245	1642.0488	13265.35	12384.95
901.5665	1643.7955	13189.15	12313.15
901.7085	1645.5416	13127	12247.45
901.8504	1647.2868	13104.65	12223.5
901.9923	1649.0313	13031.25	12151.55
902.1342	1650.7751	13028.15	12144.95
902.2761	1652.5181	12983.15	12107
902.4179	1654.2604	12914.2	12034.55
902.5598	1656.0019	12900.45	12021.65
902.7016	1657.7427	12891.55	12011.75
902.8434	1659.4828	12876.6	11996.65
902.9852	1661.222	12862.05	11981.45
903.127	1662.9606	12846.15	11967.9
903.2687	1664.6984	12875	11995.25
903.4105	1666.4354	12902.05	12023.5
903.5522	1668.1717	12826.65	11947.8
903.6939	1669.9072	12719.55	11841.05
903.8356	1671.642	12659.8	11778.55
903.9773	1673.3761	12573.55	11693.8
904.119	1675.1094	12473.75	11594.55
904.2606	1676.8419	12400.3	11520.25
904.4022	1678.5737	12319.25	11440.8
904.5439	1680.3048	12291.7	11411.65
904.6855	1682.0351	12218.7	11340.65
904.827	1683.7646	12146.1	11262.35
904.9686	1685.4934	12110.45	11231.2
905.1101	1687.2215	12055.35	11174.1
905.2517	1688.9488	11986.85	11106.75
905.3932	1690.6754	11905.8	11027.3
905.5347	1692.4012	11910.85	11032
905.6761	1694.1263	11889.7	11011.6
905.8176	1695.8506	11839.85	10962.15
905.9591	1697.5742	11805.6	10926.7
906.1005	1699.297	11738.35	10858.25
906.2419	1701.0191	11670.05	10790.55
906.3833	1702.7404	11648.5	10769.35
906.5246	1704.461	11578.55	10697.75
906.666	1706.1808	11552.7	10671.6
906.8073	1707.8999	11525.35	10644.75
906.9487	1709.6182	11475.6	10594.8
907.09	1711.3358	11432.4	10553.05
907.2313	1713.0527	11384.65	10505.9
907.3725	1714.7688	11350.65	10465.4
907.5138	1716.4841	11300.55	10420.65
907.655	1718.1987	11323	10437.4
907.7962	1719.9126	11279.4	10403.1
907.9374	1721.6257	11239.3	10354.75
908.0786	1723.338	11225.55	10345.25
908.2198	1725.0496	11172.3	10288.35
908.3609	1726.7605	11162.35	10283
908.502	1728.4706	11140.35	10260.6
908.6431	1730.18	11048.9	10166.6
908.7842	1731.8886	11060.75	10182.2
908.9253	1733.5964	11081.2	10179.55
909.0664	1735.3036	11044.85	10162.6
909.2074	1737.0099	11021.25	10141.25
909.3484	1738.7156	10957.9	10080.1
909.4894	1740.4204	10935.85	10054.1
909.6304	1742.1246	10943.5	10062.65
909.7714	1743.8279	10916.55	10037.85
909.9123	1745.5306	10923.15	10043.85
910.0532	1747.2325	10901.3	10023.1
910.1941	1748.9336	10846.95	9966.4
910.335	1750.634	10826.5	9946.4
910.4759	1752.3336	10812.75	9934.6
910.6168	1754.0325	10775.4	9897.55
910.7576	1755.7307	10761.45	9881.35
910.8984	1757.4281	10744.95	9865.55
911.0392	1759.1247	10713.75	9826.2
911.18	1760.8206	10706.4	9823.95
911.3208	1762.5158	10709.2	9825.6
911.4615	1764.2102	10657.5	9780.4
911.6022	1765.9039	10627.25	9746.5
911.7429	1767.5968	10614.95	9734.1
911.8836	1769.289	10602.9	9723.15
912.0243	1770.9804	10550.3	9669
912.1649	1772.6711	10539.9	9661.35
912.3056	1774.361	10496.95	9616.75
912.4462	1776.0502	10499.95	9620.05
912.5868	1777.7386	10501.9	9617.95
912.7274	1779.4263	10462.85	9584.7
912.8679	1781.1132	10457.3	9578.25
913.0084	1782.7994	10392.1	9510.4
913.149	1784.4849	10380.5	9501
913.2895	1786.1696	10385.95	9489
913.4299	1787.8535	10346.8	9468.55
913.5704	1789.5367	10298.4	9419.8
913.7108	1791.2192	10298.3	9419.6
913.8513	1792.9009	10285.85	9386.85
913.9917	1794.5818	10248.05	9369.6
914.132	1796.2621	10223.45	9346.05
914.2724	1797.9415	10213.1	9333.3
914.4128	1799.6202	10177	9296.9
914.5531	1801.2982	10147.65	9268.5
914.6934	1802.9755	10139.55	9259.45
914.8337	1804.6519	10106.95	9227.7
914.9739	1806.3277	10054.95	9174.05
915.1142	1808.0027	10032.05	9154.1
915.2544	1809.6769	10008.3	9128.8
915.3946	1811.3504	10007.95	9125.5
915.5348	1813.0231	9979.3	9099.25
915.675	1814.6951	9963.75	9083.75
915.8151	1816.3664	9966.3	9084.45
915.9553	1818.0369	9919.45	9039.8
916.0954	1819.7067	9883.5	9004.9
916.2355	1821.3757	9879.35	8997.3
916.3755	1823.044	9878.2	8997.8
916.5156	1824.7115	9839.15	8959.55
916.6556	1826.3783	9813.3	8933.85
916.7956	1828.0443	9771.25	8892.55
916.9356	1829.7096	9761.85	8880.3
917.0756	1831.3741	9739.35	8854.7
917.2155	1833.0379	9723.1	8843.8
917.3555	1834.701	9680.3	8798.35
917.4954	1836.3633	9675.05	8794.75
917.6353	1838.0248	9663.35	8782.9
917.7751	1839.6856	9644.25	8763.45
917.915	1841.3457	9631.9	8752.5
918.0548	1843.005	9597.8	8719.25
918.1946	1844.6636	9594.3	8713.9
918.3344	1846.3214	9546.9	8666.65
918.4742	1847.9785	9525.55	8645.8
918.6139	1849.6349	9524.7	8643.75
918.7537	1851.2904	9483.8	8594.65
918.8934	1852.9453	9473.25	8593.5
919.0331	1854.5994	9452.15	8570.3
919.1727	1856.2528	9471.8	8586.7
919.3124	1857.9054	9401.3	8521.55
919.452	1859.5572	9418.5	8539.3
919.5916	1861.2083	9390.45	8508.5
919.7312	1862.8587	9384.7	8503.85
919.8708	1864.5084	9377.1	8496.55
920.0103	1866.1572	9345.9	8465.95
920.1498	1867.8054	9304.2	8423.4
920.2893	1869.4528	9301.55	8423.7
920.4288	1871.0994	9256.6	8377.35
920.5683	1872.7453	9247.05	8367.95
920.7077	1874.3905	9221.4	8333.9
920.8471	1876.0349	9194.7	8314.95
920.9865	1877.6786	9201.4	8320
921.1259	1879.3215	9175.6	8293.9
921.2653	1880.9637	9162.05	8279.5
921.4046	1882.6051	9123.9	8244.15
921.5439	1884.2458	9132.75	8251.55
921.6832	1885.8858	9098.1	8217.5
921.8225	1887.525	9080.75	8202.6
921.9617	1889.1634	9051.75	8173.25
922.101	1890.8011	9008.9	8128
922.2402	1892.4381	8993.1	8112.6
922.3794	1894.0743	8999.6	8119.85
922.5185	1895.7098	8969.85	8090.6
922.6577	1897.3446	8952.25	8071.95
922.7968	1898.9786	8935.45	8050.25
922.9359	1900.6118	8916.7	8038.7
923.075	1902.2443	8886.65	8003.6
923.214	1903.8761	8864.6	7985.55
923.3531	1905.5071	8826.15	7944.75
923.4921	1907.1374	8802.95	7921.85
923.6311	1908.7669	8791.5	7912.75
923.77	1910.3957	8774.15	7894.7
923.909	1912.0237	8727.35	7847.2
924.0479	1913.651	8727.6	7846.75
924.1868	1915.2776	8699	7821.05
924.3257	1916.9034	8708	7829.4
924.4646	1918.5285	8657.9	7776.6
924.6034	1920.1528	8614.35	7732.8
924.7422	1921.7764	8597.8	7717.05
924.881	1923.3992	8581.25	7703.25
925.0198	1925.0213	8517.25	7637.1
925.1586	1926.6427	8495.5	7617.25
925.2973	1928.2633	8620.05	7533.65
925.436	1929.8832	8471.6	7588.55
925.5747	1931.5023	8409.3	7528.65
925.7134	1933.1207	8391.8	7510.85
925.852	1934.7383	8400.2	7520.4
925.9906	1936.3552	8373.65	7494.3
926.1292	1937.9714	8360	7479.2
926.2678	1939.5868	8323.35	7441.2
926.4064	1941.2015	8272.55	7393.75
926.5449	1942.8154	8235.35	7355.2
926.6834	1944.4286	8218.75	7338.4
926.8219	1946.041	8218.55	7314.6
926.9604	1947.6528	8169.1	7284.15
927.0988	1949.2637	8144.75	7264.5
927.2372	1950.8739	8122.4	7242.65
927.3756	1952.4834	8118	7235.75
927.514	1954.0921	8111.85	7230.8
927.6523	1955.7001	8098.75	7212.65
927.7907	1957.3074	8055.4	7177.05
927.929	1958.9139	8041.15	7161.5
928.0673	1960.5197	8011.5	7129.7
928.2055	1962.1247	7966.5	7087.7
928.3438	1963.729	7938.75	7059.6
928.482	1965.3325	7937.65	7034.75
928.6202	1966.9353	7888.55	7010.75
928.7584	1968.5374	7890.15	7008.6
928.8965	1970.1387	7843.55	6963.65
929.0346	1971.7393	7832.2	6952.1
929.1727	1973.3392	7823.55	6945.25
929.3108	1974.9383	7790.7	6912.15
929.4489	1976.5366	7769.25	6889.45
929.5869	1978.1342	7762.15	6883.25
929.7249	1979.7311	7756.8	6875.85
929.8629	1981.3273	7716.45	6834.25
930.0009	1982.9227	7672.55	6791.45
930.1388	1984.5173	7681.05	6802.3
930.2767	1986.1112	7658.5	6779.5
930.4146	1987.7044	7629.55	6751.85
930.5525	1989.2968	7593.1	6711.9
930.6904	1990.8885	7588.75	6705.1
930.8282	1992.4795	7592.3	6710.15
930.966	1994.0697	7561.3	6681.55
931.1038	1995.6592	7540.8	6660.7
931.2415	1997.2479	7521.35	6640.9
931.3793	1998.8359	7497.75	6617.55
931.517	2000.4232	7472.4	6592.75
931.6547	2002.0097	7455.65	6576.95
931.7923	2003.5955	7441.7	6561.45
931.93	2005.1805	7435.6	6553.05
932.0676	2006.7648	7415.05	6537.35
932.2052	2008.3484	7393.9	6513.5
932.3427	2009.9312	7388.6	6506.35
932.4803	2011.5133	7367.3	6489.35
932.6178	2013.0946	7358.25	6481
932.7553	2014.6752	7336.2	6457.85
932.8928	2016.2551	7312	6432.3
933.0302	2017.8342	7278.5	6398.35
933.1676	2019.4126	7274.9	6397.75
933.305	2020.9902	7235.6	6355.75
933.4424	2022.5672	7234.75	6354.6
933.5798	2024.1433	7205.9	6322
933.7171	2025.7188	7212.9	6334.85
933.8544	2027.2935	7186.3	6306.75
933.9917	2028.8674	7174.6	6295.9
934.129	2030.4406	7134.2	6254.8
934.2662	2032.0131	7124.3	6246.65
934.4034	2033.5849	7094.8	6210.8
934.5406	2035.1559	7088.35	6208.8
934.6778	2036.7261	7084.75	6204.8
934.8149	2038.2957	7072.55	6193.1
934.952	2039.8645	7050.85	6173.45
935.0891	2041.4325	7059.95	6177.7
935.2262	2042.9998	7036.05	6156.4
935.3632	2044.5664	7037.75	6155.1
935.5002	2046.1323	6991.25	6112
935.6372	2047.6974	6967.05	6088.55
935.7742	2049.2617	6965.05	6086.4
935.9111	2050.8254	6966.5	6066.3
936.048	2052.3883	6944.55	6065.1
936.1849	2053.9504	6948.75	6068.25
936.3218	2055.5118	6912.6	6034.55
936.4586	2057.0725	6895.65	6011.3
936.5955	2058.6325	6886.25	6007.3
936.7323	2060.1917	6893.5	6012.6
936.869	2061.7502	6876.2	5994.65
937.0058	2063.3079	6834.45	5954.45
937.1425	2064.8649	6833.75	5951
937.2792	2066.4212	6816	5936.15
937.4159	2067.9767	6815.2	5936.3
937.5525	2069.5315	6777.1	5898.05
937.6891	2071.0856	6772.75	5895
937.8257	2072.6389	6749	5868.35
937.9623	2074.1915	6705.45	5828.85
938.0989	2075.7433	6699.8	5818.25
938.2354	2077.2945	6680.8	5801.9
938.3719	2078.8448	6676.65	5797.3
938.5084	2080.3945	6657.65	5777.95
938.6448	2081.9434	6640.5	5762.5
938.7812	2083.4916	6637.25	5758
938.9176	2085.039	6602.15	5720.35
939.054	2086.5857	6576.8	5696.15
939.1903	2088.1317	6591.1	5711.25
939.3267	2089.677	6584.55	5702.85
939.463	2091.2215	6564.7	5686.15
939.5992	2092.7652	6538.3	5658.55
939.7355	2094.3083	6547.1	5668.55
939.8717	2095.8506	6525.25	5646.8
940.0079	2097.3921	6522	5644.15
940.1441	2098.933	6527.85	5648.65
940.2802	2100.4731	6520.6	5641.1
940.4163	2102.0124	6504.9	5609.4
940.5524	2103.5511	6490.9	5611.85
940.6885	2105.089	6467.25	5586.7
940.8245	2106.6261	6453.2	5573.5
940.9606	2108.1626	6451	5572.45
941.0965	2109.6983	6469.3	5561.4
941.2325	2111.2332	6447.5	5567.55
941.3684	2112.7675	6400.05	5519.65
941.5044	2114.301	6403.4	5523.65
941.6403	2115.8337	6407.3	5527.65
941.7761	2117.3657	6377.05	5496.65
941.912	2118.897	6359	5480.45
942.0478	2120.4276	6369.85	5483.2
942.1835	2121.9575	6327.4	5448.95
942.3193	2123.4866	6324.55	5442.55
942.455	2125.0149	6323.15	5441.5
942.5907	2126.5426	6294.6	5414.8
942.7264	2128.0695	6276.65	5393.1
942.8621	2129.5956	6273.5	5395.55
942.9977	2131.1211	6268	5383.65
943.1333	2132.6458	6240.95	5363.6
943.2689	2134.1698	6231.05	5352.9
943.4044	2135.693	6221.7	5340.65
943.54	2137.2155	6218.2	5334.75
943.6755	2138.7373	6203.75	5324.25
943.8109	2140.2584	6174.75	5294.55
943.9464	2141.7787	6162.25	5277.9
944.0818	2143.2983	6138.35	5259.55
944.2172	2144.8171	6121.95	5245.05
944.3526	2146.3353	6115.65	5234.15
944.4879	2147.8527	6089.25	5208.65
944.6232	2149.3693	6084	5205
944.7585	2150.8853	6071.5	5191
944.8938	2152.4005	6045.7	5165.2
945.029	2153.9149	6030.25	5151.15
945.1642	2155.4287	6013.9	5135.3
945.2994	2156.9417	6001.2	5120.55
945.4346	2158.454	6004.05	5122.7
945.5697	2159.9655	5989.8	5111.2
945.7048	2161.4764	5966.4	5086.5
945.8399	2162.9865	5963.9	5084.9
945.9749	2164.4958	5938.75	5056.3
946.1099	2166.0045	5904.3	5021.75
946.2449	2167.5124	5932.2	5054.1
946.3799	2169.0195	5914.1	5037.35
946.5148	2170.526	5904.75	5024.2
946.6498	2172.0317	5885.75	5005.3
946.7846	2173.5367	5871.8	4991.7
946.9195	2175.0409	5874	4994.8
947.0543	2176.5445	5856.75	4979.5
947.1891	2178.0473	5830.45	4950.05
947.3239	2179.5494	5812.95	4932.05
947.4587	2181.0507	5785.35	4905.95
947.5934	2182.5513	5754.7	4874.6
947.7281	2184.0512	5777.2	4897.55
947.8628	2185.5504	5759.15	4880.45
947.9974	2187.0488	5740.55	4860.9
948.132	2188.5465	5725.05	4845.25
948.2666	2190.0435	5694.8	4814.9
948.4012	2191.5397	5688.5	4809.3
948.5357	2193.0353	5674.65	4797.45
948.6702	2194.5301	5647.45	4768.65
948.8047	2196.0241	5659.8	4780.65
948.9392	2197.5175	5603.1	4721.1
949.0736	2199.0101	5600.25	4718.2
949.208	2200.502	5596.2	4719.3
949.3424	2201.9931	5572.95	4693.6
949.4767	2203.4835	5555.55	4675.2
949.611	2204.9733	5553.65	4668.65
949.7453	2206.4622	5540.05	4661.15
949.8796	2207.9505	5516	4632.95
950.0138	2209.438	5487.9	4609.65
950.148	2210.9248	5476.6	4594.65
950.2822	2212.4109	5454.1	4576
950.4164	2213.8962	5450.45	4569.7
950.5505	2215.3809	5455.5	4574.4
950.6846	2216.8648	5435.05	4556
950.8186	2218.3479	5407.7	4523.05
950.9527	2219.8304	5404.9	4521.8
951.0867	2221.3121	5376.75	4497.7
951.2207	2222.7931	5346.95	4469.1
951.3546	2224.2733	5349.7	4470.7
951.4886	2225.7529	5326.35	4446.4
951.6225	2227.2317	5316.5	4433.35
951.7563	2228.7098	5299.05	4419.75
951.8902	2230.1872	5283.85	4404.2
952.024	2231.6638	5294.35	4414.75
952.1578	2233.1397	5277.75	4391.4
952.2916	2234.6149	5247.95	4370.05
952.4253	2236.0894	5250.3	4368.85
952.559	2237.5632	5217.35	4336.15
952.6927	2239.0362	5212.95	4333.65
952.8263	2240.5085	5194.9	4315.3
952.9599	2241.9801	5174.65	4295.05
953.0935	2243.4509	5155.35	4274.75
953.2271	2244.921	5151.15	4273.55
953.3606	2246.3904	5122.3	4242
953.4941	2247.8591	5112.3	4234
953.6276	2249.3271	5116.2	4235.7
953.7611	2250.7943	5095.5	4216.1
953.8945	2252.2608	5073.75	4193.55
954.0279	2253.7266	5059.7	4180
954.1612	2255.1917	5056.55	4176.2
954.2946	2256.656	5038.1	4157.9
954.4279	2258.1197	5020.15	4142.7
954.5612	2259.5826	5013.05	4132.9
954.6944	2261.0447	5008.95	4128.7
954.8276	2262.5062	4971.5	4090.85
954.9608	2263.9669	4976.25	4096.4
955.094	2265.4269	4979.1	4099.65
955.2271	2266.8862	4957.95	4079
955.3602	2268.3448	4955.75	4074.85
955.4933	2269.8026	4933.1	4054.25
955.6264	2271.2598	4935.1	4056.8
955.7594	2272.7162	4900	4021.45
955.8924	2274.1719	4897.1	4017.3
956.0253	2275.6268	4889.35	4007.7
956.1583	2277.0811	4884	4004
956.2912	2278.5346	4868.95	3989.7
956.4241	2279.9874	4856.65	3977.8
956.5569	2281.4395	4827.65	3949.8
956.6897	2282.8908	4824.9	3939.65
956.8225	2284.3414	4829.7	3947
956.9553	2285.7914	4811.8	3933.8
957.088	2287.2406	4787.1	3908.05
957.2207	2288.689	4800.3	3919.5
957.3534	2290.1368	4784.3	3904.45
957.486	2291.5838	4746.75	3866.85
957.6186	2293.0302	4746.65	3865.8
957.7512	2294.4758	4723.6	3844.55
957.8838	2295.9206	4729.7	3848.8
958.0163	2297.3648	4691.15	3812.4
958.1488	2298.8082	4719.6	3840.35
958.2813	2300.251	4694.75	3815.95
958.4137	2301.693	4657.2	3775.95
958.5461	2303.1343	4673.45	3793.8
958.6785	2304.5748	4651.8	3773.25
958.8108	2306.0147	4645.05	3763.8
958.9432	2307.4538	4622.5	3741.75
959.0754	2308.8922	4617.15	3739.35
959.2077	2310.3299	4620.05	3742.1
959.3399	2311.7669	4592.7	3713.7
959.4721	2313.2031	4583.1	3703.35
959.6043	2314.6387	4575.45	3697.1
959.7365	2316.0735	4546.65	3666.65
959.8686	2317.5076	4550.65	3671
960.0006	2318.941	4555.25	3676.85
960.1327	2320.3737	4532.85	3655.05
960.2647	2321.8056	4528.65	3646
960.3967	2323.2369	4499	3619.05
960.5287	2324.6674	4509.2	3626.75
960.6606	2326.0972	4469.05	3590.45
960.7925	2327.5263	4475.75	3596.45
960.9244	2328.9547	4450.6	3571.95
961.0562	2330.3823	4460.2	3581
961.1881	2331.8092	4451.75	3571.1
961.3198	2333.2355	4435.5	3556.75
961.4516	2334.661	4412.8	3534.45
961.5833	2336.0858	4426.55	3545.6
961.715	2337.5098	4388.05	3509.7
961.8467	2338.9332	4377.95	3498.15
961.9783	2340.3558	4356.2	3473.75
962.1099	2341.7778	4363.8	3484.05
962.2415	2343.199	4360.6	3480.1
962.373	2344.6195	4333.8	3457.15
962.5045	2346.0393	4330	3451.85
962.636	2347.4583	4330	3449.85
962.7675	2348.8767	4313	3429.85
962.8989	2350.2943	4298.4	3418.4
963.0303	2351.7113	4298.9	3419.1
963.1617	2353.1275	4274.35	3395.25
963.293	2354.543	4259.8	3372.45
963.4243	2355.9578	4270.2	3391.8
963.5556	2357.3718	4241.5	3361.3
963.6868	2358.7852	4217.7	3334.3
963.818	2360.1978	4221	3341.2
963.9492	2361.6098	4189.8	3309.6
964.0803	2363.021	4209.85	3328.45
964.2114	2364.4315	4185.9	3307.05
964.3425	2365.8413	4186.3	3299.1
964.4736	2367.2504	4164.6	3286.25
964.6046	2368.6587	4131.9	3251.1
964.7356	2370.0664	4119.8	3241.65
964.8666	2371.4733	4111.2	3230.5
964.9975	2372.8795	4096.1	3217.1
965.1284	2374.285	4084.85	3205.5
965.2593	2375.6899	4084.95	3205.7
965.3901	2377.0939	4061.4	3182
965.5209	2378.4973	4045.35	3166.7
965.6517	2379.9	4037.25	3156.6
965.7825	2381.3019	4027.6	3148.05
965.9132	2382.7032	4015.15	3136.3
966.0439	2384.1037	4013.4	3134.6
966.1745	2385.5035	3997.05	3117.75
966.3051	2386.9027	4001.65	3122.55
966.4357	2388.3011	4002.5	3120.25
966.5663	2389.6987	3975.65	3093.75
966.6968	2391.0957	3962.55	3082.6
966.8273	2392.492	3943.9	3067.7
966.9578	2393.8876	3918.55	3036.65
967.0882	2395.2824	3905.5	3025.4
967.2186	2396.6765	3898.35	3019.65
967.349	2398.07	3873.1	2993.5
967.4793	2399.4627	3883.2	3003.35
967.6097	2400.8547	3864.6	2986.15
967.7399	2402.246	3856.4	2969.9
967.8702	2403.6366	3842.95	2964.25
968.0004	2405.0265	3826.35	2946.6
968.1306	2406.4156	3805.05	2920
968.2607	2407.8041	3800.75	2916.8
968.3909	2409.1918	3786.05	2903.1
968.521	2410.5789	3773.65	2894.7
968.651	2411.9652	3758.45	2876
968.781	2413.3508	3752.7	2872.4
968.911	2414.7358	3746.5	2865.4
969.041	2416.12	3723.4	2842.95
969.1709	2417.5035	3724.05	2844.3
969.3008	2418.8863	3714.5	2833.85
969.4307	2420.2684	3696.9	2817.55
969.5606	2421.6497	3686.05	2806.35
969.6904	2423.0304	3676.9	2798.1
969.8201	2424.4104	3671.95	2790.3
969.9499	2425.7896	3658.05	2776.7
970.0796	2427.1682	3649.35	2769.95
970.2093	2428.546	3638	2755.35
970.3389	2429.9232	3625.05	2744.2
970.4685	2431.2996	3623.4	2743.1
970.5981	2432.6753	3600.95	2720.6
970.7277	2434.0503	3600.35	2719.2
970.8572	2435.4246	3586.4	2706.4
970.9867	2436.7982	3589.35	2706.9
971.1161	2438.1711	3580.65	2702
971.2456	2439.5433	3568	2685.05
971.375	2440.9148	3559.1	2676.8
971.5043	2442.2856	3536.3	2658.2
971.6336	2443.6557	3541.35	2657.75
971.7629	2445.025	3529.85	2650.65
971.8922	2446.3937	3524.2	2643.2
972.0214	2447.7617	3496.8	2614.05
972.1506	2449.1289	3495.05	2614.5
972.2798	2450.4955	3484.5	2601.65
972.4089	2451.8613	3481.55	2603.5
972.538	2453.2265	3468.1	2588.35
972.6671	2454.5909	3463.45	2584.25
972.7961	2455.9546	3462.45	2583.6
972.9251	2457.3177	3454.9	2574.75
973.0541	2458.68	3443.85	2562.95
973.1831	2460.0416	3432.3	2552.4
973.312	2461.4025	3431.25	2551.1
973.4408	2462.7627	3435.25	2544.3
973.5697	2464.1222	3423.75	2544.7
973.6985	2465.4811	3410.05	2527.85
973.8273	2466.8392	3391.05	2512.15
973.956	2468.1966	3386.3	2503.55
974.0847	2469.5533	3394.4	2513.55
974.2134	2470.9093	3369.8	2488.1
974.3421	2472.2645	3372.6	2488.85
974.4707	2473.6191	3353.85	2474.2
974.5993	2474.973	3347.4	2466.05
974.7278	2476.3262	3326.1	2444.1
974.8563	2477.6787	3315.9	2436
974.9848	2479.0305	3309.4	2432.05
975.1132	2480.3816	3309.2	2428.65
975.2417	2481.7319	3303.25	2423.6
975.37	2483.0816	3282.6	2399.3
975.4984	2484.4306	3288.25	2406.75
975.6267	2485.7789	3275.15	2396.9
975.755	2487.1264	3249.1	2367.25
975.8833	2488.4733	3256.2	2376.35
976.0115	2489.8195	3234.45	2347.8
976.1397	2491.165	3227.5	2345.65
976.2678	2492.5097	3231.2	2350.8
976.3959	2493.8538	3208.4	2328.95
976.524	2495.1972	3190.6	2308.3
976.6521	2496.5398	3203.35	2320.75
976.7801	2497.8818	3196.6	2314.2
976.9081	2499.2231	3178.2	2297.25
977.036	2500.5637	3164.9	2284.65
977.164	2501.9035	3160.7	2278.9
977.2918	2503.2427	3152.35	2266.95
977.4197	2504.5812	3143.2	2264.55
977.5475	2505.919	3131.15	2250.75
977.6753	2507.256	3144.35	2263.5
977.8031	2508.5924	3134.8	2254.15
977.9308	2509.9281	3115.45	2229.45
978.0585	2511.2631	3101.4	2223.05
978.1861	2512.5974	3096.15	2217.15
978.3137	2513.9309	3082.55	2202.4
978.4413	2515.2638	3111.25	2204.6
978.5689	2516.596	3078.9	2200.7
978.6964	2517.9275	3065.25	2184
978.8239	2519.2583	3050.75	2168.1
978.9513	2520.5884	3045.25	2162.65
979.0788	2521.9178	3046.4	2165.4
979.2062	2523.2465	3034.9	2155.95
979.3335	2524.5745	3012.15	2132.35
979.4608	2525.9018	3006.9	2128
979.5881	2527.2284	3005.2	2126.8
979.7154	2528.5543	3000.75	2122.25
979.8426	2529.8796	2996.45	2115.2
979.9698	2531.2041	2994.7	2113.8
980.0969	2532.5279	2976.35	2096.7
980.224	2533.851	2976.1	2094.65
980.3511	2535.1735	2967.6	2086.35
980.4781	2536.4952	2955.45	2075.9
980.6052	2537.8163	2964	2085.6
980.7321	2539.1366	2938.05	2060.45
980.8591	2540.4562	2939.4	2057.55
980.986	2541.7752	2935.95	2058.2
981.1129	2543.0935	2935.9	2056.95
981.2397	2544.411	2934.25	2053.4
981.3665	2545.7279	2916.9	2036.55
981.4933	2547.0441	2906.85	2026.05
981.62	2548.3596	2918	2034.45
981.7467	2549.6744	2907.05	2027.2
981.8734	2550.9885	2896.15	2007.55
982.0001	2552.3019	2884.2	2004.65
982.1267	2553.6146	2877.8	1997.05
982.2532	2554.9266	2873.55	1994.65
982.3798	2556.2379	2865.1	1983.1
982.5063	2557.5485	2864.05	1986.3
982.6327	2558.8585	2860.1	1971.9
982.7592	2560.1677	2845.7	1961.8
982.8856	2561.4762	2852.7	1973.35
983.0119	2562.7841	2848.2	1963.05
983.1383	2564.0913	2833.5	1956.4
983.2646	2565.3977	2834.05	1952.95
983.3908	2566.7035	2835.85	1955.65
983.517	2568.0086	2813.35	1932.3
983.6432	2569.313	2826.35	1946.1
983.7694	2570.6167	2820.6	1939.15
983.8955	2571.9197	2806.4	1928.1
984.0216	2573.222	2810.2	1928.1
984.1476	2574.5236	2798.75	1916.95
984.2737	2575.8246	2794.1	1911.8
984.3996	2577.1248	2768.75	1884.65
984.5256	2578.4244	2780.9	1899.9
984.6515	2579.7232	2780.55	1900.2
984.7774	2581.0214	2799.4	1895.9
984.9032	2582.3189	2771.6	1893.05
985.029	2583.6157	2757.35	1873.1
985.1548	2584.9118	2762.3	1883.35
985.2806	2586.2072	2746	1866.7
985.4063	2587.5019	2745.2	1865.9
985.5319	2588.7959	2726.9	1846.15
985.6576	2590.0893	2751.75	1870.5
985.7832	2591.3819	2720.7	1840.9
985.9087	2592.6739	2708.55	1828.75
986.0343	2593.9652	2727.6	1846.35
986.1597	2595.2557	2708.6	1830.9
986.2852	2596.5456	2690.6	1808.05
986.4106	2597.8348	2691.95	1812.4
986.536	2599.1234	2680.8	1801.95
986.6614	2600.4112	2675.4	1794.55
986.7867	2601.6983	2665.65	1781.85
986.912	2602.9848	2670.2	1791.25
987.0372	2604.2705	2655.75	1767.9
987.1624	2605.5556	2659.65	1779.25
987.2876	2606.84	2639.15	1760.9
987.4128	2608.1237	2621.8	1740.3
987.5379	2609.4067	2626.9	1747.75
987.6629	2610.689	2633.45	1746.25
987.788	2611.9707	2617.5	1734.15
987.913	2613.2516	2605.95	1720.9
988.0379	2614.5319	2586.25	1707.85
988.1629	2615.8115	2586.75	1705.8
988.2878	2617.0903	2586.2	1704.65
988.4126	2618.3685	2574.85	1694.15
988.5375	2619.6461	2572.2	1692.9
988.6622	2620.9229	2558	1678.2
988.787	2622.199	2553.85	1674.6
988.9117	2623.4745	2538.9	1659.7
989.0364	2624.7493	2530.75	1651.9
989.161	2626.0234	2526.25	1647.25
989.2857	2627.2968	2536.7	1657.6
989.4102	2628.5695	2514.3	1632.25
989.5348	2629.8415	2506.2	1626
989.6593	2631.1128	2512.5	1631.1
989.7837	2632.3835	2503.95	1622.95
989.9082	2633.6535	2486	1607.05
990.0326	2634.9228	2484.75	1607.1
990.1569	2636.1914	2472.2	1594.25
990.2812	2637.4593	2486	1598.95
990.4055	2638.7265	2464.95	1584.35
990.5298	2639.9931	2451.95	1573.5
990.654	2641.259	2447.9	1565
990.7782	2642.5242	2439.25	1558.9
990.9023	2643.7887	2430.8	1551
991.0264	2645.0525	2428.4	1549.55
991.1505	2646.3156	2415	1533.7
991.2745	2647.5781	2427.7	1545.8
991.3985	2648.8398	2410.7	1533.25
991.5225	2650.1009	2413.55	1525.9
991.6464	2651.3613	2409.85	1531.3
991.7703	2652.6211	2399.3	1519.25
991.8942	2653.8801	2396	1516.35
992.018	2655.1385	2387.7	1504.55
992.1418	2656.3961	2382.2	1502.9
992.2655	2657.6531	2381.65	1500.25
992.3892	2658.9094	2379	1498.6
992.5129	2660.1651	2367.6	1487.25
992.6366	2661.42	2371	1490.6
992.7602	2662.6743	2366.1	1484.55
992.8837	2663.9279	2354.95	1474.8
993.0073	2665.1808	2351.65	1472.4
993.1307	2666.433	2342.95	1461.35
993.2542	2667.6846	2340	1462.7
993.3776	2668.9354	2336.2	1454.15
993.501	2670.1856	2341.45	1460.6
993.6244	2671.4351	2319.9	1440.4
993.7477	2672.6839	2332.95	1451.45
993.8709	2673.9321	2311.25	1430.25
993.9942	2675.1795	2311.05	1430.35
994.1174	2676.4263	2302.1	1423.1
994.2405	2677.6724	2293.75	1414.3
994.3637	2678.9179	2286.3	1407.65
994.4868	2680.1626	2283.05	1405.35
994.6098	2681.4067	2286.95	1407.15
994.7328	2682.6501	2286.65	1407.55
994.8558	2683.8928	2276.5	1395.55
994.9788	2685.1348	2269.15	1391.15
995.1017	2686.3761	2272.5	1393.1
995.2245	2687.6168	2259.7	1381.4
995.3474	2688.8568	2235.05	1352.9
995.4702	2690.0961	2252	1373.15
995.5929	2691.3348	2240.55	1360.4
995.7156	2692.5727	2232.25	1352.65
995.8383	2693.81	2231.55	1351.55
995.961	2695.0466	2218.5	1338.6
996.0836	2696.2826	2219.65	1338.65
996.2062	2697.5178	2211.85	1327.6
996.3287	2698.7524	2222.05	1343.2
996.4512	2699.9863	2212.35	1331.9
996.5737	2701.2195	2206.35	1329.85
996.6961	2702.452	2210.85	1328.7
996.8185	2703.6839	2198.1	1317.9
996.9408	2704.9151	2189.4	1310.65
997.0631	2706.1456	2177.1	1296.45
997.1854	2707.3755	2180	1298.35
997.3077	2708.6046	2171.3	1289.7
997.4299	2709.8331	2173.1	1292.45
997.552	2711.0609	2158.15	1280.3
997.6742	2712.2881	2157.9	1278.35
997.7963	2713.5145	2151.15	1269.7
997.9183	2714.7403	2142.2	1262.1
998.0403	2715.9654	2145.2	1265.35
998.1623	2717.1899	2155.2	1262.65
998.2842	2718.4136	2135.1	1255.75
998.4062	2719.6367	2120	1237.8
998.528	2720.8591	2124.9	1238.85
998.6498	2722.0809	2120.05	1238.3
998.7716	2723.3019	2121.9	1239.1
998.8934	2724.5223	2111.15	1231.15
999.0151	2725.7421	2113.9	1232.2
999.1368	2726.9611	2108.25	1227
999.2584	2728.1795	2093.9	1210.1
999.38	2729.3972	2085.65	1206
999.5016	2730.6142	2083.6	1190.65
999.6231	2731.8306	2070.05	1188.85
999.7446	2733.0462	2069.25	1187.5
999.8661	2734.2612	2066.15	1182.2
999.9875	2735.4756	2059.9	1180.6
1000.1089	2736.6892	2051.25	1171.65
1000.2302	2737.9022	2039.05	1161.7
1000.3515	2739.1145	2037.75	1157.55
1000.4728	2740.3262	2048.1	1162.3
1000.594	2741.5372	2031	1150.95
1000.7152	2742.7475	2017.95	1137.55
1000.8363	2743.9571	2018.35	1138
1000.9575	2745.1661	2014.4	1130.6
1001.0785	2746.3744	2005.4	1126.25
1001.1996	2747.582	2006.9	1126.9
1001.3206	2748.7889	1997.4	1114.3
1001.4415	2749.9952	1999.55	1120.6
1001.5625	2751.2008	1995.1	1113.65
1001.6833	2752.4057	1990.65	1110.3
1001.8042	2753.61	1975.2	1093.75
1001.925	2754.8136	1971.1	1092
1002.0458	2756.0165	1973.85	1094.45
1002.1665	2757.2188	1970	1091.4
1002.2872	2758.4204	1966.8	1088.1
1002.4078	2759.6213	1955.85	1072.5
1002.5285	2760.8215	1963.95	1078.75
1002.649	2762.0211	1957.4	1076.5
1002.7696	2763.22	1949.35	1069.15
1002.8901	2764.4182	1934	1054.6
1003.0106	2765.6158	1938.7	1057.6
1003.131	2766.8127	1929.7	1047.7
1003.2514	2768.009	1931.35	1050.85
1003.3717	2769.2045	1925.55	1045.3
1003.492	2770.3994	1920.25	1038.6
1003.6123	2771.5936	1918.6	1037.6
1003.7325	2772.7872	1909.6	1030.1
1003.8527	2773.9801	1906.45	1024.6
1003.9729	2775.1723	1922.85	1027.15
1004.093	2776.3639	1903.05	1024.8
1004.2131	2777.5548	1893.5	1010.75
1004.3331	2778.745	1887.4	1005.1
1004.4531	2779.9346	1885.4	1005.9
1004.5731	2781.1235	1884.35	1003.4
1004.693	2782.3117	1873.85	993.65
1004.8129	2783.4992	1862.65	985.05
1004.9328	2784.6861	1868.25	988.95
1005.0526	2785.8723	1864.6	981.8
1005.1723	2787.0579	1864.15	985.15
1005.2921	2788.2428	1864.15	984.9
1005.4118	2789.427	1846.1	967.55
1005.5314	2790.6106	1844.45	965.2
1005.651	2791.7935	1848.25	965.65
1005.7706	2792.9757	1835.6	958.6
1005.8902	2794.1573	1825.75	943.65
1006.0097	2795.3382	1831.65	952
1006.1291	2796.5184	1826.9	948.2
1006.2485	2797.698	1828.5	946.4
1006.3679	2798.8769	1822.5	942.05
1006.4873	2800.0551	1822.5	941.95
1006.6066	2801.2327	1812.15	928.2
1006.7258	2802.4096	1808.1	929.65
1006.8451	2803.5859	1800.15	918.75
1006.9642	2804.7615	1799.35	918.2
1007.0834	2805.9364	1786.65	906.6
1007.2025	2807.1106	1791.7	912.3
1007.3216	2808.2842	1794.9	913.05
1007.4406	2809.4572	1785.15	904.3
1007.5596	2810.6294	1779.4	897.55
1007.6785	2811.801	1779.75	901.7
1007.7975	2812.972	1783.1	905.55
1007.9163	2814.1423	1777.5	899.7
1008.0352	2815.3119	1775.4	895.15
1008.154	2816.4808	1775.1	897.2
1008.2727	2817.6491	1789.45	907.45
1008.3914	2818.8167	1781.1	903.15
1008.5101	2819.9837	1794.5	911.1
1008.6288	2821.15	1794.1	914.35
1008.7474	2822.3157	1788.45	911.25
1008.8659	2823.4807	1807.35	926.95
1008.9844	2824.645	1816	933.5
1009.1029	2825.8086	1816.15	937.05
1009.2214	2826.9716	1817.65	938.25
1009.3398	2828.134	1827.15	947.1
1009.4581	2829.2957	1842.5	962.05
1009.5764	2830.4567	1835.75	958.6
1009.6947	2831.617	1840.45	962
1009.813	2832.7767	1838.75	959.25
1009.9312	2833.9358	1833.45	954.6
1010.0493	2835.0941	1836.2	953.45
1010.1675	2836.2519	1826.55	947.15
1010.2855	2837.4089	1831.25	948.5
1010.4036	2838.5653	1814.6	935.1
1010.5216	2839.7211	1819.85	940.4
1010.6396	2840.8761	1798.55	916.45
1010.7575	2842.0306	1796.75	918.1
1010.8754	2843.1843	1797.1	917.85
1010.9932	2844.3374	1787.8	908.95
1011.111	2845.4899	1800.65	920.3
1011.2288	2846.6417	1804.75	925
1011.3465	2847.7928	1788.05	910.65
1011.4642	2848.9433	1798.1	920.35
1011.5818	2850.0931	1792.45	913.35
1011.6995	2851.2422	1798.55	917.3
1011.817	2852.3907	1788.35	909.5
1011.9345	2853.5385	1795.85	916.05
1012.052	2854.6857	1801.95	912.2
1012.1695	2855.8323	1785.15	908.05
1012.2869	2856.9781	1789.85	912.15
1012.4042	2858.1233	1783.4	905.25
1012.5216	2859.2679	1795.3	917.35
1012.6389	2860.4118	1788.15	908.25
1012.7561	2861.555	1800.55	913.85
1012.8733	2862.6976	1803.35	923.6
1012.9905	2863.8395	1790.6	913.35
1013.1076	2864.9808	1796.65	918.3
1013.2247	2866.1214	1790	913.05
1013.3417	2867.2614	1794.35	915.3
1013.4587	2868.4007	1789.6	907.8
1013.5757	2869.5393	1789	907.85
1013.6926	2870.6773	1785.75	902.75
1013.8095	2871.8146	1792.75	909.05
1013.9263	2872.9513	1797.95	915.65
1014.0431	2874.0874	1786.3	907.35
1014.1599	2875.2227	1783.75	904.4
1014.2766	2876.3574	1780.1	901.65
1014.3933	2877.4915	1784.45	906.65
1014.51	2878.6249	1778.35	899.3
1014.6266	2879.7577	1777.7	898.65
1014.7431	2880.8898	1786.3	897.6
1014.8596	2882.0212	1775.8	897.5
1014.9761	2883.152	1777.3	897.25
1015.0925	2884.2821	1779.45	900.75
1015.2089	2885.4116	1771.6	892.75
1015.3253	2886.5405	1770.1	890.65
1015.4416	2887.6686	1775.05	892
1015.5579	2888.7962	1776.9	899.95
1015.6741	2889.923	1764.6	886.3
1015.7903	2891.0493	1764.7	884.5
1015.9065	2892.1748	1765.05	887.8
1016.0226	2893.2997	1764.4	883.95
1016.1387	2894.424	1757.65	880.4
1016.2547	2895.5476	1764.4	885.45
1016.3707	2896.6706	1747.5	870.05
1016.4866	2897.7929	1746.2	866.7
1016.6025	2898.9145	1746.3	866.2
1016.7184	2900.0355	1744.8	865.75
1016.8342	2901.1559	1742	862.3
1016.95	2902.2756	1740.65	860.5
1017.0658	2903.3946	1727.85	849.65
1017.1815	2904.513	1731.5	849.9
1017.2971	2905.6308	1723.1	844.35
1017.4127	2906.7479	1725.15	844.35
1017.5283	2907.8643	1726.45	845
1017.6439	2908.9801	1722.9	844
1017.7594	2910.0953	1715.75	837.75
1017.8748	2911.2098	1710.15	825.65
1017.9902	2912.3236	1717.4	830.95
1018.1056	2913.4368	1716	833.45
1018.2209	2914.5494	1707	827
1018.3362	2915.6613	1712.05	826.65
1018.4515	2916.7725	1702.05	819.85
1018.5667	2917.8831	1690.4	808.9
1018.6819	2918.9931	1680.45	797.35
1018.797	2920.1024	1673.1	793.9
1018.9121	2921.211	1669.15	790.35
1019.0271	2922.319	1662.4	783.1
1019.1421	2923.4264	1659.85	783.4
1019.2571	2924.5331	1653	773.85
1019.372	2925.6391	1650.8	771.85
1019.4869	2926.7445	1648.65	770.05
1019.6017	2927.8493	1653.45	773.75
1019.7165	2928.9534	1648.85	771.25
1019.8313	2930.0569	1646.5	763.3
1019.946	2931.1597	1650.25	769.4
1020.0606	2932.2619	1644.85	764.55
1020.1753	2933.3634	1643.9	762.95
1020.2899	2934.4643	1656.35	768.15
1020.4044	2935.5645	1651.3	766.25
1020.5189	2936.6641	1658.7	774.25
1020.6334	2937.763	1646.4	766.2
1020.7478	2938.8613	1639.2	759.5
1020.8622	2939.959	1638.25	754.4
1020.9765	2941.056	1630.45	750.95
1021.0908	2942.1523	1622.5	741.6
1021.2051	2943.248	1608.8	728.6
1021.3193	2944.3431	1591.1	711.7
1021.4334	2945.4375	1576.55	696.75
1021.5476	2946.5313	1570.8	692.5
1021.6617	2947.6244	1557.3	676.05
1021.7757	2948.7169	1547.3	667.75
1021.8897	2949.8087	1529.9	650.6
1022.0037	2950.8999	1523.95	642
1022.1176	2951.9904	1517.95	639.4
1022.2315	2953.0803	1504.2	622.65
1022.3453	2954.1696	1493.15	615.05
1022.4591	2955.2582	1499.05	621.25
1022.5728	2956.3462	1479.4	601.5
1022.6865	2957.4335	1479.3	598
1022.8002	2958.5202	1480.2	599.85
1022.9138	2959.6062	1474.95	595.9
1023.0274	2960.6916	1470.8	591.25
1023.141	2961.7764	1469.8	588.6
1023.2545	2962.8605	1471.2	590.5
1023.3679	2963.9439	1461.65	580.9
1023.4813	2965.0267	1457.8	577.9
1023.5947	2966.1089	1474.85	572.15
1023.708	2967.1905	1455.45	578.45
1023.8213	2968.2714	1457.1	578.15
1023.9346	2969.3516	1444.55	565.8
1024.0478	2970.4312	1454.4	566.45
1024.1609	2971.5102	1444	564.3
1024.274	2972.5885	1438.85	560.65
1024.3871	2973.6662	1442.75	559
1024.5002	2974.7432	1431.65	551.45
1024.6132	2975.8196	1430.65	550.6
1024.7261	2976.8954	1428.05	549.05
1024.839	2977.9705	1434.45	555.95
1024.9519	2979.045	1428.5	548.15
1025.0647	2980.1188	1432.4	554.4
1025.1775	2981.192	1425.45	548
1025.2902	2982.2645	1422.4	541.95
1025.4029	2983.3364	1410.6	532.4
1025.5156	2984.4077	1410.4	531.9
1025.6282	2985.4783	1413.75	528.3
1025.7407	2986.5483	1401.8	524.2
1025.8532	2987.6177	1397.95	517.95
1025.9657	2988.6864	1389.35	509.5
1026.0782	2989.7545	1395.45	513.5
1026.1906	2990.8219	1380.8	500.7
1026.3029	2991.8887	1374.55	495.2
1026.4152	2992.9548	1372.2	493.15
1026.5275	2994.0204	1371.35	493.3
1026.6397	2995.0852	1362.85	485.75
1026.7519	2996.1495	1357.9	477.95
1026.864	2997.2131	1345.65	468.55
1026.9761	2998.276	1349.35	467.4
1027.0882	2999.3383	1339.85	460.45
1027.2002	3000.4	1342.85	461.85
1027.3122	3001.4611	1329.5	449.05
1027.4241	3002.5215	1335.7	455.35
1027.536	3003.5812	1323.15	443.9
1027.6478	3004.6404	1318.5	439.1
1027.7596	3005.6989	1323.85	442.1
1027.8714	3006.7567	1320.8	440.3
1027.9831	3007.8139	1334.25	431
1028.0947	3008.8705	1315.4	436.05
1028.2064	3009.9264	1307.6	427.1
1028.3179	3010.9818	1307.05	427.15
1028.4295	3012.0364	1302.55	421.65
1028.541	3013.0905	1304.6	426.5
1028.6524	3014.1439	1299.05	418.5
1028.7638	3015.1966	1298.65	420
1028.8752	3016.2487	1297	417.75
1028.9865	3017.3002	1298.8	413.3
1029.0978	3018.3511	1287.65	409.95
1029.209	3019.4013	1287.15	407.45
1029.3202	3020.4509	1294.8	416.85
1029.4314	3021.4998	1287.35	408.95
1029.5425	3022.5481	1287.15	407.25
1029.6535	3023.5958	1282.45	402.9
1029.7645	3024.6428	1283.25	402.5
1029.8755	3025.6892	1284.6	407.25
1029.9864	3026.735	1280.5	400.2
1030.0973	3027.7802	1278.5	398.65
1030.2082	3028.8247	1275.8	395.3
1030.319	3029.8685	1268.5	388.95
1030.4297	3030.9118	1270.5	390.9
1030.5404	3031.9544	1268.75	390.7
1030.6511	3032.9963	1267.15	386.8
1030.7617	3034.0376	1261.05	383.3
1030.8723	3035.0783	1266.85	384.2
1030.9829	3036.1184	1266.3	387
1031.0934	3037.1578	1263.2	386.1
1031.2038	3038.1966	1260.5	379.1
1031.3142	3039.2348	1260.65	382.8
1031.4246	3040.2723	1262.1	375.95
1031.5349	3041.3092	1253.05	375.9
1031.6452	3042.3455	1247.55	368.05
1031.7554	3043.3811	1251.8	372.65
1031.8656	3044.4161	1249.4	370.7
1031.9758	3045.4505	1250.15	371.9
1032.0859	3046.4842	1249.45	369.85
1032.1959	3047.5173	1240.75	363.7
1032.3059	3048.5498	1248.45	368.8
1032.4159	3049.5816	1248.5	368.85
1032.5258	3050.6128	1240.8	362.45
1032.6357	3051.6434	1234.6	353.75
1032.7455	3052.6734	1244.4	363.55
1032.8553	3053.7027	1236.6	357.5
1032.9651	3054.7314	1241.35	363.05
1033.0748	3055.7594	1234.2	355.5
1033.1845	3056.7868	1237.8	358.15
1033.2941	3057.8136	1235.15	356.15
1033.4037	3058.8398	1227.55	347.05
1033.5132	3059.8653	1235.45	357.2
1033.6227	3060.8902	1230.2	351.8
1033.7321	3061.9145	1229.25	348.95
1033.8415	3062.9381	1219.35	341.35
1033.9509	3063.9612	1246.45	351.65
1034.0602	3064.9835	1229.7	352.4
1034.1694	3066.0053	1228.2	346.65
1034.2787	3067.0264	1226.4	347.85
1034.3878	3068.0469	1226.4	344.8
1034.497	3069.0668	1222.9	340.45
1034.6061	3070.086	1224.5	345.7
1034.7151	3071.1046	1218.95	340.85
1034.8241	3072.1226	1214.05	333.25
1034.9331	3073.1399	1216.3	338
1035.042	3074.1567	1212.85	332.6
1035.1508	3075.1727	1212.95	331.45
1035.2597	3076.1882	1207.25	328.1
1035.3684	3077.203	1211.65	331.3
1035.4772	3078.2173	1206.9	326.15
1035.5859	3079.2308	1205.8	323.05
1035.6945	3080.2438	1198.35	318.95
1035.8031	3081.2561	1205.9	326.3
1035.9117	3082.2678	1194.2	315.4
1036.0202	3083.2789	1195.55	316.2
1036.1286	3084.2893	1195.2	314.45
1036.2371	3085.2991	1190.25	311.7
1036.3454	3086.3083	1194.35	312.45
1036.4538	3087.3169	1186.8	307.75
1036.562	3088.3248	1190.85	310.2
1036.6703	3089.3321	1187.05	306.9
1036.7785	3090.3388	1180.75	301.85
1036.8866	3091.3449	1178.55	299.85
1036.9948	3092.3503	1180.25	297.15
1037.1028	3093.3551	1171.55	291.95
1037.2108	3094.3593	1174.15	296.55
1037.3188	3095.3629	1175.9	297.55
1037.4267	3096.3658	1175.5	295.95
1037.5346	3097.3681	1172.7	294.6
1037.6425	3098.3698	1174.25	292.95
1037.7503	3099.3708	1172	284.95
1037.858	3100.3713	1165.5	286.65
1037.9657	3101.3711	1165.9	287.5
1038.0734	3102.3702	1297.15	279.65
1038.181	3103.3688	1161.45	280.4
1038.2886	3104.3667	1163.55	286.45
1038.3961	3105.364	1158.8	280.75
1038.5036	3106.3607	1162.9	281.85
1038.611	3107.3568	1151.25	270.5
1038.7184	3108.3522	1152.85	276.5
1038.8257	3109.347	1158.95	280.55
1038.933	3110.3412	1152.25	267.05
1039.0403	3111.3348	1148.5	269.8
1039.1475	3112.3277	1142.7	265.05
1039.2547	3113.32	1140.15	262
1039.3618	3114.3117	1142	262.25
1039.4689	3115.3028	1134.9	253.75
1039.5759	3116.2932	1146.05	266.85
1039.6829	3117.2831	1139.5	254.55
1039.7898	3118.2723	1139.9	261.95
1039.8967	3119.2608	1140.05	261.85
1040.0035	3120.2488	1138.65	258.3
1040.1103	3121.2361	1138.1	257.8
1040.2171	3122.2229	1129.7	249.55
1040.3238	3123.209	1132.3	252.75
1040.4305	3124.1944	1128.8	252.05
1040.5371	3125.1793	1130.3	247.8
1040.6437	3126.1635	1128.5	249.65
1040.7502	3127.1471	1127.65	248.35
1040.8567	3128.1301	1120.9	241.45
1040.9631	3129.1125	1118.2	240
1041.0695	3130.0942	1121.45	242.65
1041.1759	3131.0753	1129.7	240.85
1041.2822	3132.0558	1127.8	246.9
1041.3884	3133.0357	1123.1	242.75
1041.4946	3134.015	1116	234.8
1041.6008	3134.9936	1110.7	230.7
1041.7069	3135.9716	1140	238.2
1041.813	3136.949	1114.25	236.15
1041.919	3137.9258	1119.1	232
1042.025	3138.902	1112.75	228.6
1042.1309	3139.8775	1113.2	233.6
1042.2368	3140.8524	1113.25	234.95
1042.3427	3141.8267	1110.25	230.05
1042.4485	3142.8004	1107.75	228.65
1042.5542	3143.7735	1112.85	229.45
1042.6599	3144.7459	1110.75	230.05
1042.7656	3145.7178	1107.35	229.55
1042.8712	3146.689	1100.65	222.8
1042.9768	3147.6596	1097.45	216.5
1043.0823	3148.6295	1102.8	222.7
1043.1878	3149.5989	1102.2	224.2
1043.2932	3150.5676	1099.65	221.3
1043.3986	3151.5357	1098.6	221.95
1043.5039	3152.5032	1091.3	212.35
1043.6092	3153.4701	1097.1	218.25
1043.7145	3154.4364	1091.95	208.85
1043.8197	3155.402	1092.2	215.15
1043.9248	3156.367	1092.8	213.65
1044.03	3157.3315	1123.65	206.55
1044.135	3158.2952	1091.9	212.9
1044.24	3159.2584	1085.1	207.35
1044.345	3160.221	1085.35	206.2
1044.4499	3161.1829	1087.55	208
1044.5548	3162.1442	1079.7	200.8
1044.6596	3163.105	1085.95	206.15
1044.7644	3164.065	1078.15	200
1044.8692	3165.0245	1082.8	200.4
1044.9739	3165.9834	1081.55	203.8
1045.0785	3166.9416	1079.15	201.8
1045.1831	3167.8993	1076.95	198.6
1045.2877	3168.8563	1077.85	198.9
1045.3922	3169.8127	1072.7	194.05
1045.4966	3170.7684	1074.65	195.95
1045.6011	3171.7236	1073.95	194.8
1045.7054	3172.6782	1072.35	192.9
1045.8098	3173.6321	1072.05	193.45
1045.914	3174.5854	1072.7	187.9
1046.0183	3175.5381	1064.55	184.55
1046.1224	3176.4902	1065.95	189.35
1046.2266	3177.4417	1066.75	188.7
1046.3307	3178.3926	1062.95	184.7
1046.4347	3179.3428	1064.6	184.4
1046.5387	3180.2924	1066.7	188.1
1046.6427	3181.2415	1062.95	182.95
1046.7466	3182.1899	1060.2	179.15
1046.8504	3183.1377	1060.8	182.25
1046.9542	3184.0848	1064.2	182.4
1047.058	3185.0314	1058.1	177.25
1047.1617	3185.9773	1056.45	177
1047.2654	3186.9227	1057.55	178.7
1047.369	3187.8674	1056.9	180
1047.4726	3188.8115	1060.75	177.15
1047.5761	3189.755	1056.4	177.6
1047.6796	3190.6979	1048.3	168.4
1047.783	3191.6402	1049.4	170.4
1047.8864	3192.5818	1051.15	173.9
1047.9898	3193.5229	1056.3	170.2
1048.0931	3194.4633	1050.8	173.25
1048.1963	3195.4031	1045.95	166.35
1048.2995	3196.3423	1046.75	166.65
1048.4027	3197.2809	1049.6	169.65
1048.5058	3198.2189	1047.5	168.55
1048.6089	3199.1563	1051.8	164.4
1048.7119	3200.0931	1040.65	162.05
1048.8148	3201.0292	1043.15	164.75
1048.9178	3201.9648	1044.55	166
1049.0206	3202.8997	1042.25	160.75
1049.1235	3203.834	1040	160.15
1049.2262	3204.7677	1040.8	163.2
1049.329	3205.7008	1040.75	160.45
1049.4317	3206.6333	1034.5	158.8
1049.5343	3207.5652	1040.55	160
1049.6369	3208.4964	1035.3	156.15
1049.7394	3209.4271	1041.55	162.4
1049.8419	3210.3571	1030.35	151.9
1049.9444	3211.2865	1033.9	154.35
1050.0468	3212.2154	1035.45	154.9
1050.1491	3213.1436	1037.65	154.8
1050.2514	3214.0712	1042.45	158.25
1050.3537	3214.9982	1028.05	150.7
1050.4559	3215.9246	1029.15	147.45
1050.5581	3216.8503	1028.85	152.35
1050.6602	3217.7755	1032.9	152.95
1050.7623	3218.7001	1027.15	148.6
1050.8643	3219.624	1028.1	149.05
1050.9663	3220.5473	1026.5	145.9
1051.0682	3221.4701	1025.75	145.2
1051.1701	3222.3922	1025.65	146.3
1051.2719	3223.3137	1024.15	146.95
1051.3737	3224.2346	1026.9	149.45
1051.4754	3225.1549	1023.3	145.1
1051.5771	3226.0746	1023.15	144.8
1051.6788	3226.9937	1023.3	143.15
1051.7804	3227.9121	1017.65	139.8
1051.8819	3228.83	1020.9	143
1051.9834	3229.7473	1019.65	141.45
1052.0849	3230.6639	1018.05	139.75
1052.1863	3231.5799	1013.75	136
1052.2876	3232.4954	1020.85	140.4
1052.3889	3233.4102	1018.3	139.6
1052.4902	3234.3244	1019.5	139.55
1052.5914	3235.238	1013.1	134.65
1052.6926	3236.151	1037.3	134.6
1052.7937	3237.0634	1010.35	133.55
1052.8948	3237.9752	1013.65	135.15
1052.9958	3238.8864	1009.35	131.3
1053.0968	3239.797	1012.55	134.05
1053.1977	3240.7069	1008.4	129.2
1053.2986	3241.6163	1007.25	125.5
1053.3994	3242.5251	1004.45	127.65
1053.5002	3243.4332	1005.6	125.9
1053.6009	3244.3408	1007	127.3
1053.7016	3245.2477	1005.45	124.85
1053.8022	3246.154	1005.45	126.05
1053.9028	3247.0598	1004	125
1054.0034	3247.9649	1007.15	125.95
1054.1039	3248.8694	1003.75	126.8
1054.2043	3249.7733	1002.05	122.7
1054.3047	3250.6766	998	117.85
1054.4051	3251.5793	999.7	119.9
1054.5054	3252.4814	999	121.7
1054.6056	3253.3829	997.75	120.3
1054.7058	3254.2838	999.35	120.15
1054.806	3255.1841	994	114.75
1054.9061	3256.0838	996.75	118.1
1055.0061	3256.9829	994.9	117.95
1055.1062	3257.8814	999	118.4
1055.2061	3258.7792	996.55	114.35
1055.306	3259.6765	991.3	113.15
1055.4059	3260.5731	989.75	111.3
1055.5057	3261.4692	984.4	105.1
1055.6055	3262.3647	988	108.15
1055.7052	3263.2595	986.2	107.35
1055.8049	3264.1538	984	105.65
1055.9045	3265.0474	986.3	107.25
1056.0041	3265.9404	982.2	103.6
1056.1036	3266.8329	979.85	101.3
1056.2031	3267.7247	986.45	98.85
1056.3025	3268.616	972.55	94.6
1056.4019	3269.5066	971.8	93.6
1056.5013	3270.3966	975	92.85
1056.6005	3271.286	967.75	89.45
