Software Version:	3.9.2.0
Unit SN:	10000200
Spectrometer SN:	6960
Date:	3/6/2024 10:12:32 AM
Data Line Index:	25
Spectral Points:	2048
Integration time (ms):	125
Averages:	20
Delay (ms):	30
Sequence Number:	1
Processing:	dark subtract
Laser Power (mW):	305
Laser Current (mA):	825
Laser Diode Temp (C):	25.1
Laser Case Temp (C):	24.9
System Temp (C):	24.8
Spectrometer Temp (C):	22.4
CCD Temp (C):	0
Secondary Temp (C):	20.007
Heatsink Temp (C):	18.5
CCDPCB Temp (C):	31.672
SecondaryPCB Temp (C):	25.725

Wavelength	RamanShift	Raw Counts	Dark Subtracted
787.061	30.1047	993.25	585.75
787.2016	32.3739	1019.15	614.4
787.3422	34.6426	1052.85	644.9
787.4828	36.9109	1092.45	683.75
787.6235	39.1787	1136.25	725.25
787.7642	41.4461	1192.1	776.7
787.9049	43.7131	1244.7	823.9
788.0456	45.9796	1292.15	869.35
788.1863	48.2456	1347.2	919.5
788.3271	50.5112	1400.85	968.95
788.4679	52.7764	1453.15	1019.2
788.6087	55.0411	1522.5	1083.15
788.7496	57.3054	1586.95	1141.4
788.8904	59.5692	1661.3	1213.7
789.0313	61.8326	1734.4	1286.55
789.1722	64.0955	1824.4	1373.9
789.3132	66.3579	1933.75	1476.95
789.4541	68.6199	2057	1597.2
789.5951	70.8815	2279.85	1812.6
789.7361	73.1426	2751.95	2282.05
789.8771	75.4032	3950.95	3478.7
790.0181	77.6634	7086.95	6609.4
790.1592	79.9231	15056.25	14574.6
790.3003	82.1824	45736.95	45239.85
790.4414	84.4412	65478.9	64960.65
790.5825	86.6995	65535	64990.3
790.7237	88.9574	65535	64963.8
790.8648	91.2148	65535	64946.65
791.006	93.4717	65535	64938.1
791.1472	95.7282	65535	64932.8
791.2885	97.9842	65535	64926.25
791.4297	100.2398	65535	64923.7
791.571	102.4949	65535	64916.75
791.7123	104.7495	65535	64914.35
791.8536	107.0036	65535	64916.95
791.9949	109.2573	65535	64916.4
792.1363	111.5105	65535	64913.75
792.2777	113.7632	65535	64912
792.4191	116.0154	65535	64901.8
792.5605	118.2672	65535	64912.75
792.7019	120.5185	65535	64908.55
792.8434	122.7693	65535	64903.55
792.9849	125.0197	65535	64897.4
793.1264	127.2696	65535	64897.1
793.2679	129.519	65535	64890.85
793.4094	131.7679	65535	64886.8
793.551	134.0163	65535	64884.8
793.6926	136.2642	65535	64880.25
793.8342	138.5117	65535	64879.65
793.9758	140.7587	65535	64879.4
794.1175	143.0052	65535	64875.65
794.2591	145.2512	65535	64872.8
794.4008	147.4967	65535	64872.7
794.5425	149.7417	65535	64872.6
794.6842	151.9863	65535	64866.85
794.826	154.2304	65535	64861.95
794.9677	156.4739	65535	64850.4
795.1095	158.717	65535	64855.65
795.2513	160.9596	65535	64855.2
795.3931	163.2017	65535	64848.95
795.535	165.4433	65535	64848.25
795.6768	167.6844	65535	64847.5
795.8187	169.925	65535	64845.4
795.9606	172.1651	65535	64844.8
796.1025	174.4047	65535	64839.1
796.2445	176.6439	65535	64838.1
796.3864	178.8825	65535	64834.15
796.5284	181.1206	65535	64829.1
796.6704	183.3582	65535	64825.55
796.8124	185.5954	65535	64823.35
796.9544	187.832	65535	64820.15
797.0965	190.0681	65535	64818.25
797.2386	192.3037	65535	64814.2
797.3806	194.5388	65535	64806.85
797.5228	196.7734	65535	64809.45
797.6649	199.0075	65535	64808.45
797.807	201.2411	65535	64807.6
797.9492	203.4742	65535	64804.2
798.0914	205.7068	65535	64796.85
798.2336	207.9389	65535	64796.15
798.3758	210.1704	65535	64805.85
798.518	212.4015	65535	64811.1
798.6603	214.632	65535	64820.65
798.8025	216.862	65535	64820.85
798.9448	219.0915	65535	64818.1
799.0871	221.3205	65535	64813.85
799.2294	223.549	65535	64819.7
799.3718	225.777	65535	64821.2
799.5141	228.0044	65535	64817.7
799.6565	230.2314	65535	64811.3
799.7989	232.4578	65535	64805.95
799.9413	234.6837	65535	64799.6
800.0837	236.909	65535	64796.5
800.2262	239.1339	65535	64774.25
800.3687	241.3582	65535	64789.65
800.5111	243.582	65535	64758.3
800.6536	245.8053	65535	64770.25
800.7961	248.0281	65535	64776.15
800.9387	250.2503	65535	64769.1
801.0812	252.472	65535	64768.55
801.2238	254.6932	65535	64769.65
801.3664	256.9139	65535	64768.6
801.509	259.134	65535	64765
801.6516	261.3536	65535	64764.75
801.7942	263.5727	65535	64767.7
801.9369	265.7912	65535	64763.9
802.0795	268.0092	65535	64767
802.2222	270.2267	65535	64764.2
802.3649	272.4436	65535	64764.3
802.5076	274.6601	65535	64754.7
802.6504	276.8759	65535	64756.45
802.7931	279.0913	65535	64756.4
802.9359	281.3061	65535	64754.45
803.0787	283.5204	65535	64753.4
803.2215	285.7341	65535	64748.85
803.3643	287.9473	65535	64742.9
803.5071	290.16	65535	64744.2
803.6499	292.3721	65535	64753.35
803.7928	294.5837	65535	64745.5
803.9357	296.7947	65535	64749.75
804.0786	299.0052	65535	64749
804.2215	301.2152	65535	64742.9
804.3644	303.4246	65535	64750.6
804.5074	305.6334	65535	64753.45
804.6503	307.8418	65535	64745.7
804.7933	310.0495	65535	64746.9
804.9363	312.2568	65535	64741.3
805.0793	314.4635	65535	64741
805.2223	316.6696	65535	64739.1
805.3653	318.8752	65535	64729.45
805.5084	321.0802	65535	64736.55
805.6514	323.2847	65535	64731.9
805.7945	325.4887	65535	64733.25
805.9376	327.692	65535	64734.65
806.0807	329.8949	65535	64732.5
806.2238	332.0972	65535	64729.9
806.367	334.2989	65535	64727.3
806.5101	336.5001	65535	64725.95
806.6533	338.7007	65535	64725.6
806.7965	340.9008	65535	64725.25
806.9397	343.1003	65535	64723.25
807.0829	345.2992	65535	64722.75
807.2261	347.4976	65535	64721.3
807.3693	349.6955	65535	64714.9
807.5126	351.8927	65535	64718.15
807.6559	354.0895	65535	64703.1
807.7991	356.2856	65535	64712
807.9424	358.4812	65535	64714.45
808.0857	360.6763	65535	64711.9
808.2291	362.8707	65535	64712.95
808.3724	365.0646	65535	64710.55
808.5158	367.258	65535	64704.2
808.6591	369.4508	65535	64702.85
808.8025	371.643	65535	64704.8
808.9459	373.8346	65535	64702.95
809.0893	376.0257	65535	64698.1
809.2327	378.2162	65535	64701.6
809.3762	380.4062	65535	64697.05
809.5196	382.5956	65535	64703.9
809.6631	384.7844	65535	64705.1
809.8066	386.9726	65535	64705.05
809.9501	389.1603	65535	64707.95
810.0936	391.3474	65535	64668.85
810.2371	393.5339	65535	64705.5
810.3806	395.7199	65535	64704.4
810.5241	397.9052	65535	64703.55
810.6677	400.09	65535	64704.95
810.8113	402.2743	65535	64704.7
810.9548	404.4579	65535	64705.4
811.0984	406.641	65535	64702.55
811.2421	408.8235	65535	64699.85
811.3857	411.0054	65535	64703.95
811.5293	413.1868	65535	64696.8
811.673	415.3675	65535	64695.2
811.8166	417.5477	65535	64688.45
811.9603	419.7273	65535	64688.3
812.104	421.9064	65535	64684.3
812.2477	424.0848	65535	64688.4
812.3914	426.2627	65535	64688.45
812.5351	428.4399	65535	64688.8
812.6788	430.6166	65535	64683.55
812.8226	432.7928	65535	64684.35
812.9663	434.9683	65535	64687.25
813.1101	437.1432	65535	64683.1
813.2539	439.3176	65535	64685.85
813.3977	441.4914	65535	64692
813.5415	443.6645	65535	64690.4
813.6853	445.8371	65535	64681.4
813.8291	448.0091	65535	64684.75
813.973	450.1806	65535	64685.45
814.1168	452.3514	65535	64684.3
814.2607	454.5216	65535	64675.1
814.4046	456.6913	65535	64682.4
814.5485	458.8603	65535	64684.2
814.6924	461.0288	65535	64684.1
814.8363	463.1967	65535	64685.05
814.9802	465.3639	65535	64682.65
815.1241	467.5306	65535	64681.15
815.2681	469.6967	65535	64685.45
815.412	471.8622	65535	64682.8
815.556	474.0271	65535	64682.9
815.7	476.1914	65535	64679.5
815.844	478.3551	65535	64681.7
815.988	480.5182	65535	64679.05
816.132	482.6807	65535	64681.9
816.276	484.8426	65535	64686.9
816.4201	487.0039	65535	64684.35
816.5641	489.1647	65535	64680.3
816.7082	491.3248	65535	64676.6
816.8522	493.4843	65535	64681.55
816.9963	495.6432	65535	64679.3
817.1404	497.8015	65535	64670.4
817.2845	499.9592	65535	64669.75
817.4286	502.1163	65535	64669.2
817.5727	504.2728	65535	64669.2
817.7168	506.4287	65535	64676.8
817.861	508.5839	65535	64675.6
818.0051	510.7386	65535	64674.65
818.1493	512.8927	65535	64669.95
818.2935	515.0461	65535	64670.55
818.4377	517.199	65535	64670.6
818.5818	519.3512	65535	64669.85
818.726	521.5029	65535	64665.7
818.8703	523.6539	65535	64668.75
819.0145	525.8043	65535	64665.95
819.1587	527.9541	65535	64662.15
819.303	530.1033	65535	64662.5
819.4472	532.2519	65535	64668.35
819.5915	534.3999	65535	64659.2
819.7357	536.5472	65535	64669.05
819.88	538.694	65535	64666.8
820.0243	540.8401	65535	64665.3
820.1686	542.9856	65535	64657.1
820.3129	545.1305	65535	64655.35
820.4572	547.2748	65535	64654.7
820.6016	549.4185	65535	64648.95
820.7459	551.5615	65535	64654.1
820.8902	553.704	65535	64655.7
821.0346	555.8458	65535	64659.55
821.1789	557.987	65535	64657.65
821.3233	560.1276	65535	64655.8
821.4677	562.2675	65535	64654.8
821.6121	564.4069	65535	64656.05
821.7565	566.5456	65535	64658.9
821.9009	568.6837	65535	64661.7
822.0453	570.8212	65535	64658.6
822.1897	572.958	65535	64656.05
822.3342	575.0942	65535	64659.15
822.4786	577.2299	65535	64665
822.6231	579.3648	65535	64666.9
822.7675	581.4992	65535	64670.15
822.912	583.6329	65535	64668.65
823.0565	585.766	65535	64669.7
823.201	587.8985	65535	64667.1
823.3454	590.0304	65535	64635.95
823.4899	592.1616	65535	64653.3
823.6345	594.2922	65535	64652.5
823.779	596.4222	65535	64650.7
823.9235	598.5515	65535	64648.3
824.068	600.6802	65535	64648.65
824.2126	602.8083	65535	64651.85
824.3571	604.9358	65535	64653.4
824.5017	607.0626	65535	64649.7
824.6462	609.1888	65535	64642.45
824.7908	611.3144	65535	64645.45
824.9354	613.4393	65535	64645.4
825.08	615.5636	65535	64646.8
825.2246	617.6873	65535	64648.6
825.3692	619.8103	65535	64646
825.5138	621.9327	65535	64647.9
825.6584	624.0544	65535	64652.2
825.803	626.1756	65535	64648.95
825.9477	628.2961	65535	64648
826.0923	630.4159	65535	64645.45
826.237	632.5351	65535	64644.85
826.3816	634.6537	65535	64644.85
826.5263	636.7716	65535	64636.7
826.6709	638.8889	65535	64641.65
826.8156	641.0056	65535	64640.25
826.9603	643.1216	65535	64639.1
827.105	645.237	65535	64640.5
827.2497	647.3518	65535	64645.15
827.3944	649.4659	65535	64649.85
827.5391	651.5793	65535	64649.6
827.6838	653.6922	65535	64647.6
827.8285	655.8043	65535	64644.5
827.9733	657.9159	65535	64647.2
828.118	660.0268	65535	64642.4
828.2627	662.137	65535	64641.8
828.4075	664.2466	65535	64639
828.5522	666.3556	65535	64636.05
828.697	668.4639	65535	64640.65
828.8418	670.5716	65535	64643.55
828.9865	672.6786	65535	64640.05
829.1313	674.785	65535	64636.05
829.2761	676.8907	65535	64640.45
829.4209	678.9958	65535	64641.25
829.5657	681.1002	65535	64641.65
829.7105	683.204	65535	64632.9
829.8553	685.3072	65535	64630.25
830.0001	687.4097	65535	64636.2
830.1449	689.5115	65535	64634.55
830.2898	691.6127	65535	64641.5
830.4346	693.7132	65535	64637.65
830.5794	695.8131	65535	64614.8
830.7243	697.9123	65535	64633.8
830.8691	700.0109	65535	64633.5
831.014	702.1089	65535	64635.6
831.1588	704.2061	65535	64634.5
831.3037	706.3028	65535	64634.5
831.4486	708.3987	65535	64631.55
831.5935	710.4941	65535	64632.6
831.7383	712.5887	65535	64635.75
831.8832	714.6827	65535	64633.2
832.0281	716.7761	65535	64634.7
832.173	718.8688	65535	64631.65
832.3179	720.9608	65535	64626.95
832.4628	723.0522	65535	64624.45
832.6077	725.1429	65535	64630.2
832.7527	727.233	65535	64629.6
832.8976	729.3224	65535	64633.7
833.0425	731.4112	65535	64632.7
833.1874	733.4993	65535	64626.7
833.3324	735.5867	65535	64630.1
833.4773	737.6735	65535	64628
833.6222	739.7596	65535	64629.2
833.7672	741.845	65535	64628.2
833.9122	743.9298	65535	64630.8
834.0571	746.014	65535	64631.6
834.2021	748.0974	65535	64624.4
834.347	750.1802	65535	64624.55
834.492	752.2624	65535	64627.75
834.637	754.3439	65535	64624.65
834.782	756.4247	65535	64617.8
834.9269	758.5048	65535	64624.65
835.0719	760.5843	65535	64630.25
835.2169	762.6631	65535	64623.4
835.3619	764.7413	65535	64628.2
835.5069	766.8188	65535	64621.8
835.6519	768.8956	65535	64625
835.7969	770.9718	65535	64626.2
835.9419	773.0473	65535	64626.55
836.0869	775.1221	65535	64625.65
836.232	777.1962	65535	64626.5
836.377	779.2697	65535	64625.15
836.522	781.3426	65535	64604.35
836.667	783.4147	65535	64622.15
836.8121	785.4862	65535	64627.15
836.9571	787.557	65535	64623.15
837.1021	789.6271	65535	64622.85
837.2472	791.6966	65535	64626.75
837.3922	793.7654	65535	64626
837.5373	795.8335	65535	64623.2
837.6823	797.901	65535	64624.55
837.8274	799.9678	65535	64618.95
837.9724	802.0339	65535	64622.1
838.1175	804.0993	65535	64615.8
838.2626	806.1641	65535	64624.1
838.4076	808.2282	65535	64624.6
838.5527	810.2916	65535	64623.25
838.6978	812.3544	65535	64624.4
838.8428	814.4164	65535	64624.1
838.9879	816.4778	65535	64619.5
839.133	818.5385	65535	64619.7
839.2781	820.5986	65535	64619.85
839.4232	822.658	65535	64620.7
839.5682	824.7166	65535	64624.8
839.7133	826.7747	65535	64619.35
839.8584	828.832	65535	64619.85
840.0035	830.8886	65535	64616.05
840.1486	832.9446	65535	64616.05
840.2937	834.9999	65535	64618.85
840.4388	837.0545	65535	64617.5
840.5839	839.1085	65535	64618.5
840.729	841.1618	65535	64615.15
840.8741	843.2143	65535	64621.1
841.0192	845.2662	65535	64620.5
841.1643	847.3175	65535	64622.8
841.3095	849.368	65535	64618.3
841.4546	851.4179	65535	64618.8
841.5997	853.467	65535	64617.75
841.7448	855.5155	65535	64619.85
841.8899	857.5633	65535	64620.6
842.0351	859.6105	65535	64617.1
842.1802	861.6569	65535	64619.55
842.3253	863.7027	65535	64616.4
842.4704	865.7478	65535	64614.2
842.6156	867.7922	65535	64620.3
842.7607	869.8359	65535	64618.4
842.9058	871.8789	65535	64617.75
843.0509	873.9212	65535	64587.55
843.1961	875.9629	65535	64617.8
843.3412	878.0039	65535	64616.85
843.4863	880.0441	65535	64622.4
843.6315	882.0837	65535	64620.5
843.7766	884.1226	65535	64621.2
843.9218	886.1609	65535	64619.35
844.0669	888.1984	65535	64619.4
844.212	890.2352	65535	64618.6
844.3572	892.2714	65535	64611.3
844.5023	894.3069	65535	64617.25
844.6475	896.3416	65535	64613.8
844.7926	898.3757	65535	64614.8
844.9377	900.4091	65535	64616.05
845.0829	902.4418	65535	64611.5
845.228	904.4739	65535	64611.2
845.3732	906.5052	65535	64612.9
845.5183	908.5358	65535	64617.3
845.6635	910.5658	65535	64612.15
845.8086	912.595	65535	64614
845.9538	914.6236	65535	64617.2
846.0989	916.6515	65535	64617.75
846.2441	918.6786	65535	64614.35
846.3892	920.7051	65535	64613
846.5344	922.7309	65535	64614
846.6795	924.756	65535	64618.2
846.8246	926.7804	65535	64616
846.9698	928.8041	65535	64612.95
847.1149	930.8272	65535	64614.4
847.2601	932.8495	65535	64616.9
847.4052	934.8711	65535	64611.05
847.5504	936.892	65535	64614.85
847.6955	938.9123	65535	64610.85
847.8407	940.9318	65535	64614.45
847.9858	942.9506	65535	64611.6
848.131	944.9688	65535	64612
848.2761	946.9862	65535	64611.95
848.4213	949.003	65535	64612.7
848.5664	951.019	65535	64611.6
848.7115	953.0344	65535	64612.6
848.8567	955.0491	65535	64615.7
849.0018	957.063	65535	64614.65
849.147	959.0763	65535	64614.05
849.2921	961.0888	65535	64615.75
849.4373	963.1007	65535	64616.4
849.5824	965.1119	65535	64619.9
849.7275	967.1223	65535	64622.25
849.8727	969.1321	65535	64624.9
850.0178	971.1412	65535	64616.6
850.1629	973.1495	65535	64613.7
850.3081	975.1572	65535	64576.55
850.4532	977.1641	65535	64616.7
850.5983	979.1704	65535	64614.85
850.7435	981.1759	65535	64610.25
850.8886	983.1808	65535	64608.6
851.0337	985.1849	65535	64602.95
851.1788	987.1884	65535	64612.35
851.324	989.1911	65535	64609.3
851.4691	991.1932	65535	64612.25
851.6142	993.1945	65535	64613.55
851.7593	995.1951	65535	64611.5
851.9045	997.1951	65535	64608.9
852.0496	999.1943	65535	64613.45
852.1947	1001.1928	65535	64612.6
852.3398	1003.1906	65535	64614
852.4849	1005.1877	65535	64613.55
852.63	1007.1841	65535	64615.8
852.7751	1009.1798	65535	64617.3
852.9202	1011.1748	65535	64617
853.0653	1013.1691	65535	64613.45
853.2104	1015.1627	65535	64612.75
853.3555	1017.1556	65535	64616.35
853.5006	1019.1477	65535	64614.55
853.6457	1021.1392	65535	64618.9
853.7908	1023.1299	65535	64623.9
853.9359	1025.12	65535	64621.7
854.081	1027.1093	65535	64628.55
854.2261	1029.0979	65535	64632.05
854.3712	1031.0859	65535	64627.35
854.5163	1033.0731	65535	64617.8
854.6613	1035.0596	65535	64620.55
854.8064	1037.0454	65535	64619.65
854.9515	1039.0304	65535	64615.8
855.0965	1041.0148	65535	64613.8
855.2416	1042.9985	65535	64615.75
855.3867	1044.9814	65535	64619.55
855.5317	1046.9636	65535	64613.2
855.6768	1048.9452	65535	64616.65
855.8219	1050.926	65535	64617.5
855.9669	1052.9061	65535	64615.65
856.112	1054.8855	65535	64615.6
856.257	1056.8642	65535	64616.25
856.4021	1058.8421	65535	64611.35
856.5471	1060.8194	65535	64613.55
856.6921	1062.7959	65535	64616.25
856.8372	1064.7717	65535	64612
856.9822	1066.7469	65535	64613.45
857.1272	1068.7213	65535	64612.15
857.2723	1070.695	65535	64613.75
857.4173	1072.6679	65535	64615.6
857.5623	1074.6402	65535	64617.25
857.7073	1076.6117	65535	64609.25
857.8523	1078.5826	65535	64613.25
857.9973	1080.5527	65535	64612.55
858.1423	1082.5221	65535	64615.2
858.2873	1084.4908	65535	64615.55
858.4323	1086.4587	65535	64611.95
858.5773	1088.426	65535	64612.1
858.7223	1090.3925	65535	64608.65
858.8673	1092.3584	65535	64613.5
859.0123	1094.3235	65535	64617
859.1573	1096.2879	65535	64615.35
859.3022	1098.2515	65535	64616.55
859.4472	1100.2145	65535	64617.5
859.5922	1102.1767	65535	64614.25
859.7371	1104.1382	65535	64615.7
859.8821	1106.099	65535	64613
860.027	1108.0591	65535	64617.65
860.172	1110.0185	65535	64613.7
860.3169	1111.9771	65535	64615
860.4619	1113.9351	65535	64616.2
860.6068	1115.8923	65535	64616.4
860.7517	1117.8488	65535	64611.85
860.8967	1119.8045	65535	64616.9
861.0416	1121.7596	65535	64617.6
861.1865	1123.7139	65535	64616
861.3314	1125.6675	65535	64616.15
861.4763	1127.6204	65535	64620.1
861.6212	1129.5726	65535	64613.75
861.7661	1131.524	65535	64615.6
861.911	1133.4748	65535	64615.75
862.0559	1135.4248	65535	64613.55
862.2008	1137.3741	65535	64619.4
862.3457	1139.3226	65535	64613.45
862.4905	1141.2705	65535	64613.35
862.6354	1143.2176	65535	64611.15
862.7803	1145.164	65535	64613.55
862.9251	1147.1097	65535	64616
863.07	1149.0546	65535	64615.9
863.2148	1150.9989	65535	64614.7
863.3597	1152.9424	65535	64614.35
863.5045	1154.8852	65535	64614.1
863.6493	1156.8272	65535	64617.8
863.7942	1158.7686	65535	64608.25
863.939	1160.7092	65535	64614.6
864.0838	1162.6491	65535	64614.6
864.2286	1164.5883	65535	64616.25
864.3734	1166.5267	65535	64612.85
864.5182	1168.4644	65535	64615.1
864.663	1170.4014	65535	64611.65
864.8078	1172.3377	65535	64618.95
864.9526	1174.2732	65535	64616
865.0974	1176.2081	65535	64615.3
865.2421	1178.1421	65535	64613.65
865.3869	1180.0755	65535	64619.85
865.5317	1182.0082	65535	64618.85
865.6764	1183.9401	65535	64618.3
865.8212	1185.8713	65535	64616.05
865.9659	1187.8017	65535	64623.9
866.1106	1189.7315	65535	64627.75
866.2554	1191.6605	65535	64600.4
866.4001	1193.5888	65535	64625.05
866.5448	1195.5163	65535	64622.2
866.6895	1197.4432	65535	64617
866.8342	1199.3693	65535	64616.85
866.9789	1201.2947	65535	64615.45
867.1236	1203.2193	65535	64619.5
867.2683	1205.1432	65535	64618.35
867.413	1207.0664	65535	64616.65
867.5576	1208.9889	65535	64615.35
867.7023	1210.9106	65535	64621.55
867.847	1212.8316	65535	64618.7
867.9916	1214.7519	65535	64609.35
868.1363	1216.6715	65535	64617.8
868.2809	1218.5903	65535	64620
868.4255	1220.5084	65535	64619.55
868.5701	1222.4257	65535	64622.4
868.7148	1224.3424	65535	64622.25
868.8594	1226.2583	65535	64612.3
869.004	1228.1735	65535	64619.25
869.1486	1230.0879	65535	64618
869.2932	1232.0016	65535	64619.6
869.4377	1233.9146	65535	64614.25
869.5823	1235.8269	65535	64622.45
869.7269	1237.7384	65535	64620.2
869.8715	1239.6492	65535	64619.5
870.016	1241.5592	65535	64617.5
870.1606	1243.4686	65535	64618.7
870.3051	1245.3772	65535	64619.05
870.4496	1247.285	65535	64617.1
870.5941	1249.1922	65535	64620.4
870.7387	1251.0986	65535	64619.3
870.8832	1253.0042	65535	64621.95
871.0277	1254.9092	65535	64618.3
871.1722	1256.8134	65535	64620.8
871.3167	1258.7169	65535	64617.8
871.4611	1260.6196	65535	64620.5
871.6056	1262.5216	65535	64616
871.7501	1264.4229	65535	64618.95
871.8945	1266.3234	65535	64617.4
872.039	1268.2232	65535	64615.4
872.1834	1270.1223	65535	64618.95
872.3278	1272.0207	65535	64619.3
872.4723	1273.9183	65535	64610.65
872.6167	1275.8151	65535	64616.85
872.7611	1277.7113	65535	64617.3
872.9055	1279.6067	65535	64619.8
873.0499	1281.5014	65535	64616.3
873.1943	1283.3953	65535	64618.3
873.3386	1285.2885	65535	64618.1
873.483	1287.181	65535	64621.6
873.6274	1289.0727	65535	64620.95
873.7717	1290.9637	65535	64619.3
873.9161	1292.854	65535	64620.95
874.0604	1294.7435	65535	64619.6
874.2047	1296.6323	65535	64618.95
874.349	1298.5204	65535	64615.7
874.4933	1300.4077	65535	64621
874.6376	1302.2943	65535	64620.75
874.7819	1304.1802	65535	64619.7
874.9262	1306.0653	65535	64619
875.0705	1307.9497	65535	64620.55
875.2147	1309.8333	65535	64622.05
875.359	1311.7162	65535	64620.45
875.5032	1313.5984	65535	64615.7
875.6475	1315.4798	65535	64607.9
875.7917	1317.3605	65535	64605.4
875.9359	1319.2405	65535	64616.95
876.0801	1321.1197	65535	64616.3
876.2243	1322.9982	65535	64617.8
876.3685	1324.876	65535	64619.3
876.5127	1326.753	65535	64620.8
876.6569	1328.6293	65535	64617.1
876.801	1330.5048	65535	64614.6
876.9452	1332.3796	65535	64622
877.0893	1334.2537	65535	64595.1
877.2335	1336.127	65535	64618.6
877.3776	1337.9996	65535	64616.5
877.5217	1339.8714	65535	64620.3
877.6658	1341.7426	65535	64577.75
877.8099	1343.6129	65535	64618.85
877.954	1345.4826	65535	64617.65
878.0981	1347.3515	65535	64617.4
878.2422	1349.2196	65535	64619.2
878.3862	1351.087	65535	64619.7
878.5303	1352.9537	65535	64619.1
878.6743	1354.8197	65535	64619.3
878.8184	1356.6849	65535	64619.7
878.9624	1358.5493	65535	64619.6
879.1064	1360.4131	65535	64621.55
879.2504	1362.276	65535	64621.8
879.3944	1364.1383	65535	64621.35
879.5384	1365.9998	65535	64615.5
879.6823	1367.8606	65535	64618.9
879.8263	1369.7206	65535	64618.9
879.9702	1371.5799	65535	64615.15
880.1142	1373.4384	65535	64618.8
880.2581	1375.2962	65535	64619.4
880.402	1377.1533	65535	64620.85
880.5459	1379.0096	65535	64621.05
880.6898	1380.8652	65535	64622.95
880.8337	1382.7201	65535	64622.85
880.9776	1384.5742	65535	64621.2
881.1215	1386.4275	65535	64616.6
881.2653	1388.2802	65535	64619.7
881.4092	1390.132	65535	64620.2
881.553	1391.9832	65535	64619.45
881.6968	1393.8336	65535	64619.8
881.8406	1395.6832	65535	64617.65
881.9844	1397.5322	65535	64619.6
882.1282	1399.3803	65535	64616.15
882.272	1401.2278	65535	64622
882.4158	1403.0745	65535	64623.45
882.5595	1404.9204	65535	64625
882.7033	1406.7656	65535	64620.5
882.847	1408.6101	65535	64620.95
882.9908	1410.4538	65535	64620.9
883.1345	1412.2968	65535	64620.35
883.2782	1414.139	65535	64621.9
883.4219	1415.9805	65535	64622.35
883.5656	1417.8213	65535	64614.9
883.7092	1419.6613	65535	64623.85
883.8529	1421.5006	65535	64623.5
883.9965	1423.3391	65535	64621.15
884.1402	1425.1769	65535	64619.55
884.2838	1427.0139	65535	64618.8
884.4274	1428.8502	65535	64618.05
884.571	1430.6858	65535	64621.5
884.7146	1432.5206	65535	64623.25
884.8582	1434.3547	65535	64620.8
885.0018	1436.188	65535	64622
885.1453	1438.0206	65535	64620.6
885.2889	1439.8524	65535	64623.25
885.4324	1441.6835	65535	64620.6
885.5759	1443.5139	65535	64620.45
885.7194	1445.3435	65535	64621.6
885.8629	1447.1724	65535	64623.7
886.0064	1449.0005	65535	64624.45
886.1499	1450.8279	65535	64621.55
886.2933	1452.6545	65535	64623.3
886.4368	1454.4804	65535	64622.7
886.5802	1456.3056	65533.85	64612.25
886.7237	1458.13	65535	64623.65
886.8671	1459.9536	65535	64620.85
887.0105	1461.7766	65530.95	64616.6
887.1539	1463.5987	65523.05	64608.8
887.2972	1465.4202	65529.8	64617.8
887.4406	1467.2409	65527.85	64614.6
887.584	1469.0608	65497.4	64586.35
887.7273	1470.88	65516.5	64602.35
887.8706	1472.6984	65519.7	64608.75
888.0139	1474.5161	65468.45	64555.25
888.1572	1476.3331	65505.95	64592.65
888.3005	1478.1493	65476.05	64563.55
888.4438	1479.9648	65450.7	64538.4
888.5871	1481.7795	65497.3	64584.3
888.7303	1483.5935	65498.85	64587.45
888.8736	1485.4067	65431.9	64520.25
889.0168	1487.2192	65447.2	64535.4
889.16	1489.031	65402.5	64490
889.3032	1490.842	65432.6	64521.85
889.4464	1492.6522	65450.6	64537.9
889.5896	1494.4618	65413.9	64501.4
889.7327	1496.2705	65423.35	64510.8
889.8759	1498.0785	65340.7	64427.6
890.019	1499.8858	65406.95	64497.1
890.1622	1501.6924	65450.55	64538.8
890.3053	1503.4981	65380.15	64468.5
890.4484	1505.3032	65392.35	64481.35
890.5914	1507.1075	65343.5	64432.05
890.7345	1508.911	65361.9	64451
890.8776	1510.7138	65362.65	64450
891.0206	1512.5159	65387.3	64474.4
891.1637	1514.3172	65264.5	64351.85
891.3067	1516.1178	65293.05	64383
891.4497	1517.9176	65335.65	64424.25
891.5927	1519.7166	65290.8	64382
891.7357	1521.515	65284.75	64368.9
891.8786	1523.3126	65206.85	64298.25
892.0216	1525.1094	65283.7	64373.5
892.1645	1526.9055	65237.1	64329.55
892.3074	1528.7008	65260.2	64348.35
892.4503	1530.4954	65165.55	64255.15
892.5932	1532.2893	65263.2	64354.05
892.7361	1534.0824	65145.25	64234.35
892.879	1535.8747	65091.7	64185.7
893.0218	1537.6663	65273.55	64368.05
893.1647	1539.4572	65000.95	64093.7
893.3075	1541.2473	65092.4	64185
893.4503	1543.0367	65065.25	64160.5
893.5931	1544.8253	65051.75	64141.35
893.7359	1546.6132	65063.4	64153.6
893.8787	1548.4003	65010.65	64093.8
894.0214	1550.1867	65000.1	64086.55
894.1642	1551.9723	64987.7	64078.45
894.3069	1553.7572	64990.45	64082.1
894.4496	1555.5414	65029.15	64123.25
894.5923	1557.3247	64866.7	63962.55
894.735	1559.1074	65002.15	64099.95
894.8777	1560.8893	64922.1	64021.2
895.0204	1562.6705	64952.25	64049.55
895.163	1564.4509	64866.8	63964.75
895.3056	1566.2305	64903.5	64002.6
895.4482	1568.0094	64975.2	64073.3
895.5908	1569.7876	64905.95	64004.2
895.7334	1571.565	64847.95	63943.7
895.876	1573.3417	64881.3	63978.5
896.0186	1575.1176	64862.6	63960.55
896.1611	1576.8928	64831.55	63934
896.3036	1578.6672	64766.35	63867.9
896.4461	1580.4409	64820.05	63921.7
896.5886	1582.2138	64735.15	63831.35
896.7311	1583.986	64772.9	63872.55
896.8736	1585.7575	64710.2	63809.55
897.0161	1587.5282	64745.45	63846.55
897.1585	1589.2981	64763.4	63866.25
897.3009	1591.0673	64684.2	63788.7
897.4433	1592.8358	64621.9	63725.75
897.5857	1594.6035	64703.8	63803.65
897.7281	1596.3704	64714.9	63814.7
897.8705	1598.1366	64596.95	63696.6
898.0128	1599.9021	64521.95	63622.15
898.1551	1601.6668	64610.25	63711.15
898.2975	1603.4308	64546.25	63646.6
898.4398	1605.194	64605.25	63701.85
898.5821	1606.9564	64449.65	63555.35
898.7243	1608.7182	64531.85	63635.8
898.8666	1610.4791	64442.45	63549.15
899.0088	1612.2394	64517.6	63624.45
899.1511	1613.9988	64438.5	63546.05
899.2933	1615.7576	64538.9	63645
899.4355	1617.5156	64521.75	63616.15
899.5776	1619.2728	64615.2	63715.35
899.7198	1621.0293	64408.95	63510.4
899.862	1622.785	64386.45	63484.85
900.0041	1624.54	64438	63539.7
900.1462	1626.2942	64354.35	63458.5
900.2883	1628.0477	64180.45	63283.3
900.4304	1629.8005	64070.8	63171.1
900.5725	1631.5525	64184.05	63289.95
900.7145	1633.3037	63990.25	63096.9
900.8566	1635.0542	63972.2	63076.45
900.9986	1636.804	64042.45	63146.1
901.1406	1638.553	63885.05	62907.55
901.2826	1640.3013	63923	63024.45
901.4245	1642.0488	63833.25	62935.35
901.5665	1643.7955	63918.75	63026.3
901.7085	1645.5416	63821.45	62927.5
901.8504	1647.2868	63771.3	62878.15
901.9923	1649.0313	63872.05	62976.8
902.1342	1650.7751	63788.7	62888.9
902.2761	1652.5181	63743.65	62850.5
902.4179	1654.2604	63727.75	62834.7
902.5598	1656.0019	63775.85	62880.85
902.7016	1657.7427	63705.85	62810.65
902.8434	1659.4828	63788.1	62891.45
902.9852	1661.222	63696.45	62801.35
903.127	1662.9606	63750.65	62857.65
903.2687	1664.6984	63643.5	62747.65
903.4105	1666.4354	63689.85	62791.95
903.5522	1668.1717	63514.8	62614.7
903.6939	1669.9072	63297.55	62400.3
903.8356	1671.642	63286.1	62386.25
903.9773	1673.3761	63212.25	62314.2
904.119	1675.1094	63137.9	62244.25
904.2606	1676.8419	62870.5	61975.15
904.4022	1678.5737	62940.6	62043.8
904.5439	1680.3048	62824.45	61927.45
904.6855	1682.0351	62678.25	61781.55
904.827	1683.7646	62573.8	61673.55
904.9686	1685.4934	62707	61811.75
905.1101	1687.2215	62183.45	61286
905.2517	1688.9488	62528.55	61633.5
905.3932	1690.6754	61725.3	60830.1
905.5347	1692.4012	62154.85	61260.85
905.6761	1694.1263	62229.9	61333.05
905.8176	1695.8506	61858.45	60961.25
905.9591	1697.5742	61904.75	61011.9
906.1005	1699.297	61768.65	60878.4
906.2419	1701.0191	61839.25	60948.95
906.3833	1702.7404	61410.45	60518.75
906.5246	1704.461	61255.5	60363.2
906.666	1706.1808	61486.4	60591.5
906.8073	1707.8999	61307.25	60413.25
906.9487	1709.6182	61169.75	60277.45
907.09	1711.3358	61128.85	60236.3
907.2313	1713.0527	61065.1	60175
907.3725	1714.7688	61056.15	60159.9
907.5138	1716.4841	60554.6	59661.55
907.655	1718.1987	60777	59879.15
907.7962	1719.9126	60577.7	59687.55
907.9374	1721.6257	60634.9	59741.4
908.0786	1723.338	60637.65	59747.5
908.2198	1725.0496	60017.7	59126.15
908.3609	1726.7605	60106.8	59214.8
908.502	1728.4706	59934.25	59042.6
908.6431	1730.18	60073.25	59181.75
908.7842	1731.8886	59813.2	58922.7
908.9253	1733.5964	59638.95	58743.75
909.0664	1735.3036	59926	59033.3
909.2074	1737.0099	59679.95	58790.2
909.3484	1738.7156	59447.25	58557.5
909.4894	1740.4204	59291.85	58398.9
909.6304	1742.1246	59381.25	58490
909.7714	1743.8279	59453.4	58560.85
909.9123	1745.5306	59404.05	58513.95
910.0532	1747.2325	58575.65	57685.9
910.1941	1748.9336	58596.45	57706
910.335	1750.634	58812.45	57917.15
910.4759	1752.3336	58994.95	58102.8
910.6168	1754.0325	58398.95	57512.2
910.7576	1755.7307	58910.65	58023.2
910.8984	1757.4281	58154.2	57263.7
911.0392	1759.1247	58740.25	57840.45
911.18	1760.8206	57907.8	57009.45
911.3208	1762.5158	57905.75	57008.5
911.4615	1764.2102	58059.2	57167.25
911.6022	1765.9039	57885.4	56995.6
911.7429	1767.5968	57597.45	56707.9
911.8836	1769.289	57475.7	56587.6
912.0243	1770.9804	57660.1	56769.8
912.1649	1772.6711	57462.25	56570.25
912.3056	1774.361	57261.65	56368.4
912.4462	1776.0502	57262	56369.9
912.5868	1777.7386	56616.75	55722.15
912.7274	1779.4263	56932.1	56043.25
912.8679	1781.1132	56948.35	56057.45
913.0084	1782.7994	56724.05	55834.65
913.149	1784.4849	56783.05	55896.35
913.2895	1786.1696	56003.05	55111.4
913.4299	1787.8535	56476.05	55589.9
913.5704	1789.5367	56530.25	55641.2
913.7108	1791.2192	56000.15	55111.4
913.8513	1792.9009	55706.95	54785.2
913.9917	1794.5818	55974.95	55081.75
914.132	1796.2621	55561.95	54673.9
914.2724	1797.9415	55570.9	54679.75
914.4128	1799.6202	55427.1	54536.4
914.5531	1801.2982	55461.3	54569.6
914.6934	1802.9755	55019.9	54129.1
914.8337	1804.6519	54866.3	53974
914.9739	1806.3277	55416.8	54525.35
915.1142	1808.0027	54393.7	53509.2
915.2544	1809.6769	54745.75	53859.9
915.3946	1811.3504	54855.75	53969.8
915.5348	1813.0231	54069.9	53181.4
915.675	1814.6951	54487.4	53597.8
915.8151	1816.3664	54172.4	53280.05
915.9553	1818.0369	54164.55	53273.85
916.0954	1819.7067	53922.7	53034.15
916.2355	1821.3757	54294.55	53400.35
916.3755	1823.044	53709.5	52817.75
916.5156	1824.7115	53489.15	52599.65
916.6556	1826.3783	53596.55	52705.85
916.7956	1828.0443	53514.55	52626
916.9356	1829.7096	53222.2	52333.25
917.0756	1831.3741	52915.2	52022.9
917.2155	1833.0379	53028.05	52138.8
917.3555	1834.701	52963	52074.85
917.4954	1836.3633	52701.85	51814.05
917.6353	1838.0248	52748.35	51857.15
917.7751	1839.6856	52622.8	51733.5
917.915	1841.3457	52284.75	51398.9
918.0548	1843.005	52621.95	51732.05
918.1946	1844.6636	52324	51437.3
918.3344	1846.3214	51911.3	51023.7
918.4742	1847.9785	52009.65	51123.1
918.6139	1849.6349	51936	51043.95
918.7537	1851.2904	52085.15	51182.6
918.8934	1852.9453	51568.8	50675.8
919.0331	1854.5994	51674.1	50780.95
919.1727	1856.2528	51761.65	50865.2
919.3124	1857.9054	51375.8	50485
919.452	1859.5572	51241.3	50355.2
919.5916	1861.2083	51307.1	50416.85
919.7312	1862.8587	51601.15	50712.45
919.8708	1864.5084	50772.5	49880.95
920.0103	1866.1572	51034.55	50142.5
920.1498	1867.8054	50538.1	49646.6
920.2893	1869.4528	50774.8	49883.6
920.4288	1871.0994	50349.05	49457.6
920.5683	1872.7453	50301.65	49409.5
920.7077	1874.3905	50406.95	49509.05
920.8471	1876.0349	50055.6	49164.45
920.9865	1877.6786	50271.5	49380.75
921.1259	1879.3215	49964.15	49073.9
921.2653	1880.9637	50174.2	49283.75
921.4046	1882.6051	49858.2	48968.6
921.5439	1884.2458	49581.3	48691.8
921.6832	1885.8858	49375.15	48485.95
921.8225	1887.525	49430.85	48540.35
921.9617	1889.1634	49236.7	48347
922.101	1890.8011	49067.35	48177.95
922.2402	1892.4381	48743.75	47853.9
922.3794	1894.0743	49011.9	48122.75
922.5185	1895.7098	48758.4	47867
922.6577	1897.3446	48536.85	47644.7
922.7968	1898.9786	48545.4	47651.25
922.9359	1900.6118	48349.75	47461.4
923.075	1902.2443	48087.85	47195.7
923.214	1903.8761	48144.5	47256.7
923.3531	1905.5071	47900.35	47009.1
923.4921	1907.1374	47492.3	46602.95
923.6311	1908.7669	47598.35	46709.9
923.77	1910.3957	47681.5	46792
923.909	1912.0237	47204.6	46317.45
924.0479	1913.651	47116.45	46227.45
924.1868	1915.2776	46972.9	46085.15
924.3257	1916.9034	46870.9	45982.45
924.4646	1918.5285	46616.3	45728.2
924.6034	1920.1528	46466	45579
924.7422	1921.7764	46421.05	45533.25
924.881	1923.3992	46307.05	45416.7
925.0198	1925.0213	45989	45100.3
925.1586	1926.6427	45721.2	44834.25
925.2973	1928.2633	45868.8	44770.15
925.436	1929.8832	45622.55	44728.1
925.5747	1931.5023	45331.5	44441.5
925.7134	1933.1207	45226.95	44339.05
925.852	1934.7383	45173	44284.25
925.9906	1936.3552	44985.3	44097.95
926.1292	1937.9714	44896.4	44007.6
926.2678	1939.5868	44701.4	43810.55
926.4064	1941.2015	44381.75	43491.1
926.5449	1942.8154	44232.35	43340.85
926.6834	1944.4286	44089.65	43199.5
926.8219	1946.041	44010.4	43098.4
926.9604	1947.6528	43789.35	42893.6
927.0988	1949.2637	43679.95	42791.9
927.2372	1950.8739	43514.05	42626.35
927.3756	1952.4834	43478.9	42591.65
927.514	1954.0921	43363.95	42474.1
927.6523	1955.7001	43157.4	42265.5
927.7907	1957.3074	43061.85	42176.6
927.929	1958.9139	42808.3	41920.9
928.0673	1960.5197	42774.75	41886.4
928.2055	1962.1247	42547.6	41659.3
928.3438	1963.729	42343.95	41458.9
928.482	1965.3325	42200.7	41291.4
928.6202	1966.9353	42136.95	41250.5
928.7584	1968.5374	41944.15	41057.7
928.8965	1970.1387	41810.45	40922.6
929.0346	1971.7393	41634.5	40749.05
929.1727	1973.3392	41516.75	40630.8
929.3108	1974.9383	41353.9	40467.15
929.4489	1976.5366	41103.3	40218.05
929.5869	1978.1342	41083.75	40197.65
929.7249	1979.7311	41033.35	40146
929.8629	1981.3273	40860.05	39974.4
930.0009	1982.9227	40694.7	39808.25
930.1388	1984.5173	40628.6	39745.75
930.2767	1986.1112	40423.25	39538.45
930.4146	1987.7044	40358.8	39474.85
930.5525	1989.2968	40178.85	39292.3
930.6904	1990.8885	40172.75	39282.95
930.8282	1992.4795	40054.8	39170.5
930.966	1994.0697	39849.6	38965.85
931.1038	1995.6592	39760.6	38877.8
931.2415	1997.2479	39598.8	38714.05
931.3793	1998.8359	39550.45	38666.85
931.517	2000.4232	39347.5	38464.15
931.6547	2002.0097	39263.05	38381.6
931.7923	2003.5955	39040.2	38156.05
931.93	2005.1805	39041.95	38157.7
932.0676	2006.7648	38919.2	38037.2
932.2052	2008.3484	38756.5	37873.75
932.3427	2009.9312	38835.75	37951.9
932.4803	2011.5133	38619	37737.25
932.6178	2013.0946	38527.4	37645.95
932.7553	2014.6752	38435.15	37552.2
932.8928	2016.2551	38346.3	37461.8
933.0302	2017.8342	38116.15	37234.25
933.1676	2019.4126	37989	37105.45
933.305	2020.9902	37829.45	36947.85
933.4424	2022.5672	37740	36858
933.5798	2024.1433	37671.3	36786.7
933.7171	2025.7188	37535.8	36657.35
933.8544	2027.2935	37455.05	36571.3
933.9917	2028.8674	37258.6	36378.15
934.129	2030.4406	37224.3	36345.2
934.2662	2032.0131	37064.4	36184.7
934.4034	2033.5849	36878.25	35993.75
934.5406	2035.1559	36784.25	35903.05
934.6778	2036.7261	36783.25	35902.55
934.8149	2038.2957	36585.35	35701.3
934.952	2039.8645	36572	35688.55
935.0891	2041.4325	36585.5	35700.7
935.2262	2042.9998	36411.8	35527.3
935.3632	2044.5664	36341.15	35455.8
935.5002	2046.1323	36173.8	35290.5
935.6372	2047.6974	36019.5	35137.05
935.7742	2049.2617	35938.65	35060.35
935.9111	2050.8254	35953.6	35066.85
936.048	2052.3883	35844.95	34961.65
936.1849	2053.9504	35715.85	34834.2
936.3218	2055.5118	35574.3	34688.6
936.4586	2057.0725	35412.35	34526.35
936.5955	2058.6325	35304.05	34421.85
936.7323	2060.1917	35203.6	34322.3
936.869	2061.7502	35144.25	34260.75
937.0058	2063.3079	35006.55	34128
937.1425	2064.8649	34847.45	33961.3
937.2792	2066.4212	34804	33923.3
937.4159	2067.9767	34757.2	33874.6
937.5525	2069.5315	34556.8	33672.55
937.6891	2071.0856	34398.1	33516.55
937.8257	2072.6389	34358.25	33474.55
937.9623	2074.1915	34145.75	33265.05
938.0989	2075.7433	33949.2	33066.45
938.2354	2077.2945	33888.5	33006.5
938.3719	2078.8448	33781.95	32899.45
938.5084	2080.3945	33672	32788
938.6448	2081.9434	33652.35	32769.85
938.7812	2083.4916	33552	32665.75
938.9176	2085.039	33381.15	32493.1
939.054	2086.5857	33318.75	32431.8
939.1903	2088.1317	33270.85	32383.6
939.3267	2089.677	33185.85	32298.2
939.463	2091.2215	33040.4	32154.5
939.5992	2092.7652	32939.6	32050.75
939.7355	2094.3083	32870.1	31985.25
939.8717	2095.8506	32814.35	31929.95
940.0079	2097.3921	32802.1	31917.25
940.1441	2098.933	32708.05	31824.9
940.2802	2100.4731	32590.5	31706.5
940.4163	2102.0124	32524.4	31622.15
940.5524	2103.5511	32466.2	31582.2
940.6885	2105.089	32429.2	31545.2
940.8245	2106.6261	32313.8	31429.4
940.9606	2108.1626	32196.95	31311.1
941.0965	2109.6983	32159.45	31246.9
941.2325	2111.2332	32046.7	31162.65
941.3684	2112.7675	31896	31008.3
941.5044	2114.301	31837.6	30950.4
941.6403	2115.8337	31864.45	30979.15
941.7761	2117.3657	31695.5	30810.8
941.912	2118.897	31653.9	30766.3
942.0478	2120.4276	31514.9	30622.3
942.1835	2121.9575	31369.85	30483.95
942.3193	2123.4866	31410.8	30510.25
942.455	2125.0149	31276.95	30392.15
942.5907	2126.5426	31067.2	30183.5
942.7264	2128.0695	31018.3	30131.65
942.8621	2129.5956	30966.45	30085.3
942.9977	2131.1211	30933.35	30044.5
943.1333	2132.6458	30822.7	29939.55
943.2689	2134.1698	30719.05	29831.95
943.4044	2135.693	30642.95	29755
943.54	2137.2155	30609.85	29721.65
943.6755	2138.7373	30544.7	29660.1
943.8109	2140.2584	30427.45	29544.65
943.9464	2141.7787	30294.3	29408.15
944.0818	2143.2983	30158.85	29277.5
944.2172	2144.8171	30004.55	29125.2
944.3526	2146.3353	29917.5	29032.25
944.4879	2147.8527	29762.75	28882.2
944.6232	2149.3693	29788.55	28902.25
944.7585	2150.8853	29620.8	28734.65
944.8938	2152.4005	29491.7	28605.25
945.029	2153.9149	29477.65	28589.7
945.1642	2155.4287	29397	28510.2
945.2994	2156.9417	29350.05	28463.5
945.4346	2158.454	29279.15	28393.7
945.5697	2159.9655	29182.65	28301.1
945.7048	2161.4764	29133.7	28250.35
945.8399	2162.9865	29037.05	28154.85
945.9749	2164.4958	28916.05	28034.4
946.1099	2166.0045	28819.85	27932.4
946.2449	2167.5124	28779.2	27898
946.3799	2169.0195	28709.4	27825.5
946.5148	2170.526	28694.25	27808.1
946.6498	2172.0317	28560.95	27674.55
946.7846	2173.5367	28474.2	27588.25
946.9195	2175.0409	28379.05	27494.8
947.0543	2176.5445	28363.15	27479.55
947.1891	2178.0473	28226	27339.5
947.3239	2179.5494	28078.75	27188.25
947.4587	2181.0507	27968.6	27084.9
947.5934	2182.5513	27922.35	27038.8
947.7281	2184.0512	27841.2	26959.15
947.8628	2185.5504	27777.25	26892.15
947.9974	2187.0488	27619.25	26736.7
948.132	2188.5465	27516.4	26633.2
948.2666	2190.0435	27440.45	26556.9
948.4012	2191.5397	27336.15	26452.85
948.5357	2193.0353	27275.65	26391.95
948.6702	2194.5301	27111.75	26224.85
948.8047	2196.0241	27017.7	26132.2
948.9392	2197.5175	26973.75	26084.95
949.0736	2199.0101	26881.35	25990.05
949.208	2200.502	26737.85	25853.15
949.3424	2201.9931	26655.8	25771.45
949.4767	2203.4835	26537.9	25652.4
949.611	2204.9733	26506.2	25617
949.7453	2206.4622	26430.45	25550.95
949.8796	2207.9505	26290.8	25406.25
950.0138	2209.438	26167.45	25287.75
950.148	2210.9248	26115.3	25228.65
950.2822	2212.4109	26062.35	25178.55
950.4164	2213.8962	25928.5	25039.5
950.5505	2215.3809	25853.5	24965.15
950.6846	2216.8648	25804.7	24915.25
950.8186	2218.3479	25782.7	24891.05
950.9527	2219.8304	25644.2	24754.15
951.0867	2221.3121	25537	24647.7
951.2207	2222.7931	25457.9	24573.05
951.3546	2224.2733	25329.8	24443.1
951.4886	2225.7529	25261.35	24376.05
951.6225	2227.2317	25135	24249.25
951.7563	2228.7098	25120	24233.85
951.8902	2230.1872	25012.95	24131.45
952.024	2231.6638	25003.95	24120.35
952.1578	2233.1397	24861.2	23971.65
952.2916	2234.6149	24787.05	23903.15
952.4253	2236.0894	24699	23815.2
952.559	2237.5632	24642.45	23756.65
952.6927	2239.0362	24555.3	23671.9
952.8263	2240.5085	24477.5	23593.65
952.9599	2241.9801	24369.9	23483.9
953.0935	2243.4509	24297.15	23412
953.2271	2244.921	24236.85	23350.85
953.3606	2246.3904	24115.2	23225.65
953.4941	2247.8591	24084.8	23199.85
953.6276	2249.3271	23988.35	23102.75
953.7611	2250.7943	23886.55	22999.05
953.8945	2252.2608	23822.2	22932.4
954.0279	2253.7266	23736.5	22850
954.1612	2255.1917	23679.3	22792.85
954.2946	2256.656	23609.2	22726.05
954.4279	2258.1197	23497.8	22615.6
954.5612	2259.5826	23435.5	22550.95
954.6944	2261.0447	23409.65	22524.3
954.8276	2262.5062	23299.5	22411.5
954.9608	2263.9669	23237.6	22349.9
955.094	2265.4269	23197.25	22313.7
955.2271	2266.8862	23123.7	22239.5
955.3602	2268.3448	23065.9	22183.55
955.4933	2269.8026	23079.15	22196.5
955.6264	2271.2598	22905.55	22022.65
955.7594	2272.7162	22850	21965.8
955.8924	2274.1719	22794.9	21907.7
956.0253	2275.6268	22741.95	21853.8
956.1583	2277.0811	22683.85	21797.1
956.2912	2278.5346	22584.35	21698.95
956.4241	2279.9874	22568	21682.85
956.5569	2281.4395	22505.9	21626.3
956.6897	2282.8908	22422.95	21532.75
956.8225	2284.3414	22374.05	21488.75
956.9553	2285.7914	22262.85	21378
957.088	2287.2406	22210.9	21322.75
957.2207	2288.689	22128.95	21241.65
957.3534	2290.1368	22057.8	21169.45
957.486	2291.5838	21985.5	21094.4
957.6186	2293.0302	21947	21057.9
957.7512	2294.4758	21848.7	20960.85
957.8838	2295.9206	21749.8	20861
958.0163	2297.3648	21686.2	20801.9
958.1488	2298.8082	21695.7	20809.55
958.2813	2300.251	21606.7	20720.3
958.4137	2301.693	21510.25	20619.95
958.5461	2303.1343	21488.5	20601.95
958.6785	2304.5748	21368.3	20482.9
958.8108	2306.0147	21335.4	20449.95
958.9432	2307.4538	21267.5	20382.4
959.0754	2308.8922	21221.3	20340.75
959.2077	2310.3299	21130.25	20246.2
959.3399	2311.7669	21029.4	20148.65
959.4721	2313.2031	20964.45	20080.45
959.6043	2314.6387	20926.45	20040.35
959.7365	2316.0735	20828.25	19944.55
959.8686	2317.5076	20824.7	19939.15
960.0006	2318.941	20751.95	19866.1
960.1327	2320.3737	20700.8	19812.4
960.2647	2321.8056	20643.45	19754.55
960.3967	2323.2369	20532.45	19645.5
960.5287	2324.6674	20502.9	19616.05
960.6606	2326.0972	20465.2	19577.65
960.7925	2327.5263	20396.55	19509.4
960.9244	2328.9547	20283.6	19397.7
961.0562	2330.3823	20235.5	19348.6
961.1881	2331.8092	20249.25	19357.95
961.3198	2333.2355	20088.55	19200.4
961.4516	2334.661	20081.5	19192.2
961.5833	2336.0858	20019.45	19133.1
961.715	2337.5098	19982.85	19095.1
961.8467	2338.9332	19914.15	19027.55
961.9783	2340.3558	19829.85	18942.35
962.1099	2341.7778	19779.6	18895.3
962.2415	2343.199	19727.45	18840.55
962.373	2344.6195	19636.2	18751.2
962.5045	2346.0393	19590.45	18706.6
962.636	2347.4583	19564.45	18681.65
962.7675	2348.8767	19459.85	18571.3
962.8989	2350.2943	19439.9	18552.3
963.0303	2351.7113	19403.25	18513
963.1617	2353.1275	19289.9	18402.55
963.293	2354.543	19257.3	18360.95
963.4243	2355.9578	19195.25	18304.65
963.5556	2357.3718	19084.3	18201.65
963.6868	2358.7852	19023.5	18137.4
963.818	2360.1978	18934.05	18049.9
963.9492	2361.6098	18898.75	18012.95
964.0803	2363.021	18858.55	17969
964.2114	2364.4315	18764.35	17876.1
964.3425	2365.8413	18695	17802.15
964.4736	2367.2504	18638	17753.75
964.6046	2368.6587	18593.65	17707.95
964.7356	2370.0664	18513.1	17627.5
964.8666	2371.4733	18428.85	17544.65
964.9975	2372.8795	18371.1	17486.3
965.1284	2374.285	18294.75	17408.9
965.2593	2375.6899	18229.4	17343.55
965.3901	2377.0939	18145.45	17260.65
965.5209	2378.4973	18068.05	17182.85
965.6517	2379.9	18000.7	17114.6
965.7825	2381.3019	17940.45	17055.8
965.9132	2382.7032	17908.9	17024.7
966.0439	2384.1037	17889.3	17007.6
966.1745	2385.5035	17833.4	16950.05
966.3051	2386.9027	17738.05	16856.6
966.4357	2388.3011	17697.1	16810.45
966.5663	2389.6987	17665.25	16781.4
966.6968	2391.0957	17591.35	16707
966.8273	2392.492	17509.8	16625.25
966.9578	2393.8876	17416.35	16532.05
967.0882	2395.2824	17356.65	16472.9
967.2186	2396.6765	17280.95	16396.95
967.349	2398.07	17217.55	16331.8
967.4793	2399.4627	17161	16273.45
967.6097	2400.8547	17144.85	16258
967.7399	2402.246	17059.8	16167.65
967.8702	2403.6366	16962.95	16077.95
968.0004	2405.0265	16866.55	15981
968.1306	2406.4156	16825.95	15935.6
968.2607	2407.8041	16746.7	15858
968.3909	2409.1918	16676.95	15789.9
968.521	2410.5789	16607.75	15720.65
968.651	2411.9652	16572.15	15684.35
968.781	2413.3508	16516.55	15630.95
968.911	2414.7358	16442	15557.15
969.041	2416.12	16388.25	15501.45
969.1709	2417.5035	16358.3	15472.35
969.3008	2418.8863	16275.6	15389.45
969.4307	2420.2684	16226.7	15342.1
969.5606	2421.6497	16146.9	15260.85
969.6904	2423.0304	16040.6	15155.2
969.8201	2424.4104	16023.1	15136.85
969.9499	2425.7896	15971.35	15083.1
970.0796	2427.1682	15919.7	15035.3
970.2093	2428.546	15871.4	14986.15
970.3389	2429.9232	15849.55	14960.4
970.4685	2431.2996	15799.5	14913.85
970.5981	2432.6753	15759.6	14876.95
970.7277	2434.0503	15708.4	14821.95
970.8572	2435.4246	15641.6	14755.85
970.9867	2436.7982	15592.95	14705.2
971.1161	2438.1711	15526.65	14640.75
971.2456	2439.5433	15473.2	14585.35
971.375	2440.9148	15422.9	14535.25
971.5043	2442.2856	15323.6	14438.95
971.6336	2443.6557	15280.95	14393.5
971.7629	2445.025	15235.75	14352.95
971.8922	2446.3937	15231.6	14348.2
972.0214	2447.7617	15147.45	14262.3
972.1506	2449.1289	15149.95	14264.4
972.2798	2450.4955	15081.65	14192.4
972.4089	2451.8613	15053.1	14169.6
972.538	2453.2265	14998.6	14112.85
972.6671	2454.5909	14955.85	14069.2
972.7961	2455.9546	14919.05	14032.85
972.9251	2457.3177	14856.75	13972.1
973.0541	2458.68	14816.75	13930.5
973.1831	2460.0416	14776.2	13891
973.312	2461.4025	14779.05	13892.35
973.4408	2462.7627	14712.9	13815.8
973.5697	2464.1222	14664.55	13783.3
973.6985	2465.4811	14593.95	13711.8
973.8273	2466.8392	14559	13674.8
973.956	2468.1966	14516.25	13629.4
974.0847	2469.5533	14509.4	13621.65
974.2134	2470.9093	14465.2	13579.75
974.3421	2472.2645	14387.8	13500.5
974.4707	2473.6191	14317.85	13432.05
974.5993	2474.973	14269.75	13383.65
974.7278	2476.3262	14241.7	13353.45
974.8563	2477.6787	14187.8	13306.8
974.9848	2479.0305	14103.95	13218.55
975.1132	2480.3816	14074.85	13187.4
975.2417	2481.7319	14006.2	13121.65
975.37	2483.0816	13946.5	13060.95
975.4984	2484.4306	13916.25	13031.55
975.6267	2485.7789	13866.2	12983.3
975.755	2487.1264	13805.1	12919.45
975.8833	2488.4733	13759.65	12873.45
976.0115	2489.8195	13689.75	12799.95
976.1397	2491.165	13658.85	12770.15
976.2678	2492.5097	13582.6	12695.85
976.3959	2493.8538	13545.8	12660.25
976.524	2495.1972	13491.85	12606.2
976.6521	2496.5398	13438.3	12549.35
976.7801	2497.8818	13426.8	12539.3
976.9081	2499.2231	13367.95	12481.15
977.036	2500.5637	13321.7	12433
977.164	2501.9035	13270.75	12382.95
977.2918	2503.2427	13231.05	12340.9
977.4197	2504.5812	13170.75	12285.9
977.5475	2505.919	13127.95	12240.2
977.6753	2507.256	13084.2	12199.3
977.8031	2508.5924	13052.35	12165.7
977.9308	2509.9281	12973.8	12082.05
978.0585	2511.2631	12974.05	12090.15
978.1861	2512.5974	12958.2	12073.2
978.3137	2513.9309	12896.6	12012.1
978.4413	2515.2638	12849	11933.5
978.5689	2516.596	12776.1	11889.8
978.6964	2517.9275	12720.6	11834.55
978.8239	2519.2583	12669.2	11783.7
978.9513	2520.5884	12627.65	11741.75
979.0788	2521.9178	12597.95	11711.7
979.2062	2523.2465	12547.9	11663.2
979.3335	2524.5745	12497.9	11613.05
979.4608	2525.9018	12457.9	11572.85
979.5881	2527.2284	12422	11537.6
979.7154	2528.5543	12384.45	11500.4
979.8426	2529.8796	12346.75	11461
979.9698	2531.2041	12342.5	11454.5
980.0969	2532.5279	12302	11416.5
980.224	2533.851	12276.3	11390.35
980.3511	2535.1735	12243.75	11359.05
980.4781	2536.4952	12184.15	11298.25
980.6052	2537.8163	12179.9	11290.95
980.7321	2539.1366	12147.85	11260.5
980.8591	2540.4562	12087.5	11199.45
980.986	2541.7752	12066.7	11182.4
981.1129	2543.0935	12052.7	11166.15
981.2397	2544.411	12035.95	11148.7
981.3665	2545.7279	11967.65	11082.2
981.4933	2547.0441	11965.4	11079.15
981.62	2548.3596	11953.3	11065.45
981.7467	2549.6744	11904.95	11017.6
981.8734	2550.9885	11860.35	10967.1
982.0001	2552.3019	11820.3	10936.05
982.1267	2553.6146	11822.4	10936.25
982.2532	2554.9266	11765.75	10878.25
982.3798	2556.2379	11712.45	10826.8
982.5063	2557.5485	11715.45	10829.6
982.6327	2558.8585	11647.05	10752.55
982.7592	2560.1677	11651.35	10761.35
982.8856	2561.4762	11629.85	10744.3
983.0119	2562.7841	11594.55	10704.2
983.1383	2564.0913	11576.15	10692.15
983.2646	2565.3977	11543.75	10659.4
983.3908	2566.7035	11513.7	10627.75
983.517	2568.0086	11497	10609.95
983.6432	2569.313	11476.75	10590.45
983.7694	2570.6167	11412.85	10521.6
983.8955	2571.9197	11402.85	10517.1
984.0216	2573.222	11370.65	10480.2
984.1476	2574.5236	11349.85	10462.7
984.2737	2575.8246	11297.4	10407.55
984.3996	2577.1248	11317.3	10430
984.5256	2578.4244	11266.65	10380.5
984.6515	2579.7232	11255.85	10371.3
984.7774	2581.0214	11242.55	10331.05
984.9032	2582.3189	11189	10303.2
985.029	2583.6157	11158.55	10269.4
985.1548	2584.9118	11145.25	10259.25
985.2806	2586.2072	11096.65	10210.45
985.4063	2587.5019	11066.3	10180.65
985.5319	2588.7959	11048.15	10160.95
985.6576	2590.0893	11038.3	10150.85
985.7832	2591.3819	11010.1	10126.5
985.9087	2592.6739	10908.95	10024.5
986.0343	2593.9652	10914.5	10026.4
986.1597	2595.2557	10871.6	9987
986.2852	2596.5456	10829.15	9940.5
986.4106	2597.8348	10809.15	9922.8
986.536	2599.1234	10763.5	9878.35
986.6614	2600.4112	10707.5	9823.05
986.7867	2601.6983	10670.35	9781.15
986.912	2602.9848	10665.9	9781.25
987.0372	2604.2705	10590.4	9698.5
987.1624	2605.5556	10582.35	9695.1
987.2876	2606.84	10502.25	9618.05
987.4128	2608.1237	10480	9595.35
987.5379	2609.4067	10448.9	9562.85
987.6629	2610.689	10394.7	9499.65
987.788	2611.9707	10377.35	9488.95
987.913	2613.2516	10341.6	9452.7
988.0379	2614.5319	10269.2	9386.3
988.1629	2615.8115	10247.25	9362.5
988.2878	2617.0903	10204.2	9318.9
988.4126	2618.3685	10152.8	9267.35
988.5375	2619.6461	10118.9	9234.05
988.6622	2620.9229	10094.75	9208.7
988.787	2622.199	10074.7	9187.85
988.9117	2623.4745	10044.05	9159.1
989.0364	2624.7493	10004.3	9120.9
989.161	2626.0234	9978.05	9093.85
989.2857	2627.2968	9921.35	9036
989.4102	2628.5695	9882.25	8995.45
989.5348	2629.8415	9832	8948.35
989.6593	2631.1128	9797.3	8909.8
989.7837	2632.3835	9754.4	8870.15
989.9082	2633.6535	9698.1	8813.5
990.0326	2634.9228	9677	8793.35
990.1569	2636.1914	9637.15	8751.4
990.2812	2637.4593	9612.95	8722
990.4055	2638.7265	9603.15	8718.8
990.5298	2639.9931	9549.5	8664.55
990.654	2641.259	9544.95	8659.4
990.7782	2642.5242	9513.45	8628.9
990.9023	2643.7887	9467.75	8581.3
991.0264	2645.0525	9460.95	8575.85
991.1505	2646.3156	9420.7	8535.45
991.2745	2647.5781	9389.25	8504.4
991.3985	2648.8398	9356.75	8471.55
991.5225	2650.1009	9326.35	8405.6
991.6464	2651.3613	9297.95	8413.45
991.7703	2652.6211	9272.9	8387.6
991.8942	2653.8801	9249.25	8363.75
992.018	2655.1385	9197.3	8309.75
992.1418	2656.3961	9219.15	8333.8
992.2655	2657.6531	9167.7	8284.35
992.3892	2658.9094	9127.8	8242.5
992.5129	2660.1651	9098.05	8214.05
992.6366	2661.42	9095.2	8209.6
992.7602	2662.6743	9060.15	8172.9
992.8837	2663.9279	9044.6	8160.55
993.0073	2665.1808	9011.75	8126.45
993.1307	2666.433	8997.8	8110.7
993.2542	2667.6846	8956.95	8073.25
993.3776	2668.9354	8945.75	8058.55
993.501	2670.1856	8924.6	8039.5
993.6244	2671.4351	8897.6	8012.4
993.7477	2672.6839	8882.95	7996.35
993.8709	2673.9321	8830.35	7948.05
993.9942	2675.1795	8798.55	7912.6
994.1174	2676.4263	8790.8	7907.1
994.2405	2677.6724	8768.05	7883.95
994.3637	2678.9179	8714.25	7829.55
994.4868	2680.1626	8712.05	7830
994.6098	2681.4067	8662.95	7776.3
994.7328	2682.6501	8645.4	7759.65
994.8558	2683.8928	8605.55	7722.15
994.9788	2685.1348	8590.75	7706.7
995.1017	2686.3761	8556.45	7672.65
995.2245	2687.6168	8521.25	7636.9
995.3474	2688.8568	8490.95	7607.4
995.4702	2690.0961	8465.15	7581.9
995.5929	2691.3348	8442.75	7556.8
995.7156	2692.5727	8422.85	7537.9
995.8383	2693.81	8412.5	7530.45
995.961	2695.0466	8351.9	7468.85
996.0836	2696.2826	8339.05	7453.85
996.2062	2697.5178	8324.25	7438.15
996.3287	2698.7524	8287.8	7403.55
996.4512	2699.9863	8311.85	7426.45
996.5737	2701.2195	8228.75	7344.55
996.6961	2702.452	8221.95	7338.3
996.8185	2703.6839	8184.15	7297.2
996.9408	2704.9151	8159.85	7277.3
997.0631	2706.1456	8124.05	7240.5
997.1854	2707.3755	8110	7225.6
997.3077	2708.6046	8083.65	7198.5
997.4299	2709.8331	8069	7181.55
997.552	2711.0609	8047.65	7164.05
997.6742	2712.2881	8021.8	7136.35
997.7963	2713.5145	7994.95	7107.65
997.9183	2714.7403	7971.95	7088.55
998.0403	2715.9654	7938.45	7051.7
998.1623	2717.1899	7920.45	7034.1
998.2842	2718.4136	7915.1	7032.1
998.4062	2719.6367	7887.75	7003.75
998.528	2720.8591	7845.6	6955.9
998.6498	2722.0809	7833.5	6948.05
998.7716	2723.3019	7803.4	6915.95
998.8934	2724.5223	7798.4	6913.95
999.0151	2725.7421	7760.15	6873.5
999.1368	2726.9611	7767.75	6881.6
999.2584	2728.1795	7723.5	6836.75
999.38	2729.3972	7687.75	6805.6
999.5016	2730.6142	7649.85	6758.45
999.6231	2731.8306	7582.25	6696.85
999.7446	2733.0462	7564	6676.35
999.8661	2734.2612	7529.85	6639
999.9875	2735.4756	7481.9	6596.35
1000.1089	2736.6892	7439.8	6556.15
1000.2302	2737.9022	7412.3	6529.15
1000.3515	2739.1145	7404.5	6520.85
1000.4728	2740.3262	7353.4	6461.9
1000.594	2741.5372	7333.75	6450.2
1000.7152	2742.7475	7279.25	6395.55
1000.8363	2743.9571	7270.2	6383.6
1000.9575	2745.1661	7232.1	6343.2
1001.0785	2746.3744	7225.7	6341.95
1001.1996	2747.582	7179.9	6296.5
1001.3206	2748.7889	7156.55	6269.25
1001.4415	2749.9952	7135.15	6252.7
1001.5625	2751.2008	7107.3	6220.8
1001.6833	2752.4057	7064.35	6178.5
1001.8042	2753.61	7046.15	6160.9
1001.925	2754.8136	7030.65	6144.3
1002.0458	2756.0165	6995.9	6113.8
1002.1665	2757.2188	6956.65	6073.5
1002.2872	2758.4204	6951.45	6068.15
1002.4078	2759.6213	6928.2	6042.7
1002.5285	2760.8215	6936.75	6049.45
1002.649	2762.0211	6892.3	6008.95
1002.7696	2763.22	6867	5979.2
1002.8901	2764.4182	6829.3	5945.1
1003.0106	2765.6158	6800.35	5914.85
1003.131	2766.8127	6788.45	5906.8
1003.2514	2768.009	6757.15	5873.5
1003.3717	2769.2045	6744.35	5861.1
1003.492	2770.3994	6731.95	5846.2
1003.6123	2771.5936	6718	5835.55
1003.7325	2772.7872	6682.15	5801.2
1003.8527	2773.9801	6632.95	5747.85
1003.9729	2775.1723	6638.2	5738.2
1004.093	2776.3639	6594.4	5712.15
1004.2131	2777.5548	6578.7	5693.15
1004.3331	2778.745	6555.25	5670.05
1004.4531	2779.9346	6545.35	5663.35
1004.5731	2781.1235	6512.85	5629
1004.693	2782.3117	6506.25	5627.65
1004.8129	2783.4992	6485.35	5602.6
1004.9328	2784.6861	6457.05	5574.5
1005.0526	2785.8723	6454.8	5570.4
1005.1723	2787.0579	6424.6	5538.95
1005.2921	2788.2428	6410.9	5526.25
1005.4118	2789.427	6358.45	5475.8
1005.5314	2790.6106	6375.95	5492.1
1005.651	2791.7935	6363.75	5481.1
1005.7706	2792.9757	6327.7	5445.25
1005.8902	2794.1573	6309.5	5425.05
1006.0097	2795.3382	6302.8	5420.1
1006.1291	2796.5184	6282.3	5400.85
1006.2485	2797.698	6264.55	5380.7
1006.3679	2798.8769	6242.5	5359.3
1006.4873	2800.0551	6207.5	5323.25
1006.6066	2801.2327	6236.35	5350.55
1006.7258	2802.4096	6219.9	5339.4
1006.8451	2803.5859	6190.7	5308.35
1006.9642	2804.7615	6201.55	5317.95
1007.0834	2805.9364	6178.45	5295.1
1007.2025	2807.1106	6175	5292.95
1007.3216	2808.2842	6180.9	5294.9
1007.4406	2809.4572	6179.2	5295.8
1007.5596	2810.6294	6176.1	5293.4
1007.6785	2811.801	6200.8	5319.25
1007.7975	2812.972	6208.15	5327.35
1007.9163	2814.1423	6214.85	5332.1
1008.0352	2815.3119	6236.6	5355.95
1008.154	2816.4808	6242.05	5358.3
1008.2727	2817.6491	6278.05	5397.05
1008.3914	2818.8167	6284.9	5403.4
1008.5101	2819.9837	6317.6	5428.15
1008.6288	2821.15	6326	5443.2
1008.7474	2822.3157	6348.45	5465.35
1008.8659	2823.4807	6365.15	5483.2
1008.9844	2824.645	6425.65	5542.55
1009.1029	2825.8086	6448.1	5565.85
1009.2214	2826.9716	6455.75	5575.9
1009.3398	2828.134	6483.8	5603.35
1009.4581	2829.2957	6525.35	5645.75
1009.5764	2830.4567	6523.3	5642.55
1009.6947	2831.617	6533.3	5650.85
1009.813	2832.7767	6523.95	5642.4
1009.9312	2833.9358	6500.95	5619.95
1010.0493	2835.0941	6495.2	5610.85
1010.1675	2836.2519	6459.05	5576.65
1010.2855	2837.4089	6453.15	5570.3
1010.4036	2838.5653	6421.8	5539.85
1010.5216	2839.7211	6400.6	5519.3
1010.6396	2840.8761	6377.35	5493.5
1010.7575	2842.0306	6371.85	5490.95
1010.8754	2843.1843	6397.9	5516.5
1010.9932	2844.3374	6401.85	5519.9
1011.111	2845.4899	6434.55	5551.05
1011.2288	2846.6417	6450.4	5569.1
1011.3465	2847.7928	6484.15	5603.1
1011.4642	2848.9433	6532.4	5649.7
1011.5818	2850.0931	6564.6	5682.8
1011.6995	2851.2422	6586.5	5701
1011.817	2852.3907	6632	5747.1
1011.9345	2853.5385	6662.6	5778.2
1012.052	2854.6857	6694.05	5802.35
1012.1695	2855.8323	6694.6	5813.7
1012.2869	2856.9781	6702.45	5819
1012.4042	2858.1233	6729.55	5847.55
1012.5216	2859.2679	6754.7	5872.25
1012.6389	2860.4118	6770.6	5888.95
1012.7561	2861.555	6784.8	5895.45
1012.8733	2862.6976	6825.05	5942.15
1012.9905	2863.8395	6806.85	5925.55
1013.1076	2864.9808	6803.45	5923.15
1013.2247	2866.1214	6815.8	5935.4
1013.3417	2867.2614	6795.2	5913.6
1013.4587	2868.4007	6802.25	5918.55
1013.5757	2869.5393	6783.85	5899.45
1013.6926	2870.6773	6802.4	5917
1013.8095	2871.8146	6791.75	5907.4
1013.9263	2872.9513	6757.75	5874.7
1014.0431	2874.0874	6730	5846.55
1014.1599	2875.2227	6711.9	5830.65
1014.2766	2876.3574	6698.95	5816.65
1014.3933	2877.4915	6648.65	5767.2
1014.51	2878.6249	6613.25	5731.95
1014.6266	2879.7577	6580.65	5698.5
1014.7431	2880.8898	6557.75	5666.05
1014.8596	2882.0212	6517.55	5637.65
1014.9761	2883.152	6489.65	5607.7
1015.0925	2884.2821	6453.8	5574.2
1015.2089	2885.4116	6438.75	5558.1
1015.3253	2886.5405	6414	5533.05
1015.4416	2887.6686	6404.3	5519.1
1015.5579	2888.7962	6390.05	5511.25
1015.6741	2889.923	6398.6	5517.9
1015.7903	2891.0493	6361.8	5480.25
1015.9065	2892.1748	6366.45	5483.8
1016.0226	2893.2997	6346.6	5465.4
1016.1387	2894.424	6345.15	5463.4
1016.2547	2895.5476	6327.05	5444.5
1016.3707	2896.6706	6338.45	5458.35
1016.4866	2897.7929	6316.3	5436.3
1016.6025	2898.9145	6321.65	5438.65
1016.7184	2900.0355	6349.45	5469
1016.8342	2901.1559	6343.95	5462.9
1016.95	2902.2756	6364.75	5483.9
1017.0658	2903.3946	6363.9	5481.8
1017.1815	2904.513	6356.2	5470.85
1017.2971	2905.6308	6358.85	5476.75
1017.4127	2906.7479	6359.6	5475.9
1017.5283	2907.8643	6376.05	5494.75
1017.6439	2908.9801	6360.45	5479.75
1017.7594	2910.0953	6335.75	5454.1
1017.8748	2911.2098	6340.7	5458.05
1017.9902	2912.3236	6313.65	5424.6
1018.1056	2913.4368	6290.4	5406.4
1018.2209	2914.5494	6265.05	5383.05
1018.3362	2915.6613	6220.4	5332.15
1018.4515	2916.7725	6190.65	5306.9
1018.5667	2917.8831	6157.65	5273.75
1018.6819	2918.9931	6144	5258.45
1018.797	2920.1024	6111.7	5228.25
1018.9121	2921.211	6076.2	5195.95
1019.0271	2922.319	6055.7	5174.15
1019.1421	2923.4264	6029.65	5149.15
1019.2571	2924.5331	5989.3	5109.7
1019.372	2925.6391	5978.05	5097.05
1019.4869	2926.7445	5947.9	5068.15
1019.6017	2927.8493	5921.35	5040.1
1019.7165	2928.9534	5935.3	5053.2
1019.8313	2930.0569	5914.7	5029.7
1019.946	2931.1597	5922.35	5038.6
1020.0606	2932.2619	5912.15	5031.65
1020.1753	2933.3634	5882.65	5001.9
1020.2899	2934.4643	5888.65	5001.55
1020.4044	2935.5645	5873.25	4987.4
1020.5189	2936.6641	5835.2	4948.9
1020.6334	2937.763	5794.8	4914.6
1020.7478	2938.8613	5736.85	4853.85
1020.8622	2939.959	5704.8	4816.8
1020.9765	2941.056	5658.45	4778.6
1021.0908	2942.1523	5562	4678.1
1021.2051	2943.248	5492.75	4614.65
1021.3193	2944.3431	5387.7	4508.3
1021.4334	2945.4375	5313.75	4433.5
1021.5476	2946.5313	5235.7	4357.3
1021.6617	2947.6244	5153.7	4272.6
1021.7757	2948.7169	5055.6	4174.15
1021.8897	2949.8087	4979.95	4098.25
1022.0037	2950.8999	4887.1	4003.75
1022.1176	2951.9904	4823	3940.85
1022.2315	2953.0803	4752.75	3870.55
1022.3453	2954.1696	4698.85	3819
1022.4591	2955.2582	4650.2	3770.7
1022.5728	2956.3462	4579.55	3698.45
1022.6865	2957.4335	4543.5	3661.7
1022.8002	2958.5202	4511.4	3628.55
1022.9138	2959.6062	4464.3	3583.75
1023.0274	2960.6916	4447.9	3569.75
1023.141	2961.7764	4416.7	3535
1023.2545	2962.8605	4398.5	3518.1
1023.3679	2963.9439	4372.9	3490.75
1023.4813	2965.0267	4343.15	3460.65
1023.5947	2966.1089	4332.6	3426.55
1023.708	2967.1905	4299.3	3419.4
1023.8213	2968.2714	4302.4	3419.85
1023.9346	2969.3516	4287.95	3408.95
1024.0478	2970.4312	4279.55	3390.1
1024.1609	2971.5102	4265.65	3388.25
1024.274	2972.5885	4230.7	3347.45
1024.3871	2973.6662	4246.3	3361.9
1024.5002	2974.7432	4222.95	3342.55
1024.6132	2975.8196	4204.05	3322.2
1024.7261	2976.8954	4199.35	3319.9
1024.839	2977.9705	4188.05	3307.3
1024.9519	2979.045	4152.35	3272.45
1025.0647	2980.1188	4125.6	3245.95
1025.1775	2981.192	4100.35	3220
1025.2902	2982.2645	4086.4	3204.35
1025.4029	2983.3364	4053	3172.6
1025.5156	2984.4077	4016.2	3134.75
1025.6282	2985.4783	3998.95	3111.8
1025.7407	2986.5483	3969.05	3088.7
1025.8532	2987.6177	3931.45	3050.6
1025.9657	2988.6864	3891.3	3008.5
1026.0782	2989.7545	3869.1	2986.7
1026.1906	2990.8219	3826.65	2947.2
1026.3029	2991.8887	3794.9	2911.1
1026.4152	2992.9548	3776.25	2893.8
1026.5275	2994.0204	3721.2	2841.2
1026.6397	2995.0852	3691.35	2811.5
1026.7519	2996.1495	3664.05	2782.05
1026.864	2997.2131	3628.1	2746.9
1026.9761	2998.276	3609.6	2730.55
1027.0882	2999.3383	3590.7	2708.95
1027.2002	3000.4	3562.1	2678.8
1027.3122	3001.4611	3539.8	2658.8
1027.4241	3002.5215	3517.05	2636.5
1027.536	3003.5812	3486.2	2606.3
1027.6478	3004.6404	3461.8	2581.05
1027.7596	3005.6989	3459.4	2577.15
1027.8714	3006.7567	3446.85	2568.05
1027.9831	3007.8139	3428.15	2517.25
1028.0947	3008.8705	3415	2534.15
1028.2064	3009.9264	3395.85	2513.55
1028.3179	3010.9818	3370.9	2489.85
1028.4295	3012.0364	3371.9	2490.35
1028.541	3013.0905	3355.25	2475.45
1028.6524	3014.1439	3333.35	2453.05
1028.7638	3015.1966	3316.15	2437.25
1028.8752	3016.2487	3307.3	2427
1028.9865	3017.3002	3303.35	2419.55
1029.0978	3018.3511	3293.7	2412.65
1029.209	3019.4013	3285.15	2403.4
1029.3202	3020.4509	3267	2387.75
1029.4314	3021.4998	3259	2378.1
1029.5425	3022.5481	3251.3	2374.2
1029.6535	3023.5958	3241.95	2362.05
1029.7645	3024.6428	3232.5	2352.15
1029.8755	3025.6892	3213.2	2334.75
1029.9864	3026.735	3223.4	2342.75
1030.0973	3027.7802	3207.95	2327.35
1030.2082	3028.8247	3195.5	2315.6
1030.319	3029.8685	3172.65	2290.85
1030.4297	3030.9118	3171.1	2289.2
1030.5404	3031.9544	3170	2288.2
1030.6511	3032.9963	3163.9	2284.65
1030.7617	3034.0376	3150.9	2270.1
1030.8723	3035.0783	3145.55	2261.75
1030.9829	3036.1184	3135	2253.15
1031.0934	3037.1578	3138.35	2259.6
1031.2038	3038.1966	3129.95	2248
1031.3142	3039.2348	3128.35	2248.75
1031.4246	3040.2723	3112.6	2222.7
1031.5349	3041.3092	3105.85	2227.4
1031.6452	3042.3455	3076.95	2197.4
1031.7554	3043.3811	3087.55	2206.7
1031.8656	3044.4161	3087.5	2206.7
1031.9758	3045.4505	3073.35	2192.85
1032.0859	3046.4842	3070.6	2191.95
1032.1959	3047.5173	3036.8	2156.95
1032.3059	3048.5498	3036.2	2155.15
1032.4159	3049.5816	3022.75	2141.5
1032.5258	3050.6128	3019.6	2140.7
1032.6357	3051.6434	2994.65	2113.7
1032.7455	3052.6734	2996.1	2116.75
1032.8553	3053.7027	2999.65	2119.3
1032.9651	3054.7314	2973.95	2094.65
1033.0748	3055.7594	2974.75	2095.1
1033.1845	3056.7868	2960.55	2078.65
1033.2941	3057.8136	2936.25	2056.65
1033.4037	3058.8398	2933.75	2055.9
1033.5132	3059.8653	2914.4	2034.7
1033.6227	3060.8902	2915.6	2033.55
1033.7321	3061.9145	2900.9	2021.4
1033.8415	3062.9381	2892.5	2012.1
1033.9509	3063.9612	2890.75	1996.15
1034.0602	3064.9835	2882.3	2002.85
1034.1694	3066.0053	2857.95	1976.4
1034.2787	3067.0264	2849.6	1970.35
1034.3878	3068.0469	2846.55	1967.1
1034.497	3069.0668	2837.45	1953.35
1034.6061	3070.086	2822.75	1944.5
1034.7151	3071.1046	2818.05	1937
1034.8241	3072.1226	2802.75	1922.5
1034.9331	3073.1399	2787.25	1908.25
1035.042	3074.1567	2768.7	1887.7
1035.1508	3075.1727	2751.15	1869.3
1035.2597	3076.1882	2749.7	1868.15
1035.3684	3077.203	2735.5	1854.6
1035.4772	3078.2173	2727.5	1846.65
1035.5859	3079.2308	2713.55	1833.4
1035.6945	3080.2438	2700.85	1818.8
1035.8031	3081.2561	2686.3	1807.15
1035.9117	3082.2678	2669.55	1790.75
1036.0202	3083.2789	2666.35	1785.15
1036.1286	3084.2893	2658.35	1779.6
1036.2371	3085.2991	2643.65	1763.7
1036.3454	3086.3083	2639.05	1752.9
1036.4538	3087.3169	2625.05	1742.25
1036.562	3088.3248	2617.7	1735.4
1036.6703	3089.3321	2602.7	1718.9
1036.7785	3090.3388	2602.75	1723.15
1036.8866	3091.3449	2573.45	1695.05
1036.9948	3092.3503	2572.6	1691.95
1037.1028	3093.3551	2563.85	1684.85
1037.2108	3094.3593	2558.6	1681.15
1037.3188	3095.3629	2543.85	1664.7
1037.4267	3096.3658	2544.3	1662.35
1037.5346	3097.3681	2521.15	1640.05
1037.6425	3098.3698	2515.8	1635.85
1037.7503	3099.3708	2513.85	1627.95
1037.858	3100.3713	2500.8	1622.15
1037.9657	3101.3711	2485.1	1606
1038.0734	3102.3702	2607.8	1589.4
1038.181	3103.3688	2473.95	1593.95
1038.2886	3104.3667	2454.3	1575.4
1038.3961	3105.364	2452.35	1571.7
1038.5036	3106.3607	2444	1562.9
1038.611	3107.3568	2436.55	1554.9
1038.7184	3108.3522	2416.9	1539.45
1038.8257	3109.347	2416.6	1537.55
1038.933	3110.3412	2407	1523.65
1039.0403	3111.3348	2392.8	1513.05
1039.1475	3112.3277	2375.45	1494.75
1039.2547	3113.32	2371.35	1492.05
1039.3618	3114.3117	2363.85	1482.55
1039.4689	3115.3028	2359.3	1480.9
1039.5759	3116.2932	2349.25	1469.2
1039.6829	3117.2831	2338.85	1452.65
1039.7898	3118.2723	2322.4	1441.35
1039.8967	3119.2608	2319.5	1439.4
1040.0035	3120.2488	2316.35	1437.1
1040.1103	3121.2361	2313	1431.75
1040.2171	3122.2229	2292.9	1413.2
1040.3238	3123.209	2290.7	1410.1
1040.4305	3124.1944	2286.3	1407.35
1040.5371	3125.1793	2268.55	1387.4
1040.6437	3126.1635	2265.5	1387.7
1040.7502	3127.1471	2254	1372.75
1040.8567	3128.1301	2262.05	1382.65
1040.9631	3129.1125	2245.15	1364.8
1041.0695	3130.0942	2244.9	1365.15
1041.1759	3131.0753	2242	1352.15
1041.2822	3132.0558	2228.5	1345.75
1041.3884	3133.0357	2216.75	1336.95
1041.4946	3134.015	2216.75	1335
1041.6008	3134.9936	2220.5	1339.9
1041.7069	3135.9716	2227.6	1325.8
1041.813	3136.949	2207.2	1327.5
1041.919	3137.9258	2198.1	1312.65
1042.025	3138.902	2189	1304.4
1042.1309	3139.8775	2183.85	1304.45
1042.2368	3140.8524	2184.15	1303.2
1042.3427	3141.8267	2184.9	1303.3
1042.4485	3142.8004	2168.25	1288.6
1042.5542	3143.7735	2168.8	1280.9
1042.6599	3144.7459	2157.15	1275.25
1042.7656	3145.7178	2153.9	1272.5
1042.8712	3146.689	2147.4	1269.05
1042.9768	3147.6596	2139.7	1259.05
1043.0823	3148.6295	2128.2	1250.05
1043.1878	3149.5989	2123.7	1244.15
1043.2932	3150.5676	2114.4	1237.05
1043.3986	3151.5357	2105.8	1228.7
1043.5039	3152.5032	2099.1	1221.25
1043.6092	3153.4701	2082.3	1201.9
1043.7145	3154.4364	2078.45	1195.55
1043.8197	3155.402	2067.6	1189.8
1043.9248	3156.367	2073.85	1193.8
1044.03	3157.3315	2086.85	1169.15
1044.135	3158.2952	2062.1	1183.6
1044.24	3159.2584	2052.7	1172.4
1044.345	3160.221	2042.35	1162.25
1044.4499	3161.1829	2045.05	1164.2
1044.5548	3162.1442	2030	1150.3
1044.6596	3163.105	2024.95	1146.8
1044.7644	3164.065	2003.05	1125.2
1044.8692	3165.0245	2014.15	1131.05
1044.9739	3165.9834	2005.55	1128.35
1045.0785	3166.9416	2001.1	1121.4
1045.1831	3167.8993	1998.35	1118.4
1045.2877	3168.8563	1987.25	1108.4
1045.3922	3169.8127	1982.6	1103.8
1045.4966	3170.7684	1977.95	1100.7
1045.6011	3171.7236	1972.3	1093.1
1045.7054	3172.6782	1968.55	1089.1
1045.8098	3173.6321	1962.65	1083.6
1045.914	3174.5854	1963.65	1077.4
1046.0183	3175.5381	1947.95	1070.45
1046.1224	3176.4902	1936.7	1056.35
1046.2266	3177.4417	1939.1	1062.15
1046.3307	3178.3926	1928.85	1050.55
1046.4347	3179.3428	1912.7	1034.6
1046.5387	3180.2924	1915.4	1035.8
1046.6427	3181.2415	1901.95	1020.9
1046.7466	3182.1899	1902.4	1023.6
1046.8504	3183.1377	1904.35	1026
1046.9542	3184.0848	1901.35	1018.5
1047.058	3185.0314	1887.25	1008.15
1047.1617	3185.9773	1891.2	1010.85
1047.2654	3186.9227	1873.2	993.9
1047.369	3187.8674	1868.45	988.85
1047.4726	3188.8115	1880.1	997.2
1047.5761	3189.755	1859.65	980.5
1047.6796	3190.6979	1858.25	976.65
1047.783	3191.6402	1850.2	971.35
1047.8864	3192.5818	1850.35	972.1
1047.9898	3193.5229	1860.9	962.8
1048.0931	3194.4633	1829.9	949
1048.1963	3195.4031	1837.65	958.05
1048.2995	3196.3423	1820.35	942.05
1048.4027	3197.2809	1820.6	939.65
1048.5058	3198.2189	1819.4	940.7
1048.6089	3199.1563	1823.3	927.05
1048.7119	3200.0931	1805.95	928.1
1048.8148	3201.0292	1797.25	917.85
1048.9178	3201.9648	1801.8	922.95
1049.0206	3202.8997	1788.75	906.85
1049.1235	3203.834	1791.25	914.3
1049.2262	3204.7677	1784.2	904.45
1049.329	3205.7008	1779	898.4
1049.4317	3206.6333	1772.3	894.6
1049.5343	3207.5652	1768.95	889.5
1049.6369	3208.4964	1765.95	887.6
1049.7394	3209.4271	1766.6	889.4
1049.8419	3210.3571	1756	876.6
1049.9444	3211.2865	1750.8	873.55
1050.0468	3212.2154	1751.95	870.45
1050.1491	3213.1436	1743.4	863.85
1050.2514	3214.0712	1751.1	866.4
1050.3537	3214.9982	1738.4	859.5
1050.4559	3215.9246	1730.75	849.85
1050.5581	3216.8503	1724.45	846.1
1050.6602	3217.7755	1723	843.3
1050.7623	3218.7001	1721.75	843.75
1050.8643	3219.624	1717.2	838.9
1050.9663	3220.5473	1715.15	835.1
1051.0682	3221.4701	1708.75	829.35
1051.1701	3222.3922	1696.35	814.1
1051.2719	3223.3137	1694.3	813.25
1051.3737	3224.2346	1699.8	822.65
1051.4754	3225.1549	1690.85	813.15
1051.5771	3226.0746	1686.35	807.4
1051.6788	3226.9937	1679.95	801.35
1051.7804	3227.9121	1674.1	795.7
1051.8819	3228.83	1672.75	794.2
1051.9834	3229.7473	1677.65	797.55
1052.0849	3230.6639	1669.45	790.1
1052.1863	3231.5799	1660.45	780.5
1052.2876	3232.4954	1659.05	780.05
1052.3889	3233.4102	1650.5	773.9
1052.4902	3234.3244	1654	773.25
1052.5914	3235.238	1640.5	762.55
1052.6926	3236.151	1652.5	749.75
1052.7937	3237.0634	1619.2	743.65
1052.8948	3237.9752	1624.9	745.95
1052.9958	3238.8864	1624.55	744.95
1053.0968	3239.797	1611.9	731.2
1053.1977	3240.7069	1614.7	736.45
1053.2986	3241.6163	1608.5	726.95
1053.3994	3242.5251	1599.1	721.6
1053.5002	3243.4332	1592.55	715
1053.6009	3244.3408	1602.85	722.75
1053.7016	3245.2477	1595	716.4
1053.8022	3246.154	1589.15	709.7
1053.9028	3247.0598	1578.9	698.9
1054.0034	3247.9649	1581.75	704.35
1054.1039	3248.8694	1576.75	697.9
1054.2043	3249.7733	1570.55	691.55
1054.3047	3250.6766	1559.2	681.4
1054.4051	3251.5793	1556.85	679
1054.5054	3252.4814	1553.8	677.4
1054.6056	3253.3829	1552.1	671.1
1054.7058	3254.2838	1544.25	665.25
1054.806	3255.1841	1542.75	665.35
1054.9061	3256.0838	1538.1	660.85
1055.0061	3256.9829	1529.8	653
1055.1062	3257.8814	1531.65	649.4
1055.2061	3258.7792	1526.25	646.2
1055.306	3259.6765	1519.35	639.6
1055.4059	3260.5731	1505.35	626.25
1055.5057	3261.4692	1502.15	622.05
1055.6055	3262.3647	1497.65	616.65
1055.7052	3263.2595	1480.85	602.75
1055.8049	3264.1538	1474.15	596.45
1055.9045	3265.0474	1472.75	591.5
1056.0041	3265.9404	1452.8	576.1
1056.1036	3266.8329	1452	573.05
1056.2031	3267.7247	1449.1	561.75
1056.3025	3268.616	1423.4	547.4
1056.4019	3269.5066	1411.15	531.25
1056.5013	3270.3966	1398.45	517.9
1056.6005	3271.286	1380.85	503.2
