Software Version:	3.9.2.0
Unit SN:	10000200
Spectrometer SN:	6960
Date:	3/6/2024 10:21:37 AM
Data Line Index:	25
Spectral Points:	2048
Integration time (ms):	125
Averages:	20
Delay (ms):	30
Sequence Number:	1
Processing:	dark subtract
Laser Power (mW):	300
Laser Current (mA):	826
Laser Diode Temp (C):	25.1
Laser Case Temp (C):	25.5
System Temp (C):	25.3
Spectrometer Temp (C):	22.8
CCD Temp (C):	0.001
Secondary Temp (C):	20.014
Heatsink Temp (C):	20.627
CCDPCB Temp (C):	33.717
SecondaryPCB Temp (C):	27.203

Wavelength	RamanShift	Raw Counts	Dark Subtracted
787.061	30.1047	1077.6	666.05
787.2016	32.3739	1115.7	706.1
787.3422	34.6426	1144.35	734.5
787.4828	36.9109	1181.85	770.4
787.6235	39.1787	1246.55	830.9
787.7642	41.4461	1292.6	870.55
787.9049	43.7131	1364.8	938.95
788.0456	45.9796	1419.7	992.75
788.1863	48.2456	1470.15	1037.55
788.3271	50.5112	1537.55	1102
788.4679	52.7764	1605.95	1170.05
788.6087	55.0411	1679	1239.95
788.7496	57.3054	1750.3	1304
788.8904	59.5692	1829.45	1379.55
789.0313	61.8326	1925.55	1475.85
789.1722	64.0955	2012.15	1557.65
789.3132	66.3579	2136.4	1677.7
789.4541	68.6199	2278	1814.6
789.5951	70.8815	2514	2046.6
789.7361	73.1426	3034.25	2562.05
789.8771	75.4032	4357.9	3882.2
790.0181	77.6634	7747.6	7267.45
790.1592	79.9231	16632.45	16147.85
790.3003	82.1824	52656.25	52160.55
790.4414	84.4412	65535	65019
790.5825	86.6995	65535	64987.15
790.7237	88.9574	65535	64963.45
790.8648	91.2148	65535	64948.85
791.006	93.4717	65535	64934.95
791.1472	95.7282	65535	64929.95
791.2885	97.9842	65535	64928.35
791.4297	100.2398	65535	64926.9
791.571	102.4949	65535	64922.9
791.7123	104.7495	65535	64918.9
791.8536	107.0036	65535	64917.9
791.9949	109.2573	65535	64918.25
792.1363	111.5105	65535	64915.45
792.2777	113.7632	65535	64911.75
792.4191	116.0154	65535	64901.35
792.5605	118.2672	65535	64910.35
792.7019	120.5185	65535	64908.1
792.8434	122.7693	65535	64905.6
792.9849	125.0197	65535	64899.8
793.1264	127.2696	65535	64898
793.2679	129.519	65535	64894.5
793.4094	131.7679	65535	64890.8
793.551	134.0163	65535	64890.55
793.6926	136.2642	65535	64888.9
793.8342	138.5117	65535	64875.7
793.9758	140.7587	65535	64883.4
794.1175	143.0052	65535	64879.2
794.2591	145.2512	65535	64876.1
794.4008	147.4967	65535	64878.45
794.5425	149.7417	65535	64872.55
794.6842	151.9863	65535	64875.45
794.826	154.2304	65535	64867.05
794.9677	156.4739	65535	64860.2
795.1095	158.717	65535	64862.75
795.2513	160.9596	65535	64856.85
795.3931	163.2017	65535	64859.35
795.535	165.4433	65535	64850.4
795.6768	167.6844	65535	64853.65
795.8187	169.925	65535	64851.35
795.9606	172.1651	65535	64846
796.1025	174.4047	65535	64845.05
796.2445	176.6439	65535	64843.95
796.3864	178.8825	65535	64840.95
796.5284	181.1206	65535	64835.15
796.6704	183.3582	65535	64829.35
796.8124	185.5954	65535	64830.15
796.9544	187.832	65535	64825.2
797.0965	190.0681	65535	64822.45
797.2386	192.3037	65535	64818.75
797.3806	194.5388	65535	64817.05
797.5228	196.7734	65535	64816.2
797.6649	199.0075	65535	64812.2
797.807	201.2411	65535	64810.05
797.9492	203.4742	65535	64810.15
798.0914	205.7068	65535	64808.55
798.2336	207.9389	65535	64803.85
798.3758	210.1704	65535	64807.15
798.518	212.4015	65535	64814.15
798.6603	214.632	65535	64818.05
798.8025	216.862	65535	64826.9
798.9448	219.0915	65535	64824.95
799.0871	221.3205	65535	64822.65
799.2294	223.549	65535	64826.05
799.3718	225.777	65535	64827.3
799.5141	228.0044	65535	64824.3
799.6565	230.2314	65535	64822.35
799.7989	232.4578	65535	64819
799.9413	234.6837	65535	64805.2
800.0837	236.909	65535	64805.55
800.2262	239.1339	65535	64783.3
800.3687	241.3582	65535	64797.25
800.5111	243.582	65535	64766
800.6536	245.8053	65535	64781.05
800.7961	248.0281	65535	64784.15
800.9387	250.2503	65535	64782.4
801.0812	252.472	65535	64778.15
801.2238	254.6932	65535	64776.1
801.3664	256.9139	65535	64776.4
801.509	259.134	65535	64772.45
801.6516	261.3536	65535	64775.8
801.7942	263.5727	65535	64773.75
801.9369	265.7912	65535	64777
802.0795	268.0092	65535	64770.6
802.2222	270.2267	65535	64773.7
802.3649	272.4436	65535	64776
802.5076	274.6601	65535	64759.8
802.6504	276.8759	65535	64764.7
802.7931	279.0913	65535	64766.55
802.9359	281.3061	65535	64761.85
803.0787	283.5204	65535	64760
803.2215	285.7341	65535	64755.1
803.3643	287.9473	65535	64741.35
803.5071	290.16	65535	64754.25
803.6499	292.3721	65535	64758.6
803.7928	294.5837	65535	64755.1
803.9357	296.7947	65535	64757.2
804.0786	299.0052	65535	64755.8
804.2215	301.2152	65535	64757.8
804.3644	303.4246	65535	64755.5
804.5074	305.6334	65535	64757.95
804.6503	307.8418	65535	64753.8
804.7933	310.0495	65535	64751.5
804.9363	312.2568	65535	64751.6
805.0793	314.4635	65535	64748.7
805.2223	316.6696	65535	64747.95
805.3653	318.8752	65535	64738.55
805.5084	321.0802	65535	64746.65
805.6514	323.2847	65535	64744.95
805.7945	325.4887	65535	64745.15
805.9376	327.692	65535	64744.1
806.0807	329.8949	65535	64741.6
806.2238	332.0972	65535	64741.15
806.367	334.2989	65535	64737.25
806.5101	336.5001	65535	64736.8
806.6533	338.7007	65535	64738.35
806.7965	340.9008	65535	64736.5
806.9397	343.1003	65535	64730.45
807.0829	345.2992	65535	64734
807.2261	347.4976	65535	64730.8
807.3693	349.6955	65535	64725.8
807.5126	351.8927	65535	64727.5
807.6559	354.0895	65535	64715.45
807.7991	356.2856	65535	64724.15
807.9424	358.4812	65535	64727.25
808.0857	360.6763	65535	64723.45
808.2291	362.8707	65535	64724.25
808.3724	365.0646	65535	64717.45
808.5158	367.258	65535	64715.85
808.6591	369.4508	65535	64710.8
808.8025	371.643	65535	64712.85
808.9459	373.8346	65535	64710.4
809.0893	376.0257	65535	64709.65
809.2327	378.2162	65535	64711.3
809.3762	380.4062	65535	64710
809.5196	382.5956	65535	64705.3
809.6631	384.7844	65535	64714.4
809.8066	386.9726	65535	64713.35
809.9501	389.1603	65535	64718.65
810.0936	391.3474	65535	64676.95
810.2371	393.5339	65535	64720.3
810.3806	395.7199	65535	64717.25
810.5241	397.9052	65535	64716.3
810.6677	400.09	65535	64717.1
810.8113	402.2743	65535	64716.55
810.9548	404.4579	65535	64714.05
811.0984	406.641	65535	64713.1
811.2421	408.8235	65535	64711.85
811.3857	411.0054	65535	64713.45
811.5293	413.1868	65535	64704.2
811.673	415.3675	65535	64705.9
811.8166	417.5477	65535	64702.7
811.9603	419.7273	65535	64701.8
812.104	421.9064	65535	64692.4
812.2477	424.0848	65535	64697.3
812.3914	426.2627	65535	64697.7
812.5351	428.4399	65535	64695.85
812.6788	430.6166	65535	64695.4
812.8226	432.7928	65535	64692.55
812.9663	434.9683	65535	64693.8
813.1101	437.1432	65535	64689.05
813.2539	439.3176	65535	64692.1
813.3977	441.4914	65535	64693.95
813.5415	443.6645	65535	64691.35
813.6853	445.8371	65535	64694.85
813.8291	448.0091	65535	64691.6
813.973	450.1806	65535	64690
814.1168	452.3514	65535	64687.95
814.2607	454.5216	65535	64680.3
814.4046	456.6913	65535	64687.8
814.5485	458.8603	65535	64687.9
814.6924	461.0288	65535	64690.05
814.8363	463.1967	65535	64689.2
814.9802	465.3639	65535	64687.5
815.1241	467.5306	65535	64688.95
815.2681	469.6967	65535	64688.45
815.412	471.8622	65535	64686.3
815.556	474.0271	65535	64687.85
815.7	476.1914	65535	64684.2
815.844	478.3551	65535	64687.4
815.988	480.5182	65535	64685.5
816.132	482.6807	65535	64685.35
816.276	484.8426	65535	64687.1
816.4201	487.0039	65535	64684.55
816.5641	489.1647	65535	64683.55
816.7082	491.3248	65535	64681.65
816.8522	493.4843	65535	64683.6
816.9963	495.6432	65535	64684.4
817.1404	497.8015	65535	64677.2
817.2845	499.9592	65535	64678.25
817.4286	502.1163	65535	64677.85
817.5727	504.2728	65535	64678.65
817.7168	506.4287	65535	64676.9
817.861	508.5839	65535	64676.95
818.0051	510.7386	65535	64679.4
818.1493	512.8927	65535	64675.85
818.2935	515.0461	65535	64675.7
818.4377	517.199	65535	64678.8
818.5818	519.3512	65535	64675.8
818.726	521.5029	65535	64670.3
818.8703	523.6539	65535	64674.85
819.0145	525.8043	65535	64674.3
819.1587	527.9541	65535	64673.2
819.303	530.1033	65535	64671.65
819.4472	532.2519	65535	64673.65
819.5915	534.3999	65535	64669.3
819.7357	536.5472	65535	64675.8
819.88	538.694	65535	64674.55
820.0243	540.8401	65535	64672.45
820.1686	542.9856	65535	64669.25
820.3129	545.1305	65535	64664.05
820.4572	547.2748	65535	64668.1
820.6016	549.4185	65535	64663.8
820.7459	551.5615	65535	64665.3
820.8902	553.704	65535	64664.35
821.0346	555.8458	65535	64665
821.1789	557.987	65535	64668.35
821.3233	560.1276	65535	64665.2
821.4677	562.2675	65535	64666.45
821.6121	564.4069	65535	64665.25
821.7565	566.5456	65535	64667.25
821.9009	568.6837	65535	64663.15
822.0453	570.8212	65535	64667.35
822.1897	572.958	65535	64666.9
822.3342	575.0942	65535	64666.45
822.4786	577.2299	65535	64665.3
822.6231	579.3648	65535	64668.35
822.7675	581.4992	65535	64668.8
822.912	583.6329	65535	64669.2
823.0565	585.766	65535	64668.9
823.201	587.8985	65535	64668.85
823.3454	590.0304	65535	64645.2
823.4899	592.1616	65535	64662.2
823.6345	594.2922	65535	64663
823.779	596.4222	65535	64659.1
823.9235	598.5515	65535	64660.55
824.068	600.6802	65535	64660.15
824.2126	602.8083	65535	64660.9
824.3571	604.9358	65535	64660.15
824.5017	607.0626	65535	64658.35
824.6462	609.1888	65535	64657.35
824.7908	611.3144	65535	64657.05
824.9354	613.4393	65535	64658.6
825.08	615.5636	65535	64659.4
825.2246	617.6873	65535	64659.95
825.3692	619.8103	65535	64656.25
825.5138	621.9327	65535	64658.4
825.6584	624.0544	65535	64661.3
825.803	626.1756	65535	64658.25
825.9477	628.2961	65535	64653.9
826.0923	630.4159	65535	64658.95
826.237	632.5351	65535	64655.65
826.3816	634.6537	65535	64656.35
826.5263	636.7716	65535	64648.95
826.6709	638.8889	65535	64652.25
826.8156	641.0056	65535	64650.65
826.9603	643.1216	65535	64652.05
827.105	645.237	65535	64653.85
827.2497	647.3518	65535	64657.4
827.3944	649.4659	65535	64655.25
827.5391	651.5793	65535	64654.5
827.6838	653.6922	65535	64653.5
827.8285	655.8043	65535	64653.9
827.9733	657.9159	65535	64654.5
828.118	660.0268	65535	64649.45
828.2627	662.137	65535	64652.05
828.4075	664.2466	65535	64647.9
828.5522	666.3556	65535	64648.1
828.697	668.4639	65535	64651
828.8418	670.5716	65535	64652.4
828.9865	672.6786	65535	64648.1
829.1313	674.785	65535	64647.35
829.2761	676.8907	65535	64649.15
829.4209	678.9958	65535	64649.95
829.5657	681.1002	65535	64651.35
829.7105	683.204	65535	64644.7
829.8553	685.3072	65535	64647.8
830.0001	687.4097	65535	64650.2
830.1449	689.5115	65535	64647
830.2898	691.6127	65535	64647.6
830.4346	693.7132	65535	64648.4
830.5794	695.8131	65535	64625.35
830.7243	697.9123	65535	64647.25
830.8691	700.0109	65535	64642.85
831.014	702.1089	65535	64649.3
831.1588	704.2061	65535	64646.95
831.3037	706.3028	65535	64644.55
831.4486	708.3987	65535	64648.5
831.5935	710.4941	65535	64646.2
831.7383	712.5887	65535	64643.35
831.8832	714.6827	65535	64640.7
832.0281	716.7761	65535	64646.2
832.173	718.8688	65535	64643.75
832.3179	720.9608	65535	64641.75
832.4628	723.0522	65535	64640.25
832.6077	725.1429	65535	64643.65
832.7527	727.233	65535	64644.25
832.8976	729.3224	65535	64643.8
833.0425	731.4112	65535	64641.25
833.1874	733.4993	65535	64641.1
833.3324	735.5867	65535	64640.9
833.4773	737.6735	65535	64640.1
833.6222	739.7596	65535	64641.85
833.7672	741.845	65535	64641.65
833.9122	743.9298	65535	64639.85
834.0571	746.014	65535	64642.8
834.2021	748.0974	65535	64640.25
834.347	750.1802	65535	64641.65
834.492	752.2624	65535	64639.5
834.637	754.3439	65535	64636.1
834.782	756.4247	65535	64630.7
834.9269	758.5048	65535	64641.25
835.0719	760.5843	65535	64639.35
835.2169	762.6631	65535	64642.3
835.3619	764.7413	65535	64644.4
835.5069	766.8188	65535	64639.65
835.6519	768.8956	65535	64638.65
835.7969	770.9718	65535	64639.55
835.9419	773.0473	65535	64644.1
836.0869	775.1221	65535	64638.55
836.232	777.1962	65535	64638.65
836.377	779.2697	65535	64637.8
836.522	781.3426	65535	64616.9
836.667	783.4147	65535	64636.2
836.8121	785.4862	65535	64639.65
836.9571	787.557	65535	64640.1
837.1021	789.6271	65535	64636.95
837.2472	791.6966	65535	64638.65
837.3922	793.7654	65535	64636.4
837.5373	795.8335	65535	64637.15
837.6823	797.901	65535	64635.2
837.8274	799.9678	65535	64636.85
837.9724	802.0339	65535	64639.05
838.1175	804.0993	65535	64629.9
838.2626	806.1641	65535	64638.45
838.4076	808.2282	65535	64635.1
838.5527	810.2916	65535	64635.7
838.6978	812.3544	65535	64637.3
838.8428	814.4164	65535	64636.7
838.9879	816.4778	65535	64635.55
839.133	818.5385	65535	64639.5
839.2781	820.5986	65535	64637.35
839.4232	822.658	65535	64634.2
839.5682	824.7166	65535	64639.4
839.7133	826.7747	65535	64637.45
839.8584	828.832	65535	64638.4
840.0035	830.8886	65535	64633.85
840.1486	832.9446	65535	64635.2
840.2937	834.9999	65535	64635.85
840.4388	837.0545	65535	64635.8
840.5839	839.1085	65535	64637.25
840.729	841.1618	65535	64633.05
840.8741	843.2143	65535	64633.25
841.0192	845.2662	65535	64637.7
841.1643	847.3175	65535	64639.25
841.3095	849.368	65535	64634
841.4546	851.4179	65535	64634.5
841.5997	853.467	65535	64634.75
841.7448	855.5155	65535	64637.3
841.8899	857.5633	65535	64637.5
842.0351	859.6105	65535	64635.5
842.1802	861.6569	65535	64633.3
842.3253	863.7027	65535	64634.2
842.4704	865.7478	65535	64631.95
842.6156	867.7922	65535	64635.55
842.7607	869.8359	65535	64633.7
842.9058	871.8789	65535	64636.2
843.0509	873.9212	65535	64599
843.1961	875.9629	65535	64633.2
843.3412	878.0039	65535	64633.15
843.4863	880.0441	65535	64635.8
843.6315	882.0837	65535	64635
843.7766	884.1226	65535	64632.95
843.9218	886.1609	65535	64635.3
844.0669	888.1984	65535	64633.35
844.212	890.2352	65535	64635.55
844.3572	892.2714	65535	64630.4
844.5023	894.3069	65535	64633.95
844.6475	896.3416	65535	64635.55
844.7926	898.3757	65535	64631.15
844.9377	900.4091	65535	64630.15
845.0829	902.4418	65535	64628.85
845.228	904.4739	65535	64628.7
845.3732	906.5052	65535	64634.1
845.5183	908.5358	65535	64634
845.6635	910.5658	65535	64630.6
845.8086	912.595	65535	64632.65
845.9538	914.6236	65535	64631.8
846.0989	916.6515	65535	64631.95
846.2441	918.6786	65535	64630.95
846.3892	920.7051	65535	64633.05
846.5344	922.7309	65535	64631.9
846.6795	924.756	65535	64630.85
846.8246	926.7804	65535	64631.55
846.9698	928.8041	65535	64632.1
847.1149	930.8272	65535	64633.25
847.2601	932.8495	65535	64629.8
847.4052	934.8711	65535	64629.8
847.5504	936.892	65535	64633.05
847.6955	938.9123	65535	64631.3
847.8407	940.9318	65535	64633.5
847.9858	942.9506	65535	64629.95
848.131	944.9688	65535	64631.55
848.2761	946.9862	65535	64632.05
848.4213	949.003	65535	64632.45
848.5664	951.019	65535	64632.8
848.7115	953.0344	65535	64631.8
848.8567	955.0491	65535	64632.45
849.0018	957.063	65535	64634.5
849.147	959.0763	65535	64633.3
849.2921	961.0888	65535	64629.85
849.4373	963.1007	65535	64631.45
849.5824	965.1119	65535	64635.6
849.7275	967.1223	65535	64631.65
849.8727	969.1321	65535	64631.2
850.0178	971.1412	65535	64631.65
850.1629	973.1495	65535	64632.2
850.3081	975.1572	65535	64600.05
850.4532	977.1641	65535	64631.7
850.5983	979.1704	65535	64632.35
850.7435	981.1759	65535	64629.55
850.8886	983.1808	65535	64631.5
851.0337	985.1849	65535	64618.1
851.1788	987.1884	65535	64628.7
851.324	989.1911	65535	64630
851.4691	991.1932	65535	64629.6
851.6142	993.1945	65535	64633.45
851.7593	995.1951	65535	64630.1
851.9045	997.1951	65535	64625.5
852.0496	999.1943	65535	64631.9
852.1947	1001.1928	65535	64631.4
852.3398	1003.1906	65535	64630.75
852.4849	1005.1877	65535	64628.05
852.63	1007.1841	65535	64632.25
852.7751	1009.1798	65535	64631
852.9202	1011.1748	65535	64631.6
853.0653	1013.1691	65535	64628.9
853.2104	1015.1627	65535	64631.5
853.3555	1017.1556	65535	64632.6
853.5006	1019.1477	65535	64630.6
853.6457	1021.1392	65535	64632.3
853.7908	1023.1299	65535	64632.15
853.9359	1025.12	65535	64632.3
854.081	1027.1093	65535	64638.3
854.2261	1029.0979	65535	64639.1
854.3712	1031.0859	65535	64638
854.5163	1033.0731	65535	64632.25
854.6613	1035.0596	65535	64633.15
854.8064	1037.0454	65535	64631.5
854.9515	1039.0304	65535	64633.15
855.0965	1041.0148	65535	64632.05
855.2416	1042.9985	65535	64630.2
855.3867	1044.9814	65535	64632.85
855.5317	1046.9636	65535	64629.35
855.6768	1048.9452	65535	64635.45
855.8219	1050.926	65535	64631
855.9669	1052.9061	65535	64629.65
856.112	1054.8855	65535	64630.65
856.257	1056.8642	65535	64632.9
856.4021	1058.8421	65535	64627.35
856.5471	1060.8194	65535	64627.35
856.6921	1062.7959	65535	64629.85
856.8372	1064.7717	65535	64628.6
856.9822	1066.7469	65535	64629.1
857.1272	1068.7213	65535	64628.9
857.2723	1070.695	65535	64630.55
857.4173	1072.6679	65535	64630.3
857.5623	1074.6402	65535	64630.35
857.7073	1076.6117	65535	64624.35
857.8523	1078.5826	65535	64629.65
857.9973	1080.5527	65535	64627.75
858.1423	1082.5221	65535	64631.15
858.2873	1084.4908	65535	64631.9
858.4323	1086.4587	65535	64628.35
858.5773	1088.426	65535	64629.9
858.7223	1090.3925	65535	64626.05
858.8673	1092.3584	65535	64633.9
859.0123	1094.3235	65535	64631.55
859.1573	1096.2879	65535	64629.9
859.3022	1098.2515	65535	64630.7
859.4472	1100.2145	65535	64633.25
859.5922	1102.1767	65535	64628.9
859.7371	1104.1382	65535	64634
859.8821	1106.099	65535	64628
860.027	1108.0591	65535	64632.05
860.172	1110.0185	65535	64629.85
860.3169	1111.9771	65535	64631.7
860.4619	1113.9351	65535	64632.15
860.6068	1115.8923	65535	64631.35
860.7517	1117.8488	65535	64629.25
860.8967	1119.8045	65535	64631.5
861.0416	1121.7596	65535	64628.45
861.1865	1123.7139	65535	64631.35
861.3314	1125.6675	65535	64629.25
861.4763	1127.6204	65535	64631.15
861.6212	1129.5726	65535	64630.2
861.7661	1131.524	65535	64633.6
861.911	1133.4748	65535	64632.45
862.0559	1135.4248	65535	64630.3
862.2008	1137.3741	65535	64632.35
862.3457	1139.3226	65535	64632.2
862.4905	1141.2705	65535	64632.35
862.6354	1143.2176	65535	64627.15
862.7803	1145.164	65535	64629.45
862.9251	1147.1097	65535	64630
863.07	1149.0546	65535	64630.7
863.2148	1150.9989	65535	64628.75
863.3597	1152.9424	65535	64632.55
863.5045	1154.8852	65535	64629.85
863.6493	1156.8272	65535	64632.85
863.7942	1158.7686	65535	64623.7
863.939	1160.7092	65535	64631
864.0838	1162.6491	65535	64629.85
864.2286	1164.5883	65535	64630.85
864.3734	1166.5267	65535	64629.8
864.5182	1168.4644	65535	64632.65
864.663	1170.4014	65535	64628.15
864.8078	1172.3377	65535	64634.3
864.9526	1174.2732	65535	64634.55
865.0974	1176.2081	65535	64632.85
865.2421	1178.1421	65535	64626.9
865.3869	1180.0755	65535	64634.35
865.5317	1182.0082	65535	64633.45
865.6764	1183.9401	65535	64632.9
865.8212	1185.8713	65535	64633.1
865.9659	1187.8017	65535	64634.35
866.1106	1189.7315	65535	64636.65
866.2554	1191.6605	65535	64607.25
866.4001	1193.5888	65535	64634.75
866.5448	1195.5163	65535	64633.7
866.6895	1197.4432	65535	64630.75
866.8342	1199.3693	65535	64630.5
866.9789	1201.2947	65535	64628.85
867.1236	1203.2193	65535	64630.45
867.2683	1205.1432	65535	64630.3
867.413	1207.0664	65535	64632.4
867.5576	1208.9889	65535	64629.6
867.7023	1210.9106	65535	64633.85
867.847	1212.8316	65535	64631.45
867.9916	1214.7519	65535	64622.45
868.1363	1216.6715	65535	64633.4
868.2809	1218.5903	65535	64634.05
868.4255	1220.5084	65535	64632.1
868.5701	1222.4257	65535	64632.25
868.7148	1224.3424	65535	64632.9
868.8594	1226.2583	65535	64626.55
869.004	1228.1735	65535	64634.35
869.1486	1230.0879	65535	64630.25
869.2932	1232.0016	65535	64631.5
869.4377	1233.9146	65535	64631
869.5823	1235.8269	65535	64633
869.7269	1237.7384	65535	64631.6
869.8715	1239.6492	65535	64633.5
870.016	1241.5592	65535	64631.8
870.1606	1243.4686	65535	64633.15
870.3051	1245.3772	65535	64633.7
870.4496	1247.285	65535	64632.65
870.5941	1249.1922	65535	64633.05
870.7387	1251.0986	65535	64632.05
870.8832	1253.0042	65535	64632.3
871.0277	1254.9092	65535	64633.1
871.1722	1256.8134	65535	64634.45
871.3167	1258.7169	65535	64632.5
871.4611	1260.6196	65535	64634.7
871.6056	1262.5216	65535	64632.6
871.7501	1264.4229	65535	64631.55
871.8945	1266.3234	65535	64632.3
872.039	1268.2232	65535	64632.5
872.1834	1270.1223	65535	64630.35
872.3278	1272.0207	65535	64632.15
872.4723	1273.9183	65535	64626.8
872.6167	1275.8151	65535	64634.25
872.7611	1277.7113	65535	64633.45
872.9055	1279.6067	65535	64635.25
873.0499	1281.5014	65535	64631.75
873.1943	1283.3953	65535	64631
873.3386	1285.2885	65535	64632.3
873.483	1287.181	65535	64632.25
873.6274	1289.0727	65535	64635.15
873.7717	1290.9637	65535	64632
873.9161	1292.854	65535	64634.5
874.0604	1294.7435	65535	64632.55
874.2047	1296.6323	65535	64632.7
874.349	1298.5204	65535	64630.5
874.4933	1300.4077	65535	64631.75
874.6376	1302.2943	65535	64633.7
874.7819	1304.1802	65535	64634.4
874.9262	1306.0653	65535	64632.95
875.0705	1307.9497	65535	64633.65
875.2147	1309.8333	65535	64633.05
875.359	1311.7162	65535	64634
875.5032	1313.5984	65535	64632.8
875.6475	1315.4798	65535	64621.6
875.7917	1317.3605	65535	64616.65
875.9359	1319.2405	65535	64630
876.0801	1321.1197	65535	64631.4
876.2243	1322.9982	65535	64628.95
876.3685	1324.876	65535	64631.5
876.5127	1326.753	65535	64632.8
876.6569	1328.6293	65535	64633.4
876.801	1330.5048	65535	64631.7
876.9452	1332.3796	65535	64634.75
877.0893	1334.2537	65535	64609.3
877.2335	1336.127	65535	64632.6
877.3776	1337.9996	65535	64631
877.5217	1339.8714	65535	64632.4
877.6658	1341.7426	65535	64586.85
877.8099	1343.6129	65535	64631.8
877.954	1345.4826	65535	64633.45
878.0981	1347.3515	65535	64629.75
878.2422	1349.2196	65535	64629.5
878.3862	1351.087	65535	64634.8
878.5303	1352.9537	65535	64633.9
878.6743	1354.8197	65535	64634.2
878.8184	1356.6849	65535	64630.95
878.9624	1358.5493	65535	64630.3
879.1064	1360.4131	65535	64633.95
879.2504	1362.276	65535	64632.55
879.3944	1364.1383	65535	64632.95
879.5384	1365.9998	65535	64627.7
879.6823	1367.8606	65535	64631.1
879.8263	1369.7206	65535	64632.7
879.9702	1371.5799	65535	64630.4
880.1142	1373.4384	65535	64632.65
880.2581	1375.2962	65535	64634.1
880.402	1377.1533	65535	64632.75
880.5459	1379.0096	65535	64633.6
880.6898	1380.8652	65535	64633
880.8337	1382.7201	65535	64634.55
880.9776	1384.5742	65535	64634.15
881.1215	1386.4275	65535	64629.85
881.2653	1388.2802	65535	64632.9
881.4092	1390.132	65535	64630.85
881.553	1391.9832	65535	64629.6
881.6968	1393.8336	65535	64633.75
881.8406	1395.6832	65535	64629.65
881.9844	1397.5322	65535	64635.15
882.1282	1399.3803	65535	64628.9
882.272	1401.2278	65535	64632.95
882.4158	1403.0745	65535	64632.75
882.5595	1404.9204	65535	64633.2
882.7033	1406.7656	65535	64632.8
882.847	1408.6101	65535	64631.65
882.9908	1410.4538	65535	64633.05
883.1345	1412.2968	65535	64634.45
883.2782	1414.139	65535	64633.6
883.4219	1415.9805	65535	64634.15
883.5656	1417.8213	65535	64628.35
883.7092	1419.6613	65535	64633.35
883.8529	1421.5006	65535	64632
883.9965	1423.3391	65535	64632.85
884.1402	1425.1769	65535	64631.25
884.2838	1427.0139	65535	64634.4
884.4274	1428.8502	65535	64631.25
884.571	1430.6858	65535	64634.4
884.7146	1432.5206	65535	64634.35
884.8582	1434.3547	65535	64631.75
885.0018	1436.188	65535	64633.15
885.1453	1438.0206	65535	64630.6
885.2889	1439.8524	65535	64635.95
885.4324	1441.6835	65535	64631
885.5759	1443.5139	65535	64630.3
885.7194	1445.3435	65535	64635
885.8629	1447.1724	65535	64633.2
886.0064	1449.0005	65535	64635.45
886.1499	1450.8279	65535	64633
886.2933	1452.6545	65535	64633.85
886.4368	1454.4804	65535	64635.65
886.5802	1456.3056	65535	64627.25
886.7237	1458.13	65535	64634.95
886.8671	1459.9536	65535	64633.95
887.0105	1461.7766	65535	64632.7
887.1539	1463.5987	65535	64633.1
887.2972	1465.4202	65535	64636.15
887.4406	1467.2409	65535	64634.25
887.584	1469.0608	65535	64633.75
887.7273	1470.88	65535	64634.05
887.8706	1472.6984	65535	64636.05
888.0139	1474.5161	65535	64630.95
888.1572	1476.3331	65535	64636.9
888.3005	1478.1493	65535	64634.65
888.4438	1479.9648	65535	64634.8
888.5871	1481.7795	65535	64636.15
888.7303	1483.5935	65535	64633.45
888.8736	1485.4067	65535	64633.6
889.0168	1487.2192	65535	64634.2
889.16	1489.031	65535	64631.5
889.3032	1490.842	65535	64635.05
889.4464	1492.6522	65535	64636.1
889.5896	1494.4618	65535	64635.2
889.7327	1496.2705	65535	64637.85
889.8759	1498.0785	65535	64634.8
890.019	1499.8858	65535	64633.8
890.1622	1501.6924	65535	64635.6
890.3053	1503.4981	65535	64636.35
890.4484	1505.3032	65535	64634.25
890.5914	1507.1075	65535	64634.85
890.7345	1508.911	65535	64634.4
890.8776	1510.7138	65535	64633.85
891.0206	1512.5159	65535	64634.8
891.1637	1514.3172	65535	64636.3
891.3067	1516.1178	65535	64637.15
891.4497	1517.9176	65535	64634.2
891.5927	1519.7166	65535	64635.7
891.7357	1521.515	65535	64627.5
891.8786	1523.3126	65535	64633.55
892.0216	1525.1094	65535	64634.1
892.1645	1526.9055	65535	64634.75
892.3074	1528.7008	65535	64636.95
892.4503	1530.4954	65535	64633.85
892.5932	1532.2893	65535	64637.85
892.7361	1534.0824	65535	64630.45
892.879	1535.8747	65535	64637.65
893.0218	1537.6663	65535	64636.15
893.1647	1539.4572	65535	64633.2
893.3075	1541.2473	65535	64636.75
893.4503	1543.0367	65535	64636.2
893.5931	1544.8253	65535	64632.6
893.7359	1546.6132	65535	64633.85
893.8787	1548.4003	65535	64622.8
894.0214	1550.1867	65535	64627.65
894.1642	1551.9723	65535	64633
894.3069	1553.7572	65535	64636.85
894.4496	1555.5414	65535	64635.95
894.5923	1557.3247	65500.5	64600.9
894.735	1559.1074	65535	64640.05
894.8777	1560.8893	65529.5	64633.6
895.0204	1562.6705	65535	64638
895.163	1564.4509	65518.4	64621.75
895.3056	1566.2305	65527.25	64629.9
895.4482	1568.0094	65535	64637.15
895.5908	1569.7876	65526.15	64632.65
895.7334	1571.565	65517.9	64619.7
895.876	1573.3417	65520	64624.25
896.0186	1575.1176	65518.4	64623.25
896.1611	1576.8928	65516.35	64620.15
896.3036	1578.6672	65484.1	64588.2
896.4461	1580.4409	65513.7	64620.2
896.5886	1582.2138	65458.45	64558.1
896.7311	1583.986	65490.35	64593.5
896.8736	1585.7575	65446.1	64550.05
897.0161	1587.5282	65475.05	64581
897.1585	1589.2981	65476.4	64581.75
897.3009	1591.0673	65454.8	64561.6
897.4433	1592.8358	65427.85	64532.3
897.5857	1594.6035	65446.1	64545.9
897.7281	1596.3704	65451.05	64556.4
897.8705	1598.1366	65404	64510.45
898.0128	1599.9021	65372.8	64477.7
898.1551	1601.6668	65425.15	64527.1
898.2975	1603.4308	65410.7	64514.1
898.4398	1605.194	65411	64510.2
898.5821	1606.9564	65358.15	64462.35
898.7243	1608.7182	65387.25	64490.35
898.8666	1610.4791	65361.8	64469.05
899.0088	1612.2394	65388.15	64495.6
899.1511	1613.9988	65346	64453.2
899.2933	1615.7576	65396.4	64503.25
899.4355	1617.5156	65379.2	64480.45
899.5776	1619.2728	65430.2	64534.75
899.7198	1621.0293	65359.55	64465.45
899.862	1622.785	65357.85	64458.2
900.0041	1624.54	65374.15	64475.8
900.1462	1626.2942	65336.95	64441.5
900.2883	1628.0477	65278.45	64380.6
900.4304	1629.8005	65260.55	64359.9
900.5725	1631.5525	65302.75	64410.75
900.7145	1633.3037	65252.4	64360.7
900.8566	1635.0542	65251.1	64356.85
900.9986	1636.804	65278.15	64381.6
901.1406	1638.553	65225.3	64244.95
901.2826	1640.3013	65240.9	64346.5
901.4245	1642.0488	65207.6	64311.05
901.5665	1643.7955	65224.25	64332.4
901.7085	1645.5416	65202.1	64307.8
901.8504	1647.2868	65191.4	64297.95
901.9923	1649.0313	65227.4	64334.05
902.1342	1650.7751	65194.3	64297.35
902.2761	1652.5181	65183.45	64289.3
902.4179	1654.2604	65191.05	64294.9
902.5598	1656.0019	65198.75	64306.7
902.7016	1657.7427	65178.2	64284.2
902.8434	1659.4828	65195.75	64301.95
902.9852	1661.222	65172.4	64277.5
903.127	1662.9606	65202.9	64311.3
903.2687	1664.6984	65156	64261.55
903.4105	1666.4354	65181.5	64285.5
903.5522	1668.1717	65127.45	64234.15
903.6939	1669.9072	65080.15	64186.7
903.8356	1671.642	65077.95	64181.75
903.9773	1673.3761	65052.4	64159.95
904.119	1675.1094	65042.25	64148.8
904.2606	1676.8419	64976.4	64082.85
904.4022	1678.5737	65013.35	64120.7
904.5439	1680.3048	64980.65	64086.35
904.6855	1682.0351	64948.6	64054.4
904.827	1683.7646	64912	64015.3
904.9686	1685.4934	64953.05	64060.55
905.1101	1687.2215	64753.95	63860.1
905.2517	1688.9488	64891.1	63998
905.3932	1690.6754	64626.55	63733.1
905.5347	1692.4012	64781.5	63886.5
905.6761	1694.1263	64788.75	63894.15
905.8176	1695.8506	64653.5	63758.35
905.9591	1697.5742	64675.7	63782.2
906.1005	1699.297	64640.15	63748.6
906.2419	1701.0191	64673.2	63781.7
906.3833	1702.7404	64520.6	63628.55
906.5246	1704.461	64464.5	63570.3
906.666	1706.1808	64538.95	63643.45
906.8073	1707.8999	64465.55	63572.05
906.9487	1709.6182	64446.3	63552.7
907.09	1711.3358	64440.25	63548.2
907.2313	1713.0527	64403.9	63515
907.3725	1714.7688	64406.75	63510.65
907.5138	1716.4841	64243.05	63351.05
907.655	1718.1987	64313.55	63417.55
907.7962	1719.9126	64264.25	63373.25
907.9374	1721.6257	64301.6	63407.2
908.0786	1723.338	64288.75	63395.45
908.2198	1725.0496	64048	63155.75
908.3609	1726.7605	64129.05	63236.45
908.502	1728.4706	64010.8	63116.65
908.6431	1730.18	64104.15	63211
908.7842	1731.8886	63948.35	63055.6
908.9253	1733.5964	63858.3	62962.2
909.0664	1735.3036	64016.05	63122.7
909.2074	1737.0099	63906.55	63012.8
909.3484	1738.7156	63807.1	62916.95
909.4894	1740.4204	63759.25	62864.05
909.6304	1742.1246	63812.3	62919.55
909.7714	1743.8279	63829	62936.9
909.9123	1745.5306	63794.65	62901.5
910.0532	1747.2325	63459.15	62566.6
910.1941	1748.9336	63489.55	62597.4
910.335	1750.634	63543.85	62649.25
910.4759	1752.3336	63641.35	62750.1
910.6168	1754.0325	63422.15	62531.9
910.7576	1755.7307	63605.6	62713.95
910.8984	1757.4281	63287.7	62396.6
911.0392	1759.1247	63524.55	62623.2
911.18	1760.8206	63184.55	62285.9
911.3208	1762.5158	63213.7	62315.6
911.4615	1764.2102	63317.65	62427.35
911.6022	1765.9039	63225	62333.95
911.7429	1767.5968	63145.8	62254.35
911.8836	1769.289	63110.35	62219.55
912.0243	1770.9804	63163.15	62271.6
912.1649	1772.6711	63054.55	62164.25
912.3056	1774.361	62979.6	62087.85
912.4462	1776.0502	62982.55	62090.05
912.5868	1777.7386	62590.1	61693.25
912.7274	1779.4263	62843.95	61949.8
912.8679	1781.1132	62827.4	61935.95
913.0084	1782.7994	62728.9	61834.5
913.149	1784.4849	62778.2	61888.25
913.2895	1786.1696	62192.15	61295.25
913.4299	1787.8535	62576.1	61684.25
913.5704	1789.5367	62606.95	61716.35
913.7108	1791.2192	62216.3	61325.65
913.8513	1792.9009	61988.2	61068.1
913.9917	1794.5818	62298.95	61403.35
914.132	1796.2621	61944.65	61051.95
914.2724	1797.9415	62004.65	61112.2
914.4128	1799.6202	61914.75	61024.2
914.5531	1801.2982	61913.45	61021.45
914.6934	1802.9755	61461.75	60569.15
914.8337	1804.6519	61286.95	60392.55
914.9739	1806.3277	61986.55	61094
915.1142	1808.0027	60876.05	59986.5
915.2544	1809.6769	61358.15	60468.15
915.3946	1811.3504	61404.85	60513.5
915.5348	1813.0231	60553.4	59662.05
915.675	1814.6951	61139.15	60249
915.8151	1816.3664	60747.6	59855.2
915.9553	1818.0369	60736.25	59844.65
916.0954	1819.7067	60498.6	59608.25
916.2355	1821.3757	61001.2	60107.4
916.3755	1823.044	60284.65	59393.2
916.5156	1824.7115	59865.95	58974.65
916.6556	1826.3783	60164.1	59273.75
916.7956	1828.0443	60205.95	59317.2
916.9356	1829.7096	59922.3	59029.3
917.0756	1831.3741	59252.6	58359.1
917.2155	1833.0379	59659.5	58772.35
917.3555	1834.701	59702	58809.65
917.4954	1836.3633	59246.85	58355.8
917.6353	1838.0248	59520.55	58628.5
917.7751	1839.6856	59289.8	58397.2
917.915	1841.3457	58732.75	57843.85
918.0548	1843.005	59373.55	58483
918.1946	1844.6636	59042.2	58151.65
918.3344	1846.3214	58280.7	57389.05
918.4742	1847.9785	58490.65	57600
918.6139	1849.6349	58414.8	57522.2
918.7537	1851.2904	58997.05	58096.7
918.8934	1852.9453	58165.35	57273.2
919.0331	1854.5994	58449.75	57557.45
919.1727	1856.2528	58387.7	57490.05
919.3124	1857.9054	57884.5	56991.75
919.452	1859.5572	57637.3	56746.45
919.5916	1861.2083	57933.3	57040.55
919.7312	1862.8587	58436.5	57545.3
919.8708	1864.5084	56998.2	56107.85
920.0103	1866.1572	57669.85	56779.85
920.1498	1867.8054	56908.7	56017.2
920.2893	1869.4528	57330	56439.55
920.4288	1871.0994	56767.1	55875.5
920.5683	1872.7453	56711.7	55818.35
920.7077	1874.3905	56958.5	56061.3
920.8471	1876.0349	56399.5	55506.2
920.9865	1877.6786	56823.1	55929.6
921.1259	1879.3215	56240.35	55351.05
921.2653	1880.9637	56802.15	55910.2
921.4046	1882.6051	56224.5	55334.05
921.5439	1884.2458	55967.95	55072.85
921.6832	1885.8858	55674.2	54782.5
921.8225	1887.525	55926.85	55033.95
921.9617	1889.1634	55763.45	54874.1
922.101	1890.8011	55502.45	54610.6
922.2402	1892.4381	54839.5	53946.95
922.3794	1894.0743	55549.15	54658.05
922.5185	1895.7098	55121.25	54232.2
922.6577	1897.3446	54723.2	53832.75
922.7968	1898.9786	54847.05	53951.6
922.9359	1900.6118	54501.85	53612.35
923.075	1902.2443	54232.95	53341.2
923.214	1903.8761	54530.85	53641.1
923.3531	1905.5071	54106.55	53215.55
923.4921	1907.1374	53399.4	52509.9
923.6311	1908.7669	53736.45	52845.75
923.77	1910.3957	54010.8	53119.75
923.909	1912.0237	53360.8	52469.95
924.0479	1913.651	53072.85	52181.95
924.1868	1915.2776	52875.8	51987.75
924.3257	1916.9034	52884.8	51996
924.4646	1918.5285	52607.45	51718.8
924.6034	1920.1528	52557.1	51666.45
924.7422	1921.7764	52371.8	51478.9
924.881	1923.3992	52223.1	51332.3
925.0198	1925.0213	51871.95	50978.2
925.1586	1926.6427	51405.6	50514.75
925.2973	1928.2633	51666	50694.4
925.436	1929.8832	51432.8	50538.55
925.5747	1931.5023	51261.65	50372.1
925.7134	1933.1207	50831.6	49938.85
925.852	1934.7383	51082.55	50192.75
925.9906	1936.3552	50674.5	49784.8
926.1292	1937.9714	50608.35	49718.4
926.2678	1939.5868	50574.8	49682.7
926.4064	1941.2015	50115.6	49224.2
926.5449	1942.8154	49812.7	48922.55
926.6834	1944.4286	49813.65	48922.65
926.8219	1946.041	49739.85	48828.1
926.9604	1947.6528	49450.7	48554.2
927.0988	1949.2637	49249.05	48359.5
927.2372	1950.8739	49008.55	48117.75
927.3756	1952.4834	49066.05	48175.55
927.514	1954.0921	48944.45	48053.35
927.6523	1955.7001	48599.65	47705.35
927.7907	1957.3074	48580.95	47692.15
927.929	1958.9139	48259.2	47368.7
928.0673	1960.5197	48242.7	47350.85
928.2055	1962.1247	48028.3	47136.2
928.3438	1963.729	47825.2	46937
928.482	1965.3325	47628.8	46716.15
928.6202	1966.9353	47570.9	46683.05
928.7584	1968.5374	47299.5	46408.65
928.8965	1970.1387	47116.3	46225.45
929.0346	1971.7393	47075.9	46184.95
929.1727	1973.3392	46896.05	46005.05
929.3108	1974.9383	46595.7	45705.8
929.4489	1976.5366	46360.4	45471.35
929.5869	1978.1342	46399.05	45508.5
929.7249	1979.7311	46311.15	45421.35
929.8629	1981.3273	46205.25	45314.45
930.0009	1982.9227	45954.05	45063.35
930.1388	1984.5173	45877.5	44989
930.2767	1986.1112	45613.75	44724.25
930.4146	1987.7044	45611.05	44724.1
930.5525	1989.2968	45235.1	44344.85
930.6904	1990.8885	45259.95	44365.7
930.8282	1992.4795	45112.75	44221.5
930.966	1994.0697	44940.7	44050.55
931.1038	1995.6592	44827.3	43939.6
931.2415	1997.2479	44695.35	43807.85
931.3793	1998.8359	44593.45	43703.3
931.517	2000.4232	44377.05	43490.6
931.6547	2002.0097	44242.95	43356.95
931.7923	2003.5955	44030.6	43142.8
931.93	2005.1805	44023.7	43132.95
932.0676	2006.7648	43933.5	43045.35
932.2052	2008.3484	43792	42901.95
932.3427	2009.9312	43752.05	42860.05
932.4803	2011.5133	43544.25	42656.45
932.6178	2013.0946	43386.5	42498.85
932.7553	2014.6752	43278.85	42390.9
932.8928	2016.2551	43137.9	42249.55
933.0302	2017.8342	43037.3	42148.6
933.1676	2019.4126	42880.6	41991.75
933.305	2020.9902	42598.75	41710.75
933.4424	2022.5672	42607.8	41718.75
933.5798	2024.1433	42519.15	41625.8
933.7171	2025.7188	42326.5	41438
933.8544	2027.2935	42152.95	41263.6
933.9917	2028.8674	41997.3	41109.2
934.129	2030.4406	41879.05	40992.7
934.2662	2032.0131	41698.1	40809.3
934.4034	2033.5849	41550.05	40655.75
934.5406	2035.1559	41517.9	40627.8
934.6778	2036.7261	41456.2	40568.15
934.8149	2038.2957	41297.3	40409.3
934.952	2039.8645	41190.6	40304.25
935.0891	2041.4325	41203.05	40311.1
935.2262	2042.9998	41025.95	40137.15
935.3632	2044.5664	40909.15	40018.25
935.5002	2046.1323	40745.65	39855.5
935.6372	2047.6974	40631.15	39745
935.7742	2049.2617	40495.5	39606.75
935.9111	2050.8254	40501.1	39608
936.048	2052.3883	40373.75	39484.5
936.1849	2053.9504	40271.45	39380.35
936.3218	2055.5118	40101.65	39210.6
936.4586	2057.0725	39894	39001.8
936.5955	2058.6325	39836.95	38947.5
936.7323	2060.1917	39734.6	38845.1
936.869	2061.7502	39635.15	38745.1
937.0058	2063.3079	39471.5	38582.7
937.1425	2064.8649	39310.15	38419.85
937.2792	2066.4212	39208.55	38318.7
937.4159	2067.9767	39112.2	38225.35
937.5525	2069.5315	38968.35	38079
937.6891	2071.0856	38820.05	37932.2
937.8257	2072.6389	38653.9	37765.65
937.9623	2074.1915	38447.6	37560.65
938.0989	2075.7433	38243.3	37353
938.2354	2077.2945	38212.95	37325
938.3719	2078.8448	38065.3	37175.95
938.5084	2080.3945	37920.55	37031.5
938.6448	2081.9434	37868.85	36979.4
938.7812	2083.4916	37772.6	36881.9
938.9176	2085.039	37613.05	36723.4
939.054	2086.5857	37528.95	36638.25
939.1903	2088.1317	37510.2	36621.35
939.3267	2089.677	37377.45	36487.55
939.463	2091.2215	37250.55	36360.95
939.5992	2092.7652	37155.6	36263.6
939.7355	2094.3083	37025	36134.7
939.8717	2095.8506	37027.6	36138.9
940.0079	2097.3921	36978.9	36090.2
940.1441	2098.933	36777.2	35888.8
940.2802	2100.4731	36704.35	35815.15
940.4163	2102.0124	36592.8	35695
940.5524	2103.5511	36520.15	35631.2
940.6885	2105.089	36411.85	35522.2
940.8245	2106.6261	36373.2	35485.3
940.9606	2108.1626	36283.75	35395.05
941.0965	2109.6983	36227.4	35310.5
941.2325	2111.2332	36081.1	35191.95
941.3684	2112.7675	35981.45	35089.15
941.5044	2114.301	35860.45	34968.65
941.6403	2115.8337	35866.55	34976.3
941.7761	2117.3657	35706.25	34817.4
941.912	2118.897	35606.15	34714.6
942.0478	2120.4276	35452.8	34559.5
942.1835	2121.9575	35293.5	34403.7
942.3193	2123.4866	35318.75	34415.45
942.455	2125.0149	35195.05	34301.15
942.5907	2126.5426	34985.45	34096.35
942.7264	2128.0695	34913.45	34019.1
942.8621	2129.5956	34862.6	33975.8
942.9977	2131.1211	34776.45	33883.1
943.1333	2132.6458	34688.1	33800.3
943.2689	2134.1698	34571.45	33683.55
943.4044	2135.693	34495.45	33604
943.54	2137.2155	34407.9	33516.7
943.6755	2138.7373	34302.25	33413.25
943.8109	2140.2584	34214.55	33324.6
943.9464	2141.7787	34077	33183.2
944.0818	2143.2983	33931.7	33044.35
944.2172	2144.8171	33789.25	32901.9
944.3526	2146.3353	33663.85	32774
944.4879	2147.8527	33514.1	32625.4
944.6232	2149.3693	33511.35	32622.35
944.7585	2150.8853	33356.95	32465.5
944.8938	2152.4005	33184.7	32294.05
945.029	2153.9149	33164.3	32273.55
945.1642	2155.4287	33060.8	32171.55
945.2994	2156.9417	33012.45	32122.85
945.4346	2158.454	32954.1	32062.25
945.5697	2159.9655	32801.7	31914.2
945.7048	2161.4764	32754.9	31867.1
945.8399	2162.9865	32632.5	31741.8
945.9749	2164.4958	32502.65	31612.8
946.1099	2166.0045	32380.4	31488
946.2449	2167.5124	32359.7	31469.7
946.3799	2169.0195	32305.95	31419.85
946.5148	2170.526	32233.2	31341.8
946.6498	2172.0317	32135.5	31246.65
946.7846	2173.5367	32037.6	31149.8
946.9195	2175.0409	31911.7	31023.15
947.0543	2176.5445	31923.95	31036.9
947.1891	2178.0473	31770.45	30881.65
947.3239	2179.5494	31608	30716.55
947.4587	2181.0507	31464.95	30574.25
947.5934	2182.5513	31401.05	30512.15
947.7281	2184.0512	31396.2	30506.6
947.8628	2185.5504	31266.4	30376.8
947.9974	2187.0488	31057.9	30171
948.132	2188.5465	30985.6	30097.45
948.2666	2190.0435	30849.15	29959.45
948.4012	2191.5397	30743.35	29854.55
948.5357	2193.0353	30640.5	29752.3
948.6702	2194.5301	30507.3	29615.75
948.8047	2196.0241	30362.35	29472.65
948.9392	2197.5175	30301.1	29410.65
949.0736	2199.0101	30203.35	29311.4
949.208	2200.502	30038.95	29150.75
949.3424	2201.9931	29949.5	29059.35
949.4767	2203.4835	29882.15	28992.3
949.611	2204.9733	29756.35	28861.4
949.7453	2206.4622	29707.1	28819.35
949.8796	2207.9505	29605.3	28714.25
950.0138	2209.438	29436.55	28548.85
950.148	2210.9248	29340.05	28451.15
950.2822	2212.4109	29286.45	28398.05
950.4164	2213.8962	29145.25	28251.3
950.5505	2215.3809	29084.35	28193.35
950.6846	2216.8648	29068.1	28176.5
950.8186	2218.3479	28928.95	28035.25
950.9527	2219.8304	28791.7	27897.95
951.0867	2221.3121	28671.6	27779.6
951.2207	2222.7931	28557.65	27668.1
951.3546	2224.2733	28489	27600.95
951.4886	2225.7529	28392.25	27502.1
951.6225	2227.2317	28296.15	27405.1
951.7563	2228.7098	28235.1	27345.7
951.8902	2230.1872	28079.3	27191.5
952.024	2231.6638	28044.95	27157.25
952.1578	2233.1397	27927	27032.9
952.2916	2234.6149	27878.1	26987.9
952.4253	2236.0894	27738.6	26849.4
952.559	2237.5632	27685.3	26795.15
952.6927	2239.0362	27569.75	26681.65
952.8263	2240.5085	27448.65	26559.45
952.9599	2241.9801	27377.8	26488.75
953.0935	2243.4509	27329	26438.95
953.2271	2244.921	27190.4	26301
953.3606	2246.3904	27071.1	26176.65
953.4941	2247.8591	26970.15	26080.9
953.6276	2249.3271	26885.5	25997.45
953.7611	2250.7943	26831.3	25943.45
953.8945	2252.2608	26668.6	25779.4
954.0279	2253.7266	26639.1	25751.3
954.1612	2255.1917	26582.05	25695.45
954.2946	2256.656	26479.85	25590.85
954.4279	2258.1197	26404.2	25516.1
954.5612	2259.5826	26318.3	25428.25
954.6944	2261.0447	26284.35	25393.5
954.8276	2262.5062	26170.55	25280.05
954.9608	2263.9669	26109.6	25215.7
955.094	2265.4269	26078.2	25189.05
955.2271	2266.8862	25961	25073.05
955.3602	2268.3448	25887.65	24998.3
955.4933	2269.8026	25867.75	24979.8
955.6264	2271.2598	25748.5	24859.6
955.7594	2272.7162	25632.45	24742.6
955.8924	2274.1719	25608.2	24718.5
956.0253	2275.6268	25520.15	24629.5
956.1583	2277.0811	25450.7	24561.45
956.2912	2278.5346	25388.3	24500.55
956.4241	2279.9874	25318.15	24428.7
956.5569	2281.4395	25282.5	24396.85
956.6897	2282.8908	25159.75	24265.55
956.8225	2284.3414	25084.4	24194.4
956.9553	2285.7914	24998.75	24110.45
957.088	2287.2406	24884.5	23993.7
957.2207	2288.689	24819.25	23931
957.3534	2290.1368	24750.05	23860.35
957.486	2291.5838	24648.55	23757.85
957.6186	2293.0302	24645.1	23753.9
957.7512	2294.4758	24504.8	23614.9
957.8838	2295.9206	24407.5	23517.05
958.0163	2297.3648	24325.2	23436.15
958.1488	2298.8082	24288.55	23399.9
958.2813	2300.251	24264.25	23375.6
958.4137	2301.693	24153.25	23261
958.5461	2303.1343	24055.55	23164.35
958.6785	2304.5748	23992.35	23103.5
958.8108	2306.0147	23937.4	23049.1
958.9432	2307.4538	23846.35	22956.95
959.0754	2308.8922	23789.4	22901.2
959.2077	2310.3299	23713.3	22825.15
959.3399	2311.7669	23643.05	22753.8
959.4721	2313.2031	23542.2	22652.55
959.6043	2314.6387	23427.55	22538.2
959.7365	2316.0735	23356.05	22466.2
959.8686	2317.5076	23331.3	22441.5
960.0006	2318.941	23270.25	22382.1
960.1327	2320.3737	23207.95	22316.9
960.2647	2321.8056	23088.9	22199.45
960.3967	2323.2369	23042.15	22154.3
960.5287	2324.6674	22958.9	22067.8
960.6606	2326.0972	22895.8	22005
960.7925	2327.5263	22809.45	21921.6
960.9244	2328.9547	22713.95	21825.85
961.0562	2330.3823	22676.95	21786.05
961.1881	2331.8092	22676.85	21785.05
961.3198	2333.2355	22513	21620.3
961.4516	2334.661	22485.1	21596
961.5833	2336.0858	22434.05	21541.95
961.715	2337.5098	22359.75	21471.05
961.8467	2338.9332	22321	21431.7
961.9783	2340.3558	22239	21348.75
962.1099	2341.7778	22167.25	21278.3
962.2415	2343.199	22080.3	21190.45
962.373	2344.6195	21998.75	21110.8
962.5045	2346.0393	21937.9	21049.65
962.636	2347.4583	21910.65	21018.95
962.7675	2348.8767	21811.8	20921.2
962.8989	2350.2943	21768.65	20879.5
963.0303	2351.7113	21730.8	20840.05
963.1617	2353.1275	21631.2	20740.8
963.293	2354.543	21543.05	20643.6
963.4243	2355.9578	21496	20606.35
963.5556	2357.3718	21361.5	20473.75
963.6868	2358.7852	21308.3	20418.75
963.818	2360.1978	21213.6	20322.1
963.9492	2361.6098	21178.35	20291.3
964.0803	2363.021	21119.4	20223.7
964.2114	2364.4315	21077.35	20189.4
964.3425	2365.8413	20968.2	20076.4
964.4736	2367.2504	20884.05	19996.85
964.6046	2368.6587	20783.95	19895.4
964.7356	2370.0664	20698.8	19809.8
964.8666	2371.4733	20629.65	19741.15
964.9975	2372.8795	20587.5	19700.35
965.1284	2374.285	20494.3	19604.85
965.2593	2375.6899	20401.45	19512.45
965.3901	2377.0939	20295.7	19406.9
965.5209	2378.4973	20241.2	19353.5
965.6517	2379.9	20150.6	19262.25
965.7825	2381.3019	20082.7	19194.1
965.9132	2382.7032	20045.25	19157.2
966.0439	2384.1037	19987.75	19099.7
966.1745	2385.5035	19926.9	19038.2
966.3051	2386.9027	19849.45	18960.85
966.4357	2388.3011	19833.25	18941.5
966.5663	2389.6987	19748.5	18861.4
966.6968	2391.0957	19668.65	18780.95
966.8273	2392.492	19572.35	18686.2
966.9578	2393.8876	19491.8	18602.75
967.0882	2395.2824	19398.6	18509.7
967.2186	2396.6765	19351.25	18464.85
967.349	2398.07	19246.4	18357.45
967.4793	2399.4627	19227.4	18334.6
967.6097	2400.8547	19191.4	18302.25
967.7399	2402.246	19066.5	18171.15
967.8702	2403.6366	18976.95	18089.6
968.0004	2405.0265	18918.65	18031.15
968.1306	2406.4156	18820.5	17928.85
968.2607	2407.8041	18776.15	17885.75
968.3909	2409.1918	18649.05	17758.65
968.521	2410.5789	18582.15	17694.3
968.651	2411.9652	18530.2	17638.95
968.781	2413.3508	18448.6	17560.45
968.911	2414.7358	18374.85	17484.15
969.041	2416.12	18318.45	17429.85
969.1709	2417.5035	18279.6	17391.8
969.3008	2418.8863	18183.55	17294.3
969.4307	2420.2684	18153.65	17264.9
969.5606	2421.6497	18065.8	17176.5
969.6904	2423.0304	17975.9	17086.55
969.8201	2424.4104	17907.3	17017.9
969.9499	2425.7896	17848.6	16956.85
970.0796	2427.1682	17822.95	16932.55
970.2093	2428.546	17761.55	16872.8
970.3389	2429.9232	17716.4	16827.1
970.4685	2431.2996	17649.4	16759.95
970.5981	2432.6753	17580.25	16690.35
970.7277	2434.0503	17584.7	16695.55
970.8572	2435.4246	17485.1	16597.3
970.9867	2436.7982	17410.2	16519.2
971.1161	2438.1711	17364.05	16476.45
971.2456	2439.5433	17263.6	16370.85
971.375	2440.9148	17222.2	16329.05
971.5043	2442.2856	17152.6	16264.85
971.6336	2443.6557	17136	16246.85
971.7629	2445.025	17044.55	16156.05
971.8922	2446.3937	16993.05	16104.1
972.0214	2447.7617	16945.35	16057.25
972.1506	2449.1289	16905.05	16016.8
972.2798	2450.4955	16861.1	15967.6
972.4089	2451.8613	16809.3	15921.65
972.538	2453.2265	16744.5	15857.7
972.6671	2454.5909	16710.05	15819.65
972.7961	2455.9546	16622.45	15736.25
972.9251	2457.3177	16580.15	15692.55
973.0541	2458.68	16527.2	15637.4
973.1831	2460.0416	16525.1	15636.95
973.312	2461.4025	16475.5	15584.85
973.4408	2462.7627	16448.45	15548.15
973.5697	2464.1222	16341.2	15453.25
973.6985	2465.4811	16306.35	15414.25
973.8273	2466.8392	16237.85	15349.7
973.956	2468.1966	16214.45	15323.9
974.0847	2469.5533	16192.55	15301.05
974.2134	2470.9093	16132	15242.3
974.3421	2472.2645	16109.3	15218.9
974.4707	2473.6191	16039.05	15151.4
974.5993	2474.973	15952.7	15065
974.7278	2476.3262	15901.5	15011.65
974.8563	2477.6787	15845.05	14956.65
974.9848	2479.0305	15733.9	14844.6
975.1132	2480.3816	15694.8	14804.5
975.2417	2481.7319	15627.9	14740.5
975.37	2483.0816	15581.2	14692.35
975.4984	2484.4306	15542.3	14652.9
975.6267	2485.7789	15488.7	14600.45
975.755	2487.1264	15422.5	14532.45
975.8833	2488.4733	15358.55	14471.65
976.0115	2489.8195	15287.7	14393.05
976.1397	2491.165	15250.95	14358.1
976.2678	2492.5097	15193.3	14303.55
976.3959	2493.8538	15108.7	14221.55
976.524	2495.1972	15025.25	14136.3
976.6521	2496.5398	14978.25	14090.4
976.7801	2497.8818	14942	14051.85
976.9081	2499.2231	14901.85	14012.25
977.036	2500.5637	14814.6	13924.8
977.164	2501.9035	14791.15	13899.95
977.2918	2503.2427	14754.5	13861.35
977.4197	2504.5812	14691.65	13803.3
977.5475	2505.919	14621.45	13730.95
977.6753	2507.256	14601.9	13714.85
977.8031	2508.5924	14553.15	13666.55
977.9308	2509.9281	14511.1	13617.35
978.0585	2511.2631	14453.9	13564.15
978.1861	2512.5974	14426.75	13538.65
978.3137	2513.9309	14345	13457
978.4413	2515.2638	14282	13367
978.5689	2516.596	14258.8	13370.4
978.6964	2517.9275	14175.75	13285.35
978.8239	2519.2583	14145.45	13256.25
978.9513	2520.5884	14107.25	13218.35
979.0788	2521.9178	14017	13127.8
979.2062	2523.2465	13996.6	13108.5
979.3335	2524.5745	13931.1	13042.75
979.4608	2525.9018	13880.6	12991.65
979.5881	2527.2284	13841.65	12957.1
979.7154	2528.5543	13771.25	12882.4
979.8426	2529.8796	13765.95	12876.05
979.9698	2531.2041	13720.45	12832
980.0969	2532.5279	13697.85	12811.1
980.224	2533.851	13653.7	12766.45
980.3511	2535.1735	13638.15	12748.55
980.4781	2536.4952	13586.05	12696.7
980.6052	2537.8163	13549.55	12659.25
980.7321	2539.1366	13511.75	12622.9
980.8591	2540.4562	13424	12534.7
980.986	2541.7752	13447.85	12558.15
981.1129	2543.0935	13430.35	12541.55
981.2397	2544.411	13373.2	12482.3
981.3665	2545.7279	13347.95	12457.95
981.4933	2547.0441	13321.85	12432.4
981.62	2548.3596	13302	12412.2
981.7467	2549.6744	13244.95	12356.65
981.8734	2550.9885	13207.05	12311
982.0001	2552.3019	13171.9	12283.05
982.1267	2553.6146	13125.4	12237.65
982.2532	2554.9266	13104.65	12216.7
982.3798	2556.2379	13042.15	12152.9
982.5063	2557.5485	13030.7	12142.65
982.6327	2558.8585	12983.35	12086
982.7592	2560.1677	12963.2	12069.9
982.8856	2561.4762	12930.8	12041.85
983.0119	2562.7841	12890.25	11997.25
983.1383	2564.0913	12874.25	11985.8
983.2646	2565.3977	12835.2	11946.5
983.3908	2566.7035	12792.1	11902.65
983.517	2568.0086	12777.35	11888.15
983.6432	2569.313	12762.9	11872.8
983.7694	2570.6167	12718.05	11826.85
983.8955	2571.9197	12669.05	11780.4
984.0216	2573.222	12693	11800.25
984.1476	2574.5236	12634.4	11744.8
984.2737	2575.8246	12592.1	11701.7
984.3996	2577.1248	12565.8	11675.85
984.5256	2578.4244	12559.3	11670.95
984.6515	2579.7232	12527.95	11638.75
984.7774	2581.0214	12500.75	11589.9
984.9032	2582.3189	12462	11573.25
985.029	2583.6157	12431.2	11536.85
985.1548	2584.9118	12389.2	11498.2
985.2806	2586.2072	12346.7	11459.1
985.4063	2587.5019	12326.8	11439.5
985.5319	2588.7959	12288.6	11399.4
985.6576	2590.0893	12241.65	11352.6
985.7832	2591.3819	12212.55	11323.45
985.9087	2592.6739	12167.15	11279.65
986.0343	2593.9652	12154.15	11266.45
986.1597	2595.2557	12123.3	11233.35
986.2852	2596.5456	12036.25	11146
986.4106	2597.8348	11989.6	11100.6
986.536	2599.1234	11920.65	11034
986.6614	2600.4112	11929.5	11039.85
986.7867	2601.6983	11873.75	10983.35
986.912	2602.9848	11831.45	10943.2
987.0372	2604.2705	11768.5	10872.55
987.1624	2605.5556	11738.9	10850.15
987.2876	2606.84	11702.9	10815.15
987.4128	2608.1237	11676	10786.15
987.5379	2609.4067	11634.65	10744.05
987.6629	2610.689	11566.6	10670.9
987.788	2611.9707	11543.1	10649.35
987.913	2613.2516	11488.95	10595.65
988.0379	2614.5319	11399.55	10511
988.1629	2615.8115	11386.6	10498.35
988.2878	2617.0903	11331.5	10442.6
988.4126	2618.3685	11297	10405.1
988.5375	2619.6461	11261.9	10372.4
988.6622	2620.9229	11204.65	10316.95
988.787	2622.199	11191.35	10302.05
988.9117	2623.4745	11183.5	10295
989.0364	2624.7493	11138.65	10251.15
989.161	2626.0234	11115.6	10228.75
989.2857	2627.2968	11043.15	10157.4
989.4102	2628.5695	11018.2	10127.95
989.5348	2629.8415	10944.9	10055.45
989.6593	2631.1128	10891	9998.6
989.7837	2632.3835	10833.55	9946
989.9082	2633.6535	10779.05	9889.9
990.0326	2634.9228	10777.45	9889.85
990.1569	2636.1914	10726.65	9840.55
990.2812	2637.4593	10694.35	9800.9
990.4055	2638.7265	10653.1	9763.6
990.5298	2639.9931	10598.65	9712.05
990.654	2641.259	10621.95	9732.75
990.7782	2642.5242	10575.45	9687.45
990.9023	2643.7887	10513.05	9624.6
991.0264	2645.0525	10497.2	9609.4
991.1505	2646.3156	10476.35	9587.75
991.2745	2647.5781	10437.45	9549.8
991.3985	2648.8398	10402.2	9516.1
991.5225	2650.1009	10385.1	9462.2
991.6464	2651.3613	10349.8	9460.7
991.7703	2652.6211	10292.75	9404.05
991.8942	2653.8801	10261.8	9373.55
992.018	2655.1385	10242.5	9352.9
992.1418	2656.3961	10213.3	9325.25
992.2655	2657.6531	10210.15	9323.1
992.3892	2658.9094	10145.6	9257.1
992.5129	2660.1651	10132	9244.3
992.6366	2661.42	10102.55	9213.45
992.7602	2662.6743	10070.9	9178.95
992.8837	2663.9279	10060.8	9171.25
993.0073	2665.1808	10038	9149.15
993.1307	2666.433	9979.5	9090.8
993.2542	2667.6846	9935.85	9046.85
993.3776	2668.9354	9933.05	9041.85
993.501	2670.1856	9898.8	9010.2
993.6244	2671.4351	9844.9	8957.35
993.7477	2672.6839	9866.35	8977.7
993.8709	2673.9321	9798	8909.75
993.9942	2675.1795	9759.4	8871.3
994.1174	2676.4263	9737.1	8846.85
994.2405	2677.6724	9690.7	8803.5
994.3637	2678.9179	9670.05	8780.35
994.4868	2680.1626	9661.8	8773.9
994.6098	2681.4067	9633.45	8745.4
994.7328	2682.6501	9594.45	8707.2
994.8558	2683.8928	9569.35	8681.45
994.9788	2685.1348	9510.85	8621.5
995.1017	2686.3761	9505.75	8618.85
995.2245	2687.6168	9448.8	8562.1
995.3474	2688.8568	9435.75	8545.4
995.4702	2690.0961	9379.8	8492.95
995.5929	2691.3348	9356.5	8468.5
995.7156	2692.5727	9349.25	8461.55
995.8383	2693.81	9298.55	8412.8
995.961	2695.0466	9274.75	8386.7
996.0836	2696.2826	9261.65	8370.6
996.2062	2697.5178	9217.75	8328.05
996.3287	2698.7524	9195.75	8307.65
996.4512	2699.9863	9179.25	8289.3
996.5737	2701.2195	9124.3	8237.4
996.6961	2702.452	9109.75	8223.55
996.8185	2703.6839	9097	8209.15
996.9408	2704.9151	9072.15	8185.4
997.0631	2706.1456	9024.8	8135.55
997.1854	2707.3755	8990.5	8102.35
997.3077	2708.6046	8980.55	8089.85
997.4299	2709.8331	8932.65	8041.85
997.552	2711.0609	8885.15	7994.95
997.6742	2712.2881	8899.65	8010.8
997.7963	2713.5145	8848.35	7958.45
997.9183	2714.7403	8829.1	7943.25
998.0403	2715.9654	8808.7	7919.75
998.1623	2717.1899	8804.15	7915.35
998.2842	2718.4136	8778.15	7891.45
998.4062	2719.6367	8746.15	7856.7
998.528	2720.8591	8722.4	7827.6
998.6498	2722.0809	8692.65	7803.4
998.7716	2723.3019	8658.55	7766.25
998.8934	2724.5223	8625.65	7736.65
999.0151	2725.7421	8598.75	7709.95
999.1368	2726.9611	8571.65	7682.9
999.2584	2728.1795	8553.8	7662.3
999.38	2729.3972	8520.05	7630.95
999.5016	2730.6142	8455.15	7558.3
999.6231	2731.8306	8426.25	7535.5
999.7446	2733.0462	8400.7	7510.35
999.8661	2734.2612	8357.85	7464.95
999.9875	2735.4756	8300.1	7411.4
1000.1089	2736.6892	8240.35	7352.15
1000.2302	2737.9022	8218.8	7332.8
1000.3515	2739.1145	8173.9	7284.75
1000.4728	2740.3262	8134.7	7238.75
1000.594	2741.5372	8086.05	7197.8
1000.7152	2742.7475	8038.25	7151.05
1000.8363	2743.9571	8029.1	7139.6
1000.9575	2745.1661	8010.35	7117.55
1001.0785	2746.3744	7987.3	7099.15
1001.1996	2747.582	7932.85	7044.75
1001.3206	2748.7889	7918	7029.9
1001.4415	2749.9952	7890.95	7005.9
1001.5625	2751.2008	7854.55	6964.9
1001.6833	2752.4057	7830.5	6940.85
1001.8042	2753.61	7787.3	6898.85
1001.925	2754.8136	7766.6	6877.4
1002.0458	2756.0165	7759.75	6871.4
1002.1665	2757.2188	7712.6	6825.1
1002.2872	2758.4204	7679.9	6791.05
1002.4078	2759.6213	7677.35	6789.15
1002.5285	2760.8215	7653.45	6762.1
1002.649	2762.0211	7613.05	6723.65
1002.7696	2763.22	7557.05	6665.45
1002.8901	2764.4182	7557.75	6668.35
1003.0106	2765.6158	7512.05	6625.4
1003.131	2766.8127	7512.55	6624.35
1003.2514	2768.009	7482.75	6596.85
1003.3717	2769.2045	7472.8	6584.5
1003.492	2770.3994	7426.95	6535.75
1003.6123	2771.5936	7415.55	6527.2
1003.7325	2772.7872	7368.25	6481.15
1003.8527	2773.9801	7340.2	6451.15
1003.9729	2775.1723	7340.4	6435.65
1004.093	2776.3639	7292.85	6405.35
1004.2131	2777.5548	7268.95	6378.6
1004.3331	2778.745	7242.25	6353.15
1004.4531	2779.9346	7227.15	6340
1004.5731	2781.1235	7226	6337.75
1004.693	2782.3117	7199.6	6313.4
1004.8129	2783.4992	7156.1	6268.35
1004.9328	2784.6861	7127.65	6240.85
1005.0526	2785.8723	7122.75	6233.95
1005.1723	2787.0579	7082.9	6195.15
1005.2921	2788.2428	7076.5	6190.3
1005.4118	2789.427	7037.15	6150.7
1005.5314	2790.6106	7016.4	6129.9
1005.651	2791.7935	7002.3	6114.35
1005.7706	2792.9757	6996.4	6109.1
1005.8902	2794.1573	6973.5	6082.15
1006.0097	2795.3382	6931.4	6044.15
1006.1291	2796.5184	6925.6	6037.85
1006.2485	2797.698	6928.1	6038.3
1006.3679	2798.8769	6907	6018.95
1006.4873	2800.0551	6899.4	6011.2
1006.6066	2801.2327	6880.2	5989.85
1006.7258	2802.4096	6875.1	5987
1006.8451	2803.5859	6845.5	5955.85
1006.9642	2804.7615	6854.4	5966.4
1007.0834	2805.9364	6847.7	5960.65
1007.2025	2807.1106	6831.4	5943.6
1007.3216	2808.2842	6851.75	5963.05
1007.4406	2809.4572	6831.75	5943.05
1007.5596	2810.6294	6842.2	5951.9
1007.6785	2811.801	6861.3	5976.3
1007.7975	2812.972	6868.8	5980.8
1007.9163	2814.1423	6888.15	5999.75
1008.0352	2815.3119	6901.9	6013
1008.154	2816.4808	6916.25	6030.7
1008.2727	2817.6491	6936.6	6048.8
1008.3914	2818.8167	6945.3	6060.15
1008.5101	2819.9837	6992.85	6099.6
1008.6288	2821.15	6998.2	6107.8
1008.7474	2822.3157	7043.15	6155.35
1008.8659	2823.4807	7072.3	6184.1
1008.9844	2824.645	7111.6	6222.2
1009.1029	2825.8086	7118.75	6233.2
1009.2214	2826.9716	7167.15	6280.6
1009.3398	2828.134	7179.75	6292
1009.4581	2829.2957	7198.45	6310.15
1009.5764	2830.4567	7198.1	6312.2
1009.6947	2831.617	7213.45	6325.3
1009.813	2832.7767	7209.9	6323.25
1009.9312	2833.9358	7184.85	6297.15
1010.0493	2835.0941	7177.55	6286.9
1010.1675	2836.2519	7129.7	6240.4
1010.2855	2837.4089	7136.25	6247.55
1010.4036	2838.5653	7096.95	6210.3
1010.5216	2839.7211	7106.4	6222.15
1010.6396	2840.8761	7073.45	6185.55
1010.7575	2842.0306	7061.2	6174.75
1010.8754	2843.1843	7068.35	6180.85
1010.9932	2844.3374	7100.25	6210.85
1011.111	2845.4899	7107	6217.1
1011.2288	2846.6417	7145.3	6259.75
1011.3465	2847.7928	7219.75	6332.2
1011.4642	2848.9433	7248.4	6360.65
1011.5818	2850.0931	7282.3	6394.9
1011.6995	2851.2422	7314.55	6425.5
1011.817	2852.3907	7354.05	6465.95
1011.9345	2853.5385	7406.7	6517.85
1012.052	2854.6857	7441.15	6543.8
1012.1695	2855.8323	7438.05	6550.95
1012.2869	2856.9781	7480.95	6592.1
1012.4042	2858.1233	7503.6	6616.05
1012.5216	2859.2679	7503.8	6616.45
1012.6389	2860.4118	7528.65	6640.75
1012.7561	2861.555	7557.25	6663.8
1012.8733	2862.6976	7589.6	6699.95
1012.9905	2863.8395	7583.55	6696.3
1013.1076	2864.9808	7572.45	6684.05
1013.2247	2866.1214	7588.15	6702.45
1013.3417	2867.2614	7565.45	6678.8
1013.4587	2868.4007	7575.3	6688
1013.5757	2869.5393	7545.25	6656.4
1013.6926	2870.6773	7548.55	6660.95
1013.8095	2871.8146	7537.95	6646.15
1013.9263	2872.9513	7522.6	6632.75
1014.0431	2874.0874	7496.3	6610.1
1014.1599	2875.2227	7482.2	6595.25
1014.2766	2876.3574	7416.6	6531.7
1014.3933	2877.4915	7388.8	6500.85
1014.51	2878.6249	7357	6471.3
1014.6266	2879.7577	7303.75	6414.7
1014.7431	2880.8898	7273.5	6373.6
1014.8596	2882.0212	7207.75	6322.2
1014.9761	2883.152	7210.2	6321
1015.0925	2884.2821	7184.4	6298.6
1015.2089	2885.4116	7147.05	6258.85
1015.3253	2886.5405	7153.45	6265.7
1015.4416	2887.6686	7128.55	6239.35
1015.5579	2888.7962	7100.5	6216.1
1015.6741	2889.923	7083.5	6196.8
1015.7903	2891.0493	7071	6186.65
1015.9065	2892.1748	7066.1	6178.45
1016.0226	2893.2997	7075.9	6188.85
1016.1387	2894.424	7051.45	6165.8
1016.2547	2895.5476	7028.1	6141.3
1016.3707	2896.6706	7029.4	6143.55
1016.4866	2897.7929	7050.7	6162.85
1016.6025	2898.9145	7041.6	6156.65
1016.7184	2900.0355	7046.95	6157.35
1016.8342	2901.1559	7062.5	6175.45
1016.95	2902.2756	7061.4	6175.35
1017.0658	2903.3946	7096.75	6210
1017.1815	2904.513	7077.55	6187.6
1017.2971	2905.6308	7096	6209.85
1017.4127	2906.7479	7102.6	6215.1
1017.5283	2907.8643	7086.35	6197.9
1017.6439	2908.9801	7092.9	6207.75
1017.7594	2910.0953	7086.4	6198.35
1017.8748	2911.2098	7056.9	6167.05
1017.9902	2912.3236	7020.35	6123.95
1018.1056	2913.4368	6993.7	6103
1018.2209	2914.5494	6978.1	6089.15
1018.3362	2915.6613	6928	6036.55
1018.4515	2916.7725	6877.45	5987.85
1018.5667	2917.8831	6837.65	5948.5
1018.6819	2918.9931	6823.35	5935.35
1018.797	2920.1024	6788.75	5900.5
1018.9121	2921.211	6747.3	5861.85
1019.0271	2922.319	6717.95	5829
1019.1421	2923.4264	6681.5	5794.7
1019.2571	2924.5331	6673.8	5787.2
1019.372	2925.6391	6647.5	5759.85
1019.4869	2926.7445	6617.95	5731.15
1019.6017	2927.8493	6614.1	5725.45
1019.7165	2928.9534	6594.7	5705.5
1019.8313	2930.0569	6566.05	5676.7
1019.946	2931.1597	6563.7	5674.55
1020.0606	2932.2619	6546.45	5658.9
1020.1753	2933.3634	6537.25	5650.65
1020.2899	2934.4643	6530.3	5637.35
1020.4044	2935.5645	6518.1	5623.85
1020.5189	2936.6641	6463.05	5570.9
1020.6334	2937.763	6414.8	5527.55
1020.7478	2938.8613	6379.2	5493.9
1020.8622	2939.959	6331.95	5439.65
1020.9765	2941.056	6254.6	5367
1021.0908	2942.1523	6170.6	5283.2
1021.2051	2943.248	6079.3	5191.1
1021.3193	2944.3431	5988.85	5102.85
1021.4334	2945.4375	5894.45	5006.75
1021.5476	2946.5313	5780.5	4894.85
1021.6617	2947.6244	5676.05	4788.6
1021.7757	2948.7169	5599.1	4709.65
1021.8897	2949.8087	5483.25	4594.75
1022.0037	2950.8999	5418.85	4532.45
1022.1176	2951.9904	5319.4	4434.5
1022.2315	2953.0803	5230.8	4341.85
1022.3453	2954.1696	5175.15	4289.75
1022.4591	2955.2582	5109.7	4224.45
1022.5728	2956.3462	5052.85	4165.1
1022.6865	2957.4335	5006.45	4118.65
1022.8002	2958.5202	4970	4080.85
1022.9138	2959.6062	4931.35	4044.55
1023.0274	2960.6916	4895.45	4007.8
1023.141	2961.7764	4850.95	3963.9
1023.2545	2962.8605	4821.35	3931.8
1023.3679	2963.9439	4802.05	3914.6
1023.4813	2965.0267	4770.2	3881.85
1023.5947	2966.1089	4774.2	3864.25
1023.708	2967.1905	4730.45	3843.35
1023.8213	2968.2714	4719.4	3831.95
1023.9346	2969.3516	4689.95	3803.2
1024.0478	2970.4312	4712.7	3818.2
1024.1609	2971.5102	4686	3798.3
1024.274	2972.5885	4668.2	3781.35
1024.3871	2973.6662	4650.4	3760.45
1024.5002	2974.7432	4634.45	3748.4
1024.6132	2975.8196	4621.4	3734.7
1024.7261	2976.8954	4601.6	3716.9
1024.839	2977.9705	4578.1	3692
1024.9519	2979.045	4567.2	3681.45
1025.0647	2980.1188	4536.15	3650.7
1025.1775	2981.192	4504.9	3620.05
1025.2902	2982.2645	4481.9	3592.65
1025.4029	2983.3364	4450.95	3563.55
1025.5156	2984.4077	4404.05	3518.45
1025.6282	2985.4783	4387.25	3496.95
1025.7407	2986.5483	4354.25	3467.9
1025.8532	2987.6177	4298.4	3411.75
1025.9657	2988.6864	4259.35	3374.6
1026.0782	2989.7545	4215.4	3326.35
1026.1906	2990.8219	4172.6	3285.45
1026.3029	2991.8887	4149.3	3258.4
1026.4152	2992.9548	4108.15	3218.4
1026.5275	2994.0204	4068	3182.45
1026.6397	2995.0852	4032.55	3146.5
1026.7519	2996.1495	4015.1	3127.2
1026.864	2997.2131	3970.15	3084.7
1026.9761	2998.276	3947	3059.95
1027.0882	2999.3383	3912.35	3026.35
1027.2002	3000.4	3884.3	2995.35
1027.3122	3001.4611	3851.75	2964.9
1027.4241	3002.5215	3828.35	2940.7
1027.536	3003.5812	3802.85	2916.55
1027.6478	3004.6404	3796.9	2910.8
1027.7596	3005.6989	3787.8	2899.45
1027.8714	3006.7567	3750.6	2862.95
1027.9831	3007.8139	3750.8	2842.05
1028.0947	3008.8705	3711.15	2822.25
1028.2064	3009.9264	3702.35	2812.25
1028.3179	3010.9818	3696.1	2809.1
1028.4295	3012.0364	3689.55	2801.25
1028.541	3013.0905	3670.55	2783.05
1028.6524	3014.1439	3641	2755.8
1028.7638	3015.1966	3621.4	2736.55
1028.8752	3016.2487	3610.35	2724.65
1028.9865	3017.3002	3601.75	2711.15
1029.0978	3018.3511	3588.7	2702
1029.209	3019.4013	3583.7	2695.4
1029.3202	3020.4509	3576.15	2690.25
1029.4314	3021.4998	3564.75	2677.05
1029.5425	3022.5481	3555.45	2668.8
1029.6535	3023.5958	3542	2655.4
1029.7645	3024.6428	3530.9	2642.9
1029.8755	3025.6892	3502.75	2617.65
1029.9864	3026.735	3509.5	2621.05
1030.0973	3027.7802	3499.8	2614.95
1030.2082	3028.8247	3482.2	2596.4
1030.319	3029.8685	3478.25	2590.95
1030.4297	3030.9118	3466.2	2579.35
1030.5404	3031.9544	3451.9	2564.85
1030.6511	3032.9963	3453.85	2566.65
1030.7617	3034.0376	3440.25	2554.8
1030.8723	3035.0783	3444.5	2553.9
1030.9829	3036.1184	3427.05	2541.35
1031.0934	3037.1578	3427.85	2539.2
1031.2038	3038.1966	3412.55	2522.3
1031.3142	3039.2348	3394.65	2509.2
1031.4246	3040.2723	3385.55	2490.55
1031.5349	3041.3092	3392.2	2506.75
1031.6452	3042.3455	3383.05	2496.05
1031.7554	3043.3811	3374	2487.15
1031.8656	3044.4161	3344.4	2458.15
1031.9758	3045.4505	3348.2	2463.5
1032.0859	3046.4842	3332.3	2443.85
1032.1959	3047.5173	3321.8	2434.45
1032.3059	3048.5498	3302.8	2414.55
1032.4159	3049.5816	3301.55	2416.25
1032.5258	3050.6128	3281.9	2392.9
1032.6357	3051.6434	3272.4	2383.65
1032.7455	3052.6734	3253.85	2366.6
1032.8553	3053.7027	3248.6	2361.45
1032.9651	3054.7314	3231.75	2346.15
1033.0748	3055.7594	3217.55	2330.65
1033.1845	3056.7868	3213.85	2327.1
1033.2941	3057.8136	3199.25	2312.1
1033.4037	3058.8398	3183.85	2297.1
1033.5132	3059.8653	3162.2	2275.35
1033.6227	3060.8902	3156.1	2269.55
1033.7321	3061.9145	3145.6	2258.15
1033.8415	3062.9381	3126.3	2236.85
1033.9509	3063.9612	3140.35	2238.15
1034.0602	3064.9835	3100.3	2213.8
1034.1694	3066.0053	3104.15	2217.45
1034.2787	3067.0264	3088.85	2203.2
1034.3878	3068.0469	3080.05	2191.5
1034.497	3069.0668	3062.8	2170.3
1034.6061	3070.086	3057.25	2172.9
1034.7151	3071.1046	3049.7	2162.1
1034.8241	3072.1226	3034.75	2144.75
1034.9331	3073.1399	3012.1	2127.5
1035.042	3074.1567	2990.55	2104.95
1035.1508	3075.1727	2988.35	2098.8
1035.2597	3076.1882	2972.2	2085.4
1035.3684	3077.203	2959.4	2072.6
1035.4772	3078.2173	2937.6	2050.85
1035.5859	3079.2308	2930.4	2038.7
1035.6945	3080.2438	2916.85	2028.35
1035.8031	3081.2561	2899.1	2011.1
1035.9117	3082.2678	2893.55	2008.95
1036.0202	3083.2789	2884.45	1997.35
1036.1286	3084.2893	2859.9	1973.1
1036.2371	3085.2991	2862.8	1977.7
1036.3454	3086.3083	2845.55	1952.5
1036.4538	3087.3169	2820.3	1931.15
1036.562	3088.3248	2816.7	1928.65
1036.6703	3089.3321	2811.35	1924.65
1036.7785	3090.3388	2792.35	1903.8
1036.8866	3091.3449	2784.1	1895.8
1036.9948	3092.3503	2785.55	1895.45
1037.1028	3093.3551	2758.8	1873.35
1037.2108	3094.3593	2750.55	1864.85
1037.3188	3095.3629	2739.35	1854.55
1037.4267	3096.3658	2736.1	1847.55
1037.5346	3097.3681	2732	1846.45
1037.6425	3098.3698	2720.35	1832.8
1037.7503	3099.3708	2710.25	1818.35
1037.858	3100.3713	2683.3	1797.8
1037.9657	3101.3711	2684.4	1796.7
1038.0734	3102.3702	2777	1748.95
1038.181	3103.3688	2678.3	1788.7
1038.2886	3104.3667	2647.35	1761.1
1038.3961	3105.364	2635.7	1748.5
1038.5036	3106.3607	2612.6	1723.9
1038.611	3107.3568	2613.4	1726.3
1038.7184	3108.3522	2611.75	1727.45
1038.8257	3109.347	2591.15	1703.95
1038.933	3110.3412	2601.4	1711.1
1039.0403	3111.3348	2581.05	1695.85
1039.1475	3112.3277	2557.45	1669.75
1039.2547	3113.32	2547.85	1661.95
1039.3618	3114.3117	2541.2	1654
1039.4689	3115.3028	2536.05	1650.4
1039.5759	3116.2932	2524.6	1638
1039.6829	3117.2831	2520.95	1627.4
1039.7898	3118.2723	2505.6	1619.45
1039.8967	3119.2608	2503.3	1616.9
1040.0035	3120.2488	2486.45	1600.05
1040.1103	3121.2361	2483.1	1597.55
1040.2171	3122.2229	2464.7	1578.05
1040.3238	3123.209	2460.45	1573.4
1040.4305	3124.1944	2457.15	1570.85
1040.5371	3125.1793	2452.3	1563.7
1040.6437	3126.1635	2431.7	1544.9
1040.7502	3127.1471	2432.4	1544.4
1040.8567	3128.1301	2430.35	1543.75
1040.9631	3129.1125	2406.75	1520.35
1041.0695	3130.0942	2411.45	1524.35
1041.1759	3131.0753	2415.1	1520.15
1041.2822	3132.0558	2400.75	1510.9
1041.3884	3133.0357	2385.95	1499.05
1041.4946	3134.015	2371.05	1485.05
1041.6008	3134.9936	2375.8	1488.85
1041.7069	3135.9716	2376.45	1470.75
1041.813	3136.949	2360.8	1472
1041.919	3137.9258	2347.75	1455.35
1042.025	3138.902	2351.55	1458.45
1042.1309	3139.8775	2333.4	1448.25
1042.2368	3140.8524	2328.85	1444.55
1042.3427	3141.8267	2321.85	1432.25
1042.4485	3142.8004	2330.35	1443.75
1042.5542	3143.7735	2322.25	1429.7
1042.6599	3144.7459	2314.25	1423.8
1042.7656	3145.7178	2309.3	1421.75
1042.8712	3146.689	2294.2	1408.25
1042.9768	3147.6596	2292.15	1403.4
1043.0823	3148.6295	2285.7	1398
1043.1878	3149.5989	2275.45	1389.8
1043.2932	3150.5676	2264.25	1379.85
1043.3986	3151.5357	2249	1364.4
1043.5039	3152.5032	2255.3	1371.95
1043.6092	3153.4701	2242.7	1357.45
1043.7145	3154.4364	2235.1	1347.1
1043.8197	3155.402	2226.05	1339.35
1043.9248	3156.367	2216.85	1328.55
1044.03	3157.3315	2247.55	1317.35
1044.135	3158.2952	2215.25	1330.45
1044.24	3159.2584	2191.25	1304.25
1044.345	3160.221	2176.35	1290
1044.4499	3161.1829	2177	1291.5
1044.5548	3162.1442	2174.25	1286.75
1044.6596	3163.105	2160.8	1275.7
1044.7644	3164.065	2156.45	1266.3
1044.8692	3165.0245	2161.05	1271.6
1044.9739	3165.9834	2143.2	1257.9
1045.0785	3166.9416	2133.9	1247.7
1045.1831	3167.8993	2123.35	1238.25
1045.2877	3168.8563	2122.5	1234
1045.3922	3169.8127	2094	1209.1
1045.4966	3170.7684	2111.2	1226.05
1045.6011	3171.7236	2100	1212.35
1045.7054	3172.6782	2094.5	1207.15
1045.8098	3173.6321	2099.4	1210.95
1045.914	3174.5854	2086.7	1195.75
1046.0183	3175.5381	2078.75	1193.3
1046.1224	3176.4902	2075.45	1190.45
1046.2266	3177.4417	2061.75	1176.05
1046.3307	3178.3926	2058.2	1170.7
1046.4347	3179.3428	2045.75	1161.2
1046.5387	3180.2924	2042	1156.95
1046.6427	3181.2415	2027.75	1141.95
1046.7466	3182.1899	2028.85	1143.05
1046.8504	3183.1377	2017.95	1133
1046.9542	3184.0848	2024.05	1135.9
1047.058	3185.0314	2006.7	1121.95
1047.1617	3185.9773	2011.75	1125.45
1047.2654	3186.9227	1994.3	1107.65
1047.369	3187.8674	1992.8	1106.5
1047.4726	3188.8115	1996.75	1106
1047.5761	3189.755	1984.7	1099.8
1047.6796	3190.6979	1983	1095.45
1047.783	3191.6402	1973.35	1087.75
1047.8864	3192.5818	1967.45	1081.6
1047.9898	3193.5229	1980.05	1079.2
1048.0931	3194.4633	1955.9	1069.75
1048.1963	3195.4031	1946.7	1059.7
1048.2995	3196.3423	1938.8	1053
1048.4027	3197.2809	1935.55	1049.05
1048.5058	3198.2189	1940.2	1051.65
1048.6089	3199.1563	1935.75	1044.6
1048.7119	3200.0931	1917.5	1031.35
1048.8148	3201.0292	1910.45	1025.95
1048.9178	3201.9648	1899.15	1014.35
1049.0206	3202.8997	1913.7	1025.4
1049.1235	3203.834	1903	1018.65
1049.2262	3204.7677	1894.65	1007.15
1049.329	3205.7008	1894.9	1007.55
1049.4317	3206.6333	1882.45	998.9
1049.5343	3207.5652	1884.8	996.6
1049.6369	3208.4964	1875.2	989.3
1049.7394	3209.4271	1873.95	987.5
1049.8419	3210.3571	1862.45	976.05
1049.9444	3211.2865	1861.35	975
1050.0468	3212.2154	1858.85	971.45
1050.1491	3213.1436	1853.6	966.4
1050.2514	3214.0712	1847	955
1050.3537	3214.9982	1837.15	949.4
1050.4559	3215.9246	1832.15	945.5
1050.5581	3216.8503	1824.85	938.75
1050.6602	3217.7755	1821.35	933.1
1050.7623	3218.7001	1832.05	946.45
1050.8643	3219.624	1820.25	933.65
1050.9663	3220.5473	1810	922.5
1051.0682	3221.4701	1803.7	915.9
1051.1701	3222.3922	1807.2	919.85
1051.2719	3223.3137	1801.6	916.3
1051.3737	3224.2346	1786.7	901.2
1051.4754	3225.1549	1787.4	900.4
1051.5771	3226.0746	1779.65	894.8
1051.6788	3226.9937	1785.05	900.5
1051.7804	3227.9121	1775.4	889
1051.8819	3228.83	1771.45	885.75
1051.9834	3229.7473	1767.5	880.7
1052.0849	3230.6639	1756.55	869.55
1052.1863	3231.5799	1750.8	865.1
1052.2876	3232.4954	1750.55	861.85
1052.3889	3233.4102	1745.3	858.05
1052.4902	3234.3244	1744.2	857.2
1052.5914	3235.238	1737.25	850.9
1052.6926	3236.151	1753.1	842.55
1052.7937	3237.0634	1721.7	835.75
1052.8948	3237.9752	1717.6	831
1052.9958	3238.8864	1713.3	827.65
1053.0968	3239.797	1713.8	828.5
1053.1977	3240.7069	1701.2	815.25
1053.2986	3241.6163	1700.55	814.1
1053.3994	3242.5251	1690.65	803.85
1053.5002	3243.4332	1689.4	804.45
1053.6009	3244.3408	1689.05	802.25
1053.7016	3245.2477	1679.55	793.2
1053.8022	3246.154	1674.8	787.8
1053.9028	3247.0598	1676.4	788.65
1054.0034	3247.9649	1660.3	775.6
1054.1039	3248.8694	1660.35	773.5
1054.2043	3249.7733	1660	774.9
1054.3047	3250.6766	1647.15	758.5
1054.4051	3251.5793	1644.15	757.25
1054.5054	3252.4814	1635.5	748.75
1054.6056	3253.3829	1631.8	745.4
1054.7058	3254.2838	1632.55	746.8
1054.806	3255.1841	1630.05	746.5
1054.9061	3256.0838	1617.95	732.4
1055.0061	3256.9829	1612.85	729.2
1055.1062	3257.8814	1609.6	722.85
1055.2061	3258.7792	1600.15	712.85
1055.306	3259.6765	1603.9	718.5
1055.4059	3260.5731	1585.9	701.35
1055.5057	3261.4692	1578.5	692.65
1055.6055	3262.3647	1569.8	682.85
1055.7052	3263.2595	1559.3	674.35
1055.8049	3264.1538	1545.05	657.95
1055.9045	3265.0474	1542	654.6
1056.0041	3265.9404	1525.95	640.6
1056.1036	3266.8329	1519.45	634.95
1056.2031	3267.7247	1521	625.95
1056.3025	3268.616	1500.2	617.35
1056.4019	3269.5066	1478.45	591.4
1056.5013	3270.3966	1468.35	580.7
1056.6005	3271.286	1444.65	559.75
