Software Version:	3.9.2.0
Unit SN:	10000200
Spectrometer SN:	6960
Date:	3/6/2024 10:21:18 AM
Data Line Index:	25
Spectral Points:	2048
Integration time (ms):	125
Averages:	20
Delay (ms):	30
Sequence Number:	1
Processing:	dark subtract
Laser Power (mW):	300
Laser Current (mA):	826
Laser Diode Temp (C):	25.1
Laser Case Temp (C):	25.5
System Temp (C):	25.3
Spectrometer Temp (C):	22.8
CCD Temp (C):	-0.008
Secondary Temp (C):	20.007
Heatsink Temp (C):	20.594
CCDPCB Temp (C):	34.328
SecondaryPCB Temp (C):	27.047

Wavelength	RamanShift	Raw Counts	Dark Subtracted
787.061	30.1047	1038.4	628.05
787.2016	32.3739	1065.75	655.45
787.3422	34.6426	1109.05	698.8
787.4828	36.9109	1149	737.6
787.6235	39.1787	1195.45	777.15
787.7642	41.4461	1255.35	834.7
787.9049	43.7131	1312.1	888.8
788.0456	45.9796	1363.55	937.4
788.1863	48.2456	1423.8	992.8
788.3271	50.5112	1486.4	1050.9
788.4679	52.7764	1534.95	1096.7
788.6087	55.0411	1619.3	1177.95
788.7496	57.3054	1684.25	1237.85
788.8904	59.5692	1761.5	1312.15
789.0313	61.8326	1851	1399.9
789.1722	64.0955	1931.65	1478.2
789.3132	66.3579	2045.25	1585.45
789.4541	68.6199	2192.75	1728
789.5951	70.8815	2421.55	1957.15
789.7361	73.1426	2907.7	2436.05
789.8771	75.4032	4174.65	3699.3
790.0181	77.6634	7379.95	6900.85
790.1592	79.9231	15789.8	15304.55
790.3003	82.1824	49047.2	48550.2
790.4414	84.4412	65535	65018.35
790.5825	86.6995	65535	64988.35
790.7237	88.9574	65535	64964.95
790.8648	91.2148	65535	64945.6
791.006	93.4717	65535	64937.3
791.1472	95.7282	65535	64935.35
791.2885	97.9842	65535	64928.5
791.4297	100.2398	65535	64926.45
791.571	102.4949	65535	64921.45
791.7123	104.7495	65535	64920.25
791.8536	107.0036	65535	64922.15
791.9949	109.2573	65535	64919.75
792.1363	111.5105	65535	64919.2
792.2777	113.7632	65535	64915.2
792.4191	116.0154	65535	64901.5
792.5605	118.2672	65535	64911.1
792.7019	120.5185	65535	64911.75
792.8434	122.7693	65535	64905.05
792.9849	125.0197	65535	64902.6
793.1264	127.2696	65535	64901.85
793.2679	129.519	65535	64894.95
793.4094	131.7679	65535	64891.3
793.551	134.0163	65535	64887.85
793.6926	136.2642	65535	64883.3
793.8342	138.5117	65535	64879.3
793.9758	140.7587	65535	64882.85
794.1175	143.0052	65535	64882.5
794.2591	145.2512	65535	64882.35
794.4008	147.4967	65535	64878.25
794.5425	149.7417	65535	64875.35
794.6842	151.9863	65535	64872.4
794.826	154.2304	65535	64869.3
794.9677	156.4739	65535	64860.2
795.1095	158.717	65535	64865.45
795.2513	160.9596	65535	64858.9
795.3931	163.2017	65535	64854.8
795.535	165.4433	65535	64852.75
795.6768	167.6844	65535	64852.85
795.8187	169.925	65535	64850.35
795.9606	172.1651	65535	64846.25
796.1025	174.4047	65535	64847.3
796.2445	176.6439	65535	64842.45
796.3864	178.8825	65535	64839.3
796.5284	181.1206	65535	64835.1
796.6704	183.3582	65535	64831.9
796.8124	185.5954	65535	64827.35
796.9544	187.832	65535	64828
797.0965	190.0681	65535	64822.6
797.2386	192.3037	65535	64819.4
797.3806	194.5388	65535	64816.85
797.5228	196.7734	65535	64818.55
797.6649	199.0075	65535	64814.65
797.807	201.2411	65535	64811.15
797.9492	203.4742	65535	64811.25
798.0914	205.7068	65535	64808.05
798.2336	207.9389	65535	64810.15
798.3758	210.1704	65535	64810.85
798.518	212.4015	65535	64811.5
798.6603	214.632	65535	64822.15
798.8025	216.862	65535	64828.4
798.9448	219.0915	65535	64826.6
799.0871	221.3205	65535	64822.55
799.2294	223.549	65535	64827
799.3718	225.777	65535	64827.1
799.5141	228.0044	65535	64822.2
799.6565	230.2314	65535	64821.9
799.7989	232.4578	65535	64818.35
799.9413	234.6837	65535	64809.45
800.0837	236.909	65535	64810.65
800.2262	239.1339	65535	64787.5
800.3687	241.3582	65535	64799.7
800.5111	243.582	65535	64766.2
800.6536	245.8053	65535	64777.05
800.7961	248.0281	65535	64786.5
800.9387	250.2503	65535	64782.7
801.0812	252.472	65535	64779.35
801.2238	254.6932	65535	64777.05
801.3664	256.9139	65535	64775.35
801.509	259.134	65535	64774.7
801.6516	261.3536	65535	64773.7
801.7942	263.5727	65535	64774.45
801.9369	265.7912	65535	64775.45
802.0795	268.0092	65535	64773.6
802.2222	270.2267	65535	64770.6
802.3649	272.4436	65535	64771.15
802.5076	274.6601	65535	64763.05
802.6504	276.8759	65535	64763.6
802.7931	279.0913	65535	64765.1
802.9359	281.3061	65535	64767.05
803.0787	283.5204	65535	64761.5
803.2215	285.7341	65535	64758.1
803.3643	287.9473	65535	64749.6
803.5071	290.16	65535	64752.95
803.6499	292.3721	65535	64764.15
803.7928	294.5837	65535	64756
803.9357	296.7947	65535	64756.35
804.0786	299.0052	65535	64757.8
804.2215	301.2152	65535	64755.35
804.3644	303.4246	65535	64757.7
804.5074	305.6334	65535	64756.2
804.6503	307.8418	65535	64753.75
804.7933	310.0495	65535	64750.6
804.9363	312.2568	65535	64754.4
805.0793	314.4635	65535	64751.85
805.2223	316.6696	65535	64746.25
805.3653	318.8752	65535	64738.8
805.5084	321.0802	65535	64750.35
805.6514	323.2847	65535	64745.4
805.7945	325.4887	65535	64747.7
805.9376	327.692	65535	64746.15
806.0807	329.8949	65535	64742.6
806.2238	332.0972	65535	64739.95
806.367	334.2989	65535	64733.6
806.5101	336.5001	65535	64737.35
806.6533	338.7007	65535	64736.35
806.7965	340.9008	65535	64736.9
806.9397	343.1003	65535	64733.95
807.0829	345.2992	65535	64735
807.2261	347.4976	65535	64735.5
807.3693	349.6955	65535	64727.2
807.5126	351.8927	65535	64727
807.6559	354.0895	65535	64714.1
807.7991	356.2856	65535	64725.5
807.9424	358.4812	65535	64724.9
808.0857	360.6763	65535	64720.2
808.2291	362.8707	65535	64721.45
808.3724	365.0646	65535	64718.5
808.5158	367.258	65535	64718.55
808.6591	369.4508	65535	64714.25
808.8025	371.643	65535	64719.35
808.9459	373.8346	65535	64714.8
809.0893	376.0257	65535	64710.7
809.2327	378.2162	65535	64711.2
809.3762	380.4062	65535	64706.45
809.5196	382.5956	65535	64710.5
809.6631	384.7844	65535	64714
809.8066	386.9726	65535	64715
809.9501	389.1603	65535	64717.4
810.0936	391.3474	65535	64675.2
810.2371	393.5339	65535	64715.15
810.3806	395.7199	65535	64719.1
810.5241	397.9052	65535	64717.35
810.6677	400.09	65535	64714.65
810.8113	402.2743	65535	64714.65
810.9548	404.4579	65535	64720.05
811.0984	406.641	65535	64713.65
811.2421	408.8235	65535	64711.8
811.3857	411.0054	65535	64711.85
811.5293	413.1868	65535	64707.85
811.673	415.3675	65535	64704.35
811.8166	417.5477	65535	64702.8
811.9603	419.7273	65535	64703.4
812.104	421.9064	65535	64695.6
812.2477	424.0848	65535	64697.75
812.3914	426.2627	65535	64700.7
812.5351	428.4399	65535	64698.35
812.6788	430.6166	65535	64693.45
812.8226	432.7928	65535	64694.75
812.9663	434.9683	65535	64693.25
813.1101	437.1432	65535	64692
813.2539	439.3176	65535	64694.25
813.3977	441.4914	65535	64693.7
813.5415	443.6645	65535	64693.75
813.6853	445.8371	65535	64693.85
813.8291	448.0091	65535	64693.55
813.973	450.1806	65535	64692.8
814.1168	452.3514	65535	64689.9
814.2607	454.5216	65535	64678.55
814.4046	456.6913	65535	64688.4
814.5485	458.8603	65535	64687.4
814.6924	461.0288	65535	64689.2
814.8363	463.1967	65535	64691.15
814.9802	465.3639	65535	64689
815.1241	467.5306	65535	64687.7
815.2681	469.6967	65535	64691.15
815.412	471.8622	65535	64689.5
815.556	474.0271	65535	64689.95
815.7	476.1914	65535	64685.85
815.844	478.3551	65535	64688.8
815.988	480.5182	65535	64687.15
816.132	482.6807	65535	64687.85
816.276	484.8426	65535	64689.85
816.4201	487.0039	65535	64688.3
816.5641	489.1647	65535	64684.15
816.7082	491.3248	65535	64684.5
816.8522	493.4843	65535	64685.05
816.9963	495.6432	65535	64679.2
817.1404	497.8015	65535	64680.05
817.2845	499.9592	65535	64679
817.4286	502.1163	65535	64675.9
817.5727	504.2728	65535	64678.9
817.7168	506.4287	65535	64680.2
817.861	508.5839	65535	64679
818.0051	510.7386	65535	64680.2
818.1493	512.8927	65535	64677.45
818.2935	515.0461	65535	64677.55
818.4377	517.199	65535	64675.15
818.5818	519.3512	65535	64674.55
818.726	521.5029	65535	64670.15
818.8703	523.6539	65535	64672.5
819.0145	525.8043	65535	64674.6
819.1587	527.9541	65535	64671.45
819.303	530.1033	65535	64671.8
819.4472	532.2519	65535	64673.35
819.5915	534.3999	65535	64669
819.7357	536.5472	65535	64672.45
819.88	538.694	65535	64671.6
820.0243	540.8401	65535	64669.75
820.1686	542.9856	65535	64665.95
820.3129	545.1305	65535	64667.05
820.4572	547.2748	65535	64669.95
820.6016	549.4185	65535	64664.95
820.7459	551.5615	65535	64662.7
820.8902	553.704	65535	64670.15
821.0346	555.8458	65535	64667.7
821.1789	557.987	65535	64669.2
821.3233	560.1276	65535	64664.7
821.4677	562.2675	65535	64671.25
821.6121	564.4069	65535	64669.6
821.7565	566.5456	65535	64670.6
821.9009	568.6837	65535	64665.9
822.0453	570.8212	65535	64669.85
822.1897	572.958	65535	64665
822.3342	575.0942	65535	64668.3
822.4786	577.2299	65535	64666.7
822.6231	579.3648	65535	64667.25
822.7675	581.4992	65535	64668.85
822.912	583.6329	65535	64670.9
823.0565	585.766	65535	64667.35
823.201	587.8985	65535	64667
823.3454	590.0304	65535	64641.95
823.4899	592.1616	65535	64663.4
823.6345	594.2922	65535	64664.4
823.779	596.4222	65535	64663.45
823.9235	598.5515	65535	64655.05
824.068	600.6802	65535	64665.3
824.2126	602.8083	65535	64660.75
824.3571	604.9358	65535	64660.35
824.5017	607.0626	65535	64658.9
824.6462	609.1888	65535	64659.6
824.7908	611.3144	65535	64657.25
824.9354	613.4393	65535	64657.75
825.08	615.5636	65535	64659.4
825.2246	617.6873	65535	64659.7
825.3692	619.8103	65535	64657.25
825.5138	621.9327	65535	64654.65
825.6584	624.0544	65535	64657.55
825.803	626.1756	65535	64661
825.9477	628.2961	65535	64658.3
826.0923	630.4159	65535	64657.75
826.237	632.5351	65535	64657.65
826.3816	634.6537	65535	64657.5
826.5263	636.7716	65535	64652.25
826.6709	638.8889	65535	64651
826.8156	641.0056	65535	64652.25
826.9603	643.1216	65535	64653.6
827.105	645.237	65535	64651.3
827.2497	647.3518	65535	64656.5
827.3944	649.4659	65535	64655.65
827.5391	651.5793	65535	64654.2
827.6838	653.6922	65535	64657.65
827.8285	655.8043	65535	64653.8
827.9733	657.9159	65535	64650.1
828.118	660.0268	65535	64651.2
828.2627	662.137	65535	64653
828.4075	664.2466	65535	64652.05
828.5522	666.3556	65535	64650.1
828.697	668.4639	65535	64649.6
828.8418	670.5716	65535	64652.35
828.9865	672.6786	65535	64650.15
829.1313	674.785	65535	64648.85
829.2761	676.8907	65535	64651.3
829.4209	678.9958	65535	64651.3
829.5657	681.1002	65535	64649.5
829.7105	683.204	65535	64645.7
829.8553	685.3072	65535	64648
830.0001	687.4097	65535	64651
830.1449	689.5115	65535	64647
830.2898	691.6127	65535	64649.35
830.4346	693.7132	65535	64648.2
830.5794	695.8131	65535	64625.45
830.7243	697.9123	65535	64645.85
830.8691	700.0109	65535	64648.1
831.014	702.1089	65535	64651
831.1588	704.2061	65535	64647
831.3037	706.3028	65535	64645.4
831.4486	708.3987	65535	64648.7
831.5935	710.4941	65535	64646.55
831.7383	712.5887	65535	64645.85
831.8832	714.6827	65535	64645.05
832.0281	716.7761	65535	64645.05
832.173	718.8688	65535	64647.25
832.3179	720.9608	65535	64642.55
832.4628	723.0522	65535	64640.85
832.6077	725.1429	65535	64642.05
832.7527	727.233	65535	64645.25
832.8976	729.3224	65535	64642.75
833.0425	731.4112	65535	64641.3
833.1874	733.4993	65535	64641.3
833.3324	735.5867	65535	64643.2
833.4773	737.6735	65535	64642.35
833.6222	739.7596	65535	64641.1
833.7672	741.845	65535	64640.75
833.9122	743.9298	65535	64642.75
834.0571	746.014	65535	64645.35
834.2021	748.0974	65535	64642.75
834.347	750.1802	65535	64640.55
834.492	752.2624	65535	64643.05
834.637	754.3439	65535	64637.95
834.782	756.4247	65535	64632.55
834.9269	758.5048	65535	64640.65
835.0719	760.5843	65535	64640.4
835.2169	762.6631	65535	64641
835.3619	764.7413	65535	64644.2
835.5069	766.8188	65535	64639.25
835.6519	768.8956	65535	64638.15
835.7969	770.9718	65535	64641.85
835.9419	773.0473	65535	64641.1
836.0869	775.1221	65535	64640.8
836.232	777.1962	65535	64642.35
836.377	779.2697	65535	64641.25
836.522	781.3426	65535	64623.05
836.667	783.4147	65535	64641.95
836.8121	785.4862	65535	64640.1
836.9571	787.557	65535	64635.8
837.1021	789.6271	65535	64640.6
837.2472	791.6966	65535	64637.95
837.3922	793.7654	65535	64639.1
837.5373	795.8335	65535	64638.85
837.6823	797.901	65535	64639.9
837.8274	799.9678	65535	64639.05
837.9724	802.0339	65535	64640.3
838.1175	804.0993	65535	64630.65
838.2626	806.1641	65535	64635.2
838.4076	808.2282	65535	64640.8
838.5527	810.2916	65535	64638.35
838.6978	812.3544	65535	64641.25
838.8428	814.4164	65535	64640.25
838.9879	816.4778	65535	64638.1
839.133	818.5385	65535	64637.3
839.2781	820.5986	65535	64637.05
839.4232	822.658	65535	64636.9
839.5682	824.7166	65535	64638.2
839.7133	826.7747	65535	64639.55
839.8584	828.832	65535	64637.05
840.0035	830.8886	65535	64634.3
840.1486	832.9446	65535	64636.2
840.2937	834.9999	65535	64640.3
840.4388	837.0545	65535	64634.25
840.5839	839.1085	65535	64634.25
840.729	841.1618	65535	64634.5
840.8741	843.2143	65535	64638.3
841.0192	845.2662	65535	64639.65
841.1643	847.3175	65535	64636.35
841.3095	849.368	65535	64635.45
841.4546	851.4179	65535	64637.3
841.5997	853.467	65535	64636.5
841.7448	855.5155	65535	64634.4
841.8899	857.5633	65535	64636.95
842.0351	859.6105	65535	64636.1
842.1802	861.6569	65535	64637.6
842.3253	863.7027	65535	64633.3
842.4704	865.7478	65535	64637.2
842.6156	867.7922	65535	64637.3
842.7607	869.8359	65535	64636.95
842.9058	871.8789	65535	64635.5
843.0509	873.9212	65535	64603.1
843.1961	875.9629	65535	64633.8
843.3412	878.0039	65535	64635.05
843.4863	880.0441	65535	64637.35
843.6315	882.0837	65535	64635.05
843.7766	884.1226	65535	64632.55
843.9218	886.1609	65535	64633.7
844.0669	888.1984	65535	64635.65
844.212	890.2352	65535	64636.3
844.3572	892.2714	65535	64631.5
844.5023	894.3069	65535	64630.4
844.6475	896.3416	65535	64635.8
844.7926	898.3757	65535	64633.85
844.9377	900.4091	65535	64635.2
845.0829	902.4418	65535	64628.9
845.228	904.4739	65535	64631.7
845.3732	906.5052	65535	64635.85
845.5183	908.5358	65535	64633.15
845.6635	910.5658	65535	64629.3
845.8086	912.595	65535	64634
845.9538	914.6236	65535	64633.55
846.0989	916.6515	65535	64634.35
846.2441	918.6786	65535	64631.45
846.3892	920.7051	65535	64632.2
846.5344	922.7309	65535	64632.55
846.6795	924.756	65535	64633.75
846.8246	926.7804	65535	64633.05
846.9698	928.8041	65535	64631.15
847.1149	930.8272	65535	64631.95
847.2601	932.8495	65535	64632.6
847.4052	934.8711	65535	64629.75
847.5504	936.892	65535	64633.55
847.6955	938.9123	65535	64631.45
847.8407	940.9318	65535	64630.4
847.9858	942.9506	65535	64632.85
848.131	944.9688	65535	64633
848.2761	946.9862	65535	64633.95
848.4213	949.003	65535	64632.5
848.5664	951.019	65535	64631.8
848.7115	953.0344	65535	64635.65
848.8567	955.0491	65535	64632.4
849.0018	957.063	65535	64632.55
849.147	959.0763	65535	64635.05
849.2921	961.0888	65535	64630.3
849.4373	963.1007	65535	64634.4
849.5824	965.1119	65535	64633.75
849.7275	967.1223	65535	64635.45
849.8727	969.1321	65535	64634.3
850.0178	971.1412	65535	64631.05
850.1629	973.1495	65535	64634.1
850.3081	975.1572	65535	64597.6
850.4532	977.1641	65535	64632.5
850.5983	979.1704	65535	64630.4
850.7435	981.1759	65535	64627.7
850.8886	983.1808	65535	64631.15
851.0337	985.1849	65535	64619.05
851.1788	987.1884	65535	64628.6
851.324	989.1911	65535	64629.3
851.4691	991.1932	65535	64632.1
851.6142	993.1945	65535	64631.05
851.7593	995.1951	65535	64630.95
851.9045	997.1951	65535	64625.2
852.0496	999.1943	65535	64632.2
852.1947	1001.1928	65535	64629.4
852.3398	1003.1906	65535	64633.5
852.4849	1005.1877	65535	64631.3
852.63	1007.1841	65535	64633.7
852.7751	1009.1798	65535	64633.1
852.9202	1011.1748	65535	64632
853.0653	1013.1691	65535	64629.65
853.2104	1015.1627	65535	64631.1
853.3555	1017.1556	65535	64631.7
853.5006	1019.1477	65535	64631
853.6457	1021.1392	65535	64635.45
853.7908	1023.1299	65535	64633.7
853.9359	1025.12	65535	64631.65
854.081	1027.1093	65535	64636.95
854.2261	1029.0979	65535	64638.55
854.3712	1031.0859	65535	64634.95
854.5163	1033.0731	65535	64632.7
854.6613	1035.0596	65535	64632.5
854.8064	1037.0454	65535	64631.55
854.9515	1039.0304	65535	64629.35
855.0965	1041.0148	65535	64634.3
855.2416	1042.9985	65535	64631.6
855.3867	1044.9814	65535	64634.45
855.5317	1046.9636	65535	64630.1
855.6768	1048.9452	65535	64631.95
855.8219	1050.926	65535	64635.1
855.9669	1052.9061	65535	64636.7
856.112	1054.8855	65535	64630.45
856.257	1056.8642	65535	64631.35
856.4021	1058.8421	65535	64629.7
856.5471	1060.8194	65535	64630.85
856.6921	1062.7959	65535	64633.45
856.8372	1064.7717	65535	64631.4
856.9822	1066.7469	65535	64631.25
857.1272	1068.7213	65535	64630.9
857.2723	1070.695	65535	64632.65
857.4173	1072.6679	65535	64632.1
857.5623	1074.6402	65535	64632.25
857.7073	1076.6117	65535	64626.55
857.8523	1078.5826	65535	64631.25
857.9973	1080.5527	65535	64628.4
858.1423	1082.5221	65535	64630.75
858.2873	1084.4908	65535	64631.4
858.4323	1086.4587	65535	64632.5
858.5773	1088.426	65535	64632
858.7223	1090.3925	65535	64628.2
858.8673	1092.3584	65535	64632.25
859.0123	1094.3235	65535	64633.55
859.1573	1096.2879	65535	64631.25
859.3022	1098.2515	65535	64632.4
859.4472	1100.2145	65535	64633
859.5922	1102.1767	65535	64627.6
859.7371	1104.1382	65535	64629.95
859.8821	1106.099	65535	64631.65
860.027	1108.0591	65535	64632.95
860.172	1110.0185	65535	64631.3
860.3169	1111.9771	65535	64634.25
860.4619	1113.9351	65535	64632.6
860.6068	1115.8923	65535	64629.4
860.7517	1117.8488	65535	64627.7
860.8967	1119.8045	65535	64631.55
861.0416	1121.7596	65535	64632.25
861.1865	1123.7139	65535	64632.5
861.3314	1125.6675	65535	64631.7
861.4763	1127.6204	65535	64630.6
861.6212	1129.5726	65535	64629.5
861.7661	1131.524	65535	64634.15
861.911	1133.4748	65535	64632
862.0559	1135.4248	65535	64632.2
862.2008	1137.3741	65535	64636.25
862.3457	1139.3226	65535	64632.75
862.4905	1141.2705	65535	64632.05
862.6354	1143.2176	65535	64625.05
862.7803	1145.164	65535	64629.65
862.9251	1147.1097	65535	64630.85
863.07	1149.0546	65535	64629.75
863.2148	1150.9989	65535	64631.1
863.3597	1152.9424	65535	64629.75
863.5045	1154.8852	65535	64630.8
863.6493	1156.8272	65535	64633.45
863.7942	1158.7686	65535	64626.7
863.939	1160.7092	65535	64629.6
864.0838	1162.6491	65535	64632.3
864.2286	1164.5883	65535	64633.6
864.3734	1166.5267	65535	64632.75
864.5182	1168.4644	65535	64633.8
864.663	1170.4014	65535	64627.25
864.8078	1172.3377	65535	64631.8
864.9526	1174.2732	65535	64634
865.0974	1176.2081	65535	64632.25
865.2421	1178.1421	65535	64629.95
865.3869	1180.0755	65535	64631.75
865.5317	1182.0082	65535	64633.05
865.6764	1183.9401	65535	64631.15
865.8212	1185.8713	65535	64632.95
865.9659	1187.8017	65535	64634.5
866.1106	1189.7315	65535	64635.35
866.2554	1191.6605	65535	64610.3
866.4001	1193.5888	65535	64634.6
866.5448	1195.5163	65535	64635.2
866.6895	1197.4432	65535	64632.95
866.8342	1199.3693	65535	64633.1
866.9789	1201.2947	65535	64630.5
867.1236	1203.2193	65535	64632.1
867.2683	1205.1432	65535	64633.3
867.413	1207.0664	65535	64633.75
867.5576	1208.9889	65535	64628.35
867.7023	1210.9106	65535	64633.45
867.847	1212.8316	65535	64633.45
867.9916	1214.7519	65535	64623.2
868.1363	1216.6715	65535	64632
868.2809	1218.5903	65535	64635.45
868.4255	1220.5084	65535	64633.6
868.5701	1222.4257	65535	64634.45
868.7148	1224.3424	65535	64636.8
868.8594	1226.2583	65535	64625.8
869.004	1228.1735	65535	64632.8
869.1486	1230.0879	65535	64632.7
869.2932	1232.0016	65535	64633.55
869.4377	1233.9146	65535	64630.2
869.5823	1235.8269	65535	64634.45
869.7269	1237.7384	65535	64635.1
869.8715	1239.6492	65535	64632.1
870.016	1241.5592	65535	64631.75
870.1606	1243.4686	65535	64635.1
870.3051	1245.3772	65535	64632.15
870.4496	1247.285	65535	64630.85
870.5941	1249.1922	65535	64634.05
870.7387	1251.0986	65535	64634.55
870.8832	1253.0042	65535	64632.8
871.0277	1254.9092	65535	64633.95
871.1722	1256.8134	65535	64634.25
871.3167	1258.7169	65535	64632.8
871.4611	1260.6196	65535	64632.95
871.6056	1262.5216	65535	64633.25
871.7501	1264.4229	65535	64635.15
871.8945	1266.3234	65535	64634.25
872.039	1268.2232	65535	64633.2
872.1834	1270.1223	65535	64631.55
872.3278	1272.0207	65535	64633.95
872.4723	1273.9183	65535	64627.7
872.6167	1275.8151	65535	64634.95
872.7611	1277.7113	65535	64632.65
872.9055	1279.6067	65535	64633.75
873.0499	1281.5014	65535	64630.15
873.1943	1283.3953	65535	64631.2
873.3386	1285.2885	65535	64635.55
873.483	1287.181	65535	64633.85
873.6274	1289.0727	65535	64634.6
873.7717	1290.9637	65535	64634.15
873.9161	1292.854	65535	64632.2
874.0604	1294.7435	65535	64632.8
874.2047	1296.6323	65535	64635.2
874.349	1298.5204	65535	64629.1
874.4933	1300.4077	65535	64630.75
874.6376	1302.2943	65535	64636.1
874.7819	1304.1802	65535	64634.7
874.9262	1306.0653	65535	64630.55
875.0705	1307.9497	65535	64634.4
875.2147	1309.8333	65535	64635.4
875.359	1311.7162	65535	64633.05
875.5032	1313.5984	65535	64631.8
875.6475	1315.4798	65535	64619.25
875.7917	1317.3605	65535	64619.5
875.9359	1319.2405	65535	64631.75
876.0801	1321.1197	65535	64632.1
876.2243	1322.9982	65535	64631.25
876.3685	1324.876	65535	64634.6
876.5127	1326.753	65535	64634.4
876.6569	1328.6293	65535	64631.7
876.801	1330.5048	65535	64633.5
876.9452	1332.3796	65535	64632.8
877.0893	1334.2537	65535	64607.15
877.2335	1336.127	65535	64633.95
877.3776	1337.9996	65535	64634.1
877.5217	1339.8714	65535	64632.9
877.6658	1341.7426	65535	64590.6
877.8099	1343.6129	65535	64631.9
877.954	1345.4826	65535	64633.15
878.0981	1347.3515	65535	64630.8
878.2422	1349.2196	65535	64631.55
878.3862	1351.087	65535	64634.6
878.5303	1352.9537	65535	64631.25
878.6743	1354.8197	65535	64632.25
878.8184	1356.6849	65535	64633.95
878.9624	1358.5493	65535	64633.2
879.1064	1360.4131	65535	64635
879.2504	1362.276	65535	64633.2
879.3944	1364.1383	65535	64634.1
879.5384	1365.9998	65535	64630.45
879.6823	1367.8606	65535	64632.55
879.8263	1369.7206	65535	64634.1
879.9702	1371.5799	65535	64632.45
880.1142	1373.4384	65535	64634
880.2581	1375.2962	65535	64633.45
880.402	1377.1533	65535	64635.15
880.5459	1379.0096	65535	64634.15
880.6898	1380.8652	65535	64633.1
880.8337	1382.7201	65535	64635.9
880.9776	1384.5742	65535	64634.8
881.1215	1386.4275	65535	64633.85
881.2653	1388.2802	65535	64636.75
881.4092	1390.132	65535	64635
881.553	1391.9832	65535	64633.7
881.6968	1393.8336	65535	64633.05
881.8406	1395.6832	65535	64630.7
881.9844	1397.5322	65535	64633.7
882.1282	1399.3803	65535	64626.4
882.272	1401.2278	65535	64632.95
882.4158	1403.0745	65535	64634.7
882.5595	1404.9204	65535	64634.7
882.7033	1406.7656	65535	64634
882.847	1408.6101	65535	64635.05
882.9908	1410.4538	65535	64635.5
883.1345	1412.2968	65535	64634.1
883.2782	1414.139	65535	64632.45
883.4219	1415.9805	65535	64635
883.5656	1417.8213	65535	64627.6
883.7092	1419.6613	65535	64635.95
883.8529	1421.5006	65535	64635.55
883.9965	1423.3391	65535	64634.5
884.1402	1425.1769	65535	64633.85
884.2838	1427.0139	65535	64634.45
884.4274	1428.8502	65535	64634.5
884.571	1430.6858	65535	64633.4
884.7146	1432.5206	65535	64635.7
884.8582	1434.3547	65535	64633.45
885.0018	1436.188	65535	64635.45
885.1453	1438.0206	65535	64633.7
885.2889	1439.8524	65535	64636.2
885.4324	1441.6835	65535	64634.7
885.5759	1443.5139	65535	64631.75
885.7194	1445.3435	65535	64634.95
885.8629	1447.1724	65535	64634.3
886.0064	1449.0005	65535	64634.3
886.1499	1450.8279	65535	64634.3
886.2933	1452.6545	65535	64631.95
886.4368	1454.4804	65535	64636.15
886.5802	1456.3056	65535	64626.2
886.7237	1458.13	65535	64637
886.8671	1459.9536	65535	64635.05
887.0105	1461.7766	65535	64636.25
887.1539	1463.5987	65535	64632.4
887.2972	1465.4202	65535	64633.7
887.4406	1467.2409	65535	64634.8
887.584	1469.0608	65535	64634.95
887.7273	1470.88	65535	64632.4
887.8706	1472.6984	65535	64637.4
888.0139	1474.5161	65535	64631.65
888.1572	1476.3331	65535	64634.5
888.3005	1478.1493	65535	64635.35
888.4438	1479.9648	65535	64634.05
888.5871	1481.7795	65535	64636.25
888.7303	1483.5935	65535	64635.25
888.8736	1485.4067	65535	64637.25
889.0168	1487.2192	65535	64634.3
889.16	1489.031	65535	64632.35
889.3032	1490.842	65535	64635.45
889.4464	1492.6522	65535	64635.3
889.5896	1494.4618	65535	64634.25
889.7327	1496.2705	65535	64634.2
889.8759	1498.0785	65535	64635.05
890.019	1499.8858	65535	64633.3
890.1622	1501.6924	65535	64635.4
890.3053	1503.4981	65535	64633.7
890.4484	1505.3032	65535	64635.55
890.5914	1507.1075	65535	64635.4
890.7345	1508.911	65535	64635.7
890.8776	1510.7138	65535	64634.75
891.0206	1512.5159	65535	64636.1
891.1637	1514.3172	65535	64637.4
891.3067	1516.1178	65535	64635.95
891.4497	1517.9176	65535	64632.65
891.5927	1519.7166	65535	64634.75
891.7357	1521.515	65535	64628
891.8786	1523.3126	65535	64634.25
892.0216	1525.1094	65535	64634.45
892.1645	1526.9055	65535	64637.8
892.3074	1528.7008	65535	64636.65
892.4503	1530.4954	65535	64633.8
892.5932	1532.2893	65535	64637.45
892.7361	1534.0824	65535	64631.35
892.879	1535.8747	65535	64637.85
893.0218	1537.6663	65535	64635.75
893.1647	1539.4572	65535	64637.7
893.3075	1541.2473	65535	64636.3
893.4503	1543.0367	65535	64638.2
893.5931	1544.8253	65535	64632.3
893.7359	1546.6132	65535	64636.7
893.8787	1548.4003	65535	64627.25
894.0214	1550.1867	65535	64629.95
894.1642	1551.9723	65535	64632
894.3069	1553.7572	65535	64634.65
894.4496	1555.5414	65535	64635.8
894.5923	1557.3247	65535	64639
894.735	1559.1074	65535	64639.45
894.8777	1560.8893	65535	64639.6
895.0204	1562.6705	65535	64638.1
895.163	1564.4509	65535	64638.7
895.3056	1566.2305	65535	64638.65
895.4482	1568.0094	65535	64638.55
895.5908	1569.7876	65535	64636.65
895.7334	1571.565	65535	64637.95
895.876	1573.3417	65535	64637.3
896.0186	1575.1176	65535	64637.7
896.1611	1576.8928	65535	64639.65
896.3036	1578.6672	65535	64640.05
896.4461	1580.4409	65535	64641.7
896.5886	1582.2138	65535	64635.35
896.7311	1583.986	65535	64638.8
896.8736	1585.7575	65535	64640.1
897.0161	1587.5282	65535	64641.15
897.1585	1589.2981	65535	64641.15
897.3009	1591.0673	65535	64638.15
897.4433	1592.8358	65535	64640.75
897.5857	1594.6035	65535	64638.9
897.7281	1596.3704	65535	64638
897.8705	1598.1366	65535	64640.35
898.0128	1599.9021	65534.15	64639.05
898.1551	1601.6668	65535	64636.1
898.2975	1603.4308	65535	64639.65
898.4398	1605.194	65535	64635.05
898.5821	1606.9564	65524.65	64630.25
898.7243	1608.7182	65533.55	64635.45
898.8666	1610.4791	65528.45	64634.45
899.0088	1612.2394	65535	64643.25
899.1511	1613.9988	65525.3	64631.35
899.2933	1615.7576	65535	64641.6
899.4355	1617.5156	65535	64633.85
899.5776	1619.2728	65535	64640.2
899.7198	1621.0293	65522.9	64630
899.862	1622.785	65524.7	64626.2
900.0041	1624.54	65530.55	64634.1
900.1462	1626.2942	65518.35	64623.95
900.2883	1628.0477	65476.05	64579.4
900.4304	1629.8005	65388	64488.5
900.5725	1631.5525	65494.15	64600.15
900.7145	1633.3037	65394.7	64500.55
900.8566	1635.0542	65357.25	64464.25
900.9986	1636.804	65448.9	64554.05
901.1406	1638.553	65260.3	64283.2
901.2826	1640.3013	65338.55	64444.2
901.4245	1642.0488	65236.35	64338.75
901.5665	1643.7955	65355.25	64463.4
901.7085	1645.5416	65260.6	64367.15
901.8504	1647.2868	65137.15	64244.65
901.9923	1649.0313	65332.2	64437.35
902.1342	1650.7751	65216.6	64318.8
902.2761	1652.5181	65150.2	64254.55
902.4179	1654.2604	65154.7	64260.4
902.5598	1656.0019	65180.85	64289.75
902.7016	1657.7427	65121.05	64227.25
902.8434	1659.4828	65234.55	64339.05
902.9852	1661.222	65075.2	64180.9
903.127	1662.9606	65255.7	64361.4
903.2687	1664.6984	65050.05	64155.7
903.4105	1666.4354	65134.5	64239.55
903.5522	1668.1717	64892.25	63998.15
903.6939	1669.9072	64689.7	63794.75
903.8356	1671.642	64688.6	63792.6
903.9773	1673.3761	64647.95	63753.75
904.119	1675.1094	64613.35	63720.25
904.2606	1676.8419	64401.35	63507.6
904.4022	1678.5737	64500.3	63606.35
904.5439	1680.3048	64397.25	63505.5
904.6855	1682.0351	64279.25	63385.1
904.827	1683.7646	64211.6	63314.4
904.9686	1685.4934	64315.3	63422.85
905.1101	1687.2215	63855.5	62961.4
905.2517	1688.9488	64214.7	63321
905.3932	1690.6754	63464.95	62572.3
905.5347	1692.4012	63878.9	62983.65
905.6761	1694.1263	63933.15	63041
905.8176	1695.8506	63577.35	62683.65
905.9591	1697.5742	63630.75	62737.95
906.1005	1699.297	63549.5	62655.95
906.2419	1701.0191	63615.3	62725.45
906.3833	1702.7404	63212	62318.6
906.5246	1704.461	63050.35	62157.9
906.666	1706.1808	63283.7	62389.55
906.8073	1707.8999	63162.7	62271.05
906.9487	1709.6182	63038.75	62148.15
907.09	1711.3358	63019.3	62126.95
907.2313	1713.0527	62933.75	62043.65
907.3725	1714.7688	62937.4	62040.25
907.5138	1716.4841	62506.45	61613.1
907.655	1718.1987	62704.65	61806.9
907.7962	1719.9126	62575.15	61682.15
907.9374	1721.6257	62654.3	61760.75
908.0786	1723.338	62673.2	61780.6
908.2198	1725.0496	62087.7	61194.9
908.3609	1726.7605	62189.9	61296.5
908.502	1728.4706	62019.8	61126.45
908.6431	1730.18	62195.15	61300.05
908.7842	1731.8886	61961.85	61068.9
908.9253	1733.5964	61757.65	60860.85
909.0664	1735.3036	62085.25	61191.55
909.2074	1737.0099	61825.35	60933.9
909.3484	1738.7156	61508.65	60617
909.4894	1740.4204	61400.7	60504.8
909.6304	1742.1246	61533.85	60639.85
909.7714	1743.8279	61593.45	60699.9
909.9123	1745.5306	61542.7	60650.1
910.0532	1747.2325	60793.55	59901
910.1941	1748.9336	60809.2	59917.85
910.335	1750.634	60975	60080.55
910.4759	1752.3336	61172.95	60281.9
910.6168	1754.0325	60631.05	59739.5
910.7576	1755.7307	61117.6	60226.2
910.8984	1757.4281	60484.15	59592.65
911.0392	1759.1247	60888.15	59987.7
911.18	1760.8206	60206.05	59307.8
911.3208	1762.5158	60286.15	59388.95
911.4615	1764.2102	60404.25	59514.05
911.6022	1765.9039	60268.6	59377.05
911.7429	1767.5968	60109.75	59218.9
911.8836	1769.289	59996.45	59104
912.0243	1770.9804	60074.55	59181.3
912.1649	1772.6711	59951.1	59060.55
912.3056	1774.361	59821.3	58927.3
912.4462	1776.0502	59747.75	58854.2
912.5868	1777.7386	59324.25	58430.3
912.7274	1779.4263	59560.85	58669.55
912.8679	1781.1132	59548.35	58658.85
913.0084	1782.7994	59402.15	58508.5
913.149	1784.4849	59408.8	58518.1
913.2895	1786.1696	58780.5	57882.85
913.4299	1787.8535	59140.35	58247.85
913.5704	1789.5367	59133.4	58242.05
913.7108	1791.2192	58772.05	57882.55
913.8513	1792.9009	58591	57671.45
913.9917	1794.5818	58776.6	57884.1
914.132	1796.2621	58520	57629.75
914.2724	1797.9415	58511	57617.85
914.4128	1799.6202	58408.4	57517.8
914.5531	1801.2982	58423.7	57531.9
914.6934	1802.9755	58067.75	57174
914.8337	1804.6519	57947.55	57054.35
914.9739	1806.3277	58313.7	57422.15
915.1142	1808.0027	57594.75	56704.25
915.2544	1809.6769	57826.3	56935.35
915.3946	1811.3504	57875.7	56984.8
915.5348	1813.0231	57350.6	56459.35
915.675	1814.6951	57644.85	56754.05
915.8151	1816.3664	57402.6	56508.4
915.9553	1818.0369	57449.85	56557.1
916.0954	1819.7067	57236.7	56344.55
916.2355	1821.3757	57466.7	56574.4
916.3755	1823.044	56974.1	56082.55
916.5156	1824.7115	56759.15	55865.9
916.6556	1826.3783	56825.9	55935.7
916.7956	1828.0443	56818.15	55928.1
916.9356	1829.7096	56621.55	55727.85
917.0756	1831.3741	56262.3	55367.8
917.2155	1833.0379	56435.75	55547.05
917.3555	1834.701	56439.45	55546.55
917.4954	1836.3633	56174.1	55282.65
917.6353	1838.0248	56251	55357.85
917.7751	1839.6856	56115.05	55223.25
917.915	1841.3457	55831.7	54941.55
918.0548	1843.005	56115.7	55224.4
918.1946	1844.6636	55892.5	55002.2
918.3344	1846.3214	55414.3	54523.25
918.4742	1847.9785	55533.15	54643.75
918.6139	1849.6349	55410.45	54517.85
918.7537	1851.2904	55709.4	54809.05
918.8934	1852.9453	55107.3	54214.3
919.0331	1854.5994	55298.6	54406.05
919.1727	1856.2528	55327.2	54431.85
919.3124	1857.9054	54906.75	54013.8
919.452	1859.5572	54717.6	53827.25
919.5916	1861.2083	54875.75	53985.65
919.7312	1862.8587	55154.15	54264.4
919.8708	1864.5084	54129.45	53235.9
920.0103	1866.1572	54610.25	53717.05
920.1498	1867.8054	53933.5	53044.5
920.2893	1869.4528	54209.85	53317.25
920.4288	1871.0994	53820.15	52927.75
920.5683	1872.7453	53678.75	52788.45
920.7077	1874.3905	53918.15	53019.8
920.8471	1876.0349	53449.9	52558.3
920.9865	1877.6786	53770.8	52880.7
921.1259	1879.3215	53327.7	52439.25
921.2653	1880.9637	53744.75	52851.45
921.4046	1882.6051	53245.1	52353.9
921.5439	1884.2458	52977.65	52084.85
921.6832	1885.8858	52719.65	51828.25
921.8225	1887.525	52890	51998.45
921.9617	1889.1634	52734.95	51841.4
922.101	1890.8011	52525.3	51633.6
922.2402	1892.4381	52032.35	51140.65
922.3794	1894.0743	52505.9	51616.1
922.5185	1895.7098	52157.75	51269.45
922.6577	1897.3446	51826.6	50934.65
922.7968	1898.9786	51914.65	51020.6
922.9359	1900.6118	51630.1	50738.8
923.075	1902.2443	51266.65	50372.8
923.214	1903.8761	51538.8	50648.75
923.3531	1905.5071	51173.95	50281.1
923.4921	1907.1374	50590.05	49698.15
923.6311	1908.7669	50804.3	49914.6
923.77	1910.3957	50980.6	50089.4
923.909	1912.0237	50430.2	49539.35
924.0479	1913.651	50277.5	49386.15
924.1868	1915.2776	50014.05	49125
924.3257	1916.9034	49996	49105.1
924.4646	1918.5285	49800.55	48911.7
924.6034	1920.1528	49706.95	48815.55
924.7422	1921.7764	49552.8	48663.75
924.881	1923.3992	49427.05	48537.05
925.0198	1925.0213	49052.85	48161.75
925.1586	1926.6427	48672.7	47784.2
925.2973	1928.2633	48844.85	47877.8
925.436	1929.8832	48671.9	47779
925.5747	1931.5023	48471.05	47582
925.7134	1933.1207	48123.65	47232
925.852	1934.7383	48226.1	47335.25
925.9906	1936.3552	47931.35	47041.95
926.1292	1937.9714	47926.1	47035
926.2678	1939.5868	47784.4	46890.45
926.4064	1941.2015	47440.75	46550.35
926.5449	1942.8154	47181.7	46291.6
926.6834	1944.4286	47081.5	46190.95
926.8219	1946.041	47030.3	46118.8
926.9604	1947.6528	46777.25	45881.85
927.0988	1949.2637	46586.1	45697.35
927.2372	1950.8739	46347.7	45458.1
927.3756	1952.4834	46437.35	45547.1
927.514	1954.0921	46272.8	45381.35
927.6523	1955.7001	46050.3	45156.9
927.7907	1957.3074	46047.95	45158.15
927.929	1958.9139	45700.3	44809.9
928.0673	1960.5197	45698.95	44807.05
928.2055	1962.1247	45450.65	44560.9
928.3438	1963.729	45225.5	44335.3
928.482	1965.3325	45056.2	44143
928.6202	1966.9353	44998.6	44110.9
928.7584	1968.5374	44719.95	43826.75
928.8965	1970.1387	44587.45	43698
929.0346	1971.7393	44520.55	43630.55
929.1727	1973.3392	44384.6	43495.4
929.3108	1974.9383	44185.85	43296.45
929.4489	1976.5366	43950.4	43062.5
929.5869	1978.1342	43952.45	43062.9
929.7249	1979.7311	43820.05	42930.4
929.8629	1981.3273	43655.3	42763.7
930.0009	1982.9227	43484	42593.9
930.1388	1984.5173	43394.3	42505.2
930.2767	1986.1112	43107.7	42216.7
930.4146	1987.7044	43173.65	42284.5
930.5525	1989.2968	42884.9	41993.4
930.6904	1990.8885	42884.95	41992.2
930.8282	1992.4795	42710.15	41819.8
930.966	1994.0697	42542.8	41651.9
931.1038	1995.6592	42448.15	41558.55
931.2415	1997.2479	42243.5	41354.65
931.3793	1998.8359	42187.9	41298.5
931.517	2000.4232	41946.3	41058.5
931.6547	2002.0097	41877.8	40991.55
931.7923	2003.5955	41659.4	40770.45
931.93	2005.1805	41645.85	40755.9
932.0676	2006.7648	41486.55	40596.05
932.2052	2008.3484	41378.75	40488
932.3427	2009.9312	41384.6	40493.8
932.4803	2011.5133	41208.3	40320.7
932.6178	2013.0946	41061.5	40172.05
932.7553	2014.6752	40930.55	40043.8
932.8928	2016.2551	40884.95	39992.35
933.0302	2017.8342	40694.55	39805.05
933.1676	2019.4126	40537.4	39649.15
933.305	2020.9902	40332.35	39444.85
933.4424	2022.5672	40246.85	39357.3
933.5798	2024.1433	40206.45	39310.8
933.7171	2025.7188	39995.1	39108.45
933.8544	2027.2935	39891.25	39001.75
933.9917	2028.8674	39765	38875.9
934.129	2030.4406	39651.35	38763.6
934.2662	2032.0131	39420.4	38532.35
934.4034	2033.5849	39284.2	38388.8
934.5406	2035.1559	39230.6	38340.3
934.6778	2036.7261	39170.6	38281.9
934.8149	2038.2957	39039.25	38149.25
934.952	2039.8645	39014.65	38126.9
935.0891	2041.4325	39009.25	38116.4
935.2262	2042.9998	38818.1	37929.35
935.3632	2044.5664	38691.85	37800.7
935.5002	2046.1323	38595.9	37705.75
935.6372	2047.6974	38438.45	37546.7
935.7742	2049.2617	38329.45	37439.6
935.9111	2050.8254	38342.85	37444.9
936.048	2052.3883	38254.15	37357.05
936.1849	2053.9504	38100	37202.7
936.3218	2055.5118	37958.05	37060.85
936.4586	2057.0725	37809.15	36905.4
936.5955	2058.6325	37766.85	36867.2
936.7323	2060.1917	37617.25	36717.85
936.869	2061.7502	37510.35	36607.85
937.0058	2063.3079	37350.45	36451.15
937.1425	2064.8649	37225.95	36326.95
937.2792	2066.4212	37110.05	36212.8
937.4159	2067.9767	37017.05	36124.8
937.5525	2069.5315	36840.5	35948.25
937.6891	2071.0856	36649.75	35760.2
937.8257	2072.6389	36588.8	35697.75
937.9623	2074.1915	36414.1	35526.4
938.0989	2075.7433	36236.95	35344
938.2354	2077.2945	36179.7	35291.9
938.3719	2078.8448	36054.3	35164.7
938.5084	2080.3945	35944.1	35054.45
938.6448	2081.9434	35895.95	35005.8
938.7812	2083.4916	35715.85	34821.2
938.9176	2085.039	35581.2	34684.5
939.054	2086.5857	35558.1	34662.25
939.1903	2088.1317	35479.65	34581.75
939.3267	2089.677	35408.25	34506.9
939.463	2091.2215	35232.4	34334.7
939.5992	2092.7652	35139	34240.2
939.7355	2094.3083	35086	34186.85
939.8717	2095.8506	35041.5	34144.65
940.0079	2097.3921	34984.7	34087.85
940.1441	2098.933	34826.95	33932
940.2802	2100.4731	34728.8	33834.4
940.4163	2102.0124	34665.45	33762.95
940.5524	2103.5511	34601.45	33707.65
940.6885	2105.089	34494.35	33602.95
940.8245	2106.6261	34407.5	33516.75
940.9606	2108.1626	34284.85	33394.5
941.0965	2109.6983	34278.6	33360.45
941.2325	2111.2332	34098.65	33208.7
941.3684	2112.7675	34076.55	33185.6
941.5044	2114.301	33952.25	33059.65
941.6403	2115.8337	33964	33075.4
941.7761	2117.3657	33790.9	32901
941.912	2118.897	33713.55	32824.55
942.0478	2120.4276	33588.7	32691.9
942.1835	2121.9575	33391.1	32501.35
942.3193	2123.4866	33462.65	32560.1
942.455	2125.0149	33309.05	32416.35
942.5907	2126.5426	33071.35	32183.35
942.7264	2128.0695	33041.05	32148.55
942.8621	2129.5956	33015.6	32127.65
942.9977	2131.1211	32917.3	32025.35
943.1333	2132.6458	32809.35	31918.4
943.2689	2134.1698	32687.7	31799.1
943.4044	2135.693	32643.35	31751.95
943.54	2137.2155	32558.7	31667.4
943.6755	2138.7373	32463.7	31573.65
943.8109	2140.2584	32350.3	31462.2
943.9464	2141.7787	32215.6	31322.6
944.0818	2143.2983	32080.5	31193
944.2172	2144.8171	31959.15	31071.1
944.3526	2146.3353	31844.05	30952.15
944.4879	2147.8527	31695.1	30806.65
944.6232	2149.3693	31716.15	30824.2
944.7585	2150.8853	31549.35	30660.4
944.8938	2152.4005	31447.25	30558.65
945.029	2153.9149	31401.4	30511.5
945.1642	2155.4287	31282.75	30391.65
945.2994	2156.9417	31209.55	30318.7
945.4346	2158.454	31141.95	30251.3
945.5697	2159.9655	31062.05	30171.4
945.7048	2161.4764	30987.5	30097.75
945.8399	2162.9865	30932.95	30043.3
945.9749	2164.4958	30881.85	29990.05
946.1099	2166.0045	30689.05	29798.6
946.2449	2167.5124	30653.65	29766.65
946.3799	2169.0195	30571.5	29682.25
946.5148	2170.526	30519.8	29631.1
946.6498	2172.0317	30395.05	29505.25
946.7846	2173.5367	30333.05	29442.45
946.9195	2175.0409	30222.65	29333.05
947.0543	2176.5445	30202.8	29317.05
947.1891	2178.0473	30048.05	29157.6
947.3239	2179.5494	29939.45	29047
947.4587	2181.0507	29825.3	28936.75
947.5934	2182.5513	29715.75	28826.45
947.7281	2184.0512	29678.85	28790.75
947.8628	2185.5504	29593.7	28706.2
947.9974	2187.0488	29392.85	28506.2
948.132	2188.5465	29306.45	28417.6
948.2666	2190.0435	29191.1	28302
948.4012	2191.5397	29082.6	28193.65
948.5357	2193.0353	28981.1	28093.2
948.6702	2194.5301	28896.25	28007.9
948.8047	2196.0241	28751.65	27864.55
948.9392	2197.5175	28700.35	27811.75
949.0736	2199.0101	28592.05	27699.85
949.208	2200.502	28411.05	27522.6
949.3424	2201.9931	28333.9	27443.3
949.4767	2203.4835	28213.15	27322.15
949.611	2204.9733	28180.1	27284.6
949.7453	2206.4622	28092.75	27204.3
949.8796	2207.9505	27995.1	27103.65
950.0138	2209.438	27857.65	26971.35
950.148	2210.9248	27790.35	26900.7
950.2822	2212.4109	27718.4	26832.55
950.4164	2213.8962	27613.3	26721.25
950.5505	2215.3809	27522.8	26631.8
950.6846	2216.8648	27460.1	26569.85
950.8186	2218.3479	27352.05	26457.45
950.9527	2219.8304	27256.35	26361.6
951.0867	2221.3121	27148.7	26257.9
951.2207	2222.7931	27046.75	26159.2
951.3546	2224.2733	26990.25	26103
951.4886	2225.7529	26854.05	25964.7
951.6225	2227.2317	26796.75	25904.35
951.7563	2228.7098	26783.95	25893.85
951.8902	2230.1872	26586	25698.65
952.024	2231.6638	26559.05	25669.3
952.1578	2233.1397	26476.4	25581.25
952.2916	2234.6149	26380.8	25493.35
952.4253	2236.0894	26279.45	25390
952.559	2237.5632	26236.55	25346.85
952.6927	2239.0362	26113.35	25224.3
952.8263	2240.5085	26041	25149.55
952.9599	2241.9801	25901.75	25013.8
953.0935	2243.4509	25864.05	24975.2
953.2271	2244.921	25728.65	24839.35
953.3606	2246.3904	25620.35	24727.8
953.4941	2247.8591	25589.8	24704.05
953.6276	2249.3271	25526.85	24637.85
953.7611	2250.7943	25421.25	24532.6
953.8945	2252.2608	25297.35	24408.2
954.0279	2253.7266	25227.6	24339.45
954.1612	2255.1917	25161.25	24272.75
954.2946	2256.656	25034.25	24143.15
954.4279	2258.1197	25032.55	24143.85
954.5612	2259.5826	24945.4	24054.55
954.6944	2261.0447	24905.3	24013.1
954.8276	2262.5062	24727.2	23835.45
954.9608	2263.9669	24736.55	23845.45
955.094	2265.4269	24694.15	23805.35
955.2271	2266.8862	24582	23694.75
955.3602	2268.3448	24525.15	23634.85
955.4933	2269.8026	24479.7	23590.3
955.6264	2271.2598	24381.65	23494.1
955.7594	2272.7162	24287.45	23398.5
955.8924	2274.1719	24267.95	23379.2
956.0253	2275.6268	24173.15	23284.4
956.1583	2277.0811	24109.2	23220.5
956.2912	2278.5346	24034.9	23145.9
956.4241	2279.9874	23975.15	23087.15
956.5569	2281.4395	23941.25	23055.05
956.6897	2282.8908	23768.65	22875.2
956.8225	2284.3414	23792.05	22902
956.9553	2285.7914	23666.5	22778.15
957.088	2287.2406	23602.25	22712.2
957.2207	2288.689	23518.3	22630.15
957.3534	2290.1368	23468.7	22577.5
957.486	2291.5838	23376.5	22486.7
957.6186	2293.0302	23334.85	22444.4
957.7512	2294.4758	23216.85	22326.9
957.8838	2295.9206	23114.25	22221.75
958.0163	2297.3648	23046.4	22158.5
958.1488	2298.8082	23003.15	22114.1
958.2813	2300.251	22906.2	22015
958.4137	2301.693	22820.25	21929.55
958.5461	2303.1343	22846.2	21957.3
958.6785	2304.5748	22779.45	21890.15
958.8108	2306.0147	22670	21781.45
958.9432	2307.4538	22586.6	21695.9
959.0754	2308.8922	22528.2	21639.75
959.2077	2310.3299	22468.05	21579.25
959.3399	2311.7669	22414.2	21525.45
959.4721	2313.2031	22299.35	21409.05
959.6043	2314.6387	22208.6	21319.55
959.7365	2316.0735	22127.35	21239.8
959.8686	2317.5076	22093.15	21203.5
960.0006	2318.941	22072.35	21183.05
960.1327	2320.3737	21956.15	21066.9
960.2647	2321.8056	21884.75	20991.95
960.3967	2323.2369	21807.4	20918.15
960.5287	2324.6674	21777.45	20885.3
960.6606	2326.0972	21679.05	20788.85
960.7925	2327.5263	21603.45	20715.1
960.9244	2328.9547	21542.25	20652.7
961.0562	2330.3823	21472.6	20582.55
961.1881	2331.8092	21466.2	20573
961.3198	2333.2355	21329.8	20440.35
961.4516	2334.661	21329.75	20440.15
961.5833	2336.0858	21276	20386.3
961.715	2337.5098	21189.95	20300
961.8467	2338.9332	21144.05	20255.2
961.9783	2340.3558	21033	20141.25
962.1099	2341.7778	20997.85	20110.8
962.2415	2343.199	20925.4	20035.9
962.373	2344.6195	20871.65	19980.9
962.5045	2346.0393	20792.1	19905.55
962.636	2347.4583	20777.35	19887.55
962.7675	2348.8767	20687.8	19797.45
962.8989	2350.2943	20630.7	19741.2
963.0303	2351.7113	20553.05	19662.85
963.1617	2353.1275	20516.55	19626.5
963.293	2354.543	20453	19556.1
963.4243	2355.9578	20401.1	19512.8
963.5556	2357.3718	20231.95	19345.65
963.6868	2358.7852	20156.5	19264.6
963.818	2360.1978	20066.4	19177.15
963.9492	2361.6098	20031.1	19142.4
964.0803	2363.021	19986.65	19094.55
964.2114	2364.4315	19923.3	19034.55
964.3425	2365.8413	19857.95	18967.3
964.4736	2367.2504	19768.9	18880.65
964.6046	2368.6587	19695.35	18806.35
964.7356	2370.0664	19609.65	18720.95
964.8666	2371.4733	19575.25	18685.7
964.9975	2372.8795	19490.5	18600.55
965.1284	2374.285	19415.8	18528.4
965.2593	2375.6899	19355.35	18467.05
965.3901	2377.0939	19246.9	18358.15
965.5209	2378.4973	19160.25	18270.35
965.6517	2379.9	19107.8	18218.75
965.7825	2381.3019	19033.9	18144.8
965.9132	2382.7032	18979.4	18092.55
966.0439	2384.1037	18956.7	18071.35
966.1745	2385.5035	18874.95	17987.6
966.3051	2386.9027	18795.95	17907.5
966.4357	2388.3011	18783	17890.9
966.5663	2389.6987	18713.1	17824.95
966.6968	2391.0957	18642.8	17754.45
966.8273	2392.492	18555.65	17669.05
966.9578	2393.8876	18457.65	17569.2
967.0882	2395.2824	18373.4	17486.4
967.2186	2396.6765	18336.3	17448.3
967.349	2398.07	18234.15	17345.55
967.4793	2399.4627	18228.55	17340.15
967.6097	2400.8547	18144.15	17256.2
967.7399	2402.246	18074.9	17181
967.8702	2403.6366	17966.45	17078.3
968.0004	2405.0265	17900.25	17011.9
968.1306	2406.4156	17821.75	16928.15
968.2607	2407.8041	17750.4	16858.15
968.3909	2409.1918	17677.2	16785.65
968.521	2410.5789	17603	16713.75
968.651	2411.9652	17537.25	16646.2
968.781	2413.3508	17481.3	16593.85
968.911	2414.7358	17423.05	16533.3
969.041	2416.12	17350.65	16463.05
969.1709	2417.5035	17319.35	16431.2
969.3008	2418.8863	17242.1	16353.35
969.4307	2420.2684	17183	16294.35
969.5606	2421.6497	17111.45	16218.9
969.6904	2423.0304	17010.55	16121.95
969.8201	2424.4104	16983.1	16093.7
969.9499	2425.7896	16931.95	16041.4
970.0796	2427.1682	16873.9	15986
970.2093	2428.546	16816.85	15929.25
970.3389	2429.9232	16769.95	15878.85
970.4685	2431.2996	16702.5	15814.5
970.5981	2432.6753	16720.45	15832.35
970.7277	2434.0503	16654.45	15765.85
970.8572	2435.4246	16567.45	15678.9
970.9867	2436.7982	16521.75	15629.65
971.1161	2438.1711	16487.05	15598.9
971.2456	2439.5433	16408.8	15519.4
971.375	2440.9148	16329.45	15433.5
971.5043	2442.2856	16267.15	15380.85
971.6336	2443.6557	16234	15345.25
971.7629	2445.025	16158.25	15270
971.8922	2446.3937	16135.1	15246.55
972.0214	2447.7617	16048.95	15160.55
972.1506	2449.1289	16048.85	15160
972.2798	2450.4955	15979.95	15087.75
972.4089	2451.8613	15925.5	15035
972.538	2453.2265	15851	14962.55
972.6671	2454.5909	15835.2	14946.4
972.7961	2455.9546	15781.9	14895.95
972.9251	2457.3177	15714.8	14827
973.0541	2458.68	15650.55	14761.6
973.1831	2460.0416	15667.8	14776.6
973.312	2461.4025	15643.1	14753.85
973.4408	2462.7627	15576.1	14673.95
973.5697	2464.1222	15507.1	14618.7
973.6985	2465.4811	15481.45	14591.55
973.8273	2466.8392	15396.4	14508.9
973.956	2468.1966	15367.95	14477.3
974.0847	2469.5533	15356.7	14468.25
974.2134	2470.9093	15309.55	14420.15
974.3421	2472.2645	15258.4	14369
974.4707	2473.6191	15198.75	14310.95
974.5993	2474.973	15119.05	14230.55
974.7278	2476.3262	15097.65	14208
974.8563	2477.6787	15037.45	14148.85
974.9848	2479.0305	14913.2	14026.1
975.1132	2480.3816	14870.15	13979.7
975.2417	2481.7319	14837.2	13946.75
975.37	2483.0816	14780.6	13892
975.4984	2484.4306	14739.65	13849.8
975.6267	2485.7789	14680.1	13791.05
975.755	2487.1264	14621.6	13732.95
975.8833	2488.4733	14547.55	13659.65
976.0115	2489.8195	14496.4	13601.45
976.1397	2491.165	14439.1	13548
976.2678	2492.5097	14436.05	13545.75
976.3959	2493.8538	14329.45	13442.15
976.524	2495.1972	14270.05	13381.5
976.6521	2496.5398	14219.7	13329.05
976.7801	2497.8818	14170.95	13280.9
976.9081	2499.2231	14107.05	13220.1
977.036	2500.5637	14079.8	13189.75
977.164	2501.9035	14039.9	13149.95
977.2918	2503.2427	13989.2	13096.85
977.4197	2504.5812	13914.85	13026.85
977.5475	2505.919	13893.55	13002.6
977.6753	2507.256	13856.55	12969.75
977.8031	2508.5924	13786.5	12897.5
977.9308	2509.9281	13757.1	12862.25
978.0585	2511.2631	13695.5	12810.1
978.1861	2512.5974	13690.1	12802.9
978.3137	2513.9309	13623.3	12736.6
978.4413	2515.2638	13601.25	12687.95
978.5689	2516.596	13553.95	12665.25
978.6964	2517.9275	13462.45	12571.9
978.8239	2519.2583	13398	12506.35
978.9513	2520.5884	13358.2	12468
979.0788	2521.9178	13308.7	12419.95
979.2062	2523.2465	13272.85	12385
979.3335	2524.5745	13225.35	12338.35
979.4608	2525.9018	13141.1	12253.75
979.5881	2527.2284	13139.65	12252
979.7154	2528.5543	13125.7	12238.4
979.8426	2529.8796	13082.4	12194.9
979.9698	2531.2041	13053.95	12163.3
980.0969	2532.5279	13002.85	12114.4
980.224	2533.851	12967.7	12078
980.3511	2535.1735	12919.05	12030.35
980.4781	2536.4952	12899.2	12010.35
980.6052	2537.8163	12864.15	11974.8
980.7321	2539.1366	12799.45	11910.8
980.8591	2540.4562	12786.1	11895.2
980.986	2541.7752	12757.1	11868.6
981.1129	2543.0935	12725.4	11837.05
981.2397	2544.411	12703.95	11814
981.3665	2545.7279	12663.2	11774.3
981.4933	2547.0441	12616.5	11728.05
981.62	2548.3596	12614.2	11723
981.7467	2549.6744	12583.7	11695.5
981.8734	2550.9885	12535.25	11638.7
982.0001	2552.3019	12473.05	11583.95
982.1267	2553.6146	12442.7	11555.15
982.2532	2554.9266	12411.65	11523.45
982.3798	2556.2379	12386.45	11496.65
982.5063	2557.5485	12342.95	11454.55
982.6327	2558.8585	12331.75	11434.9
982.7592	2560.1677	12326.3	11432.6
982.8856	2561.4762	12280.2	11391.55
983.0119	2562.7841	12260.5	11367.45
983.1383	2564.0913	12232.8	11345.95
983.2646	2565.3977	12205.25	11317.35
983.3908	2566.7035	12153.95	11265.25
983.517	2568.0086	12145.05	11254.8
983.6432	2569.313	12121.55	11230.85
983.7694	2570.6167	12102.4	11210.9
983.8955	2571.9197	12017.85	11130.55
984.0216	2573.222	12035.35	11144.1
984.1476	2574.5236	11988.85	11100.3
984.2737	2575.8246	11995.1	11103.65
984.3996	2577.1248	11943.25	11052.6
984.5256	2578.4244	11918.9	11029.95
984.6515	2579.7232	11905.4	11018.65
984.7774	2581.0214	11876.9	10962.65
984.9032	2582.3189	11829.15	10939.8
985.029	2583.6157	11804.25	10909.85
985.1548	2584.9118	11782.3	10892
985.2806	2586.2072	11772.7	10885.2
985.4063	2587.5019	11690.55	10802.15
985.5319	2588.7959	11670.55	10780.6
985.6576	2590.0893	11656.5	10768.45
985.7832	2591.3819	11638.4	10750.9
985.9087	2592.6739	11555.75	10668.85
986.0343	2593.9652	11510.4	10620.2
986.1597	2595.2557	11486.05	10596.85
986.2852	2596.5456	11435.35	10545.3
986.4106	2597.8348	11396.1	10508.4
986.536	2599.1234	11320.75	10432.6
986.6614	2600.4112	11289.85	10400.95
986.7867	2601.6983	11274.75	10383.85
986.912	2602.9848	11240	10352
987.0372	2604.2705	11196.9	10303.35
987.1624	2605.5556	11176.25	10284.95
987.2876	2606.84	11102.35	10214.15
987.4128	2608.1237	11074.1	10185.65
987.5379	2609.4067	11010.6	10122.2
987.6629	2610.689	11004.2	10108.85
987.788	2611.9707	10959.4	10067.2
987.913	2613.2516	10894	10002.25
988.0379	2614.5319	10858.5	9970.35
988.1629	2615.8115	10792.8	9901.9
988.2878	2617.0903	10788.55	9897.1
988.4126	2618.3685	10739.85	9851.4
988.5375	2619.6461	10697.35	9809.85
988.6622	2620.9229	10677.7	9788.9
988.787	2622.199	10651.25	9762.2
988.9117	2623.4745	10605.3	9715.65
989.0364	2624.7493	10571.4	9683.05
989.161	2626.0234	10501.05	9614.1
989.2857	2627.2968	10483.55	9596
989.4102	2628.5695	10438.4	9548.35
989.5348	2629.8415	10405.8	9518.15
989.6593	2631.1128	10365.9	9476.1
989.7837	2632.3835	10319.4	9432.65
989.9082	2633.6535	10268.65	9379.6
990.0326	2634.9228	10232.75	9344.2
990.1569	2636.1914	10192.95	9304.9
990.2812	2637.4593	10206.6	9311.45
990.4055	2638.7265	10140.45	9252.15
990.5298	2639.9931	10090.45	9201.55
990.654	2641.259	10063.35	9173.65
990.7782	2642.5242	10030.35	9141.85
990.9023	2643.7887	10005.5	9116.6
991.0264	2645.0525	9979.4	9091.55
991.1505	2646.3156	9937.55	9048.7
991.2745	2647.5781	9907.5	9019.35
991.3985	2648.8398	9846.95	8962.65
991.5225	2650.1009	9840.55	8916.1
991.6464	2651.3613	9803.6	8915.55
991.7703	2652.6211	9805.45	8916.9
991.8942	2653.8801	9770.05	8882.4
992.018	2655.1385	9727.35	8838.05
992.1418	2656.3961	9700.55	8814.15
992.2655	2657.6531	9682	8795.75
992.3892	2658.9094	9660.7	8772.35
992.5129	2660.1651	9631.4	8742.95
992.6366	2661.42	9614.95	8726.45
992.7602	2662.6743	9596.55	8708.85
992.8837	2663.9279	9569.2	8681.05
993.0073	2665.1808	9517.9	8628.25
993.1307	2666.433	9490.45	8601.15
993.2542	2667.6846	9455.9	8568.9
993.3776	2668.9354	9439.9	8549.15
993.501	2670.1856	9401.65	8511.2
993.6244	2671.4351	9400.6	8512.45
993.7477	2672.6839	9348.05	8458.5
993.8709	2673.9321	9322.4	8436
993.9942	2675.1795	9282.9	8394.5
994.1174	2676.4263	9247.2	8359.8
994.2405	2677.6724	9208.65	8322.15
994.3637	2678.9179	9207.05	8319.05
994.4868	2680.1626	9203.2	8317.4
994.6098	2681.4067	9152.2	8263.1
994.7328	2682.6501	9121.3	8232.7
994.8558	2683.8928	9084.5	8196.1
994.9788	2685.1348	9060.1	8171.3
995.1017	2686.3761	9017.9	8130.6
995.2245	2687.6168	8988.8	8102.1
995.3474	2688.8568	8957.8	8069.85
995.4702	2690.0961	8929	8041.55
995.5929	2691.3348	8892.45	8002.9
995.7156	2692.5727	8867.9	7979.7
995.8383	2693.81	8839.05	7951.3
995.961	2695.0466	8804.2	7918.25
996.0836	2696.2826	8810.9	7922.8
996.2062	2697.5178	8806.45	7916.8
996.3287	2698.7524	8750.25	7861.1
996.4512	2699.9863	8741.2	7850.85
996.5737	2701.2195	8679.05	7791.2
996.6961	2702.452	8674.85	7785.85
996.8185	2703.6839	8633.95	7744.8
996.9408	2704.9151	8605.1	7717.4
997.0631	2706.1456	8583.65	7695.55
997.1854	2707.3755	8550.6	7661.7
997.3077	2708.6046	8535	7643.3
997.4299	2709.8331	8525.2	7636.95
997.552	2711.0609	8495.25	7608.05
997.6742	2712.2881	8468.6	7579.55
997.7963	2713.5145	8438.2	7549.3
997.9183	2714.7403	8416.4	7528.7
998.0403	2715.9654	8367.3	7477.1
998.1623	2717.1899	8341.95	7453.35
998.2842	2718.4136	8332.45	7446.65
998.4062	2719.6367	8299.9	7412.3
998.528	2720.8591	8304	7410
998.6498	2722.0809	8248.95	7361.25
998.7716	2723.3019	8244.75	7352.95
998.8934	2724.5223	8212.5	7325.35
999.0151	2725.7421	8197.1	7305.9
999.1368	2726.9611	8182.65	7292.55
999.2584	2728.1795	8160	7268.15
999.38	2729.3972	8108.15	7220.25
999.5016	2730.6142	8074.6	7177.95
999.6231	2731.8306	8029.95	7141.5
999.7446	2733.0462	7971.15	7082.4
999.8661	2734.2612	7940.6	7046.65
999.9875	2735.4756	7893.85	7003.95
1000.1089	2736.6892	7851.35	6961.6
1000.2302	2737.9022	7821.75	6935.05
1000.3515	2739.1145	7773.45	6887.4
1000.4728	2740.3262	7752.6	6856.8
1000.594	2741.5372	7725.05	6836.5
1000.7152	2742.7475	7666.05	6778.15
1000.8363	2743.9571	7641.2	6752.6
1000.9575	2745.1661	7610.3	6717
1001.0785	2746.3744	7607.3	6717.4
1001.1996	2747.582	7574.2	6685.1
1001.3206	2748.7889	7520.95	6630.7
1001.4415	2749.9952	7496.45	6608.9
1001.5625	2751.2008	7460.55	6571.75
1001.6833	2752.4057	7441.8	6549
1001.8042	2753.61	7418.65	6527.85
1001.925	2754.8136	7389.65	6500.6
1002.0458	2756.0165	7363.4	6474.35
1002.1665	2757.2188	7351.65	6465.85
1002.2872	2758.4204	7328.75	6441.15
1002.4078	2759.6213	7301.1	6412.35
1002.5285	2760.8215	7282.4	6391.25
1002.649	2762.0211	7247.4	6358.95
1002.7696	2763.22	7222.45	6330.8
1002.8901	2764.4182	7190.9	6298.9
1003.0106	2765.6158	7167.8	6278.85
1003.131	2766.8127	7145.65	6256.4
1003.2514	2768.009	7125.8	6237.6
1003.3717	2769.2045	7087.3	6198.45
1003.492	2770.3994	7055.65	6165.9
1003.6123	2771.5936	7049.95	6162.35
1003.7325	2772.7872	7016.45	6130.65
1003.8527	2773.9801	6984.65	6096.6
1003.9729	2775.1723	6979.95	6075.75
1004.093	2776.3639	6963.35	6076.65
1004.2131	2777.5548	6937.7	6045.95
1004.3331	2778.745	6885.9	5996.15
1004.4531	2779.9346	6904.15	6016.45
1004.5731	2781.1235	6886.75	5999.05
1004.693	2782.3117	6848.65	5961.45
1004.8129	2783.4992	6816.15	5928.9
1004.9328	2784.6861	6792.7	5904.65
1005.0526	2785.8723	6803.55	5915.75
1005.1723	2787.0579	6751.9	5863.5
1005.2921	2788.2428	6738.3	5851.3
1005.4118	2789.427	6721.8	5833.4
1005.5314	2790.6106	6676.2	5790.75
1005.651	2791.7935	6689.85	5800.65
1005.7706	2792.9757	6659.4	5774.75
1005.8902	2794.1573	6647.95	5756.15
1006.0097	2795.3382	6619.75	5732.6
1006.1291	2796.5184	6603.5	5716.95
1006.2485	2797.698	6599.6	5710.05
1006.3679	2798.8769	6593.4	5706.35
1006.4873	2800.0551	6563.7	5674.05
1006.6066	2801.2327	6537.35	5646.6
1006.7258	2802.4096	6543.85	5656.55
1006.8451	2803.5859	6502.35	5615.55
1006.9642	2804.7615	6524	5635.1
1007.0834	2805.9364	6511.45	5623.1
1007.2025	2807.1106	6508.85	5621.25
1007.3216	2808.2842	6505	5616.4
1007.4406	2809.4572	6511	5624.05
1007.5596	2810.6294	6522.25	5636.1
1007.6785	2811.801	6523.1	5638.65
1007.7975	2812.972	6535.2	5648.6
1007.9163	2814.1423	6560.8	5673.85
1008.0352	2815.3119	6574.05	5686.3
1008.154	2816.4808	6620.75	5733.95
1008.2727	2817.6491	6611.65	5722.05
1008.3914	2818.8167	6654.1	5766.9
1008.5101	2819.9837	6672.35	5780.3
1008.6288	2821.15	6681.35	5793.85
1008.7474	2822.3157	6704	5816.1
1008.8659	2823.4807	6741.1	5853.35
1008.9844	2824.645	6751.45	5863.75
1009.1029	2825.8086	6786.35	5899.85
1009.2214	2826.9716	6813.75	5928.95
1009.3398	2828.134	6847.25	5960
1009.4581	2829.2957	6882.15	5994.7
1009.5764	2830.4567	6864.5	5977.4
1009.6947	2831.617	6861	5973.5
1009.813	2832.7767	6867.6	5981.15
1009.9312	2833.9358	6882.3	5997.45
1010.0493	2835.0941	6846.55	5956.15
1010.1675	2836.2519	6798.2	5910.05
1010.2855	2837.4089	6785.4	5896.1
1010.4036	2838.5653	6768.5	5881
1010.5216	2839.7211	6757	5871.65
1010.6396	2840.8761	6733.65	5845.5
1010.7575	2842.0306	6740.6	5856.05
1010.8754	2843.1843	6733.35	5844.75
1010.9932	2844.3374	6762.35	5875.95
1011.111	2845.4899	6797.45	5907.75
1011.2288	2846.6417	6829.85	5942.35
1011.3465	2847.7928	6837.8	5950.3
1011.4642	2848.9433	6901.15	6015.95
1011.5818	2850.0931	6931.65	6045.8
1011.6995	2851.2422	6970	6080.8
1011.817	2852.3907	7020.85	6131.85
1011.9345	2853.5385	7044.25	6154.2
1012.052	2854.6857	7067.4	6170.4
1012.1695	2855.8323	7083.7	6199.05
1012.2869	2856.9781	7110.6	6226.45
1012.4042	2858.1233	7156	6267.7
1012.5216	2859.2679	7152.75	6268.95
1012.6389	2860.4118	7172.4	6283.9
1012.7561	2861.555	7214.6	6322.8
1012.8733	2862.6976	7209.55	6317.8
1012.9905	2863.8395	7210.35	6322.45
1013.1076	2864.9808	7234.75	6347.75
1013.2247	2866.1214	7237.75	6351.55
1013.3417	2867.2614	7221.85	6334.9
1013.4587	2868.4007	7201.95	6311.35
1013.5757	2869.5393	7204.2	6316.5
1013.6926	2870.6773	7186.15	6294.15
1013.8095	2871.8146	7170	6277.85
1013.9263	2872.9513	7183.7	6293.8
1014.0431	2874.0874	7121.05	6231.4
1014.1599	2875.2227	7113.45	6226.7
1014.2766	2876.3574	7090.25	6203.85
1014.3933	2877.4915	7025.5	6140.15
1014.51	2878.6249	6995.95	6108.35
1014.6266	2879.7577	6943.75	6054.55
1014.7431	2880.8898	6918.75	6021.25
1014.8596	2882.0212	6900.7	6013.9
1014.9761	2883.152	6862.45	5974.1
1015.0925	2884.2821	6832.15	5946.65
1015.2089	2885.4116	6801.6	5915.65
1015.3253	2886.5405	6795.8	5910.6
1015.4416	2887.6686	6788.7	5897.5
1015.5579	2888.7962	6767.9	5880.3
1015.6741	2889.923	6750.35	5865.35
1015.7903	2891.0493	6757.6	5870.45
1015.9065	2892.1748	6731.15	5842.6
1016.0226	2893.2997	6726.2	5837.55
1016.1387	2894.424	6714.1	5828.2
1016.2547	2895.5476	6721.95	5834.35
1016.3707	2896.6706	6701.1	5814.9
1016.4866	2897.7929	6695.95	5806.45
1016.6025	2898.9145	6718.05	5830.35
1016.7184	2900.0355	6724.25	5835.05
1016.8342	2901.1559	6727	5840.25
1016.95	2902.2756	6715	5828.4
1017.0658	2903.3946	6731.65	5846.2
1017.1815	2904.513	6749.45	5859.05
1017.2971	2905.6308	6751.05	5864.9
1017.4127	2906.7479	6740.7	5852.85
1017.5283	2907.8643	6755.35	5868.7
1017.6439	2908.9801	6738.1	5850
1017.7594	2910.0953	6724.7	5836.1
1017.8748	2911.2098	6719.85	5831.55
1017.9902	2912.3236	6704.55	5809.05
1018.1056	2913.4368	6682.95	5791.7
1018.2209	2914.5494	6635.35	5747.95
1018.3362	2915.6613	6608.95	5716.15
1018.4515	2916.7725	6560.75	5670.3
1018.5667	2917.8831	6547.6	5658.8
1018.6819	2918.9931	6476.2	5586.9
1018.797	2920.1024	6452.55	5563.9
1018.9121	2921.211	6437	5550.35
1019.0271	2922.319	6390.5	5504.85
1019.1421	2923.4264	6380.5	5494.8
1019.2571	2924.5331	6340.5	5456
1019.372	2925.6391	6320.65	5432.3
1019.4869	2926.7445	6299.15	5414.15
1019.6017	2927.8493	6274.35	5386.1
1019.7165	2928.9534	6262.8	5374.5
1019.8313	2930.0569	6268.55	5377.85
1019.946	2931.1597	6245.6	5356.05
1020.0606	2932.2619	6222.65	5337.1
1020.1753	2933.3634	6221.4	5332.55
1020.2899	2934.4643	6248.7	5355.25
1020.4044	2935.5645	6206.1	5311.3
1020.5189	2936.6641	6164.7	5272.45
1020.6334	2937.763	6132.1	5244.6
1020.7478	2938.8613	6079.45	5191.25
1020.8622	2939.959	6030.15	5137.1
1020.9765	2941.056	5971.65	5084.45
1021.0908	2942.1523	5885.6	4997.6
1021.2051	2943.248	5806.2	4918.3
1021.3193	2944.3431	5708.25	4821.35
1021.4334	2945.4375	5608.85	4721.75
1021.5476	2946.5313	5508.2	4622.6
1021.6617	2947.6244	5421.55	4532.5
1021.7757	2948.7169	5330.75	4444.2
1021.8897	2949.8087	5237.2	4348.5
1022.0037	2950.8999	5141.65	4253.85
1022.1176	2951.9904	5066.1	4181.3
1022.2315	2953.0803	4995.6	4107.95
1022.3453	2954.1696	4936.6	4050.2
1022.4591	2955.2582	4877.55	3991.25
1022.5728	2956.3462	4813.85	3926.65
1022.6865	2957.4335	4780.15	3893
1022.8002	2958.5202	4731.6	3843.9
1022.9138	2959.6062	4693.7	3806.8
1023.0274	2960.6916	4661.4	3774.55
1023.141	2961.7764	4650.25	3761.7
1023.2545	2962.8605	4607.1	3719.05
1023.3679	2963.9439	4601.25	3712.1
1023.4813	2965.0267	4558.25	3670.35
1023.5947	2966.1089	4561.5	3651.45
1023.708	2967.1905	4524.75	3637.95
1023.8213	2968.2714	4521.4	3633.8
1023.9346	2969.3516	4491.4	3605.65
1024.0478	2970.4312	4486.1	3592.45
1024.1609	2971.5102	4462.55	3577.05
1024.274	2972.5885	4437.95	3551.2
1024.3871	2973.6662	4450.25	3557.6
1024.5002	2974.7432	4437.7	3550.75
1024.6132	2975.8196	4425.75	3538.8
1024.7261	2976.8954	4407.15	3520.85
1024.839	2977.9705	4389.8	3503.65
1024.9519	2979.045	4359	3473
1025.0647	2980.1188	4321.6	3434.6
1025.1775	2981.192	4297.15	3411.6
1025.2902	2982.2645	4283.9	3396.75
1025.4029	2983.3364	4238	3351.5
1025.5156	2984.4077	4214.95	3328.3
1025.6282	2985.4783	4194.3	3302.05
1025.7407	2986.5483	4154.1	3267.4
1025.8532	2987.6177	4098.85	3212.25
1025.9657	2988.6864	4082.7	3195.75
1026.0782	2989.7545	4063.25	3175.1
1026.1906	2990.8219	4012.2	3124.6
1026.3029	2991.8887	3972.35	3084.35
1026.4152	2992.9548	3937.1	3048.05
1026.5275	2994.0204	3902.4	3016.45
1026.6397	2995.0852	3856.85	2969.7
1026.7519	2996.1495	3823.7	2935.2
1026.864	2997.2131	3812.15	2924.85
1026.9761	2998.276	3778.85	2894
1027.0882	2999.3383	3759.7	2871.4
1027.2002	3000.4	3729.7	2841.3
1027.3122	3001.4611	3702	2813.7
1027.4241	3002.5215	3671.45	2784.4
1027.536	3003.5812	3647.65	2759.75
1027.6478	3004.6404	3615.75	2727.9
1027.7596	3005.6989	3608.05	2720.35
1027.8714	3006.7567	3600.15	2713.25
1027.9831	3007.8139	3589.4	2678.25
1028.0947	3008.8705	3568.5	2681.9
1028.2064	3009.9264	3556.85	2667.4
1028.3179	3010.9818	3534.05	2648.55
1028.4295	3012.0364	3523.6	2636.35
1028.541	3013.0905	3506.6	2620.55
1028.6524	3014.1439	3500.4	2612.8
1028.7638	3015.1966	3484.75	2598.7
1028.8752	3016.2487	3477.95	2592.45
1028.9865	3017.3002	3457.65	2565.55
1029.0978	3018.3511	3433	2548.5
1029.209	3019.4013	3445.2	2558.85
1029.3202	3020.4509	3424.2	2539.5
1029.4314	3021.4998	3425	2537.4
1029.5425	3022.5481	3410.45	2524.35
1029.6535	3023.5958	3394.5	2507.4
1029.7645	3024.6428	3378.2	2489.45
1029.8755	3025.6892	3368.85	2482.15
1029.9864	3026.735	3364	2477.25
1030.0973	3027.7802	3351.8	2463.8
1030.2082	3028.8247	3341.85	2455.2
1030.319	3029.8685	3331.35	2444.35
1030.4297	3030.9118	3321.85	2434.6
1030.5404	3031.9544	3301.1	2414.85
1030.6511	3032.9963	3315.4	2429.3
1030.7617	3034.0376	3307.55	2422
1030.8723	3035.0783	3293.85	2405.35
1030.9829	3036.1184	3291.3	2403.3
1031.0934	3037.1578	3287.7	2401.8
1031.2038	3038.1966	3275.3	2388.7
1031.3142	3039.2348	3269.4	2383.35
1031.4246	3040.2723	3262.25	2365.35
1031.5349	3041.3092	3236.8	2350.85
1031.6452	3042.3455	3240.15	2355.65
1031.7554	3043.3811	3224.95	2336.7
1031.8656	3044.4161	3213.75	2326.65
1031.9758	3045.4505	3211.5	2326.35
1032.0859	3046.4842	3197	2311.3
1032.1959	3047.5173	3183.65	2297.15
1032.3059	3048.5498	3173	2285.35
1032.4159	3049.5816	3160.15	2272.6
1032.5258	3050.6128	3138.9	2252.55
1032.6357	3051.6434	3145.55	2255.35
1032.7455	3052.6734	3129.5	2242.4
1032.8553	3053.7027	3126.05	2238.5
1032.9651	3054.7314	3101.45	2213.9
1033.0748	3055.7594	3090.45	2205.9
1033.1845	3056.7868	3084.3	2197.25
1033.2941	3057.8136	3063.55	2176
1033.4037	3058.8398	3057.4	2172.6
1033.5132	3059.8653	3043.45	2155.8
1033.6227	3060.8902	3041.3	2155.85
1033.7321	3061.9145	3024.75	2139.7
1033.8415	3062.9381	3007.95	2121.55
1033.9509	3063.9612	3012.9	2110.5
1034.0602	3064.9835	2998.75	2110.75
1034.1694	3066.0053	2988.7	2099.8
1034.2787	3067.0264	2966.2	2080
1034.3878	3068.0469	2974.2	2085.75
1034.497	3069.0668	2955.75	2067.9
1034.6061	3070.086	2943.8	2058.05
1034.7151	3071.1046	2932.7	2047.55
1034.8241	3072.1226	2917.45	2029.95
1034.9331	3073.1399	2899.45	2013.5
1035.042	3074.1567	2884.55	1998.3
1035.1508	3075.1727	2868.5	1980.65
1035.2597	3076.1882	2858.25	1971.35
1035.3684	3077.203	2844.75	1956.25
1035.4772	3078.2173	2838.75	1950.4
1035.5859	3079.2308	2837.15	1946.9
1035.6945	3080.2438	2810.7	1922.15
1035.8031	3081.2561	2791.7	1906
1035.9117	3082.2678	2782.65	1897.9
1036.0202	3083.2789	2778.3	1891.05
1036.1286	3084.2893	2766.55	1881.65
1036.2371	3085.2991	2744.75	1860.75
1036.3454	3086.3083	2748.95	1856.05
1036.4538	3087.3169	2730.1	1840.6
1036.562	3088.3248	2708.95	1818.95
1036.6703	3089.3321	2702.1	1815.75
1036.7785	3090.3388	2695.75	1810.8
1036.8866	3091.3449	2680.8	1794.9
1036.9948	3092.3503	2679	1788.8
1037.1028	3093.3551	2670.15	1785.45
1037.2108	3094.3593	2661.4	1775.8
1037.3188	3095.3629	2632.75	1743.85
1037.4267	3096.3658	2635.4	1747.7
1037.5346	3097.3681	2631.3	1746
1037.6425	3098.3698	2618.85	1731.6
1037.7503	3099.3708	2617.65	1722.9
1037.858	3100.3713	2593.5	1708.8
1037.9657	3101.3711	2588.6	1701.95
1038.0734	3102.3702	2681.75	1653.9
1038.181	3103.3688	2580.35	1691.65
1038.2886	3104.3667	2549.3	1664.55
1038.3961	3105.364	2542.6	1656
1038.5036	3106.3607	2535.8	1646.4
1038.611	3107.3568	2523.05	1635.6
1038.7184	3108.3522	2505.3	1619.4
1038.8257	3109.347	2502.3	1614.05
1038.933	3110.3412	2497.15	1607
1039.0403	3111.3348	2474.95	1588.1
1039.1475	3112.3277	2464.25	1577.15
1039.2547	3113.32	2462.55	1578.1
1039.3618	3114.3117	2466.9	1580.8
1039.4689	3115.3028	2442.3	1556.75
1039.5759	3116.2932	2432.2	1543.3
1039.6829	3117.2831	2429	1536.6
1039.7898	3118.2723	2424.55	1536.55
1039.8967	3119.2608	2403.2	1515.6
1040.0035	3120.2488	2405.65	1517.9
1040.1103	3121.2361	2391.6	1505.75
1040.2171	3122.2229	2381.35	1494.85
1040.3238	3123.209	2384.2	1497.05
1040.4305	3124.1944	2381.05	1494.65
1040.5371	3125.1793	2369.6	1480.15
1040.6437	3126.1635	2356.65	1469.3
1040.7502	3127.1471	2339.6	1453.3
1040.8567	3128.1301	2339.6	1454.05
1040.9631	3129.1125	2328.8	1442.8
1041.0695	3130.0942	2321.35	1434.55
1041.1759	3131.0753	2327.45	1433.3
1041.2822	3132.0558	2320.85	1430.8
1041.3884	3133.0357	2317.85	1430.85
1041.4946	3134.015	2305.7	1417
1041.6008	3134.9936	2295.8	1408.4
1041.7069	3135.9716	2296.8	1389.05
1041.813	3136.949	2271.15	1385.1
1041.919	3137.9258	2265.8	1373.55
1042.025	3138.902	2273.35	1380.65
1042.1309	3139.8775	2259.15	1373.1
1042.2368	3140.8524	2248.55	1360.8
1042.3427	3141.8267	2247.45	1361.95
1042.4485	3142.8004	2242.25	1356.95
1042.5542	3143.7735	2237.15	1344.9
1042.6599	3144.7459	2230.45	1343.15
1042.7656	3145.7178	2217.55	1329.9
1042.8712	3146.689	2221.5	1337.85
1042.9768	3147.6596	2212.95	1324.95
1043.0823	3148.6295	2200.35	1314.1
1043.1878	3149.5989	2199	1312.65
1043.2932	3150.5676	2186.4	1303.2
1043.3986	3151.5357	2173.6	1288.5
1043.5039	3152.5032	2168.3	1282.3
1043.6092	3153.4701	2161.05	1275.15
1043.7145	3154.4364	2156.3	1268.95
1043.8197	3155.402	2154.7	1268.5
1043.9248	3156.367	2138.6	1249.5
1044.03	3157.3315	2178.9	1248.8
1044.135	3158.2952	2136	1247.55
1044.24	3159.2584	2118.45	1231.15
1044.345	3160.221	2113.95	1227.35
1044.4499	3161.1829	2107.35	1220.1
1044.5548	3162.1442	2105.7	1220.9
1044.6596	3163.105	2083.65	1196.85
1044.7644	3164.065	2087.4	1200.05
1044.8692	3165.0245	2075.35	1187.15
1044.9739	3165.9834	2062.45	1176.85
1045.0785	3166.9416	2076.45	1190.9
1045.1831	3167.8993	2060.6	1175.1
1045.2877	3168.8563	2049.35	1161.45
1045.3922	3169.8127	2047.35	1162.55
1045.4966	3170.7684	2034.05	1149.05
1045.6011	3171.7236	2028.15	1142.55
1045.7054	3172.6782	2023.45	1137.1
1045.8098	3173.6321	2027.65	1140.05
1045.914	3174.5854	2018.85	1127.5
1046.0183	3175.5381	2011.05	1122.95
1046.1224	3176.4902	2005.1	1119.05
1046.2266	3177.4417	1998.75	1113.5
1046.3307	3178.3926	1993.9	1107.4
1046.4347	3179.3428	1978.15	1091.8
1046.5387	3180.2924	1972.9	1085.2
1046.6427	3181.2415	1970.65	1083.9
1046.7466	3182.1899	1969.35	1081.8
1046.8504	3183.1377	1963.6	1076.9
1046.9542	3184.0848	1957.95	1068.45
1047.058	3185.0314	1943.75	1054.55
1047.1617	3185.9773	1945.6	1061.05
1047.2654	3186.9227	1942.85	1057.4
1047.369	3187.8674	1940.9	1054.55
1047.4726	3188.8115	1927.2	1038.05
1047.5761	3189.755	1932.1	1044.55
1047.6796	3190.6979	1912.6	1026.5
1047.783	3191.6402	1913.5	1029.25
1047.8864	3192.5818	1914.8	1028.15
1047.9898	3193.5229	1915.75	1013.6
1048.0931	3194.4633	1903.65	1016.8
1048.1963	3195.4031	1898.9	1012.15
1048.2995	3196.3423	1881.9	997.15
1048.4027	3197.2809	1888.4	1001.05
1048.5058	3198.2189	1879.55	994.45
1048.6089	3199.1563	1877.5	987.3
1048.7119	3200.0931	1860.8	975.85
1048.8148	3201.0292	1868.1	983.45
1048.9178	3201.9648	1860.75	973.55
1049.0206	3202.8997	1842.5	953.45
1049.1235	3203.834	1848.05	961.05
1049.2262	3204.7677	1834.05	949.6
1049.329	3205.7008	1833.4	946
1049.4317	3206.6333	1824.5	941.6
1049.5343	3207.5652	1829.75	939.8
1049.6369	3208.4964	1820	933
1049.7394	3209.4271	1812.7	927.35
1049.8419	3210.3571	1812.25	926.15
1049.9444	3211.2865	1803.15	917.15
1050.0468	3212.2154	1805.05	920.5
1050.1491	3213.1436	1804.8	917.5
1050.2514	3214.0712	1796.75	904.25
1050.3537	3214.9982	1793.65	908.45
1050.4559	3215.9246	1784.85	899.05
1050.5581	3216.8503	1780.05	892.8
1050.6602	3217.7755	1777.85	891.6
1050.7623	3218.7001	1767.1	880
1050.8643	3219.624	1766.45	880
1050.9663	3220.5473	1769.65	884.1
1051.0682	3221.4701	1751.1	862.1
1051.1701	3222.3922	1759.25	872.45
1051.2719	3223.3137	1742.5	855.2
1051.3737	3224.2346	1747.15	860.8
1051.4754	3225.1549	1733.35	849.8
1051.5771	3226.0746	1736.9	852.05
1051.6788	3226.9937	1730.6	843.4
1051.7804	3227.9121	1721.1	835.8
1051.8819	3228.83	1722.15	836.25
1051.9834	3229.7473	1712.55	825.85
1052.0849	3230.6639	1713.1	827.3
1052.1863	3231.5799	1703.85	818.65
1052.2876	3232.4954	1701.8	815.4
1052.3889	3233.4102	1697.6	812.9
1052.4902	3234.3244	1687.85	799.45
1052.5914	3235.238	1685.65	801.25
1052.6926	3236.151	1706.35	798.15
1052.7937	3237.0634	1675.8	791.7
1052.8948	3237.9752	1679.1	793.8
1052.9958	3238.8864	1669.9	783.7
1053.0968	3239.797	1664.2	777.65
1053.1977	3240.7069	1659.05	773.05
1053.2986	3241.6163	1645.95	756.7
1053.3994	3242.5251	1646.6	759.15
1053.5002	3243.4332	1644.2	759.55
1053.6009	3244.3408	1639.85	753.65
1053.7016	3245.2477	1633.05	748.35
1053.8022	3246.154	1641.1	754.5
1053.9028	3247.0598	1621.9	736.9
1054.0034	3247.9649	1616.45	729.85
1054.1039	3248.8694	1618	732.25
1054.2043	3249.7733	1611.3	726
1054.3047	3250.6766	1604.85	718.3
1054.4051	3251.5793	1608.45	721.9
1054.5054	3252.4814	1596.6	710.7
1054.6056	3253.3829	1595.5	708.5
1054.7058	3254.2838	1584.75	698.45
1054.806	3255.1841	1581.9	696.15
1054.9061	3256.0838	1580.8	693.7
1055.0061	3256.9829	1565.45	680.05
1055.1062	3257.8814	1566.55	676.85
1055.2061	3258.7792	1562.8	675.95
1055.306	3259.6765	1562.15	673.3
1055.4059	3260.5731	1544.5	658.55
1055.5057	3261.4692	1545.85	658.95
1055.6055	3262.3647	1532.2	646.45
1055.7052	3263.2595	1526.65	640.35
1055.8049	3264.1538	1519.5	633.15
1055.9045	3265.0474	1502.65	616.05
1056.0041	3265.9404	1509.3	624.25
1056.1036	3266.8329	1488.85	604.05
1056.2031	3267.7247	1491.95	594.55
1056.3025	3268.616	1468.85	584.7
1056.4019	3269.5066	1447.45	561.85
1056.5013	3270.3966	1433.15	545.2
1056.6005	3271.286	1415.55	531.2
