Software Version:	3.9.2.0
Unit SN:	10000200
Spectrometer SN:	6960
Date:	3/6/2024 10:27:52 AM
Data Line Index:	25
Spectral Points:	2048
Integration time (ms):	125
Averages:	20
Delay (ms):	30
Sequence Number:	1
Processing:	dark subtract
Laser Power (mW):	300
Laser Current (mA):	825
Laser Diode Temp (C):	25.1
Laser Case Temp (C):	26
System Temp (C):	25.8
Spectrometer Temp (C):	23.3
CCD Temp (C):	0.004
Secondary Temp (C):	20.007
Heatsink Temp (C):	21.493
CCDPCB Temp (C):	35.773
SecondaryPCB Temp (C):	29.304

Wavelength	RamanShift	Raw Counts	Dark Subtracted
787.061	30.1047	1088	675.8
787.2016	32.3739	1122.5	711.25
787.3422	34.6426	1162.4	751.75
787.4828	36.9109	1210.95	796.5
787.6235	39.1787	1260.1	844.3
787.7642	41.4461	1319.25	898.3
787.9049	43.7131	1382.2	956.25
788.0456	45.9796	1443.55	1016.25
788.1863	48.2456	1500.1	1067.8
788.3271	50.5112	1557.2	1120.5
788.4679	52.7764	1627	1190.35
788.6087	55.0411	1705	1262.75
788.7496	57.3054	1790.6	1343.6
788.8904	59.5692	1865.55	1417.5
789.0313	61.8326	1956.15	1504.45
789.1722	64.0955	2062.55	1606.95
789.3132	66.3579	2167.65	1707.25
789.4541	68.6199	2329.5	1866
789.5951	70.8815	2572.85	2103.55
789.7361	73.1426	3079.25	2606.65
789.8771	75.4032	4362	3885.6
790.0181	77.6634	7726.5	7244.35
790.1592	79.9231	16480.8	15992.75
790.3003	82.1824	52584.65	52084.85
790.4414	84.4412	65535	65014.1
790.5825	86.6995	65535	64988.4
790.7237	88.9574	65535	64962.85
790.8648	91.2148	65535	64945.8
791.006	93.4717	65535	64934.6
791.1472	95.7282	65535	64927.35
791.2885	97.9842	65535	64924.9
791.4297	100.2398	65535	64918.55
791.571	102.4949	65535	64912.45
791.7123	104.7495	65535	64914.95
791.8536	107.0036	65535	64911.7
791.9949	109.2573	65535	64916
792.1363	111.5105	65535	64910.65
792.2777	113.7632	65535	64909.95
792.4191	116.0154	65535	64899.45
792.5605	118.2672	65535	64904.8
792.7019	120.5185	65535	64900.05
792.8434	122.7693	65535	64899.65
792.9849	125.0197	65535	64894.4
793.1264	127.2696	65535	64892.3
793.2679	129.519	65535	64890.4
793.4094	131.7679	65535	64883.7
793.551	134.0163	65535	64881.35
793.6926	136.2642	65535	64879.45
793.8342	138.5117	65535	64871.7
793.9758	140.7587	65535	64876.05
794.1175	143.0052	65535	64875.65
794.2591	145.2512	65535	64875.1
794.4008	147.4967	65535	64873
794.5425	149.7417	65535	64867.75
794.6842	151.9863	65535	64866.45
794.826	154.2304	65535	64860.05
794.9677	156.4739	65535	64855.8
795.1095	158.717	65535	64858.85
795.2513	160.9596	65535	64854.75
795.3931	163.2017	65535	64851.1
795.535	165.4433	65535	64851.3
795.6768	167.6844	65535	64848.95
795.8187	169.925	65535	64842.5
795.9606	172.1651	65535	64840.7
796.1025	174.4047	65535	64839.45
796.2445	176.6439	65535	64835
796.3864	178.8825	65535	64834.25
796.5284	181.1206	65535	64828.35
796.6704	183.3582	65535	64826.85
796.8124	185.5954	65535	64825.75
796.9544	187.832	65535	64822.75
797.0965	190.0681	65535	64819.35
797.2386	192.3037	65535	64816.5
797.3806	194.5388	65535	64811.65
797.5228	196.7734	65535	64807.75
797.6649	199.0075	65535	64806.35
797.807	201.2411	65535	64806.8
797.9492	203.4742	65535	64806.25
798.0914	205.7068	65535	64803.15
798.2336	207.9389	65535	64802.65
798.3758	210.1704	65535	64800.75
798.518	212.4015	65535	64802.55
798.6603	214.632	65535	64811.85
798.8025	216.862	65535	64818.95
798.9448	219.0915	65535	64817.75
799.0871	221.3205	65535	64815.15
799.2294	223.549	65535	64824.95
799.3718	225.777	65535	64823.2
799.5141	228.0044	65535	64816.2
799.6565	230.2314	65535	64817.45
799.7989	232.4578	65535	64814.55
799.9413	234.6837	65535	64807.6
800.0837	236.909	65535	64804.2
800.2262	239.1339	65535	64780.85
800.3687	241.3582	65535	64794.6
800.5111	243.582	65535	64765.15
800.6536	245.8053	65535	64775.4
800.7961	248.0281	65535	64779.5
800.9387	250.2503	65535	64778.15
801.0812	252.472	65535	64768.15
801.2238	254.6932	65535	64772.85
801.3664	256.9139	65535	64773.05
801.509	259.134	65535	64766.9
801.6516	261.3536	65535	64770.05
801.7942	263.5727	65535	64771.15
801.9369	265.7912	65535	64772.6
802.0795	268.0092	65535	64768.15
802.2222	270.2267	65535	64765.45
802.3649	272.4436	65535	64766.55
802.5076	274.6601	65535	64759.65
802.6504	276.8759	65535	64763.35
802.7931	279.0913	65535	64758.8
802.9359	281.3061	65535	64756.65
803.0787	283.5204	65535	64755.6
803.2215	285.7341	65535	64754.2
803.3643	287.9473	65535	64738.95
803.5071	290.16	65535	64747
803.6499	292.3721	65535	64755.95
803.7928	294.5837	65535	64752.45
803.9357	296.7947	65535	64752.8
804.0786	299.0052	65535	64752.25
804.2215	301.2152	65535	64749.4
804.3644	303.4246	65535	64753.45
804.5074	305.6334	65535	64752.6
804.6503	307.8418	65535	64747.7
804.7933	310.0495	65535	64748.1
804.9363	312.2568	65535	64750.85
805.0793	314.4635	65535	64744.35
805.2223	316.6696	65535	64744.95
805.3653	318.8752	65535	64736.1
805.5084	321.0802	65535	64744.4
805.6514	323.2847	65535	64741.7
805.7945	325.4887	65535	64741.1
805.9376	327.692	65535	64741.65
806.0807	329.8949	65535	64737.9
806.2238	332.0972	65535	64736.9
806.367	334.2989	65535	64732.7
806.5101	336.5001	65535	64734.3
806.6533	338.7007	65535	64737.9
806.7965	340.9008	65535	64731.15
806.9397	343.1003	65535	64729.5
807.0829	345.2992	65535	64729.45
807.2261	347.4976	65535	64730.35
807.3693	349.6955	65535	64721.3
807.5126	351.8927	65535	64718.85
807.6559	354.0895	65535	64711.85
807.7991	356.2856	65535	64720
807.9424	358.4812	65535	64721.9
808.0857	360.6763	65535	64721.65
808.2291	362.8707	65535	64718.8
808.3724	365.0646	65535	64713.65
808.5158	367.258	65535	64716.6
808.6591	369.4508	65535	64707.95
808.8025	371.643	65535	64708
808.9459	373.8346	65535	64706.05
809.0893	376.0257	65535	64703.1
809.2327	378.2162	65535	64704.9
809.3762	380.4062	65535	64704.85
809.5196	382.5956	65535	64707.4
809.6631	384.7844	65535	64707.2
809.8066	386.9726	65535	64706.6
809.9501	389.1603	65535	64709.85
810.0936	391.3474	65535	64669.05
810.2371	393.5339	65535	64713.15
810.3806	395.7199	65535	64715.55
810.5241	397.9052	65535	64714.65
810.6677	400.09	65535	64713.7
810.8113	402.2743	65535	64712.45
810.9548	404.4579	65535	64712.5
811.0984	406.641	65535	64710.55
811.2421	408.8235	65535	64710.7
811.3857	411.0054	65535	64703.95
811.5293	413.1868	65535	64701.8
811.673	415.3675	65535	64701.25
811.8166	417.5477	65535	64701.3
811.9603	419.7273	65535	64698.8
812.104	421.9064	65535	64690.4
812.2477	424.0848	65535	64694.95
812.3914	426.2627	65535	64695.65
812.5351	428.4399	65535	64693.55
812.6788	430.6166	65535	64690.65
812.8226	432.7928	65535	64689.8
812.9663	434.9683	65535	64690.5
813.1101	437.1432	65535	64686.95
813.2539	439.3176	65535	64688.5
813.3977	441.4914	65535	64691.1
813.5415	443.6645	65535	64684.6
813.6853	445.8371	65535	64687.65
813.8291	448.0091	65535	64691.35
813.973	450.1806	65535	64688.7
814.1168	452.3514	65535	64687.05
814.2607	454.5216	65535	64680.7
814.4046	456.6913	65535	64686.2
814.5485	458.8603	65535	64687.1
814.6924	461.0288	65535	64689.3
814.8363	463.1967	65535	64686.45
814.9802	465.3639	65535	64683.55
815.1241	467.5306	65535	64685.4
815.2681	469.6967	65535	64685.05
815.412	471.8622	65535	64685.5
815.556	474.0271	65535	64685.1
815.7	476.1914	65535	64681.35
815.844	478.3551	65535	64684.2
815.988	480.5182	65535	64682.35
816.132	482.6807	65535	64681.15
816.276	484.8426	65535	64678.45
816.4201	487.0039	65535	64681.9
816.5641	489.1647	65535	64680.45
816.7082	491.3248	65535	64680.9
816.8522	493.4843	65535	64678.25
816.9963	495.6432	65535	64678.45
817.1404	497.8015	65535	64675
817.2845	499.9592	65535	64677.25
817.4286	502.1163	65535	64677.05
817.5727	504.2728	65535	64674.55
817.7168	506.4287	65535	64679.15
817.861	508.5839	65535	64677.7
818.0051	510.7386	65535	64678.85
818.1493	512.8927	65535	64672.85
818.2935	515.0461	65535	64674.2
818.4377	517.199	65535	64674.6
818.5818	519.3512	65535	64671.7
818.726	521.5029	65535	64667.25
818.8703	523.6539	65535	64671.55
819.0145	525.8043	65535	64671.35
819.1587	527.9541	65535	64667.45
819.303	530.1033	65535	64669.6
819.4472	532.2519	65535	64669.9
819.5915	534.3999	65535	64665.85
819.7357	536.5472	65535	64668.35
819.88	538.694	65535	64670.25
820.0243	540.8401	65535	64669.7
820.1686	542.9856	65535	64665.35
820.3129	545.1305	65535	64662.25
820.4572	547.2748	65535	64663.05
820.6016	549.4185	65535	64666.2
820.7459	551.5615	65535	64663.85
820.8902	553.704	65535	64664.75
821.0346	555.8458	65535	64666.6
821.1789	557.987	65535	64664.2
821.3233	560.1276	65535	64664.45
821.4677	562.2675	65535	64663.9
821.6121	564.4069	65535	64665.75
821.7565	566.5456	65535	64666.95
821.9009	568.6837	65535	64662.2
822.0453	570.8212	65535	64664.55
822.1897	572.958	65535	64663.15
822.3342	575.0942	65535	64663.8
822.4786	577.2299	65535	64658.65
822.6231	579.3648	65535	64666.4
822.7675	581.4992	65535	64668.25
822.912	583.6329	65535	64668.15
823.0565	585.766	65535	64664.85
823.201	587.8985	65535	64661.85
823.3454	590.0304	65535	64636.95
823.4899	592.1616	65535	64659.5
823.6345	594.2922	65535	64660.9
823.779	596.4222	65535	64658.55
823.9235	598.5515	65535	64657.15
824.068	600.6802	65535	64659.8
824.2126	602.8083	65535	64660
824.3571	604.9358	65535	64658.15
824.5017	607.0626	65535	64656.75
824.6462	609.1888	65535	64656.2
824.7908	611.3144	65535	64653.8
824.9354	613.4393	65535	64653.2
825.08	615.5636	65535	64655.85
825.2246	617.6873	65535	64656.85
825.3692	619.8103	65535	64653.15
825.5138	621.9327	65535	64653.3
825.6584	624.0544	65535	64657.2
825.803	626.1756	65535	64657.6
825.9477	628.2961	65535	64656.9
826.0923	630.4159	65535	64653.15
826.237	632.5351	65535	64655.35
826.3816	634.6537	65535	64654.5
826.5263	636.7716	65535	64649.65
826.6709	638.8889	65535	64652.2
826.8156	641.0056	65535	64648.85
826.9603	643.1216	65535	64649.3
827.105	645.237	65535	64652.3
827.2497	647.3518	65535	64652.55
827.3944	649.4659	65535	64651.15
827.5391	651.5793	65535	64653.15
827.6838	653.6922	65535	64656.45
827.8285	655.8043	65535	64651.55
827.9733	657.9159	65535	64649.15
828.118	660.0268	65535	64647.35
828.2627	662.137	65535	64648.85
828.4075	664.2466	65535	64648.75
828.5522	666.3556	65535	64648.95
828.697	668.4639	65535	64646.9
828.8418	670.5716	65535	64648.5
828.9865	672.6786	65535	64647.65
829.1313	674.785	65535	64649.05
829.2761	676.8907	65535	64649.85
829.4209	678.9958	65535	64650.75
829.5657	681.1002	65535	64648.1
829.7105	683.204	65535	64643.35
829.8553	685.3072	65535	64644.9
830.0001	687.4097	65535	64647.65
830.1449	689.5115	65535	64643.05
830.2898	691.6127	65535	64642.8
830.4346	693.7132	65535	64645.6
830.5794	695.8131	65535	64632.1
830.7243	697.9123	65535	64644.05
830.8691	700.0109	65535	64644
831.014	702.1089	65535	64644.6
831.1588	704.2061	65535	64644.6
831.3037	706.3028	65535	64642.15
831.4486	708.3987	65535	64640.45
831.5935	710.4941	65535	64646.3
831.7383	712.5887	65535	64642.9
831.8832	714.6827	65535	64641.1
832.0281	716.7761	65535	64644.05
832.173	718.8688	65535	64643.5
832.3179	720.9608	65535	64638.25
832.4628	723.0522	65535	64638.95
832.6077	725.1429	65535	64638.75
832.7527	727.233	65535	64640.4
832.8976	729.3224	65535	64641.7
833.0425	731.4112	65535	64640
833.1874	733.4993	65535	64637.8
833.3324	735.5867	65535	64641.55
833.4773	737.6735	65535	64636.25
833.6222	739.7596	65535	64639.85
833.7672	741.845	65535	64641.45
833.9122	743.9298	65535	64637.95
834.0571	746.014	65535	64642.5
834.2021	748.0974	65535	64639.2
834.347	750.1802	65535	64638.2
834.492	752.2624	65535	64640
834.637	754.3439	65535	64637.85
834.782	756.4247	65535	64630.8
834.9269	758.5048	65535	64640.85
835.0719	760.5843	65535	64639.55
835.2169	762.6631	65535	64639.25
835.3619	764.7413	65535	64641.85
835.5069	766.8188	65535	64634.65
835.6519	768.8956	65535	64637.15
835.7969	770.9718	65535	64641.15
835.9419	773.0473	65535	64640.35
836.0869	775.1221	65535	64638.35
836.232	777.1962	65535	64642.65
836.377	779.2697	65535	64639.35
836.522	781.3426	65535	64619.05
836.667	783.4147	65535	64634.6
836.8121	785.4862	65535	64639.2
836.9571	787.557	65535	64637.9
837.1021	789.6271	65535	64636.85
837.2472	791.6966	65535	64638
837.3922	793.7654	65535	64634.75
837.5373	795.8335	65535	64636.05
837.6823	797.901	65535	64637.8
837.8274	799.9678	65535	64634.75
837.9724	802.0339	65535	64638.45
838.1175	804.0993	65535	64627.5
838.2626	806.1641	65535	64635.85
838.4076	808.2282	65535	64638
838.5527	810.2916	65535	64632.95
838.6978	812.3544	65535	64638.55
838.8428	814.4164	65535	64638.2
838.9879	816.4778	65535	64632.85
839.133	818.5385	65535	64633.8
839.2781	820.5986	65535	64638.25
839.4232	822.658	65535	64633.75
839.5682	824.7166	65535	64636.9
839.7133	826.7747	65535	64639
839.8584	828.832	65535	64634.2
840.0035	830.8886	65535	64632.3
840.1486	832.9446	65535	64634.1
840.2937	834.9999	65535	64637.35
840.4388	837.0545	65535	64631.55
840.5839	839.1085	65535	64637.75
840.729	841.1618	65535	64633.3
840.8741	843.2143	65535	64634.15
841.0192	845.2662	65535	64637.25
841.1643	847.3175	65535	64634.95
841.3095	849.368	65535	64633.7
841.4546	851.4179	65535	64635.95
841.5997	853.467	65535	64633.05
841.7448	855.5155	65535	64636.8
841.8899	857.5633	65535	64633.4
842.0351	859.6105	65535	64637.55
842.1802	861.6569	65535	64633.85
842.3253	863.7027	65535	64632.55
842.4704	865.7478	65535	64630.85
842.6156	867.7922	65535	64632.1
842.7607	869.8359	65535	64633.65
842.9058	871.8789	65535	64633.8
843.0509	873.9212	65535	64602.15
843.1961	875.9629	65535	64632.4
843.3412	878.0039	65535	64633.55
843.4863	880.0441	65535	64634.3
843.6315	882.0837	65535	64630.9
843.7766	884.1226	65535	64632.4
843.9218	886.1609	65535	64634.9
844.0669	888.1984	65535	64634.4
844.212	890.2352	65535	64634.9
844.3572	892.2714	65535	64626.9
844.5023	894.3069	65535	64632.75
844.6475	896.3416	65535	64630.6
844.7926	898.3757	65535	64632.8
844.9377	900.4091	65535	64631.75
845.0829	902.4418	65535	64627.15
845.228	904.4739	65535	64629
845.3732	906.5052	65535	64633
845.5183	908.5358	65535	64632.1
845.6635	910.5658	65535	64627.9
845.8086	912.595	65535	64631.55
845.9538	914.6236	65535	64634.35
846.0989	916.6515	65535	64632.7
846.2441	918.6786	65535	64631.1
846.3892	920.7051	65535	64629.25
846.5344	922.7309	65535	64629.65
846.6795	924.756	65535	64630.1
846.8246	926.7804	65535	64629.6
846.9698	928.8041	65535	64630.05
847.1149	930.8272	65535	64633.15
847.2601	932.8495	65535	64630.2
847.4052	934.8711	65535	64627.9
847.5504	936.892	65535	64630.1
847.6955	938.9123	65535	64629.55
847.8407	940.9318	65535	64632.4
847.9858	942.9506	65535	64630.25
848.131	944.9688	65535	64630.4
848.2761	946.9862	65535	64631.85
848.4213	949.003	65535	64630.95
848.5664	951.019	65535	64628.3
848.7115	953.0344	65535	64630.05
848.8567	955.0491	65535	64627.85
849.0018	957.063	65535	64630.1
849.147	959.0763	65535	64631.6
849.2921	961.0888	65535	64628.35
849.4373	963.1007	65535	64631.7
849.5824	965.1119	65535	64633.4
849.7275	967.1223	65535	64632.2
849.8727	969.1321	65535	64631.7
850.0178	971.1412	65535	64633.85
850.1629	973.1495	65535	64632.15
850.3081	975.1572	65535	64601.1
850.4532	977.1641	65535	64630
850.5983	979.1704	65535	64631.6
850.7435	981.1759	65535	64630.6
850.8886	983.1808	65535	64632.7
851.0337	985.1849	65535	64621.15
851.1788	987.1884	65535	64627.55
851.324	989.1911	65535	64630.15
851.4691	991.1932	65535	64630.45
851.6142	993.1945	65535	64632.7
851.7593	995.1951	65535	64631.05
851.9045	997.1951	65535	64622.3
852.0496	999.1943	65535	64633.8
852.1947	1001.1928	65535	64629.2
852.3398	1003.1906	65535	64631.5
852.4849	1005.1877	65535	64630.55
852.63	1007.1841	65535	64631.2
852.7751	1009.1798	65535	64631.9
852.9202	1011.1748	65535	64631.7
853.0653	1013.1691	65535	64631.05
853.2104	1015.1627	65535	64629.3
853.3555	1017.1556	65535	64630.65
853.5006	1019.1477	65535	64628.55
853.6457	1021.1392	65535	64634.2
853.7908	1023.1299	65535	64632.45
853.9359	1025.12	65535	64630.25
854.081	1027.1093	65535	64633.95
854.2261	1029.0979	65535	64638.35
854.3712	1031.0859	65535	64633.7
854.5163	1033.0731	65535	64632.15
854.6613	1035.0596	65535	64631.5
854.8064	1037.0454	65535	64632.35
854.9515	1039.0304	65535	64631.6
855.0965	1041.0148	65535	64632.45
855.2416	1042.9985	65535	64629.1
855.3867	1044.9814	65535	64633.15
855.5317	1046.9636	65535	64627
855.6768	1048.9452	65535	64633.45
855.8219	1050.926	65535	64632.9
855.9669	1052.9061	65535	64632.6
856.112	1054.8855	65535	64629.9
856.257	1056.8642	65535	64631.6
856.4021	1058.8421	65535	64626.45
856.5471	1060.8194	65535	64630.45
856.6921	1062.7959	65535	64631.85
856.8372	1064.7717	65535	64630
856.9822	1066.7469	65535	64629.45
857.1272	1068.7213	65535	64627.55
857.2723	1070.695	65535	64634.05
857.4173	1072.6679	65535	64630.45
857.5623	1074.6402	65535	64630.4
857.7073	1076.6117	65535	64627.5
857.8523	1078.5826	65535	64631
857.9973	1080.5527	65535	64627.6
858.1423	1082.5221	65535	64629.85
858.2873	1084.4908	65535	64629.25
858.4323	1086.4587	65535	64628.1
858.5773	1088.426	65535	64629.8
858.7223	1090.3925	65535	64626.5
858.8673	1092.3584	65535	64633.55
859.0123	1094.3235	65535	64630.4
859.1573	1096.2879	65535	64633.1
859.3022	1098.2515	65535	64631.95
859.4472	1100.2145	65535	64632.2
859.5922	1102.1767	65535	64630.65
859.7371	1104.1382	65535	64632.2
859.8821	1106.099	65535	64628.3
860.027	1108.0591	65535	64630.2
860.172	1110.0185	65535	64628.95
860.3169	1111.9771	65535	64632.5
860.4619	1113.9351	65535	64630.75
860.6068	1115.8923	65535	64632.55
860.7517	1117.8488	65535	64627.95
860.8967	1119.8045	65535	64631.25
861.0416	1121.7596	65535	64629.4
861.1865	1123.7139	65535	64631.8
861.3314	1125.6675	65535	64631.15
861.4763	1127.6204	65535	64630.6
861.6212	1129.5726	65535	64630.4
861.7661	1131.524	65535	64631.9
861.911	1133.4748	65535	64628.55
862.0559	1135.4248	65535	64630.2
862.2008	1137.3741	65535	64632.5
862.3457	1139.3226	65535	64629.65
862.4905	1141.2705	65535	64630.95
862.6354	1143.2176	65535	64627.9
862.7803	1145.164	65535	64630.5
862.9251	1147.1097	65535	64629.5
863.07	1149.0546	65535	64627.95
863.2148	1150.9989	65535	64630.9
863.3597	1152.9424	65535	64630.75
863.5045	1154.8852	65535	64631.45
863.6493	1156.8272	65535	64632.55
863.7942	1158.7686	65535	64623.6
863.939	1160.7092	65535	64630.35
864.0838	1162.6491	65535	64630.8
864.2286	1164.5883	65535	64632.3
864.3734	1166.5267	65535	64630.05
864.5182	1168.4644	65535	64632.55
864.663	1170.4014	65535	64626.05
864.8078	1172.3377	65535	64633.9
864.9526	1174.2732	65535	64631
865.0974	1176.2081	65535	64633
865.2421	1178.1421	65535	64626.95
865.3869	1180.0755	65535	64632
865.5317	1182.0082	65535	64629.25
865.6764	1183.9401	65535	64630.05
865.8212	1185.8713	65535	64631.9
865.9659	1187.8017	65535	64632.55
866.1106	1189.7315	65535	64635.45
866.2554	1191.6605	65535	64605.2
866.4001	1193.5888	65535	64632.1
866.5448	1195.5163	65535	64632.1
866.6895	1197.4432	65535	64630.8
866.8342	1199.3693	65535	64633.3
866.9789	1201.2947	65535	64629.4
867.1236	1203.2193	65535	64633.8
867.2683	1205.1432	65535	64630.95
867.413	1207.0664	65535	64632.15
867.5576	1208.9889	65535	64629.8
867.7023	1210.9106	65535	64629.65
867.847	1212.8316	65535	64634.05
867.9916	1214.7519	65535	64625.7
868.1363	1216.6715	65535	64632
868.2809	1218.5903	65535	64633.85
868.4255	1220.5084	65535	64632.55
868.5701	1222.4257	65535	64630.8
868.7148	1224.3424	65535	64631.7
868.8594	1226.2583	65535	64630
869.004	1228.1735	65535	64631.7
869.1486	1230.0879	65535	64630.75
869.2932	1232.0016	65535	64632.75
869.4377	1233.9146	65535	64629.25
869.5823	1235.8269	65535	64632.95
869.7269	1237.7384	65535	64634.25
869.8715	1239.6492	65535	64631.65
870.016	1241.5592	65535	64631.55
870.1606	1243.4686	65535	64632.5
870.3051	1245.3772	65535	64634.7
870.4496	1247.285	65535	64629.55
870.5941	1249.1922	65535	64632.9
870.7387	1251.0986	65535	64635.2
870.8832	1253.0042	65535	64632.1
871.0277	1254.9092	65535	64631.3
871.1722	1256.8134	65535	64633.75
871.3167	1258.7169	65535	64630.65
871.4611	1260.6196	65535	64632.9
871.6056	1262.5216	65535	64631.25
871.7501	1264.4229	65535	64633.35
871.8945	1266.3234	65535	64635.85
872.039	1268.2232	65535	64631.6
872.1834	1270.1223	65535	64633.9
872.3278	1272.0207	65535	64630.6
872.4723	1273.9183	65535	64624.5
872.6167	1275.8151	65535	64630.75
872.7611	1277.7113	65535	64635.1
872.9055	1279.6067	65535	64632.9
873.0499	1281.5014	65535	64630.75
873.1943	1283.3953	65535	64629.7
873.3386	1285.2885	65535	64633.4
873.483	1287.181	65535	64630.2
873.6274	1289.0727	65535	64634.15
873.7717	1290.9637	65535	64633.6
873.9161	1292.854	65535	64633.7
874.0604	1294.7435	65535	64634.7
874.2047	1296.6323	65535	64632.8
874.349	1298.5204	65535	64631.15
874.4933	1300.4077	65535	64631.65
874.6376	1302.2943	65535	64631.5
874.7819	1304.1802	65535	64635.85
874.9262	1306.0653	65535	64631.05
875.0705	1307.9497	65535	64631.95
875.2147	1309.8333	65535	64631.65
875.359	1311.7162	65535	64633.3
875.5032	1313.5984	65535	64630.7
875.6475	1315.4798	65535	64631.95
875.7917	1317.3605	65535	64616.5
875.9359	1319.2405	65535	64631.7
876.0801	1321.1197	65535	64631.3
876.2243	1322.9982	65535	64628.2
876.3685	1324.876	65535	64633.75
876.5127	1326.753	65535	64632.35
876.6569	1328.6293	65535	64629.75
876.801	1330.5048	65535	64629.8
876.9452	1332.3796	65535	64634.5
877.0893	1334.2537	65535	64606.35
877.2335	1336.127	65535	64634.6
877.3776	1337.9996	65535	64632.45
877.5217	1339.8714	65535	64631.4
877.6658	1341.7426	65535	64587
877.8099	1343.6129	65535	64633.15
877.954	1345.4826	65535	64632.2
878.0981	1347.3515	65535	64630.7
878.2422	1349.2196	65535	64633.8
878.3862	1351.087	65535	64633.1
878.5303	1352.9537	65535	64631.1
878.6743	1354.8197	65535	64633.75
878.8184	1356.6849	65535	64634.5
878.9624	1358.5493	65535	64630.55
879.1064	1360.4131	65535	64630.1
879.2504	1362.276	65535	64632.3
879.3944	1364.1383	65535	64632.75
879.5384	1365.9998	65535	64627.75
879.6823	1367.8606	65535	64630.05
879.8263	1369.7206	65535	64632.55
879.9702	1371.5799	65535	64630.5
880.1142	1373.4384	65535	64634.2
880.2581	1375.2962	65535	64631.15
880.402	1377.1533	65535	64632.6
880.5459	1379.0096	65535	64630.25
880.6898	1380.8652	65535	64633
880.8337	1382.7201	65535	64633.5
880.9776	1384.5742	65535	64634.6
881.1215	1386.4275	65535	64630.75
881.2653	1388.2802	65535	64635.65
881.4092	1390.132	65535	64630.7
881.553	1391.9832	65535	64631.9
881.6968	1393.8336	65535	64633.35
881.8406	1395.6832	65535	64631.05
881.9844	1397.5322	65535	64632.7
882.1282	1399.3803	65535	64629.1
882.272	1401.2278	65535	64630.75
882.4158	1403.0745	65535	64635.75
882.5595	1404.9204	65535	64636.15
882.7033	1406.7656	65535	64633.05
882.847	1408.6101	65535	64629.8
882.9908	1410.4538	65535	64631.95
883.1345	1412.2968	65535	64635.2
883.2782	1414.139	65535	64633.25
883.4219	1415.9805	65535	64633.25
883.5656	1417.8213	65535	64626.7
883.7092	1419.6613	65535	64635.7
883.8529	1421.5006	65535	64632
883.9965	1423.3391	65535	64632.55
884.1402	1425.1769	65535	64630.6
884.2838	1427.0139	65535	64634.3
884.4274	1428.8502	65535	64632.85
884.571	1430.6858	65535	64631.55
884.7146	1432.5206	65535	64633.3
884.8582	1434.3547	65535	64632.15
885.0018	1436.188	65535	64634
885.1453	1438.0206	65535	64634
885.2889	1439.8524	65535	64632.1
885.4324	1441.6835	65535	64632
885.5759	1443.5139	65535	64629.75
885.7194	1445.3435	65535	64634.45
885.8629	1447.1724	65535	64632.35
886.0064	1449.0005	65535	64632
886.1499	1450.8279	65535	64630.95
886.2933	1452.6545	65535	64632.4
886.4368	1454.4804	65535	64633.3
886.5802	1456.3056	65535	64628.15
886.7237	1458.13	65535	64634.6
886.8671	1459.9536	65535	64634.5
887.0105	1461.7766	65535	64634.3
887.1539	1463.5987	65535	64633
887.2972	1465.4202	65535	64629.35
887.4406	1467.2409	65535	64634.75
887.584	1469.0608	65535	64633.95
887.7273	1470.88	65535	64633.05
887.8706	1472.6984	65535	64634.7
888.0139	1474.5161	65535	64631.85
888.1572	1476.3331	65535	64634.55
888.3005	1478.1493	65535	64632.35
888.4438	1479.9648	65535	64632.4
888.5871	1481.7795	65535	64632.85
888.7303	1483.5935	65535	64633.95
888.8736	1485.4067	65535	64633.5
889.0168	1487.2192	65535	64635.7
889.16	1489.031	65535	64630.65
889.3032	1490.842	65535	64636.4
889.4464	1492.6522	65535	64636.2
889.5896	1494.4618	65535	64635.15
889.7327	1496.2705	65535	64636.6
889.8759	1498.0785	65535	64632.35
890.019	1499.8858	65535	64634.35
890.1622	1501.6924	65535	64635.85
890.3053	1503.4981	65535	64637.1
890.4484	1505.3032	65535	64632.7
890.5914	1507.1075	65535	64633.75
890.7345	1508.911	65535	64633.95
890.8776	1510.7138	65535	64633.7
891.0206	1512.5159	65535	64635.45
891.1637	1514.3172	65535	64635.4
891.3067	1516.1178	65535	64635.8
891.4497	1517.9176	65535	64632.85
891.5927	1519.7166	65535	64637.1
891.7357	1521.515	65535	64628.15
891.8786	1523.3126	65535	64634
892.0216	1525.1094	65535	64632.9
892.1645	1526.9055	65535	64635.65
892.3074	1528.7008	65535	64634.35
892.4503	1530.4954	65535	64632.4
892.5932	1532.2893	65535	64637.75
892.7361	1534.0824	65535	64629.95
892.879	1535.8747	65535	64637.2
893.0218	1537.6663	65535	64635.05
893.1647	1539.4572	65535	64631.75
893.3075	1541.2473	65535	64634.4
893.4503	1543.0367	65535	64638.65
893.5931	1544.8253	65535	64632.75
893.7359	1546.6132	65535	64634.75
893.8787	1548.4003	65535	64625.95
894.0214	1550.1867	65535	64626.85
894.1642	1551.9723	65535	64631.8
894.3069	1553.7572	65535	64634.1
894.4496	1555.5414	65535	64639.6
894.5923	1557.3247	65535	64636.65
894.735	1559.1074	65535	64638.4
894.8777	1560.8893	65535	64636.4
895.0204	1562.6705	65535	64633.05
895.163	1564.4509	65535	64636.95
895.3056	1566.2305	65535	64639.25
895.4482	1568.0094	65535	64638.05
895.5908	1569.7876	65535	64637.75
895.7334	1571.565	65535	64638.55
895.876	1573.3417	65535	64638.2
896.0186	1575.1176	65535	64638.3
896.1611	1576.8928	65535	64637.25
896.3036	1578.6672	65535	64638.5
896.4461	1580.4409	65535	64639.2
896.5886	1582.2138	65535	64636
896.7311	1583.986	65535	64636.8
896.8736	1585.7575	65535	64637
897.0161	1587.5282	65535	64640.5
897.1585	1589.2981	65535	64639.45
897.3009	1591.0673	65535	64638.75
897.4433	1592.8358	65535	64638.65
897.5857	1594.6035	65535	64634.35
897.7281	1596.3704	65535	64638.2
897.8705	1598.1366	65535	64637.3
898.0128	1599.9021	65535	64640.1
898.1551	1601.6668	65535	64635.9
898.2975	1603.4308	65535	64635.45
898.4398	1605.194	65535	64634.45
898.5821	1606.9564	65535	64639.95
898.7243	1608.7182	65535	64634.75
898.8666	1610.4791	65535	64639.65
899.0088	1612.2394	65535	64642.05
899.1511	1613.9988	65535	64640.95
899.2933	1615.7576	65535	64638.75
899.4355	1617.5156	65535	64631.7
899.5776	1619.2728	65535	64640
899.7198	1621.0293	65535	64639.45
899.862	1622.785	65535	64638.45
900.0041	1624.54	65535	64639.4
900.1462	1626.2942	65535	64638.4
900.2883	1628.0477	65535	64636.75
900.4304	1629.8005	65530.85	64630.55
900.5725	1631.5525	65535	64641.25
900.7145	1633.3037	65526.55	64631.5
900.8566	1635.0542	65526.5	64631.5
900.9986	1636.804	65535	64638.8
901.1406	1638.553	65522.8	64539.75
901.2826	1640.3013	65527.95	64633.35
901.4245	1642.0488	65519.45	64622.9
901.5665	1643.7955	65529.15	64636.7
901.7085	1645.5416	65522.4	64627.9
901.8504	1647.2868	65501.2	64605.25
901.9923	1649.0313	65523.7	64629.55
902.1342	1650.7751	65516.55	64617.05
902.2761	1652.5181	65499.85	64604.7
902.4179	1654.2604	65498.65	64604.15
902.5598	1656.0019	65501.15	64608.45
902.7016	1657.7427	65486.05	64590.6
902.8434	1659.4828	65517.35	64624.5
902.9852	1661.222	65477.2	64580.6
903.127	1662.9606	65524.55	64629.15
903.2687	1664.6984	65476.05	64579.75
903.4105	1666.4354	65505.6	64611.05
903.5522	1668.1717	65438.65	64541.55
903.6939	1669.9072	65371.35	64476.05
903.8356	1671.642	65389.35	64492.1
903.9773	1673.3761	65360.8	64465.75
904.119	1675.1094	65353.3	64458.45
904.2606	1676.8419	65259.05	64363.05
904.4022	1678.5737	65325.05	64430.3
904.5439	1680.3048	65262.95	64367.05
904.6855	1682.0351	65218.7	64324.55
904.827	1683.7646	65181.1	64283.3
904.9686	1685.4934	65245.25	64350.7
905.1101	1687.2215	64975.45	64079.15
905.2517	1688.9488	65184.65	64289.8
905.3932	1690.6754	64734.35	63840.65
905.5347	1692.4012	64971.95	64077.85
905.6761	1694.1263	65059.9	64165.6
905.8176	1695.8506	64840.35	63944.75
905.9591	1697.5742	64897	64005.35
906.1005	1699.297	64843.55	63951.1
906.2419	1701.0191	64886.45	63994.1
906.3833	1702.7404	64620.25	63726.9
906.5246	1704.461	64543.95	63648.9
906.666	1706.1808	64720.5	63825.7
906.8073	1707.8999	64607.95	63714.15
906.9487	1709.6182	64555.2	63662.2
907.09	1711.3358	64520.15	63625.9
907.2313	1713.0527	64499.15	63608.25
907.3725	1714.7688	64513.1	63614.55
907.5138	1716.4841	64268.45	63372.1
907.655	1718.1987	64352	63452.25
907.7962	1719.9126	64295.3	63404.25
907.9374	1721.6257	64336.65	63442.1
908.0786	1723.338	64378.8	63484.85
908.2198	1725.0496	64112.2	63219.05
908.3609	1726.7605	64143.05	63248.15
908.502	1728.4706	64073.25	63177.9
908.6431	1730.18	64156.6	63261.35
908.7842	1731.8886	64066.95	63175.75
908.9253	1733.5964	63934.3	63035.85
909.0664	1735.3036	64076.5	63180.75
909.2074	1737.0099	63998.85	63107.35
909.3484	1738.7156	63849.8	62957.9
909.4894	1740.4204	63826.15	62930
909.6304	1742.1246	63856.35	62962.45
909.7714	1743.8279	63896.95	63005.15
909.9123	1745.5306	63842.2	62949.45
910.0532	1747.2325	63390.45	62498
910.1941	1748.9336	63424.4	62529.35
910.335	1750.634	63565.15	62669.65
910.4759	1752.3336	63718.8	62826.4
910.6168	1754.0325	63361.5	62469.65
910.7576	1755.7307	63665.1	62773.6
910.8984	1757.4281	63211.95	62320.2
911.0392	1759.1247	63540	62638.1
911.18	1760.8206	63023.45	62124.55
911.3208	1762.5158	63117.55	62220.8
911.4615	1764.2102	63209.45	62316.35
911.6022	1765.9039	63141.1	62246.7
911.7429	1767.5968	62989.7	62098.3
911.8836	1769.289	62923.25	62032.75
912.0243	1770.9804	63021.1	62127.15
912.1649	1772.6711	62883.2	61990.25
912.3056	1774.361	62761.15	61867.35
912.4462	1776.0502	62801.25	61907.9
912.5868	1777.7386	62189.1	61292.9
912.7274	1779.4263	62587.4	61695.65
912.8679	1781.1132	62567.6	61674.2
913.0084	1782.7994	62455.05	61562.85
913.149	1784.4849	62467.1	61575.7
913.2895	1786.1696	61644.2	60744.15
913.4299	1787.8535	62164.35	61273.4
913.5704	1789.5367	62280.2	61390.25
913.7108	1791.2192	61711.3	60819.95
913.8513	1792.9009	61417.95	60496.55
913.9917	1794.5818	61824.45	60930.05
914.132	1796.2621	61361.75	60471.45
914.2724	1797.9415	61377.65	60485.2
914.4128	1799.6202	61360.75	60469.1
914.5531	1801.2982	61364.55	60470.85
914.6934	1802.9755	60782.25	59887.15
914.8337	1804.6519	60619.05	59725.7
914.9739	1806.3277	61360.1	60467.8
915.1142	1808.0027	60167.85	59277.75
915.2544	1809.6769	60590.25	59697.65
915.3946	1811.3504	60717.3	59824.7
915.5348	1813.0231	59707.2	58814.3
915.675	1814.6951	60383.75	59490.85
915.8151	1816.3664	60021.75	59127.9
915.9553	1818.0369	59994.05	59100.5
916.0954	1819.7067	59712.55	58820.6
916.2355	1821.3757	60272.7	59378
916.3755	1823.044	59404.35	58512.15
916.5156	1824.7115	58956.95	58065.1
916.6556	1826.3783	59226.6	58335.8
916.7956	1828.0443	59319.35	58428
916.9356	1829.7096	58994.65	58102.55
917.0756	1831.3741	58302.15	57408.2
917.2155	1833.0379	58712.75	57821.45
917.3555	1834.701	58675.8	57782.55
917.4954	1836.3633	58172.1	57278.75
917.6353	1838.0248	58503.9	57610.5
917.7751	1839.6856	58279.8	57388.2
917.915	1841.3457	57690.7	56799.75
918.0548	1843.005	58342.4	57451.1
918.1946	1844.6636	57927.6	57035.35
918.3344	1846.3214	57255.85	56362.4
918.4742	1847.9785	57381.45	56489.55
918.6139	1849.6349	57329.3	56435.05
918.7537	1851.2904	57878.55	56977.55
918.8934	1852.9453	56995.25	56104.15
919.0331	1854.5994	57347.4	56454.5
919.1727	1856.2528	57286.2	56389.4
919.3124	1857.9054	56726.3	55833.7
919.452	1859.5572	56467.1	55577.6
919.5916	1861.2083	56675.4	55781.05
919.7312	1862.8587	57263.75	56371.9
919.8708	1864.5084	55852.85	54959.65
920.0103	1866.1572	56415.4	55523.05
920.1498	1867.8054	55681.9	54790
920.2893	1869.4528	56120.45	55229.15
920.4288	1871.0994	55480.05	54586.4
920.5683	1872.7453	55486.5	54592.25
920.7077	1874.3905	55726.2	54827.75
920.8471	1876.0349	55155.25	54263.4
920.9865	1877.6786	55572.9	54679
921.1259	1879.3215	55023.95	54131.75
921.2653	1880.9637	55549.25	54656.65
921.4046	1882.6051	54979.2	54087.85
921.5439	1884.2458	54705.75	53812.25
921.6832	1885.8858	54415.1	53523.05
921.8225	1887.525	54591.85	53699.6
921.9617	1889.1634	54411.85	53520.2
922.101	1890.8011	54223.9	53330.6
922.2402	1892.4381	53639.3	52746.55
922.3794	1894.0743	54163.75	53272.4
922.5185	1895.7098	53803.9	52912.2
922.6577	1897.3446	53388.55	52498.7
922.7968	1898.9786	53588.45	52691.15
922.9359	1900.6118	53277	52385.45
923.075	1902.2443	52908.4	52013.6
923.214	1903.8761	53207.35	52315.9
923.3531	1905.5071	52802.15	51909.65
923.4921	1907.1374	52195.9	51304.1
923.6311	1908.7669	52382.95	51490.6
923.77	1910.3957	52565.4	51675.3
923.909	1912.0237	52021.1	51129.15
924.0479	1913.651	51843.25	50951.5
924.1868	1915.2776	51695.55	50804.8
924.3257	1916.9034	51626.6	50736.8
924.4646	1918.5285	51316.5	50425.75
924.6034	1920.1528	51278.5	50386.6
924.7422	1921.7764	51112.45	50221.3
924.881	1923.3992	50977	50086.1
925.0198	1925.0213	50660.4	49769
925.1586	1926.6427	50293.55	49403.65
925.2973	1928.2633	50383	49414.2
925.436	1929.8832	50220.3	49326.95
925.5747	1931.5023	49972.6	49079.4
925.7134	1933.1207	49691.1	48799.6
925.852	1934.7383	49812.55	48921.95
925.9906	1936.3552	49486.9	48597
926.1292	1937.9714	49437.6	48548.7
926.2678	1939.5868	49287.5	48394.65
926.4064	1941.2015	48888.35	47997.25
926.5449	1942.8154	48658.7	47767.05
926.6834	1944.4286	48527.9	47635.1
926.8219	1946.041	48531.95	47622.15
926.9604	1947.6528	48165.4	47269.25
927.0988	1949.2637	48027.9	47137.6
927.2372	1950.8739	47853.8	46962.95
927.3756	1952.4834	47878.8	46986.5
927.514	1954.0921	47674.9	46784.3
927.6523	1955.7001	47448.4	46553.75
927.7907	1957.3074	47427.65	46537.65
927.929	1958.9139	47104	46214.35
928.0673	1960.5197	47047.55	46154.95
928.2055	1962.1247	46844.8	45954.6
928.3438	1963.729	46602.25	45711.8
928.482	1965.3325	46480	45567.25
928.6202	1966.9353	46413.35	45522.75
928.7584	1968.5374	46129.1	45235.4
928.8965	1970.1387	46008.25	45116.25
929.0346	1971.7393	45859.5	44969.1
929.1727	1973.3392	45695.05	44804.35
929.3108	1974.9383	45565.4	44675.65
929.4489	1976.5366	45322.95	44431.3
929.5869	1978.1342	45240.25	44349.5
929.7249	1979.7311	45106.9	44214.95
929.8629	1981.3273	44983.25	44090.65
930.0009	1982.9227	44836.65	43945.2
930.1388	1984.5173	44723.4	43831.55
930.2767	1986.1112	44492.4	43602.65
930.4146	1987.7044	44456.15	43567.3
930.5525	1989.2968	44184.55	43293
930.6904	1990.8885	44228.65	43335.05
930.8282	1992.4795	44039.7	43147.3
930.966	1994.0697	43807.45	42917.8
931.1038	1995.6592	43686.3	42795
931.2415	1997.2479	43600.75	42711.35
931.3793	1998.8359	43404.9	42512.75
931.517	2000.4232	43183.55	42294.45
931.6547	2002.0097	43082.4	42195.8
931.7923	2003.5955	42919.45	42029.45
931.93	2005.1805	42866.75	41975.6
932.0676	2006.7648	42707.2	41816.85
932.2052	2008.3484	42608.35	41716.4
932.3427	2009.9312	42612.25	41720.25
932.4803	2011.5133	42317.05	41428.2
932.6178	2013.0946	42289.15	41399.45
932.7553	2014.6752	42183.45	41294.6
932.8928	2016.2551	42042.5	41151.2
933.0302	2017.8342	41858.45	40967.55
933.1676	2019.4126	41707.9	40818.65
933.305	2020.9902	41544.45	40654.65
933.4424	2022.5672	41474.3	40582.85
933.5798	2024.1433	41395.1	40502.05
933.7171	2025.7188	41218.75	40330.3
933.8544	2027.2935	41141.25	40251.6
933.9917	2028.8674	40871.7	39984.3
934.129	2030.4406	40802.3	39916.55
934.2662	2032.0131	40590.1	39702.9
934.4034	2033.5849	40492.25	39596.4
934.5406	2035.1559	40433.8	39546.35
934.6778	2036.7261	40326.6	39436.4
934.8149	2038.2957	40241.5	39352.55
934.952	2039.8645	40135.45	39246.35
935.0891	2041.4325	40168.15	39275.3
935.2262	2042.9998	39945.1	39053.65
935.3632	2044.5664	39790.8	38899.15
935.5002	2046.1323	39768.15	38880.5
935.6372	2047.6974	39577.15	38687.75
935.7742	2049.2617	39429.55	38542.75
935.9111	2050.8254	39408.4	38514.9
936.048	2052.3883	39324.25	38431.9
936.1849	2053.9504	39202.8	38313.45
936.3218	2055.5118	39075.7	38184.1
936.4586	2057.0725	38875.1	37981.95
936.5955	2058.6325	38847.4	37957.6
936.7323	2060.1917	38684.4	37795.8
936.869	2061.7502	38609.3	37716.5
937.0058	2063.3079	38460.65	37573.95
937.1425	2064.8649	38266.9	37373.55
937.2792	2066.4212	38219.2	37329.05
937.4159	2067.9767	38131.1	37242.7
937.5525	2069.5315	37912.05	37023.55
937.6891	2071.0856	37731.2	36842.55
937.8257	2072.6389	37631.95	36742.25
937.9623	2074.1915	37421	36532.8
938.0989	2075.7433	37239.35	36347.2
938.2354	2077.2945	37197.8	36309.25
938.3719	2078.8448	37111.45	36223.15
938.5084	2080.3945	36954.75	36066.1
938.6448	2081.9434	36903.7	36014
938.7812	2083.4916	36767.8	35877.3
938.9176	2085.039	36580.8	35688.8
939.054	2086.5857	36525.6	35634.8
939.1903	2088.1317	36461.65	35570.55
939.3267	2089.677	36378.45	35488.15
939.463	2091.2215	36247.35	35356.65
939.5992	2092.7652	36146.7	35252.65
939.7355	2094.3083	36098.35	35205.4
939.8717	2095.8506	36036.6	35149.75
940.0079	2097.3921	35991.95	35101.8
940.1441	2098.933	35834.5	34944.55
940.2802	2100.4731	35754.85	34865.95
940.4163	2102.0124	35673	34762.8
940.5524	2103.5511	35569.2	34680.5
940.6885	2105.089	35557.8	34667.9
940.8245	2106.6261	35397.15	34507.7
940.9606	2108.1626	35261.8	34371.4
941.0965	2109.6983	35208.1	34291.05
941.2325	2111.2332	35093.15	34204
941.3684	2112.7675	34916.95	34027.1
941.5044	2114.301	34841.3	33948.45
941.6403	2115.8337	34842.55	33950.25
941.7761	2117.3657	34724.45	33834.65
941.912	2118.897	34631.1	33741
942.0478	2120.4276	34484.5	33588.55
942.1835	2121.9575	34339.25	33448.95
942.3193	2123.4866	34330.15	33425.7
942.455	2125.0149	34200.95	33307.95
942.5907	2126.5426	34012.5	33125.5
942.7264	2128.0695	33931.1	33038.4
942.8621	2129.5956	33889.6	33001.95
942.9977	2131.1211	33794.1	32901.15
943.1333	2132.6458	33711.2	32822.4
943.2689	2134.1698	33637.3	32747.3
943.4044	2135.693	33556.75	32663.25
943.54	2137.2155	33448.15	32555.75
943.6755	2138.7373	33347.95	32458
943.8109	2140.2584	33241.95	32351
943.9464	2141.7787	33131.35	32235.15
944.0818	2143.2983	33026.1	32137.05
944.2172	2144.8171	32801.25	31914.1
944.3526	2146.3353	32782.05	31891.9
944.4879	2147.8527	32557.5	31666.95
944.6232	2149.3693	32633	31742.65
944.7585	2150.8853	32462.45	31572.35
944.8938	2152.4005	32276.15	31385.6
945.029	2153.9149	32283.55	31393.6
945.1642	2155.4287	32195.7	31305.9
945.2994	2156.9417	32078.75	31187.1
945.4346	2158.454	31957.8	31063.8
945.5697	2159.9655	31903.85	31012.9
945.7048	2161.4764	31824.8	30936.55
945.8399	2162.9865	31732.95	30841.05
945.9749	2164.4958	31598.95	30707
946.1099	2166.0045	31449.2	30557.4
946.2449	2167.5124	31454.15	30566.4
946.3799	2169.0195	31345.05	30455.55
946.5148	2170.526	31318.3	30427.45
946.6498	2172.0317	31215.3	30325.15
946.7846	2173.5367	31159.65	30268.25
946.9195	2175.0409	31070.3	30179.65
947.0543	2176.5445	31003.1	30113.35
947.1891	2178.0473	30843.9	29952.6
947.3239	2179.5494	30723.8	29830.75
947.4587	2181.0507	30608.75	29718.15
947.5934	2182.5513	30530.6	29639.95
947.7281	2184.0512	30493	29601.6
947.8628	2185.5504	30366.1	29478.15
947.9974	2187.0488	30196.55	29306.4
948.132	2188.5465	30101.2	29210.95
948.2666	2190.0435	29988.15	29096.85
948.4012	2191.5397	29827.35	28937.5
948.5357	2193.0353	29782.1	28892.65
948.6702	2194.5301	29598.6	28708.65
948.8047	2196.0241	29516.9	28625.15
948.9392	2197.5175	29507.1	28617.1
949.0736	2199.0101	29342.25	28451.75
949.208	2200.502	29261.35	28372.85
949.3424	2201.9931	29092.8	28203.95
949.4767	2203.4835	28958.9	28069.5
949.611	2204.9733	28951.8	28056.35
949.7453	2206.4622	28851.55	27962.35
949.8796	2207.9505	28739.15	27846.65
950.0138	2209.438	28618.85	27730.9
950.148	2210.9248	28520.25	27628.85
950.2822	2212.4109	28460.1	27572.35
950.4164	2213.8962	28338.25	27444.85
950.5505	2215.3809	28296.2	27404.85
950.6846	2216.8648	28187.8	27297.2
950.8186	2218.3479	28061.85	27167
950.9527	2219.8304	27959.6	27067.65
951.0867	2221.3121	27863.3	26971.45
951.2207	2222.7931	27762.8	26872.6
951.3546	2224.2733	27658.45	26768.15
951.4886	2225.7529	27584.25	26693.5
951.6225	2227.2317	27489.35	26597.05
951.7563	2228.7098	27435.25	26545.5
951.8902	2230.1872	27289.5	26400.4
952.024	2231.6638	27251.15	26360.05
952.1578	2233.1397	27165.15	26270.35
952.2916	2234.6149	27055.35	26165.85
952.4253	2236.0894	26929.7	26039.9
952.559	2237.5632	26893.35	26001.7
952.6927	2239.0362	26791.45	25903
952.8263	2240.5085	26727.55	25838.1
952.9599	2241.9801	26613.75	25724.25
953.0935	2243.4509	26502.45	25614.6
953.2271	2244.921	26362.6	25473.2
953.3606	2246.3904	26286.95	25395.9
953.4941	2247.8591	26205.05	25316.1
953.6276	2249.3271	26163.5	25275.3
953.7611	2250.7943	26050.6	25161.2
953.8945	2252.2608	25938.6	25047.7
954.0279	2253.7266	25904.85	25015.7
954.1612	2255.1917	25837.8	24947.05
954.2946	2256.656	25718.3	24827.7
954.4279	2258.1197	25695.05	24806.35
954.5612	2259.5826	25608.8	24720
954.6944	2261.0447	25559.9	24668.95
954.8276	2262.5062	25355.35	24463.5
954.9608	2263.9669	25359.4	24468.9
955.094	2265.4269	25299.25	24411.4
955.2271	2266.8862	25209.65	24318.45
955.3602	2268.3448	25142.6	24254.2
955.4933	2269.8026	25109.35	24219.7
955.6264	2271.2598	24982.3	24092.1
955.7594	2272.7162	24905.8	24016.55
955.8924	2274.1719	24861.25	23969.7
956.0253	2275.6268	24790.8	23901.45
956.1583	2277.0811	24691.25	23800.3
956.2912	2278.5346	24654.9	23766.1
956.4241	2279.9874	24561.9	23672.55
956.5569	2281.4395	24527.6	23637.95
956.6897	2282.8908	24429.15	23535
956.8225	2284.3414	24370.35	23478.55
956.9553	2285.7914	24295.15	23407.05
957.088	2287.2406	24183.35	23292.85
957.2207	2288.689	24139.35	23248.35
957.3534	2290.1368	24096.25	23205.4
957.486	2291.5838	23965.2	23070.8
957.6186	2293.0302	23937.5	23045.1
957.7512	2294.4758	23749.05	22861.5
957.8838	2295.9206	23680.75	22789.35
958.0163	2297.3648	23617.2	22728.25
958.1488	2298.8082	23621.1	22732.3
958.2813	2300.251	23537.35	22647.3
958.4137	2301.693	23456.35	22562.8
958.5461	2303.1343	23415	22523.8
958.6785	2304.5748	23327.1	22437.95
958.8108	2306.0147	23229.65	22338.55
958.9432	2307.4538	23140.5	22248.4
959.0754	2308.8922	23088.45	22201.8
959.2077	2310.3299	22994.5	22107.05
959.3399	2311.7669	22897.6	22007.05
959.4721	2313.2031	22839.9	21949.35
959.6043	2314.6387	22778.8	21888.65
959.7365	2316.0735	22635.2	21744.1
959.8686	2317.5076	22644	21751.95
960.0006	2318.941	22603.85	21714.25
960.1327	2320.3737	22492.7	21603.35
960.2647	2321.8056	22414.65	21522.7
960.3967	2323.2369	22352.8	21464.45
960.5287	2324.6674	22308.45	21415.75
960.6606	2326.0972	22177.75	21286.45
960.7925	2327.5263	22135.45	21245.3
960.9244	2328.9547	22063.35	21173.05
961.0562	2330.3823	21996.05	21105.1
961.1881	2331.8092	21963.7	21069.55
961.3198	2333.2355	21846.95	20956.05
961.4516	2334.661	21855.7	20965.8
961.5833	2336.0858	21771.85	20879.3
961.715	2337.5098	21756.05	20864.8
961.8467	2338.9332	21655.45	20765.95
961.9783	2340.3558	21555.7	20662.55
962.1099	2341.7778	21487.45	20596.55
962.2415	2343.199	21431.35	20540.25
962.373	2344.6195	21375.2	20484.4
962.5045	2346.0393	21305.35	20415.5
962.636	2347.4583	21240.75	20350.55
962.7675	2348.8767	21142.3	20251.75
962.8989	2350.2943	21126.35	20237.1
963.0303	2351.7113	21102.85	20212.5
963.1617	2353.1275	21001.85	20111.8
963.293	2354.543	20931.05	20032.25
963.4243	2355.9578	20846.25	19954.1
963.5556	2357.3718	20716.75	19826.6
963.6868	2358.7852	20631.2	19738.2
963.818	2360.1978	20580.75	19690.3
963.9492	2361.6098	20518.35	19628.2
964.0803	2363.021	20475.45	19583
964.2114	2364.4315	20388.1	19498.95
964.3425	2365.8413	20325.75	19435.6
964.4736	2367.2504	20232.45	19344.75
964.6046	2368.6587	20167.65	19277.85
964.7356	2370.0664	20086.9	19197
964.8666	2371.4733	20017.45	19127.15
964.9975	2372.8795	19936.05	19045.9
965.1284	2374.285	19864.25	18975.1
965.2593	2375.6899	19760	18872.3
965.3901	2377.0939	19675.1	18785.35
965.5209	2378.4973	19586.95	18699.05
965.6517	2379.9	19553.05	18661.5
965.7825	2381.3019	19478.25	18590.55
965.9132	2382.7032	19408.35	18519.55
966.0439	2384.1037	19397.45	18511.15
966.1745	2385.5035	19321.35	18432.05
966.3051	2386.9027	19227.55	18337.95
966.4357	2388.3011	19212.85	18320.05
966.5663	2389.6987	19127.7	18237.85
966.6968	2391.0957	19049.75	18161.2
966.8273	2392.492	18950.55	18061.7
966.9578	2393.8876	18844	17954.15
967.0882	2395.2824	18780.35	17889.3
967.2186	2396.6765	18663.55	17776
967.349	2398.07	18579.7	17691.2
967.4793	2399.4627	18601.35	17711.05
967.6097	2400.8547	18554.4	17664.8
967.7399	2402.246	18487.6	17593.5
967.8702	2403.6366	18344.45	17453.6
968.0004	2405.0265	18270.05	17381.05
968.1306	2406.4156	18223.25	17332.05
968.2607	2407.8041	18156.3	17263.8
968.3909	2409.1918	18060.25	17169.3
968.521	2410.5789	17990.25	17100.45
968.651	2411.9652	17908.75	17015.8
968.781	2413.3508	17864.15	16973.7
968.911	2414.7358	17789	16898.7
969.041	2416.12	17741.1	16851.15
969.1709	2417.5035	17697.8	16808.95
969.3008	2418.8863	17619.85	16729.8
969.4307	2420.2684	17595.35	16706.1
969.5606	2421.6497	17485.5	16596.9
969.6904	2423.0304	17369.85	16480.9
969.8201	2424.4104	17345.85	16456.35
969.9499	2425.7896	17279.9	16389.15
970.0796	2427.1682	17267.6	16378.35
970.2093	2428.546	17204.85	16314.95
970.3389	2429.9232	17139.85	16248.15
970.4685	2431.2996	17122.2	16232.15
970.5981	2432.6753	17071.15	16181.8
970.7277	2434.0503	16998	16109.25
970.8572	2435.4246	16883.65	15995.4
970.9867	2436.7982	16850.3	15959.5
971.1161	2438.1711	16811.1	15922.3
971.2456	2439.5433	16760.35	15868.8
971.375	2440.9148	16680.65	15784.8
971.5043	2442.2856	16585.25	15694.8
971.6336	2443.6557	16599.15	15708.2
971.7629	2445.025	16523.3	15632.75
971.8922	2446.3937	16489.95	15601.5
972.0214	2447.7617	16391.05	15501.1
972.1506	2449.1289	16391.3	15502.15
972.2798	2450.4955	16302.35	15410.7
972.4089	2451.8613	16266.45	15379.4
972.538	2453.2265	16222.4	15333.45
972.6671	2454.5909	16182.95	15292.1
972.7961	2455.9546	16152.9	15263.45
972.9251	2457.3177	16060	15171.35
973.0541	2458.68	16020.65	15129.75
973.1831	2460.0416	16037.55	15148.35
973.312	2461.4025	15958.5	15068.3
973.4408	2462.7627	15909.45	15008.25
973.5697	2464.1222	15857.65	14968.95
973.6985	2465.4811	15790.1	14900.7
973.8273	2466.8392	15705.05	14816.6
973.956	2468.1966	15706	14813.5
974.0847	2469.5533	15674.6	14783.15
974.2134	2470.9093	15636.9	14746.35
974.3421	2472.2645	15562.25	14670.35
974.4707	2473.6191	15524.25	14635.9
974.5993	2474.973	15413.8	14525.55
974.7278	2476.3262	15405.6	14514.9
974.8563	2477.6787	15311.35	14422.4
974.9848	2479.0305	15243.15	14354.2
975.1132	2480.3816	15188.5	14297.25
975.2417	2481.7319	15138	14248.4
975.37	2483.0816	15070.25	14178.9
975.4984	2484.4306	15023.3	14133.8
975.6267	2485.7789	14968.15	14079.85
975.755	2487.1264	14935.25	14046.1
975.8833	2488.4733	14850.3	13962.25
976.0115	2489.8195	14762.3	13866.8
976.1397	2491.165	14712.65	13820.35
976.2678	2492.5097	14689.05	13798.9
976.3959	2493.8538	14622.45	13733.85
976.524	2495.1972	14563.45	13675.05
976.6521	2496.5398	14488.75	13598.55
976.7801	2497.8818	14469.05	13575.3
976.9081	2499.2231	14427.35	13538.8
977.036	2500.5637	14353.6	13462.95
977.164	2501.9035	14335.3	13445.55
977.2918	2503.2427	14272.5	13378.05
977.4197	2504.5812	14211.45	13321.35
977.5475	2505.919	14175	13284.6
977.6753	2507.256	14179.2	13289.45
977.8031	2508.5924	14069.05	13181.2
977.9308	2509.9281	14010.2	13115.35
978.0585	2511.2631	13984.8	13093.5
978.1861	2512.5974	13997.1	13107.15
978.3137	2513.9309	13886.65	12996.85
978.4413	2515.2638	13820.45	12905.4
978.5689	2516.596	13825.15	12937.8
978.6964	2517.9275	13754	12863.6
978.8239	2519.2583	13671.6	12780
978.9513	2520.5884	13623.5	12733.7
979.0788	2521.9178	13577.85	12688.45
979.2062	2523.2465	13548.15	12659.75
979.3335	2524.5745	13467.7	12578.35
979.4608	2525.9018	13456.3	12567.5
979.5881	2527.2284	13390.45	12501.55
979.7154	2528.5543	13371.5	12481.55
979.8426	2529.8796	13301.85	12412.8
979.9698	2531.2041	13293.6	12406.2
980.0969	2532.5279	13236.85	12348.45
980.224	2533.851	13243.8	12353.9
980.3511	2535.1735	13179.95	12291.45
980.4781	2536.4952	13156.75	12267.75
980.6052	2537.8163	13130.55	12239.85
980.7321	2539.1366	13071.65	12183.05
980.8591	2540.4562	12991.1	12100.6
980.986	2541.7752	13033.5	12145.2
981.1129	2543.0935	12975.55	12085.95
981.2397	2544.411	12934.7	12044.4
981.3665	2545.7279	12874.65	11986.85
981.4933	2547.0441	12884.6	11996.15
981.62	2548.3596	12858.65	11966.3
981.7467	2549.6744	12856.05	11965.75
981.8734	2550.9885	12807.35	11910.35
982.0001	2552.3019	12739.95	11851.55
982.1267	2553.6146	12708.55	11818.85
982.2532	2554.9266	12664.1	11773.5
982.3798	2556.2379	12621.7	11730.35
982.5063	2557.5485	12598.7	11709.65
982.6327	2558.8585	12560.85	11662.8
982.7592	2560.1677	12533.55	11639.4
982.8856	2561.4762	12522.85	11633.5
983.0119	2562.7841	12511.4	11618.9
983.1383	2564.0913	12450.1	11561.85
983.2646	2565.3977	12440.15	11552.2
983.3908	2566.7035	12372.75	11484.2
983.517	2568.0086	12344.15	11454.05
983.6432	2569.313	12340.9	11453.45
983.7694	2570.6167	12296.05	11403
983.8955	2571.9197	12268.15	11378.15
984.0216	2573.222	12232.4	11339.2
984.1476	2574.5236	12208.8	11318.7
984.2737	2575.8246	12159.6	11267.1
984.3996	2577.1248	12151.2	11260.75
984.5256	2578.4244	12138.2	11250.6
984.6515	2579.7232	12127.85	11237.35
984.7774	2581.0214	12119.95	11204.2
984.9032	2582.3189	12040.1	11151.45
985.029	2583.6157	12025.55	11131.4
985.1548	2584.9118	11976.85	11086.55
985.2806	2586.2072	11932.25	11044.75
985.4063	2587.5019	11921.1	11032.25
985.5319	2588.7959	11879.45	10990.85
985.6576	2590.0893	11869.4	10977.2
985.7832	2591.3819	11824	10934.85
985.9087	2592.6739	11751.8	10862.95
986.0343	2593.9652	11714.45	10822.6
986.1597	2595.2557	11687.4	10798.65
986.2852	2596.5456	11636.75	10744.7
986.4106	2597.8348	11596.25	10708.35
986.536	2599.1234	11537.85	10649.35
986.6614	2600.4112	11527.7	10641.45
986.7867	2601.6983	11502.55	10609.85
986.912	2602.9848	11431	10542.05
987.0372	2604.2705	11396.1	10500.55
987.1624	2605.5556	11374.8	10484.3
987.2876	2606.84	11327	10437.9
987.4128	2608.1237	11274	10384.7
987.5379	2609.4067	11232.45	10342.5
987.6629	2610.689	11191.55	10293.5
987.788	2611.9707	11165	10270.7
987.913	2613.2516	11124.65	10231.05
988.0379	2614.5319	11054.8	10165.85
988.1629	2615.8115	11008.1	10118.25
988.2878	2617.0903	10993.75	10103.15
988.4126	2618.3685	10910.2	10020.65
988.5375	2619.6461	10880.25	9990.75
988.6622	2620.9229	10864.95	9976.3
988.787	2622.199	10830.95	9940
988.9117	2623.4745	10804.2	9914.75
989.0364	2624.7493	10762	9873.75
989.161	2626.0234	10722.85	9835.2
989.2857	2627.2968	10675.3	9786.3
989.4102	2628.5695	10616.25	9724.7
989.5348	2629.8415	10572.75	9684.5
989.6593	2631.1128	10537.75	9647.05
989.7837	2632.3835	10496.65	9608.35
989.9082	2633.6535	10452.55	9564.45
990.0326	2634.9228	10427.7	9538.8
990.1569	2636.1914	10380.4	9493.15
990.2812	2637.4593	10362.45	9467.15
990.4055	2638.7265	10318.95	9428.8
990.5298	2639.9931	10296.95	9406.9
990.654	2641.259	10262.65	9373.05
990.7782	2642.5242	10246.05	9357.55
990.9023	2643.7887	10191.9	9302.05
991.0264	2645.0525	10172.3	9283.7
991.1505	2646.3156	10112.6	9221.1
991.2745	2647.5781	10081.65	9193
991.3985	2648.8398	10049.6	9161
991.5225	2650.1009	10034.85	9110.25
991.6464	2651.3613	10005.25	9117.8
991.7703	2652.6211	9957.3	9068.3
991.8942	2653.8801	9909.4	9020.25
992.018	2655.1385	9895.7	9004.2
992.1418	2656.3961	9884.25	8995.2
992.2655	2657.6531	9864.55	8976.45
992.3892	2658.9094	9846.3	8956.75
992.5129	2660.1651	9806.1	8918.9
992.6366	2661.42	9762.2	8872.6
992.7602	2662.6743	9775.9	8886.15
992.8837	2663.9279	9729.1	8842.35
993.0073	2665.1808	9700.5	8811.2
993.1307	2666.433	9677.1	8787.9
993.2542	2667.6846	9627.8	8737.8
993.3776	2668.9354	9607.25	8712.55
993.501	2670.1856	9586.25	8697
993.6244	2671.4351	9569.5	8681.25
993.7477	2672.6839	9555.45	8665.65
993.8709	2673.9321	9476.8	8590.1
993.9942	2675.1795	9488.15	8601.65
994.1174	2676.4263	9419	8529.9
994.2405	2677.6724	9427.15	8539.15
994.3637	2678.9179	9393.3	8502.7
994.4868	2680.1626	9344.95	8455.35
994.6098	2681.4067	9344.9	8454.3
994.7328	2682.6501	9309.1	8421.15
994.8558	2683.8928	9250.8	8361.75
994.9788	2685.1348	9212	8324.4
995.1017	2686.3761	9172.3	8284.8
995.2245	2687.6168	9164.05	8275.85
995.3474	2688.8568	9136.1	8246.35
995.4702	2690.0961	9076.15	8188.3
995.5929	2691.3348	9086.45	8197.95
995.7156	2692.5727	9027.6	8138.3
995.8383	2693.81	9003.4	8112.6
995.961	2695.0466	8984.25	8095.95
996.0836	2696.2826	8961.8	8074.2
996.2062	2697.5178	8954.15	8063.6
996.3287	2698.7524	8911.2	8024.5
996.4512	2699.9863	8878.1	7986.7
996.5737	2701.2195	8844.85	7955.5
996.6961	2702.452	8824.6	7934.35
996.8185	2703.6839	8791.15	7900.4
996.9408	2704.9151	8752.55	7864.95
997.0631	2706.1456	8744.85	7855.05
997.1854	2707.3755	8712	7823.1
997.3077	2708.6046	8692.95	7802.1
997.4299	2709.8331	8667.6	7778.85
997.552	2711.0609	8610.4	7722.05
997.6742	2712.2881	8596.95	7708.9
997.7963	2713.5145	8576	7684.2
997.9183	2714.7403	8561.1	7672.85
998.0403	2715.9654	8523.25	7633.2
998.1623	2717.1899	8500.65	7597.8
998.2842	2718.4136	8458.55	7568.8
998.4062	2719.6367	8479.5	7589.85
998.528	2720.8591	8473.15	7578.3
998.6498	2722.0809	8425.5	7536.45
998.7716	2723.3019	8404.9	7513.05
998.8934	2724.5223	8375.35	7485
999.0151	2725.7421	8354.75	7464.35
999.1368	2726.9611	8315.35	7422.8
999.2584	2728.1795	8308.9	7416.5
999.38	2729.3972	8273	7384.4
999.5016	2730.6142	8213.5	7319.05
999.6231	2731.8306	8192.05	7302.4
999.7446	2733.0462	8138.15	7246.7
999.8661	2734.2612	8103.6	7209.85
999.9875	2735.4756	8051.75	7162.45
1000.1089	2736.6892	7999.65	7110.25
1000.2302	2737.9022	7961.05	7073
1000.3515	2739.1145	7925.5	7036.1
1000.4728	2740.3262	7882.35	6987.3
1000.594	2741.5372	7857.4	6968.85
1000.7152	2742.7475	7811	6922.05
1000.8363	2743.9571	7803.9	6911.95
1000.9575	2745.1661	7767.75	6876
1001.0785	2746.3744	7726.7	6836.8
1001.1996	2747.582	7717.15	6831
1001.3206	2748.7889	7678.05	6787.95
1001.4415	2749.9952	7669.2	6779.05
1001.5625	2751.2008	7608.65	6718.45
1001.6833	2752.4057	7580.4	6689.1
1001.8042	2753.61	7538.45	6646.05
1001.925	2754.8136	7540.55	6651.4
1002.0458	2756.0165	7509.1	6621.3
1002.1665	2757.2188	7453.75	6566.55
1002.2872	2758.4204	7443.45	6556.8
1002.4078	2759.6213	7425.3	6535.2
1002.5285	2760.8215	7396.9	6504.15
1002.649	2762.0211	7396.2	6504.55
1002.7696	2763.22	7347.4	6454.8
1002.8901	2764.4182	7324.85	6434.6
1003.0106	2765.6158	7305.3	6418.2
1003.131	2766.8127	7265.35	6376.15
1003.2514	2768.009	7243.55	6356.3
1003.3717	2769.2045	7212	6323.2
1003.492	2770.3994	7212.35	6321
1003.6123	2771.5936	7170.5	6280.1
1003.7325	2772.7872	7143.95	6256.15
1003.8527	2773.9801	7092.85	6203.15
1003.9729	2775.1723	7105.9	6201.6
1004.093	2776.3639	7072.3	6185
1004.2131	2777.5548	7050.6	6159.95
1004.3331	2778.745	7016.9	6125.8
1004.4531	2779.9346	7015.25	6126.8
1004.5731	2781.1235	6987.15	6096.8
1004.693	2782.3117	6978.75	6092
1004.8129	2783.4992	6954.6	6066.6
1004.9328	2784.6861	6920.25	6030.85
1005.0526	2785.8723	6918.65	6028.9
1005.1723	2787.0579	6907.75	6018.2
1005.2921	2788.2428	6865.8	5979.6
1005.4118	2789.427	6829.95	5942.05
1005.5314	2790.6106	6837.55	5948
1005.651	2791.7935	6828.65	5938.3
1005.7706	2792.9757	6787	5895.35
1005.8902	2794.1573	6756.9	5865.8
1006.0097	2795.3382	6753.85	5863.9
1006.1291	2796.5184	6726.4	5839.85
1006.2485	2797.698	6737.45	5847.05
1006.3679	2798.8769	6752.6	5864.3
1006.4873	2800.0551	6729.6	5842.55
1006.6066	2801.2327	6707.15	5816.65
1006.7258	2802.4096	6664.7	5776.4
1006.8451	2803.5859	6683.85	5794.25
1006.9642	2804.7615	6661.2	5772.35
1007.0834	2805.9364	6678.3	5791.4
1007.2025	2807.1106	6673.35	5784.65
1007.3216	2808.2842	6665.2	5775.1
1007.4406	2809.4572	6675.5	5786.6
1007.5596	2810.6294	6698.9	5810.15
1007.6785	2811.801	6719.25	5833.35
1007.7975	2812.972	6730.55	5842.45
1007.9163	2814.1423	6740.1	5849.9
1008.0352	2815.3119	6739.25	5851.1
1008.154	2816.4808	6788.15	5900.8
1008.2727	2817.6491	6818.7	5929.35
1008.3914	2818.8167	6845.95	5957.8
1008.5101	2819.9837	6867.7	5974.25
1008.6288	2821.15	6892.2	6003.65
1008.7474	2822.3157	6903.5	6017.05
1008.8659	2823.4807	6949.4	6060.35
1008.9844	2824.645	6984.85	6095.65
1009.1029	2825.8086	7009.9	6123.35
1009.2214	2826.9716	7037.05	6148.15
1009.3398	2828.134	7068.3	6180.45
1009.4581	2829.2957	7090.75	6202.4
1009.5764	2830.4567	7094.3	6205.6
1009.6947	2831.617	7078.25	6191.15
1009.813	2832.7767	7090.95	6203.65
1009.9312	2833.9358	7073.9	6188.9
1010.0493	2835.0941	7068.9	6178.4
1010.1675	2836.2519	7038.25	6150.25
1010.2855	2837.4089	7017.9	6127.15
1010.4036	2838.5653	6981.25	6092.3
1010.5216	2839.7211	6958.45	6070.05
1010.6396	2840.8761	6957.45	6066.75
1010.7575	2842.0306	6970.8	6082.95
1010.8754	2843.1843	6976.95	6089
1010.9932	2844.3374	6997.3	6109.35
1011.111	2845.4899	7038.2	6150.7
1011.2288	2846.6417	7090.4	6199.4
1011.3465	2847.7928	7135.05	6246.45
1011.4642	2848.9433	7173.8	6284.35
1011.5818	2850.0931	7213.25	6323.4
1011.6995	2851.2422	7298.05	6409.45
1011.817	2852.3907	7329.9	6440.75
1011.9345	2853.5385	7381.5	6489.95
1012.052	2854.6857	7398.1	6498.3
1012.1695	2855.8323	7413	6524.3
1012.2869	2856.9781	7434.1	6547
1012.4042	2858.1233	7467.6	6578.8
1012.5216	2859.2679	7501.55	6613.65
1012.6389	2860.4118	7514.65	6625.5
1012.7561	2861.555	7527.45	6634.6
1012.8733	2862.6976	7565.85	6675.1
1012.9905	2863.8395	7578	6691.15
1013.1076	2864.9808	7586.45	6699
1013.2247	2866.1214	7581.45	6694.4
1013.3417	2867.2614	7588.5	6699.8
1013.4587	2868.4007	7592.1	6703.85
1013.5757	2869.5393	7565.75	6675.3
1013.6926	2870.6773	7573.85	6682
1013.8095	2871.8146	7550.8	6659.3
1013.9263	2872.9513	7530.6	6639.3
1014.0431	2874.0874	7479.4	6591.15
1014.1599	2875.2227	7477.7	6589.2
1014.2766	2876.3574	7443.8	6555
1014.3933	2877.4915	7388.2	6500.95
1014.51	2878.6249	7338.25	6449.55
1014.6266	2879.7577	7320.9	6432.25
1014.7431	2880.8898	7276.2	6376.15
1014.8596	2882.0212	7243.25	6352.9
1014.9761	2883.152	7198	6308.4
1015.0925	2884.2821	7168.4	6280.2
1015.2089	2885.4116	7163.55	6277.2
1015.3253	2886.5405	7142.1	6255.1
1015.4416	2887.6686	7158.95	6267.15
1015.5579	2888.7962	7137.1	6251
1015.6741	2889.923	7090.65	6203.65
1015.7903	2891.0493	7093.65	6205.75
1015.9065	2892.1748	7074.95	6187.5
1016.0226	2893.2997	7062.8	6175.05
1016.1387	2894.424	7073.3	6187.55
1016.2547	2895.5476	7048.6	6161.6
1016.3707	2896.6706	7066.55	6178.75
1016.4866	2897.7929	7066.65	6179.7
1016.6025	2898.9145	7065	6176.4
1016.7184	2900.0355	7086.55	6197.6
1016.8342	2901.1559	7088.7	6198.05
1016.95	2902.2756	7113.15	6222.95
1017.0658	2903.3946	7121.55	6234.7
1017.1815	2904.513	7122.15	6230.65
1017.2971	2905.6308	7134.15	6246.95
1017.4127	2906.7479	7124.45	6236.5
1017.5283	2907.8643	7145.85	6256.8
1017.6439	2908.9801	7143.7	6255.35
1017.7594	2910.0953	7119.95	6233.05
1017.8748	2911.2098	7103.15	6210.8
1017.9902	2912.3236	7100.55	6205.5
1018.1056	2913.4368	7077.3	6186
1018.2209	2914.5494	7023.2	6135.7
1018.3362	2915.6613	6976.1	6082.6
1018.4515	2916.7725	6945.1	6054.45
1018.5667	2917.8831	6930	6038.9
1018.6819	2918.9931	6865.85	5974.25
1018.797	2920.1024	6833.4	5944.3
1018.9121	2921.211	6814.05	5925.9
1019.0271	2922.319	6777.95	5888.55
1019.1421	2923.4264	6741.55	5855.15
1019.2571	2924.5331	6716.9	5832.75
1019.372	2925.6391	6678.7	5790
1019.4869	2926.7445	6685.25	5798.6
1019.6017	2927.8493	6638.15	5748.55
1019.7165	2928.9534	6630.4	5742.65
1019.8313	2930.0569	6623.7	5734.5
1019.946	2931.1597	6608.3	5718.2
1020.0606	2932.2619	6588	5700.7
1020.1753	2933.3634	6566.55	5677.65
1020.2899	2934.4643	6576.6	5683.1
1020.4044	2935.5645	6545.1	5651.1
1020.5189	2936.6641	6475.25	5582.2
1020.6334	2937.763	6437.7	5549.65
1020.7478	2938.8613	6388.7	5500.2
1020.8622	2939.959	6320.55	5427.95
1020.9765	2941.056	6221.4	5333.3
1021.0908	2942.1523	6161.15	5272.45
1021.2051	2943.248	6082.55	5194.55
1021.3193	2944.3431	5973.15	5086.35
1021.4334	2945.4375	5869.2	4980.7
1021.5476	2946.5313	5737.25	4851.25
1021.6617	2947.6244	5637.6	4748.95
1021.7757	2948.7169	5547.25	4658.15
1021.8897	2949.8087	5452.8	4565.1
1022.0037	2950.8999	5335.05	4445.1
1022.1176	2951.9904	5263.95	4374
1022.2315	2953.0803	5178.75	4289.9
1022.3453	2954.1696	5114.5	4229.25
1022.4591	2955.2582	5053.95	4166.4
1022.5728	2956.3462	4984.25	4096.75
1022.6865	2957.4335	4928.05	4039.7
1022.8002	2958.5202	4883.8	3993.8
1022.9138	2959.6062	4854.5	3966.65
1023.0274	2960.6916	4812.95	3925.45
1023.141	2961.7764	4781.7	3891.9
1023.2545	2962.8605	4745.3	3855.3
1023.3679	2963.9439	4734.9	3846.2
1023.4813	2965.0267	4697.45	3808.25
1023.5947	2966.1089	4700.2	3790
1023.708	2967.1905	4654.75	3767.4
1023.8213	2968.2714	4661.35	3776.2
1023.9346	2969.3516	4619.65	3732.6
1024.0478	2970.4312	4632.5	3736.85
1024.1609	2971.5102	4603.6	3714.85
1024.274	2972.5885	4581.75	3695.95
1024.3871	2973.6662	4589.15	3697.25
1024.5002	2974.7432	4572.25	3684.8
1024.6132	2975.8196	4555.15	3666.5
1024.7261	2976.8954	4526.65	3640
1024.839	2977.9705	4519.2	3632.4
1024.9519	2979.045	4489.15	3603.2
1025.0647	2980.1188	4455.35	3565.85
1025.1775	2981.192	4426.95	3540.45
1025.2902	2982.2645	4412.55	3524.2
1025.4029	2983.3364	4371.15	3483.75
1025.5156	2984.4077	4328.75	3440.5
1025.6282	2985.4783	4306.15	3413.05
1025.7407	2986.5483	4269.4	3383.4
1025.8532	2987.6177	4227.85	3341.25
1025.9657	2988.6864	4180	3293.5
1026.0782	2989.7545	4146.05	3257.5
1026.1906	2990.8219	4099.25	3212.95
1026.3029	2991.8887	4055.45	3166.4
1026.4152	2992.9548	4025.65	3138.05
1026.5275	2994.0204	3980.05	3090.9
1026.6397	2995.0852	3940.1	3054.15
1026.7519	2996.1495	3906	3015.75
1026.864	2997.2131	3876.7	2990.8
1026.9761	2998.276	3860.55	2972.1
1027.0882	2999.3383	3824.25	2935.15
1027.2002	3000.4	3791.3	2903.2
1027.3122	3001.4611	3756.1	2868.9
1027.4241	3002.5215	3741.75	2855.65
1027.536	3003.5812	3729.6	2842.35
1027.6478	3004.6404	3704.7	2815.65
1027.7596	3005.6989	3682.2	2792.3
1027.8714	3006.7567	3660.3	2773.55
1027.9831	3007.8139	3662	2752.1
1028.0947	3008.8705	3630.5	2742.45
1028.2064	3009.9264	3618.25	2727.3
1028.3179	3010.9818	3592.1	2704.8
1028.4295	3012.0364	3594.3	2705.7
1028.541	3013.0905	3572.35	2684.35
1028.6524	3014.1439	3557.05	2671
1028.7638	3015.1966	3547.5	2659
1028.8752	3016.2487	3531.65	2644.35
1028.9865	3017.3002	3539.1	2647.9
1029.0978	3018.3511	3521.05	2634.55
1029.209	3019.4013	3510.05	2623.5
1029.3202	3020.4509	3496.05	2609.95
1029.4314	3021.4998	3496.45	2607.35
1029.5425	3022.5481	3481	2594.55
1029.6535	3023.5958	3468	2581.8
1029.7645	3024.6428	3455.85	2565.65
1029.8755	3025.6892	3449	2560.85
1029.9864	3026.735	3442.1	2554.7
1030.0973	3027.7802	3433	2543.8
1030.2082	3028.8247	3418.35	2531.25
1030.319	3029.8685	3412.8	2524.6
1030.4297	3030.9118	3409.25	2520.45
1030.5404	3031.9544	3399.35	2511.5
1030.6511	3032.9963	3382.5	2493.55
1030.7617	3034.0376	3380.9	2494.4
1030.8723	3035.0783	3372.9	2482.45
1030.9829	3036.1184	3374	2485
1031.0934	3037.1578	3355.6	2469.5
1031.2038	3038.1966	3356.4	2468.2
1031.3142	3039.2348	3347.7	2461.9
1031.4246	3040.2723	3355.7	2458.25
1031.5349	3041.3092	3332.2	2444.05
1031.6452	3042.3455	3309.65	2422.45
1031.7554	3043.3811	3305.6	2418.3
1031.8656	3044.4161	3297.25	2408.55
1031.9758	3045.4505	3286.3	2398.6
1032.0859	3046.4842	3268.6	2380.05
1032.1959	3047.5173	3266.2	2380.15
1032.3059	3048.5498	3254.95	2367.4
1032.4159	3049.5816	3240.6	2353.4
1032.5258	3050.6128	3226.5	2339.5
1032.6357	3051.6434	3197.05	2306.45
1032.7455	3052.6734	3200.45	2311.4
1032.8553	3053.7027	3186.15	2298.4
1032.9651	3054.7314	3160.8	2274
1033.0748	3055.7594	3160.3	2273.4
1033.1845	3056.7868	3153.3	2265.65
1033.2941	3057.8136	3136.4	2249.9
1033.4037	3058.8398	3114.25	2226.5
1033.5132	3059.8653	3113.65	2226.6
1033.6227	3060.8902	3095.4	2208
1033.7321	3061.9145	3087	2200.15
1033.8415	3062.9381	3078.1	2190.95
1033.9509	3063.9612	3073.9	2168.8
1034.0602	3064.9835	3054.1	2164.3
1034.1694	3066.0053	3030.7	2140.55
1034.2787	3067.0264	3032.9	2146
1034.3878	3068.0469	3021.65	2135.15
1034.497	3069.0668	3003.55	2112.7
1034.6061	3070.086	2994.8	2108.35
1034.7151	3071.1046	2984.85	2096.5
1034.8241	3072.1226	2965.65	2077.55
1034.9331	3073.1399	2957.25	2072.2
1035.042	3074.1567	2933.8	2045.65
1035.1508	3075.1727	2921.45	2031.55
1035.2597	3076.1882	2899.25	2012.2
1035.3684	3077.203	2879.35	1991.5
1035.4772	3078.2173	2870.45	1982.5
1035.5859	3079.2308	2861.85	1970.25
1035.6945	3080.2438	2841.6	1953.3
1035.8031	3081.2561	2819.35	1931.15
1035.9117	3082.2678	2823.15	1935.85
1036.0202	3083.2789	2801.8	1916.1
1036.1286	3084.2893	2795.05	1908.6
1036.2371	3085.2991	2783.15	1895.1
1036.3454	3086.3083	2780.1	1889.4
1036.4538	3087.3169	2767.1	1877.85
1036.562	3088.3248	2742.2	1852.15
1036.6703	3089.3321	2750.1	1861.1
1036.7785	3090.3388	2722.3	1836.8
1036.8866	3091.3449	2707.7	1819.5
1036.9948	3092.3503	2704.1	1815.65
1037.1028	3093.3551	2701.35	1817.5
1037.2108	3094.3593	2681.65	1794.2
1037.3188	3095.3629	2670.4	1783.25
1037.4267	3096.3658	2657.65	1767.85
1037.5346	3097.3681	2649.55	1763.15
1037.6425	3098.3698	2650.4	1761.95
1037.7503	3099.3708	2635.7	1744
1037.858	3100.3713	2615.3	1727.55
1037.9657	3101.3711	2611.85	1725
1038.0734	3102.3702	2706.85	1681.05
1038.181	3103.3688	2600.8	1710.45
1038.2886	3104.3667	2582.6	1695.8
1038.3961	3105.364	2568.85	1681.55
1038.5036	3106.3607	2556.9	1667.75
1038.611	3107.3568	2541.3	1651.45
1038.7184	3108.3522	2520.45	1632.2
1038.8257	3109.347	2521.85	1633.2
1038.933	3110.3412	2522.65	1632.2
1039.0403	3111.3348	2519.1	1631.75
1039.1475	3112.3277	2496.85	1610.2
1039.2547	3113.32	2482.25	1598.55
1039.3618	3114.3117	2469.85	1583.7
1039.4689	3115.3028	2475.15	1587.75
1039.5759	3116.2932	2461.15	1573
1039.6829	3117.2831	2456.1	1563.05
1039.7898	3118.2723	2447.65	1560.1
1039.8967	3119.2608	2430.9	1544.1
1040.0035	3120.2488	2422.4	1534.1
1040.1103	3121.2361	2412.1	1525
1040.2171	3122.2229	2400.4	1513.45
1040.3238	3123.209	2400.35	1513.05
1040.4305	3124.1944	2387.45	1502.95
1040.5371	3125.1793	2379.35	1492.65
1040.6437	3126.1635	2374.75	1487.85
1040.7502	3127.1471	2364	1476.6
1040.8567	3128.1301	2362.5	1475.25
1040.9631	3129.1125	2343.6	1457.5
1041.0695	3130.0942	2338.8	1452.3
1041.1759	3131.0753	2356.1	1460.9
1041.2822	3132.0558	2333.2	1441.6
1041.3884	3133.0357	2323.9	1435.3
1041.4946	3134.015	2313.3	1425
1041.6008	3134.9936	2312	1423.75
1041.7069	3135.9716	2329.7	1421.4
1041.813	3136.949	2295.85	1406.85
1041.919	3137.9258	2305.15	1411.75
1042.025	3138.902	2293.35	1401.35
1042.1309	3139.8775	2284	1397.35
1042.2368	3140.8524	2283.95	1396.5
1042.3427	3141.8267	2267.9	1378.25
1042.4485	3142.8004	2270.7	1381.2
1042.5542	3143.7735	2258.05	1364.8
1042.6599	3144.7459	2252.6	1363.6
1042.7656	3145.7178	2262.05	1373.35
1042.8712	3146.689	2238.55	1352.15
1042.9768	3147.6596	2235.35	1345
1043.0823	3148.6295	2221.75	1333.9
1043.1878	3149.5989	2214.2	1325.1
1043.2932	3150.5676	2215.1	1327.8
1043.3986	3151.5357	2199.9	1314.95
1043.5039	3152.5032	2200.45	1314.35
1043.6092	3153.4701	2182	1296.9
1043.7145	3154.4364	2177.45	1288.75
1043.8197	3155.402	2163.45	1275.35
1043.9248	3156.367	2164.55	1275.25
1044.03	3157.3315	2190.2	1258.85
1044.135	3158.2952	2153.55	1265.55
1044.24	3159.2584	2150.55	1264.4
1044.345	3160.221	2137.2	1249.55
1044.4499	3161.1829	2134.1	1247.75
1044.5548	3162.1442	2124.55	1237.8
1044.6596	3163.105	2111.9	1222.1
1044.7644	3164.065	2100.75	1214.05
1044.8692	3165.0245	2090.75	1201.1
1044.9739	3165.9834	2096.25	1209.45
1045.0785	3166.9416	2083.6	1196.1
1045.1831	3167.8993	2072.15	1184.1
1045.2877	3168.8563	2068.45	1181
1045.3922	3169.8127	2064.3	1174.85
1045.4966	3170.7684	2052.6	1165.75
1045.6011	3171.7236	2059.3	1170.9
1045.7054	3172.6782	2051.95	1165.9
1045.8098	3173.6321	2037.65	1149.5
1045.914	3174.5854	2044.3	1151.65
1046.0183	3175.5381	2035.15	1147.75
1046.1224	3176.4902	2016.95	1130.2
1046.2266	3177.4417	2009.45	1122.6
1046.3307	3178.3926	2008.3	1122.4
1046.4347	3179.3428	2000.05	1111.75
1046.5387	3180.2924	1981.4	1095.45
1046.6427	3181.2415	1994.1	1106.35
1046.7466	3182.1899	1985.95	1097.4
1046.8504	3183.1377	1972.35	1085.9
1046.9542	3184.0848	1972.55	1083.1
1047.058	3185.0314	1978.6	1091.25
1047.1617	3185.9773	1960.9	1073.3
1047.2654	3186.9227	1961.65	1072.55
1047.369	3187.8674	1944	1056.75
1047.4726	3188.8115	1939.65	1047.25
1047.5761	3189.755	1934.15	1044.65
1047.6796	3190.6979	1929.35	1040.95
1047.783	3191.6402	1924.25	1038.7
1047.8864	3192.5818	1923.65	1038.85
1047.9898	3193.5229	1932.65	1023.15
1048.0931	3194.4633	1918	1030
1048.1963	3195.4031	1909.4	1022.6
1048.2995	3196.3423	1905.5	1019.45
1048.4027	3197.2809	1906.45	1019.85
1048.5058	3198.2189	1890.9	1004.6
1048.6089	3199.1563	1880.75	987.4
1048.7119	3200.0931	1873.7	986.35
1048.8148	3201.0292	1875.55	988.15
1048.9178	3201.9648	1864.9	977.25
1049.0206	3202.8997	1876.2	985.5
1049.1235	3203.834	1853.95	965.3
1049.2262	3204.7677	1851.75	966.1
1049.329	3205.7008	1853.95	966.3
1049.4317	3206.6333	1844.15	958.25
1049.5343	3207.5652	1841.4	952.4
1049.6369	3208.4964	1831.45	943.1
1049.7394	3209.4271	1828.1	939.6
1049.8419	3210.3571	1816.85	929.55
1049.9444	3211.2865	1813.6	924.45
1050.0468	3212.2154	1813.45	925.3
1050.1491	3213.1436	1814.15	923.45
1050.2514	3214.0712	1810.85	918.85
1050.3537	3214.9982	1806.25	917.7
1050.4559	3215.9246	1793.6	906.65
1050.5581	3216.8503	1794.9	910.35
1050.6602	3217.7755	1790.9	902.05
1050.7623	3218.7001	1785.6	898.85
1050.8643	3219.624	1781.85	894.9
1050.9663	3220.5473	1777.85	889.95
1051.0682	3221.4701	1770.55	883
1051.1701	3222.3922	1766.85	877.65
1051.2719	3223.3137	1755.6	869.65
1051.3737	3224.2346	1751.85	864.95
1051.4754	3225.1549	1755.4	868.7
1051.5771	3226.0746	1750.95	863.05
1051.6788	3226.9937	1741.45	852.85
1051.7804	3227.9121	1739.05	851.85
1051.8819	3228.83	1726.85	841.05
1051.9834	3229.7473	1733.15	845.8
1052.0849	3230.6639	1720.85	834.1
1052.1863	3231.5799	1712.35	825.75
1052.2876	3232.4954	1709	822.1
1052.3889	3233.4102	1710.7	823.5
1052.4902	3234.3244	1710	823.8
1052.5914	3235.238	1699.35	814
1052.6926	3236.151	1710.3	798.15
1052.7937	3237.0634	1689.5	803.85
1052.8948	3237.9752	1686.2	797.75
1052.9958	3238.8864	1689.75	800.35
1053.0968	3239.797	1677.15	789.1
1053.1977	3240.7069	1672.7	784.05
1053.2986	3241.6163	1673.4	783.95
1053.3994	3242.5251	1655.2	768
1053.5002	3243.4332	1656.55	770.05
1053.6009	3244.3408	1651.55	763.4
1053.7016	3245.2477	1653.35	766.6
1053.8022	3246.154	1645.6	759.6
1053.9028	3247.0598	1642.9	755.3
1054.0034	3247.9649	1639.15	751.05
1054.1039	3248.8694	1627.9	739.9
1054.2043	3249.7733	1627.5	739.3
1054.3047	3250.6766	1617.35	729.15
1054.4051	3251.5793	1613	724.9
1054.5054	3252.4814	1616.6	730.6
1054.6056	3253.3829	1600.1	713.3
1054.7058	3254.2838	1602.95	715.95
1054.806	3255.1841	1594	707.65
1054.9061	3256.0838	1590.7	703.95
1055.0061	3256.9829	1579.45	693.15
1055.1062	3257.8814	1577.85	688.4
1055.2061	3258.7792	1576.3	686.8
1055.306	3259.6765	1577.1	689.3
1055.4059	3260.5731	1550.15	663.2
1055.5057	3261.4692	1547.6	660.85
1055.6055	3262.3647	1535.2	647.5
1055.7052	3263.2595	1529.7	642.9
1055.8049	3264.1538	1524.75	638.7
1055.9045	3265.0474	1518.3	631.1
1056.0041	3265.9404	1505.8	619.6
1056.1036	3266.8329	1499.7	612.5
1056.2031	3267.7247	1494.4	596.8
1056.3025	3268.616	1467.7	582.35
1056.4019	3269.5066	1458.2	570.85
1056.5013	3270.3966	1447.75	560.65
1056.6005	3271.286	1423.2	538.1
