Software Version:	3.9.2.0
Unit SN:	10000200
Spectrometer SN:	6960
Date:	3/6/2024 9:58:37 AM
Data Line Index:	25
Spectral Points:	2048
Integration time (ms):	125
Averages:	20
Delay (ms):	30
Sequence Number:	1
Processing:	dark subtract
Laser Power (mW):	305
Laser Current (mA):	826
Laser Diode Temp (C):	25.1
Laser Case Temp (C):	24.6
System Temp (C):	24.4
Spectrometer Temp (C):	22
CCD Temp (C):	-0.008
Secondary Temp (C):	20.032
Heatsink Temp (C):	18.227
CCDPCB Temp (C):	30.971
SecondaryPCB Temp (C):	26.025

Wavelength	RamanShift	Raw Counts	Dark Subtracted
787.061	30.1047	678.7	269.15
787.2016	32.3739	693.25	286.45
787.3422	34.6426	707.45	300.25
787.4828	36.9109	725.4	315.8
787.6235	39.1787	750.8	339
787.7642	41.4461	777	359.05
787.9049	43.7131	799.85	377.2
788.0456	45.9796	831.9	409
788.1863	48.2456	856.05	429.55
788.3271	50.5112	884.15	452.85
788.4679	52.7764	912.35	478.9
788.6087	55.0411	940.7	502.5
788.7496	57.3054	979	534.2
788.8904	59.5692	1008.55	563
789.0313	61.8326	1050.15	601
789.1722	64.0955	1091.95	640.55
789.3132	66.3579	1146.75	690.8
789.4541	68.6199	1218.5	758.3
789.5951	70.8815	1315.2	848.9
789.7361	73.1426	1567.5	1100.85
789.8771	75.4032	2202.1	1730.75
790.0181	77.6634	3788.95	3312.9
790.1592	79.9231	7749.85	7268.45
790.3003	82.1824	17853.3	17364.6
790.4414	84.4412	37748.7	37243.85
790.5825	86.6995	52193.6	51666.25
790.7237	88.9574	57210.35	56669.45
790.8648	91.2148	60009.25	59460.55
791.006	93.4717	60883.6	60322.1
791.1472	95.7282	61293.95	60732.95
791.2885	97.9842	61489.4	60924.35
791.4297	100.2398	61488.15	60921.55
791.571	102.4949	61468.95	60900.2
791.7123	104.7495	61499.8	60924.15
791.8536	107.0036	61370.15	60797.65
791.9949	109.2573	61607.8	61032.35
792.1363	111.5105	61463.75	60889.2
792.2777	113.7632	61473.2	60897.8
792.4191	116.0154	61592.7	60998.1
792.5605	118.2672	61742.5	61159.95
792.7019	120.5185	61756.7	61170.7
792.8434	122.7693	61772.25	61182.9
792.9849	125.0197	61554.65	60961.85
793.1264	127.2696	61987.75	61389.85
793.2679	129.519	61918.55	61323.2
793.4094	131.7679	62082.1	61478.65
793.551	134.0163	61680.95	61076.3
793.6926	136.2642	61867.75	61260.05
793.8342	138.5117	62122.3	61513
793.9758	140.7587	62003.4	61391.25
794.1175	143.0052	62009.85	61397.85
794.2591	145.2512	61810.35	61192.45
794.4008	147.4967	62082.95	61467.35
794.5425	149.7417	62017.55	61395.85
794.6842	151.9863	62014.9	61388.25
794.826	154.2304	61841.55	61213.25
794.9677	156.4739	61983.85	61347.15
795.1095	158.717	62152.55	61520.05
795.2513	160.9596	62030.55	61392.75
795.3931	163.2017	61827.65	61189.4
795.535	165.4433	62062.05	61418.65
795.6768	167.6844	61944.4	61299
795.8187	169.925	62069.2	61423.95
795.9606	172.1651	61952.7	61302.05
796.1025	174.4047	62029.1	61375.3
796.2445	176.6439	61998.3	61343.85
796.3864	178.8825	61934.75	61277
796.5284	181.1206	62127.05	61464.45
796.6704	183.3582	62140.55	61473.7
796.8124	185.5954	62025.55	61353.9
796.9544	187.832	62052.1	61379.45
797.0965	190.0681	61932	61257.05
797.2386	192.3037	62180.95	61503.45
797.3806	194.5388	62400.95	61715.85
797.5228	196.7734	61824.4	61139.7
797.6649	199.0075	62352.95	61668.7
797.807	201.2411	62191.35	61507.85
797.9492	203.4742	62471.7	61783.25
798.0914	205.7068	62415.6	61720.7
798.2336	207.9389	62392.85	61697.15
798.3758	210.1704	62389.65	61703.1
798.518	212.4015	62556	61877.8
798.6603	214.632	62324.35	61655.5
798.8025	216.862	62568.15	61895.6
798.9448	219.0915	62454.95	61782.4
799.0871	221.3205	62426.25	61753.9
799.2294	223.549	62636.8	61962.65
799.3718	225.777	62601.65	61930.25
799.5141	228.0044	62704.6	62025.25
799.6565	230.2314	62629.95	61949.45
799.7989	232.4578	62610.8	61928.25
799.9413	234.6837	62652.25	61958.85
800.0837	236.909	63040.8	62345.25
800.2262	239.1339	62519.7	61803.25
800.3687	241.3582	62751.75	62047.75
800.5111	243.582	62763.25	62025.85
800.6536	245.8053	62759.6	62038.6
800.7961	248.0281	62791.5	62074.6
800.9387	250.2503	62857.7	62138.2
801.0812	252.472	62683.45	61959.3
801.2238	254.6932	62806.15	62086.85
801.3664	256.9139	62764.5	62041.9
801.509	259.134	63105.85	62379.55
801.6516	261.3536	62721.95	61998.6
801.7942	263.5727	62916	62187.55
801.9369	265.7912	62795.65	62067.8
802.0795	268.0092	62841.75	62114.35
802.2222	270.2267	62899.65	62170.25
802.3649	272.4436	62748.5	62015.95
802.5076	274.6601	62912.8	62172.2
802.6504	276.8759	63007.45	62268.55
802.7931	279.0913	62892.9	62155.05
802.9359	281.3061	62938.1	62198.75
803.0787	283.5204	62962.85	62219.65
803.2215	285.7341	62937.5	62195.2
803.3643	287.9473	63097.05	62341.25
803.5071	290.16	62979.1	62227.7
803.6499	292.3721	63045.75	62304.25
803.7928	294.5837	62925.9	62182.2
803.9357	296.7947	62822.55	62077.5
804.0786	299.0052	63092.1	62349.45
804.2215	301.2152	62965.3	62217.3
804.3644	303.4246	63101.35	62359.3
804.5074	305.6334	63103	62360.15
804.6503	307.8418	62879.95	62128.95
804.7933	310.0495	62906.65	62156.75
804.9363	312.2568	62884.55	62131.55
805.0793	314.4635	62877.8	62124.05
805.2223	316.6696	62994	62238.95
805.3653	318.8752	63090.05	62324.2
805.5084	321.0802	62721.65	61963.6
805.6514	323.2847	62879.4	62117.85
805.7945	325.4887	62873.65	62113.5
805.9376	327.692	62801.1	62037.35
806.0807	329.8949	62896.95	62136.95
806.2238	332.0972	62822.75	62058.65
806.367	334.2989	62885.85	62119.65
806.5101	336.5001	63020.45	62249.65
806.6533	338.7007	62737.9	61968.45
806.7965	340.9008	62888.4	62119.1
806.9397	343.1003	62889	62116.5
807.0829	345.2992	63001.4	62230.95
807.2261	347.4976	62849.3	62073.95
807.3693	349.6955	62922.65	62141.65
807.5126	351.8927	62800.7	62020.45
807.6559	354.0895	62945.75	62156.45
807.7991	356.2856	62924.4	62142.35
807.9424	358.4812	63033.7	62250.7
808.0857	360.6763	62819	62038
808.2291	362.8707	63024.9	62240.75
808.3724	365.0646	62906.55	62117.5
808.5158	367.258	62895.05	62106.7
808.6591	369.4508	62785.15	61990.95
808.8025	371.643	62988.4	62196.1
808.9459	373.8346	62900.2	62106.25
809.0893	376.0257	62900.85	62102.3
809.2327	378.2162	62848.4	62052.25
809.3762	380.4062	62707.15	61905.95
809.5196	382.5956	62836.85	62043.35
809.6631	384.7844	62814.5	62024.7
809.8066	386.9726	62880.05	62090.65
809.9501	389.1603	62883.45	62096.3
810.0936	391.3474	62718.35	61895
810.2371	393.5339	62855.15	62063.95
810.3806	395.7199	62647.95	61859.25
810.5241	397.9052	62687.3	61899.9
810.6677	400.09	62722.35	61932.35
810.8113	402.2743	62846.25	62051.1
810.9548	404.4579	62695.5	61905.95
811.0984	406.641	62691.3	61896.65
811.2421	408.8235	62797.95	62002.45
811.3857	411.0054	62791.3	61992.2
811.5293	413.1868	62813.15	62007.9
811.673	415.3675	62782.5	61977.3
811.8166	417.5477	62775.75	61968.25
811.9603	419.7273	62748.7	61942.05
812.104	421.9064	62737.1	61922.05
812.2477	424.0848	62759.1	61946.9
812.3914	426.2627	62843.55	62032.85
812.5351	428.4399	62651.8	61843.4
812.6788	430.6166	62514.55	61698.1
812.8226	432.7928	62698.75	61880.55
812.9663	434.9683	62539.1	61721.6
813.1101	437.1432	62537.6	61719.5
813.2539	439.3176	62684.1	61870.85
813.3977	441.4914	62456.75	61646.6
813.5415	443.6645	62518.05	61707.45
813.6853	445.8371	62501.25	61682.9
813.8291	448.0091	62394.35	61578.6
813.973	450.1806	62349.15	61533.05
814.1168	452.3514	62366.5	61550.1
814.2607	454.5216	62246.95	61420.3
814.4046	456.6913	62371.05	61549.2
814.5485	458.8603	62388	61569.65
814.6924	461.0288	62234.9	61417.7
814.8363	463.1967	62389.95	61573.15
814.9802	465.3639	62388.5	61568.15
815.1241	467.5306	62104.15	61284.05
815.2681	469.6967	62245.3	61424.15
815.412	471.8622	62320.3	61500.6
815.556	474.0271	62235.2	61415.65
815.7	476.1914	62246.7	61423.5
815.844	478.3551	62265.25	61446.65
815.988	480.5182	62395.95	61571.45
816.132	482.6807	62202.5	61382.35
816.276	484.8426	62210.35	61393.4
816.4201	487.0039	62377.25	61559.1
816.5641	489.1647	62363.8	61540.4
816.7082	491.3248	62193.85	61368.15
816.8522	493.4843	62416.6	61593.9
816.9963	495.6432	62413.9	61588.2
817.1404	497.8015	62183.2	61351.55
817.2845	499.9592	62304.15	61472.2
817.4286	502.1163	62317.2	61485.15
817.5727	504.2728	62309.75	61480.15
817.7168	506.4287	62300.3	61476.95
817.861	508.5839	62165.9	61341.35
818.0051	510.7386	62236.95	61407.75
818.1493	512.8927	62279.1	61444.6
818.2935	515.0461	62223.55	61390.55
818.4377	517.199	62331.55	61497.35
818.5818	519.3512	62229.2	61394.1
818.726	521.5029	62193.75	61352.6
818.8703	523.6539	62248	61411.8
819.0145	525.8043	62054.25	61217.8
819.1587	527.9541	62213.65	61374.45
819.303	530.1033	62183.15	61344.1
819.4472	532.2519	62133.15	61295.05
819.5915	534.3999	62238.4	61395.25
819.7357	536.5472	62303.15	61465.8
819.88	538.694	62055.45	61219.15
820.0243	540.8401	62180.95	61338.5
820.1686	542.9856	62165.75	61319.95
820.3129	545.1305	62240.1	61392
820.4572	547.2748	62149.9	61302.6
820.6016	549.4185	62144	61291.85
820.7459	551.5615	62247.35	61396.15
820.8902	553.704	62169.2	61320.45
821.0346	555.8458	62076.9	61231.25
821.1789	557.987	62102.95	61261
821.3233	560.1276	62158.1	61310.3
821.4677	562.2675	62119.1	61271.55
821.6121	564.4069	62110.5	61266.1
821.7565	566.5456	62216.55	61369.25
821.9009	568.6837	62052.5	61208.6
822.0453	570.8212	62136.8	61290.95
822.1897	572.958	61917.4	61070.65
822.3342	575.0942	62079.25	61237.75
822.4786	577.2299	61901.3	61056.5
822.6231	579.3648	61882.7	61040.1
822.7675	581.4992	61825.3	60984.3
822.912	583.6329	61796.75	60961.65
823.0565	585.766	61772.95	60931.45
823.201	587.8985	61835.9	60995.3
823.3454	590.0304	61607.8	60751.45
823.4899	592.1616	61764	60912
823.6345	594.2922	61679.6	60827.9
823.779	596.4222	61553.35	60700.3
823.9235	598.5515	61580.85	60725.3
824.068	600.6802	61621.3	60763.85
824.2126	602.8083	61458.7	60606.9
824.3571	604.9358	61455.25	60599.65
824.5017	607.0626	61583.4	60726.45
824.6462	609.1888	61409.55	60549.5
824.7908	611.3144	61494.15	60635.2
824.9354	613.4393	61425	60566.6
825.08	615.5636	61348.25	60486.45
825.2246	617.6873	61427.85	60570.7
825.3692	619.8103	61319.95	60459.05
825.5138	621.9327	61396.75	60535.6
825.6584	624.0544	61433	60577
825.803	626.1756	61361	60504.45
825.9477	628.2961	61342.1	60481.85
826.0923	630.4159	61259.25	60396.75
826.237	632.5351	61237.4	60373.1
826.3816	634.6537	61449.15	60588.6
826.5263	636.7716	61193	60327.4
826.6709	638.8889	61245.4	60380.45
826.8156	641.0056	61265.85	60399.65
826.9603	643.1216	61264.4	60400.25
827.105	645.237	61303	60437.5
827.2497	647.3518	61164.65	60304.3
827.3944	649.4659	61233.2	60371.85
827.5391	651.5793	61207.75	60347.35
827.6838	653.6922	61206.65	60346.5
827.8285	655.8043	61071.2	60211.3
827.9733	657.9159	61296.35	60432.25
828.118	660.0268	60882.25	60018.7
828.2627	662.137	61095.95	60229.5
828.4075	664.2466	61133	60265.9
828.5522	666.3556	61056	60189.15
828.697	668.4639	61051.15	60182.6
828.8418	670.5716	60999.35	60140.45
828.9865	672.6786	61051.6	60183.4
829.1313	674.785	60901.4	60029.7
829.2761	676.8907	60884.05	60018.65
829.4209	678.9958	60962.05	60094.65
829.5657	681.1002	60977.8	60112.25
829.7105	683.204	60824.5	59947.2
829.8553	685.3072	60761.2	59889.5
830.0001	687.4097	60832.1	59960.5
830.1449	689.5115	60793.45	59922.4
830.2898	691.6127	60876.1	60008.65
830.4346	693.7132	60739.55	59871.4
830.5794	695.8131	60767.25	59872.35
830.7243	697.9123	60793.5	59921.8
830.8691	700.0109	60818.4	59946.5
831.014	702.1089	60606.25	59734.6
831.1588	704.2061	60693.6	59820.3
831.3037	706.3028	60688	59813.85
831.4486	708.3987	60677.45	59804.25
831.5935	710.4941	60629.4	59756.45
831.7383	712.5887	60699.6	59827.85
831.8832	714.6827	60607.9	59730.8
832.0281	716.7761	60673.95	59799.1
832.173	718.8688	60709.25	59834.75
832.3179	720.9608	60601	59718.9
832.4628	723.0522	60603.7	59721.7
832.6077	725.1429	60500.95	59622.25
832.7527	727.233	60734.2	59858.95
832.8976	729.3224	60377.15	59500.8
833.0425	731.4112	60459.45	59581.05
833.1874	733.4993	60445.2	59566.8
833.3324	735.5867	60422.3	59544.25
833.4773	737.6735	60366.55	59485
833.6222	739.7596	60293.7	59411.75
833.7672	741.845	60246.25	59368.1
833.9122	743.9298	60315.7	59436.35
834.0571	746.014	60203.1	59325.9
834.2021	748.0974	60130	59248.2
834.347	750.1802	60231.05	59350.05
834.492	752.2624	60011.75	59131.7
834.637	754.3439	60009.45	59124.7
834.782	756.4247	60026.1	59136.25
834.9269	758.5048	59924.3	59043
835.0719	760.5843	59928.85	59044.3
835.2169	762.6631	59923.05	59039.2
835.3619	764.7413	59891.75	59008.6
835.5069	766.8188	59931.45	59047.7
835.6519	768.8956	59953.35	59068.7
835.7969	770.9718	59937.6	59057.95
835.9419	773.0473	59842.85	58958.1
836.0869	775.1221	59757.4	58874.1
836.232	777.1962	59722.85	58839.1
836.377	779.2697	59648.3	58761.8
836.522	781.3426	59652.1	58749.8
836.667	783.4147	59636.15	58748.55
836.8121	785.4862	59602.95	58721.05
836.9571	787.557	59526.8	58643
837.1021	789.6271	59566.55	58682.5
837.2472	791.6966	59465.15	58579.65
837.3922	793.7654	59387.65	58503.2
837.5373	795.8335	59362.4	58478
837.6823	797.901	59336.6	58451.95
837.8274	799.9678	59261.9	58371.9
837.9724	802.0339	59266.1	58377.8
838.1175	804.0993	59260.3	58365.1
838.2626	806.1641	59175.25	58286.7
838.4076	808.2282	59146.4	58261.1
838.5527	810.2916	59138.05	58250.95
838.6978	812.3544	59146.6	58261.6
838.8428	814.4164	59047.95	58161.9
838.9879	816.4778	59054.1	58163.6
839.133	818.5385	59024.55	58135.3
839.2781	820.5986	59016.65	58126.05
839.4232	822.658	59011.75	58123
839.5682	824.7166	58980.95	58092.95
839.7133	826.7747	58948.9	58061.65
839.8584	828.832	59000.3	58109.55
840.0035	830.8886	58970.1	58077.5
840.1486	832.9446	58981.95	58091.25
840.2937	834.9999	58856.15	57968.1
840.4388	837.0545	58863.3	57970.65
840.5839	839.1085	58855.8	57961.4
840.729	841.1618	58816.7	57922.65
840.8741	843.2143	58712.75	57824.05
841.0192	845.2662	58662.4	57768.7
841.1643	847.3175	58722.95	57830.9
841.3095	849.368	58600.8	57710.6
841.4546	851.4179	58601.95	57710.15
841.5997	853.467	58545.6	57654.4
841.7448	855.5155	58529.6	57640
841.8899	857.5633	58468.95	57578.15
842.0351	859.6105	58411.5	57516.8
842.1802	861.6569	58389.6	57496.25
842.3253	863.7027	58373.8	57478.45
842.4704	865.7478	58386.9	57493.15
842.6156	867.7922	58357.4	57466.05
842.7607	869.8359	58327.4	57433.4
842.9058	871.8789	58260.3	57368.05
843.0509	873.9212	58300.05	57375.5
843.1961	875.9629	58216.15	57323.65
843.3412	878.0039	58230.25	57336.3
843.4863	880.0441	58221.2	57328.45
843.6315	882.0837	58191.75	57297.5
843.7766	884.1226	58203.5	57308.2
843.9218	886.1609	58196.85	57301.25
844.0669	888.1984	58153.6	57259.65
844.212	890.2352	58213	57321.25
844.3572	892.2714	58127.2	57228.3
844.5023	894.3069	58131.5	57233.85
844.6475	896.3416	58059.35	57165.3
844.7926	898.3757	58028.5	57131.7
844.9377	900.4091	57957.45	57063.6
845.0829	902.4418	57958.55	57055.4
845.228	904.4739	57896.05	56997.65
845.3732	906.5052	57943.05	57045.1
845.5183	908.5358	57883.85	56988.65
845.6635	910.5658	57815.5	56918.05
845.8086	912.595	57804.25	56910.35
845.9538	914.6236	57724.25	56825.75
846.0989	916.6515	57787.65	56891.4
846.2441	918.6786	57676.2	56777.85
846.3892	920.7051	57642.95	56744.85
846.5344	922.7309	57682.3	56787.7
846.6795	924.756	57588.85	56691.45
846.8246	926.7804	57595.7	56697.1
846.9698	928.8041	57471.85	56572.8
847.1149	930.8272	57497.15	56598.45
847.2601	932.8495	57420.85	56523
847.4052	934.8711	57416.4	56517.3
847.5504	936.892	57323.95	56428.95
847.6955	938.9123	57268.35	56371.5
847.8407	940.9318	57237.35	56339.6
847.9858	942.9506	57204.3	56304.5
848.131	944.9688	57174.9	56276.5
848.2761	946.9862	57088.2	56190.45
848.4213	949.003	57065.7	56166.05
848.5664	951.019	56998.2	56100
848.7115	953.0344	57000.8	56102.4
848.8567	955.0491	56972.2	56076.95
849.0018	957.063	56983.8	56084.95
849.147	959.0763	56963.8	56063.55
849.2921	961.0888	56901.45	56002.35
849.4373	963.1007	56897.3	55999.3
849.5824	965.1119	56894.1	55999.95
849.7275	967.1223	56859.1	55968.1
849.8727	969.1321	56836.1	55945.75
850.0178	971.1412	56815.65	55919.1
850.1629	973.1495	56752.85	55856.2
850.3081	975.1572	56757.4	55821.75
850.4532	977.1641	56702	55802.1
850.5983	979.1704	56657.35	55758.15
850.7435	981.1759	56623.5	55721.7
850.8886	983.1808	56628.45	55727.1
851.0337	985.1849	56599.9	55689.6
851.1788	987.1884	56563.9	55663.15
851.324	989.1911	56546.9	55646.85
851.4691	991.1932	56498.15	55600.6
851.6142	993.1945	56451.1	55553.6
851.7593	995.1951	56395.7	55495.75
851.9045	997.1951	56393.1	55487.05
852.0496	999.1943	56310.2	55410.25
852.1947	1001.1928	56250.5	55350.8
852.3398	1003.1906	56233	55333.6
852.4849	1005.1877	56179.3	55279.7
852.63	1007.1841	56140.15	55240.15
852.7751	1009.1798	56066.05	55168.45
852.9202	1011.1748	56030.3	55131.4
853.0653	1013.1691	55993.3	55092.7
853.2104	1015.1627	55802.3	54900.55
853.3555	1017.1556	55819.6	54917.2
853.5006	1019.1477	55808.05	54906.85
853.6457	1021.1392	55695.4	54798.25
853.7908	1023.1299	55512.45	54618.4
853.9359	1025.12	55574.05	54679
854.081	1027.1093	55466.4	54578.15
854.2261	1029.0979	55429.15	54542.35
854.3712	1031.0859	55359.7	54467.25
854.5163	1033.0731	55249.65	54355.6
854.6613	1035.0596	55262.45	54364.65
854.8064	1037.0454	55208.7	54310.3
854.9515	1039.0304	55116.55	54217.5
855.0965	1041.0148	54902.3	54002.35
855.2416	1042.9985	54928.75	54028.3
855.3867	1044.9814	55021	54122.15
855.5317	1046.9636	54823	53922.65
855.6768	1048.9452	54828.05	53928.55
855.8219	1050.926	54764.55	53864.85
855.9669	1052.9061	54699.85	53799.15
856.112	1054.8855	54702	53802.5
856.257	1056.8642	54569.9	53671.45
856.4021	1058.8421	54552.35	53650.25
856.5471	1060.8194	54568.25	53666.7
856.6921	1062.7959	54429.25	53531.6
856.8372	1064.7717	54529.2	53628.6
856.9822	1066.7469	54458.65	53556.1
857.1272	1068.7213	54447.35	53544.65
857.2723	1070.695	54365.35	53463.75
857.4173	1072.6679	54274.4	53371.4
857.5623	1074.6402	54307.7	53407.9
857.7073	1076.6117	54175.7	53268.9
857.8523	1078.5826	54183.3	53282.45
857.9973	1080.5527	54175.95	53268.25
858.1423	1082.5221	54054.25	53152.9
858.2873	1084.4908	54110.7	53209.3
858.4323	1086.4587	54011.6	53110.45
858.5773	1088.426	53970.65	53069.95
858.7223	1090.3925	53914.6	53009.2
858.8673	1092.3584	53887.85	52987.95
859.0123	1094.3235	53751.3	52852.15
859.1573	1096.2879	53760.95	52861.05
859.3022	1098.2515	53782.85	52880.55
859.4472	1100.2145	53710.2	52808.8
859.5922	1102.1767	53699.05	52797.1
859.7371	1104.1382	53674.8	52774.4
859.8821	1106.099	53608.1	52703
860.027	1108.0591	53605.7	52704.75
860.172	1110.0185	53354.65	52453.75
860.3169	1111.9771	53578.3	52677.2
860.4619	1113.9351	53430.7	52527.75
860.6068	1115.8923	53315.9	52413.35
860.7517	1117.8488	53178.9	52275.2
860.8967	1119.8045	53026.3	52127.35
861.0416	1121.7596	53105.45	52203.4
861.1865	1123.7139	53006.75	52107
861.3314	1125.6675	52991	52091.1
861.4763	1127.6204	52933.65	52032.6
861.6212	1129.5726	52740.5	51838.25
861.7661	1131.524	52822.7	51922.65
861.911	1133.4748	52823.05	51920.2
862.0559	1135.4248	52641.5	51737.05
862.2008	1137.3741	52611.9	51712.1
862.3457	1139.3226	52582.5	51676.8
862.4905	1141.2705	52548.3	51644.2
862.6354	1143.2176	52509.9	51601.85
862.7803	1145.164	52299.2	51395.2
862.9251	1147.1097	52347.75	51443.8
863.07	1149.0546	52323.5	51420.1
863.2148	1150.9989	52382.95	51479.1
863.3597	1152.9424	52123.25	51221.15
863.5045	1154.8852	52289.05	51386.25
863.6493	1156.8272	52126.05	51223.75
863.7942	1158.7686	52292.05	51384
863.939	1160.7092	51973.1	51069.45
864.0838	1162.6491	51956.45	51052.8
864.2286	1164.5883	52005.35	51103.2
864.3734	1166.5267	51883.7	50981.1
864.5182	1168.4644	51968.4	51067.45
864.663	1170.4014	51895.6	50990.45
864.8078	1172.3377	52009.95	51111.9
864.9526	1174.2732	52063	51160.7
865.0974	1176.2081	51972.65	51072.1
865.2421	1178.1421	51903.9	50998.95
865.3869	1180.0755	52074.4	51172.35
865.5317	1182.0082	51947.25	51045.15
865.6764	1183.9401	51932.95	51032.5
865.8212	1185.8713	51795.35	50898.55
865.9659	1187.8017	51720.05	50824.95
866.1106	1189.7315	51672.85	50778.5
866.2554	1191.6605	51561.15	50667
866.4001	1193.5888	51448.4	50551.35
866.5448	1195.5163	51248.1	50350.75
866.6895	1197.4432	51254.6	50351.95
866.8342	1199.3693	51259.8	50360.1
866.9789	1201.2947	51122.85	50217.65
867.1236	1203.2193	51150.9	50247.05
867.2683	1205.1432	50955.55	50054.95
867.413	1207.0664	50917.75	50014.2
867.5576	1208.9889	50866.5	49961.65
867.7023	1210.9106	50807.55	49907.2
867.847	1212.8316	50666.35	49767.35
867.9916	1214.7519	50682	49773.05
868.1363	1216.6715	50578.55	49678.75
868.2809	1218.5903	50517.4	49615.65
868.4255	1220.5084	50470.1	49570.85
868.5701	1222.4257	50511.75	49610.75
868.7148	1224.3424	50384	49484.6
868.8594	1226.2583	50220.6	49316.8
869.004	1228.1735	50320.5	49417.35
869.1486	1230.0879	50085.8	49184.6
869.2932	1232.0016	50229.75	49330.85
869.4377	1233.9146	50039.45	49135.5
869.5823	1235.8269	50051.55	49150.65
869.7269	1237.7384	50013.9	49113.35
869.8715	1239.6492	49884.65	48984.8
870.016	1241.5592	49741.85	48841.15
870.1606	1243.4686	49852.1	48951.9
870.3051	1245.3772	49654.6	48753
870.4496	1247.285	49764.1	48864
870.5941	1249.1922	49542.6	48641.55
870.7387	1251.0986	49682.55	48782.3
870.8832	1253.0042	49495.85	48596.6
871.0277	1254.9092	49537.75	48636.25
871.1722	1256.8134	49264.9	48364.4
871.3167	1258.7169	49501.7	48599
871.4611	1260.6196	49296.4	48397.95
871.6056	1262.5216	49334.5	48433.6
871.7501	1264.4229	49383.9	48484.55
871.8945	1266.3234	49480.9	48581.5
872.039	1268.2232	49358.4	48457.45
872.1834	1270.1223	49150.05	48248.95
872.3278	1272.0207	49184.35	48282
872.4723	1273.9183	49131.3	48222.95
872.6167	1275.8151	49139.95	48238.2
872.7611	1277.7113	49101.85	48202.55
872.9055	1279.6067	48922.9	48022.6
873.0499	1281.5014	48920.25	48019.5
873.1943	1283.3953	49076.5	48171.3
873.3386	1285.2885	49067.5	48166.65
873.483	1287.181	49088.35	48187.05
873.6274	1289.0727	49154.25	48256
873.7717	1290.9637	48824.95	47922.85
873.9161	1292.854	49220.75	48321
874.0604	1294.7435	49100.25	48200.85
874.2047	1296.6323	49057.45	48156.95
874.349	1298.5204	48909.6	48006.15
874.4933	1300.4077	48989.5	48086.1
874.6376	1302.2943	48779.35	47879.45
874.7819	1304.1802	48622.3	47721.45
874.9262	1306.0653	48476.75	47573.2
875.0705	1307.9497	48364.35	47465
875.2147	1309.8333	48378.7	47476.05
875.359	1311.7162	48191.25	47288.7
875.5032	1313.5984	48208.2	47303.8
875.6475	1315.4798	48006.7	47106.35
875.7917	1317.3605	47980.1	47063.4
875.9359	1319.2405	48011	47109.05
876.0801	1321.1197	47655.7	46752.6
876.2243	1322.9982	47680.75	46775.3
876.3685	1324.876	47580.2	46678.35
876.5127	1326.753	47375.6	46473.9
876.6569	1328.6293	47656.95	46753.1
876.801	1330.5048	47397.95	46493.7
876.9452	1332.3796	47198.05	46298.95
877.0893	1334.2537	47206	46280.55
877.2335	1336.127	47218.95	46316.65
877.3776	1337.9996	47007.55	46106.15
877.5217	1339.8714	47164.2	46262.25
877.6658	1341.7426	46797.2	45854.5
877.8099	1343.6129	46997.15	46094.95
877.954	1345.4826	46956.5	46055.55
878.0981	1347.3515	46692.15	45787.65
878.2422	1349.2196	46860.3	45957.25
878.3862	1351.087	46822.25	45919.55
878.5303	1352.9537	46780.5	45879.1
878.6743	1354.8197	46749.7	45846.95
878.8184	1356.6849	46818.85	45917.45
878.9624	1358.5493	46739.95	45840.25
879.1064	1360.4131	46595.3	45694.8
879.2504	1362.276	46812.55	45911.9
879.3944	1364.1383	46518.6	45618.45
879.5384	1365.9998	46337.6	45431.2
879.6823	1367.8606	46373.7	45471.25
879.8263	1369.7206	46112.95	45211.2
879.9702	1371.5799	46031.85	45127.6
880.1142	1373.4384	45804.9	44902.75
880.2581	1375.2962	45852.05	44949.45
880.402	1377.1533	45442.75	44544.15
880.5459	1379.0096	45264.95	44364.6
880.6898	1380.8652	45208.5	44308.65
880.8337	1382.7201	44934.2	44033.7
880.9776	1384.5742	44904.85	44004.8
881.1215	1386.4275	44528	43626.9
881.2653	1388.2802	44521.75	43620.6
881.4092	1390.132	44499.45	43599.2
881.553	1391.9832	44266.9	43365.75
881.6968	1393.8336	44097.9	43197.9
881.8406	1395.6832	44033.45	43132.15
881.9844	1397.5322	44021.35	43119.1
882.1282	1399.3803	43806.2	42900.45
882.272	1401.2278	43707.3	42806.85
882.4158	1403.0745	43611.55	42711
882.5595	1404.9204	43557.55	42659.1
882.7033	1406.7656	43493.8	42593.75
882.847	1408.6101	43265.25	42360.75
882.9908	1410.4538	43269.6	42369.3
883.1345	1412.2968	43238.6	42338.8
883.2782	1414.139	43064	42162.8
883.4219	1415.9805	43100.05	42199.3
883.5656	1417.8213	42905.1	41999.4
883.7092	1419.6613	42933.45	42034.3
883.8529	1421.5006	42827.5	41926
883.9965	1423.3391	42790.85	41888.05
884.1402	1425.1769	42801.35	41900.4
884.2838	1427.0139	42955.45	42055.45
884.4274	1428.8502	42962.6	42061.05
884.571	1430.6858	43036	42134.75
884.7146	1432.5206	43102.15	42202.95
884.8582	1434.3547	43042.3	42140.25
885.0018	1436.188	42956.85	42057.8
885.1453	1438.0206	42960.35	42059.25
885.2889	1439.8524	42855.85	41952.75
885.4324	1441.6835	42742.85	41842.7
885.5759	1443.5139	42688.65	41783.6
885.7194	1445.3435	42570	41670.75
885.8629	1447.1724	42632.8	41733.35
886.0064	1449.0005	42462.35	41564.15
886.1499	1450.8279	42462.9	41561.35
886.2933	1452.6545	42404.3	41507.35
886.4368	1454.4804	42320.1	41420.55
886.5802	1456.3056	42295.95	41389.3
886.7237	1458.13	42252.15	41353.65
886.8671	1459.9536	42277.6	41378.85
887.0105	1461.7766	42044.65	41145.6
887.1539	1463.5987	41791.15	40888.7
887.2972	1465.4202	41721.8	40820.65
887.4406	1467.2409	41549.55	40649
887.584	1469.0608	41422.5	40523.65
887.7273	1470.88	41299	40398.8
887.8706	1472.6984	41236.2	40336.25
888.0139	1474.5161	41013	40109.4
888.1572	1476.3331	40992.95	40094.7
888.3005	1478.1493	40830.4	39929.6
888.4438	1479.9648	40782.25	39883.1
888.5871	1481.7795	40718.7	39818.55
888.7303	1483.5935	40714.9	39815
888.8736	1485.4067	40513.7	39613.85
889.0168	1487.2192	40523.5	39621
889.16	1489.031	40473.35	39572.75
889.3032	1490.842	40393.45	39496.35
889.4464	1492.6522	40399	39500.05
889.5896	1494.4618	40245.85	39344.2
889.7327	1496.2705	40260.2	39362.8
889.8759	1498.0785	40070.8	39170.85
890.019	1499.8858	40076.6	39177.5
890.1622	1501.6924	40083.8	39186.75
890.3053	1503.4981	39927.95	39025.95
890.4484	1505.3032	39860.3	38962.65
890.5914	1507.1075	39724.85	38827.3
890.7345	1508.911	39731.95	38831.9
890.8776	1510.7138	39679.2	38780.3
891.0206	1512.5159	39646.6	38746.9
891.1637	1514.3172	39392.9	38493.7
891.3067	1516.1178	39355.95	38459.95
891.4497	1517.9176	39370.8	38467.7
891.5927	1519.7166	39268.75	38371.9
891.7357	1521.515	39173.4	38269.4
891.8786	1523.3126	39062.75	38163.65
892.0216	1525.1094	39084.5	38183
892.1645	1526.9055	38933.15	38036.25
892.3074	1528.7008	38838.2	37940.55
892.4503	1530.4954	38595.1	37696.25
892.5932	1532.2893	38646.05	37750
892.7361	1534.0824	38426.15	37525.6
892.879	1535.8747	38406.3	37512.55
893.0218	1537.6663	38459.95	37562.7
893.1647	1539.4572	38099.8	37202.9
893.3075	1541.2473	38188.9	37291.15
893.4503	1543.0367	38095.6	37198
893.5931	1544.8253	37941.6	37042.9
893.7359	1546.6132	37972.1	37073.15
893.8787	1548.4003	37768.3	36862.6
894.0214	1550.1867	37754.25	36851.85
894.1642	1551.9723	37673.55	36771.5
894.3069	1553.7572	37695.55	36801.35
894.4496	1555.5414	37673.25	36776.25
894.5923	1557.3247	37494	36599.9
894.735	1559.1074	37588.25	36695.85
894.8777	1560.8893	37470.4	36578.45
895.0204	1562.6705	37454.3	36562
895.163	1564.4509	37384	36491
895.3056	1566.2305	37380.35	36488.65
895.4482	1568.0094	37437.7	36547.25
895.5908	1569.7876	37398.6	36507.1
895.7334	1571.565	37259.8	36367.55
895.876	1573.3417	37276.25	36383.1
896.0186	1575.1176	37139.55	36248.35
896.1611	1576.8928	37075.05	36182.7
896.3036	1578.6672	36920	36031.55
896.4461	1580.4409	36856.15	35967.15
896.5886	1582.2138	36727.45	35834.55
896.7311	1583.986	36742.05	35849
896.8736	1585.7575	36657	35766.6
897.0161	1587.5282	36625.55	35737
897.1585	1589.2981	36607.95	35719.15
897.3009	1591.0673	36478	35588.45
897.4433	1592.8358	36488.35	35599.65
897.5857	1594.6035	36487.3	35592.6
897.7281	1596.3704	36427.7	35533.15
897.8705	1598.1366	36286.85	35394.65
898.0128	1599.9021	36234.8	35343.3
898.1551	1601.6668	36216.75	35324.3
898.2975	1603.4308	36182.95	35291.75
898.4398	1605.194	36161.85	35264
898.5821	1606.9564	36054.95	35168.7
898.7243	1608.7182	36185.9	35296.95
898.8666	1610.4791	36153.5	35270.05
899.0088	1612.2394	36223.65	35338.95
899.1511	1613.9988	36148.95	35262.3
899.2933	1615.7576	36271.55	35384.75
899.4355	1617.5156	36286.3	35390.25
899.5776	1619.2728	36373.5	35481.3
899.7198	1621.0293	36156.4	35264.35
899.862	1622.785	36062.45	35169.25
900.0041	1624.54	35900.6	35009.15
900.1462	1626.2942	35719.4	34831.3
900.2883	1628.0477	35420.5	34528.05
900.4304	1629.8005	35229.4	34337.7
900.5725	1631.5525	35113.05	34225.95
900.7145	1633.3037	34921	34032.4
900.8566	1635.0542	34865.3	33976.1
900.9986	1636.804	34733.7	33842.55
901.1406	1638.553	34670.15	33736.05
901.2826	1640.3013	34533.55	33645.55
901.4245	1642.0488	34351.7	33462.9
901.5665	1643.7955	34386.15	33500.85
901.7085	1645.5416	34297.5	33409.15
901.8504	1647.2868	34303.75	33418.15
901.9923	1649.0313	34256.35	33368.05
902.1342	1650.7751	34247.15	33356.1
902.2761	1652.5181	34219.25	33331.8
902.4179	1654.2604	34136.8	33248
902.5598	1656.0019	34189.25	33303.5
902.7016	1657.7427	34190.9	33304.8
902.8434	1659.4828	34294.35	33406.6
902.9852	1661.222	34252.1	33364.35
903.127	1662.9606	34108.1	33222.35
903.2687	1664.6984	34036.15	33149.05
903.4105	1666.4354	33905.75	33014.85
903.5522	1668.1717	33589.35	32698.75
903.6939	1669.9072	33316.75	32425
903.8356	1671.642	33152.85	32260.25
903.9773	1673.3761	32977.2	32087.95
904.119	1675.1094	32813.95	31924.2
904.2606	1676.8419	32631.7	31744.25
904.4022	1678.5737	32447.1	31556.8
904.5439	1680.3048	32312.95	31424.2
904.6855	1682.0351	32147.85	31258.1
904.827	1683.7646	32004.25	31111.45
904.9686	1685.4934	31935.35	31047.6
905.1101	1687.2215	31721.2	30832.25
905.2517	1688.9488	31723.85	30838.7
905.3932	1690.6754	31376.7	30489.95
905.5347	1692.4012	31459.9	30569.95
905.6761	1694.1263	31399.2	30509.5
905.8176	1695.8506	31204.3	30315.1
905.9591	1697.5742	31187.7	30299.55
906.1005	1699.297	31019.7	30132.1
906.2419	1701.0191	30974.15	30088.15
906.3833	1702.7404	30765.65	29878.3
906.5246	1704.461	30590.45	29702.5
906.666	1706.1808	30617.9	29728.05
906.8073	1707.8999	30447.95	29561
906.9487	1709.6182	30371.15	29485.15
907.09	1711.3358	30300.8	29416.2
907.2313	1713.0527	30182.65	29298.75
907.3725	1714.7688	30093.3	29201.3
907.5138	1716.4841	29866.7	28977.6
907.655	1718.1987	29878.35	28985.7
907.7962	1719.9126	29807.2	28921.75
907.9374	1721.6257	29753.95	28867.9
908.0786	1723.338	29707.85	28821.3
908.2198	1725.0496	29432.85	28545.45
908.3609	1726.7605	29410.35	28523.75
908.502	1728.4706	29341.7	28454.45
908.6431	1730.18	29246.75	28359.05
908.7842	1731.8886	29169.9	28285.85
908.9253	1733.5964	29060.2	28169.4
909.0664	1735.3036	29085.3	28196
909.2074	1737.0099	28987.3	28101.9
909.3484	1738.7156	28841.25	27958.05
909.4894	1740.4204	28749.75	27863.75
909.6304	1742.1246	28759.2	27871.3
909.7714	1743.8279	28746.45	27862.35
909.9123	1745.5306	28685.7	27799.85
910.0532	1747.2325	28473	27588.05
910.1941	1748.9336	28414.3	27530.55
910.335	1750.634	28315.35	27428
910.4759	1752.3336	28337.8	27452.3
910.6168	1754.0325	28213.45	27330.5
910.7576	1755.7307	28232.9	27349.4
910.8984	1757.4281	28085.95	27201.1
911.0392	1759.1247	28164.3	27269.35
911.18	1760.8206	27968.8	27075.35
911.3208	1762.5158	27979.95	27090.35
911.4615	1764.2102	27907.7	27023.45
911.6022	1765.9039	27764.4	26878.8
911.7429	1767.5968	27724.05	26841.3
911.8836	1769.289	27632.45	26748.75
912.0243	1770.9804	27596.6	26710.95
912.1649	1772.6711	27582.85	26696.5
912.3056	1774.361	27462.8	26575.05
912.4462	1776.0502	27442.2	26555.6
912.5868	1777.7386	27337.3	26447.5
912.7274	1779.4263	27305.55	26418
912.8679	1781.1132	27274	26389.3
913.0084	1782.7994	27116.4	26230.45
913.149	1784.4849	27119.05	26236.15
913.2895	1786.1696	26994.5	26090.8
913.4299	1787.8535	27015.65	26135.2
913.5704	1789.5367	26954.45	26071.7
913.7108	1791.2192	26887.4	26002.45
913.8513	1792.9009	26752.15	25837.45
913.9917	1794.5818	26732.35	25844.4
914.132	1796.2621	26623.2	25739.05
914.2724	1797.9415	26585.4	25697.65
914.4128	1799.6202	26528.45	25644.85
914.5531	1801.2982	26463	25576.15
914.6934	1802.9755	26419.8	25533.1
914.8337	1804.6519	26358.75	25475.7
914.9739	1806.3277	26282.1	25398.6
915.1142	1808.0027	26141.5	25259.2
915.2544	1809.6769	26137.85	25253.05
915.3946	1811.3504	26099.35	25214.65
915.5348	1813.0231	25974.9	25091.1
915.675	1814.6951	25999.25	25114.9
915.8151	1816.3664	25950.85	25064.6
915.9553	1818.0369	25877.65	24992.1
916.0954	1819.7067	25789.85	24903.75
916.2355	1821.3757	25777.6	24892.75
916.3755	1823.044	25689.9	24802.5
916.5156	1824.7115	25650.35	24764.7
916.6556	1826.3783	25527.7	24644.8
916.7956	1828.0443	25523.3	24640.4
916.9356	1829.7096	25446	24560.8
917.0756	1831.3741	25369	24481.45
917.2155	1833.0379	25375.65	24491.35
917.3555	1834.701	25262.75	24377.7
917.4954	1836.3633	25231.75	24348.35
917.6353	1838.0248	25182.45	24296.8
917.7751	1839.6856	25155.45	24271.05
917.915	1841.3457	25133.85	24249.1
918.0548	1843.005	25073.65	24187.7
918.1946	1844.6636	25001.55	24116.05
918.3344	1846.3214	24908.6	24022.2
918.4742	1847.9785	24864.25	23980.1
918.6139	1849.6349	24814.75	23928.45
918.7537	1851.2904	24822.3	23927.85
918.8934	1852.9453	24720.2	23832.8
919.0331	1854.5994	24623.5	23736.65
919.1727	1856.2528	24644.1	23754.05
919.3124	1857.9054	24561.6	23676.9
919.452	1859.5572	24526.5	23642.6
919.5916	1861.2083	24500.6	23614.8
919.7312	1862.8587	24535.5	23651.1
919.8708	1864.5084	24427.2	23538.45
920.0103	1866.1572	24356.95	23473.7
920.1498	1867.8054	24212.45	23325.8
920.2893	1869.4528	24243.1	23358.5
920.4288	1871.0994	24125.2	23240.6
920.5683	1872.7453	24094.35	23208.45
920.7077	1874.3905	24036.4	23144.4
920.8471	1876.0349	23946.1	23059.15
920.9865	1877.6786	23932.15	23044.6
921.1259	1879.3215	23884.6	22998.25
921.2653	1880.9637	23842.05	22956.3
921.4046	1882.6051	23826.9	22942.8
921.5439	1884.2458	23747.35	22860.3
921.6832	1885.8858	23657.45	22771.85
921.8225	1887.525	23653.55	22767.3
921.9617	1889.1634	23551.65	22666.3
922.101	1890.8011	23517.9	22631.4
922.2402	1892.4381	23425.6	22541.8
922.3794	1894.0743	23444.6	22560.45
922.5185	1895.7098	23356.3	22471.75
922.6577	1897.3446	23295.7	22408.8
922.7968	1898.9786	23218.85	22330.45
922.9359	1900.6118	23204.5	22321.5
923.075	1902.2443	23087.1	22200.35
923.214	1903.8761	23036.95	22153.35
923.3531	1905.5071	22903.25	22018.65
923.4921	1907.1374	22816.6	21933.35
923.6311	1908.7669	22797	21914.65
923.77	1910.3957	22775	21891.15
923.909	1912.0237	22636.7	21752.05
924.0479	1913.651	22636.2	21749.65
924.1868	1915.2776	22558.3	21673.4
924.3257	1916.9034	22489.55	21606.65
924.4646	1918.5285	22369.45	21487.2
924.6034	1920.1528	22314.65	21428.75
924.7422	1921.7764	22295.65	21411.9
924.881	1923.3992	22189.85	21306.45
925.0198	1925.0213	22044.65	21160.75
925.1586	1926.6427	21998.45	21112.55
925.2973	1928.2633	22155.1	21024.25
925.436	1929.8832	21898.7	21010.9
925.5747	1931.5023	21766.7	20882.1
925.7134	1933.1207	21722.15	20836.95
925.852	1934.7383	21690.35	20805.5
925.9906	1936.3552	21596	20711.8
926.1292	1937.9714	21570.65	20684.45
926.2678	1939.5868	21479.05	20592.35
926.4064	1941.2015	21354.7	20471.05
926.5449	1942.8154	21306	20419.45
926.6834	1944.4286	21211.8	20327.3
926.8219	1946.041	21169.1	20260.75
926.9604	1947.6528	21078.8	20188.15
927.0988	1949.2637	21014.8	20132.25
927.2372	1950.8739	20932.05	20046.45
927.3756	1952.4834	20906.1	20019.85
927.514	1954.0921	20869.3	19984.3
927.6523	1955.7001	20777.35	19887.3
927.7907	1957.3074	20768	19886.15
927.929	1958.9139	20656.25	19774.85
928.0673	1960.5197	20610.6	19725.7
928.2055	1962.1247	20488.1	19604.85
928.3438	1963.729	20398.65	19517.95
928.482	1965.3325	20327.65	19421.75
928.6202	1966.9353	20277.75	19397.45
928.7584	1968.5374	20219.85	19334.2
928.8965	1970.1387	20156.5	19271.95
929.0346	1971.7393	20075.65	19191.4
929.1727	1973.3392	20031.6	19147.65
929.3108	1974.9383	19961.35	19077.95
929.4489	1976.5366	19869.1	18985.25
929.5869	1978.1342	19858.2	18974.85
929.7249	1979.7311	19765.5	18883.45
929.8629	1981.3273	19722.45	18839.5
930.0009	1982.9227	19685.55	18802.1
930.1388	1984.5173	19588.75	18707.05
930.2767	1986.1112	19489.35	18607.75
930.4146	1987.7044	19485.35	18602.15
930.5525	1989.2968	19440.6	18556.45
930.6904	1990.8885	19402.75	18517.5
930.8282	1992.4795	19357.05	18472.1
930.966	1994.0697	19283.05	18402.4
931.1038	1995.6592	19211	18327.8
931.2415	1997.2479	19176.05	18292.05
931.3793	1998.8359	19113.5	18229.85
931.517	2000.4232	19032	18152.75
931.6547	2002.0097	18995.6	18119.1
931.7923	2003.5955	18900.1	18019.35
931.93	2005.1805	18901	18018.05
932.0676	2006.7648	18829.45	17948.9
932.2052	2008.3484	18776.65	17894.1
932.3427	2009.9312	18789	17906.15
932.4803	2011.5133	18668.15	17787.35
932.6178	2013.0946	18638.15	17756.8
932.7553	2014.6752	18607.4	17726.5
932.8928	2016.2551	18520.75	17637.5
933.0302	2017.8342	18442.55	17562.45
933.1676	2019.4126	18379.1	17498.8
933.305	2020.9902	18338.15	17455.75
933.4424	2022.5672	18319.75	17436.1
933.5798	2024.1433	18266.9	17382
933.7171	2025.7188	18212.05	17333.3
933.8544	2027.2935	18167.25	17286.45
933.9917	2028.8674	18090.75	17211.15
934.129	2030.4406	18037.95	17160.35
934.2662	2032.0131	17932.45	17052.05
934.4034	2033.5849	17893.45	17008.4
934.5406	2035.1559	17859.4	16979.95
934.6778	2036.7261	17826.45	16944.35
934.8149	2038.2957	17784	16903.95
934.952	2039.8645	17733.4	16849.5
935.0891	2041.4325	17771.25	16887.25
935.2262	2042.9998	17648.4	16768
935.3632	2044.5664	17628.4	16747.6
935.5002	2046.1323	17570.95	16690.55
935.6372	2047.6974	17526.4	16646
935.7742	2049.2617	17481.95	16603.15
935.9111	2050.8254	17462.35	16575.75
936.048	2052.3883	17446.5	16564.55
936.1849	2053.9504	17359.15	16475.85
936.3218	2055.5118	17307.3	16424.9
936.4586	2057.0725	17260.55	16375.6
936.5955	2058.6325	17194.55	16314.15
936.7323	2060.1917	17148.45	16268.85
936.869	2061.7502	17114.9	16233.4
937.0058	2063.3079	17076.65	16195.95
937.1425	2064.8649	17007.2	16124.7
937.2792	2066.4212	16950.4	16068.55
937.4159	2067.9767	16917.6	16036.1
937.5525	2069.5315	16882.55	16002.9
937.6891	2071.0856	16802.05	15921.85
937.8257	2072.6389	16726.9	15844
937.9623	2074.1915	16631.25	15754.3
938.0989	2075.7433	16606.1	15723.8
938.2354	2077.2945	16586.4	15707.1
938.3719	2078.8448	16508.2	15625.9
938.5084	2080.3945	16467.1	15586.2
938.6448	2081.9434	16443.35	15561.45
938.7812	2083.4916	16390.2	15506.9
938.9176	2085.039	16351.1	15467.05
939.054	2086.5857	16289.1	15404.75
939.1903	2088.1317	16280.25	15396.5
939.3267	2089.677	16218.1	15334.95
939.463	2091.2215	16174.25	15290.95
939.5992	2092.7652	16120.3	15235.1
939.7355	2094.3083	16062.1	15176.25
939.8717	2095.8506	16049.85	15167.55
940.0079	2097.3921	16058.25	15176.65
940.1441	2098.933	16008.15	15123.45
940.2802	2100.4731	15945.45	15064
940.4163	2102.0124	15960.35	15059.85
940.5524	2103.5511	15920.55	15038.75
940.6885	2105.089	15884.65	15002.4
940.8245	2106.6261	15838.75	14956.65
940.9606	2108.1626	15798.45	14918.45
941.0965	2109.6983	15778.4	14866.95
941.2325	2111.2332	15732.4	14849.1
941.3684	2112.7675	15621.65	14737.25
941.5044	2114.301	15610.5	14726.45
941.6403	2115.8337	15598.35	14715.2
941.7761	2117.3657	15559.45	14675.8
941.912	2118.897	15530.25	14646.35
942.0478	2120.4276	15452.4	14564.1
942.1835	2121.9575	15391.05	14508.85
942.3193	2123.4866	15407.6	14511
942.455	2125.0149	15366.35	14481.95
942.5907	2126.5426	15266.3	14381.9
942.7264	2128.0695	15265.1	14383.15
942.8621	2129.5956	15191.8	14313.25
942.9977	2131.1211	15175.55	14291.2
943.1333	2132.6458	15138.95	14256.95
943.2689	2134.1698	15091.35	14207.7
943.4044	2135.693	15049.25	14162.7
943.54	2137.2155	15028.25	14142.15
943.6755	2138.7373	14992.4	14111.9
943.8109	2140.2584	14935.75	14053.8
943.9464	2141.7787	14890.2	14003.55
944.0818	2143.2983	14844.7	13965.95
944.2172	2144.8171	14779.1	13897.7
944.3526	2146.3353	14741.3	13856.55
944.4879	2147.8527	14675	13794
944.6232	2149.3693	14692.2	13808.6
944.7585	2150.8853	14624.4	13741.4
944.8938	2152.4005	14561.5	13678.9
945.029	2153.9149	14577.75	13693.35
945.1642	2155.4287	14502.55	13621.25
945.2994	2156.9417	14462.35	13578.7
945.4346	2158.454	14430.7	13547.9
945.5697	2159.9655	14368.25	13485.7
945.7048	2161.4764	14362.5	13479.3
945.8399	2162.9865	14297.85	13415.55
945.9749	2164.4958	14299.1	13415.7
946.1099	2166.0045	14222	13337.05
946.2449	2167.5124	14193.85	13310.9
946.3799	2169.0195	14168.1	13286.45
946.5148	2170.526	14156.65	13272.4
946.6498	2172.0317	14115.75	13235.1
946.7846	2173.5367	14051.4	13166.25
946.9195	2175.0409	14005.2	13125.6
947.0543	2176.5445	14034.65	13151.75
947.1891	2178.0473	13942	13060.4
947.3239	2179.5494	13909.2	13020.65
947.4587	2181.0507	13802.2	12919.7
947.5934	2182.5513	13790.45	12906.55
947.7281	2184.0512	13781.85	12899.3
947.8628	2185.5504	13725.4	12842.35
947.9974	2187.0488	13616.9	12734.55
948.132	2188.5465	13592.8	12712.2
948.2666	2190.0435	13543	12659.95
948.4012	2191.5397	13526.25	12643.4
948.5357	2193.0353	13499.75	12618.6
948.6702	2194.5301	13451	12567.2
948.8047	2196.0241	13390.6	12507.2
948.9392	2197.5175	13366.45	12483.25
949.0736	2199.0101	13314.55	12427.65
949.208	2200.502	13237.05	12353
949.3424	2201.9931	13209.75	12328.25
949.4767	2203.4835	13180.25	12296.6
949.611	2204.9733	13148.35	12261.3
949.7453	2206.4622	13128.2	12247.65
949.8796	2207.9505	13070.05	12186.55
950.0138	2209.438	12988.35	12110.45
950.148	2210.9248	12937.25	12053.95
950.2822	2212.4109	12926.9	12046.3
950.4164	2213.8962	12893.35	12007.4
950.5505	2215.3809	12861.75	11976.5
950.6846	2216.8648	12822.35	11938.2
950.8186	2218.3479	12771.7	11883.1
950.9527	2219.8304	12723.1	11835.2
951.0867	2221.3121	12702.5	11814.8
951.2207	2222.7931	12639.45	11756.25
951.3546	2224.2733	12592.6	11707.75
951.4886	2225.7529	12572.5	11689.5
951.6225	2227.2317	12532.75	11646.6
951.7563	2228.7098	12507.85	11628.4
951.8902	2230.1872	12438	11556.7
952.024	2231.6638	12422	11543.05
952.1578	2233.1397	12383.85	11496.95
952.2916	2234.6149	12350.25	11468.55
952.4253	2236.0894	12317.75	11433.9
952.559	2237.5632	12299.8	11406.95
952.6927	2239.0362	12245.75	11363.35
952.8263	2240.5085	12196.25	11314.15
952.9599	2241.9801	12170.15	11286.25
953.0935	2243.4509	12112.5	11230.55
953.2271	2244.921	12060.8	11177.15
953.3606	2246.3904	12025.75	11139.65
953.4941	2247.8591	11995.05	11111.75
953.6276	2249.3271	11968.65	11086.25
953.7611	2250.7943	11922.2	11038.7
953.8945	2252.2608	11879.6	10997.15
954.0279	2253.7266	11813.55	10930.2
954.1612	2255.1917	11823.7	10940.9
954.2946	2256.656	11804.4	10921
954.4279	2258.1197	11751.2	10870.35
954.5612	2259.5826	11708.1	10825.2
954.6944	2261.0447	11711.15	10829.2
954.8276	2262.5062	11648.65	10764
954.9608	2263.9669	11637.5	10752.2
955.094	2265.4269	11595.15	10710.95
955.2271	2266.8862	11565.85	10682.95
955.3602	2268.3448	11524.7	10642.65
955.4933	2269.8026	11514.2	10630.65
955.6264	2271.2598	11471.15	10587.75
955.7594	2272.7162	11435.2	10555.4
955.8924	2274.1719	11401.1	10518.35
956.0253	2275.6268	11373.85	10490.2
956.1583	2277.0811	11364	10479.8
956.2912	2278.5346	11335.15	10454.65
956.4241	2279.9874	11306.35	10423.9
956.5569	2281.4395	11289.15	10408.3
956.6897	2282.8908	11242.2	10355.15
956.8225	2284.3414	11233.05	10347.25
956.9553	2285.7914	11161.2	10278.55
957.088	2287.2406	11131.6	10245.2
957.2207	2288.689	11108.85	10224.85
957.3534	2290.1368	11061.6	10178.45
957.486	2291.5838	11033.35	10146.6
957.6186	2293.0302	11015.8	10129.3
957.7512	2294.4758	10982.15	10099.05
957.8838	2295.9206	10917.15	10032.4
958.0163	2297.3648	10874.15	9990.4
958.1488	2298.8082	10879.7	9993.45
958.2813	2300.251	10830	9947.3
958.4137	2301.693	10790.25	9904.4
958.5461	2303.1343	10820	9935.75
958.6785	2304.5748	10784.8	9901.7
958.8108	2306.0147	10746.85	9864.65
958.9432	2307.4538	10691.75	9808.6
959.0754	2308.8922	10681.6	9801.65
959.2077	2310.3299	10642.4	9761.6
959.3399	2311.7669	10603.35	9720.7
959.4721	2313.2031	10591.6	9707.95
959.6043	2314.6387	10539.9	9655.4
959.7365	2316.0735	10484.35	9600.75
959.8686	2317.5076	10482.25	9599.1
960.0006	2318.941	10484.9	9600.95
960.1327	2320.3737	10451.3	9566.6
960.2647	2321.8056	10394.05	9507.65
960.3967	2323.2369	10368.8	9482.65
960.5287	2324.6674	10345.4	9461
960.6606	2326.0972	10291.4	9406.4
960.7925	2327.5263	10244.35	9361.3
960.9244	2328.9547	10220.9	9336.45
961.0562	2330.3823	10216.45	9330.3
961.1881	2331.8092	10192.6	9304.65
961.3198	2333.2355	10135.55	9252.2
961.4516	2334.661	10118.2	9232.7
961.5833	2336.0858	10139.05	9253.8
961.715	2337.5098	10075.1	9190.95
961.8467	2338.9332	10071.4	9187.75
961.9783	2340.3558	10015.8	9132.1
962.1099	2341.7778	9986.8	9103.4
962.2415	2343.199	9957.3	9071.95
962.373	2344.6195	9913.15	9029.1
962.5045	2346.0393	9913.3	9030.75
962.636	2347.4583	9894.15	9010.9
962.7675	2348.8767	9841.75	8958.45
962.8989	2350.2943	9807.45	8924.3
963.0303	2351.7113	9800.6	8913.85
963.1617	2353.1275	9776	8890.3
963.293	2354.543	9742.65	8849.25
963.4243	2355.9578	9722.9	8837.2
963.5556	2357.3718	9680.25	8796.05
963.6868	2358.7852	9618.9	8732.95
963.818	2360.1978	9596.65	8711.1
963.9492	2361.6098	9566.6	8684.25
964.0803	2363.021	9513.25	8626.4
964.2114	2364.4315	9507.95	8625.25
964.3425	2365.8413	9469	8583.3
964.4736	2367.2504	9445.35	8562.95
964.6046	2368.6587	9412.35	8530.5
964.7356	2370.0664	9383.15	8501.35
964.8666	2371.4733	9354.6	8470.9
964.9975	2372.8795	9330.1	8449.3
965.1284	2374.285	9268.1	8382.25
965.2593	2375.6899	9237.6	8356.65
965.3901	2377.0939	9167.2	8284.4
965.5209	2378.4973	9151.65	8268.5
965.6517	2379.9	9148.8	8265.95
965.7825	2381.3019	9109.4	8227.25
965.9132	2382.7032	9100.05	8218.55
966.0439	2384.1037	9083.4	8202.7
966.1745	2385.5035	9034.55	8153.05
966.3051	2386.9027	8991.1	8110.65
966.4357	2388.3011	8973.15	8086.25
966.5663	2389.6987	8957.1	8071.95
966.6968	2391.0957	8931.35	8048.7
966.8273	2392.492	8886.3	8004.85
966.9578	2393.8876	8850.2	7967.85
967.0882	2395.2824	8821.55	7939.2
967.2186	2396.6765	8763.35	7880.15
967.349	2398.07	8724	7839.25
967.4793	2399.4627	8726.25	7841.85
967.6097	2400.8547	8694.55	7810.85
967.7399	2402.246	8672.15	7783.35
967.8702	2403.6366	8633.6	7751.5
968.0004	2405.0265	8585.4	7703.95
968.1306	2406.4156	8570.85	7683.4
968.2607	2407.8041	8536.8	7650.05
968.3909	2409.1918	8484.9	7597.5
968.521	2410.5789	8470	7586.65
968.651	2411.9652	8441.3	7554.75
968.781	2413.3508	8418.8	7534.6
968.911	2414.7358	8398.55	7514
969.041	2416.12	8344.2	7460.95
969.1709	2417.5035	8340.6	7456.2
969.3008	2418.8863	8312.6	7426.8
969.4307	2420.2684	8284.5	7400.5
969.5606	2421.6497	8228.25	7343.95
969.6904	2423.0304	8179.1	7295.9
969.8201	2424.4104	8193.35	7309.4
969.9499	2425.7896	8188.15	7301.45
970.0796	2427.1682	8150.1	7265.85
970.2093	2428.546	8126.7	7241.55
970.3389	2429.9232	8120.3	7237.1
970.4685	2431.2996	8067	7183.4
970.5981	2432.6753	8075.65	7192.45
970.7277	2434.0503	8041.2	7159.15
970.8572	2435.4246	7989.3	7106.85
970.9867	2436.7982	7970.05	7082.75
971.1161	2438.1711	7949.85	7066.1
971.2456	2439.5433	7939.2	7052.8
971.375	2440.9148	7899.7	7010.05
971.5043	2442.2856	7877.5	6991.75
971.6336	2443.6557	7849.9	6966.15
971.7629	2445.025	7833	6949.75
971.8922	2446.3937	7811.1	6926.65
972.0214	2447.7617	7786.45	6902.5
972.1506	2449.1289	7771.6	6889.95
972.2798	2450.4955	7738.05	6853.7
972.4089	2451.8613	7732	6848.9
972.538	2453.2265	7698.65	6813.7
972.6671	2454.5909	7677.5	6793.95
972.7961	2455.9546	7652.15	6769.8
972.9251	2457.3177	7633.55	6751
973.0541	2458.68	7620.05	6736.6
973.1831	2460.0416	7599.85	6717.3
973.312	2461.4025	7594.9	6710.05
973.4408	2462.7627	7588.4	6694.65
973.5697	2464.1222	7552.1	6669.05
973.6985	2465.4811	7549.9	6666.45
973.8273	2466.8392	7508.8	6625.55
973.956	2468.1966	7492.35	6606.8
974.0847	2469.5533	7476.75	6589.85
974.2134	2470.9093	7448.55	6566.9
974.3421	2472.2645	7419.9	6535.85
974.4707	2473.6191	7406.1	6523.35
974.5993	2474.973	7359.75	6477.65
974.7278	2476.3262	7343.7	6457.35
974.8563	2477.6787	7333.05	6451.45
974.9848	2479.0305	7296.5	6413.35
975.1132	2480.3816	7266.7	6382.9
975.2417	2481.7319	7234.45	6349.25
975.37	2483.0816	7222.2	6338.3
975.4984	2484.4306	7188.4	6305.6
975.6267	2485.7789	7171.85	6290.05
975.755	2487.1264	7156.2	6271.15
975.8833	2488.4733	7113.6	6231.75
976.0115	2489.8195	7099.5	6208.6
976.1397	2491.165	7064.8	6177.1
976.2678	2492.5097	7039.15	6153.6
976.3959	2493.8538	7037.85	6155.1
976.524	2495.1972	6983.95	6099.75
976.6521	2496.5398	6934.45	6049.35
976.7801	2497.8818	6945.1	6059
976.9081	2499.2231	6928.85	6046.2
977.036	2500.5637	6902.75	6017.85
977.164	2501.9035	6886.5	6002.95
977.2918	2503.2427	6865.45	5977.4
977.4197	2504.5812	6858.2	5976.35
977.5475	2505.919	6838.55	5953.45
977.6753	2507.256	6816.9	5934.05
977.8031	2508.5924	6772.35	5888.75
977.9308	2509.9281	6765.1	5874.35
978.0585	2511.2631	6740.25	5856.95
978.1861	2512.5974	6698.75	5814.4
978.3137	2513.9309	6695.4	5813.8
978.4413	2515.2638	6709.7	5797.5
978.5689	2516.596	6654.25	5772
978.6964	2517.9275	6623.25	5737.5
978.8239	2519.2583	6630.45	5746.65
978.9513	2520.5884	6586.5	5701.7
979.0788	2521.9178	6555.45	5671.85
979.2062	2523.2465	6550.8	5669.1
979.3335	2524.5745	6520.65	5639.15
979.4608	2525.9018	6520.9	5638.1
979.5881	2527.2284	6499.45	5617.65
979.7154	2528.5543	6475.5	5591.7
979.8426	2529.8796	6445.5	5563.6
979.9698	2531.2041	6430.65	5547.6
980.0969	2532.5279	6420.9	5539.9
980.224	2533.851	6419.05	5534.7
980.3511	2535.1735	6405.25	5520.95
980.4781	2536.4952	6384	5500.6
980.6052	2537.8163	6343.3	5458.4
980.7321	2539.1366	6326.25	5442.4
980.8591	2540.4562	6345.05	5462.5
980.986	2541.7752	6330.75	5449.3
981.1129	2543.0935	6310.45	5428.4
981.2397	2544.411	6300.85	5417.1
981.3665	2545.7279	6273.45	5389.95
981.4933	2547.0441	6272.95	5387.2
981.62	2548.3596	6270.6	5383.65
981.7467	2549.6744	6235.75	5352.1
981.8734	2550.9885	6237.05	5346.25
982.0001	2552.3019	6187.15	5303.45
982.1267	2553.6146	6191.85	5308.35
982.2532	2554.9266	6168.9	5284.4
982.3798	2556.2379	6152.8	5269.2
982.5063	2557.5485	6150.4	5268
982.6327	2558.8585	6134.75	5246.05
982.7592	2560.1677	6124.65	5238.8
982.8856	2561.4762	6090.5	5207.65
983.0119	2562.7841	6120.5	5232.75
983.1383	2564.0913	6086.9	5204.55
983.2646	2565.3977	6081.75	5198.8
983.3908	2566.7035	6063.25	5179.05
983.517	2568.0086	6040.35	5156.65
983.6432	2569.313	6027.55	5142.85
983.7694	2570.6167	6016.4	5130
983.8955	2571.9197	6011.25	5127.7
984.0216	2573.222	5998.85	5112.45
984.1476	2574.5236	5978.15	5095.5
984.2737	2575.8246	5964.7	5079.95
984.3996	2577.1248	5943.9	5059
984.5256	2578.4244	5951.95	5067.85
984.6515	2579.7232	5946.25	5062.6
984.7774	2581.0214	5937.95	5029.4
984.9032	2582.3189	5893.8	5011.95
985.029	2583.6157	5904.45	5017.7
985.1548	2584.9118	5876	4994.25
985.2806	2586.2072	5873.9	4989.55
985.4063	2587.5019	5830.45	4946.75
985.5319	2588.7959	5819.05	4935.2
985.6576	2590.0893	5833.3	4949.35
985.7832	2591.3819	5807.65	4924.85
985.9087	2592.6739	5758.5	4875.6
986.0343	2593.9652	5760.2	4874.3
986.1597	2595.2557	5745.55	4862.9
986.2852	2596.5456	5747.1	4862.5
986.4106	2597.8348	5717.9	4835.65
986.536	2599.1234	5695.8	4811.85
986.6614	2600.4112	5683.5	4799.9
986.7867	2601.6983	5643.55	4756.1
986.912	2602.9848	5621.2	4738.35
987.0372	2604.2705	5613.2	4722.1
987.1624	2605.5556	5601.35	4717.85
987.2876	2606.84	5560.35	4677.05
987.4128	2608.1237	5563.25	4681.2
987.5379	2609.4067	5528.75	4645.3
987.6629	2610.689	5528.8	4637.3
987.788	2611.9707	5512.65	4625.3
987.913	2613.2516	5486.35	4601
988.0379	2614.5319	5466.5	4582.65
988.1629	2615.8115	5440.05	4554.1
988.2878	2617.0903	5412.3	4528.05
988.4126	2618.3685	5390.55	4507.7
988.5375	2619.6461	5378.95	4496.5
988.6622	2620.9229	5376.6	4491.95
988.787	2622.199	5359.6	4476.75
988.9117	2623.4745	5354.8	4470.6
989.0364	2624.7493	5328.85	4444.8
989.161	2626.0234	5289	4407.45
989.2857	2627.2968	5291.05	4407.65
989.4102	2628.5695	5269.35	4384.5
989.5348	2629.8415	5242.15	4358.4
989.6593	2631.1128	5232.15	4346.5
989.7837	2632.3835	5227.1	4345.3
989.9082	2633.6535	5187.8	4305.65
990.0326	2634.9228	5190.9	4308.75
990.1569	2636.1914	5161.35	4278.95
990.2812	2637.4593	5155.15	4265.15
990.4055	2638.7265	5124	4238.95
990.5298	2639.9931	5120.45	4237.3
990.654	2641.259	5104.4	4221.55
990.7782	2642.5242	5089.2	4205.4
990.9023	2643.7887	5076.8	4193.05
991.0264	2645.0525	5077.15	4197.2
991.1505	2646.3156	5058.95	4173.9
991.2745	2647.5781	5019.9	4138.15
991.3985	2648.8398	5018.85	4136.45
991.5225	2650.1009	5013.9	4121.1
991.6464	2651.3613	5002	4120.65
991.7703	2652.6211	4988.7	4104.45
991.8942	2653.8801	4969.25	4087.6
992.018	2655.1385	4955.35	4069.7
992.1418	2656.3961	4947.75	4065.7
992.2655	2657.6531	4926.15	4044.55
992.3892	2658.9094	4916.95	4033.05
992.5129	2660.1651	4908.7	4027.55
992.6366	2661.42	4896.95	4013.6
992.7602	2662.6743	4881.35	3998.25
992.8837	2663.9279	4874.5	3991.2
993.0073	2665.1808	4848.7	3966.4
993.1307	2666.433	4841.4	3956.45
993.2542	2667.6846	4824	3941.35
993.3776	2668.9354	4829.4	3944.15
993.501	2670.1856	4798.4	3914.7
993.6244	2671.4351	4797.85	3912.9
993.7477	2672.6839	4813.65	3930
993.8709	2673.9321	4768.4	3886.8
993.9942	2675.1795	4761	3879.05
994.1174	2676.4263	4743.1	3862.45
994.2405	2677.6724	4714.5	3832.4
994.3637	2678.9179	4717.95	3835.45
994.4868	2680.1626	4707.9	3826.1
994.6098	2681.4067	4689.45	3807.35
994.7328	2682.6501	4675.9	3791.65
994.8558	2683.8928	4667.25	3783
994.9788	2685.1348	4661.7	3778.15
995.1017	2686.3761	4626.3	3742.65
995.2245	2687.6168	4618.1	3734
995.3474	2688.8568	4599.65	3718.15
995.4702	2690.0961	4582.25	3702.7
995.5929	2691.3348	4591.1	3706.9
995.7156	2692.5727	4560.45	3678.65
995.8383	2693.81	4551.4	3669.1
995.961	2695.0466	4550.6	3670.1
996.0836	2696.2826	4510.6	3627.2
996.2062	2697.5178	4535.75	3636.4
996.3287	2698.7524	4514.15	3633.3
996.4512	2699.9863	4496.6	3613.1
996.5737	2701.2195	4486.65	3602.4
996.6961	2702.452	4469.35	3585.45
996.8185	2703.6839	4454.35	3570.1
996.9408	2704.9151	4442.05	3560.95
997.0631	2706.1456	4432.3	3548.2
997.1854	2707.3755	4426.7	3543.5
997.3077	2708.6046	4418.75	3535.6
997.4299	2709.8331	4419.55	3535.35
997.552	2711.0609	4389.4	3506.35
997.6742	2712.2881	4384.5	3500.45
997.7963	2713.5145	4373	3488.8
997.9183	2714.7403	4373.85	3493.55
998.0403	2715.9654	4350.5	3468.1
998.1623	2717.1899	4349.05	3453.2
998.2842	2718.4136	4326.5	3444.65
998.4062	2719.6367	4312.35	3427.35
998.528	2720.8591	4306.25	3416.35
998.6498	2722.0809	4290.65	3409.45
998.7716	2723.3019	4278.9	3394.6
998.8934	2724.5223	4270	3387.1
999.0151	2725.7421	4261.7	3376.05
999.1368	2726.9611	4254.95	3370.9
999.2584	2728.1795	4239.2	3348.85
999.38	2729.3972	4236.2	3353.35
999.5016	2730.6142	4221.2	3324.65
999.6231	2731.8306	4182	3299.65
999.7446	2733.0462	4161.2	3277.65
999.8661	2734.2612	4161.25	3274.95
999.9875	2735.4756	4130.8	3245
1000.1089	2736.6892	4103.3	3221.55
1000.2302	2737.9022	4080.65	3199.55
1000.3515	2739.1145	4082.55	3200.05
1000.4728	2740.3262	4070	3177.6
1000.594	2741.5372	4040.6	3159.7
1000.7152	2742.7475	4025.65	3142.35
1000.8363	2743.9571	4027.85	3143.7
1000.9575	2745.1661	4015.1	3127.15
1001.0785	2746.3744	3986.15	3102.95
1001.1996	2747.582	3985.85	3104.35
1001.3206	2748.7889	3954.75	3068.85
1001.4415	2749.9952	3946.75	3065.3
1001.5625	2751.2008	3940	3055.3
1001.6833	2752.4057	3916.85	3034.2
1001.8042	2753.61	3906.25	3024.45
1001.925	2754.8136	3909.2	3024.3
1002.0458	2756.0165	3887.65	3007.1
1002.1665	2757.2188	3875.4	2994.85
1002.2872	2758.4204	3869.3	2986.65
1002.4078	2759.6213	3850.75	2966
1002.5285	2760.8215	3854.4	2968.45
1002.649	2762.0211	3829.9	2945.4
1002.7696	2763.22	3821.2	2935.1
1002.8901	2764.4182	3795.45	2912.05
1003.0106	2765.6158	3797.8	2914.1
1003.131	2766.8127	3777.6	2894.6
1003.2514	2768.009	3767.6	2886.75
1003.3717	2769.2045	3759.75	2877.1
1003.492	2770.3994	3751.35	2867.1
1003.6123	2771.5936	3733	2851
1003.7325	2772.7872	3721.45	2841.2
1003.8527	2773.9801	3708.45	2823.75
1003.9729	2775.1723	3715.9	2817
1004.093	2776.3639	3690.45	2807.55
1004.2131	2777.5548	3679.15	2795.65
1004.3331	2778.745	3677.75	2795
1004.4531	2779.9346	3654.05	2772.55
1004.5731	2781.1235	3646.6	2762.3
1004.693	2782.3117	3648.8	2768.5
1004.8129	2783.4992	3630.9	2751.6
1004.9328	2784.6861	3629.35	2748.1
1005.0526	2785.8723	3615.8	2732.55
1005.1723	2787.0579	3607.15	2725.2
1005.2921	2788.2428	3591.85	2710.3
1005.4118	2789.427	3590.5	2709.35
1005.5314	2790.6106	3577.05	2693.2
1005.651	2791.7935	3558.5	2677.6
1005.7706	2792.9757	3564.35	2682.7
1005.8902	2794.1573	3554.8	2672.9
1006.0097	2795.3382	3533.95	2653
1006.1291	2796.5184	3534.65	2654.55
1006.2485	2797.698	3540.35	2656.05
1006.3679	2798.8769	3521.85	2643.5
1006.4873	2800.0551	3511.65	2631.15
1006.6066	2801.2327	3506.8	2623.45
1006.7258	2802.4096	3516.55	2636.1
1006.8451	2803.5859	3506.05	2624.15
1006.9642	2804.7615	3498.65	2614.25
1007.0834	2805.9364	3493.15	2613
1007.2025	2807.1106	3494.6	2614.95
1007.3216	2808.2842	3473.85	2593.3
1007.4406	2809.4572	3497.8	2616.7
1007.5596	2810.6294	3504.7	2620.85
1007.6785	2811.801	3501.4	2622
1007.7975	2812.972	3513.1	2631.6
1007.9163	2814.1423	3537.5	2656.4
1008.0352	2815.3119	3526.7	2644.3
1008.154	2816.4808	3542.15	2661.55
1008.2727	2817.6491	3554.2	2670.85
1008.3914	2818.8167	3563.4	2682.1
1008.5101	2819.9837	3575.05	2689.1
1008.6288	2821.15	3591.4	2711.35
1008.7474	2822.3157	3597.6	2716.55
1008.8659	2823.4807	3630.2	2747.85
1008.9844	2824.645	3656.05	2774.7
1009.1029	2825.8086	3655.1	2775.85
1009.2214	2826.9716	3687.8	2806.3
1009.3398	2828.134	3706.5	2826.3
1009.4581	2829.2957	3707.05	2825.35
1009.5764	2830.4567	3722.6	2844.8
1009.6947	2831.617	3724.7	2843.05
1009.813	2832.7767	3721.1	2842.8
1009.9312	2833.9358	3717.4	2837.95
1010.0493	2835.0941	3705.5	2822.2
1010.1675	2836.2519	3702.45	2820.4
1010.2855	2837.4089	3671.5	2788.4
1010.4036	2838.5653	3662.85	2783
1010.5216	2839.7211	3654.3	2776.65
1010.6396	2840.8761	3645.6	2762.85
1010.7575	2842.0306	3645.6	2767.15
1010.8754	2843.1843	3652.05	2771
1010.9932	2844.3374	3653.35	2772.9
1011.111	2845.4899	3656.9	2774.75
1011.2288	2846.6417	3682	2802.3
1011.3465	2847.7928	3697.7	2817.75
1011.4642	2848.9433	3720.05	2837.1
1011.5818	2850.0931	3741.4	2861.3
1011.6995	2851.2422	3761.45	2879.9
1011.817	2852.3907	3778.95	2898.7
1011.9345	2853.5385	3808.4	2926
1012.052	2854.6857	3827.7	2935.55
1012.1695	2855.8323	3827.2	2949.25
1012.2869	2856.9781	3842.6	2960.25
1012.4042	2858.1233	3857.5	2979.1
1012.5216	2859.2679	3852.3	2969.1
1012.6389	2860.4118	3887.85	3007.45
1012.7561	2861.555	3894.6	3007.65
1012.8733	2862.6976	3900.15	3017.8
1012.9905	2863.8395	3896.85	3016
1013.1076	2864.9808	3904.1	3022.85
1013.2247	2866.1214	3909.75	3029.25
1013.3417	2867.2614	3910.05	3029.25
1013.4587	2868.4007	3903.7	3023.65
1013.5757	2869.5393	3912	3029.65
1013.6926	2870.6773	3907.05	3026
1013.8095	2871.8146	3892.85	3009.15
1013.9263	2872.9513	3870.15	2987.95
1014.0431	2874.0874	3863.15	2983.6
1014.1599	2875.2227	3850	2966.5
1014.2766	2876.3574	3847.55	2964.8
1014.3933	2877.4915	3827.55	2948.8
1014.51	2878.6249	3782.95	2904.15
1014.6266	2879.7577	3778.65	2894.15
1014.7431	2880.8898	3777.1	2886.85
1014.8596	2882.0212	3762.9	2883.35
1014.9761	2883.152	3737.25	2856.35
1015.0925	2884.2821	3722.05	2842.05
1015.2089	2885.4116	3706.85	2828.25
1015.3253	2886.5405	3700.45	2818.05
1015.4416	2887.6686	3707.75	2825.8
1015.5579	2888.7962	3689.2	2810.5
1015.6741	2889.923	3684.75	2803.1
1015.7903	2891.0493	3694.5	2813.65
1015.9065	2892.1748	3686.3	2806
1016.0226	2893.2997	3690.65	2809.9
1016.1387	2894.424	3677.2	2796.9
1016.2547	2895.5476	3683.05	2802.2
1016.3707	2896.6706	3680.4	2800.4
1016.4866	2897.7929	3693.1	2813.85
1016.6025	2898.9145	3679.85	2799.6
1016.7184	2900.0355	3688.5	2805.6
1016.8342	2901.1559	3679.85	2799.65
1016.95	2902.2756	3694.4	2814.15
1017.0658	2903.3946	3706.1	2824.35
1017.1815	2904.513	3713.2	2832.85
1017.2971	2905.6308	3705.7	2824.6
1017.4127	2906.7479	3688.8	2807.25
1017.5283	2907.8643	3705.3	2823.7
1017.6439	2908.9801	3698.85	2819.05
1017.7594	2910.0953	3682.85	2804.2
1017.8748	2911.2098	3681.3	2797.15
1017.9902	2912.3236	3674	2787.45
1018.1056	2913.4368	3685.8	2802.4
1018.2209	2914.5494	3659.2	2777.6
1018.3362	2915.6613	3634.75	2747.4
1018.4515	2916.7725	3621	2735.6
1018.5667	2917.8831	3597.8	2717.5
1018.6819	2918.9931	3571.95	2686.5
1018.797	2920.1024	3564.95	2684.95
1018.9121	2921.211	3548.8	2669.15
1019.0271	2922.319	3524.6	2643.1
1019.1421	2923.4264	3524.6	2644.55
1019.2571	2924.5331	3509.55	2630.05
1019.372	2925.6391	3502.05	2621.05
1019.4869	2926.7445	3492.25	2613.4
1019.6017	2927.8493	3481.3	2599.15
1019.7165	2928.9534	3480.55	2599.6
1019.8313	2930.0569	3476.3	2592.6
1019.946	2931.1597	3469.5	2588.25
1020.0606	2932.2619	3463.15	2582.1
1020.1753	2933.3634	3467.75	2585.85
1020.2899	2934.4643	3471.6	2586.3
1020.4044	2935.5645	3451.4	2563.55
1020.5189	2936.6641	3441.3	2557.35
1020.6334	2937.763	3419.25	2539.85
1020.7478	2938.8613	3394.15	2512
1020.8622	2939.959	3361.25	2477.3
1020.9765	2941.056	3328.15	2449.4
1021.0908	2942.1523	3302.05	2419.8
1021.2051	2943.248	3252.95	2371.8
1021.3193	2944.3431	3206.15	2325.25
1021.4334	2945.4375	3166.45	2287.05
1021.5476	2946.5313	3118.5	2239.2
1021.6617	2947.6244	3062.95	2181
1021.7757	2948.7169	3029.75	2149.55
1021.8897	2949.8087	2974.9	2094.2
1022.0037	2950.8999	2929.15	2048.55
1022.1176	2951.9904	2897.45	2016.4
1022.2315	2953.0803	2855.2	1973.9
1022.3453	2954.1696	2815.3	1934.25
1022.4591	2955.2582	2794.4	1914.75
1022.5728	2956.3462	2765.3	1883.6
1022.6865	2957.4335	2746.25	1865.95
1022.8002	2958.5202	2720.3	1837.6
1022.9138	2959.6062	2702.35	1822.2
1023.0274	2960.6916	2697.3	1817.95
1023.141	2961.7764	2681.35	1799.5
1023.2545	2962.8605	2658.2	1777.35
1023.3679	2963.9439	2644.7	1764.15
1023.4813	2965.0267	2632.6	1751.1
1023.5947	2966.1089	2648.15	1745.95
1023.708	2967.1905	2630.1	1751.5
1023.8213	2968.2714	2616.25	1736.75
1023.9346	2969.3516	2605.05	1724.5
1024.0478	2970.4312	2614.7	1728.05
1024.1609	2971.5102	2600.15	1719.65
1024.274	2972.5885	2589.8	1709.25
1024.3871	2973.6662	2597.65	1712.05
1024.5002	2974.7432	2586.45	1707.65
1024.6132	2975.8196	2585.2	1703.9
1024.7261	2976.8954	2556.85	1679.35
1024.839	2977.9705	2551.75	1670.95
1024.9519	2979.045	2551.8	1672.85
1025.0647	2980.1188	2535.95	1657.7
1025.1775	2981.192	2528.65	1651.05
1025.2902	2982.2645	2509.75	1628.2
1025.4029	2983.3364	2506.1	1624.6
1025.5156	2984.4077	2486.6	1606.85
1025.6282	2985.4783	2469.35	1582.75
1025.7407	2986.5483	2438.6	1559.4
1025.8532	2987.6177	2418.35	1538.15
1025.9657	2988.6864	2409.55	1527.6
1026.0782	2989.7545	2397.2	1516
1026.1906	2990.8219	2383.85	1502.55
1026.3029	2991.8887	2353.25	1472.35
1026.4152	2992.9548	2334.5	1453.8
1026.5275	2994.0204	2312.7	1432.8
1026.6397	2995.0852	2292.55	1415.25
1026.7519	2996.1495	2288.4	1409.05
1026.864	2997.2131	2267.35	1387.3
1026.9761	2998.276	2242.85	1362.15
1027.0882	2999.3383	2234.85	1353.7
1027.2002	3000.4	2219.85	1340.5
1027.3122	3001.4611	2203.35	1322.55
1027.4241	3002.5215	2196.9	1317.4
1027.536	3003.5812	2189.2	1307.45
1027.6478	3004.6404	2166.5	1287.7
1027.7596	3005.6989	2170.45	1286.85
1027.8714	3006.7567	2155.25	1273.85
1027.9831	3007.8139	2175.45	1273.2
1028.0947	3008.8705	2135.5	1254.45
1028.2064	3009.9264	2131.85	1246.55
1028.3179	3010.9818	2141.9	1261.5
1028.4295	3012.0364	2123.9	1242.3
1028.541	3013.0905	2119.75	1239.5
1028.6524	3014.1439	2107.65	1228.25
1028.7638	3015.1966	2107.15	1230.1
1028.8752	3016.2487	2095.8	1216.5
1028.9865	3017.3002	2091.4	1208.85
1029.0978	3018.3511	2081.2	1202.65
1029.209	3019.4013	2075.45	1196.65
1029.3202	3020.4509	2068.75	1189.5
1029.4314	3021.4998	2081.5	1203.35
1029.5425	3022.5481	2066.25	1186.05
1029.6535	3023.5958	2064.6	1185.15
1029.7645	3024.6428	2060	1177.05
1029.8755	3025.6892	2036.85	1158.45
1029.9864	3026.735	2040.2	1159.25
1030.0973	3027.7802	2039.65	1161.3
1030.2082	3028.8247	2034.85	1155.1
1030.319	3029.8685	2027.55	1147.15
1030.4297	3030.9118	2027.55	1146.05
1030.5404	3031.9544	2021	1140.8
1030.6511	3032.9963	2013.75	1135.45
1030.7617	3034.0376	2021.95	1140.45
1030.8723	3035.0783	2006.1	1124.6
1030.9829	3036.1184	2006.45	1126
1031.0934	3037.1578	1998.55	1120.15
1031.2038	3038.1966	2003.85	1121.95
1031.3142	3039.2348	1999.05	1120.6
1031.4246	3040.2723	1996.65	1107.05
1031.5349	3041.3092	1981.15	1102.65
1031.6452	3042.3455	1976.65	1097.95
1031.7554	3043.3811	1976.45	1097.2
1031.8656	3044.4161	1979.1	1098.1
1031.9758	3045.4505	1972.7	1093.8
1032.0859	3046.4842	1965.75	1084.75
1032.1959	3047.5173	1961.2	1082.25
1032.3059	3048.5498	1951.4	1072.65
1032.4159	3049.5816	1950.1	1069.15
1032.5258	3050.6128	1951.85	1070.95
1032.6357	3051.6434	1947	1064.85
1032.7455	3052.6734	1939.9	1058.25
1032.8553	3053.7027	1933.45	1053.15
1032.9651	3054.7314	1922.9	1043.15
1033.0748	3055.7594	1916.65	1036.05
1033.1845	3056.7868	1917.1	1036.45
1033.2941	3057.8136	1913.2	1034.45
1033.4037	3058.8398	1904.35	1024.95
1033.5132	3059.8653	1887.1	1007.05
1033.6227	3060.8902	1901.5	1024.15
1033.7321	3061.9145	1891	1011
1033.8415	3062.9381	1883.4	1002.5
1033.9509	3063.9612	1891.25	994.25
1034.0602	3064.9835	1874.65	994.75
1034.1694	3066.0053	1870.25	988.85
1034.2787	3067.0264	1860.15	980.7
1034.3878	3068.0469	1859.1	978.45
1034.497	3069.0668	1863.4	981.7
1034.6061	3070.086	1850.15	970.95
1034.7151	3071.1046	1842.65	963.85
1034.8241	3072.1226	1840.5	958.8
1034.9331	3073.1399	1831.7	952.8
1035.042	3074.1567	1821.95	942.05
1035.1508	3075.1727	1818.85	937.35
1035.2597	3076.1882	1808.95	930
1035.3684	3077.203	1808.1	929.45
1035.4772	3078.2173	1803.5	923.15
1035.5859	3079.2308	1795.55	913
1035.6945	3080.2438	1795.95	915.1
1035.8031	3081.2561	1788.45	909.8
1035.9117	3082.2678	1773.35	892.5
1036.0202	3083.2789	1768.35	887.75
1036.1286	3084.2893	1773.6	892.65
1036.2371	3085.2991	1756.2	876.9
1036.3454	3086.3083	1755.65	873.35
1036.4538	3087.3169	1758.55	878.4
1036.562	3088.3248	1743.1	862.95
1036.6703	3089.3321	1731.7	852.2
1036.7785	3090.3388	1738.45	859.65
1036.8866	3091.3449	1726.15	846.8
1036.9948	3092.3503	1720.4	837.5
1037.1028	3093.3551	1715.4	837.85
1037.2108	3094.3593	1712.9	834.45
1037.3188	3095.3629	1708.3	830
1037.4267	3096.3658	1711.75	831.05
1037.5346	3097.3681	1694	814.3
1037.6425	3098.3698	1692.65	811.1
1037.7503	3099.3708	1701.05	815.45
1037.858	3100.3713	1682.15	805
1037.9657	3101.3711	1683.65	801.55
1038.0734	3102.3702	1793.7	779.65
1038.181	3103.3688	1679.6	797.4
1038.2886	3104.3667	1663.15	785.05
1038.3961	3105.364	1659.7	779.8
1038.5036	3106.3607	1649.35	768.7
1038.611	3107.3568	1651.1	771.05
1038.7184	3108.3522	1646.4	767.65
1038.8257	3109.347	1644.5	765.1
1038.933	3110.3412	1642.05	757.65
1039.0403	3111.3348	1633.35	753
1039.1475	3112.3277	1629.5	749.8
1039.2547	3113.32	1632.6	753.6
1039.3618	3114.3117	1624.25	745.4
1039.4689	3115.3028	1615.7	736.2
1039.5759	3116.2932	1623.8	739.3
1039.6829	3117.2831	1610.3	726.85
1039.7898	3118.2723	1600.1	720.3
1039.8967	3119.2608	1590.6	710.3
1040.0035	3120.2488	1595.4	716.4
1040.1103	3121.2361	1589.6	709.55
1040.2171	3122.2229	1578.35	699.45
1040.3238	3123.209	1587.35	706.8
1040.4305	3124.1944	1580.05	701.6
1040.5371	3125.1793	1583.95	702
1040.6437	3126.1635	1576.6	698.6
1040.7502	3127.1471	1568.75	689.8
1040.8567	3128.1301	1554.45	674.55
1040.9631	3129.1125	1559.45	680.65
1041.0695	3130.0942	1555.85	677.2
1041.1759	3131.0753	1553.35	665.85
1041.2822	3132.0558	1552.1	670.65
1041.3884	3133.0357	1545.2	665.5
1041.4946	3134.015	1547.85	666.3
1041.6008	3134.9936	1543.8	663.5
1041.7069	3135.9716	1558.1	661.15
1041.813	3136.949	1528.6	651.05
1041.919	3137.9258	1543.05	656.55
1042.025	3138.902	1537.25	653
1042.1309	3139.8775	1528.6	648.65
1042.2368	3140.8524	1531	652.25
1042.3427	3141.8267	1529.2	647.35
1042.4485	3142.8004	1512.35	632.5
1042.5542	3143.7735	1515.5	629.85
1042.6599	3144.7459	1518.85	639.55
1042.7656	3145.7178	1508.8	629.2
1042.8712	3146.689	1506.55	627.8
1042.9768	3147.6596	1500.1	617.45
1043.0823	3148.6295	1495.8	615.35
1043.1878	3149.5989	1496.5	618.4
1043.2932	3150.5676	1494.85	616.8
1043.3986	3151.5357	1492.05	614.25
1043.5039	3152.5032	1483.1	604.25
1043.6092	3153.4701	1484.8	606.25
1043.7145	3154.4364	1475.9	595.2
1043.8197	3155.402	1476.9	598.25
1043.9248	3156.367	1476.15	592.8
1044.03	3157.3315	1505.8	588.75
1044.135	3158.2952	1472.3	590.8
1044.24	3159.2584	1464.05	583.7
1044.345	3160.221	1460.65	580.45
1044.4499	3161.1829	1452.85	573.95
1044.5548	3162.1442	1450.4	571.95
1044.6596	3163.105	1446.5	567.3
1044.7644	3164.065	1449.8	569.9
1044.8692	3165.0245	1442.7	560.65
1044.9739	3165.9834	1442.55	567
1045.0785	3166.9416	1440.95	563.6
1045.1831	3167.8993	1429.45	550.85
1045.2877	3168.8563	1434.35	552.8
1045.3922	3169.8127	1419.85	540.4
1045.4966	3170.7684	1421.5	541.9
1045.6011	3171.7236	1421.9	543.35
1045.7054	3172.6782	1420.45	541.25
1045.8098	3173.6321	1409.75	531.15
1045.914	3174.5854	1416.55	535.25
1046.0183	3175.5381	1416.75	537.2
1046.1224	3176.4902	1404.35	525.8
1046.2266	3177.4417	1404.25	524.1
1046.3307	3178.3926	1397.2	518.45
1046.4347	3179.3428	1394.9	518.75
1046.5387	3180.2924	1391.9	512.75
1046.6427	3181.2415	1394.4	514.35
1046.7466	3182.1899	1387.6	506.3
1046.8504	3183.1377	1386.25	507.95
1046.9542	3184.0848	1384.25	501.4
1047.058	3185.0314	1380.6	501.4
1047.1617	3185.9773	1375.3	496.4
1047.2654	3186.9227	1371.7	491.15
1047.369	3187.8674	1370.3	490.95
1047.4726	3188.8115	1374.05	493.55
1047.5761	3189.755	1365.85	487.55
1047.6796	3190.6979	1363.15	484.6
1047.783	3191.6402	1360.15	481.8
1047.8864	3192.5818	1359.95	483.7
1047.9898	3193.5229	1373.95	480.4
1048.0931	3194.4633	1356.1	477.1
1048.1963	3195.4031	1348.9	467.95
1048.2995	3196.3423	1354.15	474.75
1048.4027	3197.2809	1350.8	468.8
1048.5058	3198.2189	1344.3	464.5
1048.6089	3199.1563	1357.3	460.3
1048.7119	3200.0931	1339.35	462
1048.8148	3201.0292	1335.35	458.4
1048.9178	3201.9648	1338.25	459.3
1049.0206	3202.8997	1333.7	452.2
1049.1235	3203.834	1333.8	454.5
1049.2262	3204.7677	1328.2	448.95
1049.329	3205.7008	1324.45	444.9
1049.4317	3206.6333	1323	445.3
1049.5343	3207.5652	1322	441.25
1049.6369	3208.4964	1318.35	439.15
1049.7394	3209.4271	1312	434.1
1049.8419	3210.3571	1309.7	429.9
1049.9444	3211.2865	1320.75	438.95
1050.0468	3212.2154	1308.55	429.05
1050.1491	3213.1436	1310.15	429.3
1050.2514	3214.0712	1315.4	427.8
1050.3537	3214.9982	1309.7	432.45
1050.4559	3215.9246	1301.6	420.25
1050.5581	3216.8503	1301.15	423.6
1050.6602	3217.7755	1295.55	414.7
1050.7623	3218.7001	1290.35	411.75
1050.8643	3219.624	1292.4	412.15
1050.9663	3220.5473	1289.85	408.9
1051.0682	3221.4701	1289.25	408.95
1051.1701	3222.3922	1287.65	404.7
1051.2719	3223.3137	1290.8	408.95
1051.3737	3224.2346	1287.35	409.1
1051.4754	3225.1549	1281.25	403.65
1051.5771	3226.0746	1277.75	401.25
1051.6788	3226.9937	1272.65	392.75
1051.7804	3227.9121	1276.5	397.55
1051.8819	3228.83	1272.45	393.4
1051.9834	3229.7473	1266.25	385.25
1052.0849	3230.6639	1264.95	386.5
1052.1863	3231.5799	1257.6	378.85
1052.2876	3232.4954	1263.95	384.7
1052.3889	3233.4102	1259.55	382.6
1052.4902	3234.3244	1256.1	376.3
1052.5914	3235.238	1258.05	379.05
1052.6926	3236.151	1277.1	372.85
1052.7937	3237.0634	1252.1	372.2
1052.8948	3237.9752	1251	371
1052.9958	3238.8864	1248.2	369.5
1053.0968	3239.797	1242.45	363.1
1053.1977	3240.7069	1240.7	362
1053.2986	3241.6163	1242.9	362.85
1053.3994	3242.5251	1237	359
1053.5002	3243.4332	1236.3	358.1
1053.6009	3244.3408	1240.8	361.35
1053.7016	3245.2477	1227.5	348.5
1053.8022	3246.154	1229.9	349.7
1053.9028	3247.0598	1231.3	351.7
1054.0034	3247.9649	1223.95	345.05
1054.1039	3248.8694	1229.65	350.3
1054.2043	3249.7733	1221.7	342.85
1054.3047	3250.6766	1221.3	342.8
1054.4051	3251.5793	1220.4	341.2
1054.5054	3252.4814	1211.25	332.9
1054.6056	3253.3829	1210.55	332.4
1054.7058	3254.2838	1205.05	326.95
1054.806	3255.1841	1212.55	333.8
1054.9061	3256.0838	1206.05	327.1
1055.0061	3256.9829	1195.65	317.3
1055.1062	3257.8814	1198.05	316.9
1055.2061	3258.7792	1198.3	317.3
1055.306	3259.6765	1195.75	314.6
1055.4059	3260.5731	1189.65	310.8
1055.5057	3261.4692	1188.75	308.6
1055.6055	3262.3647	1180.95	300.75
1055.7052	3263.2595	1179.65	299.15
1055.8049	3264.1538	1174.55	295.85
1055.9045	3265.0474	1168.35	288.85
1056.0041	3265.9404	1163.1	285.75
1056.1036	3266.8329	1156.05	278.5
1056.2031	3267.7247	1165.4	277.25
1056.3025	3268.616	1142.8	265.2
1056.4019	3269.5066	1149.35	270
1056.5013	3270.3966	1136	255.25
1056.6005	3271.286	1124	243.65
