Software Version:	3.9.2.0
Unit SN:	10000200
Spectrometer SN:	6960
Date:	3/6/2024 10:34:58 AM
Data Line Index:	25
Spectral Points:	2048
Integration time (ms):	125
Averages:	20
Delay (ms):	30
Sequence Number:	1
Processing:	dark subtract
Laser Power (mW):	300
Laser Current (mA):	825
Laser Diode Temp (C):	25.1
Laser Case Temp (C):	26.6
System Temp (C):	26.3
Spectrometer Temp (C):	23.8
CCD Temp (C):	0.002
Secondary Temp (C):	20.008
Heatsink Temp (C):	22.025
CCDPCB Temp (C):	36.051
SecondaryPCB Temp (C):	30.527

Wavelength	RamanShift	Raw Counts	Dark Subtracted
787.061	30.1047	1137.75	726
787.2016	32.3739	1181.25	771.25
787.3422	34.6426	1221.85	811.25
787.4828	36.9109	1265.85	852.05
787.6235	39.1787	1333.9	916.85
787.7642	41.4461	1391.75	968.95
787.9049	43.7131	1460.05	1032.45
788.0456	45.9796	1524.85	1095.75
788.1863	48.2456	1589.6	1157.55
788.3271	50.5112	1670.05	1233.75
788.4679	52.7764	1738.55	1299.6
788.6087	55.0411	1813.3	1369.45
788.7496	57.3054	1898.05	1449.5
788.8904	59.5692	1983.35	1531.9
789.0313	61.8326	2083.2	1628.75
789.1722	64.0955	2195.45	1738.65
789.3132	66.3579	2322.4	1857.2
789.4541	68.6199	2478.15	2012.45
789.5951	70.8815	2745.7	2276.2
789.7361	73.1426	3279.95	2806.45
789.8771	75.4032	4645.6	4166.8
790.0181	77.6634	8165.85	7682.8
790.1592	79.9231	17519.65	17029.8
790.3003	82.1824	56924.6	56424.9
790.4414	84.4412	65535	65010.55
790.5825	86.6995	65535	64980.85
790.7237	88.9574	65535	64951.65
790.8648	91.2148	65535	64942.2
791.006	93.4717	65535	64926.95
791.1472	95.7282	65535	64915.9
791.2885	97.9842	65535	64916.7
791.4297	100.2398	65535	64915.1
791.571	102.4949	65535	64908.85
791.7123	104.7495	65535	64904.2
791.8536	107.0036	65535	64903.6
791.9949	109.2573	65535	64909.3
792.1363	111.5105	65535	64904.55
792.2777	113.7632	65535	64902.65
792.4191	116.0154	65535	64891.9
792.5605	118.2672	65535	64897
792.7019	120.5185	65535	64896.85
792.8434	122.7693	65535	64895.3
792.9849	125.0197	65535	64890.65
793.1264	127.2696	65535	64888.7
793.2679	129.519	65535	64884.25
793.4094	131.7679	65535	64879.55
793.551	134.0163	65535	64876
793.6926	136.2642	65535	64873.2
793.8342	138.5117	65535	64864.15
793.9758	140.7587	65535	64870.95
794.1175	143.0052	65535	64872.1
794.2591	145.2512	65535	64866.6
794.4008	147.4967	65535	64868.2
794.5425	149.7417	65535	64865.95
794.6842	151.9863	65535	64862.4
794.826	154.2304	65535	64858.45
794.9677	156.4739	65535	64849.3
795.1095	158.717	65535	64850.65
795.2513	160.9596	65535	64846.4
795.3931	163.2017	65535	64847.05
795.535	165.4433	65535	64844.4
795.6768	167.6844	65535	64841.3
795.8187	169.925	65535	64841.35
795.9606	172.1651	65535	64837.95
796.1025	174.4047	65535	64833.35
796.2445	176.6439	65535	64831.45
796.3864	178.8825	65535	64831.15
796.5284	181.1206	65535	64824.05
796.6704	183.3582	65535	64817.85
796.8124	185.5954	65535	64818.3
796.9544	187.832	65535	64817.15
797.0965	190.0681	65535	64813.6
797.2386	192.3037	65535	64810.2
797.3806	194.5388	65535	64809.8
797.5228	196.7734	65535	64807.25
797.6649	199.0075	65535	64801.7
797.807	201.2411	65535	64800.6
797.9492	203.4742	65535	64797.85
798.0914	205.7068	65535	64795.7
798.2336	207.9389	65535	64797
798.3758	210.1704	65535	64793.9
798.518	212.4015	65535	64795.75
798.6603	214.632	65535	64804.05
798.8025	216.862	65535	64813.15
798.9448	219.0915	65535	64816.65
799.0871	221.3205	65535	64810.45
799.2294	223.549	65535	64817.8
799.3718	225.777	65535	64816.6
799.5141	228.0044	65535	64813.05
799.6565	230.2314	65535	64810.9
799.7989	232.4578	65535	64811.6
799.9413	234.6837	65535	64800.7
800.0837	236.909	65535	64799.1
800.2262	239.1339	65535	64774.2
800.3687	241.3582	65535	64792.1
800.5111	243.582	65535	64757
800.6536	245.8053	65535	64771.6
800.7961	248.0281	65535	64776.85
800.9387	250.2503	65535	64772.45
801.0812	252.472	65535	64769.3
801.2238	254.6932	65535	64763.65
801.3664	256.9139	65535	64765
801.509	259.134	65535	64759.8
801.6516	261.3536	65535	64765.1
801.7942	263.5727	65535	64763.55
801.9369	265.7912	65535	64766.2
802.0795	268.0092	65535	64760.75
802.2222	270.2267	65535	64762.15
802.3649	272.4436	65535	64760.95
802.5076	274.6601	65535	64752.8
802.6504	276.8759	65535	64753.35
802.7931	279.0913	65535	64754.05
802.9359	281.3061	65535	64755.95
803.0787	283.5204	65535	64750.5
803.2215	285.7341	65535	64744.65
803.3643	287.9473	65535	64734.7
803.5071	290.16	65535	64744.2
803.6499	292.3721	65535	64753.2
803.7928	294.5837	65535	64747.2
803.9357	296.7947	65535	64748.6
804.0786	299.0052	65535	64747.5
804.2215	301.2152	65535	64748.6
804.3644	303.4246	65535	64749.45
804.5074	305.6334	65535	64746.3
804.6503	307.8418	65535	64744.7
804.7933	310.0495	65535	64741.85
804.9363	312.2568	65535	64743.6
805.0793	314.4635	65535	64741.1
805.2223	316.6696	65535	64739.75
805.3653	318.8752	65535	64728
805.5084	321.0802	65535	64736.1
805.6514	323.2847	65535	64738.45
805.7945	325.4887	65535	64733.1
805.9376	327.692	65535	64732.9
806.0807	329.8949	65535	64732.65
806.2238	332.0972	65535	64729.6
806.367	334.2989	65535	64728.3
806.5101	336.5001	65535	64728.9
806.6533	338.7007	65535	64726.6
806.7965	340.9008	65535	64726.8
806.9397	343.1003	65535	64724.5
807.0829	345.2992	65535	64720.4
807.2261	347.4976	65535	64722.65
807.3693	349.6955	65535	64715.95
807.5126	351.8927	65535	64718.05
807.6559	354.0895	65535	64709.25
807.7991	356.2856	65535	64717.65
807.9424	358.4812	65535	64718.85
808.0857	360.6763	65535	64715.55
808.2291	362.8707	65535	64712.8
808.3724	365.0646	65535	64711.35
808.5158	367.258	65535	64709.9
808.6591	369.4508	65535	64706
808.8025	371.643	65535	64708.5
808.9459	373.8346	65535	64703.5
809.0893	376.0257	65535	64695.4
809.2327	378.2162	65535	64697
809.3762	380.4062	65535	64698.5
809.5196	382.5956	65535	64697.9
809.6631	384.7844	65535	64704.15
809.8066	386.9726	65535	64703.2
809.9501	389.1603	65535	64709.2
810.0936	391.3474	65535	64663.15
810.2371	393.5339	65535	64706.4
810.3806	395.7199	65535	64708.35
810.5241	397.9052	65535	64707.75
810.6677	400.09	65535	64710.2
810.8113	402.2743	65535	64711.9
810.9548	404.4579	65535	64708.55
811.0984	406.641	65535	64707.55
811.2421	408.8235	65535	64707.35
811.3857	411.0054	65535	64701.4
811.5293	413.1868	65535	64700.8
811.673	415.3675	65535	64697.75
811.8166	417.5477	65535	64693.75
811.9603	419.7273	65535	64690.9
812.104	421.9064	65535	64685.65
812.2477	424.0848	65535	64692
812.3914	426.2627	65535	64691.4
812.5351	428.4399	65535	64690.3
812.6788	430.6166	65535	64686.8
812.8226	432.7928	65535	64685.15
812.9663	434.9683	65535	64686.65
813.1101	437.1432	65535	64683.8
813.2539	439.3176	65535	64684.5
813.3977	441.4914	65535	64687.2
813.5415	443.6645	65535	64683.9
813.6853	445.8371	65535	64684.95
813.8291	448.0091	65535	64686.5
813.973	450.1806	65535	64682.6
814.1168	452.3514	65535	64681.25
814.2607	454.5216	65535	64672.35
814.4046	456.6913	65535	64679.5
814.5485	458.8603	65535	64681.4
814.6924	461.0288	65535	64683.05
814.8363	463.1967	65535	64681.9
814.9802	465.3639	65535	64680.95
815.1241	467.5306	65535	64680.9
815.2681	469.6967	65535	64681.2
815.412	471.8622	65535	64678.6
815.556	474.0271	65535	64679.05
815.7	476.1914	65535	64675.4
815.844	478.3551	65535	64679.75
815.988	480.5182	65535	64678.65
816.132	482.6807	65535	64681.15
816.276	484.8426	65535	64681.35
816.4201	487.0039	65535	64679.15
816.5641	489.1647	65535	64675.05
816.7082	491.3248	65535	64676
816.8522	493.4843	65535	64674.7
816.9963	495.6432	65535	64677.35
817.1404	497.8015	65535	64672.4
817.2845	499.9592	65535	64671.9
817.4286	502.1163	65535	64672.65
817.5727	504.2728	65535	64671.4
817.7168	506.4287	65535	64673.5
817.861	508.5839	65535	64671.6
818.0051	510.7386	65535	64672.65
818.1493	512.8927	65535	64671.15
818.2935	515.0461	65535	64667.25
818.4377	517.199	65535	64668.6
818.5818	519.3512	65535	64669.85
818.726	521.5029	65535	64660.6
818.8703	523.6539	65535	64668.95
819.0145	525.8043	65535	64666
819.1587	527.9541	65535	64663.45
819.303	530.1033	65535	64668.9
819.4472	532.2519	65535	64664.8
819.5915	534.3999	65535	64663.15
819.7357	536.5472	65535	64663.75
819.88	538.694	65535	64668.1
820.0243	540.8401	65535	64663.9
820.1686	542.9856	65535	64661.3
820.3129	545.1305	65535	64658.45
820.4572	547.2748	65535	64659.2
820.6016	549.4185	65535	64660.6
820.7459	551.5615	65535	64660.3
820.8902	553.704	65535	64655.55
821.0346	555.8458	65535	64659.35
821.1789	557.987	65535	64659.2
821.3233	560.1276	65535	64657.8
821.4677	562.2675	65535	64657.45
821.6121	564.4069	65535	64655.1
821.7565	566.5456	65535	64662.1
821.9009	568.6837	65535	64658.5
822.0453	570.8212	65535	64656.9
822.1897	572.958	65535	64656.9
822.3342	575.0942	65535	64661.95
822.4786	577.2299	65535	64664.85
822.6231	579.3648	65535	64663.85
822.7675	581.4992	65535	64664.9
822.912	583.6329	65535	64663
823.0565	585.766	65535	64664.8
823.201	587.8985	65535	64661.9
823.3454	590.0304	65535	64637.9
823.4899	592.1616	65535	64656.05
823.6345	594.2922	65535	64658.65
823.779	596.4222	65535	64657.6
823.9235	598.5515	65535	64657.25
824.068	600.6802	65535	64658.1
824.2126	602.8083	65535	64653.9
824.3571	604.9358	65535	64652.25
824.5017	607.0626	65535	64652.8
824.6462	609.1888	65535	64652.85
824.7908	611.3144	65535	64650.6
824.9354	613.4393	65535	64651.6
825.08	615.5636	65535	64652
825.2246	617.6873	65535	64653.35
825.3692	619.8103	65535	64651.3
825.5138	621.9327	65535	64650.3
825.6584	624.0544	65535	64653.8
825.803	626.1756	65535	64656.65
825.9477	628.2961	65535	64652.3
826.0923	630.4159	65535	64649.45
826.237	632.5351	65535	64648.95
826.3816	634.6537	65535	64654.15
826.5263	636.7716	65535	64647.9
826.6709	638.8889	65535	64647.35
826.8156	641.0056	65535	64647.45
826.9603	643.1216	65535	64649.2
827.105	645.237	65535	64645.3
827.2497	647.3518	65535	64650.35
827.3944	649.4659	65535	64649.4
827.5391	651.5793	65535	64650.75
827.6838	653.6922	65535	64647.6
827.8285	655.8043	65535	64648.9
827.9733	657.9159	65535	64650.2
828.118	660.0268	65535	64645.95
828.2627	662.137	65535	64646.95
828.4075	664.2466	65535	64644.65
828.5522	666.3556	65535	64644
828.697	668.4639	65535	64644.85
828.8418	670.5716	65535	64649.55
828.9865	672.6786	65535	64644.75
829.1313	674.785	65535	64641.5
829.2761	676.8907	65535	64645.75
829.4209	678.9958	65535	64649.5
829.5657	681.1002	65535	64641.45
829.7105	683.204	65535	64638.55
829.8553	685.3072	65535	64643.65
830.0001	687.4097	65535	64641.15
830.1449	689.5115	65535	64641.75
830.2898	691.6127	65535	64643.15
830.4346	693.7132	65535	64644.05
830.5794	695.8131	65535	64631.85
830.7243	697.9123	65535	64639.2
830.8691	700.0109	65535	64639.45
831.014	702.1089	65535	64644.85
831.1588	704.2061	65535	64645.55
831.3037	706.3028	65535	64640.5
831.4486	708.3987	65535	64640.55
831.5935	710.4941	65535	64641.9
831.7383	712.5887	65535	64640.3
831.8832	714.6827	65535	64638.35
832.0281	716.7761	65535	64641.65
832.173	718.8688	65535	64640.95
832.3179	720.9608	65535	64633.85
832.4628	723.0522	65535	64634.85
832.6077	725.1429	65535	64636.9
832.7527	727.233	65535	64639.4
832.8976	729.3224	65535	64637.5
833.0425	731.4112	65535	64638.25
833.1874	733.4993	65535	64634.4
833.3324	735.5867	65535	64638.4
833.4773	737.6735	65535	64636.9
833.6222	739.7596	65535	64633.3
833.7672	741.845	65535	64633.95
833.9122	743.9298	65535	64634.15
834.0571	746.014	65535	64638.9
834.2021	748.0974	65535	64634.5
834.347	750.1802	65535	64635.8
834.492	752.2624	65535	64638.95
834.637	754.3439	65535	64635.35
834.782	756.4247	65535	64626.05
834.9269	758.5048	65535	64635.95
835.0719	760.5843	65535	64637.25
835.2169	762.6631	65535	64633.35
835.3619	764.7413	65535	64636.85
835.5069	766.8188	65535	64632.4
835.6519	768.8956	65535	64632.7
835.7969	770.9718	65535	64635.95
835.9419	773.0473	65535	64635.35
836.0869	775.1221	65535	64634.85
836.232	777.1962	65535	64636.5
836.377	779.2697	65535	64633.85
836.522	781.3426	65535	64616.85
836.667	783.4147	65535	64632.65
836.8121	785.4862	65535	64635.25
836.9571	787.557	65535	64636.95
837.1021	789.6271	65535	64633.15
837.2472	791.6966	65535	64634.55
837.3922	793.7654	65535	64633.7
837.5373	795.8335	65535	64635.55
837.6823	797.901	65535	64632.6
837.8274	799.9678	65535	64634.75
837.9724	802.0339	65535	64634.25
838.1175	804.0993	65535	64622.35
838.2626	806.1641	65535	64632.15
838.4076	808.2282	65535	64635.55
838.5527	810.2916	65535	64631.7
838.6978	812.3544	65535	64634.65
838.8428	814.4164	65535	64634.3
838.9879	816.4778	65535	64632.05
839.133	818.5385	65535	64633.1
839.2781	820.5986	65535	64633.2
839.4232	822.658	65535	64631
839.5682	824.7166	65535	64633.7
839.7133	826.7747	65535	64632.95
839.8584	828.832	65535	64632.15
840.0035	830.8886	65535	64630.75
840.1486	832.9446	65535	64634.1
840.2937	834.9999	65535	64633.15
840.4388	837.0545	65535	64625.95
840.5839	839.1085	65535	64631.9
840.729	841.1618	65535	64628.6
840.8741	843.2143	65535	64633.65
841.0192	845.2662	65535	64632.25
841.1643	847.3175	65535	64636.1
841.3095	849.368	65535	64632.85
841.4546	851.4179	65535	64629.65
841.5997	853.467	65535	64628.4
841.7448	855.5155	65535	64631.8
841.8899	857.5633	65535	64632.75
842.0351	859.6105	65535	64632.5
842.1802	861.6569	65535	64630.8
842.3253	863.7027	65535	64626.65
842.4704	865.7478	65535	64630.55
842.6156	867.7922	65535	64629.8
842.7607	869.8359	65535	64630.3
842.9058	871.8789	65535	64634.1
843.0509	873.9212	65535	64600.35
843.1961	875.9629	65535	64630.55
843.3412	878.0039	65535	64630.4
843.4863	880.0441	65535	64630.45
843.6315	882.0837	65535	64629.9
843.7766	884.1226	65535	64627.6
843.9218	886.1609	65535	64631.55
844.0669	888.1984	65535	64628.1
844.212	890.2352	65535	64633.6
844.3572	892.2714	65535	64626.1
844.5023	894.3069	65535	64629.15
844.6475	896.3416	65535	64631.8
844.7926	898.3757	65535	64628.35
844.9377	900.4091	65535	64628.55
845.0829	902.4418	65535	64624
845.228	904.4739	65535	64628.25
845.3732	906.5052	65535	64628.7
845.5183	908.5358	65535	64627.4
845.6635	910.5658	65535	64626.75
845.8086	912.595	65535	64626.25
845.9538	914.6236	65535	64630.5
846.0989	916.6515	65535	64629.25
846.2441	918.6786	65535	64626.9
846.3892	920.7051	65535	64628.95
846.5344	922.7309	65535	64629.05
846.6795	924.756	65535	64628.55
846.8246	926.7804	65535	64626.25
846.9698	928.8041	65535	64625.75
847.1149	930.8272	65535	64629.65
847.2601	932.8495	65535	64628.65
847.4052	934.8711	65535	64630.55
847.5504	936.892	65535	64629.5
847.6955	938.9123	65535	64625.55
847.8407	940.9318	65535	64628.9
847.9858	942.9506	65535	64626
848.131	944.9688	65535	64628.7
848.2761	946.9862	65535	64626.4
848.4213	949.003	65535	64626.45
848.5664	951.019	65535	64627.5
848.7115	953.0344	65535	64628.6
848.8567	955.0491	65535	64625.45
849.0018	957.063	65535	64627.8
849.147	959.0763	65535	64628.05
849.2921	961.0888	65535	64627.45
849.4373	963.1007	65535	64626.9
849.5824	965.1119	65535	64629
849.7275	967.1223	65535	64629.7
849.8727	969.1321	65535	64629.05
850.0178	971.1412	65535	64628.1
850.1629	973.1495	65535	64628.5
850.3081	975.1572	65535	64597.05
850.4532	977.1641	65535	64628.45
850.5983	979.1704	65535	64628.05
850.7435	981.1759	65535	64623.9
850.8886	983.1808	65535	64626.05
851.0337	985.1849	65535	64614.1
851.1788	987.1884	65535	64627.8
851.324	989.1911	65535	64627.55
851.4691	991.1932	65535	64626.5
851.6142	993.1945	65535	64630.55
851.7593	995.1951	65535	64627.9
851.9045	997.1951	65535	64621.75
852.0496	999.1943	65535	64628.7
852.1947	1001.1928	65535	64626.9
852.3398	1003.1906	65535	64628.7
852.4849	1005.1877	65535	64625.8
852.63	1007.1841	65535	64624.1
852.7751	1009.1798	65535	64626.2
852.9202	1011.1748	65535	64626.55
853.0653	1013.1691	65535	64630.35
853.2104	1015.1627	65535	64628.55
853.3555	1017.1556	65535	64629.65
853.5006	1019.1477	65535	64624.9
853.6457	1021.1392	65535	64630.85
853.7908	1023.1299	65535	64632.05
853.9359	1025.12	65535	64629.6
854.081	1027.1093	65535	64632
854.2261	1029.0979	65535	64635.8
854.3712	1031.0859	65535	64632.35
854.5163	1033.0731	65535	64629.4
854.6613	1035.0596	65535	64631
854.8064	1037.0454	65535	64628.55
854.9515	1039.0304	65535	64627.65
855.0965	1041.0148	65535	64627.6
855.2416	1042.9985	65535	64628.4
855.3867	1044.9814	65535	64628.95
855.5317	1046.9636	65535	64626.45
855.6768	1048.9452	65535	64628.65
855.8219	1050.926	65535	64630.9
855.9669	1052.9061	65535	64629.15
856.112	1054.8855	65535	64626.7
856.257	1056.8642	65535	64627.6
856.4021	1058.8421	65535	64625.2
856.5471	1060.8194	65535	64627
856.6921	1062.7959	65535	64629.95
856.8372	1064.7717	65535	64623.8
856.9822	1066.7469	65535	64625.45
857.1272	1068.7213	65535	64625
857.2723	1070.695	65535	64628.1
857.4173	1072.6679	65535	64627.95
857.5623	1074.6402	65535	64628.3
857.7073	1076.6117	65535	64625.3
857.8523	1078.5826	65535	64626.9
857.9973	1080.5527	65535	64628.05
858.1423	1082.5221	65535	64627.65
858.2873	1084.4908	65535	64629.3
858.4323	1086.4587	65535	64626.55
858.5773	1088.426	65535	64628.55
858.7223	1090.3925	65535	64623
858.8673	1092.3584	65535	64627.15
859.0123	1094.3235	65535	64627.8
859.1573	1096.2879	65535	64627.05
859.3022	1098.2515	65535	64626.65
859.4472	1100.2145	65535	64625.9
859.5922	1102.1767	65535	64623.6
859.7371	1104.1382	65535	64624.85
859.8821	1106.099	65535	64627.85
860.027	1108.0591	65535	64629.15
860.172	1110.0185	65535	64625.85
860.3169	1111.9771	65535	64629.5
860.4619	1113.9351	65535	64629.05
860.6068	1115.8923	65535	64627.15
860.7517	1117.8488	65535	64627.1
860.8967	1119.8045	65535	64628.55
861.0416	1121.7596	65535	64626.05
861.1865	1123.7139	65535	64630.6
861.3314	1125.6675	65535	64631.2
861.4763	1127.6204	65535	64629.65
861.6212	1129.5726	65535	64625.6
861.7661	1131.524	65535	64630.55
861.911	1133.4748	65535	64629.55
862.0559	1135.4248	65535	64627.15
862.2008	1137.3741	65535	64627.75
862.3457	1139.3226	65535	64627.2
862.4905	1141.2705	65535	64630.1
862.6354	1143.2176	65535	64625.05
862.7803	1145.164	65535	64626.5
862.9251	1147.1097	65535	64628
863.07	1149.0546	65535	64628.1
863.2148	1150.9989	65535	64629.55
863.3597	1152.9424	65535	64627.2
863.5045	1154.8852	65535	64627.55
863.6493	1156.8272	65535	64627.6
863.7942	1158.7686	65535	64621.25
863.939	1160.7092	65535	64626.85
864.0838	1162.6491	65535	64627.3
864.2286	1164.5883	65535	64629.2
864.3734	1166.5267	65535	64628.1
864.5182	1168.4644	65535	64626.25
864.663	1170.4014	65535	64622.75
864.8078	1172.3377	65535	64627.4
864.9526	1174.2732	65535	64627.25
865.0974	1176.2081	65535	64629.1
865.2421	1178.1421	65535	64624.35
865.3869	1180.0755	65535	64626.55
865.5317	1182.0082	65535	64629
865.6764	1183.9401	65535	64631
865.8212	1185.8713	65535	64630.1
865.9659	1187.8017	65535	64631.75
866.1106	1189.7315	65535	64633.4
866.2554	1191.6605	65535	64602.25
866.4001	1193.5888	65535	64629.8
866.5448	1195.5163	65535	64631.3
866.6895	1197.4432	65535	64627.75
866.8342	1199.3693	65535	64629.7
866.9789	1201.2947	65535	64630.2
867.1236	1203.2193	65535	64626.9
867.2683	1205.1432	65535	64629.9
867.413	1207.0664	65535	64628.75
867.5576	1208.9889	65535	64626.25
867.7023	1210.9106	65535	64629.35
867.847	1212.8316	65535	64630.7
867.9916	1214.7519	65535	64621.6
868.1363	1216.6715	65535	64629.9
868.2809	1218.5903	65535	64630.45
868.4255	1220.5084	65535	64628.6
868.5701	1222.4257	65535	64628.65
868.7148	1224.3424	65535	64632
868.8594	1226.2583	65535	64624.5
869.004	1228.1735	65535	64625.6
869.1486	1230.0879	65535	64628.35
869.2932	1232.0016	65535	64628.6
869.4377	1233.9146	65535	64627.3
869.5823	1235.8269	65535	64630.9
869.7269	1237.7384	65535	64629.75
869.8715	1239.6492	65535	64631.1
870.016	1241.5592	65535	64629.65
870.1606	1243.4686	65535	64628.85
870.3051	1245.3772	65535	64630
870.4496	1247.285	65535	64628.45
870.5941	1249.1922	65535	64629.35
870.7387	1251.0986	65535	64630.25
870.8832	1253.0042	65535	64629.85
871.0277	1254.9092	65535	64628.6
871.1722	1256.8134	65535	64630.6
871.3167	1258.7169	65535	64629
871.4611	1260.6196	65535	64630.25
871.6056	1262.5216	65535	64627.45
871.7501	1264.4229	65535	64630.75
871.8945	1266.3234	65535	64628.65
872.039	1268.2232	65535	64627.75
872.1834	1270.1223	65535	64627.95
872.3278	1272.0207	65535	64630.6
872.4723	1273.9183	65535	64624.2
872.6167	1275.8151	65535	64628.6
872.7611	1277.7113	65535	64630.5
872.9055	1279.6067	65535	64630.6
873.0499	1281.5014	65535	64627.75
873.1943	1283.3953	65535	64627.15
873.3386	1285.2885	65535	64629.85
873.483	1287.181	65535	64628.6
873.6274	1289.0727	65535	64633.4
873.7717	1290.9637	65535	64628.75
873.9161	1292.854	65535	64631
874.0604	1294.7435	65535	64631.1
874.2047	1296.6323	65535	64627.95
874.349	1298.5204	65535	64626.75
874.4933	1300.4077	65535	64629.75
874.6376	1302.2943	65535	64630
874.7819	1304.1802	65535	64628.65
874.9262	1306.0653	65535	64627.6
875.0705	1307.9497	65535	64629.6
875.2147	1309.8333	65535	64630.75
875.359	1311.7162	65535	64630.8
875.5032	1313.5984	65535	64631.1
875.6475	1315.4798	65535	64614.25
875.7917	1317.3605	65535	64613.75
875.9359	1319.2405	65535	64626.2
876.0801	1321.1197	65535	64626.6
876.2243	1322.9982	65535	64623.65
876.3685	1324.876	65535	64628.05
876.5127	1326.753	65535	64632.05
876.6569	1328.6293	65535	64627.35
876.801	1330.5048	65535	64628.45
876.9452	1332.3796	65535	64630.35
877.0893	1334.2537	65535	64604.65
877.2335	1336.127	65535	64628.7
877.3776	1337.9996	65535	64633.85
877.5217	1339.8714	65535	64628.75
877.6658	1341.7426	65535	64585.1
877.8099	1343.6129	65535	64627.6
877.954	1345.4826	65535	64631.1
878.0981	1347.3515	65535	64629
878.2422	1349.2196	65535	64628.5
878.3862	1351.087	65535	64631.65
878.5303	1352.9537	65535	64629.55
878.6743	1354.8197	65535	64628
878.8184	1356.6849	65535	64630.25
878.9624	1358.5493	65535	64628.6
879.1064	1360.4131	65535	64629.5
879.2504	1362.276	65535	64629.5
879.3944	1364.1383	65535	64631.8
879.5384	1365.9998	65535	64624.3
879.6823	1367.8606	65535	64629.9
879.8263	1369.7206	65535	64630.1
879.9702	1371.5799	65535	64631.25
880.1142	1373.4384	65535	64632.1
880.2581	1375.2962	65535	64629.9
880.402	1377.1533	65535	64631
880.5459	1379.0096	65535	64628.05
880.6898	1380.8652	65535	64631.85
880.8337	1382.7201	65535	64631.4
880.9776	1384.5742	65535	64629.2
881.1215	1386.4275	65535	64631.25
881.2653	1388.2802	65535	64633.7
881.4092	1390.132	65535	64632.35
881.553	1391.9832	65535	64630.05
881.6968	1393.8336	65535	64629
881.8406	1395.6832	65535	64628.8
881.9844	1397.5322	65535	64629.7
882.1282	1399.3803	65535	64626
882.272	1401.2278	65535	64630.9
882.4158	1403.0745	65535	64632.75
882.5595	1404.9204	65535	64631.25
882.7033	1406.7656	65535	64634.45
882.847	1408.6101	65535	64629.7
882.9908	1410.4538	65535	64632.05
883.1345	1412.2968	65535	64630.3
883.2782	1414.139	65535	64630.3
883.4219	1415.9805	65535	64631.95
883.5656	1417.8213	65535	64624.25
883.7092	1419.6613	65535	64632.85
883.8529	1421.5006	65535	64629.7
883.9965	1423.3391	65535	64628.65
884.1402	1425.1769	65535	64626.9
884.2838	1427.0139	65535	64631.15
884.4274	1428.8502	65535	64629.15
884.571	1430.6858	65535	64631.85
884.7146	1432.5206	65535	64629.85
884.8582	1434.3547	65535	64629.75
885.0018	1436.188	65535	64630.7
885.1453	1438.0206	65535	64628.65
885.2889	1439.8524	65535	64632.2
885.4324	1441.6835	65535	64628.9
885.5759	1443.5139	65535	64629.2
885.7194	1445.3435	65535	64633.3
885.8629	1447.1724	65535	64629.75
886.0064	1449.0005	65535	64630.7
886.1499	1450.8279	65535	64631.2
886.2933	1452.6545	65535	64633
886.4368	1454.4804	65535	64633.4
886.5802	1456.3056	65535	64622.9
886.7237	1458.13	65535	64632.7
886.8671	1459.9536	65535	64631.85
887.0105	1461.7766	65535	64633
887.1539	1463.5987	65535	64630.8
887.2972	1465.4202	65535	64630.1
887.4406	1467.2409	65535	64633
887.584	1469.0608	65535	64630.2
887.7273	1470.88	65535	64629.2
887.8706	1472.6984	65535	64631.9
888.0139	1474.5161	65535	64627.85
888.1572	1476.3331	65535	64631.85
888.3005	1478.1493	65535	64631.75
888.4438	1479.9648	65535	64631.55
888.5871	1481.7795	65535	64632.7
888.7303	1483.5935	65535	64631.45
888.8736	1485.4067	65535	64631.85
889.0168	1487.2192	65535	64630.85
889.16	1489.031	65535	64631.05
889.3032	1490.842	65535	64632.4
889.4464	1492.6522	65535	64634.8
889.5896	1494.4618	65535	64631.65
889.7327	1496.2705	65535	64632.45
889.8759	1498.0785	65535	64632.3
890.019	1499.8858	65535	64633.2
890.1622	1501.6924	65535	64632.5
890.3053	1503.4981	65535	64634.4
890.4484	1505.3032	65535	64633.35
890.5914	1507.1075	65535	64631.95
890.7345	1508.911	65535	64631.25
890.8776	1510.7138	65535	64630.25
891.0206	1512.5159	65535	64632.3
891.1637	1514.3172	65535	64633.8
891.3067	1516.1178	65535	64632.6
891.4497	1517.9176	65535	64629.45
891.5927	1519.7166	65535	64634.95
891.7357	1521.515	65535	64627.4
891.8786	1523.3126	65535	64633.25
892.0216	1525.1094	65535	64633.4
892.1645	1526.9055	65535	64632.55
892.3074	1528.7008	65535	64634.45
892.4503	1530.4954	65535	64626.45
892.5932	1532.2893	65535	64632.9
892.7361	1534.0824	65535	64628.15
892.879	1535.8747	65535	64633.45
893.0218	1537.6663	65535	64632.15
893.1647	1539.4572	65535	64629.8
893.3075	1541.2473	65535	64633.85
893.4503	1543.0367	65535	64635.1
893.5931	1544.8253	65535	64629.65
893.7359	1546.6132	65535	64631.7
893.8787	1548.4003	65535	64623.75
894.0214	1550.1867	65535	64625.2
894.1642	1551.9723	65535	64627.7
894.3069	1553.7572	65535	64631.7
894.4496	1555.5414	65535	64634.3
894.5923	1557.3247	65535	64634.55
894.735	1559.1074	65535	64637.45
894.8777	1560.8893	65535	64635.2
895.0204	1562.6705	65535	64634.45
895.163	1564.4509	65535	64637.15
895.3056	1566.2305	65535	64636.15
895.4482	1568.0094	65535	64636.15
895.5908	1569.7876	65535	64634.4
895.7334	1571.565	65535	64633.5
895.876	1573.3417	65535	64636.5
896.0186	1575.1176	65535	64634.4
896.1611	1576.8928	65535	64637
896.3036	1578.6672	65535	64637.1
896.4461	1580.4409	65535	64638.05
896.5886	1582.2138	65535	64634.65
896.7311	1583.986	65535	64635.55
896.8736	1585.7575	65535	64637.65
897.0161	1587.5282	65535	64634.65
897.1585	1589.2981	65535	64637.85
897.3009	1591.0673	65535	64636
897.4433	1592.8358	65535	64636.8
897.5857	1594.6035	65535	64633.75
897.7281	1596.3704	65535	64634.8
897.8705	1598.1366	65535	64636.6
898.0128	1599.9021	65535	64637.65
898.1551	1601.6668	65535	64635.8
898.2975	1603.4308	65535	64636.25
898.4398	1605.194	65535	64633.6
898.5821	1606.9564	65535	64639.15
898.7243	1608.7182	65535	64634.9
898.8666	1610.4791	65535	64640.05
899.0088	1612.2394	65535	64639.85
899.1511	1613.9988	65535	64639.75
899.2933	1615.7576	65535	64639.45
899.4355	1617.5156	65535	64633.2
899.5776	1619.2728	65535	64635.15
899.7198	1621.0293	65535	64635.95
899.862	1622.785	65535	64632.5
900.0041	1624.54	65535	64635.35
900.1462	1626.2942	65535	64638.55
900.2883	1628.0477	65535	64635.3
900.4304	1629.8005	65535	64636.55
900.5725	1631.5525	65535	64637.95
900.7145	1633.3037	65535	64637.6
900.8566	1635.0542	65535	64639.2
900.9986	1636.804	65535	64636.6
901.1406	1638.553	65535	64546.7
901.2826	1640.3013	65535	64637.2
901.4245	1642.0488	65535	64637.7
901.5665	1643.7955	65535	64637.5
901.7085	1645.5416	65535	64636.9
901.8504	1647.2868	65535	64639.65
901.9923	1649.0313	65535	64638.1
902.1342	1650.7751	65535	64635.15
902.2761	1652.5181	65535	64638.95
902.4179	1654.2604	65535	64640
902.5598	1656.0019	65535	64639.25
902.7016	1657.7427	65535	64638.4
902.8434	1659.4828	65535	64639.1
902.9852	1661.222	65535	64637.7
903.127	1662.9606	65535	64637.6
903.2687	1664.6984	65535	64638.8
903.4105	1666.4354	65535	64637.2
903.5522	1668.1717	65535	64636.45
903.6939	1669.9072	65535	64638.3
903.8356	1671.642	65535	64636.4
903.9773	1673.3761	65535	64638.4
904.119	1675.1094	65535	64637.35
904.2606	1676.8419	65535	64639.3
904.4022	1678.5737	65535	64637.7
904.5439	1680.3048	65535	64637.8
904.6855	1682.0351	65535	64639.15
904.827	1683.7646	65535	64635.85
904.9686	1685.4934	65535	64635.15
905.1101	1687.2215	65529.65	64632.65
905.2517	1688.9488	65535	64638.25
905.3932	1690.6754	65506.45	64611
905.5347	1692.4012	65532.4	64636.5
905.6761	1694.1263	65535	64639.3
905.8176	1695.8506	65517.7	64621.1
905.9591	1697.5742	65523.15	64627.4
906.1005	1699.297	65520.85	64625.7
906.2419	1701.0191	65526.35	64631.55
906.3833	1702.7404	65451.6	64556.2
906.5246	1704.461	65399.55	64502.2
906.666	1706.1808	65509.9	64613.45
906.8073	1707.8999	65434.25	64536.75
906.9487	1709.6182	65414.6	64520.35
907.09	1711.3358	65412.55	64517.9
907.2313	1713.0527	65399.75	64506.75
907.3725	1714.7688	65414.35	64513.3
907.5138	1716.4841	65103.6	64205.4
907.655	1718.1987	65238.75	64338.7
907.7962	1719.9126	65153.35	64258.95
907.9374	1721.6257	65306	64408.7
908.0786	1723.338	65260.85	64365.8
908.2198	1725.0496	64560.3	63665.15
908.3609	1726.7605	64699.95	63804.65
908.502	1728.4706	64393.25	63498.7
908.6431	1730.18	64846.15	63947.4
908.7842	1731.8886	64336.95	63442.3
908.9253	1733.5964	64099.9	63199.9
909.0664	1735.3036	64644.75	63745.65
909.2074	1737.0099	64238.65	63344.2
909.3484	1738.7156	63780.7	62887.55
909.4894	1740.4204	63609.65	62712.95
909.6304	1742.1246	63926.8	63030.1
909.7714	1743.8279	64065.5	63171.7
909.9123	1745.5306	63891.4	62996.8
910.0532	1747.2325	62358.4	61464.5
910.1941	1748.9336	62414.65	61522.95
910.335	1750.634	62944.7	62050.2
910.4759	1752.3336	63312.35	62418.35
910.6168	1754.0325	62186.35	61291.9
910.7576	1755.7307	63307.95	62414
910.8984	1757.4281	61855.55	60963.85
911.0392	1759.1247	62876.45	61972.95
911.18	1760.8206	61366.85	60468.25
911.3208	1762.5158	61540.1	60640.2
911.4615	1764.2102	61889.85	60995.7
911.6022	1765.9039	61585.35	60690.55
911.7429	1767.5968	61257.55	60365.75
911.8836	1769.289	61051.9	60159.3
912.0243	1770.9804	61310.35	60414.9
912.1649	1772.6711	61040.9	60144.65
912.3056	1774.361	60834.4	59937.85
912.4462	1776.0502	60886.95	59992.55
912.5868	1777.7386	59875.6	58978.3
912.7274	1779.4263	60401.15	59506
912.8679	1781.1132	60415.4	59521.5
913.0084	1782.7994	60068.15	59174.4
913.149	1784.4849	60155.2	59260.3
913.2895	1786.1696	58996.15	58096.95
913.4299	1787.8535	59692.3	58800.5
913.5704	1789.5367	59799.1	58906.95
913.7108	1791.2192	59042.5	58150.65
913.8513	1792.9009	58690.7	57765.65
913.9917	1794.5818	59127.85	58233.5
914.132	1796.2621	58519.6	57626.35
914.2724	1797.9415	58671.95	57776.25
914.4128	1799.6202	58487.4	57592.7
914.5531	1801.2982	58603.7	57711.7
914.6934	1802.9755	57906.1	57010.7
914.8337	1804.6519	57720.7	56826.1
914.9739	1806.3277	58513.3	57620.1
915.1142	1808.0027	57136.45	56243.6
915.2544	1809.6769	57534.3	56639.6
915.3946	1811.3504	57688.35	56794.65
915.5348	1813.0231	56689.95	55796.6
915.675	1814.6951	57243.6	56350.35
915.8151	1816.3664	56766.25	55872.1
915.9553	1818.0369	56873.6	55979.45
916.0954	1819.7067	56580.85	55689.35
916.2355	1821.3757	57092	56197.5
916.3755	1823.044	56216.3	55321.55
916.5156	1824.7115	55989.6	55097.5
916.6556	1826.3783	56106.5	55214.45
916.7956	1828.0443	56030.7	55136.3
916.9356	1829.7096	55748.05	54852.8
917.0756	1831.3741	55328.95	54432.15
917.2155	1833.0379	55508.15	54616.8
917.3555	1834.701	55396.6	54501.6
917.4954	1836.3633	54981.05	54087.15
917.6353	1838.0248	55178.45	54285.45
917.7751	1839.6856	55003.2	54109.55
917.915	1841.3457	54600.95	53707.9
918.0548	1843.005	54985.5	54092.05
918.1946	1844.6636	54682.15	53789.55
918.3344	1846.3214	54161.75	53270.05
918.4742	1847.9785	54301.5	53408.75
918.6139	1849.6349	54133.95	53241.25
918.7537	1851.2904	54362.85	53460.25
918.8934	1852.9453	53790.1	52895.15
919.0331	1854.5994	53842.45	52945.3
919.1727	1856.2528	53966.4	53068.05
919.3124	1857.9054	53546.35	52652
919.452	1859.5572	53429.65	52536.35
919.5916	1861.2083	53450.75	52558.65
919.7312	1862.8587	53799.5	52903.4
919.8708	1864.5084	52839.2	51944.8
920.0103	1866.1572	53079.1	52186.2
920.1498	1867.8054	52587.1	51691.85
920.2893	1869.4528	52855	51961.25
920.4288	1871.0994	52350.4	51456.7
920.5683	1872.7453	52331.55	51437.2
920.7077	1874.3905	52287.3	51387.75
920.8471	1876.0349	52014.75	51120.5
920.9865	1877.6786	52152.3	51257.25
921.1259	1879.3215	51956.8	51063.75
921.2653	1880.9637	52066.15	51170.5
921.4046	1882.6051	51756.5	50861.15
921.5439	1884.2458	51532.15	50635.9
921.6832	1885.8858	51266.1	50372.65
921.8225	1887.525	51336.75	50442.85
921.9617	1889.1634	51117.6	50225.1
922.101	1890.8011	50991.7	50100.05
922.2402	1892.4381	50591.6	49697.5
922.3794	1894.0743	50835.35	49940.8
922.5185	1895.7098	50591.2	49698.1
922.6577	1897.3446	50341.4	49446.8
922.7968	1898.9786	50277.3	49379.25
922.9359	1900.6118	50206.8	49313.65
923.075	1902.2443	49861.15	48965.35
923.214	1903.8761	49880.05	48988
923.3531	1905.5071	49595.55	48702.85
923.4921	1907.1374	49251.8	48357.7
923.6311	1908.7669	49328.7	48436.6
923.77	1910.3957	49280.95	48389.15
923.909	1912.0237	48879.65	47986.3
924.0479	1913.651	48772.45	47878.45
924.1868	1915.2776	48660.55	47769.15
924.3257	1916.9034	48471.8	47578.25
924.4646	1918.5285	48227.35	47334.3
924.6034	1920.1528	48078.3	47184.15
924.7422	1921.7764	48018.65	47126.85
924.881	1923.3992	47807.25	46915.9
925.0198	1925.0213	47467.5	46573.85
925.1586	1926.6427	47237.7	46346.1
925.2973	1928.2633	47290.15	46292.45
925.436	1929.8832	47113.15	46218.8
925.5747	1931.5023	46870.8	45979.25
925.7134	1933.1207	46679.65	45787.65
925.852	1934.7383	46633.75	45739.2
925.9906	1936.3552	46452.05	45559.55
926.1292	1937.9714	46317.75	45422.85
926.2678	1939.5868	46139.5	45243.6
926.4064	1941.2015	45874	44979.55
926.5449	1942.8154	45692.05	44797.6
926.6834	1944.4286	45475.7	44583.2
926.8219	1946.041	45388.15	44476.9
926.9604	1947.6528	45151.5	44253.7
927.0988	1949.2637	45027.8	44135.45
927.2372	1950.8739	44867.15	43973.75
927.3756	1952.4834	44754.9	43861.65
927.514	1954.0921	44675.75	43783.3
927.6523	1955.7001	44476.45	43577.85
927.7907	1957.3074	44325.25	43433.35
927.929	1958.9139	44109.7	43217.75
928.0673	1960.5197	43986.85	43094.85
928.2055	1962.1247	43750	42857.3
928.3438	1963.729	43584.85	42695.7
928.482	1965.3325	43463.05	42551.1
928.6202	1966.9353	43334.1	42441.65
928.7584	1968.5374	43166.2	42273.7
928.8965	1970.1387	43078.9	42185.65
929.0346	1971.7393	42843.75	41952
929.1727	1973.3392	42766.2	41874.7
929.3108	1974.9383	42594.35	41701.65
929.4489	1976.5366	42340.4	41449.5
929.5869	1978.1342	42307.9	41415.1
929.7249	1979.7311	42207.45	41314.95
929.8629	1981.3273	42037.35	41144.15
930.0009	1982.9227	41905.2	41012.55
930.1388	1984.5173	41800.7	40908.95
930.2767	1986.1112	41550.65	40659.95
930.4146	1987.7044	41517.95	40626.95
930.5525	1989.2968	41315.75	40423.35
930.6904	1990.8885	41297.4	40402.1
930.8282	1992.4795	41182.45	40288.85
930.966	1994.0697	40951.3	40060.7
931.1038	1995.6592	40819.1	39927
931.2415	1997.2479	40662.1	39770.65
931.3793	1998.8359	40574	39681.45
931.517	2000.4232	40398.85	39507.15
931.6547	2002.0097	40256.65	39366.9
931.7923	2003.5955	40069.65	39177.45
931.93	2005.1805	40011.15	39119.4
932.0676	2006.7648	39882.55	38990.2
932.2052	2008.3484	39735.25	38843.2
932.3427	2009.9312	39750.8	38859.3
932.4803	2011.5133	39537.6	38646.7
932.6178	2013.0946	39421.1	38531.7
932.7553	2014.6752	39311.7	38422.3
932.8928	2016.2551	39213.25	38322.2
933.0302	2017.8342	39025.9	38135.5
933.1676	2019.4126	38908.35	38017.35
933.305	2020.9902	38778.6	37888.45
933.4424	2022.5672	38650.2	37758.55
933.5798	2024.1433	38604.45	37708.55
933.7171	2025.7188	38411.2	37521.85
933.8544	2027.2935	38322.15	37433.1
933.9917	2028.8674	38146.65	37257.95
934.129	2030.4406	38107	37218.4
934.2662	2032.0131	37916.8	37026.75
934.4034	2033.5849	37718.6	36822.65
934.5406	2035.1559	37698.9	36808.4
934.6778	2036.7261	37618	36728.8
934.8149	2038.2957	37523.3	36633.55
934.952	2039.8645	37413.55	36522.1
935.0891	2041.4325	37401.9	36508.8
935.2262	2042.9998	37179.1	36287.75
935.3632	2044.5664	37062.25	36171.85
935.5002	2046.1323	36962.2	36072.25
935.6372	2047.6974	36823.35	35932.25
935.7742	2049.2617	36747.95	35858.7
935.9111	2050.8254	36673.35	35777.7
936.048	2052.3883	36551.05	35659.5
936.1849	2053.9504	36515.95	35626.15
936.3218	2055.5118	36359.65	35468.25
936.4586	2057.0725	36154.4	35262
936.5955	2058.6325	36111.65	35221.3
936.7323	2060.1917	36010.8	35121.3
936.869	2061.7502	35884.6	34992.05
937.0058	2063.3079	35750.7	34860.3
937.1425	2064.8649	35637.2	34742.7
937.2792	2066.4212	35521.45	34628.6
937.4159	2067.9767	35508.3	34618.45
937.5525	2069.5315	35310.2	34419.95
937.6891	2071.0856	35157.25	34268
937.8257	2072.6389	35000.9	34110.95
937.9623	2074.1915	34830.25	33940.05
938.0989	2075.7433	34695.3	33803.25
938.2354	2077.2945	34566.25	33676
938.3719	2078.8448	34469.15	33578.05
938.5084	2080.3945	34341.55	33452.6
938.6448	2081.9434	34319.05	33428.9
938.7812	2083.4916	34178.15	33285.45
938.9176	2085.039	34034.85	33139.75
939.054	2086.5857	33933.15	33040.95
939.1903	2088.1317	33906.05	33015.75
939.3267	2089.677	33755.8	32863.35
939.463	2091.2215	33668.7	32776.7
939.5992	2092.7652	33568.3	32676.5
939.7355	2094.3083	33451.9	32560.4
939.8717	2095.8506	33378.65	32487.5
940.0079	2097.3921	33363.75	32472.55
940.1441	2098.933	33238.95	32346.45
940.2802	2100.4731	33183.7	32292.85
940.4163	2102.0124	33114.45	32216.25
940.5524	2103.5511	33051.7	32161.65
940.6885	2105.089	32926.15	32035.3
940.8245	2106.6261	32870.65	31979.6
940.9606	2108.1626	32723.05	31831.35
941.0965	2109.6983	32651.9	31732.2
941.2325	2111.2332	32484.25	31591.4
941.3684	2112.7675	32425.25	31532.05
941.5044	2114.301	32364.1	31471.25
941.6403	2115.8337	32287.6	31394.85
941.7761	2117.3657	32179.4	31289.45
941.912	2118.897	32171.9	31277.95
942.0478	2120.4276	32008.15	31111.75
942.1835	2121.9575	31880.2	30989.45
942.3193	2123.4866	31866.9	30963.55
942.455	2125.0149	31725.8	30832.45
942.5907	2126.5426	31545.15	30656.2
942.7264	2128.0695	31470.8	30576.45
942.8621	2129.5956	31435.35	30542.95
942.9977	2131.1211	31328.3	30432.8
943.1333	2132.6458	31243.5	30352.65
943.2689	2134.1698	31189.15	30296.85
943.4044	2135.693	31065.6	30172.1
943.54	2137.2155	31015.8	30120.2
943.6755	2138.7373	30965.25	30073.5
943.8109	2140.2584	30803.05	29912.2
943.9464	2141.7787	30709.55	29813.65
944.0818	2143.2983	30538.1	29647.55
944.2172	2144.8171	30344.35	29454.6
944.3526	2146.3353	30355.5	29462.8
944.4879	2147.8527	30211.15	29319.6
944.6232	2149.3693	30181.85	29290.15
944.7585	2150.8853	30060.55	29168.05
944.8938	2152.4005	29910.35	29019.35
945.029	2153.9149	29822.25	28932.55
945.1642	2155.4287	29727.75	28835.8
945.2994	2156.9417	29651.25	28760.75
945.4346	2158.454	29592.6	28697.95
945.5697	2159.9655	29490.3	28601.55
945.7048	2161.4764	29508.6	28616.75
945.8399	2162.9865	29386	28495.85
945.9749	2164.4958	29288.75	28394
946.1099	2166.0045	29178.3	28282.6
946.2449	2167.5124	29153	28262.2
946.3799	2169.0195	29045.1	28156.1
946.5148	2170.526	29020.05	28129.8
946.6498	2172.0317	28909.85	28019.4
946.7846	2173.5367	28757.55	27865.1
946.9195	2175.0409	28684.2	27794.05
947.0543	2176.5445	28699.6	27810.1
947.1891	2178.0473	28590.15	27697.55
947.3239	2179.5494	28463.4	27567.65
947.4587	2181.0507	28340.2	27446.75
947.5934	2182.5513	28232.7	27340.75
947.7281	2184.0512	28193.85	27301.85
947.8628	2185.5504	28087.4	27197.95
947.9974	2187.0488	27935.9	27045.65
948.132	2188.5465	27819.95	26931.6
948.2666	2190.0435	27739.15	26847.2
948.4012	2191.5397	27650.3	26759.95
948.5357	2193.0353	27536.6	26647.5
948.6702	2194.5301	27389.5	26495.75
948.8047	2196.0241	27308.25	26417.05
948.9392	2197.5175	27270	26376.7
949.0736	2199.0101	27094.4	26199.75
949.208	2200.502	26954.45	26065.5
949.3424	2201.9931	26923.35	26035.6
949.4767	2203.4835	26799.55	25908.75
949.611	2204.9733	26747.65	25851.6
949.7453	2206.4622	26633.4	25742.85
949.8796	2207.9505	26515.6	25622.95
950.0138	2209.438	26438	25549
950.148	2210.9248	26343.45	25453.6
950.2822	2212.4109	26254.05	25364.25
950.4164	2213.8962	26156.8	25261.4
950.5505	2215.3809	26102.15	25208.7
950.6846	2216.8648	26020.5	25128.5
950.8186	2218.3479	25940.85	25043.65
950.9527	2219.8304	25853.2	24957.55
951.0867	2221.3121	25730.75	24836.9
951.2207	2222.7931	25657.3	24768.1
951.3546	2224.2733	25530.85	24641.45
951.4886	2225.7529	25454.25	24562.45
951.6225	2227.2317	25348.65	24455.65
951.7563	2228.7098	25377.95	24487.55
951.8902	2230.1872	25222.35	24332.9
952.024	2231.6638	25158.75	24266.8
952.1578	2233.1397	25052.3	24155.05
952.2916	2234.6149	24961.85	24071.1
952.4253	2236.0894	24881.9	23990.95
952.559	2237.5632	24833.25	23941.45
952.6927	2239.0362	24722	23830.25
952.8263	2240.5085	24583.55	23692.8
952.9599	2241.9801	24512.65	23619.25
953.0935	2243.4509	24438.25	23545.9
953.2271	2244.921	24393.85	23503.05
953.3606	2246.3904	24274.25	23378.7
953.4941	2247.8591	24160.1	23267.2
953.6276	2249.3271	24126.7	23235.9
953.7611	2250.7943	24021	23128.05
953.8945	2252.2608	23950.1	23059.4
954.0279	2253.7266	23865.95	22975.3
954.1612	2255.1917	23812.95	22922.55
954.2946	2256.656	23694.95	22804.5
954.4279	2258.1197	23632.65	22741.6
954.5612	2259.5826	23594.35	22701.5
954.6944	2261.0447	23556.4	22664.6
954.8276	2262.5062	23432.85	22539.3
954.9608	2263.9669	23380.4	22487.35
955.094	2265.4269	23332.85	22440.35
955.2271	2266.8862	23241.85	22353.65
955.3602	2268.3448	23208.2	22318.15
955.4933	2269.8026	23142.8	22253
955.6264	2271.2598	22999.75	22107.75
955.7594	2272.7162	22942.5	22051.8
955.8924	2274.1719	22893.1	22001.9
956.0253	2275.6268	22817.35	21924.5
956.1583	2277.0811	22790.85	21898.75
956.2912	2278.5346	22688.05	21796.25
956.4241	2279.9874	22616.1	21723.85
956.5569	2281.4395	22585.65	21696.6
956.6897	2282.8908	22488.55	21593
956.8225	2284.3414	22446	21552.8
956.9553	2285.7914	22341.2	21450.9
957.088	2287.2406	22311.5	21417.3
957.2207	2288.689	22249.95	21359.05
957.3534	2290.1368	22128.05	21236.35
957.486	2291.5838	22071.1	21176.5
957.6186	2293.0302	21994.25	21101.9
957.7512	2294.4758	21907.9	21015.35
957.8838	2295.9206	21785.7	20893.2
958.0163	2297.3648	21744.1	20853.05
958.1488	2298.8082	21746.85	20855
958.2813	2300.251	21670.1	20779.95
958.4137	2301.693	21569.75	20674.6
958.5461	2303.1343	21547.35	20654.6
958.6785	2304.5748	21455.2	20564.1
958.8108	2306.0147	21413.45	20521.1
958.9432	2307.4538	21305.65	20413.25
959.0754	2308.8922	21222.3	20332.8
959.2077	2310.3299	21184.65	20293.5
959.3399	2311.7669	21098.15	20207.95
959.4721	2313.2031	21022.75	20128.9
959.6043	2314.6387	20961.9	20071.7
959.7365	2316.0735	20903.6	20010.3
959.8686	2317.5076	20835.7	19944.65
960.0006	2318.941	20755.4	19866.05
960.1327	2320.3737	20674.8	19784.7
960.2647	2321.8056	20635.2	19743.8
960.3967	2323.2369	20601.65	19710.5
960.5287	2324.6674	20518.7	19625.75
960.6606	2326.0972	20412.4	19520
960.7925	2327.5263	20343.55	19452.15
960.9244	2328.9547	20284.35	19392.1
961.0562	2330.3823	20250.6	19360.55
961.1881	2331.8092	20243.45	19347.1
961.3198	2333.2355	20122.7	19229.75
961.4516	2334.661	20084.7	19192.05
961.5833	2336.0858	20039.65	19146.8
961.715	2337.5098	19998.95	19108.9
961.8467	2338.9332	19951.05	19058.8
961.9783	2340.3558	19857.9	18963.15
962.1099	2341.7778	19792.9	18900.35
962.2415	2343.199	19693.2	18800.4
962.373	2344.6195	19641.65	18752.7
962.5045	2346.0393	19603.3	18713.55
962.636	2347.4583	19536.9	18647.25
962.7675	2348.8767	19455.65	18560.95
962.8989	2350.2943	19375.35	18482.2
963.0303	2351.7113	19373.4	18479.85
963.1617	2353.1275	19284.25	18391.3
963.293	2354.543	19224.9	18325.15
963.4243	2355.9578	19160.25	18266.6
963.5556	2357.3718	18997.6	18107.9
963.6868	2358.7852	18953.55	18060.7
963.818	2360.1978	18901.1	18008.9
963.9492	2361.6098	18862.9	17972.35
964.0803	2363.021	18819.95	17925.05
964.2114	2364.4315	18741.7	17851.1
964.3425	2365.8413	18675.25	17782.45
964.4736	2367.2504	18580.1	17690.25
964.6046	2368.6587	18492.7	17602.4
964.7356	2370.0664	18434.65	17544.5
964.8666	2371.4733	18391.3	17499.6
964.9975	2372.8795	18301.35	17410.4
965.1284	2374.285	18214.5	17324.05
965.2593	2375.6899	18179.55	17290.55
965.3901	2377.0939	18055.55	17166.55
965.5209	2378.4973	17987.85	17097
965.6517	2379.9	17946.35	17053.7
965.7825	2381.3019	17850.55	16959.65
965.9132	2382.7032	17785.85	16897.65
966.0439	2384.1037	17785.95	16898.35
966.1745	2385.5035	17703.3	16812.1
966.3051	2386.9027	17641.5	16751.75
966.4357	2388.3011	17603	16706.55
966.5663	2389.6987	17561.65	16670.55
966.6968	2391.0957	17450.9	16562.1
966.8273	2392.492	17385.35	16496.65
966.9578	2393.8876	17256.2	16366.1
967.0882	2395.2824	17203.7	16312.75
967.2186	2396.6765	17131.15	16241.5
967.349	2398.07	17089.05	16199.6
967.4793	2399.4627	17049.1	16156.9
967.6097	2400.8547	16964.75	16074.05
967.7399	2402.246	16915.55	16018.7
967.8702	2403.6366	16802.15	15911.5
968.0004	2405.0265	16730.95	15842.3
968.1306	2406.4156	16655.7	15759.45
968.2607	2407.8041	16597.45	15703.55
968.3909	2409.1918	16526.55	15633.75
968.521	2410.5789	16499.5	15608.95
968.651	2411.9652	16423.9	15532.7
968.781	2413.3508	16363.1	15472.25
968.911	2414.7358	16300.15	15408.15
969.041	2416.12	16246.5	15356.1
969.1709	2417.5035	16224	15334.55
969.3008	2418.8863	16129.65	15238.65
969.4307	2420.2684	16092.75	15203.9
969.5606	2421.6497	15974.8	15083.25
969.6904	2423.0304	15887.35	14996.9
969.8201	2424.4104	15856.1	14966.1
969.9499	2425.7896	15792.35	14899.1
970.0796	2427.1682	15778.15	14886.25
970.2093	2428.546	15743.65	14854.2
970.3389	2429.9232	15684.85	14794.6
970.4685	2431.2996	15631.75	14743.95
970.5981	2432.6753	15608.05	14717.55
970.7277	2434.0503	15574.75	14683.25
970.8572	2435.4246	15469.15	14578.95
970.9867	2436.7982	15428.2	14536.95
971.1161	2438.1711	15386.4	14497.5
971.2456	2439.5433	15377.9	14485.8
971.375	2440.9148	15283.45	14386.5
971.5043	2442.2856	15208.85	14320.1
971.6336	2443.6557	15155.95	14265.7
971.7629	2445.025	15078.45	14187.7
971.8922	2446.3937	15070	14178.3
972.0214	2447.7617	14998.25	14107.15
972.1506	2449.1289	14973.85	14083.65
972.2798	2450.4955	14938.45	14042.6
972.4089	2451.8613	14860.95	13969.55
972.538	2453.2265	14831.7	13939.65
972.6671	2454.5909	14788.2	13896.7
972.7961	2455.9546	14732.85	13844.6
972.9251	2457.3177	14715.75	13825.2
973.0541	2458.68	14646.7	13754.25
973.1831	2460.0416	14668.5	13779
973.312	2461.4025	14602.85	13711.45
973.4408	2462.7627	14549.45	13649.55
973.5697	2464.1222	14480.8	13593
973.6985	2465.4811	14444.95	13553.15
973.8273	2466.8392	14416.85	13526.35
973.956	2468.1966	14348.45	13456.15
974.0847	2469.5533	14331.65	13439.85
974.2134	2470.9093	14296.6	13406.65
974.3421	2472.2645	14233.7	13340.15
974.4707	2473.6191	14180.5	13290.85
974.5993	2474.973	14141.05	13251.8
974.7278	2476.3262	14078.35	13185.8
974.8563	2477.6787	14037.25	13146.5
974.9848	2479.0305	13932.55	13043.6
975.1132	2480.3816	13918.1	13025.5
975.2417	2481.7319	13897.1	13004.65
975.37	2483.0816	13843.75	12954.05
975.4984	2484.4306	13772.3	12882.2
975.6267	2485.7789	13691.95	12801.35
975.755	2487.1264	13650.7	12757.75
975.8833	2488.4733	13559.65	12670.25
976.0115	2489.8195	13546.9	12639.8
976.1397	2491.165	13492.65	12599.85
976.2678	2492.5097	13428.3	12534.15
976.3959	2493.8538	13373.75	12483.65
976.524	2495.1972	13303.65	12414.85
976.6521	2496.5398	13266.55	12375.9
976.7801	2497.8818	13213.4	12320.9
976.9081	2499.2231	13185.2	12295.65
977.036	2500.5637	13129	12239.1
977.164	2501.9035	13108.65	12217.45
977.2918	2503.2427	13053.75	12159.2
977.4197	2504.5812	12994.3	12102.1
977.5475	2505.919	12956.15	12062.75
977.6753	2507.256	12953.05	12061.95
977.8031	2508.5924	12869.2	11979.3
977.9308	2509.9281	12827.8	11932.85
978.0585	2511.2631	12768.4	11879.6
978.1861	2512.5974	12773.75	11883.2
978.3137	2513.9309	12705.5	11814.45
978.4413	2515.2638	12654.45	11738.75
978.5689	2516.596	12626.25	11734.3
978.6964	2517.9275	12554.65	11663.1
978.8239	2519.2583	12517.8	11625.45
978.9513	2520.5884	12447.5	11553.05
979.0788	2521.9178	12423.95	11532.4
979.2062	2523.2465	12370.6	11481.8
979.3335	2524.5745	12310.35	11420.65
979.4608	2525.9018	12270.25	11379.3
979.5881	2527.2284	12263	11373.5
979.7154	2528.5543	12201.55	11312.55
979.8426	2529.8796	12163.3	11272.2
979.9698	2531.2041	12132	11242.25
980.0969	2532.5279	12116.05	11226.45
980.224	2533.851	12094.35	11202.9
980.3511	2535.1735	12052.75	11164.15
980.4781	2536.4952	12034.85	11144.65
980.6052	2537.8163	11985.35	11094.95
980.7321	2539.1366	11921.8	11032.25
980.8591	2540.4562	11913.35	11022.45
980.986	2541.7752	11890.85	11000.65
981.1129	2543.0935	11881.95	10989.95
981.2397	2544.411	11858.2	10965.45
981.3665	2545.7279	11805.5	10916.25
981.4933	2547.0441	11801.6	10908.65
981.62	2548.3596	11772.5	10879.3
981.7467	2549.6744	11725.2	10833.6
981.8734	2550.9885	11705.2	10807.8
982.0001	2552.3019	11635.65	10744.35
982.1267	2553.6146	11601.25	10709
982.2532	2554.9266	11569.2	10680.9
982.3798	2556.2379	11538.2	10645.95
982.5063	2557.5485	11528	10636.6
982.6327	2558.8585	11486.45	10588.7
982.7592	2560.1677	11458.1	10563
982.8856	2561.4762	11436	10543.5
983.0119	2562.7841	11383	10487.15
983.1383	2564.0913	11370.85	10480.3
983.2646	2565.3977	11350.65	10462.05
983.3908	2566.7035	11323.85	10433.85
983.517	2568.0086	11322.35	10430.2
983.6432	2569.313	11306.45	10415.9
983.7694	2570.6167	11247.1	10352.25
983.8955	2571.9197	11209.5	10319.2
984.0216	2573.222	11203.35	10308.6
984.1476	2574.5236	11171.75	10281.2
984.2737	2575.8246	11134.7	10240.7
984.3996	2577.1248	11109.3	10216.6
984.5256	2578.4244	11087.15	10198.45
984.6515	2579.7232	11051.15	10160.95
984.7774	2581.0214	11057.55	10140.95
984.9032	2582.3189	10983.55	10094.1
985.029	2583.6157	10993.5	10098.75
985.1548	2584.9118	10965.65	10074
985.2806	2586.2072	10951.1	10059.5
985.4063	2587.5019	10888.2	9998.85
985.5319	2588.7959	10857.15	9964.8
985.6576	2590.0893	10816.45	9924.75
985.7832	2591.3819	10783.95	9893.95
985.9087	2592.6739	10739.6	9849.7
986.0343	2593.9652	10731.5	9839.7
986.1597	2595.2557	10688.75	9797.95
986.2852	2596.5456	10643.05	9749.1
986.4106	2597.8348	10610.25	9720.5
986.536	2599.1234	10569.45	9678.3
986.6614	2600.4112	10537.4	9647.35
986.7867	2601.6983	10486.35	9593.45
986.912	2602.9848	10432.55	9541.15
987.0372	2604.2705	10407.05	9510.55
987.1624	2605.5556	10370.25	9478.5
987.2876	2606.84	10328.55	9439.5
987.4128	2608.1237	10306.5	9414.95
987.5379	2609.4067	10288.65	9397.7
987.6629	2610.689	10262.75	9365.15
987.788	2611.9707	10198.4	9303.25
987.913	2613.2516	10180.5	9285.4
988.0379	2614.5319	10124.75	9233.25
988.1629	2615.8115	10068.6	9177.6
988.2878	2617.0903	10053.6	9163.35
988.4126	2618.3685	10006.25	9115.75
988.5375	2619.6461	9963.55	9073.25
988.6622	2620.9229	9941.6	9052.25
988.787	2622.199	9928.45	9037
988.9117	2623.4745	9889	8997.7
989.0364	2624.7493	9840.35	8948.4
989.161	2626.0234	9807.85	8916.9
989.2857	2627.2968	9758.75	8867.8
989.4102	2628.5695	9734.15	8843
989.5348	2629.8415	9677.9	8789
989.6593	2631.1128	9642.9	8750.75
989.7837	2632.3835	9577.95	8685.45
989.9082	2633.6535	9558.1	8669.1
990.0326	2634.9228	9560.4	8668.3
990.1569	2636.1914	9502.65	8612.15
990.2812	2637.4593	9468	8576.95
990.4055	2638.7265	9443	8550.25
990.5298	2639.9931	9399.65	8511.25
990.654	2641.259	9384.6	8492.4
990.7782	2642.5242	9361.5	8470.2
990.9023	2643.7887	9340.95	8450.35
991.0264	2645.0525	9318.3	8427.1
991.1505	2646.3156	9251	8359
991.2745	2647.5781	9213.25	8321.5
991.3985	2648.8398	9179.35	8289.25
991.5225	2650.1009	9145.2	8246.5
991.6464	2651.3613	9142.8	8252.7
991.7703	2652.6211	9136.55	8247.95
991.8942	2653.8801	9086.75	8196.1
992.018	2655.1385	9062.55	8168.55
992.1418	2656.3961	9046.7	8155.75
992.2655	2657.6531	9017.7	8124.85
992.3892	2658.9094	8995.15	8105.6
992.5129	2660.1651	8967.9	8077.35
992.6366	2661.42	8935.05	8045.25
992.7602	2662.6743	8932.2	8040.75
992.8837	2663.9279	8902.9	8010.2
993.0073	2665.1808	8876.7	7984.15
993.1307	2666.433	8824.8	7934.15
993.2542	2667.6846	8793.3	7904.1
993.3776	2668.9354	8795.3	7900.05
993.501	2670.1856	8761.65	7869.05
993.6244	2671.4351	8735	7845.05
993.7477	2672.6839	8740.1	7847.5
993.8709	2673.9321	8679.35	7788.75
993.9942	2675.1795	8676.9	7787.35
994.1174	2676.4263	8626.6	7732.55
994.2405	2677.6724	8605.15	7714.95
994.3637	2678.9179	8590.45	7699.4
994.4868	2680.1626	8565.7	7674.6
994.6098	2681.4067	8557.3	7667.7
994.7328	2682.6501	8488.35	7596.85
994.8558	2683.8928	8486.6	7592.7
994.9788	2685.1348	8439.65	7549.1
995.1017	2686.3761	8383.8	7491.75
995.2245	2687.6168	8390.3	7499.3
995.3474	2688.8568	8319.9	7427.45
995.4702	2690.0961	8321.05	7432.05
995.5929	2691.3348	8293.5	7404.45
995.7156	2692.5727	8275.15	7384.75
995.8383	2693.81	8255.25	7364.9
995.961	2695.0466	8219.9	7329.75
996.0836	2696.2826	8196.45	7303.75
996.2062	2697.5178	8167.1	7273.65
996.3287	2698.7524	8152	7259.4
996.4512	2699.9863	8121.8	7231.05
996.5737	2701.2195	8068.75	7179.15
996.6961	2702.452	8068.1	7174.8
996.8185	2703.6839	8081.2	7188.65
996.9408	2704.9151	8035	7144.15
997.0631	2706.1456	8014.6	7123.5
997.1854	2707.3755	7958.2	7067
997.3077	2708.6046	7967.8	7075.3
997.4299	2709.8331	7949.4	7059.05
997.552	2711.0609	7910.9	7019.35
997.6742	2712.2881	7872.05	6982.1
997.7963	2713.5145	7870.65	6977.3
997.9183	2714.7403	7837.55	6948.6
998.0403	2715.9654	7808.8	6916.55
998.1623	2717.1899	7807.55	6901.2
998.2842	2718.4136	7797.35	6909.2
998.4062	2719.6367	7775.9	6885.75
998.528	2720.8591	7765.15	6868.65
998.6498	2722.0809	7730.9	6840.1
998.7716	2723.3019	7712.9	6815.8
998.8934	2724.5223	7681.4	6788.55
999.0151	2725.7421	7649.05	6757.15
999.1368	2726.9611	7648.1	6753.35
999.2584	2728.1795	7631.4	6738.1
999.38	2729.3972	7614.6	6723.5
999.5016	2730.6142	7577.2	6675
999.6231	2731.8306	7511	6619.4
999.7446	2733.0462	7458.85	6566.25
999.8661	2734.2612	7427.2	6531.85
999.9875	2735.4756	7374	6482.7
1000.1089	2736.6892	7337.05	6446.4
1000.2302	2737.9022	7308.6	6418.95
1000.3515	2739.1145	7272	6380.5
1000.4728	2740.3262	7240.9	6343.05
1000.594	2741.5372	7201.4	6310.45
1000.7152	2742.7475	7152.85	6260.55
1000.8363	2743.9571	7143.05	6252
1000.9575	2745.1661	7106.5	6211.9
1001.0785	2746.3744	7075.2	6183.65
1001.1996	2747.582	7047.7	6156.85
1001.3206	2748.7889	7021.9	6129.15
1001.4415	2749.9952	6991.15	6101.2
1001.5625	2751.2008	6945.55	6053
1001.6833	2752.4057	6937.15	6045.15
1001.8042	2753.61	6906.9	6014.65
1001.925	2754.8136	6891	5999.15
1002.0458	2756.0165	6860.95	5972.4
1002.1665	2757.2188	6826.35	5934.55
1002.2872	2758.4204	6805.45	5915.15
1002.4078	2759.6213	6792.15	5898.6
1002.5285	2760.8215	6796.15	5901.2
1002.649	2762.0211	6755.15	5862.5
1002.7696	2763.22	6735.7	5842.9
1002.8901	2764.4182	6737.35	5846.45
1003.0106	2765.6158	6694.1	5803
1003.131	2766.8127	6646.9	5756.55
1003.2514	2768.009	6628.2	5740
1003.3717	2769.2045	6615	5721.8
1003.492	2770.3994	6600.15	5706.7
1003.6123	2771.5936	6578.3	5686.75
1003.7325	2772.7872	6554	5663.6
1003.8527	2773.9801	6529.95	5638.15
1003.9729	2775.1723	6515.65	5609.95
1004.093	2776.3639	6492.35	5603.3
1004.2131	2777.5548	6444.95	5551.8
1004.3331	2778.745	6442.25	5552
1004.4531	2779.9346	6433.4	5543.75
1004.5731	2781.1235	6397.5	5505.65
1004.693	2782.3117	6376.8	5486.45
1004.8129	2783.4992	6353.55	5463.7
1004.9328	2784.6861	6354.95	5464.8
1005.0526	2785.8723	6336.7	5447.9
1005.1723	2787.0579	6311.15	5418.65
1005.2921	2788.2428	6303.45	5415.5
1005.4118	2789.427	6287.05	5396.45
1005.5314	2790.6106	6267.5	5376.45
1005.651	2791.7935	6265.05	5374.25
1005.7706	2792.9757	6228.3	5337.15
1005.8902	2794.1573	6224.2	5331.6
1006.0097	2795.3382	6212.65	5323.45
1006.1291	2796.5184	6209.8	5320.6
1006.2485	2797.698	6201.1	5309.5
1006.3679	2798.8769	6198.15	5309.85
1006.4873	2800.0551	6207.5	5315.65
1006.6066	2801.2327	6180	5286.5
1006.7258	2802.4096	6175.3	5282.85
1006.8451	2803.5859	6185.4	5295.9
1006.9642	2804.7615	6169.85	5279.55
1007.0834	2805.9364	6175.25	5286.45
1007.2025	2807.1106	6194.9	5306.7
1007.3216	2808.2842	6185.75	5293.9
1007.4406	2809.4572	6215.25	5324.9
1007.5596	2810.6294	6223.15	5331.6
1007.6785	2811.801	6253.6	5363.35
1007.7975	2812.972	6280.55	5389.95
1007.9163	2814.1423	6278.9	5387.3
1008.0352	2815.3119	6316	5426.8
1008.154	2816.4808	6328.55	5439.6
1008.2727	2817.6491	6376.3	5485.55
1008.3914	2818.8167	6415.45	5526.7
1008.5101	2819.9837	6451.6	5558.35
1008.6288	2821.15	6461.85	5572.1
1008.7474	2822.3157	6485.1	5594.7
1008.8659	2823.4807	6514.05	5624.25
1008.9844	2824.645	6566.45	5676.9
1009.1029	2825.8086	6574.8	5685.85
1009.2214	2826.9716	6601.55	5713.1
1009.3398	2828.134	6648.4	5758.25
1009.4581	2829.2957	6676.2	5784.1
1009.5764	2830.4567	6660.5	5772.45
1009.6947	2831.617	6670.6	5782
1009.813	2832.7767	6683.25	5794.2
1009.9312	2833.9358	6658.95	5769.55
1010.0493	2835.0941	6633.7	5741.15
1010.1675	2836.2519	6628.95	5738.95
1010.2855	2837.4089	6601.5	5710.45
1010.4036	2838.5653	6584.1	5693.55
1010.5216	2839.7211	6556.45	5669.9
1010.6396	2840.8761	6559.25	5668.45
1010.7575	2842.0306	6569.65	5681.1
1010.8754	2843.1843	6602.1	5712.8
1010.9932	2844.3374	6606.85	5718.6
1011.111	2845.4899	6672.05	5782.6
1011.2288	2846.6417	6716.95	5824.75
1011.3465	2847.7928	6791.2	5902.65
1011.4642	2848.9433	6841.4	5951.75
1011.5818	2850.0931	6915.9	6027.65
1011.6995	2851.2422	6975.05	6085.1
1011.817	2852.3907	7013.75	6123.25
1011.9345	2853.5385	7081.1	6190.05
1012.052	2854.6857	7137.25	6218.95
1012.1695	2855.8323	7148.05	6257.4
1012.2869	2856.9781	7168.2	6279.6
1012.4042	2858.1233	7199.5	6308.35
1012.5216	2859.2679	7235.85	6347.85
1012.6389	2860.4118	7264	6374.6
1012.7561	2861.555	7300.2	6406.15
1012.8733	2862.6976	7306.05	6413.65
1012.9905	2863.8395	7324.45	6434.25
1013.1076	2864.9808	7337.6	6446.3
1013.2247	2866.1214	7321.1	6431
1013.3417	2867.2614	7325.3	6434.75
1013.4587	2868.4007	7302.5	6410.8
1013.5757	2869.5393	7289	6397.75
1013.6926	2870.6773	7292.15	6400.15
1013.8095	2871.8146	7310.8	6416.45
1013.9263	2872.9513	7266.75	6375.15
1014.0431	2874.0874	7264.4	6375.2
1014.1599	2875.2227	7231.25	6342.05
1014.2766	2876.3574	7181.5	6290.75
1014.3933	2877.4915	7166.2	6275.4
1014.51	2878.6249	7102.8	6214.75
1014.6266	2879.7577	7082.95	6191.85
1014.7431	2880.8898	7044.8	6143.75
1014.8596	2882.0212	6985.85	6095.8
1014.9761	2883.152	6985.75	6098.2
1015.0925	2884.2821	6955.05	6065.45
1015.2089	2885.4116	6924.8	6035.5
1015.3253	2886.5405	6899.5	6009.3
1015.4416	2887.6686	6889.4	5999.6
1015.5579	2888.7962	6866.55	5977.3
1015.6741	2889.923	6867.1	5976.7
1015.7903	2891.0493	6876.6	5987.7
1015.9065	2892.1748	6858.65	5968.75
1016.0226	2893.2997	6853.7	5962.8
1016.1387	2894.424	6852.2	5965.8
1016.2547	2895.5476	6850.75	5962.2
1016.3707	2896.6706	6865.05	5977.9
1016.4866	2897.7929	6859.75	5970.3
1016.6025	2898.9145	6899.3	6010.1
1016.7184	2900.0355	6884.65	5995.25
1016.8342	2901.1559	6903.1	6012.65
1016.95	2902.2756	6914.3	6025.75
1017.0658	2903.3946	6944.65	6053.7
1017.1815	2904.513	6960.6	6068.5
1017.2971	2905.6308	6952.55	6063.85
1017.4127	2906.7479	6989.1	6098.15
1017.5283	2907.8643	6989.05	6098.8
1017.6439	2908.9801	6973.3	6081.65
1017.7594	2910.0953	6971.6	6082.6
1017.8748	2911.2098	6950.5	6056.85
1017.9902	2912.3236	6932.3	6034.7
1018.1056	2913.4368	6909.7	6017.25
1018.2209	2914.5494	6864.6	5973.55
1018.3362	2915.6613	6842.25	5947.6
1018.4515	2916.7725	6813.9	5921.55
1018.5667	2917.8831	6761.6	5872.15
1018.6819	2918.9931	6717.85	5825.35
1018.797	2920.1024	6668.8	5776.75
1018.9121	2921.211	6651.5	5762.4
1019.0271	2922.319	6625.65	5735.15
1019.1421	2923.4264	6583.25	5691.65
1019.2571	2924.5331	6552.9	5663.3
1019.372	2925.6391	6521.25	5633.65
1019.4869	2926.7445	6506.85	5618.1
1019.6017	2927.8493	6490.15	5599.9
1019.7165	2928.9534	6484.7	5595.75
1019.8313	2930.0569	6456.9	5564.7
1019.946	2931.1597	6442.45	5553.85
1020.0606	2932.2619	6427.85	5539.15
1020.1753	2933.3634	6410.4	5522.95
1020.2899	2934.4643	6433.1	5533.15
1020.4044	2935.5645	6372.95	5476.9
1020.5189	2936.6641	6325.9	5431.9
1020.6334	2937.763	6252.4	5362.45
1020.7478	2938.8613	6208.6	5319.75
1020.8622	2939.959	6146.2	5251.95
1020.9765	2941.056	6068.1	5178.8
1021.0908	2942.1523	5946.6	5055.8
1021.2051	2943.248	5867.25	4974.55
1021.3193	2944.3431	5761.55	4871.95
1021.4334	2945.4375	5636.05	4746.3
1021.5476	2946.5313	5533.7	4647.4
1021.6617	2947.6244	5428.15	4539.45
1021.7757	2948.7169	5324.35	4434.5
1021.8897	2949.8087	5223.45	4334.65
1022.0037	2950.8999	5090.7	4199.85
1022.1176	2951.9904	5010.9	4121.95
1022.2315	2953.0803	4927.05	4036.6
1022.3453	2954.1696	4869.7	3980
1022.4591	2955.2582	4827	3940.05
1022.5728	2956.3462	4748.3	3858.45
1022.6865	2957.4335	4697.2	3806.35
1022.8002	2958.5202	4640.25	3749.25
1022.9138	2959.6062	4606.75	3717.6
1023.0274	2960.6916	4575.05	3685.35
1023.141	2961.7764	4535.5	3645.65
1023.2545	2962.8605	4509.2	3619.25
1023.3679	2963.9439	4471.75	3580.15
1023.4813	2965.0267	4453.95	3561.8
1023.5947	2966.1089	4459	3546.65
1023.708	2967.1905	4417.9	3529.45
1023.8213	2968.2714	4411	3524.05
1023.9346	2969.3516	4403.3	3514.45
1024.0478	2970.4312	4394.5	3498.45
1024.1609	2971.5102	4367.5	3479.1
1024.274	2972.5885	4371.75	3484.85
1024.3871	2973.6662	4355.25	3461.1
1024.5002	2974.7432	4345.2	3455.25
1024.6132	2975.8196	4326.8	3437.4
1024.7261	2976.8954	4291.15	3403.15
1024.839	2977.9705	4274.15	3385.05
1024.9519	2979.045	4252.95	3361.7
1025.0647	2980.1188	4237.2	3348.2
1025.1775	2981.192	4212.55	3323.55
1025.2902	2982.2645	4164.2	3273.25
1025.4029	2983.3364	4126.35	3238.65
1025.5156	2984.4077	4086.75	3198.7
1025.6282	2985.4783	4066.2	3171.35
1025.7407	2986.5483	4023.65	3134.9
1025.8532	2987.6177	3979.8	3091.15
1025.9657	2988.6864	3924.25	3034.95
1026.0782	2989.7545	3912.35	3020.75
1026.1906	2990.8219	3863.5	2973.1
1026.3029	2991.8887	3802.15	2910.95
1026.4152	2992.9548	3769.8	2880.05
1026.5275	2994.0204	3752.15	2863.05
1026.6397	2995.0852	3690.5	2803.25
1026.7519	2996.1495	3665.7	2775.8
1026.864	2997.2131	3637.9	2747.95
1026.9761	2998.276	3608.45	2720.15
1027.0882	2999.3383	3582.75	2692.95
1027.2002	3000.4	3558.85	2667.2
1027.3122	3001.4611	3531.7	2641.85
1027.4241	3002.5215	3497.85	2609.3
1027.536	3003.5812	3482.95	2593.35
1027.6478	3004.6404	3465.8	2576.8
1027.7596	3005.6989	3434.35	2543.55
1027.8714	3006.7567	3419.8	2529.85
1027.9831	3007.8139	3419.65	2512.25
1028.0947	3008.8705	3383.4	2494.8
1028.2064	3009.9264	3397.85	2505.35
1028.3179	3010.9818	3357.3	2468.05
1028.4295	3012.0364	3363.8	2472.45
1028.541	3013.0905	3344.1	2454.65
1028.6524	3014.1439	3332.85	2442.9
1028.7638	3015.1966	3327.65	2437.85
1028.8752	3016.2487	3320.5	2431.45
1028.9865	3017.3002	3309.45	2414.7
1029.0978	3018.3511	3307.5	2418.35
1029.209	3019.4013	3292.8	2403.4
1029.3202	3020.4509	3284.95	2395.8
1029.4314	3021.4998	3268.3	2379.75
1029.5425	3022.5481	3267.5	2379
1029.6535	3023.5958	3263.95	2375
1029.7645	3024.6428	3251	2359.8
1029.8755	3025.6892	3244.9	2356.15
1029.9864	3026.735	3239.2	2349.7
1030.0973	3027.7802	3243	2353
1030.2082	3028.8247	3211.9	2323.8
1030.319	3029.8685	3213.7	2326.3
1030.4297	3030.9118	3201.9	2311.65
1030.5404	3031.9544	3204.15	2314.6
1030.6511	3032.9963	3197.25	2306.65
1030.7617	3034.0376	3196	2310.05
1030.8723	3035.0783	3184.3	2292.75
1030.9829	3036.1184	3182.75	2292.1
1031.0934	3037.1578	3185	2296.5
1031.2038	3038.1966	3175.2	2283.4
1031.3142	3039.2348	3152.45	2264.85
1031.4246	3040.2723	3154.75	2256.9
1031.5349	3041.3092	3140.3	2251.05
1031.6452	3042.3455	3137.7	2249.95
1031.7554	3043.3811	3129.2	2237.85
1031.8656	3044.4161	3118.65	2229.8
1031.9758	3045.4505	3103.4	2214.85
1032.0859	3046.4842	3098.7	2207.05
1032.1959	3047.5173	3076.6	2188.15
1032.3059	3048.5498	3064.05	2174.1
1032.4159	3049.5816	3058.55	2168.7
1032.5258	3050.6128	3045.8	2156.3
1032.6357	3051.6434	3035.6	2144.95
1032.7455	3052.6734	3015.1	2124.75
1032.8553	3053.7027	3002.75	2112.8
1032.9651	3054.7314	2985.65	2098.75
1033.0748	3055.7594	2977.85	2090.25
1033.1845	3056.7868	2974.25	2083.4
1033.2941	3057.8136	2961.85	2071.9
1033.4037	3058.8398	2942.65	2053.1
1033.5132	3059.8653	2933.85	2042.95
1033.6227	3060.8902	2912.25	2024.05
1033.7321	3061.9145	2903.6	2013.9
1033.8415	3062.9381	2899.15	2011.5
1033.9509	3063.9612	2888.6	1984.15
1034.0602	3064.9835	2877.35	1988.7
1034.1694	3066.0053	2860.2	1969.45
1034.2787	3067.0264	2841.75	1954.4
1034.3878	3068.0469	2831.4	1940.7
1034.497	3069.0668	2818.9	1926.7
1034.6061	3070.086	2805.9	1918.6
1034.7151	3071.1046	2794.25	1906.55
1034.8241	3072.1226	2777.55	1884.75
1034.9331	3073.1399	2768.6	1880.2
1035.042	3074.1567	2750.35	1861.75
1035.1508	3075.1727	2726.3	1835.45
1035.2597	3076.1882	2719.2	1829.6
1035.3684	3077.203	2696.7	1807.75
1035.4772	3078.2173	2689.65	1800.85
1035.5859	3079.2308	2684.6	1791.4
1035.6945	3080.2438	2673.3	1781.95
1035.8031	3081.2561	2655.35	1768.15
1035.9117	3082.2678	2637.45	1749.2
1036.0202	3083.2789	2631	1742.55
1036.1286	3084.2893	2611.75	1722.45
1036.2371	3085.2991	2589.85	1702.3
1036.3454	3086.3083	2588	1695.55
1036.4538	3087.3169	2570	1680.1
1036.562	3088.3248	2556.05	1664.85
1036.6703	3089.3321	2551.65	1661.7
1036.7785	3090.3388	2529.5	1641.2
1036.8866	3091.3449	2528.8	1640.15
1036.9948	3092.3503	2520.75	1629.25
1037.1028	3093.3551	2522.65	1635.25
1037.2108	3094.3593	2504.5	1616.1
1037.3188	3095.3629	2487.9	1597.75
1037.4267	3096.3658	2486.85	1595
1037.5346	3097.3681	2469.55	1579.6
1037.6425	3098.3698	2469.85	1578.65
1037.7503	3099.3708	2463.3	1568.35
1037.858	3100.3713	2433.1	1543.5
1037.9657	3101.3711	2439.15	1549.45
1038.0734	3102.3702	2547.8	1518.1
1038.181	3103.3688	2431.15	1540.25
1038.2886	3104.3667	2419.45	1532.25
1038.3961	3105.364	2399.55	1511
1038.5036	3106.3607	2385.55	1495.6
1038.611	3107.3568	2367.1	1476.9
1038.7184	3108.3522	2373.5	1486.05
1038.8257	3109.347	2360.7	1471.7
1038.933	3110.3412	2345	1453.25
1039.0403	3111.3348	2336.95	1447.55
1039.1475	3112.3277	2330.25	1441.6
1039.2547	3113.32	2322.4	1435.75
1039.3618	3114.3117	2320	1432.45
1039.4689	3115.3028	2311.65	1422.5
1039.5759	3116.2932	2292.9	1400.45
1039.6829	3117.2831	2306.1	1412.45
1039.7898	3118.2723	2274	1385.55
1039.8967	3119.2608	2277.3	1389.85
1040.0035	3120.2488	2270	1382.15
1040.1103	3121.2361	2268	1378.15
1040.2171	3122.2229	2253.25	1365.05
1040.3238	3123.209	2239.25	1347.45
1040.4305	3124.1944	2235.25	1346.1
1040.5371	3125.1793	2237.7	1346.75
1040.6437	3126.1635	2224.5	1337
1040.7502	3127.1471	2215.4	1328.05
1040.8567	3128.1301	2212.45	1324.15
1040.9631	3129.1125	2198.65	1311.2
1041.0695	3130.0942	2202.55	1313.95
1041.1759	3131.0753	2205.15	1308.65
1041.2822	3132.0558	2185.4	1293.7
1041.3884	3133.0357	2178.3	1288.15
1041.4946	3134.015	2174.45	1284.6
1041.6008	3134.9936	2167.8	1279.4
1041.7069	3135.9716	2183.85	1274.2
1041.813	3136.949	2162.7	1274.95
1041.919	3137.9258	2157.05	1263.35
1042.025	3138.902	2156.65	1261.45
1042.1309	3139.8775	2128.9	1240.75
1042.2368	3140.8524	2122.25	1233.4
1042.3427	3141.8267	2129.1	1238.7
1042.4485	3142.8004	2109.25	1219.5
1042.5542	3143.7735	2120.7	1225.4
1042.6599	3144.7459	2110.55	1218.8
1042.7656	3145.7178	2093.75	1204.1
1042.8712	3146.689	2101.35	1212.5
1042.9768	3147.6596	2092.4	1203.65
1043.0823	3148.6295	2086.5	1197.75
1043.1878	3149.5989	2075.6	1187.2
1043.2932	3150.5676	2074.3	1186.9
1043.3986	3151.5357	2064.2	1176.4
1043.5039	3152.5032	2065.8	1177.15
1043.6092	3153.4701	2048.15	1157.9
1043.7145	3154.4364	2061.15	1171.9
1043.8197	3155.402	2039	1154.25
1043.9248	3156.367	2039.4	1150.45
1044.03	3157.3315	2067.1	1135.6
1044.135	3158.2952	2029.85	1139.05
1044.24	3159.2584	2005.4	1117.1
1044.345	3160.221	1998.65	1109.75
1044.4499	3161.1829	1997.2	1108.8
1044.5548	3162.1442	1994.75	1106.6
1044.6596	3163.105	1982.3	1094.7
1044.7644	3164.065	1985.05	1096.7
1044.8692	3165.0245	1976.8	1085.7
1044.9739	3165.9834	1960.5	1073
1045.0785	3166.9416	1961.2	1072.65
1045.1831	3167.8993	1954.65	1066.6
1045.2877	3168.8563	1950.55	1062.6
1045.3922	3169.8127	1942.9	1053.05
1045.4966	3170.7684	1935.9	1048.95
1045.6011	3171.7236	1940.65	1051.65
1045.7054	3172.6782	1925.85	1036.05
1045.8098	3173.6321	1919.9	1029.15
1045.914	3174.5854	1908.15	1016
1046.0183	3175.5381	1905.7	1016.35
1046.1224	3176.4902	1899.2	1010.1
1046.2266	3177.4417	1897.2	1008.8
1046.3307	3178.3926	1889.05	1000.45
1046.4347	3179.3428	1879.4	990.35
1046.5387	3180.2924	1886.05	998.8
1046.6427	3181.2415	1870.55	980.7
1046.7466	3182.1899	1868.6	978.75
1046.8504	3183.1377	1861.1	972.75
1046.9542	3184.0848	1866.3	974.35
1047.058	3185.0314	1857.3	968.9
1047.1617	3185.9773	1850.65	960.85
1047.2654	3186.9227	1845.35	957.5
1047.369	3187.8674	1841.85	953.3
1047.4726	3188.8115	1829.75	937.55
1047.5761	3189.755	1827.75	939.95
1047.6796	3190.6979	1823.3	933.2
1047.783	3191.6402	1818.05	930.4
1047.8864	3192.5818	1806.3	917.45
1047.9898	3193.5229	1828.35	916.5
1048.0931	3194.4633	1805.25	915.05
1048.1963	3195.4031	1803.25	913.3
1048.2995	3196.3423	1789.65	901.4
1048.4027	3197.2809	1785.45	897.2
1048.5058	3198.2189	1783.3	892.9
1048.6089	3199.1563	1795.1	900.15
1048.7119	3200.0931	1774.1	886.3
1048.8148	3201.0292	1766.85	880.2
1048.9178	3201.9648	1766.9	879.35
1049.0206	3202.8997	1767.35	877.7
1049.1235	3203.834	1757.05	869.95
1049.2262	3204.7677	1758.75	869.55
1049.329	3205.7008	1750.45	860.3
1049.4317	3206.6333	1742.95	856.25
1049.5343	3207.5652	1739.05	849.1
1049.6369	3208.4964	1731.9	843.9
1049.7394	3209.4271	1741	852
1049.8419	3210.3571	1726.6	840.3
1049.9444	3211.2865	1721.95	833.7
1050.0468	3212.2154	1718.6	829.05
1050.1491	3213.1436	1720.75	829.8
1050.2514	3214.0712	1713.65	818.4
1050.3537	3214.9982	1713.2	825.5
1050.4559	3215.9246	1708.75	818.2
1050.5581	3216.8503	1696.8	808.75
1050.6602	3217.7755	1693.95	807.35
1050.7623	3218.7001	1686.3	797.3
1050.8643	3219.624	1690.05	800.4
1050.9663	3220.5473	1678.95	790.5
1051.0682	3221.4701	1677.55	785.4
1051.1701	3222.3922	1680.75	789.55
1051.2719	3223.3137	1664.6	775.35
1051.3737	3224.2346	1665.05	777.65
1051.4754	3225.1549	1664.95	777.6
1051.5771	3226.0746	1652.1	763.95
1051.6788	3226.9937	1662.75	773.9
1051.7804	3227.9121	1644.65	756.65
1051.8819	3228.83	1638.8	749.45
1051.9834	3229.7473	1640.65	752.85
1052.0849	3230.6639	1638.6	749.75
1052.1863	3231.5799	1639.4	753.3
1052.2876	3232.4954	1628.9	739.75
1052.3889	3233.4102	1624.55	735.6
1052.4902	3234.3244	1614.9	726.35
1052.5914	3235.238	1620.25	733
1052.6926	3236.151	1630.9	719.3
1052.7937	3237.0634	1614.9	726.15
1052.8948	3237.9752	1608.05	720.2
1052.9958	3238.8864	1601.7	713.65
1053.0968	3239.797	1591.15	704.2
1053.1977	3240.7069	1582.45	695.15
1053.2986	3241.6163	1588.05	696.85
1053.3994	3242.5251	1577.8	688.6
1053.5002	3243.4332	1579.15	691.85
1053.6009	3244.3408	1572.05	683.8
1053.7016	3245.2477	1572.9	684.25
1053.8022	3246.154	1565.25	673.35
1053.9028	3247.0598	1565.35	678.1
1054.0034	3247.9649	1559.45	672.3
1054.1039	3248.8694	1544.85	658.1
1054.2043	3249.7733	1551.05	662.9
1054.3047	3250.6766	1548.45	658.7
1054.4051	3251.5793	1542.65	652.55
1054.5054	3252.4814	1534.9	646.65
1054.6056	3253.3829	1526.85	639.25
1054.7058	3254.2838	1535.9	649.25
1054.806	3255.1841	1521.85	635.15
1054.9061	3256.0838	1521.15	632.2
1055.0061	3256.9829	1507.5	619.4
1055.1062	3257.8814	1511.25	620.6
1055.2061	3258.7792	1510.8	618.05
1055.306	3259.6765	1498.05	609.7
1055.4059	3260.5731	1494.05	605.2
1055.5057	3261.4692	1478.95	591.45
1055.6055	3262.3647	1476.9	588.05
1055.7052	3263.2595	1469.1	579.7
1055.8049	3264.1538	1465.8	578.35
1055.9045	3265.0474	1447.85	558.9
1056.0041	3265.9404	1442.35	554.4
1056.1036	3266.8329	1430.1	543.95
1056.2031	3267.7247	1436.25	537.2
1056.3025	3268.616	1404.9	518.85
1056.4019	3269.5066	1398.95	510.9
1056.5013	3270.3966	1393.75	503.6
1056.6005	3271.286	1363.95	476.3
