Software Version:	3.9.2.0
Unit SN:	10000200
Spectrometer SN:	6960
Date:	3/6/2024 9:57:44 AM
Data Line Index:	25
Spectral Points:	2048
Integration time (ms):	125
Averages:	20
Delay (ms):	30
Sequence Number:	1
Processing:	dark subtract
Laser Power (mW):	300
Laser Current (mA):	825
Laser Diode Temp (C):	25.1
Laser Case Temp (C):	24.6
System Temp (C):	24.4
Spectrometer Temp (C):	21.9
CCD Temp (C):	-0.029
Secondary Temp (C):	20.004
Heatsink Temp (C):	18.197
CCDPCB Temp (C):	31.66
SecondaryPCB Temp (C):	26.214

Wavelength	RamanShift	Raw Counts	Dark Subtracted
787.061	30.1047	697.15	289.75
787.2016	32.3739	705.9	297.95
787.3422	34.6426	724.8	316.6
787.4828	36.9109	742.25	333.45
787.6235	39.1787	767.3	354.5
787.7642	41.4461	793.1	376.35
787.9049	43.7131	824.15	404.5
788.0456	45.9796	844.35	419.15
788.1863	48.2456	873.05	446.1
788.3271	50.5112	898.9	467.2
788.4679	52.7764	933.15	499.3
788.6087	55.0411	965.45	528.45
788.7496	57.3054	1007.2	563.05
788.8904	59.5692	1037.05	591.75
789.0313	61.8326	1075.8	627.5
789.1722	64.0955	1123.1	671.75
789.3132	66.3579	1183.7	727.35
789.4541	68.6199	1246.3	785.8
789.5951	70.8815	1361.25	897.15
789.7361	73.1426	1619.6	1151.4
789.8771	75.4032	2263.45	1793.2
790.0181	77.6634	3926.8	3452.3
790.1592	79.9231	8062.6	7583.35
790.3003	82.1824	18822.65	18333.7
790.4414	84.4412	39507.8	39005.2
790.5825	86.6995	52843.4	52320.35
790.7237	88.9574	58303.35	57764.6
790.8648	91.2148	61475.85	60929.25
791.006	93.4717	62180.05	61626.65
791.1472	95.7282	62500.5	61941.9
791.2885	97.9842	62630.7	62070.2
791.4297	100.2398	62625.2	62064.05
791.571	102.4949	62636.7	62067.25
791.7123	104.7495	62661.2	62091.4
791.8536	107.0036	62580.65	62012.3
791.9949	109.2573	62711.3	62144.35
792.1363	111.5105	62633.5	62061.5
792.2777	113.7632	62660	62086.55
792.4191	116.0154	62709	62123.15
792.5605	118.2672	62791.1	62211.8
792.7019	120.5185	62806.5	62226.1
792.8434	122.7693	62796.15	62213.35
792.9849	125.0197	62709.25	62121.65
793.1264	127.2696	62947.6	62356.75
793.2679	129.519	62903.65	62312.7
793.4094	131.7679	63008.95	62408.1
793.551	134.0163	62791.75	62192.05
793.6926	136.2642	62875.65	62269.15
793.8342	138.5117	63032.5	62418.9
793.9758	140.7587	62960.05	62349.6
794.1175	143.0052	62979.4	62365.9
794.2591	145.2512	62865.3	62253.5
794.4008	147.4967	63012.1	62399.95
794.5425	149.7417	62960.5	62344.1
794.6842	151.9863	62958.1	62334.75
794.826	154.2304	62879.35	62256.6
794.9677	156.4739	62949.1	62318.9
795.1095	158.717	63050.45	62419.85
795.2513	160.9596	62974.85	62338.85
795.3931	163.2017	62852.45	62217.2
795.535	165.4433	62990.9	62351.25
795.6768	167.6844	62917.8	62281.95
795.8187	169.925	63007	62364.9
795.9606	172.1651	62934.5	62290.95
796.1025	174.4047	62971.35	62320
796.2445	176.6439	62957.35	62307.4
796.3864	178.8825	62920.15	62264.35
796.5284	181.1206	63058.35	62399.4
796.6704	183.3582	63018.8	62355.05
796.8124	185.5954	62987.4	62320.55
796.9544	187.832	63004.3	62336.75
797.0965	190.0681	62917.5	62248.6
797.2386	192.3037	63061.15	62388.75
797.3806	194.5388	63225.35	62547.35
797.5228	196.7734	62869.95	62192.9
797.6649	199.0075	63209.3	62527.1
797.807	201.2411	63067.95	62385.7
797.9492	203.4742	63268.15	62583.35
798.0914	205.7068	63223.7	62534.95
798.2336	207.9389	63226.15	62536.65
798.3758	210.1704	63201.9	62520.75
798.518	212.4015	63317.8	62642.95
798.6603	214.632	63178.55	62512.5
798.8025	216.862	63326.05	62659.5
798.9448	219.0915	63257.9	62587.7
799.0871	221.3205	63251.5	62579.7
799.2294	223.549	63362.7	62696.1
799.3718	225.777	63344.3	62673.65
799.5141	228.0044	63404.4	62726.7
799.6565	230.2314	63351.95	62676
799.7989	232.4578	63368.05	62684.6
799.9413	234.6837	63377.65	62689.35
800.0837	236.909	63569.15	62878.8
800.2262	239.1339	63290.9	62575.3
800.3687	241.3582	63439.6	62739.75
800.5111	243.582	63421.75	62692.65
800.6536	245.8053	63428.15	62712.4
800.7961	248.0281	63430.9	62717.9
800.9387	250.2503	63476.8	62759.1
801.0812	252.472	63391.75	62671.9
801.2238	254.6932	63460.05	62740.7
801.3664	256.9139	63424.45	62704.15
801.509	259.134	63598.85	62874.8
801.6516	261.3536	63402.6	62682.75
801.7942	263.5727	63508.85	62785.8
801.9369	265.7912	63449	62724
802.0795	268.0092	63460.55	62738.75
802.2222	270.2267	63478.95	62756.2
802.3649	272.4436	63409.8	62681.05
802.5076	274.6601	63486.05	62748.15
802.6504	276.8759	63527.45	62792.4
802.7931	279.0913	63477.95	62746
802.9359	281.3061	63498	62760.7
803.0787	283.5204	63509.8	62772.4
803.2215	285.7341	63512.5	62769.7
803.3643	287.9473	63595.55	62846.1
803.5071	290.16	63535.3	62791.1
803.6499	292.3721	63570.1	62832.95
803.7928	294.5837	63480.7	62742.15
803.9357	296.7947	63434.45	62696.45
804.0786	299.0052	63581.6	62842.6
804.2215	301.2152	63506.8	62762.8
804.3644	303.4246	63574.3	62835.15
804.5074	305.6334	63571.3	62829.8
804.6503	307.8418	63464.4	62721.55
804.7933	310.0495	63486.05	62739.05
804.9363	312.2568	63471.75	62723
805.0793	314.4635	63474	62723.55
805.2223	316.6696	63511.45	62757.35
805.3653	318.8752	63544.35	62782.2
805.5084	321.0802	63376.25	62624.35
805.6514	323.2847	63474.15	62715.85
805.7945	325.4887	63453.1	62697.5
805.9376	327.692	63403.4	62645.2
806.0807	329.8949	63458.9	62699.45
806.2238	332.0972	63423.85	62660.75
806.367	334.2989	63464.35	62696.35
806.5101	336.5001	63513.6	62751.1
806.6533	338.7007	63386.65	62621.2
806.7965	340.9008	63462.25	62692.6
806.9397	343.1003	63466.5	62697.85
807.0829	345.2992	63513.1	62742.85
807.2261	347.4976	63432.35	62661.05
807.3693	349.6955	63465.8	62686.35
807.5126	351.8927	63436.25	62661.5
807.6559	354.0895	63483.55	62695.95
807.7991	356.2856	63493.4	62714.9
807.9424	358.4812	63539	62761.9
808.0857	360.6763	63429	62647.45
808.2291	362.8707	63521.25	62739.35
808.3724	365.0646	63454.55	62670.05
808.5158	367.258	63468.1	62682.55
808.6591	369.4508	63395.25	62606.8
808.8025	371.643	63501.5	62712.2
808.9459	373.8346	63444.2	62655
809.0893	376.0257	63468.05	62672.9
809.2327	378.2162	63447.1	62653.75
809.3762	380.4062	63368.5	62578.45
809.5196	382.5956	63400.3	62608.7
809.6631	384.7844	63400.95	62617.7
809.8066	386.9726	63447.45	62663.3
809.9501	389.1603	63443.35	62659.6
810.0936	391.3474	63378.2	62562.4
810.2371	393.5339	63434.2	62645.6
810.3806	395.7199	63330.15	62544.45
810.5241	397.9052	63337.55	62552.7
810.6677	400.09	63373.75	62585.1
810.8113	402.2743	63445.3	62656.2
810.9548	404.4579	63336.05	62546.9
811.0984	406.641	63359.9	62567.95
811.2421	408.8235	63405.75	62612.8
811.3857	411.0054	63401.3	62606.3
811.5293	413.1868	63402.9	62602
811.673	415.3675	63366.35	62562.6
811.8166	417.5477	63397.3	62594.3
811.9603	419.7273	63374.25	62566.95
812.104	421.9064	63353.55	62541.25
812.2477	424.0848	63372.45	62569
812.3914	426.2627	63416.65	62613.25
812.5351	428.4399	63336.3	62530.25
812.6788	430.6166	63259.75	62448.85
812.8226	432.7928	63345.45	62532.05
812.9663	434.9683	63259.15	62445.7
813.1101	437.1432	63255.75	62444.3
813.2539	439.3176	63323.75	62512.05
813.3977	441.4914	63198.15	62389.45
813.5415	443.6645	63205.25	62394.35
813.6853	445.8371	63208.85	62397.45
813.8291	448.0091	63153.45	62342.2
813.973	450.1806	63151.1	62338.3
814.1168	452.3514	63148.8	62334.7
814.2607	454.5216	63089.4	62268.25
814.4046	456.6913	63131.85	62314.45
814.5485	458.8603	63155.8	62340.5
814.6924	461.0288	63070.35	62254.85
814.8363	463.1967	63157.2	62343.7
814.9802	465.3639	63141.2	62326
815.1241	467.5306	62970.6	62153.55
815.2681	469.6967	63073	62256
815.412	471.8622	63102.05	62287.55
815.556	474.0271	63034.55	62219.85
815.7	476.1914	63062.3	62241.3
815.844	478.3551	63081.65	62260.75
815.988	480.5182	63165.7	62344.3
816.132	482.6807	63034.9	62215.8
816.276	484.8426	63048	62235.3
816.4201	487.0039	63152.65	62336.9
816.5641	489.1647	63141.5	62322.4
816.7082	491.3248	63014.75	62195
816.8522	493.4843	63156.95	62336.4
816.9963	495.6432	63158.35	62334.85
817.1404	497.8015	63013.05	62185.6
817.2845	499.9592	63105.3	62276.65
817.4286	502.1163	63090.55	62259.35
817.5727	504.2728	63076.4	62251.5
817.7168	506.4287	63087.75	62266.45
817.861	508.5839	63015.25	62191.75
818.0051	510.7386	63077.05	62251.05
818.1493	512.8927	63093.85	62261.2
818.2935	515.0461	63052.25	62222.7
818.4377	517.199	63109.8	62279
818.5818	519.3512	63032.85	62199.1
818.726	521.5029	63026.6	62192.45
818.8703	523.6539	63046.3	62213.5
819.0145	525.8043	62953.15	62116.8
819.1587	527.9541	63046.75	62209.1
819.303	530.1033	63041.1	62205.45
819.4472	532.2519	62989.3	62152.85
819.5915	534.3999	63055.65	62215.95
819.7357	536.5472	63066.45	62232.65
819.88	538.694	62905.8	62070.35
820.0243	540.8401	63015.9	62177.55
820.1686	542.9856	63012.8	62171.15
820.3129	545.1305	63063.55	62222.45
820.4572	547.2748	62959.7	62116.45
820.6016	549.4185	62977.55	62128.95
820.7459	551.5615	63029.25	62186.9
820.8902	553.704	63019.35	62177.65
821.0346	555.8458	62956.45	62115.8
821.1789	557.987	62972.5	62130.6
821.3233	560.1276	63006.55	62164.9
821.4677	562.2675	62952.1	62108.5
821.6121	564.4069	62957.05	62111.4
821.7565	566.5456	63030.25	62186.85
821.9009	568.6837	62912.75	62070.1
822.0453	570.8212	62965.45	62121.25
822.1897	572.958	62807.1	61960.2
822.3342	575.0942	62934.5	62094
822.4786	577.2299	62858.35	62015.4
822.6231	579.3648	62808.5	61969.4
822.7675	581.4992	62763.7	61927.9
822.912	583.6329	62753.2	61918.65
823.0565	585.766	62741.05	61904.45
823.201	587.8985	62776.25	61935.3
823.3454	590.0304	62628.05	61771.65
823.4899	592.1616	62739.35	61890.85
823.6345	594.2922	62654.5	61805.85
823.779	596.4222	62615.65	61764.35
823.9235	598.5515	62637.5	61787.25
824.068	600.6802	62664.9	61815.5
824.2126	602.8083	62534.45	61683.95
824.3571	604.9358	62565.8	61716.3
824.5017	607.0626	62635.35	61782.65
824.6462	609.1888	62494.25	61638.45
824.7908	611.3144	62566.75	61712.3
824.9354	613.4393	62503.85	61649.9
825.08	615.5636	62456.75	61598.9
825.2246	617.6873	62523.2	61667.4
825.3692	619.8103	62431.25	61573.5
825.5138	621.9327	62507.4	61648.65
825.6584	624.0544	62532.9	61681.8
825.803	626.1756	62472.6	61619.6
825.9477	628.2961	62444.55	61587.2
826.0923	630.4159	62414.3	61556.4
826.237	632.5351	62378.3	61519.45
826.3816	634.6537	62517.6	61660.1
826.5263	636.7716	62392.25	61531.2
826.6709	638.8889	62422.25	61558.85
826.8156	641.0056	62401.7	61542.1
826.9603	643.1216	62409.9	61546.2
827.105	645.237	62449.65	61587.7
827.2497	647.3518	62335.85	61477.1
827.3944	649.4659	62377.35	61521.8
827.5391	651.5793	62389.45	61534.2
827.6838	653.6922	62405	61544.65
827.8285	655.8043	62318.2	61457.1
827.9733	657.9159	62429.3	61568.35
828.118	660.0268	62195.15	61331.95
828.2627	662.137	62295.85	61435.05
828.4075	664.2466	62316.45	61450.1
828.5522	666.3556	62265.5	61399.5
828.697	668.4639	62298.35	61431.3
828.8418	670.5716	62245.9	61383.85
828.9865	672.6786	62298.9	61434.95
829.1313	674.785	62212.1	61345.35
829.2761	676.8907	62202.85	61337.4
829.4209	678.9958	62224.3	61362.35
829.5657	681.1002	62236.3	61372.4
829.7105	683.204	62157.25	61287.35
829.8553	685.3072	62122.3	61253.7
830.0001	687.4097	62126.5	61260.1
830.1449	689.5115	62114.9	61246.8
830.2898	691.6127	62175.5	61310.2
830.4346	693.7132	62085.15	61219.05
830.5794	695.8131	62127.15	61242.2
830.7243	697.9123	62130.15	61259.65
830.8691	700.0109	62148.25	61276.6
831.014	702.1089	62035.15	61165.6
831.1588	704.2061	62077.6	61207.4
831.3037	706.3028	62076.45	61204.3
831.4486	708.3987	62064.65	61191.25
831.5935	710.4941	62031.9	61162.35
831.7383	712.5887	62070	61197.95
831.8832	714.6827	62037.5	61162.2
832.0281	716.7761	62057.65	61187.1
832.173	718.8688	62058.95	61184.8
832.3179	720.9608	62011.05	61133.9
832.4628	723.0522	62038.15	61159.9
832.6077	725.1429	61967.55	61093
832.7527	727.233	62055	61180.15
832.8976	729.3224	61872.35	60997.7
833.0425	731.4112	61947.85	61073.45
833.1874	733.4993	61933.8	61058.95
833.3324	735.5867	61920.65	61042.65
833.4773	737.6735	61865.8	60989.3
833.6222	739.7596	61819.35	60942.75
833.7672	741.845	61806.05	60931
833.9122	743.9298	61852.6	60976.65
834.0571	746.014	61761.7	60885.65
834.2021	748.0974	61678.6	60800.35
834.347	750.1802	61800.1	60922.55
834.492	752.2624	61651.8	60773.1
834.637	754.3439	61644.25	60763.35
834.782	756.4247	61653	60763.6
834.9269	758.5048	61556.9	60678
835.0719	760.5843	61589.75	60709.4
835.2169	762.6631	61601.05	60723.9
835.3619	764.7413	61540.95	60662.3
835.5069	766.8188	61542.8	60662.95
835.6519	768.8956	61582	60701.35
835.7969	770.9718	61567.3	60687
835.9419	773.0473	61496.65	60616.7
836.0869	775.1221	61384.2	60504.8
836.232	777.1962	61393.7	60513.65
836.377	779.2697	61235.2	60352.7
836.522	781.3426	61282.5	60382.8
836.667	783.4147	61297.4	60413.25
836.8121	785.4862	61264.45	60384.4
836.9571	787.557	61128.35	60242.8
837.1021	789.6271	61239.8	60355.1
837.2472	791.6966	61153.95	60270.8
837.3922	793.7654	60991.2	60108.05
837.5373	795.8335	60994.25	60112.4
837.6823	797.901	61020.05	60135.75
837.8274	799.9678	60967.2	60082.3
837.9724	802.0339	60877.1	59994.45
838.1175	804.0993	60933.65	60040.2
838.2626	806.1641	60830.9	59947.55
838.4076	808.2282	60777.4	59891.8
838.5527	810.2916	60769.95	59885
838.6978	812.3544	60856.8	59975.5
838.8428	814.4164	60626.4	59743
838.9879	816.4778	60667.95	59780.65
839.133	818.5385	60661.95	59772.55
839.2781	820.5986	60669.85	59783.3
839.4232	822.658	60662.5	59773.9
839.5682	824.7166	60674.45	59787.5
839.7133	826.7747	60519.45	59632
839.8584	828.832	60597.5	59711.55
840.0035	830.8886	60644.95	59755.15
840.1486	832.9446	60641.7	59754.1
840.2937	834.9999	60316.85	59433.95
840.4388	837.0545	60485.75	59596.45
840.5839	839.1085	60506.8	59617.5
840.729	841.1618	60443.7	59549.5
840.8741	843.2143	60229.2	59341.1
841.0192	845.2662	60213.95	59324.9
841.1643	847.3175	60287.15	59399.65
841.3095	849.368	60037.15	59149.95
841.4546	851.4179	60240.15	59351.8
841.5997	853.467	60038.1	59150.35
841.7448	855.5155	60154.4	59267.9
841.8899	857.5633	60000.4	59113.2
842.0351	859.6105	59912.95	59024.3
842.1802	861.6569	60015.35	59124.6
842.3253	863.7027	59802.3	58912.35
842.4704	865.7478	59860.9	58970.15
842.6156	867.7922	59806.15	58914.5
842.7607	869.8359	59915.55	59023
842.9058	871.8789	59621.35	58730.05
843.0509	873.9212	59784.55	58864.6
843.1961	875.9629	59730	58841.05
843.3412	878.0039	59716.65	58825.9
843.4863	880.0441	59623.75	58736.45
843.6315	882.0837	59610.35	58722.4
843.7766	884.1226	59616.55	58725.6
843.9218	886.1609	59627.95	58737.8
844.0669	888.1984	59551	58662.6
844.212	890.2352	59724.9	58835.4
844.3572	892.2714	59489.35	58594
844.5023	894.3069	59606.1	58716.35
844.6475	896.3416	59454.1	58560.65
844.7926	898.3757	59427.5	58537.15
844.9377	900.4091	59159.9	58269.2
845.0829	902.4418	59478.8	58581
845.228	904.4739	59269.95	58373.9
845.3732	906.5052	59277.2	58384.65
845.5183	908.5358	59164.85	58270.35
845.6635	910.5658	59111.9	58217.1
845.8086	912.595	59093.95	58199.7
845.9538	914.6236	58832.3	57937.9
846.0989	916.6515	59176.05	58282.95
846.2441	918.6786	58767.15	57873.05
846.3892	920.7051	58875.55	57977.15
846.5344	922.7309	58822.6	57929.25
846.6795	924.756	58818.55	57924.6
846.8246	926.7804	58724.3	57830
846.9698	928.8041	58448.85	57552.8
847.1149	930.8272	58633.45	57739.95
847.2601	932.8495	58593.8	57697.35
847.4052	934.8711	58442.1	57545
847.5504	936.892	58317	57421.75
847.6955	938.9123	58360.85	57464.45
847.8407	940.9318	58223.95	57328.7
847.9858	942.9506	58212.35	57317.1
848.131	944.9688	58228.35	57334
848.2761	946.9862	57947.05	57052.8
848.4213	949.003	57996.35	57100.4
848.5664	951.019	57762.1	56866.25
848.7115	953.0344	57802.05	56908.5
848.8567	955.0491	57772.1	56875.9
849.0018	957.063	57799.4	56905.35
849.147	959.0763	57803.7	56907.8
849.2921	961.0888	57673.05	56776.65
849.4373	963.1007	57730.2	56835.85
849.5824	965.1119	57714.05	56822
849.7275	967.1223	57583	56692.95
849.8727	969.1321	57731.15	56842.3
850.0178	971.1412	57513.6	56619.85
850.1629	973.1495	57428.2	56533.6
850.3081	975.1572	57467.45	56531.3
850.4532	977.1641	57391.95	56493.75
850.5983	979.1704	57343.1	56445
850.7435	981.1759	57356.25	56457.6
850.8886	983.1808	57243.75	56344.35
851.0337	985.1849	57186.5	56280.3
851.1788	987.1884	57192.85	56294.2
851.324	989.1911	57208.55	56309.55
851.4691	991.1932	57018.1	56119.2
851.6142	993.1945	56995	56101.2
851.7593	995.1951	56989.7	56092.35
851.9045	997.1951	56876.6	55974.1
852.0496	999.1943	56785.6	55889.25
852.1947	1001.1928	56738.6	55840.3
852.3398	1003.1906	56661.05	55763.7
852.4849	1005.1877	56575.85	55676.4
852.63	1007.1841	56452.1	55556.2
852.7751	1009.1798	56450.35	55555.2
852.9202	1011.1748	56384.2	55490.3
853.0653	1013.1691	56341.3	55444.35
853.2104	1015.1627	56140.5	55243.4
853.3555	1017.1556	56089.45	55193.85
853.5006	1019.1477	56071.95	55175.8
853.6457	1021.1392	55935.35	55040.85
853.7908	1023.1299	55781.25	54887.1
853.9359	1025.12	55760.1	54868.1
854.081	1027.1093	55644.6	54756.85
854.2261	1029.0979	55645.1	54762.2
854.3712	1031.0859	55581.6	54692.9
854.5163	1033.0731	55472.75	54576.55
854.6613	1035.0596	55444	54549.3
854.8064	1037.0454	55322.95	54426.95
854.9515	1039.0304	55279.2	54386.1
855.0965	1041.0148	55151.05	54254.45
855.2416	1042.9985	55154.5	54255.3
855.3867	1044.9814	55148.1	54250.9
855.5317	1046.9636	55060.7	54161.45
855.6768	1048.9452	54940.85	54045.65
855.8219	1050.926	54937.5	54041.15
855.9669	1052.9061	54903.8	54009
856.112	1054.8855	54875.3	53976.2
856.257	1056.8642	54793.3	53895.8
856.4021	1058.8421	54761.1	53862.6
856.5471	1060.8194	54731.1	53833.75
856.6921	1062.7959	54652.1	53753.7
856.8372	1064.7717	54657.3	53757.3
856.9822	1066.7469	54590.2	53689.3
857.1272	1068.7213	54570.3	53669.45
857.2723	1070.695	54526.15	53629.55
857.4173	1072.6679	54440.65	53542.35
857.5623	1074.6402	54422.35	53521
857.7073	1076.6117	54409.3	53504.4
857.8523	1078.5826	54398.35	53497.5
857.9973	1080.5527	54297.95	53395.35
858.1423	1082.5221	54232.4	53333.55
858.2873	1084.4908	54221.15	53321.35
858.4323	1086.4587	54137.05	53236.1
858.5773	1088.426	54116.5	53214.7
858.7223	1090.3925	54072.15	53169.8
858.8673	1092.3584	54053.9	53156.2
859.0123	1094.3235	53926.9	53028.95
859.1573	1096.2879	53905.75	53006.75
859.3022	1098.2515	53862.55	52961.25
859.4472	1100.2145	53865.05	52966.8
859.5922	1102.1767	53807.95	52909.85
859.7371	1104.1382	53807.6	52907.15
859.8821	1106.099	53750.4	52850.3
860.027	1108.0591	53698.35	52799.05
860.172	1110.0185	53576.55	52676
860.3169	1111.9771	53646.05	52748.65
860.4619	1113.9351	53568.35	52669.7
860.6068	1115.8923	53498.7	52600.45
860.7517	1117.8488	53423.65	52521.85
860.8967	1119.8045	53279	52378.7
861.0416	1121.7596	53269.7	52369.35
861.1865	1123.7139	53170.6	52272.05
861.3314	1125.6675	53156.5	52256.6
861.4763	1127.6204	53090.65	52190.75
861.6212	1129.5726	52998.9	52098.05
861.7661	1131.524	53024.1	52123.85
861.911	1133.4748	53020.55	52119.65
862.0559	1135.4248	52861.2	51960.25
862.2008	1137.3741	52872.35	51975.25
862.3457	1139.3226	52824.45	51924.35
862.4905	1141.2705	52780.85	51881.45
862.6354	1143.2176	52679.3	51773.85
862.7803	1145.164	52530.15	51628.35
862.9251	1147.1097	52633.3	51735.05
863.07	1149.0546	52529.2	51627.4
863.2148	1150.9989	52540.35	51638.5
863.3597	1152.9424	52393.9	51495.25
863.5045	1154.8852	52461.75	51561
863.6493	1156.8272	52365.65	51467
863.7942	1158.7686	52436.9	51529.95
863.939	1160.7092	52246.65	51345.85
864.0838	1162.6491	52224.4	51322.55
864.2286	1164.5883	52238.45	51339.8
864.3734	1166.5267	52139.95	51239.55
864.5182	1168.4644	52180.4	51282.05
864.663	1170.4014	52156.65	51252.15
864.8078	1172.3377	52216.15	51319.1
864.9526	1174.2732	52205.9	51308.2
865.0974	1176.2081	52171.75	51272.45
865.2421	1178.1421	52133.5	51230.25
865.3869	1180.0755	52216	51316.8
865.5317	1182.0082	52140.35	51238.6
865.6764	1183.9401	52155.75	51257.05
865.8212	1185.8713	51987.7	51090.85
865.9659	1187.8017	51953.9	51058.25
866.1106	1189.7315	51915.95	51026.4
866.2554	1191.6605	51765.15	50874.9
866.4001	1193.5888	51651.45	50760.45
866.5448	1195.5163	51553.7	50656.95
866.6895	1197.4432	51493.4	50594.65
866.8342	1199.3693	51432.75	50534.4
866.9789	1201.2947	51318.45	50413.25
867.1236	1203.2193	51284.45	50385.75
867.2683	1205.1432	51169.9	50271.9
867.413	1207.0664	51117	50218
867.5576	1208.9889	51035	50133.4
867.7023	1210.9106	51004.05	50104.3
867.847	1212.8316	50901.2	50004.3
867.9916	1214.7519	50913.75	50006.85
868.1363	1216.6715	50805.05	49908
868.2809	1218.5903	50808.7	49912.45
868.4255	1220.5084	50751.15	49850.25
868.5701	1222.4257	50751.65	49853.05
868.7148	1224.3424	50679.7	49783.4
868.8594	1226.2583	50593.05	49689.5
869.004	1228.1735	50639.2	49738.9
869.1486	1230.0879	50474.05	49573.15
869.2932	1232.0016	50488.4	49592.05
869.4377	1233.9146	50364.6	49465.55
869.5823	1235.8269	50365.1	49467.05
869.7269	1237.7384	50357.8	49460.2
869.8715	1239.6492	50279.7	49380.05
870.016	1241.5592	50182.9	49284.7
870.1606	1243.4686	50176	49277.05
870.3051	1245.3772	50114	49213.75
870.4496	1247.285	50102.4	49204.15
870.5941	1249.1922	50024.95	49126.35
870.7387	1251.0986	50050.2	49153.65
870.8832	1253.0042	49929.5	49031.95
871.0277	1254.9092	49972.35	49075.4
871.1722	1256.8134	49834.9	48937.3
871.3167	1258.7169	49912.15	49010.05
871.4611	1260.6196	49829.35	48931.85
871.6056	1262.5216	49853.75	48952.95
871.7501	1264.4229	49853.15	48954.3
871.8945	1266.3234	49832.3	48934.05
872.039	1268.2232	49819.75	48920.6
872.1834	1270.1223	49759.95	48862.1
872.3278	1272.0207	49735.05	48835
872.4723	1273.9183	49683.1	48779
872.6167	1275.8151	49636.45	48738.3
872.7611	1277.7113	49614	48713.6
872.9055	1279.6067	49522.2	48625.5
873.0499	1281.5014	49488.4	48587.4
873.1943	1283.3953	49535.15	48629.5
873.3386	1285.2885	49551.6	48655.3
873.483	1287.181	49592.25	48695.65
873.6274	1289.0727	49665.45	48770.7
873.7717	1290.9637	49580.85	48684.3
873.9161	1292.854	49654.55	48756.35
874.0604	1294.7435	49578.95	48678.3
874.2047	1296.6323	49540.25	48640.5
874.349	1298.5204	49463.75	48560.2
874.4933	1300.4077	49475.85	48574.85
874.6376	1302.2943	49372.75	48474
874.7819	1304.1802	49320.6	48420.65
874.9262	1306.0653	49214.4	48315.3
875.0705	1307.9497	49140.3	48243.8
875.2147	1309.8333	49080.55	48182.45
875.359	1311.7162	49044.75	48147.6
875.5032	1313.5984	48981.45	48080
875.6475	1315.4798	48875.25	47974.65
875.7917	1317.3605	48842.35	47927.75
875.9359	1319.2405	48791.15	47891.9
876.0801	1321.1197	48663.55	47763
876.2243	1322.9982	48642.85	47739.7
876.3685	1324.876	48569.35	47669.25
876.5127	1326.753	48388.3	47488.35
876.6569	1328.6293	48545.55	47645.85
876.801	1330.5048	48459.95	47556.55
876.9452	1332.3796	48360.95	47461.7
877.0893	1334.2537	48256.3	47331.6
877.2335	1336.127	48251.35	47351.25
877.3776	1337.9996	48167.45	47270.3
877.5217	1339.8714	48183.25	47283.55
877.6658	1341.7426	47908.5	46966.8
877.8099	1343.6129	48078.2	47176.95
877.954	1345.4826	48028.75	47127.35
878.0981	1347.3515	47782.5	46880
878.2422	1349.2196	47941.6	47039.3
878.3862	1351.087	47949.05	47050.6
878.5303	1352.9537	47903.05	47001.7
878.6743	1354.8197	47924.6	47023.8
878.8184	1356.6849	47890.65	46991.95
878.9624	1358.5493	47867.35	46968
879.1064	1360.4131	47721.4	46820.95
879.2504	1362.276	47887.45	46991.05
879.3944	1364.1383	47663.85	46765.85
879.5384	1365.9998	47476.05	46574.1
879.6823	1367.8606	47528.8	46629.5
879.8263	1369.7206	47359.1	46458.6
879.9702	1371.5799	47201.15	46297.8
880.1142	1373.4384	47053	46151.95
880.2581	1375.2962	46981.7	46081.15
880.402	1377.1533	46603.95	45704.5
880.5459	1379.0096	46465.8	45565.9
880.6898	1380.8652	46376.05	45479.85
880.8337	1382.7201	46212.95	45315.6
880.9776	1384.5742	46130.85	45231.75
881.1215	1386.4275	45744.85	44843.15
881.2653	1388.2802	45830.65	44929.15
881.4092	1390.132	45837.65	44937.5
881.553	1391.9832	45519	44619.25
881.6968	1393.8336	45297.35	44398.4
881.8406	1395.6832	45381.55	44480.35
881.9844	1397.5322	45371.4	44473.9
882.1282	1399.3803	45095.6	44191.75
882.272	1401.2278	45029.55	44130.7
882.4158	1403.0745	44913.9	44015.6
882.5595	1404.9204	44879.9	43981.7
882.7033	1406.7656	44839.3	43940.55
882.847	1408.6101	44533.4	43633.85
882.9908	1410.4538	44572.8	43674.05
883.1345	1412.2968	44595.9	43699.05
883.2782	1414.139	44328.45	43428.95
883.4219	1415.9805	44387.75	43491.15
883.5656	1417.8213	44144.2	43239.7
883.7092	1419.6613	44299.55	43402.15
883.8529	1421.5006	44147.55	43246.75
883.9965	1423.3391	44095.15	43196.95
884.1402	1425.1769	44108.85	43210.5
884.2838	1427.0139	44288.65	43389.95
884.4274	1428.8502	44216.15	43316.3
884.571	1430.6858	44268.4	43370.45
884.7146	1432.5206	44493.25	43594
884.8582	1434.3547	44293.2	43392.4
885.0018	1436.188	44119.05	43221.05
885.1453	1438.0206	44268.25	43369.95
885.2889	1439.8524	44153.85	43255.3
885.4324	1441.6835	43990.6	43090.75
885.5759	1443.5139	44015	43114.35
885.7194	1445.3435	43787	42890.05
885.8629	1447.1724	43856.25	42959.2
886.0064	1449.0005	43650.8	42753.45
886.1499	1450.8279	43715.6	42817
886.2933	1452.6545	43621.85	42726.1
886.4368	1454.4804	43594.1	42696.15
886.5802	1456.3056	43468.4	42563.75
886.7237	1458.13	43471.45	42572.55
886.8671	1459.9536	43582.55	42684.6
887.0105	1461.7766	43264.6	42368.15
887.1539	1463.5987	43042.05	42143.45
887.2972	1465.4202	43002	42104.35
887.4406	1467.2409	42837.3	41938.4
887.584	1469.0608	42676.7	41777.85
887.7273	1470.88	42599.05	41701
887.8706	1472.6984	42582.8	41685.4
888.0139	1474.5161	42325.8	41425.45
888.1572	1476.3331	42306.3	41409.4
888.3005	1478.1493	42134.25	41234.45
888.4438	1479.9648	42102.35	41204.5
888.5871	1481.7795	42061.2	41162.55
888.7303	1483.5935	42040.15	41142.2
888.8736	1485.4067	41854.15	40956.75
889.0168	1487.2192	41906.9	41009.5
889.16	1489.031	41821.9	40923.1
889.3032	1490.842	41798.85	40899.95
889.4464	1492.6522	41825.35	40926
889.5896	1494.4618	41640.5	40743.15
889.7327	1496.2705	41673.85	40775.25
889.8759	1498.0785	41459.15	40562.15
890.019	1499.8858	41441.4	40543.95
890.1622	1501.6924	41449.6	40552.9
890.3053	1503.4981	41292.2	40396.95
890.4484	1505.3032	41294.15	40397.3
890.5914	1507.1075	41174.75	40276.05
890.7345	1508.911	41174.55	40276.35
890.8776	1510.7138	41112.25	40214.35
891.0206	1512.5159	41081.2	40182.4
891.1637	1514.3172	40805.5	39910.3
891.3067	1516.1178	40762.85	39869.1
891.4497	1517.9176	40792.75	39895.05
891.5927	1519.7166	40688.3	39793.15
891.7357	1521.515	40617.2	39711.1
891.8786	1523.3126	40549	39652.25
892.0216	1525.1094	40463.2	39563.05
892.1645	1526.9055	40343.65	39447.95
892.3074	1528.7008	40329.9	39432.1
892.4503	1530.4954	40106.15	39209.45
892.5932	1532.2893	40136.7	39242.75
892.7361	1534.0824	39956.45	39057.3
892.879	1535.8747	39931.1	39037
893.0218	1537.6663	39945.4	39047.65
893.1647	1539.4572	39635.5	38738.15
893.3075	1541.2473	39724.6	38827.05
893.4503	1543.0367	39673	38777.75
893.5931	1544.8253	39525.3	38628.1
893.7359	1546.6132	39503.2	38603.85
893.8787	1548.4003	39373.75	38469.35
894.0214	1550.1867	39298.1	38394.9
894.1642	1551.9723	39244.25	38344.45
894.3069	1553.7572	39251.1	38357.2
894.4496	1555.5414	39257.55	38364.65
894.5923	1557.3247	39061.05	38166.45
894.735	1559.1074	39123.85	38231.2
894.8777	1560.8893	39045.35	38152.65
895.0204	1562.6705	39075.35	38182.35
895.163	1564.4509	38954.1	38062.8
895.3056	1566.2305	38913.3	38021.2
895.4482	1568.0094	39004.15	38112
895.5908	1569.7876	38929.55	38039
895.7334	1571.565	38796.75	37905.3
895.876	1573.3417	38793.8	37899.7
896.0186	1575.1176	38725.9	37835.9
896.1611	1576.8928	38634.05	37744.35
896.3036	1578.6672	38497.45	37609.25
896.4461	1580.4409	38462.6	37573
896.5886	1582.2138	38335.25	37444.5
896.7311	1583.986	38285.5	37392.85
896.8736	1585.7575	38274.4	37384.05
897.0161	1587.5282	38223.35	37335.3
897.1585	1589.2981	38272.3	37384.45
897.3009	1591.0673	38102.25	37215.2
897.4433	1592.8358	38090.65	37202
897.5857	1594.6035	38076.65	37184.75
897.7281	1596.3704	38043.25	37149.3
897.8705	1598.1366	37921.4	37031.9
898.0128	1599.9021	37850.2	36958.6
898.1551	1601.6668	37845.25	36954.8
898.2975	1603.4308	37764.9	36872.55
898.4398	1605.194	37801.6	36907.5
898.5821	1606.9564	37670.7	36783.75
898.7243	1608.7182	37740.7	36851.7
898.8666	1610.4791	37749.1	36865.55
899.0088	1612.2394	37847.1	36962.15
899.1511	1613.9988	37765.15	36881.25
899.2933	1615.7576	37851.95	36966.5
899.4355	1617.5156	37854.85	36960.15
899.5776	1619.2728	37936.3	37046.75
899.7198	1621.0293	37752.45	36862.5
899.862	1622.785	37668.95	36781.4
900.0041	1624.54	37495	36606.3
900.1462	1626.2942	37389.05	36502.35
900.2883	1628.0477	37055.45	36166.65
900.4304	1629.8005	36850	35958.2
900.5725	1631.5525	36783	35895.8
900.7145	1633.3037	36586.95	35700.05
900.8566	1635.0542	36468.45	35583.35
900.9986	1636.804	36442.45	35554.15
901.1406	1638.553	36331.6	35399.95
901.2826	1640.3013	36205.5	35316.2
901.4245	1642.0488	36044.7	35155.9
901.5665	1643.7955	36088.5	35202.8
901.7085	1645.5416	36001.55	35113.85
901.8504	1647.2868	35965.15	35076.9
901.9923	1649.0313	35921.45	35035.25
902.1342	1650.7751	35946.2	35055.4
902.2761	1652.5181	35921.3	35035.95
902.4179	1654.2604	35873.5	34987
902.5598	1656.0019	35893.6	35007.35
902.7016	1657.7427	35899.3	35012.45
902.8434	1659.4828	35970.5	35082.45
902.9852	1661.222	35897.25	35009.7
903.127	1662.9606	35876.85	34989.55
903.2687	1664.6984	35711.05	34822.8
903.4105	1666.4354	35605.85	34715.75
903.5522	1668.1717	35273.8	34383.9
903.6939	1669.9072	34846.25	33957.6
903.8356	1671.642	34743.5	33851.7
903.9773	1673.3761	34478.1	33590.7
904.119	1675.1094	34315.05	33428.1
904.2606	1676.8419	33973.7	33086.5
904.4022	1678.5737	33931.25	33044.1
904.5439	1680.3048	33785.35	32899.1
904.6855	1682.0351	33576.75	32690.3
904.827	1683.7646	33327.3	32437.35
904.9686	1685.4934	33361.2	32474.85
905.1101	1687.2215	32999.05	32111
905.2517	1688.9488	33059.4	32171.55
905.3932	1690.6754	32556.3	31668.9
905.5347	1692.4012	32731.95	31843.85
905.6761	1694.1263	32665.8	31779.55
905.8176	1695.8506	32425.75	31537.65
905.9591	1697.5742	32357.6	31470.5
906.1005	1699.297	32243.65	31357.7
906.2419	1701.0191	32154.55	31269.45
906.3833	1702.7404	31913.35	31029.35
906.5246	1704.461	31734.2	30845.95
906.666	1706.1808	31764.2	30878.95
906.8073	1707.8999	31705.2	30818.25
906.9487	1709.6182	31542.1	30658.7
907.09	1711.3358	31516.25	30631.2
907.2313	1713.0527	31380.05	30499.1
907.3725	1714.7688	31339.45	30451.8
907.5138	1716.4841	31035.7	30148.45
907.655	1718.1987	31065.6	30173.95
907.7962	1719.9126	30958.1	30077.25
907.9374	1721.6257	30916.9	30029.85
908.0786	1723.338	30893.6	30010.1
908.2198	1725.0496	30567.9	29681.75
908.3609	1726.7605	30599.3	29712.3
908.502	1728.4706	30503.25	29616.15
908.6431	1730.18	30435.3	29550.1
908.7842	1731.8886	30299.6	29414.35
908.9253	1733.5964	30216.7	29326.2
909.0664	1735.3036	30228.65	29342.1
909.2074	1737.0099	30115.25	29230.8
909.3484	1738.7156	29999.5	29116.85
909.4894	1740.4204	29903.85	29015.85
909.6304	1742.1246	29865.65	28979.05
909.7714	1743.8279	29829.25	28943.05
909.9123	1745.5306	29775.25	28890.35
910.0532	1747.2325	29573.15	28688.95
910.1941	1748.9336	29499.15	28616.25
910.335	1750.634	29450.25	28564.15
910.4759	1752.3336	29452.6	28568.3
910.6168	1754.0325	29278.15	28397
910.7576	1755.7307	29331.1	28446.35
910.8984	1757.4281	29227	28339.75
911.0392	1759.1247	29253.1	28358.85
911.18	1760.8206	29095.5	28205.8
911.3208	1762.5158	29074.25	28183
911.4615	1764.2102	28927.15	28041
911.6022	1765.9039	28869.55	27983.55
911.7429	1767.5968	28837.25	27954.1
911.8836	1769.289	28774.65	27892.25
912.0243	1770.9804	28695.8	27809.85
912.1649	1772.6711	28662.9	27777.25
912.3056	1774.361	28566.5	27682.05
912.4462	1776.0502	28530	27642.85
912.5868	1777.7386	28458.55	27568.9
912.7274	1779.4263	28347.1	27463
912.8679	1781.1132	28364.05	27480.1
913.0084	1782.7994	28162	27277
913.149	1784.4849	28183.05	27299.95
913.2895	1786.1696	28065.55	27165.2
913.4299	1787.8535	28064.9	27181.7
913.5704	1789.5367	28018.5	27135.6
913.7108	1791.2192	27956	27073.8
913.8513	1792.9009	27874.7	26962.7
913.9917	1794.5818	27770.45	26884.5
914.132	1796.2621	27698	26815
914.2724	1797.9415	27611.65	26726.45
914.4128	1799.6202	27517.05	26634.95
914.5531	1801.2982	27521.5	26634.95
914.6934	1802.9755	27441.8	26556.85
914.8337	1804.6519	27365.05	26480.05
914.9739	1806.3277	27277.85	26394.3
915.1142	1808.0027	27139.95	26258.6
915.2544	1809.6769	27176.6	26293.25
915.3946	1811.3504	27138.3	26253.25
915.5348	1813.0231	26986.75	26102.65
915.675	1814.6951	26991.95	26107.5
915.8151	1816.3664	26986	26099.2
915.9553	1818.0369	26896.35	26011.25
916.0954	1819.7067	26847.6	25963.9
916.2355	1821.3757	26757.8	25871.9
916.3755	1823.044	26743.7	25858.8
916.5156	1824.7115	26645.2	25760.05
916.6556	1826.3783	26517.6	25634.65
916.7956	1828.0443	26492	25610.45
916.9356	1829.7096	26446.85	25561.5
917.0756	1831.3741	26400.85	25513.8
917.2155	1833.0379	26366.9	25484.7
917.3555	1834.701	26259.65	25374.5
917.4954	1836.3633	26240.35	25356.85
917.6353	1838.0248	26124.2	25237.85
917.7751	1839.6856	26101.85	25218
917.915	1841.3457	26048.6	25166.25
918.0548	1843.005	26021.55	25139.95
918.1946	1844.6636	25971.9	25091.05
918.3344	1846.3214	25852.05	24967
918.4742	1847.9785	25855.85	24971.6
918.6139	1849.6349	25786.05	24900
918.7537	1851.2904	25762.9	24865.55
918.8934	1852.9453	25696	24810.35
919.0331	1854.5994	25584.95	24697.3
919.1727	1856.2528	25586.2	24696.05
919.3124	1857.9054	25516	24631.5
919.452	1859.5572	25498.15	24615.2
919.5916	1861.2083	25459.8	24572.95
919.7312	1862.8587	25468.1	24583.3
919.8708	1864.5084	25366.4	24480
920.0103	1866.1572	25280	24394.9
920.1498	1867.8054	25146.8	24260.15
920.2893	1869.4528	25120.05	24234.65
920.4288	1871.0994	25056.65	24171.3
920.5683	1872.7453	25062.4	24177.5
920.7077	1874.3905	24978.6	24088
920.8471	1876.0349	24892.1	24007.75
920.9865	1877.6786	24887.95	24001.4
921.1259	1879.3215	24878.25	23995.4
921.2653	1880.9637	24818.35	23932.2
921.4046	1882.6051	24768.35	23885.35
921.5439	1884.2458	24672.05	23785.45
921.6832	1885.8858	24613.35	23726.55
921.8225	1887.525	24577.65	23695.35
921.9617	1889.1634	24502.95	23620.45
922.101	1890.8011	24392.65	23507.05
922.2402	1892.4381	24319.3	23435.25
922.3794	1894.0743	24317.55	23433.5
922.5185	1895.7098	24274.4	23391.35
922.6577	1897.3446	24206.05	23319.8
922.7968	1898.9786	24117.35	23227.15
922.9359	1900.6118	24084.8	23199.2
923.075	1902.2443	23949.9	23062.15
923.214	1903.8761	23922.5	23039.7
923.3531	1905.5071	23768.95	22884.55
923.4921	1907.1374	23735.35	22850.75
923.6311	1908.7669	23709	22825.45
923.77	1910.3957	23656.65	22773.8
923.909	1912.0237	23500.1	22617.25
924.0479	1913.651	23506.15	22619.5
924.1868	1915.2776	23446.75	22562.25
924.3257	1916.9034	23357	22475.9
924.4646	1918.5285	23221.9	22339.9
924.6034	1920.1528	23128.05	22242.2
924.7422	1921.7764	23170.95	22287.25
924.881	1923.3992	23071.8	22188.3
925.0198	1925.0213	22882.45	21999.55
925.1586	1926.6427	22813.75	21930.05
925.2973	1928.2633	22976.1	21845.75
925.436	1929.8832	22792.5	21904
925.5747	1931.5023	22616.7	21732.55
925.7134	1933.1207	22587.65	21704.9
925.852	1934.7383	22480.5	21594.15
925.9906	1936.3552	22459.05	21576
926.1292	1937.9714	22381.15	21498.15
926.2678	1939.5868	22276.4	21388.5
926.4064	1941.2015	22168.85	21283.85
926.5449	1942.8154	22119.1	21234.2
926.6834	1944.4286	22061.9	21177.55
926.8219	1946.041	21986.95	21077.9
926.9604	1947.6528	21817.05	20929.55
927.0988	1949.2637	21804	20920.1
927.2372	1950.8739	21743.3	20860.45
927.3756	1952.4834	21670.55	20786.1
927.514	1954.0921	21685.1	20800.45
927.6523	1955.7001	21583.3	20696
927.7907	1957.3074	21526.9	20644.9
927.929	1958.9139	21417.75	20535.05
928.0673	1960.5197	21396.75	20510.5
928.2055	1962.1247	21293.35	20409.75
928.3438	1963.729	21182.25	20302.05
928.482	1965.3325	21096.9	20193.15
928.6202	1966.9353	21072	20193.5
928.7584	1968.5374	20975.85	20089.55
928.8965	1970.1387	20960.75	20079.7
929.0346	1971.7393	20815.6	19932.45
929.1727	1973.3392	20812.25	19927.8
929.3108	1974.9383	20671.3	19790.4
929.4489	1976.5366	20566.2	19685.4
929.5869	1978.1342	20577.35	19695.2
929.7249	1979.7311	20534	19651.3
929.8629	1981.3273	20516.95	19634.65
930.0009	1982.9227	20435.3	19550.55
930.1388	1984.5173	20353.7	19474.6
930.2767	1986.1112	20278.5	19397.25
930.4146	1987.7044	20250.65	19371
930.5525	1989.2968	20191.05	19308.75
930.6904	1990.8885	20116.95	19232.4
930.8282	1992.4795	20117.5	19234.65
930.966	1994.0697	20046.4	19166.05
931.1038	1995.6592	19965.4	19083.5
931.2415	1997.2479	19877.3	18996.25
931.3793	1998.8359	19846.85	18965.4
931.517	2000.4232	19759.8	18880.5
931.6547	2002.0097	19652.8	18774.85
931.7923	2003.5955	19592.2	18712.3
931.93	2005.1805	19605.25	18722.4
932.0676	2006.7648	19560.55	18678.6
932.2052	2008.3484	19523.05	18640.6
932.3427	2009.9312	19484.65	18601.9
932.4803	2011.5133	19414.65	18537
932.6178	2013.0946	19306.7	18427.05
932.7553	2014.6752	19311.65	18434.2
932.8928	2016.2551	19238.35	18357.9
933.0302	2017.8342	19146.5	18266.95
933.1676	2019.4126	19116.3	18237.15
933.305	2020.9902	19030.7	18152.05
933.4424	2022.5672	19009	18128.2
933.5798	2024.1433	18943.15	18058.3
933.7171	2025.7188	18879.85	18001.95
933.8544	2027.2935	18828.2	17948.95
933.9917	2028.8674	18758.75	17879.6
934.129	2030.4406	18676.9	17798
934.2662	2032.0131	18598.1	17719.8
934.4034	2033.5849	18568.75	17684.55
934.5406	2035.1559	18528.35	17649.45
934.6778	2036.7261	18500.35	17620.8
934.8149	2038.2957	18461.25	17578.85
934.952	2039.8645	18375.65	17496.2
935.0891	2041.4325	18412.85	17529.05
935.2262	2042.9998	18317.15	17438.3
935.3632	2044.5664	18295.65	17415.6
935.5002	2046.1323	18251.1	17371.1
935.6372	2047.6974	18171.9	17292.8
935.7742	2049.2617	18135.5	17256.4
935.9111	2050.8254	18106.3	17220
936.048	2052.3883	18081.25	17198.75
936.1849	2053.9504	18006.95	17125.5
936.3218	2055.5118	17975.4	17092.85
936.4586	2057.0725	17873.4	16989.65
936.5955	2058.6325	17830	16952.45
936.7323	2060.1917	17774.75	16895
936.869	2061.7502	17736.85	16853.35
937.0058	2063.3079	17670.85	16792.15
937.1425	2064.8649	17634.1	16749.65
937.2792	2066.4212	17597.15	16715.2
937.4159	2067.9767	17576.9	16698.2
937.5525	2069.5315	17473.95	16594.3
937.6891	2071.0856	17379.2	16497.9
937.8257	2072.6389	17336.7	16457.3
937.9623	2074.1915	17246.3	16366.7
938.0989	2075.7433	17204.5	16324.4
938.2354	2077.2945	17159.1	16281.3
938.3719	2078.8448	17105.65	16225.7
938.5084	2080.3945	17061.25	16181.1
938.6448	2081.9434	17030.3	16150.3
938.7812	2083.4916	16949.2	16068.15
938.9176	2085.039	16914.35	16030.5
939.054	2086.5857	16901.5	16016.5
939.1903	2088.1317	16796.7	15913.05
939.3267	2089.677	16791.55	15908.35
939.463	2091.2215	16772.8	15889.85
939.5992	2092.7652	16740.75	15857.7
939.7355	2094.3083	16726.45	15844.75
939.8717	2095.8506	16655.35	15774.2
940.0079	2097.3921	16645.6	15764.3
940.1441	2098.933	16582.65	15700.7
940.2802	2100.4731	16544.7	15664.7
940.4163	2102.0124	16510.5	15613
940.5524	2103.5511	16486.4	15606.35
940.6885	2105.089	16466.75	15583.55
940.8245	2106.6261	16417.3	15537.25
940.9606	2108.1626	16380.2	15497.65
941.0965	2109.6983	16358.3	15447.65
941.2325	2111.2332	16306.8	15424.7
941.3684	2112.7675	16209.55	15327.85
941.5044	2114.301	16178.2	15295.35
941.6403	2115.8337	16170.65	15289.85
941.7761	2117.3657	16095	15215.45
941.912	2118.897	16067.75	15185
942.0478	2120.4276	16020.85	15132.1
942.1835	2121.9575	15926.35	15042.8
942.3193	2123.4866	15962.8	15065.8
942.455	2125.0149	15919.7	15037.45
942.5907	2126.5426	15846.2	14963.8
942.7264	2128.0695	15781.8	14896.15
942.8621	2129.5956	15742.3	14863.5
942.9977	2131.1211	15726.6	14841.2
943.1333	2132.6458	15661.95	14782.05
943.2689	2134.1698	15644.4	14762.6
943.4044	2135.693	15624.7	14740.55
943.54	2137.2155	15584.2	14699.05
943.6755	2138.7373	15540.5	14658.75
943.8109	2140.2584	15463.65	14583.1
943.9464	2141.7787	15410.7	14523.5
944.0818	2143.2983	15391.95	14515.25
944.2172	2144.8171	15281.15	14402.9
944.3526	2146.3353	15266.25	14381.25
944.4879	2147.8527	15218.75	14341.05
944.6232	2149.3693	15192.2	14308
944.7585	2150.8853	15131.9	14251.15
944.8938	2152.4005	15068.05	14184.35
945.029	2153.9149	15062.1	14180.5
945.1642	2155.4287	15013.4	14132.8
945.2994	2156.9417	14992.8	14111.4
945.4346	2158.454	14968.15	14085.55
945.5697	2159.9655	14899.65	14019.7
945.7048	2161.4764	14888.7	14006.45
945.8399	2162.9865	14829.5	13947.75
945.9749	2164.4958	14814.8	13932.45
946.1099	2166.0045	14729.25	13846.3
946.2449	2167.5124	14730.55	13848.85
946.3799	2169.0195	14680.75	13800.25
946.5148	2170.526	14642.1	13759.8
946.6498	2172.0317	14592.3	13709.65
946.7846	2173.5367	14572.65	13689.25
946.9195	2175.0409	14535.55	13654.7
947.0543	2176.5445	14536.25	13654.35
947.1891	2178.0473	14474.4	13591.85
947.3239	2179.5494	14374.5	13489.15
947.4587	2181.0507	14368.5	13485.25
947.5934	2182.5513	14297.7	13416.05
947.7281	2184.0512	14308.8	13426.95
947.8628	2185.5504	14238.25	13356.05
947.9974	2187.0488	14141.1	13258.8
948.132	2188.5465	14114.55	13234.3
948.2666	2190.0435	14053.95	13172.8
948.4012	2191.5397	14027.7	13146.4
948.5357	2193.0353	13970.1	13087.25
948.6702	2194.5301	13897.9	13013.9
948.8047	2196.0241	13882.05	12997.05
948.9392	2197.5175	13821	12938.45
949.0736	2199.0101	13770.1	12882.9
949.208	2200.502	13710.8	12831.4
949.3424	2201.9931	13699.95	12818.9
949.4767	2203.4835	13656.55	12773.25
949.611	2204.9733	13611.1	12724.35
949.7453	2206.4622	13567.75	12686.45
949.8796	2207.9505	13521.35	12636.4
950.0138	2209.438	13458.45	12578.05
950.148	2210.9248	13429.6	12548.3
950.2822	2212.4109	13359	12477.85
950.4164	2213.8962	13362.85	12478.15
950.5505	2215.3809	13308.25	12424.55
950.6846	2216.8648	13300.8	12414.85
950.8186	2218.3479	13251.45	12362.8
950.9527	2219.8304	13200.5	12313.9
951.0867	2221.3121	13141.95	12256
951.2207	2222.7931	13105	12223.5
951.3546	2224.2733	13058.35	12175.7
951.4886	2225.7529	12997.35	12113.8
951.6225	2227.2317	12974.25	12091.05
951.7563	2228.7098	12928.85	12048.15
951.8902	2230.1872	12874.05	11993.75
952.024	2231.6638	12876.95	11995.45
952.1578	2233.1397	12819.25	11931.8
952.2916	2234.6149	12790.15	11911.4
952.4253	2236.0894	12735.25	11853.85
952.559	2237.5632	12727.6	11834.75
952.6927	2239.0362	12686.15	11804.6
952.8263	2240.5085	12628.25	11745.9
952.9599	2241.9801	12590.15	11708.45
953.0935	2243.4509	12529.45	11647.45
953.2271	2244.921	12479.05	11597.2
953.3606	2246.3904	12413.95	11530.5
953.4941	2247.8591	12420.6	11538.05
953.6276	2249.3271	12392.35	11508.25
953.7611	2250.7943	12338.85	11456.1
953.8945	2252.2608	12304.65	11421.85
954.0279	2253.7266	12252.35	11372.1
954.1612	2255.1917	12229.85	11347.6
954.2946	2256.656	12189.65	11307.65
954.4279	2258.1197	12139.3	11255.7
954.5612	2259.5826	12121	11238.25
954.6944	2261.0447	12082.1	11198.6
954.8276	2262.5062	12033.95	11150.35
954.9608	2263.9669	12024.4	11140.25
955.094	2265.4269	11998.15	11114.5
955.2271	2266.8862	11973.7	11091.65
955.3602	2268.3448	11951.85	11069.65
955.4933	2269.8026	11934.8	11053.65
955.6264	2271.2598	11871.75	10991.3
955.7594	2272.7162	11829.25	10949.7
955.8924	2274.1719	11779.45	10896.05
956.0253	2275.6268	11772.65	10891.35
956.1583	2277.0811	11761.3	10877.5
956.2912	2278.5346	11720.25	10839.9
956.4241	2279.9874	11695.7	10813.55
956.5569	2281.4395	11698.25	10818
956.6897	2282.8908	11637.6	10750.45
956.8225	2284.3414	11594.65	10711.1
956.9553	2285.7914	11556.25	10676.4
957.088	2287.2406	11530.95	10647.3
957.2207	2288.689	11496.45	10613.1
957.3534	2290.1368	11477.75	10594.35
957.486	2291.5838	11435.85	10549.4
957.6186	2293.0302	11394.9	10508.8
957.7512	2294.4758	11359.8	10477.4
957.8838	2295.9206	11298.25	10415
958.0163	2297.3648	11274.1	10394
958.1488	2298.8082	11259.05	10375.25
958.2813	2300.251	11207.1	10323.85
958.4137	2301.693	11190.55	10305.1
958.5461	2303.1343	11181.8	10298.1
958.6785	2304.5748	11144.25	10263.5
958.8108	2306.0147	11096.45	10214.05
958.9432	2307.4538	11077.15	10193.05
959.0754	2308.8922	11026.15	10147.1
959.2077	2310.3299	10995	10114.25
959.3399	2311.7669	10979.2	10098.1
959.4721	2313.2031	10940.7	10058.3
959.6043	2314.6387	10891.45	10009.8
959.7365	2316.0735	10858.45	9974.95
959.8686	2317.5076	10856.5	9972.3
960.0006	2318.941	10810.05	9926.5
960.1327	2320.3737	10778.35	9893.7
960.2647	2321.8056	10758.3	9871.75
960.3967	2323.2369	10738.25	9855.15
960.5287	2324.6674	10681.05	9796.3
960.6606	2326.0972	10650.55	9768.4
960.7925	2327.5263	10608.55	9727.4
960.9244	2328.9547	10596.45	9714.1
961.0562	2330.3823	10535.8	9651.5
961.1881	2331.8092	10558.75	9671.2
961.3198	2333.2355	10461.25	9578.05
961.4516	2334.661	10504.05	9621.7
961.5833	2336.0858	10434.8	9548.35
961.715	2337.5098	10391.65	9510.35
961.8467	2338.9332	10402.4	9519.05
961.9783	2340.3558	10355.9	9470.6
962.1099	2341.7778	10330.25	9447.2
962.2415	2343.199	10274.8	9389.5
962.373	2344.6195	10243.15	9360.95
962.5045	2346.0393	10254.35	9373.45
962.636	2347.4583	10246.45	9364.4
962.7675	2348.8767	10189.6	9305.65
962.8989	2350.2943	10147.5	9263.95
963.0303	2351.7113	10145	9260
963.1617	2353.1275	10115.8	9229.7
963.293	2354.543	10068.35	9176.35
963.4243	2355.9578	10062.55	9178.25
963.5556	2357.3718	9990	9106.85
963.6868	2358.7852	9921.1	9036.8
963.818	2360.1978	9896.8	9013.55
963.9492	2361.6098	9888.5	9005.95
964.0803	2363.021	9853	8966.65
964.2114	2364.4315	9834.1	8951.6
964.3425	2365.8413	9796.75	8911.65
964.4736	2367.2504	9761.6	8879.85
964.6046	2368.6587	9726.5	8843.5
964.7356	2370.0664	9686.5	8803.8
964.8666	2371.4733	9661.15	8775.7
964.9975	2372.8795	9635.1	8752.6
965.1284	2374.285	9598.2	8715.45
965.2593	2375.6899	9551.5	8668.75
965.3901	2377.0939	9505.15	8622.95
965.5209	2378.4973	9470.9	8587.9
965.6517	2379.9	9454.3	8571.25
965.7825	2381.3019	9415.6	8533.55
965.9132	2382.7032	9391.05	8509.85
966.0439	2384.1037	9373.2	8493.85
966.1745	2385.5035	9329.5	8447.75
966.3051	2386.9027	9281.5	8401.2
966.4357	2388.3011	9275.25	8389.85
966.5663	2389.6987	9260.45	8381.2
966.6968	2391.0957	9204.95	8326.15
966.8273	2392.492	9183.2	8302.65
966.9578	2393.8876	9150.15	8267.85
967.0882	2395.2824	9108.5	8227.45
967.2186	2396.6765	9071.45	8188.6
967.349	2398.07	9032.05	8150.95
967.4793	2399.4627	9020	8133.9
967.6097	2400.8547	8983.65	8100.6
967.7399	2402.246	8966.8	8075.5
967.8702	2403.6366	8941	8057.9
968.0004	2405.0265	8874.6	7992.1
968.1306	2406.4156	8869.95	7985.3
968.2607	2407.8041	8818	7933.75
968.3909	2409.1918	8790.85	7906.85
968.521	2410.5789	8715.15	7829.85
968.651	2411.9652	8707.3	7822.05
968.781	2413.3508	8685.95	7802.6
968.911	2414.7358	8643.25	7758.85
969.041	2416.12	8624	7741.75
969.1709	2417.5035	8630.2	7748.7
969.3008	2418.8863	8568.35	7686.25
969.4307	2420.2684	8541.1	7658
969.5606	2421.6497	8514.95	7633.15
969.6904	2423.0304	8478.6	7597.4
969.8201	2424.4104	8448.7	7565.95
969.9499	2425.7896	8422.05	7537.95
970.0796	2427.1682	8388.1	7505.9
970.2093	2428.546	8397.7	7512.45
970.3389	2429.9232	8366.45	7480.65
970.4685	2431.2996	8342.7	7461.25
970.5981	2432.6753	8316.1	7434.45
970.7277	2434.0503	8320.05	7437.5
970.8572	2435.4246	8248.3	7367.6
970.9867	2436.7982	8236.45	7351.55
971.1161	2438.1711	8224.7	7341.3
971.2456	2439.5433	8192.25	7308.2
971.375	2440.9148	8157.55	7270.2
971.5043	2442.2856	8121.6	7238.5
971.6336	2443.6557	8118.3	7234.2
971.7629	2445.025	8072.1	7188.9
971.8922	2446.3937	8061.05	7178.8
972.0214	2447.7617	8047.35	7164.5
972.1506	2449.1289	8030.05	7145.85
972.2798	2450.4955	8005.95	7118.7
972.4089	2451.8613	7973.45	7090.45
972.538	2453.2265	7959.65	7076.55
972.6671	2454.5909	7933.5	7048.35
972.7961	2455.9546	7917.95	7034.55
972.9251	2457.3177	7886.35	7005.6
973.0541	2458.68	7861.55	6977.2
973.1831	2460.0416	7827.2	6944.3
973.312	2461.4025	7832.15	6947.75
973.4408	2462.7627	7823.15	6929.6
973.5697	2464.1222	7815.2	6933.55
973.6985	2465.4811	7757.05	6874.2
973.8273	2466.8392	7739.1	6856.15
973.956	2468.1966	7739.5	6853.95
974.0847	2469.5533	7738.25	6852.8
974.2134	2470.9093	7705.05	6820.3
974.3421	2472.2645	7662.8	6777.8
974.4707	2473.6191	7642.85	6760.6
974.5993	2474.973	7604.25	6721.65
974.7278	2476.3262	7584	6698.75
974.8563	2477.6787	7567.15	6684.55
974.9848	2479.0305	7520.65	6638.4
975.1132	2480.3816	7479.95	6594.05
975.2417	2481.7319	7475.75	6593.25
975.37	2483.0816	7451.85	6567.6
975.4984	2484.4306	7430.55	6547.5
975.6267	2485.7789	7406.75	6525
975.755	2487.1264	7369.05	6484.6
975.8833	2488.4733	7329.45	6447.35
976.0115	2489.8195	7334.9	6444.85
976.1397	2491.165	7291	6406.6
976.2678	2492.5097	7277.35	6392.95
976.3959	2493.8538	7232.4	6351.85
976.524	2495.1972	7194.45	6310
976.6521	2496.5398	7162.9	6279.05
976.7801	2497.8818	7167.75	6282.3
976.9081	2499.2231	7146.7	6264.05
977.036	2500.5637	7119.9	6235.1
977.164	2501.9035	7103.15	6219.7
977.2918	2503.2427	7076.3	6188.95
977.4197	2504.5812	7050.65	6167.2
977.5475	2505.919	7033.8	6147.75
977.6753	2507.256	7016.95	6135.35
977.8031	2508.5924	6991.75	6111.25
977.9308	2509.9281	6989.3	6101.25
978.0585	2511.2631	6943.85	6062.5
978.1861	2512.5974	6952.4	6070.2
978.3137	2513.9309	6924.6	6040.8
978.4413	2515.2638	6914.95	5995.6
978.5689	2516.596	6890.75	6008.05
978.6964	2517.9275	6843.05	5959.05
978.8239	2519.2583	6828.65	5945.8
978.9513	2520.5884	6784.65	5898.85
979.0788	2521.9178	6782.85	5900.1
979.2062	2523.2465	6740.15	5857.95
979.3335	2524.5745	6719.5	5838.7
979.4608	2525.9018	6696.8	5812.15
979.5881	2527.2284	6692.35	5810.7
979.7154	2528.5543	6669.6	5788.05
979.8426	2529.8796	6648.45	5766.55
979.9698	2531.2041	6656.25	5775.3
980.0969	2532.5279	6639.65	5757.5
980.224	2533.851	6613.65	5731.45
980.3511	2535.1735	6580.85	5698.6
980.4781	2536.4952	6570.85	5687.6
980.6052	2537.8163	6569.25	5686
980.7321	2539.1366	6547.35	5664.85
980.8591	2540.4562	6515.5	5631.65
980.986	2541.7752	6533.05	5652.95
981.1129	2543.0935	6476.85	5593.95
981.2397	2544.411	6482.1	5597.55
981.3665	2545.7279	6465.85	5583.9
981.4933	2547.0441	6477.4	5591.85
981.62	2548.3596	6472.45	5587.9
981.7467	2549.6744	6441.7	5559.65
981.8734	2550.9885	6424.05	5533.5
982.0001	2552.3019	6414.3	5531.8
982.1267	2553.6146	6392.95	5510.25
982.2532	2554.9266	6380.65	5497.8
982.3798	2556.2379	6332.55	5446.3
982.5063	2557.5485	6341.15	5458.65
982.6327	2558.8585	6333.65	5443.85
982.7592	2560.1677	6311.75	5423.65
982.8856	2561.4762	6287.9	5404.75
983.0119	2562.7841	6299.35	5412.9
983.1383	2564.0913	6251.4	5370.65
983.2646	2565.3977	6265.55	5383.85
983.3908	2566.7035	6213.9	5328.6
983.517	2568.0086	6216.05	5332.4
983.6432	2569.313	6218.2	5333.4
983.7694	2570.6167	6200.35	5312.65
983.8955	2571.9197	6194.9	5314.15
984.0216	2573.222	6187.7	5300.8
984.1476	2574.5236	6158.2	5274.65
984.2737	2575.8246	6153.95	5269.9
984.3996	2577.1248	6140.4	5256.1
984.5256	2578.4244	6120.15	5236.85
984.6515	2579.7232	6095.05	5214.25
984.7774	2581.0214	6124.55	5217.25
984.9032	2582.3189	6073.45	5191.55
985.029	2583.6157	6079.85	5191.8
985.1548	2584.9118	6051.65	5168.75
985.2806	2586.2072	6028.65	5146.45
985.4063	2587.5019	6021	5139.7
985.5319	2588.7959	6021.35	5138.65
985.6576	2590.0893	5990.75	5105.55
985.7832	2591.3819	5973.9	5092.25
985.9087	2592.6739	5959.3	5076.05
986.0343	2593.9652	5943.2	5056.45
986.1597	2595.2557	5934.5	5052.95
986.2852	2596.5456	5899.05	5012.5
986.4106	2597.8348	5881.3	4997.9
986.536	2599.1234	5864.05	4982.25
986.6614	2600.4112	5842.9	4960.5
986.7867	2601.6983	5825.2	4939.25
986.912	2602.9848	5795.95	4911.65
987.0372	2604.2705	5787.05	4898.8
987.1624	2605.5556	5760.45	4878.9
987.2876	2606.84	5744.65	4863.3
987.4128	2608.1237	5735.45	4851.75
987.5379	2609.4067	5711.7	4831.1
987.6629	2610.689	5695.65	4803.15
987.788	2611.9707	5685.25	4799.25
987.913	2613.2516	5653.85	4767.15
988.0379	2614.5319	5623.75	4741.9
988.1629	2615.8115	5602.25	4719.05
988.2878	2617.0903	5589.15	4706.65
988.4126	2618.3685	5570.85	4686.8
988.5375	2619.6461	5549.7	4667.75
988.6622	2620.9229	5526.3	4642.85
988.787	2622.199	5515.4	4630.8
988.9117	2623.4745	5508.25	4623.2
989.0364	2624.7493	5479.45	4598.95
989.161	2626.0234	5462.05	4579
989.2857	2627.2968	5459.6	4578.3
989.4102	2628.5695	5454.1	4570.45
989.5348	2629.8415	5394.2	4512.85
989.6593	2631.1128	5384.9	4501.75
989.7837	2632.3835	5359.4	4477.2
989.9082	2633.6535	5344.2	4463
990.0326	2634.9228	5335.85	4456.2
990.1569	2636.1914	5330	4448.25
990.2812	2637.4593	5303.05	4418.65
990.4055	2638.7265	5287.25	4405.9
990.5298	2639.9931	5272.15	4388.95
990.654	2641.259	5258.5	4373.3
990.7782	2642.5242	5254.15	4369.5
990.9023	2643.7887	5209.35	4326.15
991.0264	2645.0525	5203.3	4319.55
991.1505	2646.3156	5189.45	4306.6
991.2745	2647.5781	5181.8	4298.85
991.3985	2648.8398	5160.3	4277.65
991.5225	2650.1009	5155.75	4265.7
991.6464	2651.3613	5136.45	4253.55
991.7703	2652.6211	5128.8	4245.95
991.8942	2653.8801	5100.75	4218.4
992.018	2655.1385	5095.95	4211.4
992.1418	2656.3961	5086.8	4203.15
992.2655	2657.6531	5087.7	4207.05
992.3892	2658.9094	5062.55	4178.8
992.5129	2660.1651	5037.15	4153.85
992.6366	2661.42	5031.55	4150.5
992.7602	2662.6743	5020.9	4139.65
992.8837	2663.9279	5016.5	4135.4
993.0073	2665.1808	4978.35	4097.1
993.1307	2666.433	4968.7	4086.95
993.2542	2667.6846	4956.95	4074.7
993.3776	2668.9354	4954.4	4069.65
993.501	2670.1856	4939.4	4057.3
993.6244	2671.4351	4935.7	4053.8
993.7477	2672.6839	4932	4048.2
993.8709	2673.9321	4904.75	4022.45
993.9942	2675.1795	4901.3	4018.05
994.1174	2676.4263	4894.35	4012.3
994.2405	2677.6724	4872.4	3990.3
994.3637	2678.9179	4854.35	3971.9
994.4868	2680.1626	4839.1	3959.5
994.6098	2681.4067	4837.65	3955.45
994.7328	2682.6501	4813.8	3931.65
994.8558	2683.8928	4805.75	3923.55
994.9788	2685.1348	4787.4	3906.05
995.1017	2686.3761	4770.1	3888.05
995.2245	2687.6168	4753.5	3870.1
995.3474	2688.8568	4736.9	3852.75
995.4702	2690.0961	4718.05	3837.4
995.5929	2691.3348	4711.75	3829.1
995.7156	2692.5727	4703.5	3820.1
995.8383	2693.81	4694.65	3813.05
995.961	2695.0466	4685.15	3803.4
996.0836	2696.2826	4677.2	3793.65
996.2062	2697.5178	4669.4	3784.4
996.3287	2698.7524	4635.75	3753
996.4512	2699.9863	4631.2	3748.4
996.5737	2701.2195	4607.75	3726.25
996.6961	2702.452	4592.7	3707.9
996.8185	2703.6839	4599.15	3716.4
996.9408	2704.9151	4572.35	3690.6
997.0631	2706.1456	4559	3678
997.1854	2707.3755	4537.8	3656.25
997.3077	2708.6046	4542.8	3658.5
997.4299	2709.8331	4507.55	3623.95
997.552	2711.0609	4496.8	3613.95
997.6742	2712.2881	4501.9	3621.15
997.7963	2713.5145	4491.2	3606.45
997.9183	2714.7403	4490.75	3608.85
998.0403	2715.9654	4478.95	3594.85
998.1623	2717.1899	4475.4	3579.95
998.2842	2718.4136	4457.85	3576.65
998.4062	2719.6367	4428.1	3545
998.528	2720.8591	4422.8	3533.9
998.6498	2722.0809	4403.45	3520.05
998.7716	2723.3019	4390.6	3504.95
998.8934	2724.5223	4387.6	3504.3
999.0151	2725.7421	4360.95	3478.15
999.1368	2726.9611	4370.75	3487.15
999.2584	2728.1795	4369.45	3482.8
999.38	2729.3972	4348.75	3467.95
999.5016	2730.6142	4331.65	3437.45
999.6231	2731.8306	4307.7	3424.8
999.7446	2733.0462	4274.8	3391.55
999.8661	2734.2612	4266	3380.15
999.9875	2735.4756	4244.1	3360.9
1000.1089	2736.6892	4228.25	3343.6
1000.2302	2737.9022	4209.4	3329.3
1000.3515	2739.1145	4170.7	3287.75
1000.4728	2740.3262	4178.75	3291.8
1000.594	2741.5372	4144.45	3263.1
1000.7152	2742.7475	4126.85	3244.8
1000.8363	2743.9571	4114.35	3231.1
1000.9575	2745.1661	4120.25	3234.75
1001.0785	2746.3744	4085.85	3204.65
1001.1996	2747.582	4072.05	3191.7
1001.3206	2748.7889	4066.1	3181.35
1001.4415	2749.9952	4064.85	3185.6
1001.5625	2751.2008	4038.6	3156.05
1001.6833	2752.4057	4037.45	3155.3
1001.8042	2753.61	4023.8	3141.4
1001.925	2754.8136	4015.4	3131.6
1002.0458	2756.0165	3990.85	3110.8
1002.1665	2757.2188	3985.8	3106.55
1002.2872	2758.4204	3969.05	3086.75
1002.4078	2759.6213	3948.95	3064.75
1002.5285	2760.8215	3953.1	3066.9
1002.649	2762.0211	3935.1	3053.5
1002.7696	2763.22	3911.55	3026.95
1002.8901	2764.4182	3882.45	2998.5
1003.0106	2765.6158	3894.05	3011.8
1003.131	2766.8127	3891.75	3011.75
1003.2514	2768.009	3866.75	2985.9
1003.3717	2769.2045	3863.5	2982
1003.492	2770.3994	3855.35	2973.3
1003.6123	2771.5936	3851.7	2969.2
1003.7325	2772.7872	3821.35	2939.6
1003.8527	2773.9801	3802.75	2919.9
1003.9729	2775.1723	3813.9	2917.7
1004.093	2776.3639	3785.15	2904.45
1004.2131	2777.5548	3781.8	2896.25
1004.3331	2778.745	3760.45	2877.95
1004.4531	2779.9346	3753.15	2871.9
1004.5731	2781.1235	3756.7	2873.8
1004.693	2782.3117	3737.25	2855.85
1004.8129	2783.4992	3721.7	2840.7
1004.9328	2784.6861	3718.95	2837.75
1005.0526	2785.8723	3717.95	2835.15
1005.1723	2787.0579	3708.2	2824.4
1005.2921	2788.2428	3688.8	2808.25
1005.4118	2789.427	3684.3	2802.25
1005.5314	2790.6106	3662	2781.15
1005.651	2791.7935	3649.05	2768.5
1005.7706	2792.9757	3648.1	2766.9
1005.8902	2794.1573	3640.05	2756.4
1006.0097	2795.3382	3623.2	2741.05
1006.1291	2796.5184	3627.9	2748.3
1006.2485	2797.698	3625.35	2742.65
1006.3679	2798.8769	3605.45	2723.15
1006.4873	2800.0551	3608.5	2725.65
1006.6066	2801.2327	3605.45	2720.45
1006.7258	2802.4096	3606.45	2726.4
1006.8451	2803.5859	3576.2	2695.95
1006.9642	2804.7615	3590.45	2709.45
1007.0834	2805.9364	3592.05	2712.7
1007.2025	2807.1106	3603.9	2724.3
1007.3216	2808.2842	3578.15	2696.2
1007.4406	2809.4572	3602.25	2720
1007.5596	2810.6294	3607.2	2723.9
1007.6785	2811.801	3603.15	2722.45
1007.7975	2812.972	3594.35	2715.05
1007.9163	2814.1423	3602.2	2721.8
1008.0352	2815.3119	3616.4	2734.2
1008.154	2816.4808	3630.45	2750.45
1008.2727	2817.6491	3652.3	2771.15
1008.3914	2818.8167	3652.25	2774
1008.5101	2819.9837	3671.6	2785.8
1008.6288	2821.15	3688.5	2806.7
1008.7474	2822.3157	3702	2823.15
1008.8659	2823.4807	3712.05	2830.6
1008.9844	2824.645	3744.9	2862.65
1009.1029	2825.8086	3771.5	2890.2
1009.2214	2826.9716	3770.9	2890.55
1009.3398	2828.134	3798.2	2916.55
1009.4581	2829.2957	3805.45	2924.3
1009.5764	2830.4567	3828.15	2949.1
1009.6947	2831.617	3816.5	2933.6
1009.813	2832.7767	3815	2935.95
1009.9312	2833.9358	3822.55	2944.95
1010.0493	2835.0941	3812.5	2929.6
1010.1675	2836.2519	3781.6	2901.2
1010.2855	2837.4089	3767.5	2885.4
1010.4036	2838.5653	3747.6	2867.2
1010.5216	2839.7211	3753.75	2874.7
1010.6396	2840.8761	3744.25	2861
1010.7575	2842.0306	3752.1	2874.15
1010.8754	2843.1843	3738.5	2858.2
1010.9932	2844.3374	3743.05	2863.75
1011.111	2845.4899	3765.8	2885.95
1011.2288	2846.6417	3775.6	2894.9
1011.3465	2847.7928	3783.4	2905.25
1011.4642	2848.9433	3811.25	2929.9
1011.5818	2850.0931	3827.6	2946.4
1011.6995	2851.2422	3849.9	2966.6
1011.817	2852.3907	3858.9	2978.1
1011.9345	2853.5385	3891.4	3011.2
1012.052	2854.6857	3906.45	3014.1
1012.1695	2855.8323	3923.5	3045.7
1012.2869	2856.9781	3918.95	3039.15
1012.4042	2858.1233	3957.1	3075.75
1012.5216	2859.2679	3960.65	3079.95
1012.6389	2860.4118	3981.9	3101.65
1012.7561	2861.555	3998.2	3113.5
1012.8733	2862.6976	3997.15	3112.9
1012.9905	2863.8395	3996.25	3116.85
1013.1076	2864.9808	4003.5	3124.35
1013.2247	2866.1214	4002.85	3124.1
1013.3417	2867.2614	4014.1	3134.1
1013.4587	2868.4007	4005.6	3124.1
1013.5757	2869.5393	3999.1	3117.15
1013.6926	2870.6773	3995.3	3113
1013.8095	2871.8146	3992.45	3108.25
1013.9263	2872.9513	3981.65	3099.1
1014.0431	2874.0874	3973.75	3094.25
1014.1599	2875.2227	3972.9	3091.85
1014.2766	2876.3574	3937.6	3059.4
1014.3933	2877.4915	3905	3025.3
1014.51	2878.6249	3903.25	3023.25
1014.6266	2879.7577	3884	3003.75
1014.7431	2880.8898	3868.5	2977.95
1014.8596	2882.0212	3851.2	2972.25
1014.9761	2883.152	3825.5	2945.4
1015.0925	2884.2821	3825.8	2946.7
1015.2089	2885.4116	3810.1	2931.2
1015.3253	2886.5405	3790.4	2911.5
1015.4416	2887.6686	3788.55	2906.6
1015.5579	2888.7962	3792.5	2913.3
1015.6741	2889.923	3775.45	2895.3
1015.7903	2891.0493	3773	2895
1015.9065	2892.1748	3771.6	2893.95
1016.0226	2893.2997	3763.6	2883.35
1016.1387	2894.424	3753.9	2874.65
1016.2547	2895.5476	3756.4	2876.5
1016.3707	2896.6706	3750.75	2870.5
1016.4866	2897.7929	3754.35	2872.7
1016.6025	2898.9145	3767.2	2887.45
1016.7184	2900.0355	3766.15	2884.95
1016.8342	2901.1559	3763	2882.5
1016.95	2902.2756	3798.4	2919.9
1017.0658	2903.3946	3787.65	2909.1
1017.1815	2904.513	3783.7	2900.3
1017.2971	2905.6308	3788.7	2910.6
1017.4127	2906.7479	3788.25	2905.45
1017.5283	2907.8643	3790.9	2909.2
1017.6439	2908.9801	3790.6	2911.85
1017.7594	2910.0953	3780.95	2903.5
1017.8748	2911.2098	3782.9	2899.45
1017.9902	2912.3236	3765.8	2877.15
1018.1056	2913.4368	3765.8	2883.75
1018.2209	2914.5494	3740.7	2861.4
1018.3362	2915.6613	3723.4	2837.05
1018.4515	2916.7725	3698.15	2814.05
1018.5667	2917.8831	3685.45	2804.45
1018.6819	2918.9931	3672.5	2790.45
1018.797	2920.1024	3660.5	2779.7
1018.9121	2921.211	3628.6	2747
1019.0271	2922.319	3598.5	2718.25
1019.1421	2923.4264	3592.95	2712.55
1019.2571	2924.5331	3591.45	2711.7
1019.372	2925.6391	3565.5	2685.9
1019.4869	2926.7445	3555.3	2677.1
1019.6017	2927.8493	3566.35	2686.15
1019.7165	2928.9534	3570.3	2688.05
1019.8313	2930.0569	3557.45	2675.1
1019.946	2931.1597	3563.15	2682.1
1020.0606	2932.2619	3548.9	2670.85
1020.1753	2933.3634	3532	2651.8
1020.2899	2934.4643	3551.75	2667.1
1020.4044	2935.5645	3535.25	2649.6
1020.5189	2936.6641	3507.45	2624.45
1020.6334	2937.763	3491.2	2612.2
1020.7478	2938.8613	3462.2	2583.05
1020.8622	2939.959	3458.05	2573.8
1020.9765	2941.056	3417.4	2539.75
1021.0908	2942.1523	3376.8	2496.6
1021.2051	2943.248	3336.65	2456.4
1021.3193	2944.3431	3293.1	2413.4
1021.4334	2945.4375	3229.95	2349.85
1021.5476	2946.5313	3184.45	2305.35
1021.6617	2947.6244	3145.05	2265.2
1021.7757	2948.7169	3087.2	2205.1
1021.8897	2949.8087	3048.65	2168.75
1022.0037	2950.8999	2997.95	2115.45
1022.1176	2951.9904	2950.35	2071.55
1022.2315	2953.0803	2914.55	2034.8
1022.3453	2954.1696	2878.2	1998.8
1022.4591	2955.2582	2864.8	1986.85
1022.5728	2956.3462	2819	1940.5
1022.6865	2957.4335	2801.6	1922.1
1022.8002	2958.5202	2782.35	1901.9
1022.9138	2959.6062	2757.5	1876.95
1023.0274	2960.6916	2748.6	1869.95
1023.141	2961.7764	2730.65	1850.9
1023.2545	2962.8605	2717.4	1837.4
1023.3679	2963.9439	2700.85	1822.1
1023.4813	2965.0267	2693.5	1812.15
1023.5947	2966.1089	2715.15	1814
1023.708	2967.1905	2693.4	1815.5
1023.8213	2968.2714	2679.2	1798.1
1023.9346	2969.3516	2665.75	1788.55
1024.0478	2970.4312	2660.4	1774.75
1024.1609	2971.5102	2656.7	1778.5
1024.274	2972.5885	2655.5	1776.65
1024.3871	2973.6662	2653	1768.65
1024.5002	2974.7432	2643.2	1765.1
1024.6132	2975.8196	2632.8	1752.15
1024.7261	2976.8954	2618.15	1740.55
1024.839	2977.9705	2609.45	1730.75
1024.9519	2979.045	2605.1	1725.4
1025.0647	2980.1188	2592.8	1712.85
1025.1775	2981.192	2576.4	1699.25
1025.2902	2982.2645	2568.7	1688.55
1025.4029	2983.3364	2543.25	1664.75
1025.5156	2984.4077	2537.45	1657.4
1025.6282	2985.4783	2521.7	1635.55
1025.7407	2986.5483	2491.25	1612.2
1025.8532	2987.6177	2479.35	1600.6
1025.9657	2988.6864	2454.1	1573
1026.0782	2989.7545	2440.55	1559.7
1026.1906	2990.8219	2423.55	1545.5
1026.3029	2991.8887	2398.75	1517.65
1026.4152	2992.9548	2373.7	1494
1026.5275	2994.0204	2351.8	1472.2
1026.6397	2995.0852	2341.65	1463.9
1026.7519	2996.1495	2325.75	1443.85
1026.864	2997.2131	2327.15	1449.5
1026.9761	2998.276	2304.25	1423
1027.0882	2999.3383	2290.45	1409.85
1027.2002	3000.4	2266.95	1386
1027.3122	3001.4611	2261.25	1380.95
1027.4241	3002.5215	2247.75	1368.8
1027.536	3003.5812	2234.35	1354.95
1027.6478	3004.6404	2231.2	1349.85
1027.7596	3005.6989	2209	1327.2
1027.8714	3006.7567	2202.4	1321.65
1027.9831	3007.8139	2222	1322.6
1028.0947	3008.8705	2185.45	1306.75
1028.2064	3009.9264	2174.15	1290.15
1028.3179	3010.9818	2169.35	1290.1
1028.4295	3012.0364	2169.95	1289.15
1028.541	3013.0905	2153.95	1273.5
1028.6524	3014.1439	2141.2	1261.8
1028.7638	3015.1966	2147.85	1269
1028.8752	3016.2487	2135.7	1255.05
1028.9865	3017.3002	2126.3	1242.6
1029.0978	3018.3511	2112.65	1235.3
1029.209	3019.4013	2130.6	1251.6
1029.3202	3020.4509	2110.75	1230.5
1029.4314	3021.4998	2098	1218.15
1029.5425	3022.5481	2104.3	1226.2
1029.6535	3023.5958	2090.7	1211.35
1029.7645	3024.6428	2096.2	1214.45
1029.8755	3025.6892	2083.95	1205.85
1029.9864	3026.735	2071.65	1191.75
1030.0973	3027.7802	2078.95	1199.05
1030.2082	3028.8247	2070.4	1189.8
1030.319	3029.8685	2058.05	1178.15
1030.4297	3030.9118	2052.75	1171.6
1030.5404	3031.9544	2060.8	1181.9
1030.6511	3032.9963	2058.5	1179.55
1030.7617	3034.0376	2046.65	1167.75
1030.8723	3035.0783	2045.45	1162.65
1030.9829	3036.1184	2044.1	1163.65
1031.0934	3037.1578	2036.7	1159
1031.2038	3038.1966	2039.35	1158.1
1031.3142	3039.2348	2029.95	1151.65
1031.4246	3040.2723	2038	1151.5
1031.5349	3041.3092	2023.95	1147.6
1031.6452	3042.3455	2016.7	1136.8
1031.7554	3043.3811	2009.35	1131.85
1031.8656	3044.4161	2009.2	1127.4
1031.9758	3045.4505	2004.7	1127.25
1032.0859	3046.4842	1999.6	1118.85
1032.1959	3047.5173	1994.15	1116.85
1032.3059	3048.5498	1996.95	1119.5
1032.4159	3049.5816	1974.3	1094.15
1032.5258	3050.6128	1980.2	1100.75
1032.6357	3051.6434	1964.25	1083.15
1032.7455	3052.6734	1967.6	1086.8
1032.8553	3053.7027	1961.55	1082.1
1032.9651	3054.7314	1949.75	1071.05
1033.0748	3055.7594	1951	1072.2
1033.1845	3056.7868	1952.2	1071.7
1033.2941	3057.8136	1947.9	1069.1
1033.4037	3058.8398	1936.8	1059.35
1033.5132	3059.8653	1939.75	1060.3
1033.6227	3060.8902	1932	1052.85
1033.7321	3061.9145	1916.5	1037.35
1033.8415	3062.9381	1914.7	1034
1033.9509	3063.9612	1931.85	1035.65
1034.0602	3064.9835	1906.7	1027.55
1034.1694	3066.0053	1917.25	1035.2
1034.2787	3067.0264	1886.35	1007.7
1034.3878	3068.0469	1896.5	1017.6
1034.497	3069.0668	1888.45	1005.2
1034.6061	3070.086	1873.95	996.8
1034.7151	3071.1046	1874	995.2
1034.8241	3072.1226	1874.5	994.85
1034.9331	3073.1399	1874.25	995.65
1035.042	3074.1567	1858.05	977.75
1035.1508	3075.1727	1852.65	971.1
1035.2597	3076.1882	1842.7	964.5
1035.3684	3077.203	1839.45	961.7
1035.4772	3078.2173	1837.65	956.45
1035.5859	3079.2308	1834.25	953.2
1035.6945	3080.2438	1819.95	938.1
1035.8031	3081.2561	1814.75	937.7
1035.9117	3082.2678	1803.55	924.45
1036.0202	3083.2789	1799.95	921.45
1036.1286	3084.2893	1795.3	916.2
1036.2371	3085.2991	1791.1	912.55
1036.3454	3086.3083	1791.6	907.05
1036.4538	3087.3169	1780.4	899.35
1036.562	3088.3248	1773.35	891.75
1036.6703	3089.3321	1767	887.15
1036.7785	3090.3388	1761.95	884.25
1036.8866	3091.3449	1756.6	878.3
1036.9948	3092.3503	1759.2	878.5
1037.1028	3093.3551	1751.85	873.9
1037.2108	3094.3593	1732.05	854.4
1037.3188	3095.3629	1735.95	857.8
1037.4267	3096.3658	1728.65	849.45
1037.5346	3097.3681	1722.2	842
1037.6425	3098.3698	1720.55	841.8
1037.7503	3099.3708	1725.3	837.45
1037.858	3100.3713	1713.9	837.25
1037.9657	3101.3711	1701.85	822.8
1038.0734	3102.3702	1814.9	798.1
1038.181	3103.3688	1693.05	812.05
1038.2886	3104.3667	1687.75	810.2
1038.3961	3105.364	1688.7	809.7
1038.5036	3106.3607	1686.1	805.05
1038.611	3107.3568	1681.5	802.6
1038.7184	3108.3522	1665.95	789.8
1038.8257	3109.347	1669.15	788.65
1038.933	3110.3412	1668.1	785.9
1039.0403	3111.3348	1651.45	771.95
1039.1475	3112.3277	1657.4	777.95
1039.2547	3113.32	1646.25	768.6
1039.3618	3114.3117	1644.25	765.35
1039.4689	3115.3028	1634.5	756.55
1039.5759	3116.2932	1632.05	749.9
1039.6829	3117.2831	1632.75	748.95
1039.7898	3118.2723	1629.8	751.4
1039.8967	3119.2608	1625.9	748
1040.0035	3120.2488	1616.3	736.6
1040.1103	3121.2361	1612.25	732.6
1040.2171	3122.2229	1609.7	730.65
1040.3238	3123.209	1608.65	727.6
1040.4305	3124.1944	1593.95	715.75
1040.5371	3125.1793	1591.9	712.95
1040.6437	3126.1635	1601.8	723.6
1040.7502	3127.1471	1588.15	708.95
1040.8567	3128.1301	1582.95	704.05
1040.9631	3129.1125	1585.45	706.05
1041.0695	3130.0942	1584.6	703.7
1041.1759	3131.0753	1588.45	702.45
1041.2822	3132.0558	1570.7	690.3
1041.3884	3133.0357	1566.05	687.85
1041.4946	3134.015	1565.7	687.05
1041.6008	3134.9936	1560.6	676.65
1041.7069	3135.9716	1582.85	682.65
1041.813	3136.949	1553.2	673.55
1041.919	3137.9258	1561.5	676.7
1042.025	3138.902	1556.2	671.15
1042.1309	3139.8775	1553.7	675.2
1042.2368	3140.8524	1548.95	671.05
1042.3427	3141.8267	1544.4	663.05
1042.4485	3142.8004	1544.65	664.7
1042.5542	3143.7735	1535.75	651.65
1042.6599	3144.7459	1534.55	652.75
1042.7656	3145.7178	1537.45	656.9
1042.8712	3146.689	1521.3	643.95
1042.9768	3147.6596	1520.4	639
1043.0823	3148.6295	1521.45	641.45
1043.1878	3149.5989	1512.55	631.1
1043.2932	3150.5676	1503.8	626.55
1043.3986	3151.5357	1501.55	624.9
1043.5039	3152.5032	1505.8	627.4
1043.6092	3153.4701	1512.05	635.75
1043.7145	3154.4364	1498.05	614.5
1043.8197	3155.402	1496.4	619.15
1043.9248	3156.367	1488.4	607.9
1044.03	3157.3315	1520	602.15
1044.135	3158.2952	1490.8	612.9
1044.24	3159.2584	1478.6	599
1044.345	3160.221	1476.55	598.2
1044.4499	3161.1829	1474.35	597.1
1044.5548	3162.1442	1475.85	598.6
1044.6596	3163.105	1465.1	586.9
1044.7644	3164.065	1460.05	580.1
1044.8692	3165.0245	1458.55	577.9
1044.9739	3165.9834	1449.9	573.6
1045.0785	3166.9416	1442.1	564.35
1045.1831	3167.8993	1446.85	566.95
1045.2877	3168.8563	1449.7	568.75
1045.3922	3169.8127	1441.5	563
1045.4966	3170.7684	1435.9	557.25
1045.6011	3171.7236	1440.9	561.5
1045.7054	3172.6782	1436.9	560
1045.8098	3173.6321	1437.2	558.7
1045.914	3174.5854	1429.35	547.2
1046.0183	3175.5381	1424.35	546
1046.1224	3176.4902	1424.6	547
1046.2266	3177.4417	1424.05	543.15
1046.3307	3178.3926	1416.3	535.4
1046.4347	3179.3428	1419.9	542.65
1046.5387	3180.2924	1412.4	534.3
1046.6427	3181.2415	1408	529.15
1046.7466	3182.1899	1399.9	521.5
1046.8504	3183.1377	1398.85	519.5
1046.9542	3184.0848	1407.75	526.35
1047.058	3185.0314	1395	517.15
1047.1617	3185.9773	1397.3	517.7
1047.2654	3186.9227	1394.1	515.1
1047.369	3187.8674	1384.9	507.15
1047.4726	3188.8115	1389.85	506.25
1047.5761	3189.755	1381.35	502.9
1047.6796	3190.6979	1382.15	501.05
1047.783	3191.6402	1379.45	500.9
1047.8864	3192.5818	1375.75	498.95
1047.9898	3193.5229	1392.3	495.7
1048.0931	3194.4633	1375.55	498.15
1048.1963	3195.4031	1368.1	488
1048.2995	3196.3423	1363.15	483.85
1048.4027	3197.2809	1359.05	480.1
1048.5058	3198.2189	1360.25	478.45
1048.6089	3199.1563	1373.2	479.1
1048.7119	3200.0931	1358.95	479.6
1048.8148	3201.0292	1346.4	468.45
1048.9178	3201.9648	1353.6	474.4
1049.0206	3202.8997	1358.15	477.9
1049.1235	3203.834	1350.95	472.65
1049.2262	3204.7677	1345.65	468.1
1049.329	3205.7008	1348.1	467.55
1049.4317	3206.6333	1334.3	455.7
1049.5343	3207.5652	1344.3	463.55
1049.6369	3208.4964	1338.4	457.75
1049.7394	3209.4271	1328.45	451.9
1049.8419	3210.3571	1328.2	449.9
1049.9444	3211.2865	1329.8	450.6
1050.0468	3212.2154	1331.8	451.7
1050.1491	3213.1436	1323.9	442.55
1050.2514	3214.0712	1332.3	447.35
1050.3537	3214.9982	1317.95	439.6
1050.4559	3215.9246	1313.55	434.2
1050.5581	3216.8503	1318	440.35
1050.6602	3217.7755	1309.5	428.7
1050.7623	3218.7001	1308.1	429.3
1050.8643	3219.624	1314.9	435.5
1050.9663	3220.5473	1304.3	425.35
1051.0682	3221.4701	1298.35	417.2
1051.1701	3222.3922	1300.1	418.3
1051.2719	3223.3137	1297.75	419.4
1051.3737	3224.2346	1293.95	415.85
1051.4754	3225.1549	1295.35	418.1
1051.5771	3226.0746	1290.45	411.85
1051.6788	3226.9937	1286.4	406.45
1051.7804	3227.9121	1293.25	416.2
1051.8819	3228.83	1290.15	410.4
1051.9834	3229.7473	1284.05	404.8
1052.0849	3230.6639	1277.4	398.45
1052.1863	3231.5799	1276.65	399.15
1052.2876	3232.4954	1271.1	390.95
1052.3889	3233.4102	1272.55	394.7
1052.4902	3234.3244	1269.3	390.55
1052.5914	3235.238	1267.4	389.25
1052.6926	3236.151	1294.8	393
1052.7937	3237.0634	1263.15	385.65
1052.8948	3237.9752	1257.55	377.65
1052.9958	3238.8864	1264.2	383.4
1053.0968	3239.797	1257.7	379.7
1053.1977	3240.7069	1253	375.05
1053.2986	3241.6163	1251	370.3
1053.3994	3242.5251	1249.7	372.55
1053.5002	3243.4332	1251.05	372.8
1053.6009	3244.3408	1245.3	366.6
1053.7016	3245.2477	1241.6	364.1
1053.8022	3246.154	1240.8	361.75
1053.9028	3247.0598	1242.95	363.3
1054.0034	3247.9649	1236.45	358
1054.1039	3248.8694	1239	358.4
1054.2043	3249.7733	1229.7	351.1
1054.3047	3250.6766	1229.3	350.9
1054.4051	3251.5793	1228.75	348.7
1054.5054	3252.4814	1227.65	349.6
1054.6056	3253.3829	1225.1	347.85
1054.7058	3254.2838	1215.7	337.75
1054.806	3255.1841	1222.3	342.5
1054.9061	3256.0838	1221	342.8
1055.0061	3256.9829	1212.9	335.15
1055.1062	3257.8814	1217.1	338
1055.2061	3258.7792	1211.85	331.7
1055.306	3259.6765	1204.4	326.7
1055.4059	3260.5731	1201.55	324.7
1055.5057	3261.4692	1200.15	321.2
1055.6055	3262.3647	1194.3	314.5
1055.7052	3263.2595	1189.6	309.9
1055.8049	3264.1538	1184.25	306.6
1055.9045	3265.0474	1180.75	301.35
1056.0041	3265.9404	1175.45	297.05
1056.1036	3266.8329	1166.75	289.15
1056.2031	3267.7247	1175.4	286.75
1056.3025	3268.616	1158.3	282.65
1056.4019	3269.5066	1151.15	271.65
1056.5013	3270.3966	1146.8	267.05
1056.6005	3271.286	1131.5	254.35
