Software Version:	3.9.2.0
Unit SN:	10000200
Spectrometer SN:	6960
Date:	3/6/2024 9:54:49 AM
Data Line Index:	25
Spectral Points:	2048
Integration time (ms):	125
Averages:	20
Delay (ms):	30
Sequence Number:	1
Processing:	dark subtract
Laser Power (mW):	300
Laser Current (mA):	825
Laser Diode Temp (C):	25.1
Laser Case Temp (C):	24.5
System Temp (C):	24.3
Spectrometer Temp (C):	22
CCD Temp (C):	-0.002
Secondary Temp (C):	20.008
Heatsink Temp (C):	18.222
CCDPCB Temp (C):	30.538
SecondaryPCB Temp (C):	26.336

Wavelength	RamanShift	Raw Counts	Dark Subtracted
787.061	30.1047	547.5	138.65
787.2016	32.3739	546.35	140.1
787.3422	34.6426	553.55	146.9
787.4828	36.9109	568.65	160.3
787.6235	39.1787	583.55	171.9
787.7642	41.4461	595.35	179.45
787.9049	43.7131	613.55	193.65
788.0456	45.9796	625.05	199.7
788.1863	48.2456	635.45	208.15
788.3271	50.5112	655.35	224.65
788.4679	52.7764	675.1	241.95
788.6087	55.0411	690.65	251.1
788.7496	57.3054	714.9	272.65
788.8904	59.5692	729.05	282.75
789.0313	61.8326	746.75	297.7
789.1722	64.0955	770.05	319
789.3132	66.3579	798.2	340.85
789.4541	68.6199	833.55	373.5
789.5951	70.8815	895	430.8
789.7361	73.1426	1036.45	568.5
789.8771	75.4032	1373.1	903.25
790.0181	77.6634	2201.95	1728.15
790.1592	79.9231	4244.75	3766.2
790.3003	82.1824	8718	8233.2
790.4414	84.4412	16684.7	16185.15
790.5825	86.6995	27856.95	27341.65
790.7237	88.9574	38216.55	37691.55
790.8648	91.2148	45797.35	45262.55
791.006	93.4717	48634.7	48093.25
791.1472	95.7282	49963.95	49421.25
791.2885	97.9842	50546.45	50002.3
791.4297	100.2398	50713.3	50164.5
791.571	102.4949	50524.65	49973.15
791.7123	104.7495	50795.8	50240.65
791.8536	107.0036	50380.35	49822.55
791.9949	109.2573	51087.4	50531.5
792.1363	111.5105	50497.6	49940.6
792.2777	113.7632	50916.15	50355.8
792.4191	116.0154	51071.25	50500.25
792.5605	118.2672	51483.15	50918.3
792.7019	120.5185	51508.15	50942.65
792.8434	122.7693	51519.45	50948.25
792.9849	125.0197	51068.85	50491.15
793.1264	127.2696	52173.55	51595.9
793.2679	129.519	52131.5	51548.95
793.4094	131.7679	52542.65	51958.6
793.551	134.0163	51302.05	50715.7
793.6926	136.2642	51888.25	51297.8
793.8342	138.5117	52709.25	52115.25
793.9758	140.7587	52406.5	51812
794.1175	143.0052	52505.95	51909.45
794.2591	145.2512	51845.95	51249.1
794.4008	147.4967	52710.1	52110.75
794.5425	149.7417	52472.25	51869.45
794.6842	151.9863	52528.2	51924.65
794.826	154.2304	51945.35	51334.9
794.9677	156.4739	52495.7	51878.85
795.1095	158.717	52927.6	52308.55
795.2513	160.9596	52648.9	52027.3
795.3931	163.2017	52078.9	51456.35
795.535	165.4433	52841.1	52217.7
795.6768	167.6844	52448.55	51821.5
795.8187	169.925	52832.85	52201.8
795.9606	172.1651	52564.75	51932.15
796.1025	174.4047	52666.45	52027.75
796.2445	176.6439	52731.95	52091.9
796.3864	178.8825	52678.85	52038.3
796.5284	181.1206	53133.25	52486.3
796.6704	183.3582	53111.35	52461.75
796.8124	185.5954	52745.4	52094.85
796.9544	187.832	52940.1	52283.8
797.0965	190.0681	52561.95	51904.4
797.2386	192.3037	53305.55	52641.45
797.3806	194.5388	54070.4	53403.25
797.5228	196.7734	52409.25	51742.4
797.6649	199.0075	53910.7	53244.8
797.807	201.2411	53459.4	52791.6
797.9492	203.4742	54266.1	53596.8
798.0914	205.7068	54123.45	53446.15
798.2336	207.9389	54111.7	53434.6
798.3758	210.1704	54044.6	53376.6
798.518	212.4015	54705.8	54047.6
798.6603	214.632	53876.2	53224.55
798.8025	216.862	54759.75	54108.35
798.9448	219.0915	54509.65	53853.25
799.0871	221.3205	54296.05	53641.9
799.2294	223.549	54966.9	54314.8
799.3718	225.777	54972.75	54319.65
799.5141	228.0044	55257.3	54591.95
799.6565	230.2314	55017.7	54350.7
799.7989	232.4578	54956.6	54287.85
799.9413	234.6837	55073.45	54396.25
800.0837	236.909	56362.95	55685.05
800.2262	239.1339	54608.95	53906.4
800.3687	241.3582	55408.95	54719.25
800.5111	243.582	55446.95	54729.35
800.6536	245.8053	55514.75	54810.65
800.7961	248.0281	55581.8	54882.3
800.9387	250.2503	55857.1	55152.7
801.0812	252.472	55324.9	54615.7
801.2238	254.6932	55722.15	55016.9
801.3664	256.9139	55552.6	54845.4
801.509	259.134	56744.1	56031.5
801.6516	261.3536	55335	54624.3
801.7942	263.5727	56231.9	55522.1
801.9369	265.7912	55791.1	55076.8
802.0795	268.0092	56008.5	55296.6
802.2222	270.2267	56181.7	55470.4
802.3649	272.4436	55674.4	54958.25
802.5076	274.6601	56213.6	55487.75
802.6504	276.8759	56491.8	55774.4
802.7931	279.0913	56237.9	55518.5
802.9359	281.3061	56320.95	55601.5
803.0787	283.5204	56414.8	55691.15
803.2215	285.7341	56344.5	55613.95
803.3643	287.9473	56972.1	56234.2
803.5071	290.16	56448.9	55714.65
803.6499	292.3721	56877.05	56151.55
803.7928	294.5837	56308.5	55577.5
803.9357	296.7947	55924.65	55196.75
804.0786	299.0052	56844.4	56114.8
804.2215	301.2152	56389.6	55659.4
804.3644	303.4246	56937.05	56208
804.5074	305.6334	56936.45	56206.95
804.6503	307.8418	56201.05	55466.95
804.7933	310.0495	56370.35	55636.45
804.9363	312.2568	56249.9	55514.35
805.0793	314.4635	56216.75	55481.1
805.2223	316.6696	56543.95	55805.55
805.3653	318.8752	56868.1	56119.5
805.5084	321.0802	55596.4	54852
805.6514	323.2847	56169.1	55421.35
805.7945	325.4887	56190.05	55443.95
805.9376	327.692	55927.7	55182.15
806.0807	329.8949	56265.95	55516.95
806.2238	332.0972	56037.6	55290.15
806.367	334.2989	56242.95	55488.2
806.5101	336.5001	56742.75	55991.4
806.6533	338.7007	55742.1	54989.5
806.7965	340.9008	56277.5	55521.8
806.9397	343.1003	56356.8	55597.9
807.0829	345.2992	56693.3	55936.7
807.2261	347.4976	56194.8	55435.15
807.3693	349.6955	56399.65	55636.35
807.5126	351.8927	56042.7	55278.05
807.6559	354.0895	56472.05	55693.85
807.7991	356.2856	56336.35	55568.1
807.9424	358.4812	56806.7	56039.2
808.0857	360.6763	56072.8	55305.2
808.2291	362.8707	56642.75	55871.85
808.3724	365.0646	56243.25	55472.15
808.5158	367.258	56314.6	55538.55
808.6591	369.4508	55865.35	55088.1
808.8025	371.643	56562.7	55784.8
808.9459	373.8346	56245.4	55466.3
809.0893	376.0257	56298.05	55515.85
809.2327	378.2162	56149.45	55366.45
809.3762	380.4062	55671.3	54886.85
809.5196	382.5956	56047.35	55268.7
809.6631	384.7844	56070.95	55293.85
809.8066	386.9726	56235.15	55456.7
809.9501	389.1603	56260.75	55486.55
810.0936	391.3474	55683.9	54874.9
810.2371	393.5339	56235.4	55456.05
810.3806	395.7199	55496.3	54721.9
810.5241	397.9052	55631.45	54855.5
810.6677	400.09	55835.35	55058.65
810.8113	402.2743	56185.7	55408.3
810.9548	404.4579	55751.65	54972.85
811.0984	406.641	55700.8	54921.1
811.2421	408.8235	56023.75	55241.25
811.3857	411.0054	56012.15	55228.7
811.5293	413.1868	56054.9	55266.85
811.673	415.3675	55916.5	55123.25
811.8166	417.5477	55955.5	55165.1
811.9603	419.7273	55876.3	55082.85
812.104	421.9064	55750.3	54950.05
812.2477	424.0848	55873.7	55079.3
812.3914	426.2627	56150.55	55353.85
812.5351	428.4399	55511.6	54712.5
812.6788	430.6166	55060.05	54257.65
812.8226	432.7928	55626.95	54824.85
812.9663	434.9683	55109.6	54306.35
813.1101	437.1432	55124.85	54323.35
813.2539	439.3176	55451.9	54652.55
813.3977	441.4914	54733.85	53933.4
813.5415	443.6645	54860.5	54058.35
813.6853	445.8371	54836.15	54033.75
813.8291	448.0091	54535.5	53730.95
813.973	450.1806	54414.05	53612.1
814.1168	452.3514	54404.1	53599.35
814.2607	454.5216	54164.3	53351.8
814.4046	456.6913	54349.4	53541.6
814.5485	458.8603	54489.9	53683.25
814.6924	461.0288	54134.95	53330.95
814.8363	463.1967	54456	53651.75
814.9802	465.3639	54435.35	53626.7
815.1241	467.5306	53693.75	52886.9
815.2681	469.6967	54046.25	53241.1
815.412	471.8622	54196.9	53392.2
815.556	474.0271	53957.35	53151.45
815.7	476.1914	54035.2	53223.95
815.844	478.3551	54056.85	53247.9
815.988	480.5182	54442	53632.2
816.132	482.6807	53892.3	53084.9
816.276	484.8426	53977.95	53172.65
816.4201	487.0039	54449.3	53640.95
816.5641	489.1647	54399.2	53587.6
816.7082	491.3248	53904.85	53091.15
816.8522	493.4843	54527.4	53717.7
816.9963	495.6432	54496.3	53684.15
817.1404	497.8015	53772.15	52952.45
817.2845	499.9592	54181.05	53361.35
817.4286	502.1163	54126.05	53306.1
817.5727	504.2728	54070.15	53252
817.7168	506.4287	54064.05	53250.75
817.861	508.5839	53711.1	52896.65
818.0051	510.7386	53957.9	53142.4
818.1493	512.8927	54035.65	53212.7
818.2935	515.0461	53861.75	53039.05
818.4377	517.199	54225.3	53402.35
818.5818	519.3512	53982.45	53160.4
818.726	521.5029	53838.45	53010.95
818.8703	523.6539	53985.25	53159.1
819.0145	525.8043	53554.95	52730.1
819.1587	527.9541	53845.2	53015.45
819.303	530.1033	53790.7	52962.6
819.4472	532.2519	53545.9	52718
819.5915	534.3999	53772.55	52943.15
819.7357	536.5472	53955.7	53125.65
819.88	538.694	53388.35	52562.35
820.0243	540.8401	53734.75	52906.3
820.1686	542.9856	53668.15	52834
820.3129	545.1305	53813.4	52977.55
820.4572	547.2748	53523.75	52686.1
820.6016	549.4185	53537.4	52698.45
820.7459	551.5615	53766.9	52930.55
820.8902	553.704	53680.7	52846.65
821.0346	555.8458	53415.4	52586.3
821.1789	557.987	53470.45	52639.35
821.3233	560.1276	53644.75	52811.25
821.4677	562.2675	53530.4	52693.95
821.6121	564.4069	53493.4	52661.35
821.7565	566.5456	53731.95	52899.1
821.9009	568.6837	53368.25	52535.75
822.0453	570.8212	53439.75	52606.15
822.1897	572.958	52899.25	52063.3
822.3342	575.0942	53286.25	52451.75
822.4786	577.2299	52839.5	52004.3
822.6231	579.3648	52762.75	51934.5
822.7675	581.4992	52544.25	51717.4
822.912	583.6329	52453.25	51625.25
823.0565	585.766	52431.8	51600.45
823.201	587.8985	52535.05	51702.55
823.3454	590.0304	51999.15	51148.4
823.4899	592.1616	52366.4	51524
823.6345	594.2922	52078.8	51235.6
823.779	596.4222	51843.8	51000.65
823.9235	598.5515	51872.9	51029.4
824.068	600.6802	51969.5	51127.25
824.2126	602.8083	51553.3	50710.7
824.3571	604.9358	51553.35	50710.45
824.5017	607.0626	51709.05	50866.05
824.6462	609.1888	51272.75	50423.45
824.7908	611.3144	51596.9	50747.7
824.9354	613.4393	51320.4	50470.9
825.08	615.5636	51219.45	50368.95
825.2246	617.6873	51396.2	50547.25
825.3692	619.8103	51157.15	50310.15
825.5138	621.9327	51358.45	50508.15
825.6584	624.0544	51406.7	50561.65
825.803	626.1756	51197.2	50350.7
825.9477	628.2961	51167.3	50317.25
826.0923	630.4159	50951.25	50102.4
826.237	632.5351	50923.15	50071.9
826.3816	634.6537	51217.65	50365.5
826.5263	636.7716	50763.35	49909.85
826.6709	638.8889	50895.65	50040.65
826.8156	641.0056	50827.1	49973.9
826.9603	643.1216	50842.55	49986.7
827.105	645.237	51064.2	50210.2
827.2497	647.3518	50676.1	49828.95
827.3944	649.4659	50726.65	49878.95
827.5391	651.5793	50755.5	49904.3
827.6838	653.6922	50764.8	49916.3
827.8285	655.8043	50464.35	49611.7
827.9733	657.9159	50880.95	50028.35
828.118	660.0268	50011.7	49158.2
828.2627	662.137	50351.6	49495
828.4075	664.2466	50436.1	49578.95
828.5522	666.3556	50300.85	49443.9
828.697	668.4639	50317.95	49460.2
828.8418	670.5716	50191.6	49338.2
828.9865	672.6786	50254.25	49397.3
829.1313	674.785	49919.2	49060.5
829.2761	676.8907	49867.95	49009.95
829.4209	678.9958	49932.9	49077.55
829.5657	681.1002	49965.8	49107.8
829.7105	683.204	49631	48767.25
829.8553	685.3072	49511.8	48650.15
830.0001	687.4097	49594.3	48735.4
830.1449	689.5115	49530.95	48669.4
830.2898	691.6127	49675.35	48815.25
830.4346	693.7132	49446.1	48586.8
830.5794	695.8131	49526.6	48644.9
830.7243	697.9123	49541.3	48678.45
830.8691	700.0109	49527.9	48665.7
831.014	702.1089	49158.55	48295.9
831.1588	704.2061	49287.85	48424.1
831.3037	706.3028	49313.1	48448.15
831.4486	708.3987	49271.85	48405.65
831.5935	710.4941	49186.15	48322.2
831.7383	712.5887	49209.3	48346
831.8832	714.6827	49095.15	48230.4
832.0281	716.7761	49184.4	48323.7
832.173	718.8688	49224.3	48360.3
832.3179	720.9608	48962.5	48093.2
832.4628	723.0522	49013.8	48142.45
832.6077	725.1429	48797.9	47928.25
832.7527	727.233	49186.7	48318.75
832.8976	729.3224	48669.05	47802.15
833.0425	731.4112	48769.4	47901.2
833.1874	733.4993	48729.55	47861.65
833.3324	735.5867	48646.2	47780.7
833.4773	737.6735	48459.9	47590.7
833.6222	739.7596	48267.1	47394.45
833.7672	741.845	48196.05	47327.3
833.9122	743.9298	48268.7	47396.6
834.0571	746.014	48052.55	47184.1
834.2021	748.0974	47862.6	46991
834.347	750.1802	47982.65	47110.85
834.492	752.2624	47552.7	46683.3
834.637	754.3439	47532.75	46658.05
834.782	756.4247	47570.9	46690.5
834.9269	758.5048	47266.4	46395.9
835.0719	760.5843	47300.3	46426.15
835.2169	762.6631	47255.35	46379.75
835.3619	764.7413	47125.55	46253.05
835.5069	766.8188	47211.25	46338.4
835.6519	768.8956	47160.6	46283.65
835.7969	770.9718	47167.45	46290.15
835.9419	773.0473	47020.8	46146.85
836.0869	775.1221	46874.55	46001.45
836.232	777.1962	46763.15	45891.95
836.377	779.2697	46581.15	45707.35
836.522	781.3426	46623.1	45728.3
836.667	783.4147	46529.75	45652.8
836.8121	785.4862	46496.5	45622.2
836.9571	787.557	46318.15	45442.15
837.1021	789.6271	46288.15	45409.7
837.2472	791.6966	46058.45	45181.7
837.3922	793.7654	45862.45	44983.75
837.5373	795.8335	45888.85	45009.35
837.6823	797.901	45746.8	44873.3
837.8274	799.9678	45595.9	44715.75
837.9724	802.0339	45508.55	44632.1
838.1175	804.0993	45471.75	44582.95
838.2626	806.1641	45341.85	44463.2
838.4076	808.2282	45238.5	44362.6
838.5527	810.2916	45163.7	44284.4
838.6978	812.3544	45219.55	44344
838.8428	814.4164	44997.65	44120.4
838.9879	816.4778	45107.9	44229.85
839.133	818.5385	44925.2	44042.35
839.2781	820.5986	44886.95	44006.35
839.4232	822.658	44950.9	44067.1
839.5682	824.7166	44864.95	43985.75
839.7133	826.7747	44891.6	44012.25
839.8584	828.832	44904.25	44023.05
840.0035	830.8886	44817.35	43935.8
840.1486	832.9446	44780.75	43897.35
840.2937	834.9999	44530.9	43651.45
840.4388	837.0545	44549.95	43664.5
840.5839	839.1085	44459.85	43577.05
840.729	841.1618	44312.75	43428.3
840.8741	843.2143	44156.8	43276.4
841.0192	845.2662	44014.3	43133.25
841.1643	847.3175	44052.65	43170.25
841.3095	849.368	43843.75	42960.75
841.4546	851.4179	43814.2	42933.1
841.5997	853.467	43615.05	42735.45
841.7448	855.5155	43673.75	42790.2
841.8899	857.5633	43482.45	42598.9
842.0351	859.6105	43354.25	42468.8
842.1802	861.6569	43357.45	42473.1
842.3253	863.7027	43244.85	42359.7
842.4704	865.7478	43233.6	42348.2
842.6156	867.7922	43175.2	42289.9
842.7607	869.8359	43153.75	42265.5
842.9058	871.8789	43004.45	42118.8
843.0509	873.9212	43030.15	42117.05
843.1961	875.9629	42814.4	41929.7
843.3412	878.0039	42897.45	42011.85
843.4863	880.0441	42790.3	41904.7
843.6315	882.0837	42753.4	41867.8
843.7766	884.1226	42792.2	41904.65
843.9218	886.1609	42738.7	41853.25
844.0669	888.1984	42689.9	41806.25
844.212	890.2352	42844.3	41957.1
844.3572	892.2714	42680.35	41790.3
844.5023	894.3069	42688	41802.7
844.6475	896.3416	42453	41563.1
844.7926	898.3757	42417.05	41527.2
844.9377	900.4091	42335.2	41448.25
845.0829	902.4418	42298.3	41404
845.228	904.4739	42140.45	41250.4
845.3732	906.5052	42176.2	41286.25
845.5183	908.5358	42005.65	41116.7
845.6635	910.5658	41990.95	41099.6
845.8086	912.595	41873.65	40983.9
845.9538	914.6236	41695.95	40810.5
846.0989	916.6515	41686.4	40798.8
846.2441	918.6786	41504.45	40615.05
846.3892	920.7051	41546.4	40655.8
846.5344	922.7309	41537.1	40647.7
846.6795	924.756	41372.8	40486.2
846.8246	926.7804	41354.75	40463
846.9698	928.8041	41050.3	40160.4
847.1149	930.8272	41095.75	40207.55
847.2601	932.8495	40892.6	40001.35
847.4052	934.8711	40842.65	39952.2
847.5504	936.892	40696.25	39806.4
847.6955	938.9123	40546.65	39653.55
847.8407	940.9318	40506.05	39613.5
847.9858	942.9506	40383.9	39494.8
848.131	944.9688	40245.9	39355.55
848.2761	946.9862	40090.3	39200.1
848.4213	949.003	39931.5	39039.9
848.5664	951.019	39853.65	38963.25
848.7115	953.0344	39680.05	38790.1
848.8567	955.0491	39612.8	38723.5
849.0018	957.063	39620.1	38729.35
849.147	959.0763	39731.85	38843.6
849.2921	961.0888	39525.45	38631.8
849.4373	963.1007	39514.2	38624.1
849.5824	965.1119	39482.65	38593.35
849.7275	967.1223	39410.7	38524.25
849.8727	969.1321	39350	38465.4
850.0178	971.1412	39327.65	38442.2
850.1629	973.1495	39159.45	38268.45
850.3081	975.1572	39157.55	38233.25
850.4532	977.1641	39096.85	38206.45
850.5983	979.1704	38909.75	38015.8
850.7435	981.1759	38862.9	37968.75
850.8886	983.1808	38782.5	37885.9
851.0337	985.1849	38697	37793.95
851.1788	987.1884	38671.95	37776.4
851.324	989.1911	38599.8	37705.75
851.4691	991.1932	38471.05	37581.3
851.6142	993.1945	38312.2	37421.35
851.7593	995.1951	38152.95	37260.75
851.9045	997.1951	38121.55	37223.15
852.0496	999.1943	37976.3	37084.35
852.1947	1001.1928	37834.75	36941.55
852.3398	1003.1906	37635.35	36742.25
852.4849	1005.1877	37585.9	36689.5
852.63	1007.1841	37498.05	36604.6
852.7751	1009.1798	37372.65	36479
852.9202	1011.1748	37183.65	36290.95
853.0653	1013.1691	37103.2	36208.9
853.2104	1015.1627	36932	36037.9
853.3555	1017.1556	36687.9	35795
853.5006	1019.1477	36599.6	35707.2
853.6457	1021.1392	36407.35	35519.65
853.7908	1023.1299	36321.15	35430.8
853.9359	1025.12	36153.85	35264.55
854.081	1027.1093	35986	35102.75
854.2261	1029.0979	35934.15	35054.95
854.3712	1031.0859	35826.05	34940.7
854.5163	1033.0731	35703.9	34812.65
854.6613	1035.0596	35626	34734.1
854.8064	1037.0454	35381.3	34490.15
854.9515	1039.0304	35309.35	34418.5
855.0965	1041.0148	35194.1	34300.75
855.2416	1042.9985	35050.2	34158.1
855.3867	1044.9814	35062	34170.9
855.5317	1046.9636	34873.9	33977.8
855.6768	1048.9452	34713.05	33822.4
855.8219	1050.926	34696.1	33805.95
855.9669	1052.9061	34593.8	33698.35
856.112	1054.8855	34497.9	33604.4
856.257	1056.8642	34527.85	33633.55
856.4021	1058.8421	34504.1	33606.7
856.5471	1060.8194	34363.3	33469.5
856.6921	1062.7959	34269.55	33376.45
856.8372	1064.7717	34233.05	33339.95
856.9822	1066.7469	34171.55	33276.95
857.1272	1068.7213	34099.3	33202.4
857.2723	1070.695	34066.7	33174.65
857.4173	1072.6679	33905.65	33010.75
857.5623	1074.6402	33913.55	33017.95
857.7073	1076.6117	33881.95	32982.65
857.8523	1078.5826	33816.65	32919.75
857.9973	1080.5527	33676.35	32780.6
858.1423	1082.5221	33581.95	32686.8
858.2873	1084.4908	33482.4	32588.55
858.4323	1086.4587	33399.75	32502.85
858.5773	1088.426	33340.05	32445.1
858.7223	1090.3925	33210.25	32308.7
858.8673	1092.3584	33220.6	32325.15
859.0123	1094.3235	33075.95	32182.8
859.1573	1096.2879	33002.35	32108.25
859.3022	1098.2515	32948.15	32052.45
859.4472	1100.2145	32971.6	32077
859.5922	1102.1767	32859	31964.3
859.7371	1104.1382	32835.15	31941.65
859.8821	1106.099	32785.35	31888
860.027	1108.0591	32728.45	31832.25
860.172	1110.0185	32649	31752.65
860.3169	1111.9771	32676.25	31780.25
860.4619	1113.9351	32493.3	31598.1
860.6068	1115.8923	32449.15	31550.2
860.7517	1117.8488	32332.15	31435.15
860.8967	1119.8045	32100.55	31205.7
861.0416	1121.7596	32106.15	31210.15
861.1865	1123.7139	31878.95	30984.6
861.3314	1125.6675	31814.45	30920.85
861.4763	1127.6204	31901.8	31007.05
861.6212	1129.5726	31748.05	30849.2
861.7661	1131.524	31737.6	30843.95
861.911	1133.4748	31637.6	30741.25
862.0559	1135.4248	31515.2	30618.55
862.2008	1137.3741	31438.2	30540.7
862.3457	1139.3226	31321.35	30423.8
862.4905	1141.2705	31326.8	30429.35
862.6354	1143.2176	31159.4	30257.6
862.7803	1145.164	31130.7	30231.55
862.9251	1147.1097	31056.85	30163.55
863.07	1149.0546	31017.05	30120.3
863.2148	1150.9989	30943.65	30047.05
863.3597	1152.9424	30959.25	30062.45
863.5045	1154.8852	30844.65	29945.85
863.6493	1156.8272	30838.3	29940.15
863.7942	1158.7686	30787.4	29884.3
863.939	1160.7092	30657.4	29759.65
864.0838	1162.6491	30538.05	29638.55
864.2286	1164.5883	30544.6	29649.35
864.3734	1166.5267	30508.25	29609.8
864.5182	1168.4644	30503.95	29609.15
864.663	1170.4014	30448.1	29546.6
864.8078	1172.3377	30533.2	29638.3
864.9526	1174.2732	30501.8	29606.95
865.0974	1176.2081	30600.2	29704.3
865.2421	1178.1421	30620.65	29721.05
865.3869	1180.0755	30618.6	29723.55
865.5317	1182.0082	30504.25	29609.2
865.6764	1183.9401	30510.15	29613.7
865.8212	1185.8713	30348.2	29454.5
865.9659	1187.8017	30205.8	29314.75
866.1106	1189.7315	30137.8	29248.05
866.2554	1191.6605	29906.35	29017.45
866.4001	1193.5888	29741.8	28850.95
866.5448	1195.5163	29658.8	28766.15
866.6895	1197.4432	29586.85	28690.15
866.8342	1199.3693	29481.9	28585.85
866.9789	1201.2947	29355.5	28451.9
867.1236	1203.2193	29241.45	28344.55
867.2683	1205.1432	29226.2	28330.25
867.413	1207.0664	29080.15	28183.8
867.5576	1208.9889	29042.35	28146
867.7023	1210.9106	28912.1	28016.4
867.847	1212.8316	28769.95	27874.7
867.9916	1214.7519	28807.4	27903.05
868.1363	1216.6715	28699.55	27805.45
868.2809	1218.5903	28666.25	27771.7
868.4255	1220.5084	28595.8	27700.2
868.5701	1222.4257	28692.05	27795.75
868.7148	1224.3424	28486.35	27590.7
868.8594	1226.2583	28409.55	27510.85
869.004	1228.1735	28406.9	27507.15
869.1486	1230.0879	28310	27411
869.2932	1232.0016	28281.65	27387.9
869.4377	1233.9146	28218.75	27320.6
869.5823	1235.8269	28142.15	27247.95
869.7269	1237.7384	28127.6	27231
869.8715	1239.6492	27980.2	27087.45
870.016	1241.5592	27956.35	27060
870.1606	1243.4686	27902.15	27006.75
870.3051	1245.3772	27908.15	27012.95
870.4496	1247.285	27905.35	27007.35
870.5941	1249.1922	27861.05	26964.45
870.7387	1251.0986	27875.25	26981.65
870.8832	1253.0042	27789.75	26895.6
871.0277	1254.9092	27796.75	26901.45
871.1722	1256.8134	27780.55	26884.85
871.3167	1258.7169	27767.85	26871.4
871.4611	1260.6196	27698.25	26803.1
871.6056	1262.5216	27703.8	26808.8
871.7501	1264.4229	27592.75	26698.5
871.8945	1266.3234	27571.15	26677.5
872.039	1268.2232	27572.8	26673.95
872.1834	1270.1223	27486.95	26589.35
872.3278	1272.0207	27476.45	26581.95
872.4723	1273.9183	27382.4	26481.65
872.6167	1275.8151	27307.9	26410.2
872.7611	1277.7113	27277.15	26382
872.9055	1279.6067	27240.75	26348.65
873.0499	1281.5014	27268.55	26371.2
873.1943	1283.3953	27304.7	26404.75
873.3386	1285.2885	27467.95	26573.75
873.483	1287.181	27477.1	26579.15
873.6274	1289.0727	27578.9	26687.15
873.7717	1290.9637	27529.4	26631.8
873.9161	1292.854	27509.05	26611.6
874.0604	1294.7435	27407.9	26511.05
874.2047	1296.6323	27339.95	26443.75
874.349	1298.5204	27238.4	26340.1
874.4933	1300.4077	27138.3	26242.7
874.6376	1302.2943	27124.05	26225.4
874.7819	1304.1802	27044	26148.85
874.9262	1306.0653	26905.2	26007.6
875.0705	1307.9497	26805.05	25908.85
875.2147	1309.8333	26666.7	25770.9
875.359	1311.7162	26593.8	25696.95
875.5032	1313.5984	26525.2	25626.25
875.6475	1315.4798	26419	25523.05
875.7917	1317.3605	26353.15	25439.45
875.9359	1319.2405	26340	25442
876.0801	1321.1197	26242.05	25345.85
876.2243	1322.9982	26097.75	25199.4
876.3685	1324.876	26115.05	25219.75
876.5127	1326.753	25947.2	25049.65
876.6569	1328.6293	25873.9	24973.1
876.801	1330.5048	25867.45	24969.5
876.9452	1332.3796	25745.15	24850.75
877.0893	1334.2537	25663	24742.3
877.2335	1336.127	25561.15	24664.05
877.3776	1337.9996	25523.9	24628.2
877.5217	1339.8714	25440.4	24542.5
877.6658	1341.7426	25424.75	24485.25
877.8099	1343.6129	25380.1	24484.1
877.954	1345.4826	25259.15	24359.15
878.0981	1347.3515	25286.8	24385.7
878.2422	1349.2196	25213.25	24315.05
878.3862	1351.087	25198.6	24301.45
878.5303	1352.9537	25172.25	24273.75
878.6743	1354.8197	25162.1	24266.95
878.8184	1356.6849	25166.8	24270.15
878.9624	1358.5493	25149.75	24251.85
879.1064	1360.4131	25135.35	24240.2
879.2504	1362.276	25073.05	24175.3
879.3944	1364.1383	25034.95	24137.15
879.5384	1365.9998	25014.6	24109
879.6823	1367.8606	24887.45	23990.45
879.8263	1369.7206	24798.7	23900.7
879.9702	1371.5799	24710.6	23812.35
880.1142	1373.4384	24622.5	23726
880.2581	1375.2962	24542	23645.45
880.402	1377.1533	24411.4	23514.4
880.5459	1379.0096	24242.75	23348.55
880.6898	1380.8652	24147.9	23253.5
880.8337	1382.7201	24036.55	23142.3
880.9776	1384.5742	23878.35	22982.05
881.1215	1386.4275	23763.65	22865.15
881.2653	1388.2802	23669.25	22775.1
881.4092	1390.132	23601.7	22704.45
881.553	1391.9832	23544.2	22644.5
881.6968	1393.8336	23403.2	22505.05
881.8406	1395.6832	23358.15	22459.75
881.9844	1397.5322	23264.75	22366.55
882.1282	1399.3803	23185.4	22284.8
882.272	1401.2278	23048.5	22151.05
882.4158	1403.0745	23055.15	22159.2
882.5595	1404.9204	22902.85	22008.2
882.7033	1406.7656	22881.6	21986.35
882.847	1408.6101	22788.1	21891.3
882.9908	1410.4538	22721.05	21823
883.1345	1412.2968	22642.75	21746.1
883.2782	1414.139	22563.7	21669.05
883.4219	1415.9805	22558.9	21660.9
883.5656	1417.8213	22503.2	21598.15
883.7092	1419.6613	22377	21482.7
883.8529	1421.5006	22376.65	21480.1
883.9965	1423.3391	22404.55	21506.15
884.1402	1425.1769	22328.9	21431.95
884.2838	1427.0139	22379.65	21482.6
884.4274	1428.8502	22437.7	21538.7
884.571	1430.6858	22445.7	21548.55
884.7146	1432.5206	22391.2	21494.55
884.8582	1434.3547	22382.1	21482.55
885.0018	1436.188	22354.1	21458.9
885.1453	1438.0206	22324.75	21427.7
885.2889	1439.8524	22227.2	21331.85
885.4324	1441.6835	22151.45	21256.15
885.5759	1443.5139	22114.5	21216.6
885.7194	1445.3435	22062.2	21166.55
885.8629	1447.1724	22015.7	21120.05
886.0064	1449.0005	21968.05	21074.7
886.1499	1450.8279	21938.6	21041.45
886.2933	1452.6545	21928.55	21032.8
886.4368	1454.4804	21919.35	21026.3
886.5802	1456.3056	21833.45	20932.1
886.7237	1458.13	21798.2	20902.25
886.8671	1459.9536	21771.45	20874.65
887.0105	1461.7766	21686.75	20790.8
887.1539	1463.5987	21593.5	20697.9
887.2972	1465.4202	21508.25	20611.75
887.4406	1467.2409	21376.6	20480.95
887.584	1469.0608	21365.6	20470.2
887.7273	1470.88	21299.35	20403.25
887.8706	1472.6984	21217.9	20324.3
888.0139	1474.5161	21134.45	20236.9
888.1572	1476.3331	21050.65	20153.7
888.3005	1478.1493	21047.7	20150.2
888.4438	1479.9648	21000.3	20104.25
888.5871	1481.7795	20936.6	20040.75
888.7303	1483.5935	20921.5	20027.05
888.8736	1485.4067	20915.5	20018.45
889.0168	1487.2192	20862.55	19967.6
889.16	1489.031	20816.45	19919
889.3032	1490.842	20751.6	19856.25
889.4464	1492.6522	20745.9	19850.95
889.5896	1494.4618	20692.8	19797.35
889.7327	1496.2705	20654.45	19761.05
889.8759	1498.0785	20619.25	19722.85
890.019	1499.8858	20532.2	19636.6
890.1622	1501.6924	20488.35	19593.85
890.3053	1503.4981	20425.25	19530.5
890.4484	1505.3032	20433.35	19538.45
890.5914	1507.1075	20352.15	19456.7
890.7345	1508.911	20311.55	19417
890.8776	1510.7138	20274.35	19378.6
891.0206	1512.5159	20223.6	19328.8
891.1637	1514.3172	20156.25	19260.2
891.3067	1516.1178	20074.9	19182.35
891.4497	1517.9176	20050.5	19153.55
891.5927	1519.7166	19971.7	19077.85
891.7357	1521.515	19923.95	19023.8
891.8786	1523.3126	19885.05	18989.8
892.0216	1525.1094	19802.7	18906.65
892.1645	1526.9055	19739.15	18844.9
892.3074	1528.7008	19659.7	18766.15
892.4503	1530.4954	19550.4	18653.25
892.5932	1532.2893	19520.65	18628.4
892.7361	1534.0824	19444.7	18547.6
892.879	1535.8747	19475.4	18583
893.0218	1537.6663	19336.35	18443.3
893.1647	1539.4572	19305.25	18409.3
893.3075	1541.2473	19267.45	18373.6
893.4503	1543.0367	19198.5	18307.25
893.5931	1544.8253	19136.2	18238.1
893.7359	1546.6132	19130.75	18235.55
893.8787	1548.4003	19062.5	18159.45
894.0214	1550.1867	19043.5	18141.65
894.1642	1551.9723	18976.75	18082.95
894.3069	1553.7572	18942.3	18049.15
894.4496	1555.5414	18910.35	18017.9
894.5923	1557.3247	18883	17989.3
894.735	1559.1074	18842.4	17952.4
894.8777	1560.8893	18816.65	17927.1
895.0204	1562.6705	18788.6	17898.7
895.163	1564.4509	18810.5	17919.75
895.3056	1566.2305	18746.25	17857.05
895.4482	1568.0094	18733.9	17844.1
895.5908	1569.7876	18725.3	17837.05
895.7334	1571.565	18661.9	17773
895.876	1573.3417	18609.8	17721
896.0186	1575.1176	18555.75	17666.85
896.1611	1576.8928	18554.25	17667.05
896.3036	1578.6672	18457.45	17572.7
896.4461	1580.4409	18437.9	17552.9
896.5886	1582.2138	18379.5	17488.45
896.7311	1583.986	18353.85	17466.05
896.8736	1585.7575	18384.2	17497.3
897.0161	1587.5282	18325.7	17439.75
897.1585	1589.2981	18341.8	17455.15
897.3009	1591.0673	18294.85	17408.25
897.4433	1592.8358	18300.55	17414.65
897.5857	1594.6035	18216.45	17325.55
897.7281	1596.3704	18156.65	17268.6
897.8705	1598.1366	18107.75	17219.8
898.0128	1599.9021	18095.9	17208
898.1551	1601.6668	18018.55	17127.45
898.2975	1603.4308	17945.7	17057.4
898.4398	1605.194	17948.25	17053.95
898.5821	1606.9564	17916.4	17031.8
898.7243	1608.7182	17941.3	17054.6
898.8666	1610.4791	17946.4	17063.9
899.0088	1612.2394	17955.9	17072.7
899.1511	1613.9988	17988.4	17104.45
899.2933	1615.7576	18021.45	17136.3
899.4355	1617.5156	18001.35	17108.25
899.5776	1619.2728	17988.95	17099.85
899.7198	1621.0293	17909.3	17021.9
899.862	1622.785	17751.75	16862.85
900.0041	1624.54	17625.55	16737.05
900.1462	1626.2942	17493.5	16605.45
900.2883	1628.0477	17319.55	16431.2
900.4304	1629.8005	17211.7	16323.25
900.5725	1631.5525	17112.15	16226
900.7145	1633.3037	17042.55	16155.5
900.8566	1635.0542	16962.95	16077.8
900.9986	1636.804	16896.7	16009.45
901.1406	1638.553	16845.65	15916.25
901.2826	1640.3013	16735.25	15851.65
901.4245	1642.0488	16653.3	15766.05
901.5665	1643.7955	16630.15	15743.75
901.7085	1645.5416	16558.7	15671.7
901.8504	1647.2868	16546	15661.7
901.9923	1649.0313	16501.6	15615.4
902.1342	1650.7751	16470.15	15579.8
902.2761	1652.5181	16434.45	15549
902.4179	1654.2604	16388.45	15503.05
902.5598	1656.0019	16362.05	15476.8
902.7016	1657.7427	16393.05	15506.5
902.8434	1659.4828	16397.4	15512.6
902.9852	1661.222	16377.4	15491.45
903.127	1662.9606	16312.65	15426.95
903.2687	1664.6984	16332.2	15446.25
903.4105	1666.4354	16256.7	15366.25
903.5522	1668.1717	16131.85	15243.4
903.6939	1669.9072	15985.7	15097.8
903.8356	1671.642	15884.1	14994.55
903.9773	1673.3761	15816.35	14931
904.119	1675.1094	15744.45	14858.35
904.2606	1676.8419	15679	14794.55
904.4022	1678.5737	15550.25	14664.2
904.5439	1680.3048	15502.15	14614.85
904.6855	1682.0351	15372.15	14485.8
904.827	1683.7646	15301.2	14411.2
904.9686	1685.4934	15296.8	14410.25
905.1101	1687.2215	15229.35	14343.5
905.2517	1688.9488	15141.25	14257.8
905.3932	1690.6754	15073.7	14190.85
905.5347	1692.4012	15042.55	14156.7
905.6761	1694.1263	14988.5	14102.8
905.8176	1695.8506	14981.6	14097.25
905.9591	1697.5742	14931.9	14045.4
906.1005	1699.297	14859.55	13974.6
906.2419	1701.0191	14790.85	13907.95
906.3833	1702.7404	14743.05	13858.35
906.5246	1704.461	14642.3	13757.3
906.666	1706.1808	14624.25	13737.5
906.8073	1707.8999	14572.3	13686.8
906.9487	1709.6182	14518.6	13635.05
907.09	1711.3358	14470.7	13586.65
907.2313	1713.0527	14456.3	13574.45
907.3725	1714.7688	14383.05	13493.3
907.5138	1716.4841	14317.45	13431.35
907.655	1718.1987	14323.8	13435.7
907.7962	1719.9126	14250.65	13369.65
907.9374	1721.6257	14197.95	13311.6
908.0786	1723.338	14188.7	13305.8
908.2198	1725.0496	14108.1	13224.9
908.3609	1726.7605	14097.85	13214.05
908.502	1728.4706	14071.15	13185.25
908.6431	1730.18	13987.7	13102.9
908.7842	1731.8886	13971.5	13088.75
908.9253	1733.5964	13930.45	13039.85
909.0664	1735.3036	13892.15	13006.05
909.2074	1737.0099	13879.65	12995.05
909.3484	1738.7156	13850.65	12968.55
909.4894	1740.4204	13803.45	12916.3
909.6304	1742.1246	13779.55	12893.5
909.7714	1743.8279	13735.05	12851.65
909.9123	1745.5306	13731.45	12848.8
910.0532	1747.2325	13687.3	12805.65
910.1941	1748.9336	13657.15	12771.15
910.335	1750.634	13613.95	12727.1
910.4759	1752.3336	13541.15	12657.55
910.6168	1754.0325	13572.85	12692.4
910.7576	1755.7307	13526.25	12644.35
910.8984	1757.4281	13534.05	12649.85
911.0392	1759.1247	13548.3	12656.5
911.18	1760.8206	13460.4	12572.65
911.3208	1762.5158	13472.65	12585.05
911.4615	1764.2102	13371.35	12487.65
911.6022	1765.9039	13352.4	12467.5
911.7429	1767.5968	13350.05	12464.85
911.8836	1769.289	13302.1	12419.6
912.0243	1770.9804	13234.2	12349.65
912.1649	1772.6711	13272.25	12385
912.3056	1774.361	13210.05	12324.6
912.4462	1776.0502	13179.25	12294.45
912.5868	1777.7386	13151.7	12265.25
912.7274	1779.4263	13109.1	12226
912.8679	1781.1132	13119.85	12234.65
913.0084	1782.7994	13074.15	12189.1
913.149	1784.4849	13038.75	12155.35
913.2895	1786.1696	13007.95	12106.3
913.4299	1787.8535	12992.15	12108.3
913.5704	1789.5367	12927.45	12044.7
913.7108	1791.2192	12938.95	12055.55
913.8513	1792.9009	12928.65	12015.7
913.9917	1794.5818	12872.45	11988.35
914.132	1796.2621	12833	11950.85
914.2724	1797.9415	12783.8	11899.25
914.4128	1799.6202	12754.5	11870.3
914.5531	1801.2982	12733.9	11851.35
914.6934	1802.9755	12726.85	11843.15
914.8337	1804.6519	12712.3	11828.05
914.9739	1806.3277	12640.3	11757.55
915.1142	1808.0027	12591.95	11710.6
915.2544	1809.6769	12577.05	11694.9
915.3946	1811.3504	12565.5	11682.15
915.5348	1813.0231	12529.3	11644.15
915.675	1814.6951	12508.75	11625.7
915.8151	1816.3664	12500.45	11617.85
915.9553	1818.0369	12450.65	11566.8
916.0954	1819.7067	12402.15	11519.6
916.2355	1821.3757	12400.15	11516.2
916.3755	1823.044	12377.15	11492.7
916.5156	1824.7115	12347	11464.8
916.6556	1826.3783	12296.9	11413.95
916.7956	1828.0443	12285	11402.2
916.9356	1829.7096	12261.8	11377.6
917.0756	1831.3741	12234.1	11347.1
917.2155	1833.0379	12191.8	11310.35
917.3555	1834.701	12181.6	11297.25
917.4954	1836.3633	12132.7	11249.35
917.6353	1838.0248	12126.85	11241.95
917.7751	1839.6856	12111.4	11227.7
917.915	1841.3457	12098.1	11216.35
918.0548	1843.005	12060.7	11177.75
918.1946	1844.6636	12055.2	11172.95
918.3344	1846.3214	11995.3	11113
918.4742	1847.9785	12004.55	11122
918.6139	1849.6349	11966.1	11083.9
918.7537	1851.2904	11950.25	11056.35
918.8934	1852.9453	11898.1	11013.1
919.0331	1854.5994	11853.1	10969.2
919.1727	1856.2528	11859	10970.15
919.3124	1857.9054	11832.85	10951
919.452	1859.5572	11830.1	10948.9
919.5916	1861.2083	11815.25	10929.7
919.7312	1862.8587	11814.45	10930.2
919.8708	1864.5084	11767.3	10880.8
920.0103	1866.1572	11743.4	10859.75
920.1498	1867.8054	11692	10807.55
920.2893	1869.4528	11658.2	10773.1
920.4288	1871.0994	11624.35	10741.65
920.5683	1872.7453	11640	10754.45
920.7077	1874.3905	11583.4	10692.8
920.8471	1876.0349	11573.75	10691.75
920.9865	1877.6786	11562.65	10676.95
921.1259	1879.3215	11547.4	10662.6
921.2653	1880.9637	11523.2	10638.65
921.4046	1882.6051	11495.8	10613.05
921.5439	1884.2458	11471.35	10587.55
921.6832	1885.8858	11418.6	10533.6
921.8225	1887.525	11407.1	10521.15
921.9617	1889.1634	11370.9	10486.1
922.101	1890.8011	11337.85	10455.35
922.2402	1892.4381	11297.2	10412.5
922.3794	1894.0743	11318.7	10435.7
922.5185	1895.7098	11281.85	10399.6
922.6577	1897.3446	11245	10360.9
922.7968	1898.9786	11228.3	10340
922.9359	1900.6118	11185.35	10304.4
923.075	1902.2443	11138.15	10252.5
923.214	1903.8761	11107.45	10223
923.3531	1905.5071	11048.6	10163.25
923.4921	1907.1374	11020.45	10135.9
923.6311	1908.7669	11019.3	10137.75
923.77	1910.3957	11030.7	10148.05
923.909	1912.0237	10938.25	10055.4
924.0479	1913.651	10908.05	10025.5
924.1868	1915.2776	10909.95	10027.1
924.3257	1916.9034	10858.6	9977.85
924.4646	1918.5285	10799.85	9918.25
924.6034	1920.1528	10754	9869.55
924.7422	1921.7764	10749.15	9866.9
924.881	1923.3992	10747.05	9860.2
925.0198	1925.0213	10661.8	9778.35
925.1586	1926.6427	10613.2	9730.3
925.2973	1928.2633	10805.3	9673.4
925.436	1929.8832	10598.95	9712.25
925.5747	1931.5023	10517.25	9635.6
925.7134	1933.1207	10532.7	9650.6
925.852	1934.7383	10469.3	9585.7
925.9906	1936.3552	10431.65	9550.75
926.1292	1937.9714	10465.05	9582.95
926.2678	1939.5868	10386.65	9502.85
926.4064	1941.2015	10335.75	9452.45
926.5449	1942.8154	10319.05	9435.15
926.6834	1944.4286	10275.6	9391.6
926.8219	1946.041	10280.6	9375.45
926.9604	1947.6528	10221.25	9331.3
927.0988	1949.2637	10192.95	9310.65
927.2372	1950.8739	10153.35	9270.05
927.3756	1952.4834	10133.95	9250.65
927.514	1954.0921	10134.6	9252.25
927.6523	1955.7001	10084.75	9199.5
927.7907	1957.3074	10052.75	9170.65
927.929	1958.9139	10009.8	9128.7
928.0673	1960.5197	10003.65	9118.5
928.2055	1962.1247	9953.1	9072.55
928.3438	1963.729	9909.5	9028.75
928.482	1965.3325	9881.05	8975.5
928.6202	1966.9353	9843.25	8963.05
928.7584	1968.5374	9838.35	8956.8
928.8965	1970.1387	9780.5	8897.7
929.0346	1971.7393	9782.45	8899.3
929.1727	1973.3392	9735.05	8852.25
929.3108	1974.9383	9705.95	8824.7
929.4489	1976.5366	9654.5	8772.1
929.5869	1978.1342	9646.1	8763.05
929.7249	1979.7311	9640.65	8758.9
929.8629	1981.3273	9613.3	8732.15
930.0009	1982.9227	9583.6	8702.25
930.1388	1984.5173	9538.95	8656.95
930.2767	1986.1112	9506.35	8625.05
930.4146	1987.7044	9483.65	8604.9
930.5525	1989.2968	9469.65	8588.75
930.6904	1990.8885	9446.55	8560.4
930.8282	1992.4795	9438.45	8556
930.966	1994.0697	9392.8	8510.95
931.1038	1995.6592	9373.85	8493.55
931.2415	1997.2479	9344.65	8464.85
931.3793	1998.8359	9324.35	8442.7
931.517	2000.4232	9288.9	8407.85
931.6547	2002.0097	9271.75	8393.15
931.7923	2003.5955	9206.75	8327.75
931.93	2005.1805	9242.8	8359.95
932.0676	2006.7648	9195.3	8315.45
932.2052	2008.3484	9198.9	8318.85
932.3427	2009.9312	9199.95	8320.55
932.4803	2011.5133	9144.75	8265.3
932.6178	2013.0946	9142.8	8264.35
932.7553	2014.6752	9110.55	8232.05
932.8928	2016.2551	9066.2	8185.9
933.0302	2017.8342	9035.5	8156.45
933.1676	2019.4126	9005.85	8125.95
933.305	2020.9902	8970.85	8090.3
933.4424	2022.5672	8974.65	8094.05
933.5798	2024.1433	8959	8072.75
933.7171	2025.7188	8910.75	8033.6
933.8544	2027.2935	8880.05	7999.95
933.9917	2028.8674	8861.25	7982.8
934.129	2030.4406	8835.2	7957.9
934.2662	2032.0131	8800	7922.15
934.4034	2033.5849	8758.35	7872.2
934.5406	2035.1559	8751.4	7870.7
934.6778	2036.7261	8744.5	7864.05
934.8149	2038.2957	8734.05	7852.05
934.952	2039.8645	8698.75	7820.5
935.0891	2041.4325	8708.65	7825.5
935.2262	2042.9998	8666.1	7787.35
935.3632	2044.5664	8682.4	7799.7
935.5002	2046.1323	8647.2	7771.35
935.6372	2047.6974	8603.35	7722.1
935.7742	2049.2617	8614.6	7736.9
935.9111	2050.8254	8588.5	7703.5
936.048	2052.3883	8574.05	7694.55
936.1849	2053.9504	8553.85	7674.4
936.3218	2055.5118	8521.8	7639.6
936.4586	2057.0725	8473.4	7589.75
936.5955	2058.6325	8465.9	7587.2
936.7323	2060.1917	8438	7557.3
936.869	2061.7502	8440.8	7558.9
937.0058	2063.3079	8397.1	7518.9
937.1425	2064.8649	8374.75	7490.45
937.2792	2066.4212	8368.8	7488.7
937.4159	2067.9767	8335.25	7456.4
937.5525	2069.5315	8319.1	7439.25
937.6891	2071.0856	8273.6	7395.15
937.8257	2072.6389	8250.4	7371
937.9623	2074.1915	8232.8	7356.45
938.0989	2075.7433	8203.85	7320.55
938.2354	2077.2945	8188.9	7308.9
938.3719	2078.8448	8158.35	7277.65
938.5084	2080.3945	8116.4	7235.35
938.6448	2081.9434	8128.4	7248.5
938.7812	2083.4916	8091.5	7209.35
938.9176	2085.039	8081.9	7198.05
939.054	2086.5857	8047.55	7163.75
939.1903	2088.1317	8040.4	7158.15
939.3267	2089.677	8030.8	7147.25
939.463	2091.2215	8002.2	7118.9
939.5992	2092.7652	7983.7	7098.6
939.7355	2094.3083	7974.8	7093.75
939.8717	2095.8506	7951.65	7073.35
940.0079	2097.3921	7956.95	7076.5
940.1441	2098.933	7915.55	7035.85
940.2802	2100.4731	7900.75	7020.55
940.4163	2102.0124	7907.85	7009.5
940.5524	2103.5511	7875.15	6994.65
940.6885	2105.089	7876.85	6994.75
940.8245	2106.6261	7863.1	6982.75
940.9606	2108.1626	7821.15	6940.4
941.0965	2109.6983	7846.45	6934.65
941.2325	2111.2332	7796.4	6916.75
941.3684	2112.7675	7781.9	6899.55
941.5044	2114.301	7768.65	6885.9
941.6403	2115.8337	7751.65	6872.05
941.7761	2117.3657	7746.7	6865.5
941.912	2118.897	7729.6	6846.25
942.0478	2120.4276	7697.3	6808.9
942.1835	2121.9575	7658.8	6775.85
942.3193	2123.4866	7660.8	6764.3
942.455	2125.0149	7645.6	6762.5
942.5907	2126.5426	7596.15	6717.2
942.7264	2128.0695	7592.8	6706.95
942.8621	2129.5956	7571.6	6694.35
942.9977	2131.1211	7553.8	6670.2
943.1333	2132.6458	7539.75	6659.3
943.2689	2134.1698	7521.8	6640.8
943.4044	2135.693	7526.2	6641.4
943.54	2137.2155	7486.65	6603.35
943.6755	2138.7373	7468.7	6587
943.8109	2140.2584	7454.95	6573.45
943.9464	2141.7787	7440.3	6555.45
944.0818	2143.2983	7414.95	6536.7
944.2172	2144.8171	7363.15	6484.75
944.3526	2146.3353	7363.15	6482.5
944.4879	2147.8527	7327.1	6448.75
944.6232	2149.3693	7317.95	6436.8
944.7585	2150.8853	7309.9	6427.15
944.8938	2152.4005	7261.25	6378.45
945.029	2153.9149	7265.05	6381.9
945.1642	2155.4287	7249.65	6367.55
945.2994	2156.9417	7212.3	6329.5
945.4346	2158.454	7198.05	6315.95
945.5697	2159.9655	7193	6312.85
945.7048	2161.4764	7198.4	6318.7
945.8399	2162.9865	7158.9	6278.75
945.9749	2164.4958	7123.9	6243.35
946.1099	2166.0045	7119.65	6236.3
946.2449	2167.5124	7104.6	6224.05
946.3799	2169.0195	7099.25	6218
946.5148	2170.526	7081.4	6199.55
946.6498	2172.0317	7070.85	6188.75
946.7846	2173.5367	7057.65	6176.15
946.9195	2175.0409	7036.3	6156.65
947.0543	2176.5445	7011.55	6129.55
947.1891	2178.0473	6994.45	6112.45
947.3239	2179.5494	6979.55	6095
947.4587	2181.0507	6979.2	6098.75
947.5934	2182.5513	6939.65	6058.2
947.7281	2184.0512	6927.05	6046.05
947.8628	2185.5504	6884.6	6004.05
947.9974	2187.0488	6857.4	5977.45
948.132	2188.5465	6842.75	5963.65
948.2666	2190.0435	6833.35	5950.5
948.4012	2191.5397	6815.7	5932.3
948.5357	2193.0353	6797.85	5918.9
948.6702	2194.5301	6755.65	5871.65
948.8047	2196.0241	6735.4	5852.85
948.9392	2197.5175	6711.8	5828.05
949.0736	2199.0101	6710.9	5825.2
949.208	2200.502	6689.4	5808.6
949.3424	2201.9931	6649.4	5768.9
949.4767	2203.4835	6641.6	5758.15
949.611	2204.9733	6614.05	5729.3
949.7453	2206.4622	6627.35	5746.35
949.8796	2207.9505	6592.2	5709.5
950.0138	2209.438	6553.2	5673.8
950.148	2210.9248	6551.15	5668.15
950.2822	2212.4109	6532.65	5653.7
950.4164	2213.8962	6524.05	5639.85
950.5505	2215.3809	6509.35	5626.05
950.6846	2216.8648	6488.55	5604.5
950.8186	2218.3479	6458.5	5568.65
950.9527	2219.8304	6448.95	5562.8
951.0867	2221.3121	6426	5539.8
951.2207	2222.7931	6400.65	5519.8
951.3546	2224.2733	6383.95	5502.35
951.4886	2225.7529	6368.45	5487.2
951.6225	2227.2317	6346.65	5462.1
951.7563	2228.7098	6329.65	5450.05
951.8902	2230.1872	6311.05	5429.7
952.024	2231.6638	6295.05	5415.05
952.1578	2233.1397	6272.4	5385.3
952.2916	2234.6149	6251.25	5372.35
952.4253	2236.0894	6229.15	5346.5
952.559	2237.5632	6234.9	5343.45
952.6927	2239.0362	6200.9	5319.15
952.8263	2240.5085	6195.1	5313.15
952.9599	2241.9801	6188.25	5307.05
953.0935	2243.4509	6156.75	5276.15
953.2271	2244.921	6124.5	5242.95
953.3606	2246.3904	6111.55	5227.4
953.4941	2247.8591	6075.9	5194.2
953.6276	2249.3271	6074.6	5193.15
953.7611	2250.7943	6040.3	5156.3
953.8945	2252.2608	6039.75	5158.55
954.0279	2253.7266	6033.5	5152.3
954.1612	2255.1917	6027.4	5147.1
954.2946	2256.656	5997.25	5116.1
954.4279	2258.1197	5996.45	5116.1
954.5612	2259.5826	5978.75	5095.05
954.6944	2261.0447	5966.15	5084.8
954.8276	2262.5062	5927.9	5044.75
954.9608	2263.9669	5931.4	5047.75
955.094	2265.4269	5899.8	5018.05
955.2271	2266.8862	5898.65	5017.25
955.3602	2268.3448	5895.45	5013.35
955.4933	2269.8026	5872.4	4989.2
955.6264	2271.2598	5868.1	4987.85
955.7594	2272.7162	5827.6	4946.5
955.8924	2274.1719	5822.65	4939.55
956.0253	2275.6268	5830.95	4946.8
956.1583	2277.0811	5812.95	4930.1
956.2912	2278.5346	5798.35	4917.25
956.4241	2279.9874	5772.45	4893.05
956.5569	2281.4395	5772.35	4892.05
956.6897	2282.8908	5749.2	4862.4
956.8225	2284.3414	5738.3	4855.9
956.9553	2285.7914	5716.45	4834.75
957.088	2287.2406	5710.8	4826.2
957.2207	2288.689	5689.7	4806.1
957.3534	2290.1368	5680.95	4797.15
957.486	2291.5838	5651.05	4766.8
957.6186	2293.0302	5646.75	4761.25
957.7512	2294.4758	5615.6	4733.15
957.8838	2295.9206	5596.6	4712.15
958.0163	2297.3648	5591.35	4709.3
958.1488	2298.8082	5585.65	4703.2
958.2813	2300.251	5580.1	4697.3
958.4137	2301.693	5533.55	4651.2
958.5461	2303.1343	5520.45	4638.4
958.6785	2304.5748	5521.55	4638.1
958.8108	2306.0147	5499.95	4618.3
958.9432	2307.4538	5506.7	4622.95
959.0754	2308.8922	5482.35	4604.5
959.2077	2310.3299	5461.6	4579.4
959.3399	2311.7669	5449.1	4565.8
959.4721	2313.2031	5422.3	4543.65
959.6043	2314.6387	5410.6	4528.55
959.7365	2316.0735	5392.05	4511.1
959.8686	2317.5076	5393	4510.6
960.0006	2318.941	5374.6	4491.4
960.1327	2320.3737	5371.15	4487.75
960.2647	2321.8056	5344.3	4462.35
960.3967	2323.2369	5331.7	4448.85
960.5287	2324.6674	5326.8	4441.85
960.6606	2326.0972	5314	4427.95
960.7925	2327.5263	5284.8	4403.6
960.9244	2328.9547	5274.05	4390.15
961.0562	2330.3823	5263.7	4381.2
961.1881	2331.8092	5241.15	4354.25
961.3198	2333.2355	5225.95	4345.05
961.4516	2334.661	5210.95	4324.5
961.5833	2336.0858	5208.4	4322.35
961.715	2337.5098	5201.2	4318.05
961.8467	2338.9332	5193	4310.6
961.9783	2340.3558	5188.2	4301.45
962.1099	2341.7778	5145.45	4262.8
962.2415	2343.199	5127.85	4243.05
962.373	2344.6195	5115.1	4233.95
962.5045	2346.0393	5106.6	4224.2
962.636	2347.4583	5091.05	4205.6
962.7675	2348.8767	5079.45	4197.95
962.8989	2350.2943	5083.9	4199.5
963.0303	2351.7113	5054.9	4172.6
963.1617	2353.1275	5046	4162.3
963.293	2354.543	5047.2	4154.5
963.4243	2355.9578	5029.7	4145.6
963.5556	2357.3718	4973.95	4091.75
963.6868	2358.7852	4969.75	4084.4
963.818	2360.1978	4959.55	4076.6
963.9492	2361.6098	4935.5	4054.4
964.0803	2363.021	4922.65	4035.6
964.2114	2364.4315	4906.55	4024.25
964.3425	2365.8413	4904.5	4020.8
964.4736	2367.2504	4886.75	4006.1
964.6046	2368.6587	4852.5	3973.1
964.7356	2370.0664	4833.7	3951.55
964.8666	2371.4733	4818.85	3935.2
964.9975	2372.8795	4794.95	3912.4
965.1284	2374.285	4796.95	3915.2
965.2593	2375.6899	4778.4	3894.95
965.3901	2377.0939	4745.9	3863.45
965.5209	2378.4973	4738.65	3855.1
965.6517	2379.9	4728.75	3846.95
965.7825	2381.3019	4704.65	3822.4
965.9132	2382.7032	4682.45	3800
966.0439	2384.1037	4675.85	3796.45
966.1745	2385.5035	4671.5	3789.75
966.3051	2386.9027	4646.8	3765.75
966.4357	2388.3011	4641.2	3755.6
966.5663	2389.6987	4622.55	3740.55
966.6968	2391.0957	4609	3728.3
966.8273	2392.492	4583.3	3701.1
966.9578	2393.8876	4567.1	3685.95
967.0882	2395.2824	4547.4	3665.35
967.2186	2396.6765	4537.25	3656.45
967.349	2398.07	4534.55	3652.25
967.4793	2399.4627	4520.05	3636.45
967.6097	2400.8547	4496.4	3612.75
967.7399	2402.246	4494.95	3605.7
967.8702	2403.6366	4459.1	3575.45
968.0004	2405.0265	4451.85	3571.3
968.1306	2406.4156	4458.75	3571.35
968.2607	2407.8041	4422.45	3535.4
968.3909	2409.1918	4401.4	3518.1
968.521	2410.5789	4388.65	3506.6
968.651	2411.9652	4382.55	3496.9
968.781	2413.3508	4373.5	3489.85
968.911	2414.7358	4351.5	3466.4
969.041	2416.12	4341.5	3458.5
969.1709	2417.5035	4331.15	3450.4
969.3008	2418.8863	4316.45	3433.55
969.4307	2420.2684	4294.35	3411.7
969.5606	2421.6497	4284	3400.15
969.6904	2423.0304	4259.75	3378.35
969.8201	2424.4104	4236.1	3353.3
969.9499	2425.7896	4262.3	3377.5
970.0796	2427.1682	4242.95	3359.05
970.2093	2428.546	4232.05	3347.95
970.3389	2429.9232	4212.65	3328.75
970.4685	2431.2996	4189.4	3307.5
970.5981	2432.6753	4197.55	3314.95
970.7277	2434.0503	4192.25	3310.25
970.8572	2435.4246	4155.75	3271.75
970.9867	2436.7982	4161.8	3277.5
971.1161	2438.1711	4155.9	3273.1
971.2456	2439.5433	4147.45	3263.95
971.375	2440.9148	4128.9	3238.4
971.5043	2442.2856	4111.45	3228.7
971.6336	2443.6557	4094.95	3209.8
971.7629	2445.025	4080.9	3198.1
971.8922	2446.3937	4080.2	3197.95
972.0214	2447.7617	4076.1	3194.25
972.1506	2449.1289	4067.4	3186.1
972.2798	2450.4955	4056.9	3171.25
972.4089	2451.8613	4049.55	3168.55
972.538	2453.2265	4027.2	3145.45
972.6671	2454.5909	4028.5	3145.8
972.7961	2455.9546	4023.35	3139.85
972.9251	2457.3177	4007.8	3124.95
973.0541	2458.68	3996.7	3112.9
973.1831	2460.0416	4004.15	3122.1
973.312	2461.4025	4002.25	3117.75
973.4408	2462.7627	3993.05	3099.75
973.5697	2464.1222	3977.95	3095.05
973.6985	2465.4811	3963.3	3080.05
973.8273	2466.8392	3948.1	3066.5
973.956	2468.1966	3939.25	3054.95
974.0847	2469.5533	3936.3	3049.55
974.2134	2470.9093	3922.55	3040.25
974.3421	2472.2645	3908.25	3024.2
974.4707	2473.6191	3898.2	3015.35
974.5993	2474.973	3887.15	3004.85
974.7278	2476.3262	3876.05	2992.5
974.8563	2477.6787	3860.4	2977.85
974.9848	2479.0305	3850.25	2967.65
975.1132	2480.3816	3836.75	2953.05
975.2417	2481.7319	3823.85	2941.25
975.37	2483.0816	3810.2	2926.25
975.4984	2484.4306	3800.75	2918.2
975.6267	2485.7789	3794.4	2912.65
975.755	2487.1264	3773.65	2889.65
975.8833	2488.4733	3770.1	2890
976.0115	2489.8195	3776.5	2888.5
976.1397	2491.165	3752.4	2866.55
976.2678	2492.5097	3737.45	2855.25
976.3959	2493.8538	3724.75	2841.05
976.524	2495.1972	3707.5	2825
976.6521	2496.5398	3705.75	2822.45
976.7801	2497.8818	3708.65	2825
976.9081	2499.2231	3681.7	2797.7
977.036	2500.5637	3677.25	2792
977.164	2501.9035	3669.9	2787.75
977.2918	2503.2427	3657.3	2768.95
977.4197	2504.5812	3650	2768.8
977.5475	2505.919	3644.2	2758.5
977.6753	2507.256	3628.2	2744.35
977.8031	2508.5924	3622.65	2739.65
977.9308	2509.9281	3605.55	2717.2
978.0585	2511.2631	3590	2709.15
978.1861	2512.5974	3594.6	2711.05
978.3137	2513.9309	3582	2699.15
978.4413	2515.2638	3607.3	2694
978.5689	2516.596	3569.6	2687.7
978.6964	2517.9275	3550	2666.95
978.8239	2519.2583	3534.2	2650.85
978.9513	2520.5884	3539.05	2654.85
979.0788	2521.9178	3502.55	2620.35
979.2062	2523.2465	3516.9	2635.9
979.3335	2524.5745	3498.25	2617.4
979.4608	2525.9018	3491.25	2608.4
979.5881	2527.2284	3481.9	2600.6
979.7154	2528.5543	3469.9	2588.85
979.8426	2529.8796	3464.65	2581.3
979.9698	2531.2041	3447.95	2566.45
980.0969	2532.5279	3456.25	2573.95
980.224	2533.851	3450.7	2568.4
980.3511	2535.1735	3435.35	2554.55
980.4781	2536.4952	3425.3	2543
980.6052	2537.8163	3428	2543.55
980.7321	2539.1366	3401.1	2520.85
980.8591	2540.4562	3395.55	2509.8
980.986	2541.7752	3410.85	2529.8
981.1129	2543.0935	3403.05	2517.9
981.2397	2544.411	3389.25	2506.35
981.3665	2545.7279	3382.5	2501.7
981.4933	2547.0441	3387.35	2504.2
981.62	2548.3596	3385.2	2499.65
981.7467	2549.6744	3349.3	2466.3
981.8734	2550.9885	3357.3	2466.3
982.0001	2552.3019	3354.65	2474.15
982.1267	2553.6146	3346.1	2463.15
982.2532	2554.9266	3335.9	2453.5
982.3798	2556.2379	3316.65	2430.85
982.5063	2557.5485	3314.65	2432.35
982.6327	2558.8585	3320.25	2432.15
982.7592	2560.1677	3295.1	2406.9
982.8856	2561.4762	3304.1	2420.5
983.0119	2562.7841	3300.9	2415.35
983.1383	2564.0913	3285.4	2403.95
983.2646	2565.3977	3283.75	2403.1
983.3908	2566.7035	3273.1	2389.85
983.517	2568.0086	3274	2389.6
983.6432	2569.313	3274.5	2393.1
983.7694	2570.6167	3260.95	2373.45
983.8955	2571.9197	3258.25	2377.45
984.0216	2573.222	3249.5	2363.25
984.1476	2574.5236	3233.55	2350.65
984.2737	2575.8246	3226.75	2340.85
984.3996	2577.1248	3231.15	2345.9
984.5256	2578.4244	3232.7	2351.65
984.6515	2579.7232	3229.35	2346.65
984.7774	2581.0214	3231.9	2324.9
984.9032	2582.3189	3196.3	2314
985.029	2583.6157	3202.4	2313.75
985.1548	2584.9118	3202.25	2319.4
985.2806	2586.2072	3187.5	2304.6
985.4063	2587.5019	3184.15	2300.3
985.5319	2588.7959	3170.15	2286.8
985.6576	2590.0893	3165.25	2280.95
985.7832	2591.3819	3152.5	2270
985.9087	2592.6739	3141.45	2261.3
986.0343	2593.9652	3132.85	2247
986.1597	2595.2557	3125.45	2243.55
986.2852	2596.5456	3129.6	2244.5
986.4106	2597.8348	3112.25	2230.7
986.536	2599.1234	3099.55	2218.6
986.6614	2600.4112	3083.45	2198.4
986.7867	2601.6983	3088.8	2204.35
986.912	2602.9848	3084.45	2202.95
987.0372	2604.2705	3051.9	2164.15
987.1624	2605.5556	3045.8	2164.35
987.2876	2606.84	3046.1	2162.15
987.4128	2608.1237	3038.05	2156
987.5379	2609.4067	3028.35	2146.45
987.6629	2610.689	3029.85	2139.2
987.788	2611.9707	3012.2	2126.85
987.913	2613.2516	3001.5	2113.65
988.0379	2614.5319	2995	2114.45
988.1629	2615.8115	2988.35	2104.65
988.2878	2617.0903	2971.25	2086.15
988.4126	2618.3685	2963.75	2081
988.5375	2619.6461	2958.45	2075.55
988.6622	2620.9229	2960.9	2079.95
988.787	2622.199	2946.9	2064.85
988.9117	2623.4745	2948.2	2065.75
989.0364	2624.7493	2933.75	2052.1
989.161	2626.0234	2915.45	2035.85
989.2857	2627.2968	2912.55	2028.35
989.4102	2628.5695	2902.1	2018.15
989.5348	2629.8415	2896.35	2014.4
989.6593	2631.1128	2878.75	1995.65
989.7837	2632.3835	2875.8	1996
989.9082	2633.6535	2869.55	1988.6
990.0326	2634.9228	2863.75	1983.95
990.1569	2636.1914	2855.65	1974.65
990.2812	2637.4593	2852.95	1966.05
990.4055	2638.7265	2843.95	1962.3
990.5298	2639.9931	2829.55	1947.25
990.654	2641.259	2825.35	1942.05
990.7782	2642.5242	2828.4	1944.2
990.9023	2643.7887	2803.8	1922.7
991.0264	2645.0525	2809.75	1928
991.1505	2646.3156	2801.85	1917.55
991.2745	2647.5781	2791.2	1910.7
991.3985	2648.8398	2772.95	1890.45
991.5225	2650.1009	2781.1	1891.45
991.6464	2651.3613	2771.6	1889.4
991.7703	2652.6211	2767.15	1884.2
991.8942	2653.8801	2765.2	1884.2
992.018	2655.1385	2762.2	1876.15
992.1418	2656.3961	2739	1857.4
992.2655	2657.6531	2733.5	1848.65
992.3892	2658.9094	2733.95	1850.5
992.5129	2660.1651	2738.35	1857.9
992.6366	2661.42	2726.65	1842.8
992.7602	2662.6743	2725.15	1844.05
992.8837	2663.9279	2717.9	1837.65
993.0073	2665.1808	2701.3	1817.1
993.1307	2666.433	2701.35	1819.05
993.2542	2667.6846	2699.2	1818.2
993.3776	2668.9354	2690.4	1804.25
993.501	2670.1856	2681.2	1798.65
993.6244	2671.4351	2685.7	1805.65
993.7477	2672.6839	2686.55	1802.45
993.8709	2673.9321	2677.05	1795.5
993.9942	2675.1795	2658.3	1775.1
994.1174	2676.4263	2659.4	1776.4
994.2405	2677.6724	2647.3	1766.55
994.3637	2678.9179	2640.3	1756.9
994.4868	2680.1626	2642.45	1761.1
994.6098	2681.4067	2632.1	1748.4
994.7328	2682.6501	2627.05	1746.5
994.8558	2683.8928	2605.9	1723.95
994.9788	2685.1348	2608.6	1726.7
995.1017	2686.3761	2589.45	1706.5
995.2245	2687.6168	2609.05	1728.45
995.3474	2688.8568	2585.9	1704.1
995.4702	2690.0961	2588.6	1709
995.5929	2691.3348	2574.65	1691.9
995.7156	2692.5727	2588.7	1707.3
995.8383	2693.81	2561.2	1678.45
995.961	2695.0466	2559.55	1679.8
996.0836	2696.2826	2557.35	1671.85
996.2062	2697.5178	2576.5	1675.1
996.3287	2698.7524	2549.2	1666.1
996.4512	2699.9863	2551.95	1669
996.5737	2701.2195	2533.35	1653.85
996.6961	2702.452	2534.15	1651.35
996.8185	2703.6839	2517.35	1634.2
996.9408	2704.9151	2507.45	1628.25
997.0631	2706.1456	2508.8	1626
997.1854	2707.3755	2499.75	1618.5
997.3077	2708.6046	2492.15	1610.05
997.4299	2709.8331	2487.25	1606.45
997.552	2711.0609	2488.9	1605.2
997.6742	2712.2881	2478	1596.15
997.7963	2713.5145	2464	1580.65
997.9183	2714.7403	2468.05	1587
998.0403	2715.9654	2470.85	1589.4
998.1623	2717.1899	2470.95	1572.15
998.2842	2718.4136	2455.65	1574.15
998.4062	2719.6367	2451.05	1569.65
998.528	2720.8591	2451.4	1563.1
998.6498	2722.0809	2436	1554.4
998.7716	2723.3019	2419.45	1536.55
998.8934	2724.5223	2427.5	1544.5
999.0151	2725.7421	2425.4	1542
999.1368	2726.9611	2424.7	1541.15
999.2584	2728.1795	2413	1527.45
999.38	2729.3972	2405.45	1524.05
999.5016	2730.6142	2414.35	1519.95
999.6231	2731.8306	2393.2	1510.05
999.7446	2733.0462	2384.25	1500.05
999.8661	2734.2612	2371.7	1487.25
999.9875	2735.4756	2374.85	1491.8
1000.1089	2736.6892	2353.4	1469.45
1000.2302	2737.9022	2331.75	1454.4
1000.3515	2739.1145	2338.2	1455.8
1000.4728	2740.3262	2347.8	1459.45
1000.594	2741.5372	2316.1	1436.55
1000.7152	2742.7475	2315.3	1433.35
1000.8363	2743.9571	2315.5	1433.9
1000.9575	2745.1661	2313.05	1426.3
1001.0785	2746.3744	2305	1424.4
1001.1996	2747.582	2293.25	1412.45
1001.3206	2748.7889	2293.85	1409.45
1001.4415	2749.9952	2289	1408.4
1001.5625	2751.2008	2285.5	1402.2
1001.6833	2752.4057	2274.95	1391.25
1001.8042	2753.61	2268.7	1384.5
1001.925	2754.8136	2266	1381.55
1002.0458	2756.0165	2260.6	1380.6
1002.1665	2757.2188	2246.3	1365.5
1002.2872	2758.4204	2254.15	1372.15
1002.4078	2759.6213	2242.65	1356.45
1002.5285	2760.8215	2240.6	1353.3
1002.649	2762.0211	2229.5	1345.1
1002.7696	2763.22	2217.85	1332.1
1002.8901	2764.4182	2225.25	1342.5
1003.0106	2765.6158	2212.35	1330.85
1003.131	2766.8127	2205.55	1322.35
1003.2514	2768.009	2206.8	1327.7
1003.3717	2769.2045	2202.75	1320.4
1003.492	2770.3994	2199.2	1315.2
1003.6123	2771.5936	2184.25	1303.7
1003.7325	2772.7872	2181.05	1299.45
1003.8527	2773.9801	2181	1299.85
1003.9729	2775.1723	2186.85	1287.6
1004.093	2776.3639	2173.9	1292.85
1004.2131	2777.5548	2168.4	1283.5
1004.3331	2778.745	2164.2	1283.35
1004.4531	2779.9346	2158.35	1275.8
1004.5731	2781.1235	2151.7	1268.8
1004.693	2782.3117	2144.9	1264.95
1004.8129	2783.4992	2140.55	1260.45
1004.9328	2784.6861	2134	1251.9
1005.0526	2785.8723	2135.4	1251.55
1005.1723	2787.0579	2129.4	1249.95
1005.2921	2788.2428	2123.3	1241.5
1005.4118	2789.427	2104.85	1225.3
1005.5314	2790.6106	2108.9	1228.5
1005.651	2791.7935	2105.2	1221.5
1005.7706	2792.9757	2103.55	1221.85
1005.8902	2794.1573	2095.4	1213.25
1006.0097	2795.3382	2092.85	1214.3
1006.1291	2796.5184	2078.05	1196.95
1006.2485	2797.698	2083.4	1200.55
1006.3679	2798.8769	2078.25	1196.6
1006.4873	2800.0551	2074.6	1193.6
1006.6066	2801.2327	2076.15	1190.75
1006.7258	2802.4096	2064.7	1183.4
1006.8451	2803.5859	2056.2	1175.95
1006.9642	2804.7615	2055.05	1173.75
1007.0834	2805.9364	2064.1	1183.35
1007.2025	2807.1106	2041.75	1164.05
1007.3216	2808.2842	2049.9	1166.9
1007.4406	2809.4572	2043.05	1163
1007.5596	2810.6294	2047.9	1166.1
1007.6785	2811.801	2058.45	1178.1
1007.7975	2812.972	2056.5	1176.4
1007.9163	2814.1423	2057.5	1178.1
1008.0352	2815.3119	2045.25	1165.8
1008.154	2816.4808	2052.1	1172.85
1008.2727	2817.6491	2071	1187.65
1008.3914	2818.8167	2049.75	1171.75
1008.5101	2819.9837	2051.8	1164.65
1008.6288	2821.15	2051.9	1171.25
1008.7474	2822.3157	2051.6	1170.55
1008.8659	2823.4807	2075.85	1194.05
1008.9844	2824.645	2081.9	1201.1
1009.1029	2825.8086	2067.35	1187.45
1009.2214	2826.9716	2085.8	1207.15
1009.3398	2828.134	2092.2	1212.65
1009.4581	2829.2957	2110.85	1230.05
1009.5764	2830.4567	2097.4	1219.2
1009.6947	2831.617	2098.9	1217.35
1009.813	2832.7767	2101.7	1222.25
1009.9312	2833.9358	2095.05	1216.3
1010.0493	2835.0941	2090.4	1206.7
1010.1675	2836.2519	2089.2	1211.35
1010.2855	2837.4089	2080.5	1197.85
1010.4036	2838.5653	2072.3	1191.2
1010.5216	2839.7211	2068.6	1190.6
1010.6396	2840.8761	2060.45	1177.8
1010.7575	2842.0306	2059.35	1177.9
1010.8754	2843.1843	2064.15	1185
1010.9932	2844.3374	2060.55	1178.55
1011.111	2845.4899	2059.8	1178.65
1011.2288	2846.6417	2064.95	1184.75
1011.3465	2847.7928	2067.7	1188.1
1011.4642	2848.9433	2071.25	1191.25
1011.5818	2850.0931	2080.9	1200.4
1011.6995	2851.2422	2082.1	1200.25
1011.817	2852.3907	2081.8	1202.75
1011.9345	2853.5385	2076.5	1194.65
1012.052	2854.6857	2092.25	1201.1
1012.1695	2855.8323	2094.05	1213.05
1012.2869	2856.9781	2081.25	1201.15
1012.4042	2858.1233	2086.7	1207
1012.5216	2859.2679	2088.55	1207.4
1012.6389	2860.4118	2092.6	1213.6
1012.7561	2861.555	2091.7	1206.3
1012.8733	2862.6976	2101.95	1221.9
1012.9905	2863.8395	2099.3	1218.95
1013.1076	2864.9808	2093.45	1211.7
1013.2247	2866.1214	2090.5	1211.35
1013.3417	2867.2614	2099.65	1218.15
1013.4587	2868.4007	2090.05	1209
1013.5757	2869.5393	2102.75	1220.65
1013.6926	2870.6773	2083.6	1200.05
1013.8095	2871.8146	2091.15	1206.75
1013.9263	2872.9513	2095.5	1212.75
1014.0431	2874.0874	2072.75	1193.45
1014.1599	2875.2227	2059.3	1178.05
1014.2766	2876.3574	2067.2	1185.45
1014.3933	2877.4915	2061.9	1184
1014.51	2878.6249	2049.25	1170.65
1014.6266	2879.7577	2053.2	1171.95
1014.7431	2880.8898	2060.2	1170.8
1014.8596	2882.0212	2047	1167.75
1014.9761	2883.152	2031.8	1152.3
1015.0925	2884.2821	2025.8	1146.4
1015.2089	2885.4116	2036.45	1155.35
1015.3253	2886.5405	2025.9	1147.85
1015.4416	2887.6686	2023.1	1138.65
1015.5579	2888.7962	2026.15	1147.85
1015.6741	2889.923	2023.4	1143.05
1015.7903	2891.0493	2020.6	1140.25
1015.9065	2892.1748	2019.75	1139.65
1016.0226	2893.2997	2020	1139
1016.1387	2894.424	2015.8	1136.1
1016.2547	2895.5476	2006.55	1124.35
1016.3707	2896.6706	2007.65	1130.4
1016.4866	2897.7929	2001.7	1120.95
1016.6025	2898.9145	2010.95	1128.1
1016.7184	2900.0355	2004.6	1122.8
1016.8342	2901.1559	2003.6	1122.55
1016.95	2902.2756	1996.2	1118.1
1017.0658	2903.3946	1992.75	1115.75
1017.1815	2904.513	2002.1	1119.2
1017.2971	2905.6308	2003.6	1123.75
1017.4127	2906.7479	1986.4	1105.7
1017.5283	2907.8643	1993.4	1112.05
1017.6439	2908.9801	1981.8	1100.15
1017.7594	2910.0953	1981	1100.6
1017.8748	2911.2098	1989.3	1108.15
1017.9902	2912.3236	1984.45	1095.85
1018.1056	2913.4368	1964.95	1083.9
1018.2209	2914.5494	1966.4	1087.15
1018.3362	2915.6613	1960.4	1073.5
1018.4515	2916.7725	1955.15	1073.25
1018.5667	2917.8831	1953.2	1074.55
1018.6819	2918.9931	1938.6	1056.15
1018.797	2920.1024	1931.35	1050.45
1018.9121	2921.211	1927.05	1045.85
1019.0271	2922.319	1925.7	1046.4
1019.1421	2923.4264	1918.3	1039.8
1019.2571	2924.5331	1911.65	1033.15
1019.372	2925.6391	1911.3	1032.05
1019.4869	2926.7445	1900.7	1023.2
1019.6017	2927.8493	1908.75	1026.55
1019.7165	2928.9534	1909.35	1029.45
1019.8313	2930.0569	1902.25	1017.75
1019.946	2931.1597	1890.9	1010.35
1020.0606	2932.2619	1894	1013.1
1020.1753	2933.3634	1900.35	1020.4
1020.2899	2934.4643	1895.9	1009.9
1020.4044	2935.5645	1896.35	1011.3
1020.5189	2936.6641	1883.25	1000.3
1020.6334	2937.763	1874.85	993.2
1020.7478	2938.8613	1877.9	996.35
1020.8622	2939.959	1866.75	982.2
1020.9765	2941.056	1850.25	971.55
1021.0908	2942.1523	1834.05	954.1
1021.2051	2943.248	1831.9	952.4
1021.3193	2944.3431	1807.65	928.3
1021.4334	2945.4375	1796.5	916.2
1021.5476	2946.5313	1788.95	911.85
1021.6617	2947.6244	1763.85	882.25
1021.7757	2948.7169	1752.35	869.35
1021.8897	2949.8087	1738.2	857.8
1022.0037	2950.8999	1720.9	842.85
1022.1176	2951.9904	1711.85	832.7
1022.2315	2953.0803	1689.25	810.65
1022.3453	2954.1696	1687.1	807.95
1022.4591	2955.2582	1680.55	802.55
1022.5728	2956.3462	1670	791.5
1022.6865	2957.4335	1670.1	788.95
1022.8002	2958.5202	1657.85	775.35
1022.9138	2959.6062	1647.65	767.95
1023.0274	2960.6916	1642.3	764.1
1023.141	2961.7764	1644.1	764.65
1023.2545	2962.8605	1627.75	747.8
1023.3679	2963.9439	1633.4	755.15
1023.4813	2965.0267	1630.25	749.2
1023.5947	2966.1089	1644.35	740
1023.708	2967.1905	1618.6	738.75
1023.8213	2968.2714	1613.95	736.2
1023.9346	2969.3516	1610.15	731.15
1024.0478	2970.4312	1613.55	725.8
1024.1609	2971.5102	1610.05	731.55
1024.274	2972.5885	1604.7	724.75
1024.3871	2973.6662	1606.15	721.25
1024.5002	2974.7432	1597.35	719.75
1024.6132	2975.8196	1595.05	717.6
1024.7261	2976.8954	1593.7	715.25
1024.839	2977.9705	1595.6	715.2
1024.9519	2979.045	1589.55	709.75
1025.0647	2980.1188	1584.2	704.55
1025.1775	2981.192	1587	709.75
1025.2902	2982.2645	1577.5	695.8
1025.4029	2983.3364	1578.5	700.75
1025.5156	2984.4077	1554.65	675
1025.6282	2985.4783	1557.9	674.35
1025.7407	2986.5483	1544	666.85
1025.8532	2987.6177	1548.05	669.05
1025.9657	2988.6864	1538.05	657.85
1026.0782	2989.7545	1534.8	652.1
1026.1906	2990.8219	1530.55	651.45
1026.3029	2991.8887	1519.3	638.05
1026.4152	2992.9548	1511.5	631.65
1026.5275	2994.0204	1504.15	625.75
1026.6397	2995.0852	1491.25	611.6
1026.7519	2996.1495	1499.1	619.3
1026.864	2997.2131	1486.15	607.1
1026.9761	2998.276	1484.5	606.25
1027.0882	2999.3383	1477.55	597.95
1027.2002	3000.4	1463.95	582.1
1027.3122	3001.4611	1466.55	586.7
1027.4241	3002.5215	1467.2	588.1
1027.536	3003.5812	1457.6	576.55
1027.6478	3004.6404	1455.85	576.45
1027.7596	3005.6989	1453.9	574.75
1027.8714	3006.7567	1443.5	564.2
1027.9831	3007.8139	1464.4	562.75
1028.0947	3008.8705	1444	564.15
1028.2064	3009.9264	1444.7	561.9
1028.3179	3010.9818	1431.35	552.15
1028.4295	3012.0364	1426.85	546.25
1028.541	3013.0905	1435.25	555.7
1028.6524	3014.1439	1426.55	547.95
1028.7638	3015.1966	1430.5	551.8
1028.8752	3016.2487	1415.05	536.7
1028.9865	3017.3002	1420.55	538.05
1029.0978	3018.3511	1420.7	543.8
1029.209	3019.4013	1413.85	534.4
1029.3202	3020.4509	1414.55	535.35
1029.4314	3021.4998	1408.3	530.3
1029.5425	3022.5481	1405.6	525.85
1029.6535	3023.5958	1399.4	519.65
1029.7645	3024.6428	1404.45	525.4
1029.8755	3025.6892	1397.45	518.5
1029.9864	3026.735	1397.45	518.3
1030.0973	3027.7802	1389.7	509.6
1030.2082	3028.8247	1389.3	509.8
1030.319	3029.8685	1390.25	512
1030.4297	3030.9118	1386.6	507.25
1030.5404	3031.9544	1380.55	503.1
1030.6511	3032.9963	1384.45	506.2
1030.7617	3034.0376	1378.1	499.7
1030.8723	3035.0783	1377.65	497.15
1030.9829	3036.1184	1382.35	503.1
1031.0934	3037.1578	1372.85	494.2
1031.2038	3038.1966	1372.25	492.2
1031.3142	3039.2348	1374.05	495.3
1031.4246	3040.2723	1374.55	487.7
1031.5349	3041.3092	1367.5	490.15
1031.6452	3042.3455	1369	490.6
1031.7554	3043.3811	1368.55	490.1
1031.8656	3044.4161	1361.65	482.5
1031.9758	3045.4505	1355.95	477.9
1032.0859	3046.4842	1355.5	474.3
1032.1959	3047.5173	1356.65	478.4
1032.3059	3048.5498	1352.1	471.75
1032.4159	3049.5816	1358.9	478.95
1032.5258	3050.6128	1352	471.75
1032.6357	3051.6434	1348.9	468.6
1032.7455	3052.6734	1349.8	471.05
1032.8553	3053.7027	1345.35	465.55
1032.9651	3054.7314	1348.6	470.7
1033.0748	3055.7594	1341.15	461.9
1033.1845	3056.7868	1346.8	465.15
1033.2941	3057.8136	1335.85	457.55
1033.4037	3058.8398	1332.9	453.95
1033.5132	3059.8653	1331.85	452.95
1033.6227	3060.8902	1328.8	451.3
1033.7321	3061.9145	1330.6	451.5
1033.8415	3062.9381	1323.4	445
1033.9509	3063.9612	1342.8	448.45
1034.0602	3064.9835	1321	441.95
1034.1694	3066.0053	1324.35	444.65
1034.2787	3067.0264	1321.85	441.45
1034.3878	3068.0469	1323.75	441.95
1034.497	3069.0668	1318.25	435.65
1034.6061	3070.086	1316.3	439.35
1034.7151	3071.1046	1307.05	428.3
1034.8241	3072.1226	1310.65	430.45
1034.9331	3073.1399	1310	430.5
1035.042	3074.1567	1306.55	427.1
1035.1508	3075.1727	1305.05	424.35
1035.2597	3076.1882	1299.8	421.15
1035.3684	3077.203	1301.95	421.9
1035.4772	3078.2173	1299.1	419.65
1035.5859	3079.2308	1294.8	408.55
1035.6945	3080.2438	1291.65	408.35
1035.8031	3081.2561	1288.7	409.55
1035.9117	3082.2678	1284.9	404.45
1036.0202	3083.2789	1281.4	402
1036.1286	3084.2893	1283.65	403.3
1036.2371	3085.2991	1278.7	398.85
1036.3454	3086.3083	1284.65	403.65
1036.4538	3087.3169	1283.15	402.25
1036.562	3088.3248	1275.1	393.7
1036.6703	3089.3321	1269.15	386.15
1036.7785	3090.3388	1270	390.8
1036.8866	3091.3449	1268.55	390.1
1036.9948	3092.3503	1265.95	382.5
1037.1028	3093.3551	1265.2	389.65
1037.2108	3094.3593	1257.05	379.2
1037.3188	3095.3629	1256.65	376.4
1037.4267	3096.3658	1256.55	376.75
1037.5346	3097.3681	1258.8	380.8
1037.6425	3098.3698	1251.8	372.9
1037.7503	3099.3708	1255.2	371.55
1037.858	3100.3713	1246.7	367.45
1037.9657	3101.3711	1247	366.7
1038.0734	3102.3702	1379.35	362.6
1038.181	3103.3688	1243.55	361.25
1038.2886	3104.3667	1235.55	358.4
1038.3961	3105.364	1232.8	354.05
1038.5036	3106.3607	1231.6	352.95
1038.611	3107.3568	1240	359.7
1038.7184	3108.3522	1228.35	350.3
1038.8257	3109.347	1227.7	348.05
1038.933	3110.3412	1225.35	340.45
1039.0403	3111.3348	1224.95	345
1039.1475	3112.3277	1222.1	343.4
1039.2547	3113.32	1222.55	344.55
1039.3618	3114.3117	1218.3	339.4
1039.4689	3115.3028	1216.35	336.85
1039.5759	3116.2932	1216.6	335.65
1039.6829	3117.2831	1211.15	327.05
1039.7898	3118.2723	1210.15	329.75
1039.8967	3119.2608	1206.2	327.65
1040.0035	3120.2488	1206.7	326.8
1040.1103	3121.2361	1208.7	329.1
1040.2171	3122.2229	1201.95	323
1040.3238	3123.209	1205.95	326.3
1040.4305	3124.1944	1197.45	317.35
1040.5371	3125.1793	1202.2	320.9
1040.6437	3126.1635	1195.35	317
1040.7502	3127.1471	1195.65	318.4
1040.8567	3128.1301	1188.45	309.5
1040.9631	3129.1125	1189.95	310.7
1041.0695	3130.0942	1191.5	309.45
1041.1759	3131.0753	1196.15	308.9
1041.2822	3132.0558	1189	308.35
1041.3884	3133.0357	1184.85	306.7
1041.4946	3134.015	1180.2	301.5
1041.6008	3134.9936	1182.5	301.75
1041.7069	3135.9716	1206.8	308.4
1041.813	3136.949	1180.05	301.6
1041.919	3137.9258	1188.6	302.25
1042.025	3138.902	1187.4	305.6
1042.1309	3139.8775	1173.35	294.8
1042.2368	3140.8524	1174.35	297.2
1042.3427	3141.8267	1174.5	296.1
1042.4485	3142.8004	1171.6	291.25
1042.5542	3143.7735	1177.25	293.7
1042.6599	3144.7459	1170.85	288.45
1042.7656	3145.7178	1170.3	289.35
1042.8712	3146.689	1166.45	287.45
1042.9768	3147.6596	1166.65	285.4
1043.0823	3148.6295	1164.45	284.75
1043.1878	3149.5989	1166	288.15
1043.2932	3150.5676	1159.8	282.35
1043.3986	3151.5357	1161.45	283.95
1043.5039	3152.5032	1157.4	278.35
1043.6092	3153.4701	1159.7	281.75
1043.7145	3154.4364	1155	273.6
1043.8197	3155.402	1155.8	278.5
1043.9248	3156.367	1159.15	278.35
1044.03	3157.3315	1187.4	268.6
1044.135	3158.2952	1151.75	271.2
1044.24	3159.2584	1145.45	267.75
1044.345	3160.221	1146.2	265.95
1044.4499	3161.1829	1144.4	266.7
1044.5548	3162.1442	1140.25	262.05
1044.6596	3163.105	1139.15	261.4
1044.7644	3164.065	1133.05	252.85
1044.8692	3165.0245	1137.95	255.75
1044.9739	3165.9834	1139.6	263.35
1045.0785	3166.9416	1131.95	251.4
1045.1831	3167.8993	1128	248.3
1045.2877	3168.8563	1130.6	252.5
1045.3922	3169.8127	1132.45	253.15
1045.4966	3170.7684	1125.75	246.6
1045.6011	3171.7236	1130.45	249.2
1045.7054	3172.6782	1127.35	248.9
1045.8098	3173.6321	1125.6	246.4
1045.914	3174.5854	1129.3	243.4
1046.0183	3175.5381	1123.65	245.5
1046.1224	3176.4902	1121.9	243.15
1046.2266	3177.4417	1118.3	241.35
1046.3307	3178.3926	1118.4	241.6
1046.4347	3179.3428	1120.55	242.45
1046.5387	3180.2924	1115.95	237.8
1046.6427	3181.2415	1116.4	238.35
1046.7466	3182.1899	1115.65	234.65
1046.8504	3183.1377	1109.65	232.4
1046.9542	3184.0848	1106.65	224.7
1047.058	3185.0314	1108.65	229.35
1047.1617	3185.9773	1109.2	228.2
1047.2654	3186.9227	1106.5	226.9
1047.369	3187.8674	1109.4	229.6
1047.4726	3188.8115	1110.25	227.75
1047.5761	3189.755	1103.25	224.6
1047.6796	3190.6979	1099	220.2
1047.783	3191.6402	1095.35	216.85
1047.8864	3192.5818	1091.7	214.35
1047.9898	3193.5229	1115	219.45
1048.0931	3194.4633	1100.65	221.95
1048.1963	3195.4031	1097.15	215.6
1048.2995	3196.3423	1092.8	215.2
1048.4027	3197.2809	1092.7	212.6
1048.5058	3198.2189	1094.5	215.9
1048.6089	3199.1563	1107.85	211.7
1048.7119	3200.0931	1090.05	212.4
1048.8148	3201.0292	1090.85	213.5
1048.9178	3201.9648	1091.15	213.05
1049.0206	3202.8997	1089.5	208.3
1049.1235	3203.834	1088.65	211.05
1049.2262	3204.7677	1086.9	209.5
1049.329	3205.7008	1088	205.1
1049.4317	3206.6333	1079.05	200.35
1049.5343	3207.5652	1084.75	203.4
1049.6369	3208.4964	1082.9	202.05
1049.7394	3209.4271	1079.75	199.9
1049.8419	3210.3571	1078.85	198.45
1049.9444	3211.2865	1081.15	202.95
1050.0468	3212.2154	1080.95	200.1
1050.1491	3213.1436	1077.45	195.35
1050.2514	3214.0712	1084.35	197.5
1050.3537	3214.9982	1073.9	195.4
1050.4559	3215.9246	1076	195.35
1050.5581	3216.8503	1072.2	195.4
1050.6602	3217.7755	1074	194.25
1050.7623	3218.7001	1067.8	190.4
1050.8643	3219.624	1068.05	187.2
1050.9663	3220.5473	1070.95	192
1051.0682	3221.4701	1063.7	184.5
1051.1701	3222.3922	1070.95	189.55
1051.2719	3223.3137	1068.05	188.85
1051.3737	3224.2346	1067.9	188.3
1051.4754	3225.1549	1066.05	186.9
1051.5771	3226.0746	1061.65	184.25
1051.6788	3226.9937	1059.75	181.95
1051.7804	3227.9121	1058.45	181.15
1051.8819	3228.83	1058.7	180.75
1051.9834	3229.7473	1059.7	181.9
1052.0849	3230.6639	1054.15	174.65
1052.1863	3231.5799	1057.25	178.35
1052.2876	3232.4954	1056.1	175.75
1052.3889	3233.4102	1054.85	176.65
1052.4902	3234.3244	1055.35	175.65
1052.5914	3235.238	1051.35	173.8
1052.6926	3236.151	1074.2	171.45
1052.7937	3237.0634	1050.7	173.75
1052.8948	3237.9752	1053.5	174.2
1052.9958	3238.8864	1049.25	169.95
1053.0968	3239.797	1043.4	165.35
1053.1977	3240.7069	1044.1	163.65
1053.2986	3241.6163	1049.8	170.2
1053.3994	3242.5251	1042.45	164.85
1053.5002	3243.4332	1040.95	162.2
1053.6009	3244.3408	1040.1	159.1
1053.7016	3245.2477	1039.95	163.75
1053.8022	3246.154	1041.4	161.7
1053.9028	3247.0598	1042.35	164.15
1054.0034	3247.9649	1038.95	158.1
1054.1039	3248.8694	1035.65	158.65
1054.2043	3249.7733	1035.6	157.3
1054.3047	3250.6766	1034.15	156.3
1054.4051	3251.5793	1038.3	158.2
1054.5054	3252.4814	1033.9	157.7
1054.6056	3253.3829	1035.15	154.75
1054.7058	3254.2838	1032.1	153.15
1054.806	3255.1841	1031.4	154.05
1054.9061	3256.0838	1029.1	150.5
1055.0061	3256.9829	1025.55	148.05
1055.1062	3257.8814	1030.8	151.1
1055.2061	3258.7792	1027.4	147
1055.306	3259.6765	1023.8	144.2
1055.4059	3260.5731	1024.55	144.4
1055.5057	3261.4692	1020.6	140.5
1055.6055	3262.3647	1021.8	141.25
1055.7052	3263.2595	1014.6	139.2
1055.8049	3264.1538	1014.4	134.2
1055.9045	3265.0474	1014.95	135.7
1056.0041	3265.9404	1007.35	129.1
1056.1036	3266.8329	1008.5	130.2
1056.2031	3267.7247	1012.1	123.1
1056.3025	3268.616	1003.9	129
1056.4019	3269.5066	998.8	119.05
1056.5013	3270.3966	997.25	118.45
1056.6005	3271.286	990.8	113.45
