Software Version:	3.9.2.0
Unit SN:	10000200
Spectrometer SN:	6960
Date:	3/6/2024 9:58:02 AM
Data Line Index:	25
Spectral Points:	2048
Integration time (ms):	125
Averages:	20
Delay (ms):	30
Sequence Number:	1
Processing:	dark subtract
Laser Power (mW):	300
Laser Current (mA):	826
Laser Diode Temp (C):	25.1
Laser Case Temp (C):	24.6
System Temp (C):	24.4
Spectrometer Temp (C):	21.9
CCD Temp (C):	-0.021
Secondary Temp (C):	20.011
Heatsink Temp (C):	18.257
CCDPCB Temp (C):	31.605
SecondaryPCB Temp (C):	26.336

Wavelength	RamanShift	Raw Counts	Dark Subtracted
787.061	30.1047	670.95	261.3
787.2016	32.3739	685.3	279
787.3422	34.6426	705.5	298.25
787.4828	36.9109	718.5	308.9
787.6235	39.1787	744.6	331.4
787.7642	41.4461	770.75	353.25
787.9049	43.7131	793.5	372
788.0456	45.9796	820.1	397.75
788.1863	48.2456	845.2	419.85
788.3271	50.5112	872.8	442.2
788.4679	52.7764	896.75	463.05
788.6087	55.0411	929.55	490.55
788.7496	57.3054	969.55	525.9
788.8904	59.5692	994.15	547.55
789.0313	61.8326	1038.75	591.55
789.1722	64.0955	1082.75	631.85
789.3132	66.3579	1129.25	674.45
789.4541	68.6199	1193.65	734.85
789.5951	70.8815	1301.8	837.4
789.7361	73.1426	1546.15	1078.2
789.8771	75.4032	2142.35	1669.9
790.0181	77.6634	3689.95	3213.1
790.1592	79.9231	7503.6	7024.05
790.3003	82.1824	17504.85	17017.3
790.4414	84.4412	36427.2	35923.45
790.5825	86.6995	49165.7	48643.7
790.7237	88.9574	55367.5	54828.3
790.8648	91.2148	59003.65	58454.25
791.006	93.4717	60013.6	59455.7
791.1472	95.7282	60440.2	59876.95
791.2885	97.9842	60633.85	60067.6
791.4297	100.2398	60681.25	60113.35
791.571	102.4949	60621.85	60051.15
791.7123	104.7495	60687.45	60115.25
791.8536	107.0036	60568.4	59994.5
791.9949	109.2573	60790.35	60216.5
792.1363	111.5105	60558.95	59983.35
792.2777	113.7632	60692.25	60109.9
792.4191	116.0154	60755.4	60167.15
792.5605	118.2672	60912.55	60328.9
792.7019	120.5185	60925.6	60339.7
792.8434	122.7693	60934.1	60345.1
792.9849	125.0197	60756.85	60165.4
793.1264	127.2696	61171.95	60574.35
793.2679	129.519	61151.35	60550.2
793.4094	131.7679	61286.4	60683.85
793.551	134.0163	60831.2	60228.6
793.6926	136.2642	61020.3	60408.4
793.8342	138.5117	61322.45	60708.8
793.9758	140.7587	61207.35	60595.35
794.1175	143.0052	61229.95	60611.8
794.2591	145.2512	60996.25	60378.35
794.4008	147.4967	61291.4	60674.05
794.5425	149.7417	61208.25	60587.75
794.6842	151.9863	61209.55	60585.5
794.826	154.2304	61008.6	60379.15
794.9677	156.4739	61189.95	60554.35
795.1095	158.717	61321.35	60689.55
795.2513	160.9596	61230.15	60590.2
795.3931	163.2017	61026	60384.9
795.535	165.4433	61253.55	60610.25
795.6768	167.6844	61136.9	60491.45
795.8187	169.925	61233.2	60585.85
795.9606	172.1651	61150.8	60501.3
796.1025	174.4047	61173.95	60521.2
796.2445	176.6439	61185.05	60529.4
796.3864	178.8825	61158.7	60498.8
796.5284	181.1206	61334.9	60672.4
796.6704	183.3582	61321.8	60654.35
796.8124	185.5954	61191.8	60525.8
796.9544	187.832	61248.1	60577.05
797.0965	190.0681	61106.1	60432.25
797.2386	192.3037	61331.95	60653.5
797.3806	194.5388	61569.05	60885.1
797.5228	196.7734	61038.55	60353.2
797.6649	199.0075	61527.45	60840.6
797.807	201.2411	61387.05	60704.15
797.9492	203.4742	61630.3	60942.5
798.0914	205.7068	61581.7	60888
798.2336	207.9389	61566.8	60873.05
798.3758	210.1704	61509.75	60822.9
798.518	212.4015	61735.05	61059.3
798.6603	214.632	61450.55	60776.95
798.8025	216.862	61744.15	61073.3
798.9448	219.0915	61670.15	60994.9
799.0871	221.3205	61600.05	60922.2
799.2294	223.549	61819.45	61146.1
799.3718	225.777	61797.2	61125.35
799.5141	228.0044	61884.85	61204.15
799.6565	230.2314	61807.55	61124.75
799.7989	232.4578	61809.95	61124.3
799.9413	234.6837	61842.2	61147.45
800.0837	236.909	62244.7	61549.1
800.2262	239.1339	61677.05	60955.35
800.3687	241.3582	61951.65	61245.35
800.5111	243.582	61962.3	61225.25
800.6536	245.8053	61972.05	61248.9
800.7961	248.0281	61970.25	61251.45
800.9387	250.2503	62063.2	61344.15
801.0812	252.472	61898.7	61171
801.2238	254.6932	62009.35	61286.95
801.3664	256.9139	61936.4	61209.85
801.509	259.134	62315.1	61585.75
801.6516	261.3536	61855.1	61129.95
801.7942	263.5727	62129.25	61397.55
801.9369	265.7912	61985.45	61255.8
802.0795	268.0092	62052.15	61319.5
802.2222	270.2267	62098.45	61367.55
802.3649	272.4436	61916.5	61182.95
802.5076	274.6601	62067.2	61326.95
802.6504	276.8759	62172.95	61435.85
802.7931	279.0913	62075.7	61337.45
802.9359	281.3061	62106.65	61368.75
803.0787	283.5204	62162.55	61420.4
803.2215	285.7341	62113.2	61368.8
803.3643	287.9473	62331.1	61575
803.5071	290.16	62146.1	61397.25
803.6499	292.3721	62268.3	61525.75
803.7928	294.5837	62064.65	61321.25
803.9357	296.7947	61978.95	61236.7
804.0786	299.0052	62240.75	61494.95
804.2215	301.2152	62109.5	61362.75
804.3644	303.4246	62301.3	61555.15
804.5074	305.6334	62264.9	61516.25
804.6503	307.8418	62031.3	61280.9
804.7933	310.0495	62093.65	61341
804.9363	312.2568	62055.75	61303.85
805.0793	314.4635	62039.3	61283.4
805.2223	316.6696	62138.85	61380.3
805.3653	318.8752	62265.9	61499.45
805.5084	321.0802	61856	61096.8
805.6514	323.2847	62005.2	61246.65
805.7945	325.4887	62020.8	61260.75
805.9376	327.692	61930.4	61167.75
806.0807	329.8949	62047.1	61283.1
806.2238	332.0972	61956.15	61192.75
806.367	334.2989	62036.8	61264.4
806.5101	336.5001	62169.5	61399.5
806.6533	338.7007	61865.05	61094.35
806.7965	340.9008	62013.1	61238.35
806.9397	343.1003	62049.6	61275.1
807.0829	345.2992	62181.2	61407.15
807.2261	347.4976	61992.65	61213.75
807.3693	349.6955	62071.9	61292
807.5126	351.8927	61963.05	61179.65
807.6559	354.0895	62127.15	61338.25
807.7991	356.2856	62092.4	61307.15
807.9424	358.4812	62210.7	61426.55
808.0857	360.6763	62003.65	61219.15
808.2291	362.8707	62157.6	61368.75
808.3724	365.0646	62034.9	61246.25
808.5158	367.258	62067.45	61275
808.6591	369.4508	61934.7	61138.8
808.8025	371.643	62114.6	61318.55
808.9459	373.8346	62035.5	61241.25
809.0893	376.0257	62034.2	61236
809.2327	378.2162	61993.5	61196
809.3762	380.4062	61851.8	61052.85
809.5196	382.5956	61946.45	61149.3
809.6631	384.7844	61961.35	61168.25
809.8066	386.9726	62031.85	61242.4
809.9501	389.1603	62039.95	61250
810.0936	391.3474	61838.2	61015.2
810.2371	393.5339	62028	61238.9
810.3806	395.7199	61775.4	60982.25
810.5241	397.9052	61791.75	60999.5
810.6677	400.09	61864.35	61070.95
810.8113	402.2743	61957.4	61162.35
810.9548	404.4579	61855.7	61062.05
811.0984	406.641	61855.7	61059.3
811.2421	408.8235	61943.65	61145
811.3857	411.0054	61900.35	61101.6
811.5293	413.1868	61919	61112.85
811.673	415.3675	61903.7	61096.3
811.8166	417.5477	61923.9	61116.15
811.9603	419.7273	61896.75	61085.9
812.104	421.9064	61850.6	61034.1
812.2477	424.0848	61876.5	61064.35
812.3914	426.2627	61957.9	61146.25
812.5351	428.4399	61721.25	60913.3
812.6788	430.6166	61610.7	60793.95
812.8226	432.7928	61789.4	60971.1
812.9663	434.9683	61614.1	60796.5
813.1101	437.1432	61634.7	60818.85
813.2539	439.3176	61729.6	60915.75
813.3977	441.4914	61524.95	60709.9
813.5415	443.6645	61574.4	60761.7
813.6853	445.8371	61540.3	60724.6
813.8291	448.0091	61441.7	60626.65
813.973	450.1806	61414.6	60596.5
814.1168	452.3514	61410.55	60591.2
814.2607	454.5216	61330.65	60503.3
814.4046	456.6913	61369.35	60547.2
814.5485	458.8603	61422.3	60601.95
814.6924	461.0288	61319.2	60500.75
814.8363	463.1967	61405	60588.2
814.9802	465.3639	61421.3	60600.65
815.1241	467.5306	61188.75	60362.85
815.2681	469.6967	61282.6	60462
815.412	471.8622	61302.15	60482.65
815.556	474.0271	61272.2	60451.75
815.7	476.1914	61300.85	60476.3
815.844	478.3551	61288.45	60463.8
815.988	480.5182	61413.65	60587.5
816.132	482.6807	61236.6	60415
816.276	484.8426	61268.95	60448.85
816.4201	487.0039	61430.7	60609.15
816.5641	489.1647	61397.45	60569.95
816.7082	491.3248	61242.8	60415.2
816.8522	493.4843	61422.85	60597.6
816.9963	495.6432	61424.9	60599
817.1404	497.8015	61212.75	60379.5
817.2845	499.9592	61310.6	60477.8
817.4286	502.1163	61337.3	60503.95
817.5727	504.2728	61325.35	60494.25
817.7168	506.4287	61310.7	60485.15
817.861	508.5839	61188.7	60362.1
818.0051	510.7386	61220.1	60390.7
818.1493	512.8927	61265.1	60432.5
818.2935	515.0461	61243.4	60409.1
818.4377	517.199	61336.7	60502.75
818.5818	519.3512	61269.25	60433.65
818.726	521.5029	61183.75	60339.3
818.8703	523.6539	61251.6	60416.8
819.0145	525.8043	61101.4	60261.65
819.1587	527.9541	61236.2	60395.55
819.303	530.1033	61194.1	60356.15
819.4472	532.2519	61116.15	60279.55
819.5915	534.3999	61203.35	60363.35
819.7357	536.5472	61276.9	60436.95
819.88	538.694	61092.7	60256.85
820.0243	540.8401	61225.9	60385.8
820.1686	542.9856	61205.3	60361.3
820.3129	545.1305	61232.85	60384.2
820.4572	547.2748	61187.2	60338.75
820.6016	549.4185	61178.6	60327.35
820.7459	551.5615	61190.25	60342
820.8902	553.704	61177.15	60327.35
821.0346	555.8458	61095.25	60251.05
821.1789	557.987	61141.05	60299.8
821.3233	560.1276	61175.3	60326.3
821.4677	562.2675	61092.55	60243.9
821.6121	564.4069	61124.85	60275.3
821.7565	566.5456	61161.25	60313
821.9009	568.6837	61044.9	60195.05
822.0453	570.8212	61087.65	60238.8
822.1897	572.958	60961.4	60111.9
822.3342	575.0942	61046.15	60198.85
822.4786	577.2299	60913.05	60066.55
822.6231	579.3648	60868.2	60027.6
822.7675	581.4992	60827	59988.05
822.912	583.6329	60802.75	59964.55
823.0565	585.766	60788.7	59948.35
823.201	587.8985	60829.1	59986.35
823.3454	590.0304	60644	59783.9
823.4899	592.1616	60725.05	59870.95
823.6345	594.2922	60667.5	59815.35
823.779	596.4222	60602.05	59746.4
823.9235	598.5515	60617	59760.4
824.068	600.6802	60624.3	59769.75
824.2126	602.8083	60499.75	59646.8
824.3571	604.9358	60489.55	59633.75
824.5017	607.0626	60546.9	59689.4
824.6462	609.1888	60412.1	59549.85
824.7908	611.3144	60508.6	59647.4
824.9354	613.4393	60437	59575.35
825.08	615.5636	60367.75	59510.3
825.2246	617.6873	60442.45	59583.15
825.3692	619.8103	60372.35	59511.9
825.5138	621.9327	60370.3	59508.7
825.6584	624.0544	60394.85	59537
825.803	626.1756	60346.65	59489.15
825.9477	628.2961	60363.1	59504.7
826.0923	630.4159	60284.5	59424.15
826.237	632.5351	60265.65	59403.55
826.3816	634.6537	60377.85	59515.25
826.5263	636.7716	60220.6	59354.25
826.6709	638.8889	60282.65	59415.95
826.8156	641.0056	60261.1	59395.1
826.9603	643.1216	60241.2	59374.1
827.105	645.237	60318.45	59451.7
827.2497	647.3518	60169.4	59308.2
827.3944	649.4659	60226.15	59368.15
827.5391	651.5793	60222	59361.2
827.6838	653.6922	60226.95	59364.15
827.8285	655.8043	60096.8	59232.55
827.9733	657.9159	60269.45	59404.4
828.118	660.0268	59945.05	59081.1
828.2627	662.137	60035.9	59169.65
828.4075	664.2466	60089.1	59220.6
828.5522	666.3556	59996.3	59126.95
828.697	668.4639	60039.45	59171.4
828.8418	670.5716	59993.95	59129.5
828.9865	672.6786	60048.15	59178.6
829.1313	674.785	59884.7	59013.65
829.2761	676.8907	59918.3	59049.4
829.4209	678.9958	59920.85	59053.2
829.5657	681.1002	59931.05	59060.6
829.7105	683.204	59837.5	58960.45
829.8553	685.3072	59779.05	58905.65
830.0001	687.4097	59747.25	58875.35
830.1449	689.5115	59737.25	58863
830.2898	691.6127	59806.3	58935.65
830.4346	693.7132	59695.5	58824.65
830.5794	695.8131	59745.35	58851.85
830.7243	697.9123	59761.95	58887.35
830.8691	700.0109	59757.05	58881.65
831.014	702.1089	59638.5	58766.8
831.1588	704.2061	59661.55	58787.35
831.3037	706.3028	59640.6	58765.85
831.4486	708.3987	59648.7	58774.4
831.5935	710.4941	59592.3	58715.95
831.7383	712.5887	59621.55	58746.1
831.8832	714.6827	59603.65	58726.45
832.0281	716.7761	59615.55	58743.5
832.173	718.8688	59581.7	58705.2
832.3179	720.9608	59524.55	58643.2
832.4628	723.0522	59544.95	58661.1
832.6077	725.1429	59483.35	58604.45
832.7527	727.233	59604.25	58723.95
832.8976	729.3224	59418.9	58538.75
833.0425	731.4112	59436	58556.25
833.1874	733.4993	59403.85	58524.4
833.3324	735.5867	59387.7	58509.85
833.4773	737.6735	59317.6	58437.35
833.6222	739.7596	59270.8	58391.15
833.7672	741.845	59238.4	58358.9
833.9122	743.9298	59275.05	58392.75
834.0571	746.014	59173.3	58292.15
834.2021	748.0974	59142.85	58255.45
834.347	750.1802	59175.2	58293.65
834.492	752.2624	59028.9	58144.95
834.637	754.3439	59017.2	58134.25
834.782	756.4247	58985.1	58095.45
834.9269	758.5048	58926.55	58043.25
835.0719	760.5843	58935.5	58051.7
835.2169	762.6631	58907.8	58024.7
835.3619	764.7413	58860.85	57977.85
835.5069	766.8188	58889.2	58005.95
835.6519	768.8956	58870.25	57983.15
835.7969	770.9718	58896.95	58012.85
835.9419	773.0473	58792.2	57908.75
836.0869	775.1221	58713.5	57827.55
836.232	777.1962	58691.45	57807.8
836.377	779.2697	58647.7	57761.1
836.522	781.3426	58612.9	57708.65
836.667	783.4147	58574.95	57685.65
836.8121	785.4862	58572.5	57688.35
836.9571	787.557	58508.3	57622.75
837.1021	789.6271	58523.65	57635.55
837.2472	791.6966	58453.25	57567.45
837.3922	793.7654	58393.25	57504.65
837.5373	795.8335	58360.15	57473.3
837.6823	797.901	58332.2	57447.55
837.8274	799.9678	58302.4	57413.3
837.9724	802.0339	58251.85	57362.75
838.1175	804.0993	58221.25	57322.15
838.2626	806.1641	58191.75	57300.7
838.4076	808.2282	58126.4	57239.25
838.5527	810.2916	58101.85	57212.1
838.6978	812.3544	58129.8	57243.75
838.8428	814.4164	58026.5	57139.4
838.9879	816.4778	58071	57180.55
839.133	818.5385	58006.1	57115.55
839.2781	820.5986	57998.9	57108.8
839.4232	822.658	58002	57110.35
839.5682	824.7166	57934.6	57045
839.7133	826.7747	57944.65	57053.65
839.8584	828.832	57920.1	57027.5
840.0035	830.8886	57909.65	57017.75
840.1486	832.9446	57920.85	57027
840.2937	834.9999	57740.75	56851.25
840.4388	837.0545	57748.15	56853.1
840.5839	839.1085	57807.75	56915.8
840.729	841.1618	57732.3	56838.1
840.8741	843.2143	57624.9	56730.4
841.0192	845.2662	57565.6	56673.45
841.1643	847.3175	57631.8	56739
841.3095	849.368	57435.7	56545.9
841.4546	851.4179	57531.35	56639.45
841.5997	853.467	57384.1	56492.1
841.7448	855.5155	57418.75	56525.8
841.8899	857.5633	57288	56395.95
842.0351	859.6105	57260.15	56369.8
842.1802	861.6569	57276.95	56385.35
842.3253	863.7027	57167.8	56274.25
842.4704	865.7478	57209.75	56315.4
842.6156	867.7922	57165.8	56271.65
842.7607	869.8359	57183.2	56290.8
842.9058	871.8789	57027.85	56132
843.0509	873.9212	57089.25	56165.1
843.1961	875.9629	57020.2	56124.3
843.3412	878.0039	57013.75	56118.4
843.4863	880.0441	56982.25	56087.95
843.6315	882.0837	56975.8	56080.05
843.7766	884.1226	56961.6	56065.05
843.9218	886.1609	56935.2	56043.95
844.0669	888.1984	56891.6	55996.55
844.212	890.2352	57002.7	56108.6
844.3572	892.2714	56836.85	55938.6
844.5023	894.3069	56879.1	55982.9
844.6475	896.3416	56760.1	55862.55
844.7926	898.3757	56768.85	55872.7
844.9377	900.4091	56588.3	55692.65
845.0829	902.4418	56740.85	55838.15
845.228	904.4739	56587.65	55688.2
845.3732	906.5052	56579.55	55680.9
845.5183	908.5358	56521.25	55622.5
845.6635	910.5658	56453.35	55552.45
845.8086	912.595	56446.35	55547.55
845.9538	914.6236	56237.6	55337.95
846.0989	916.6515	56458.3	55561.25
846.2441	918.6786	56150.3	55250
846.3892	920.7051	56208.8	55308.1
846.5344	922.7309	56216.15	55319.4
846.6795	924.756	56178.4	55280.45
846.8246	926.7804	56106.05	55204.45
846.9698	928.8041	55823.8	54925.6
847.1149	930.8272	55993	55092.5
847.2601	932.8495	55908.5	55009.7
847.4052	934.8711	55822.1	54923.95
847.5504	936.892	55651.35	54753.45
847.6955	938.9123	55681.25	54780.5
847.8407	940.9318	55574.5	54678.55
847.9858	942.9506	55524.8	54624.85
848.131	944.9688	55507.9	54607.95
848.2761	946.9862	55284.9	54387.9
848.4213	949.003	55301.1	54399.65
848.5664	951.019	55081.45	54181.5
848.7115	953.0344	55085.25	54187.2
848.8567	955.0491	54964.6	54064.45
849.0018	957.063	55107.15	54207.7
849.147	959.0763	55098.75	54200.2
849.2921	961.0888	54915.45	54012.4
849.4373	963.1007	55014.5	54113.55
849.5824	965.1119	54995.4	54099.35
849.7275	967.1223	54843.25	53949.55
849.8727	969.1321	54936.05	54045.2
850.0178	971.1412	54728.65	53832.25
850.1629	973.1495	54631.9	53735.2
850.3081	975.1572	54728.6	53791.45
850.4532	977.1641	54637.7	53738.5
850.5983	979.1704	54543.7	53641.95
850.7435	981.1759	54502.15	53598
850.8886	983.1808	54421.95	53521.15
851.0337	985.1849	54373.7	53460.85
851.1788	987.1884	54357.8	53452.85
851.324	989.1911	54438.45	53534.45
851.4691	991.1932	54137.6	53237.4
851.6142	993.1945	54144.8	53246.8
851.7593	995.1951	54122.2	53222.6
851.9045	997.1951	53962.15	53054.15
852.0496	999.1943	53872.05	52972.55
852.1947	1001.1928	53785.25	52881.1
852.3398	1003.1906	53776.2	52874.1
852.4849	1005.1877	53581.1	52680
852.63	1007.1841	53477.7	52580.2
852.7751	1009.1798	53437.55	52537.7
852.9202	1011.1748	53389.45	52489.35
853.0653	1013.1691	53344.3	52441.85
853.2104	1015.1627	53076.05	52174.35
853.3555	1017.1556	53050.5	52151.4
853.5006	1019.1477	53083.1	52181.5
853.6457	1021.1392	52869.25	51972.2
853.7908	1023.1299	52693.15	51799.35
853.9359	1025.12	52702.95	51806.1
854.081	1027.1093	52552.5	51664.15
854.2261	1029.0979	52525.15	51636.1
854.3712	1031.0859	52441.75	51550.45
854.5163	1033.0731	52331	51433.9
854.6613	1035.0596	52281.05	51382.35
854.8064	1037.0454	52180.35	51282.4
854.9515	1039.0304	52090.85	51189.25
855.0965	1041.0148	51921.1	51019.9
855.2416	1042.9985	51903	51003.15
855.3867	1044.9814	51940.55	51041.6
855.5317	1046.9636	51771.65	50867.95
855.6768	1048.9452	51707.35	50807.45
855.8219	1050.926	51691.75	50791.8
855.9669	1052.9061	51664.15	50761.65
856.112	1054.8855	51604.95	50700.7
856.257	1056.8642	51516.4	50613.9
856.4021	1058.8421	51483.25	50579.55
856.5471	1060.8194	51390.15	50486.55
856.6921	1062.7959	51357.15	50456.25
856.8372	1064.7717	51350.3	50447.9
856.9822	1066.7469	51268.55	50365.55
857.1272	1068.7213	51271.15	50368
857.2723	1070.695	51218.65	50316.4
857.4173	1072.6679	51072.15	50168.05
857.5623	1074.6402	51121.7	50220.45
857.7073	1076.6117	51036.8	50128.25
857.8523	1078.5826	51004.6	50100.8
857.9973	1080.5527	50961.85	50058.9
858.1423	1082.5221	50884.6	49982.15
858.2873	1084.4908	50817.95	49916.75
858.4323	1086.4587	50756.6	49852.35
858.5773	1088.426	50747.5	49844.1
858.7223	1090.3925	50677.2	49769.8
858.8673	1092.3584	50661.25	49760.2
859.0123	1094.3235	50511.7	49612.4
859.1573	1096.2879	50489.05	49588.35
859.3022	1098.2515	50453.4	49550.75
859.4472	1100.2145	50448.35	49547.35
859.5922	1102.1767	50391.1	49488.15
859.7371	1104.1382	50326	49422
859.8821	1106.099	50323.05	49418.9
860.027	1108.0591	50285.7	49383.3
860.172	1110.0185	50216.5	49309.65
860.3169	1111.9771	50232.8	49331.55
860.4619	1113.9351	50093.1	49190.7
860.6068	1115.8923	50016.85	49113.15
860.7517	1117.8488	49978.55	49075.65
860.8967	1119.8045	49843.6	48940.95
861.0416	1121.7596	49804.95	48901.7
861.1865	1123.7139	49738.6	48837.2
861.3314	1125.6675	49669.1	48765.85
861.4763	1127.6204	49652.2	48748.7
861.6212	1129.5726	49583.65	48679.95
861.7661	1131.524	49572.3	48669.85
861.911	1133.4748	49563.35	48663.5
862.0559	1135.4248	49460.8	48555.5
862.2008	1137.3741	49425.45	48525.9
862.3457	1139.3226	49342.1	48438.35
862.4905	1141.2705	49321.55	48419.55
862.6354	1143.2176	49198.1	48289.05
862.7803	1145.164	49206.6	48300.95
862.9251	1147.1097	49132.45	48228.25
863.07	1149.0546	49094.05	48190.8
863.2148	1150.9989	49078.3	48177.1
863.3597	1152.9424	49072.3	48169.15
863.5045	1154.8852	48987.4	48084.35
863.6493	1156.8272	48960.2	48059.05
863.7942	1158.7686	48981.4	48072.75
863.939	1160.7092	48866.25	47960.4
864.0838	1162.6491	48775.7	47870.2
864.2286	1164.5883	48801.75	47899.45
864.3734	1166.5267	48756.15	47850.8
864.5182	1168.4644	48751.65	47848.75
864.663	1170.4014	48721	47812.95
864.8078	1172.3377	48776	47875
864.9526	1174.2732	48794.3	47894.75
865.0974	1176.2081	48817.1	47916.5
865.2421	1178.1421	48761.7	47854.75
865.3869	1180.0755	48782.9	47881.7
865.5317	1182.0082	48692.9	47790.2
865.6764	1183.9401	48688.4	47784.85
865.8212	1185.8713	48581.4	47683.95
865.9659	1187.8017	48546.1	47647.45
866.1106	1189.7315	48514.55	47621.35
866.2554	1191.6605	48356.1	47462.3
866.4001	1193.5888	48290.55	47394.6
866.5448	1195.5163	48213.15	47315.6
866.6895	1197.4432	48146.1	47240.5
866.8342	1199.3693	48086.25	47183.9
866.9789	1201.2947	48003.9	47095.25
867.1236	1203.2193	47952.25	47050.2
867.2683	1205.1432	47934.5	47033.15
867.413	1207.0664	47865.8	46965.25
867.5576	1208.9889	47806.25	46903
867.7023	1210.9106	47741.6	46839.5
867.847	1212.8316	47622.55	46723.85
867.9916	1214.7519	47596.95	46689.4
868.1363	1216.6715	47532	46631.5
868.2809	1218.5903	47530.1	46627.1
868.4255	1220.5084	47482.35	46578.15
868.5701	1222.4257	47497.45	46597.1
868.7148	1224.3424	47402.05	46503.7
868.8594	1226.2583	47375.6	46472.55
869.004	1228.1735	47325.9	46423.15
869.1486	1230.0879	47254.7	46352.9
869.2932	1232.0016	47217.45	46315.8
869.4377	1233.9146	47191.6	46288.35
869.5823	1235.8269	47141.75	46239.25
869.7269	1237.7384	47137.75	46235.75
869.8715	1239.6492	47042.7	46140.4
870.016	1241.5592	46966.5	46065.75
870.1606	1243.4686	46926.35	46024.75
870.3051	1245.3772	46863.7	45962.35
870.4496	1247.285	46868.55	45967.5
870.5941	1249.1922	46797.85	45895.65
870.7387	1251.0986	46803.2	45901.3
870.8832	1253.0042	46715.75	45812.5
871.0277	1254.9092	46710.4	45810.45
871.1722	1256.8134	46582.45	45682
871.3167	1258.7169	46665.05	45765.35
871.4611	1260.6196	46573.9	45674.1
871.6056	1262.5216	46573.3	45669.75
871.7501	1264.4229	46605.75	45706.1
871.8945	1266.3234	46630.4	45726.9
872.039	1268.2232	46611.5	45712.25
872.1834	1270.1223	46530.25	45627.25
872.3278	1272.0207	46458.3	45553
872.4723	1273.9183	46426.8	45518.2
872.6167	1275.8151	46388.75	45486.8
872.7611	1277.7113	46339.7	45437.5
872.9055	1279.6067	46264.8	45366.2
873.0499	1281.5014	46236.6	45333
873.1943	1283.3953	46309.45	45406.05
873.3386	1285.2885	46319.7	45418.7
873.483	1287.181	46318.8	45416.45
873.6274	1289.0727	46396.8	45497.5
873.7717	1290.9637	46305.85	45405.15
873.9161	1292.854	46426.3	45526
874.0604	1294.7435	46311.2	45407.9
874.2047	1296.6323	46299.45	45398
874.349	1298.5204	46205.7	45299.9
874.4933	1300.4077	46215.7	45313.5
874.6376	1302.2943	46114.8	45215.7
874.7819	1304.1802	46069.45	45168.85
874.9262	1306.0653	45948.7	45042.9
875.0705	1307.9497	45846.8	44947.85
875.2147	1309.8333	45788.2	44887.15
875.359	1311.7162	45746.9	44847.2
875.5032	1313.5984	45740	44836.9
875.6475	1315.4798	45578.6	44674.6
875.7917	1317.3605	45572.55	44656.85
875.9359	1319.2405	45558.3	44654.6
876.0801	1321.1197	45444.15	44541.85
876.2243	1322.9982	45421.55	44516.6
876.3685	1324.876	45343	44439.25
876.5127	1326.753	45206.15	44304.8
876.6569	1328.6293	45293.45	44390.25
876.801	1330.5048	45230.2	44326.95
876.9452	1332.3796	45038.55	44136.85
877.0893	1334.2537	45023.9	44096.3
877.2335	1336.127	45052.25	44151.5
877.3776	1337.9996	44908.8	44007.3
877.5217	1339.8714	44991.5	44088.2
877.6658	1341.7426	44654.35	43706.7
877.8099	1343.6129	44880.6	43979.8
877.954	1345.4826	44835.6	43931.65
878.0981	1347.3515	44507.15	43601.7
878.2422	1349.2196	44718.05	43813.9
878.3862	1351.087	44731.6	43829.5
878.5303	1352.9537	44656.1	43755.4
878.6743	1354.8197	44670.85	43770.4
878.8184	1356.6849	44671.3	43767.55
878.9624	1358.5493	44610.5	43707.9
879.1064	1360.4131	44480.05	43577.25
879.2504	1362.276	44678.3	43776.75
879.3944	1364.1383	44374.8	43471.65
879.5384	1365.9998	44202.2	43294.15
879.6823	1367.8606	44297.85	43392.3
879.8263	1369.7206	44064.4	43160.35
879.9702	1371.5799	43867.8	42962.9
880.1142	1373.4384	43712.45	42809.85
880.2581	1375.2962	43732.5	42830.7
880.402	1377.1533	43354.65	42453.15
880.5459	1379.0096	43191.65	42290.2
880.6898	1380.8652	43119.05	42217.85
880.8337	1382.7201	42944.95	42045.85
880.9776	1384.5742	42892.4	41989.7
881.1215	1386.4275	42487.35	41581.5
881.2653	1388.2802	42563.05	41663.05
881.4092	1390.132	42591.55	41688.25
881.553	1391.9832	42298.45	41393.2
881.6968	1393.8336	42088.1	41185.05
881.8406	1395.6832	42102.95	41201.5
881.9844	1397.5322	42101.5	41199.6
882.1282	1399.3803	41851.35	40947.45
882.272	1401.2278	41821.35	40918.65
882.4158	1403.0745	41667.75	40767.25
882.5595	1404.9204	41615.25	40715.4
882.7033	1406.7656	41584.85	40685.5
882.847	1408.6101	41317.3	40413.05
882.9908	1410.4538	41359.35	40456.45
883.1345	1412.2968	41320.65	40420.45
883.2782	1414.139	41096.7	40195.9
883.4219	1415.9805	41140.3	40239.9
883.5656	1417.8213	40904.5	39997.85
883.7092	1419.6613	41042.8	40142.35
883.8529	1421.5006	40900.5	39997.35
883.9965	1423.3391	40851.3	39949.1
884.1402	1425.1769	40851.1	39950.45
884.2838	1427.0139	41023.55	40119.95
884.4274	1428.8502	40950.9	40048.3
884.571	1430.6858	41025.75	40121.65
884.7146	1432.5206	41250.95	40349.8
884.8582	1434.3547	41066.75	40165.55
885.0018	1436.188	40921.1	40020.25
885.1453	1438.0206	41033.8	40134.35
885.2889	1439.8524	40922.25	40023.15
885.4324	1441.6835	40723.95	39824.55
885.5759	1443.5139	40780.55	39876.25
885.7194	1445.3435	40567.3	39665.4
885.8629	1447.1724	40633.3	39730.95
886.0064	1449.0005	40341.05	39440.25
886.1499	1450.8279	40453.85	39550.2
886.2933	1452.6545	40417.15	39516.45
886.4368	1454.4804	40328.8	39428.25
886.5802	1456.3056	40242.95	39334.95
886.7237	1458.13	40247.3	39348.8
886.8671	1459.9536	40338.4	39437.3
887.0105	1461.7766	40048.05	39147.4
887.1539	1463.5987	39817.8	38914.45
887.2972	1465.4202	39764.75	38862.5
887.4406	1467.2409	39599.5	38697.35
887.584	1469.0608	39394.3	38495.75
887.7273	1470.88	39349.7	38449.4
887.8706	1472.6984	39272.15	38372.35
888.0139	1474.5161	39013.1	38112.3
888.1572	1476.3331	39038.3	38139.15
888.3005	1478.1493	38840.15	37938.2
888.4438	1479.9648	38839.95	37938.85
888.5871	1481.7795	38833.4	37930.45
888.7303	1483.5935	38811.55	37910.65
888.8736	1485.4067	38635.85	37734.05
889.0168	1487.2192	38615.05	37715.15
889.16	1489.031	38545.6	37644.3
889.3032	1490.842	38535.3	37636.5
889.4464	1492.6522	38528.4	37630.3
889.5896	1494.4618	38372.25	37471.6
889.7327	1496.2705	38394.45	37494.45
889.8759	1498.0785	38215.25	37312.55
890.019	1499.8858	38161.4	37261.15
890.1622	1501.6924	38212.65	37311.55
890.3053	1503.4981	38058.8	37157.95
890.4484	1505.3032	38020.2	37119.7
890.5914	1507.1075	37879.1	36980.5
890.7345	1508.911	37845.95	36949.25
890.8776	1510.7138	37849.7	36949.8
891.0206	1512.5159	37805	36907.45
891.1637	1514.3172	37556.95	36657.55
891.3067	1516.1178	37528.5	36629.65
891.4497	1517.9176	37543.8	36643.15
891.5927	1519.7166	37398.3	36498.85
891.7357	1521.515	37330.4	36426.9
891.8786	1523.3126	37244.2	36345.1
892.0216	1525.1094	37223.2	36323
892.1645	1526.9055	37152.1	36253.9
892.3074	1528.7008	37038.1	36138.95
892.4503	1530.4954	36854.1	35954.65
892.5932	1532.2893	36849.1	35950.75
892.7361	1534.0824	36682.5	35779.55
892.879	1535.8747	36626.2	35729.05
893.0218	1537.6663	36653.75	35757.05
893.1647	1539.4572	36416.5	35516.65
893.3075	1541.2473	36439.95	35539.95
893.4503	1543.0367	36350.45	35455.15
893.5931	1544.8253	36234.15	35331.85
893.7359	1546.6132	36254.35	35354.55
893.8787	1548.4003	36126.7	35219.1
894.0214	1550.1867	36088.45	35181.4
894.1642	1551.9723	36067.85	35167.7
894.3069	1553.7572	36032.45	35135.85
894.4496	1555.5414	36012.65	35117.65
894.5923	1557.3247	35939.3	35044.35
894.735	1559.1074	35894.15	35002.7
894.8777	1560.8893	35881.3	34987.65
895.0204	1562.6705	35810.7	34917
895.163	1564.4509	35747.85	34852.75
895.3056	1566.2305	35685.85	34794.6
895.4482	1568.0094	35773.95	34880.4
895.5908	1569.7876	35715.75	34822.2
895.7334	1571.565	35630.45	34736
895.876	1573.3417	35611.4	34718.3
896.0186	1575.1176	35524.4	34631.95
896.1611	1576.8928	35476.85	34583.65
896.3036	1578.6672	35315.15	34425.25
896.4461	1580.4409	35277.25	34388.4
896.5886	1582.2138	35191.75	34300.6
896.7311	1583.986	35138.05	34245.75
896.8736	1585.7575	35079.1	34186.25
897.0161	1587.5282	35083.05	34193.1
897.1585	1589.2981	35059.3	34169.95
897.3009	1591.0673	34961.3	34071.25
897.4433	1592.8358	34973.3	34081.15
897.5857	1594.6035	34959.7	34066.65
897.7281	1596.3704	34861.3	33969.45
897.8705	1598.1366	34783.55	33891.2
898.0128	1599.9021	34718.35	33826.8
898.1551	1601.6668	34702.75	33807.95
898.2975	1603.4308	34600.95	33708.55
898.4398	1605.194	34675.55	33780.9
898.5821	1606.9564	34551.1	33663.05
898.7243	1608.7182	34635.45	33745.95
898.8666	1610.4791	34575.6	33689.6
899.0088	1612.2394	34664.15	33779.75
899.1511	1613.9988	34581.2	33694.85
899.2933	1615.7576	34715.65	33827.45
899.4355	1617.5156	34702.3	33807.55
899.5776	1619.2728	34769.15	33878.9
899.7198	1621.0293	34600.2	33712.25
899.862	1622.785	34510.95	33618.35
900.0041	1624.54	34388	33495.7
900.1462	1626.2942	34194.3	33303.9
900.2883	1628.0477	33889.25	32999.65
900.4304	1629.8005	33727.85	32837.1
900.5725	1631.5525	33673.85	32785.4
900.7145	1633.3037	33459.5	32572.2
900.8566	1635.0542	33378.05	32490.95
900.9986	1636.804	33276.45	32386.45
901.1406	1638.553	33214.4	32281.35
901.2826	1640.3013	33103.5	32212.7
901.4245	1642.0488	32941.1	32051.1
901.5665	1643.7955	33015.25	32128.45
901.7085	1645.5416	32897.6	32007.65
901.8504	1647.2868	32819.4	31932.5
901.9923	1649.0313	32836.15	31946.3
902.1342	1650.7751	32784.75	31892.55
902.2761	1652.5181	32777.95	31891.25
902.4179	1654.2604	32733.15	31844.15
902.5598	1656.0019	32797.9	31910.05
902.7016	1657.7427	32777.15	31888.6
902.8434	1659.4828	32818.9	31932.2
902.9852	1661.222	32807.05	31918.85
903.127	1662.9606	32743.05	31855.25
903.2687	1664.6984	32616.55	31726
903.4105	1666.4354	32471.9	31579.45
903.5522	1668.1717	32204.85	31313.95
903.6939	1669.9072	31931.5	31040.7
903.8356	1671.642	31776	30883.8
903.9773	1673.3761	31578.95	30689.4
904.119	1675.1094	31395.6	30506.95
904.2606	1676.8419	31169.3	30280.9
904.4022	1678.5737	31114.5	30225.7
904.5439	1680.3048	30962.65	30071.8
904.6855	1682.0351	30787.1	29897.75
904.827	1683.7646	30648.25	29755
904.9686	1685.4934	30617.9	29730.55
905.1101	1687.2215	30359.85	29470.05
905.2517	1688.9488	30336.5	29449.55
905.3932	1690.6754	30055.05	29166.75
905.5347	1692.4012	30111.35	29224.4
905.6761	1694.1263	30064.1	29175.05
905.8176	1695.8506	29917.4	29030.9
905.9591	1697.5742	29843.1	28953.9
906.1005	1699.297	29743.4	28855.4
906.2419	1701.0191	29650.15	28765.9
906.3833	1702.7404	29482.3	28594.8
906.5246	1704.461	29338.65	28447.85
906.666	1706.1808	29309.1	28418.8
906.8073	1707.8999	29200	28310.7
906.9487	1709.6182	29061.35	28174.55
907.09	1711.3358	29110.65	28226.05
907.2313	1713.0527	28977.95	28092.6
907.3725	1714.7688	28915.9	28028.25
907.5138	1716.4841	28680.55	27789.55
907.655	1718.1987	28705.5	27815.2
907.7962	1719.9126	28651.05	27767.75
907.9374	1721.6257	28598.5	27710.4
908.0786	1723.338	28566.65	27680
908.2198	1725.0496	28228.9	27342.05
908.3609	1726.7605	28278.2	27390.9
908.502	1728.4706	28146.5	27260.05
908.6431	1730.18	28074.5	27186.7
908.7842	1731.8886	27975.75	27089
908.9253	1733.5964	27927.75	27035.15
909.0664	1735.3036	27940.55	27049.95
909.2074	1737.0099	27819.45	26935.5
909.3484	1738.7156	27738.3	26854.6
909.4894	1740.4204	27643.4	26756.35
909.6304	1742.1246	27652.8	26762.7
909.7714	1743.8279	27567.8	26682.85
909.9123	1745.5306	27547.9	26662.7
910.0532	1747.2325	27307.15	26422.5
910.1941	1748.9336	27261.2	26374.1
910.335	1750.634	27228.6	26340
910.4759	1752.3336	27223.65	26338.9
910.6168	1754.0325	27059.75	26175.85
910.7576	1755.7307	27118.75	26235.95
910.8984	1757.4281	27010.35	26125.65
911.0392	1759.1247	27060.2	26166.25
911.18	1760.8206	26848.1	25956.5
911.3208	1762.5158	26856.4	25966.3
911.4615	1764.2102	26746.3	25859.55
911.6022	1765.9039	26699.7	25815.25
911.7429	1767.5968	26648.3	25763
911.8836	1769.289	26547.8	25661.7
912.0243	1770.9804	26516.95	25629.45
912.1649	1772.6711	26471.15	25586.1
912.3056	1774.361	26405.2	25517.3
912.4462	1776.0502	26305.85	25419.45
912.5868	1777.7386	26225.2	25336.75
912.7274	1779.4263	26219.05	25332.15
912.8679	1781.1132	26193.45	25309.35
913.0084	1782.7994	26061.85	25177.85
913.149	1784.4849	26079.3	25195.5
913.2895	1786.1696	25935.65	25032.1
913.4299	1787.8535	25885.15	25002.15
913.5704	1789.5367	25884.65	25002.3
913.7108	1791.2192	25826.85	24942.15
913.8513	1792.9009	25741.3	24828.75
913.9917	1794.5818	25671.25	24785.2
914.132	1796.2621	25550.4	24664.05
914.2724	1797.9415	25523.65	24638.45
914.4128	1799.6202	25479.2	24591.35
914.5531	1801.2982	25450.2	24564.25
914.6934	1802.9755	25378.9	24492.75
914.8337	1804.6519	25277.05	24393.25
914.9739	1806.3277	25225.5	24339.9
915.1142	1808.0027	25075.8	24192.6
915.2544	1809.6769	25136.7	24252.05
915.3946	1811.3504	25061.75	24177.6
915.5348	1813.0231	24929.2	24045.25
915.675	1814.6951	24962.85	24076.4
915.8151	1816.3664	24906	24017.85
915.9553	1818.0369	24834.7	23949.4
916.0954	1819.7067	24756.15	23871.6
916.2355	1821.3757	24762.9	23878.2
916.3755	1823.044	24668.5	23781.1
916.5156	1824.7115	24606.55	23719.85
916.6556	1826.3783	24523.55	23640.75
916.7956	1828.0443	24456.85	23573.6
916.9356	1829.7096	24408.9	23522.55
917.0756	1831.3741	24373.7	23486.25
917.2155	1833.0379	24330.05	23445.55
917.3555	1834.701	24244.05	23358.6
917.4954	1836.3633	24223.25	23337.9
917.6353	1838.0248	24154.3	23266.5
917.7751	1839.6856	24109.5	23224.5
917.915	1841.3457	24072.75	23189.15
918.0548	1843.005	24055.95	23169.7
918.1946	1844.6636	23979.9	23096.25
918.3344	1846.3214	23922.65	23038.05
918.4742	1847.9785	23924.85	23041.05
918.6139	1849.6349	23803	22916.9
918.7537	1851.2904	23831.75	22934.95
918.8934	1852.9453	23732.65	22846.1
919.0331	1854.5994	23634.5	22746.4
919.1727	1856.2528	23680.05	22787.1
919.3124	1857.9054	23604.25	22720.1
919.452	1859.5572	23526	22640.7
919.5916	1861.2083	23496.4	22613
919.7312	1862.8587	23532.1	22647.4
919.8708	1864.5084	23470.3	22584.35
920.0103	1866.1572	23395.6	22510.95
920.1498	1867.8054	23279.25	22393.45
920.2893	1869.4528	23206.4	22320.35
920.4288	1871.0994	23131.05	22244.9
920.5683	1872.7453	23124.05	22238.25
920.7077	1874.3905	23073.5	22181.45
920.8471	1876.0349	22969.95	22084.6
920.9865	1877.6786	23019.7	22131.8
921.1259	1879.3215	23003.3	22120.1
921.2653	1880.9637	22919.7	22032.1
921.4046	1882.6051	22910	22027.35
921.5439	1884.2458	22815.45	21929.45
921.6832	1885.8858	22739.65	21856.4
921.8225	1887.525	22715.05	21829.45
921.9617	1889.1634	22600.7	21713.55
922.101	1890.8011	22537.9	21652.1
922.2402	1892.4381	22482.55	21596.3
922.3794	1894.0743	22517.6	21630.4
922.5185	1895.7098	22430.7	21547.55
922.6577	1897.3446	22377	21490.3
922.7968	1898.9786	22319.1	21431.45
922.9359	1900.6118	22271.95	21389.8
923.075	1902.2443	22141.2	21253.75
923.214	1903.8761	22130.5	21246.8
923.3531	1905.5071	22027.35	21140.55
923.4921	1907.1374	21943.6	21057.9
923.6311	1908.7669	21914.15	21029.7
923.77	1910.3957	21899.3	21013.35
923.909	1912.0237	21739.1	20856.2
924.0479	1913.651	21720	20833.7
924.1868	1915.2776	21658.55	20774.45
924.3257	1916.9034	21560.45	20677.5
924.4646	1918.5285	21451.55	20566.6
924.6034	1920.1528	21378.3	20493.9
924.7422	1921.7764	21387.75	20502.15
924.881	1923.3992	21340.15	20455.75
925.0198	1925.0213	21152.25	20267.4
925.1586	1926.6427	21114.65	20231.25
925.2973	1928.2633	21239.75	20110.5
925.436	1929.8832	21014.75	20123.85
925.5747	1931.5023	20914.5	20026.95
925.7134	1933.1207	20849.35	19963.95
925.852	1934.7383	20801.35	19915.55
925.9906	1936.3552	20761	19878.35
926.1292	1937.9714	20714.1	19827.5
926.2678	1939.5868	20612.85	19727.2
926.4064	1941.2015	20492.8	19606.8
926.5449	1942.8154	20450.25	19563.8
926.6834	1944.4286	20361.05	19475.55
926.8219	1946.041	20337.2	19429.3
926.9604	1947.6528	20182.05	19292.6
927.0988	1949.2637	20172.1	19288.75
927.2372	1950.8739	20098.15	19214.2
927.3756	1952.4834	20076.05	19191.75
927.514	1954.0921	20027.1	19141.1
927.6523	1955.7001	19963.75	19075
927.7907	1957.3074	19848.3	18966.1
927.929	1958.9139	19795.85	18913
928.0673	1960.5197	19777.9	18892.95
928.2055	1962.1247	19684.45	18802.1
928.3438	1963.729	19581.85	18699.6
928.482	1965.3325	19501.95	18597.05
928.6202	1966.9353	19483.9	18601.7
928.7584	1968.5374	19427.95	18542.2
928.8965	1970.1387	19345.6	18462.65
929.0346	1971.7393	19258.85	18375.3
929.1727	1973.3392	19209.15	18327.25
929.3108	1974.9383	19126	18243.65
929.4489	1976.5366	19075.7	18193.4
929.5869	1978.1342	19058.2	18175.1
929.7249	1979.7311	19014.2	18130.7
929.8629	1981.3273	18940.9	18057.55
930.0009	1982.9227	18876.7	17991.65
930.1388	1984.5173	18843.55	17960.7
930.2767	1986.1112	18751.15	17866.9
930.4146	1987.7044	18704.65	17824.15
930.5525	1989.2968	18648.95	17765.7
930.6904	1990.8885	18608.15	17725.15
930.8282	1992.4795	18635.7	17754.7
930.966	1994.0697	18530.6	17648.35
931.1038	1995.6592	18462	17580.9
931.2415	1997.2479	18394.8	17511.85
931.3793	1998.8359	18338.75	17457.15
931.517	2000.4232	18238.15	17356.25
931.6547	2002.0097	18230.8	17352.1
931.7923	2003.5955	18141.5	17259.7
931.93	2005.1805	18145.9	17264.6
932.0676	2006.7648	18071.65	17191.05
932.2052	2008.3484	18017.2	17134.4
932.3427	2009.9312	18029.75	17148.65
932.4803	2011.5133	17962.55	17082.8
932.6178	2013.0946	17879.6	16999.1
932.7553	2014.6752	17855.15	16977.2
932.8928	2016.2551	17813.75	16930.95
933.0302	2017.8342	17745.35	16864.7
933.1676	2019.4126	17699.1	16817.35
933.305	2020.9902	17618.6	16740.4
933.4424	2022.5672	17617.6	16736.5
933.5798	2024.1433	17541	16657.4
933.7171	2025.7188	17473.1	16595.15
933.8544	2027.2935	17440.6	16559.95
933.9917	2028.8674	17356.6	16476.65
934.129	2030.4406	17293.7	16415.6
934.2662	2032.0131	17204.65	16324.7
934.4034	2033.5849	17155.5	16272.15
934.5406	2035.1559	17151.3	16273.75
934.6778	2036.7261	17120.45	16240.2
934.8149	2038.2957	17059.15	16178.45
934.952	2039.8645	17052.9	16172
935.0891	2041.4325	17058.65	16174.5
935.2262	2042.9998	16953.5	16073.2
935.3632	2044.5664	16933.25	16049.4
935.5002	2046.1323	16851.45	15971.15
935.6372	2047.6974	16813.6	15933.8
935.7742	2049.2617	16782.5	15904.75
935.9111	2050.8254	16767.65	15883.25
936.048	2052.3883	16751.6	15869.9
936.1849	2053.9504	16673.2	15791.5
936.3218	2055.5118	16571.9	15689.3
936.4586	2057.0725	16550.3	15666.6
936.5955	2058.6325	16515.6	15636.4
936.7323	2060.1917	16477.95	15600.4
936.869	2061.7502	16462.05	15577.85
937.0058	2063.3079	16362.6	15484.45
937.1425	2064.8649	16322.5	15438.4
937.2792	2066.4212	16289.45	15409.5
937.4159	2067.9767	16229.25	15348.15
937.5525	2069.5315	16165.15	15283.2
937.6891	2071.0856	16132.5	15249.95
937.8257	2072.6389	16063.65	15182.8
937.9623	2074.1915	15947.9	15069.45
938.0989	2075.7433	15889.65	15007.3
938.2354	2077.2945	15889.9	15012.2
938.3719	2078.8448	15821	14938.95
938.5084	2080.3945	15779.85	14898
938.6448	2081.9434	15773.9	14892.9
938.7812	2083.4916	15737.2	14855.7
938.9176	2085.039	15667.7	14784.1
939.054	2086.5857	15637.25	14751.75
939.1903	2088.1317	15591.35	14707.45
939.3267	2089.677	15558.9	14676.4
939.463	2091.2215	15504	14620.65
939.5992	2092.7652	15513.95	14629.7
939.7355	2094.3083	15449.05	14565.7
939.8717	2095.8506	15408.7	14526.1
940.0079	2097.3921	15392.25	14511.2
940.1441	2098.933	15344.35	14461.85
940.2802	2100.4731	15293.3	14410.85
940.4163	2102.0124	15304.9	14404.85
940.5524	2103.5511	15262.45	14379.5
940.6885	2105.089	15219.95	14336.55
940.8245	2106.6261	15189.2	14308.15
940.9606	2108.1626	15161.75	14279.1
941.0965	2109.6983	15165.1	14254.8
941.2325	2111.2332	15088	14204.9
941.3684	2112.7675	15061.95	14178.85
941.5044	2114.301	14988.35	14105.45
941.6403	2115.8337	14969.45	14086.3
941.7761	2117.3657	14919.75	14037.45
941.912	2118.897	14876.55	13993.2
942.0478	2120.4276	14820.85	13931.7
942.1835	2121.9575	14773.2	13891.5
942.3193	2123.4866	14781.2	13886.1
942.455	2125.0149	14721.4	13836.75
942.5907	2126.5426	14640.8	13761.75
942.7264	2128.0695	14648	13762.75
942.8621	2129.5956	14605.05	13726.5
942.9977	2131.1211	14596.95	13710.3
943.1333	2132.6458	14501.3	13619.15
943.2689	2134.1698	14510.7	13628.3
943.4044	2135.693	14448.9	13561.5
943.54	2137.2155	14422.6	13538.7
943.6755	2138.7373	14387.05	13504.4
943.8109	2140.2584	14343.65	13462.4
943.9464	2141.7787	14303.45	13415.95
944.0818	2143.2983	14214	13333.7
944.2172	2144.8171	14149.35	13270.25
944.3526	2146.3353	14135.35	13252.35
944.4879	2147.8527	14097.2	13218.25
944.6232	2149.3693	14074.45	13193.65
944.7585	2150.8853	14022	13140.1
944.8938	2152.4005	13958.25	13074.55
945.029	2153.9149	13938.4	13052.1
945.1642	2155.4287	13903.3	13020.3
945.2994	2156.9417	13890.45	13006.65
945.4346	2158.454	13837.25	12951
945.5697	2159.9655	13796.95	12914.55
945.7048	2161.4764	13787.75	12907.3
945.8399	2162.9865	13708.7	12828.15
945.9749	2164.4958	13714.3	12830.75
946.1099	2166.0045	13645.45	12760.55
946.2449	2167.5124	13640.65	12760.55
946.3799	2169.0195	13612.65	12732.45
946.5148	2170.526	13585.85	12701.05
946.6498	2172.0317	13539.65	12655.4
946.7846	2173.5367	13514.5	12632.15
946.9195	2175.0409	13442.45	12561.9
947.0543	2176.5445	13433.9	12553.15
947.1891	2178.0473	13369.6	12485.75
947.3239	2179.5494	13320	12435.15
947.4587	2181.0507	13289.3	12407.55
947.5934	2182.5513	13280.05	12397.5
947.7281	2184.0512	13226.4	12345.2
947.8628	2185.5504	13172.45	12291.65
947.9974	2187.0488	13118.8	12237.3
948.132	2188.5465	13078.7	12197.5
948.2666	2190.0435	13027.5	12146.15
948.4012	2191.5397	12983.65	12101.95
948.5357	2193.0353	12926.2	12044.1
948.6702	2194.5301	12892.2	12006.35
948.8047	2196.0241	12873.9	11988.6
948.9392	2197.5175	12803.7	11918.05
949.0736	2199.0101	12776.7	11890.15
949.208	2200.502	12715.65	11835.65
949.3424	2201.9931	12661.4	11780.5
949.4767	2203.4835	12624.8	11741
949.611	2204.9733	12614.55	11725.55
949.7453	2206.4622	12600.05	11719.8
949.8796	2207.9505	12527.4	11644.7
950.0138	2209.438	12454.5	11577
950.148	2210.9248	12443.85	11562.75
950.2822	2212.4109	12382.2	11501.8
950.4164	2213.8962	12347.15	11461.05
950.5505	2215.3809	12354.7	11469.15
950.6846	2216.8648	12321.8	11437.95
950.8186	2218.3479	12309.75	11421.1
950.9527	2219.8304	12245.7	11356.55
951.0867	2221.3121	12195.85	11308.35
951.2207	2222.7931	12134.1	11251.9
951.3546	2224.2733	12129.85	11246.95
951.4886	2225.7529	12071.95	11187.95
951.6225	2227.2317	12031.9	11148.65
951.7563	2228.7098	12029.7	11149
951.8902	2230.1872	11946.1	11064.3
952.024	2231.6638	11944.75	11063.8
952.1578	2233.1397	11877.95	10991.35
952.2916	2234.6149	11885.5	11004.45
952.4253	2236.0894	11812.5	10928.7
952.559	2237.5632	11811.1	10919.45
952.6927	2239.0362	11741.6	10858.5
952.8263	2240.5085	11699.7	10819.05
952.9599	2241.9801	11665.15	10783.55
953.0935	2243.4509	11645.35	10762.4
953.2271	2244.921	11601.25	10718.1
953.3606	2246.3904	11544.1	10660.45
953.4941	2247.8591	11527.05	10644.3
953.6276	2249.3271	11481	10597.4
953.7611	2250.7943	11441.85	10555.3
953.8945	2252.2608	11379.85	10495.7
954.0279	2253.7266	11381.5	10498
954.1612	2255.1917	11361.95	10477.5
954.2946	2256.656	11320.15	10437.3
954.4279	2258.1197	11282.2	10403.7
954.5612	2259.5826	11249.05	10363.75
954.6944	2261.0447	11220.35	10339.15
954.8276	2262.5062	11182.55	10298.05
954.9608	2263.9669	11175.9	10291.15
955.094	2265.4269	11149.95	10267.6
955.2271	2266.8862	11123.35	10241.8
955.3602	2268.3448	11096.1	10212.05
955.4933	2269.8026	11055.9	10174.05
955.6264	2271.2598	11042.5	10160.3
955.7594	2272.7162	10967.85	10086.2
955.8924	2274.1719	10937.25	10054.1
956.0253	2275.6268	10908.75	10023.5
956.1583	2277.0811	10914.8	10031.65
956.2912	2278.5346	10856.85	9975.6
956.4241	2279.9874	10845	9962
956.5569	2281.4395	10829.05	9949.45
956.6897	2282.8908	10782.2	9894.95
956.8225	2284.3414	10787.35	9903.55
956.9553	2285.7914	10725.45	9843.8
957.088	2287.2406	10708.2	9823.7
957.2207	2288.689	10672.2	9790.3
957.3534	2290.1368	10632.1	9745.8
957.486	2291.5838	10596.4	9711.8
957.6186	2293.0302	10568.15	9682.75
957.7512	2294.4758	10535	9649.5
957.8838	2295.9206	10507.9	9622.9
958.0163	2297.3648	10449.85	9566.45
958.1488	2298.8082	10478.6	9592.9
958.2813	2300.251	10409.45	9527.6
958.4137	2301.693	10360.55	9473.65
958.5461	2303.1343	10372	9486.55
958.6785	2304.5748	10323.75	9440.8
958.8108	2306.0147	10286.9	9402.9
958.9432	2307.4538	10262.55	9378.1
959.0754	2308.8922	10222.6	9342.95
959.2077	2310.3299	10183.35	9300.65
959.3399	2311.7669	10161.95	9281.05
959.4721	2313.2031	10149.15	9264.9
959.6043	2314.6387	10098.35	9216.5
959.7365	2316.0735	10088.7	9203.2
959.8686	2317.5076	10076.4	9193.5
960.0006	2318.941	10041.7	9157.25
960.1327	2320.3737	10008.4	9125.4
960.2647	2321.8056	9969.8	9084.15
960.3967	2323.2369	9972.8	9090.35
960.5287	2324.6674	9898.75	9012.85
960.6606	2326.0972	9880.95	8995.8
960.7925	2327.5263	9853.2	8969.45
960.9244	2328.9547	9825.55	8940.5
961.0562	2330.3823	9797.25	8910.8
961.1881	2331.8092	9789.15	8902.9
961.3198	2333.2355	9763.9	8879.45
961.4516	2334.661	9749.8	8864.75
961.5833	2336.0858	9710.6	8823.55
961.715	2337.5098	9666.5	8783.05
961.8467	2338.9332	9681.45	8796
961.9783	2340.3558	9611.95	8724.65
962.1099	2341.7778	9601.1	8716.6
962.2415	2343.199	9556.35	8672.05
962.373	2344.6195	9550.05	8666.9
962.5045	2346.0393	9506.75	8624.95
962.636	2347.4583	9509.95	8624.6
962.7675	2348.8767	9452.9	8569.25
962.8989	2350.2943	9430.25	8544.9
963.0303	2351.7113	9436.15	8547.2
963.1617	2353.1275	9380.6	8493.45
963.293	2354.543	9364.6	8471.85
963.4243	2355.9578	9330.1	8445.05
963.5556	2357.3718	9249.85	8366.05
963.6868	2358.7852	9237.8	8350.65
963.818	2360.1978	9189.9	8304.1
963.9492	2361.6098	9183.25	8300.3
964.0803	2363.021	9142.8	8256.1
964.2114	2364.4315	9128.1	8243.5
964.3425	2365.8413	9111.5	8226.5
964.4736	2367.2504	9071.35	8189.3
964.6046	2368.6587	9036.8	8152.45
964.7356	2370.0664	9004.4	8121.25
964.8666	2371.4733	8976.3	8093.2
964.9975	2372.8795	8962.75	8080.8
965.1284	2374.285	8915.85	8030.05
965.2593	2375.6899	8852.85	7973.1
965.3901	2377.0939	8845.95	7963
965.5209	2378.4973	8815.4	7933.25
965.6517	2379.9	8767.6	7883.5
965.7825	2381.3019	8742.85	7861.25
965.9132	2382.7032	8728.75	7846.3
966.0439	2384.1037	8708.55	7828.45
966.1745	2385.5035	8651.9	7768.35
966.3051	2386.9027	8639.85	7760
966.4357	2388.3011	8626.55	7741.8
966.5663	2389.6987	8586.6	7704.4
966.6968	2391.0957	8568.95	7687.45
966.8273	2392.492	8542.1	7661.65
966.9578	2393.8876	8501.65	7617
967.0882	2395.2824	8487.75	7605.25
967.2186	2396.6765	8431.15	7546.8
967.349	2398.07	8380.75	7498.05
967.4793	2399.4627	8390.9	7506.2
967.6097	2400.8547	8350.35	7467.5
967.7399	2402.246	8341.4	7451.55
967.8702	2403.6366	8294.5	7411.5
968.0004	2405.0265	8263.65	7381.45
968.1306	2406.4156	8212.15	7325.15
968.2607	2407.8041	8206.85	7322.35
968.3909	2409.1918	8179.1	7294.35
968.521	2410.5789	8132.15	7250.2
968.651	2411.9652	8099.6	7212.6
968.781	2413.3508	8068	7184.95
968.911	2414.7358	8039.25	7154.7
969.041	2416.12	8027.35	7144.95
969.1709	2417.5035	8022.9	7140.35
969.3008	2418.8863	7985.5	7101.95
969.4307	2420.2684	7959.3	7074.6
969.5606	2421.6497	7897.1	7013.75
969.6904	2423.0304	7855.4	6972.85
969.8201	2424.4104	7847.45	6964.5
969.9499	2425.7896	7839.15	6954.25
970.0796	2427.1682	7798.4	6916
970.2093	2428.546	7800.3	6916.35
970.3389	2429.9232	7777.9	6891.95
970.4685	2431.2996	7780.15	6896.25
970.5981	2432.6753	7756.7	6871.75
970.7277	2434.0503	7701.85	6817.7
970.8572	2435.4246	7676.65	6791.15
970.9867	2436.7982	7669.35	6783.5
971.1161	2438.1711	7646.05	6761.1
971.2456	2439.5433	7615.65	6729.65
971.375	2440.9148	7580.55	6692.75
971.5043	2442.2856	7566.25	6684.15
971.6336	2443.6557	7546.35	6663.5
971.7629	2445.025	7520	6635.05
971.8922	2446.3937	7490.8	6605.95
972.0214	2447.7617	7466.5	6582
972.1506	2449.1289	7456.45	6572.2
972.2798	2450.4955	7454.6	6567.4
972.4089	2451.8613	7406.1	6525.25
972.538	2453.2265	7388.1	6504.55
972.6671	2454.5909	7391.05	6508.2
972.7961	2455.9546	7356.65	6473.65
972.9251	2457.3177	7323.1	6437.85
973.0541	2458.68	7307.45	6422.75
973.1831	2460.0416	7317.7	6432.9
973.312	2461.4025	7288.4	6403
973.4408	2462.7627	7274.85	6381.4
973.5697	2464.1222	7236	6356.45
973.6985	2465.4811	7226.2	6342.4
973.8273	2466.8392	7201.3	6317.75
973.956	2468.1966	7193.45	6308.6
974.0847	2469.5533	7169.4	6284.9
974.2134	2470.9093	7157.3	6273.65
974.3421	2472.2645	7148.3	6264.3
974.4707	2473.6191	7119.1	6236.85
974.5993	2474.973	7076.95	6193.05
974.7278	2476.3262	7076.1	6189.5
974.8563	2477.6787	7029.15	6146.55
974.9848	2479.0305	7024.65	6141.7
975.1132	2480.3816	6982.75	6097.5
975.2417	2481.7319	6941.85	6061.75
975.37	2483.0816	6941.05	6055.6
975.4984	2484.4306	6924.25	6041.95
975.6267	2485.7789	6908.35	6025.8
975.755	2487.1264	6859.6	5977.75
975.8833	2488.4733	6830.3	5948.3
976.0115	2489.8195	6808.9	5918.4
976.1397	2491.165	6812.4	5926.65
976.2678	2492.5097	6764.8	5879.9
976.3959	2493.8538	6728.05	5846.25
976.524	2495.1972	6703.95	5820.4
976.6521	2496.5398	6688.5	5802.4
976.7801	2497.8818	6679.6	5794.65
976.9081	2499.2231	6654.7	5769.95
977.036	2500.5637	6636.75	5752
977.164	2501.9035	6624.5	5738.9
977.2918	2503.2427	6614.4	5727.05
977.4197	2504.5812	6581.9	5699.35
977.5475	2505.919	6568	5682.8
977.6753	2507.256	6543.3	5659.2
977.8031	2508.5924	6530.6	5644.7
977.9308	2509.9281	6512.65	5623.1
978.0585	2511.2631	6482.5	5598.5
978.1861	2512.5974	6472.35	5590.55
978.3137	2513.9309	6429.95	5547.9
978.4413	2515.2638	6435.05	5524.05
978.5689	2516.596	6403	5518.7
978.6964	2517.9275	6388.15	5505.1
978.8239	2519.2583	6362.7	5479.65
978.9513	2520.5884	6322.9	5436.75
979.0788	2521.9178	6324.2	5440
979.2062	2523.2465	6306.15	5424.9
979.3335	2524.5745	6287.35	5405.15
979.4608	2525.9018	6252.5	5370
979.5881	2527.2284	6230.65	5349.75
979.7154	2528.5543	6224.5	5340.35
979.8426	2529.8796	6202.5	5318.95
979.9698	2531.2041	6200	5315.35
980.0969	2532.5279	6177.55	5296.3
980.224	2533.851	6157.8	5275.3
980.3511	2535.1735	6133.75	5250.65
980.4781	2536.4952	6134.2	5249.4
980.6052	2537.8163	6129.3	5244.7
980.7321	2539.1366	6108.4	5225.5
980.8591	2540.4562	6069.65	5184.3
980.986	2541.7752	6072.6	5189.45
981.1129	2543.0935	6063.1	5177.05
981.2397	2544.411	6050.5	5167.45
981.3665	2545.7279	6040.4	5156.1
981.4933	2547.0441	6019	5135.15
981.62	2548.3596	5993.2	5106.35
981.7467	2549.6744	6000.95	5116.5
981.8734	2550.9885	5992.3	5100.2
982.0001	2552.3019	5963.7	5079.75
982.1267	2553.6146	5964.3	5081.8
982.2532	2554.9266	5930.5	5046.1
982.3798	2556.2379	5906.75	5022.4
982.5063	2557.5485	5900.4	5017.6
982.6327	2558.8585	5880.75	4990.05
982.7592	2560.1677	5870.85	4982.8
982.8856	2561.4762	5866.2	4981.9
983.0119	2562.7841	5866.85	4981.9
983.1383	2564.0913	5846.6	4963.75
983.2646	2565.3977	5834.8	4951.25
983.3908	2566.7035	5818.45	4934.3
983.517	2568.0086	5810.1	4926.3
983.6432	2569.313	5793.5	4907.4
983.7694	2570.6167	5779.85	4892.75
983.8955	2571.9197	5775.1	4891.75
984.0216	2573.222	5794.05	4907.9
984.1476	2574.5236	5749.5	4865.5
984.2737	2575.8246	5736.6	4852
984.3996	2577.1248	5729.8	4845
984.5256	2578.4244	5707.1	4823.5
984.6515	2579.7232	5710.65	4826.15
984.7774	2581.0214	5700.5	4793.05
984.9032	2582.3189	5669.1	4784.5
985.029	2583.6157	5662.7	4775.35
985.1548	2584.9118	5642.2	4759.8
985.2806	2586.2072	5624	4741.55
985.4063	2587.5019	5618.6	4735.5
985.5319	2588.7959	5595.35	4710.45
985.6576	2590.0893	5600.6	4717.45
985.7832	2591.3819	5572.25	4690.45
985.9087	2592.6739	5562.05	4680.8
986.0343	2593.9652	5545.35	4662.15
986.1597	2595.2557	5551.5	4667.35
986.2852	2596.5456	5513.3	4627.1
986.4106	2597.8348	5486.35	4604.5
986.536	2599.1234	5475	4591.4
986.6614	2600.4112	5456.8	4573.35
986.7867	2601.6983	5445.6	4557.15
986.912	2602.9848	5408.7	4525.4
987.0372	2604.2705	5398.45	4509.9
987.1624	2605.5556	5388.5	4506.1
987.2876	2606.84	5367.85	4484.4
987.4128	2608.1237	5354.4	4469.3
987.5379	2609.4067	5331.5	4446.9
987.6629	2610.689	5307.3	4415.45
987.788	2611.9707	5316.1	4430.05
987.913	2613.2516	5274.7	4388.3
988.0379	2614.5319	5246.35	4364.85
988.1629	2615.8115	5218.55	4334.55
988.2878	2617.0903	5211.45	4328.8
988.4126	2618.3685	5200.85	4317.5
988.5375	2619.6461	5191.1	4306.9
988.6622	2620.9229	5160.2	4277
988.787	2622.199	5167.15	4281.6
988.9117	2623.4745	5154.8	4272.9
989.0364	2624.7493	5127.1	4243.35
989.161	2626.0234	5115.8	4233.3
989.2857	2627.2968	5086.8	4201.25
989.4102	2628.5695	5077.55	4195
989.5348	2629.8415	5041.3	4159.2
989.6593	2631.1128	5050	4164.05
989.7837	2632.3835	5012.7	4129.65
989.9082	2633.6535	4995.8	4112.7
990.0326	2634.9228	4974.85	4094.1
990.1569	2636.1914	4953.1	4070.7
990.2812	2637.4593	4956.4	4068.35
990.4055	2638.7265	4939.35	4053.7
990.5298	2639.9931	4928.1	4045.65
990.654	2641.259	4910.75	4026.7
990.7782	2642.5242	4904.1	4019.65
990.9023	2643.7887	4902.55	4018.05
991.0264	2645.0525	4872.25	3987.35
991.1505	2646.3156	4845.55	3961.15
991.2745	2647.5781	4827.3	3944.2
991.3985	2648.8398	4820.25	3937.15
991.5225	2650.1009	4805.7	3914.45
991.6464	2651.3613	4808.05	3924.25
991.7703	2652.6211	4773.3	3891.75
991.8942	2653.8801	4768.5	3886.75
992.018	2655.1385	4776.5	3889.9
992.1418	2656.3961	4746.05	3862.35
992.2655	2657.6531	4750.15	3867.8
992.3892	2658.9094	4749.3	3867
992.5129	2660.1651	4732.6	3852.05
992.6366	2661.42	4713.85	3831.6
992.7602	2662.6743	4705.35	3821.25
992.8837	2663.9279	4697.2	3815.3
993.0073	2665.1808	4681.3	3796.4
993.1307	2666.433	4668.95	3785.25
993.2542	2667.6846	4651.25	3767.2
993.3776	2668.9354	4645.7	3759
993.501	2670.1856	4620.45	3738.4
993.6244	2671.4351	4621	3737.3
993.7477	2672.6839	4606.75	3722.25
993.8709	2673.9321	4577.3	3695.45
993.9942	2675.1795	4567.95	3685.7
994.1174	2676.4263	4572.35	3690.7
994.2405	2677.6724	4552.25	3669.5
994.3637	2678.9179	4544.8	3661.35
994.4868	2680.1626	4531	3647.85
994.6098	2681.4067	4521.75	3637.15
994.7328	2682.6501	4511	3629.45
994.8558	2683.8928	4491.6	3608.45
994.9788	2685.1348	4473.35	3591.7
995.1017	2686.3761	4468.15	3587.7
995.2245	2687.6168	4454.3	3572.55
995.3474	2688.8568	4446.7	3565.5
995.4702	2690.0961	4425.3	3542.3
995.5929	2691.3348	4412.05	3529.7
995.7156	2692.5727	4408.75	3527.2
995.8383	2693.81	4390.35	3508.85
995.961	2695.0466	4380.4	3500.15
996.0836	2696.2826	4361.75	3477.35
996.2062	2697.5178	4357.35	3471.45
996.3287	2698.7524	4338.35	3455.6
996.4512	2699.9863	4341.9	3458.05
996.5737	2701.2195	4323.5	3441.45
996.6961	2702.452	4299.45	3416.1
996.8185	2703.6839	4293.9	3410.15
996.9408	2704.9151	4288.65	3407.9
997.0631	2706.1456	4282.4	3400.6
997.1854	2707.3755	4278.4	3395.75
997.3077	2708.6046	4272.4	3387.35
997.4299	2709.8331	4246.2	3364.15
997.552	2711.0609	4231.25	3350.3
997.6742	2712.2881	4222.85	3340.15
997.7963	2713.5145	4231.4	3348.4
997.9183	2714.7403	4198.35	3318.15
998.0403	2715.9654	4178.1	3294.55
998.1623	2717.1899	4176.85	3280.8
998.2842	2718.4136	4182.35	3300.3
998.4062	2719.6367	4167.1	3281.95
998.528	2720.8591	4160.7	3272.85
998.6498	2722.0809	4134.7	3251.9
998.7716	2723.3019	4135.6	3249.4
998.8934	2724.5223	4138.65	3257.05
999.0151	2725.7421	4106.4	3220.95
999.1368	2726.9611	4103.35	3219.9
999.2584	2728.1795	4086.9	3200.1
999.38	2729.3972	4084.95	3204.65
999.5016	2730.6142	4070.4	3173.45
999.6231	2731.8306	4043.55	3161.15
999.7446	2733.0462	4023.05	3141.05
999.8661	2734.2612	4016.55	3130.15
999.9875	2735.4756	3993.15	3109.05
1000.1089	2736.6892	3970.35	3088.4
1000.2302	2737.9022	3935.75	3054.2
1000.3515	2739.1145	3927.1	3045.6
1000.4728	2740.3262	3915.6	3025.05
1000.594	2741.5372	3891.3	3009.35
1000.7152	2742.7475	3874.95	2991.85
1000.8363	2743.9571	3865.95	2983
1000.9575	2745.1661	3847.05	2961.05
1001.0785	2746.3744	3833.1	2949.35
1001.1996	2747.582	3840.9	2959.85
1001.3206	2748.7889	3823.05	2939
1001.4415	2749.9952	3790.55	2909.95
1001.5625	2751.2008	3787.45	2904.1
1001.6833	2752.4057	3783.8	2898.95
1001.8042	2753.61	3767.85	2886.25
1001.925	2754.8136	3762.05	2879.15
1002.0458	2756.0165	3758.15	2876.65
1002.1665	2757.2188	3739.55	2858.55
1002.2872	2758.4204	3734.85	2854.6
1002.4078	2759.6213	3720.4	2836.4
1002.5285	2760.8215	3696.7	2810.5
1002.649	2762.0211	3701.95	2815.3
1002.7696	2763.22	3684.35	2799.45
1002.8901	2764.4182	3680.05	2794.95
1003.0106	2765.6158	3663.35	2781.75
1003.131	2766.8127	3655.55	2772.65
1003.2514	2768.009	3631.05	2749.55
1003.3717	2769.2045	3631.1	2748.35
1003.492	2770.3994	3629.6	2746.45
1003.6123	2771.5936	3625.2	2740.65
1003.7325	2772.7872	3595.65	2714.6
1003.8527	2773.9801	3575.4	2693.75
1003.9729	2775.1723	3588.85	2688.5
1004.093	2776.3639	3566.7	2686.6
1004.2131	2777.5548	3548.7	2664.2
1004.3331	2778.745	3549.6	2666.4
1004.4531	2779.9346	3546.1	2665.45
1004.5731	2781.1235	3526.3	2644.1
1004.693	2782.3117	3514.6	2632.7
1004.8129	2783.4992	3501.6	2620.3
1004.9328	2784.6861	3483.85	2601.75
1005.0526	2785.8723	3504.45	2623.5
1005.1723	2787.0579	3486.15	2605.15
1005.2921	2788.2428	3467.95	2585.65
1005.4118	2789.427	3451.55	2569.85
1005.5314	2790.6106	3456.65	2575.3
1005.651	2791.7935	3459.15	2577
1005.7706	2792.9757	3450.75	2570.85
1005.8902	2794.1573	3422.8	2538.4
1006.0097	2795.3382	3421.05	2539.6
1006.1291	2796.5184	3413.3	2534.1
1006.2485	2797.698	3416.7	2532.25
1006.3679	2798.8769	3405.45	2523.55
1006.4873	2800.0551	3395.1	2513
1006.6066	2801.2327	3383.55	2496.9
1006.7258	2802.4096	3385.4	2505.9
1006.8451	2803.5859	3394.55	2512
1006.9642	2804.7615	3375.15	2492.55
1007.0834	2805.9364	3392.7	2512.4
1007.2025	2807.1106	3384.95	2503.7
1007.3216	2808.2842	3384.8	2502.1
1007.4406	2809.4572	3385	2503.4
1007.5596	2810.6294	3387.85	2504.45
1007.6785	2811.801	3391.55	2510.45
1007.7975	2812.972	3403	2521.05
1007.9163	2814.1423	3395.9	2513.55
1008.0352	2815.3119	3415.3	2534.3
1008.154	2816.4808	3419.8	2538.85
1008.2727	2817.6491	3436.1	2552.45
1008.3914	2818.8167	3440.6	2560.6
1008.5101	2819.9837	3474.3	2588.75
1008.6288	2821.15	3489.45	2607.6
1008.7474	2822.3157	3494.5	2614.75
1008.8659	2823.4807	3515	2634.55
1008.9844	2824.645	3525.65	2643.2
1009.1029	2825.8086	3545.7	2665.7
1009.2214	2826.9716	3556.5	2676.3
1009.3398	2828.134	3573.65	2692.1
1009.4581	2829.2957	3610.25	2726.5
1009.5764	2830.4567	3604.3	2723.75
1009.6947	2831.617	3606.65	2724
1009.813	2832.7767	3609.55	2727.05
1009.9312	2833.9358	3594.2	2715.6
1010.0493	2835.0941	3602.35	2720.05
1010.1675	2836.2519	3572.25	2691.7
1010.2855	2837.4089	3566.95	2687.35
1010.4036	2838.5653	3551.45	2670.15
1010.5216	2839.7211	3540.35	2659.95
1010.6396	2840.8761	3537.15	2655.1
1010.7575	2842.0306	3530	2648.3
1010.8754	2843.1843	3523.45	2643.3
1010.9932	2844.3374	3548.5	2667.8
1011.111	2845.4899	3561.85	2679.65
1011.2288	2846.6417	3576.9	2695.95
1011.3465	2847.7928	3599.35	2718
1011.4642	2848.9433	3620.75	2739.3
1011.5818	2850.0931	3640.55	2758.05
1011.6995	2851.2422	3653.95	2770.45
1011.817	2852.3907	3659.05	2777.7
1011.9345	2853.5385	3670.6	2789.8
1012.052	2854.6857	3720.25	2828.15
1012.1695	2855.8323	3713.55	2834.7
1012.2869	2856.9781	3729.2	2848.75
1012.4042	2858.1233	3746.7	2867.5
1012.5216	2859.2679	3759.45	2879.7
1012.6389	2860.4118	3763.8	2880.15
1012.7561	2861.555	3778.7	2891.65
1012.8733	2862.6976	3795.85	2912.3
1012.9905	2863.8395	3773.35	2894
1013.1076	2864.9808	3801.6	2921.1
1013.2247	2866.1214	3792.6	2911.15
1013.3417	2867.2614	3801.95	2924.35
1013.4587	2868.4007	3778.9	2895.75
1013.5757	2869.5393	3792.1	2909.15
1013.6926	2870.6773	3800.8	2916.45
1013.8095	2871.8146	3792.7	2909.75
1013.9263	2872.9513	3785.2	2903.4
1014.0431	2874.0874	3755.25	2874.5
1014.1599	2875.2227	3748.15	2864.75
1014.2766	2876.3574	3727.8	2847.95
1014.3933	2877.4915	3705.35	2824.05
1014.51	2878.6249	3697.45	2817
1014.6266	2879.7577	3669.9	2788.25
1014.7431	2880.8898	3662.65	2772
1014.8596	2882.0212	3651.75	2771.75
1014.9761	2883.152	3633.95	2752.45
1015.0925	2884.2821	3628.5	2749.2
1015.2089	2885.4116	3601.75	2720.75
1015.3253	2886.5405	3601.5	2721.45
1015.4416	2887.6686	3590.6	2707.6
1015.5579	2888.7962	3581.1	2701.6
1015.6741	2889.923	3580.2	2701.8
1015.7903	2891.0493	3588.5	2709.85
1015.9065	2892.1748	3584.4	2704.5
1016.0226	2893.2997	3573.45	2691.3
1016.1387	2894.424	3576.6	2698.2
1016.2547	2895.5476	3584	2703.25
1016.3707	2896.6706	3566.95	2688.75
1016.4866	2897.7929	3565.8	2684.5
1016.6025	2898.9145	3580.7	2701.95
1016.7184	2900.0355	3578	2695.65
1016.8342	2901.1559	3583.2	2701.4
1016.95	2902.2756	3593.25	2713.95
1017.0658	2903.3946	3597.65	2714.9
1017.1815	2904.513	3608.1	2726.75
1017.2971	2905.6308	3615.45	2734.45
1017.4127	2906.7479	3583	2702
1017.5283	2907.8643	3608.15	2728.3
1017.6439	2908.9801	3611.55	2730.5
1017.7594	2910.0953	3597.8	2717.6
1017.8748	2911.2098	3586.55	2702
1017.9902	2912.3236	3588.3	2699.55
1018.1056	2913.4368	3578.25	2695.85
1018.2209	2914.5494	3557.2	2674.85
1018.3362	2915.6613	3555.1	2669.2
1018.4515	2916.7725	3524.85	2641.3
1018.5667	2917.8831	3502.75	2620.45
1018.6819	2918.9931	3475.25	2592.05
1018.797	2920.1024	3461.3	2578.6
1018.9121	2921.211	3461.25	2579.8
1019.0271	2922.319	3440.05	2558.65
1019.1421	2923.4264	3427.9	2548.1
1019.2571	2924.5331	3424.25	2545.8
1019.372	2925.6391	3405.6	2524.25
1019.4869	2926.7445	3399.65	2521.85
1019.6017	2927.8493	3396.5	2516.35
1019.7165	2928.9534	3390.6	2511.35
1019.8313	2930.0569	3388.75	2506.7
1019.946	2931.1597	3381.35	2499.3
1020.0606	2932.2619	3376.85	2497.2
1020.1753	2933.3634	3381.5	2500.7
1020.2899	2934.4643	3376.25	2488.85
1020.4044	2935.5645	3360.75	2474.55
1020.5189	2936.6641	3356	2471.4
1020.6334	2937.763	3325.05	2446.7
1020.7478	2938.8613	3299.45	2418.75
1020.8622	2939.959	3282.15	2395.85
1020.9765	2941.056	3241.45	2364
1021.0908	2942.1523	3207.9	2325.7
1021.2051	2943.248	3178.1	2297.15
1021.3193	2944.3431	3119.6	2239.9
1021.4334	2945.4375	3085.3	2204.45
1021.5476	2946.5313	3030.4	2150.95
1021.6617	2947.6244	2981.65	2100.6
1021.7757	2948.7169	2940.45	2059.5
1021.8897	2949.8087	2889.1	2007.45
1022.0037	2950.8999	2858.1	1977.6
1022.1176	2951.9904	2803.1	1922.55
1022.2315	2953.0803	2784.2	1902.45
1022.3453	2954.1696	2758.9	1879.35
1022.4591	2955.2582	2723.9	1844.4
1022.5728	2956.3462	2694.55	1812.55
1022.6865	2957.4335	2661.2	1780.5
1022.8002	2958.5202	2637.95	1754.35
1022.9138	2959.6062	2628.4	1747.85
1023.0274	2960.6916	2614.7	1732.85
1023.141	2961.7764	2609.75	1729.35
1023.2545	2962.8605	2592.8	1710.7
1023.3679	2963.9439	2588.75	1709.1
1023.4813	2965.0267	2573.7	1692.8
1023.5947	2966.1089	2576.2	1671.9
1023.708	2967.1905	2555	1673.7
1023.8213	2968.2714	2539.95	1659.25
1023.9346	2969.3516	2538.3	1656.6
1024.0478	2970.4312	2545.7	1660
1024.1609	2971.5102	2532.6	1653.45
1024.274	2972.5885	2529.8	1649.65
1024.3871	2973.6662	2524.1	1639.4
1024.5002	2974.7432	2523.3	1642.25
1024.6132	2975.8196	2510.2	1629.35
1024.7261	2976.8954	2490.65	1612.4
1024.839	2977.9705	2495.6	1615.2
1024.9519	2979.045	2478.8	1599.85
1025.0647	2980.1188	2473.8	1593.45
1025.1775	2981.192	2458.7	1579.7
1025.2902	2982.2645	2439.2	1557.9
1025.4029	2983.3364	2424.9	1544.15
1025.5156	2984.4077	2409.55	1528.2
1025.6282	2985.4783	2408	1521.9
1025.7407	2986.5483	2389.55	1509.9
1025.8532	2987.6177	2365.2	1487.5
1025.9657	2988.6864	2350.15	1469.1
1026.0782	2989.7545	2334.15	1453.7
1026.1906	2990.8219	2309.25	1430.05
1026.3029	2991.8887	2286.45	1404.15
1026.4152	2992.9548	2278.25	1399.3
1026.5275	2994.0204	2254.9	1374.5
1026.6397	2995.0852	2227.55	1349.85
1026.7519	2996.1495	2215.5	1334.2
1026.864	2997.2131	2210.9	1332.4
1026.9761	2998.276	2192.4	1312.25
1027.0882	2999.3383	2183	1302.55
1027.2002	3000.4	2169.05	1287.5
1027.3122	3001.4611	2142.7	1260.8
1027.4241	3002.5215	2137.45	1257.4
1027.536	3003.5812	2125.8	1244.7
1027.6478	3004.6404	2122.25	1244.6
1027.7596	3005.6989	2115.9	1232.95
1027.8714	3006.7567	2115.15	1235.8
1027.9831	3007.8139	2118.55	1215.95
1028.0947	3008.8705	2075.95	1196.8
1028.2064	3009.9264	2079.9	1196.1
1028.3179	3010.9818	2077.8	1199.4
1028.4295	3012.0364	2072.05	1190.75
1028.541	3013.0905	2058.15	1176.75
1028.6524	3014.1439	2046.35	1165.5
1028.7638	3015.1966	2044.35	1164.3
1028.8752	3016.2487	2042.75	1163.85
1028.9865	3017.3002	2047.4	1164
1029.0978	3018.3511	2023.4	1143.85
1029.209	3019.4013	2024.8	1144.8
1029.3202	3020.4509	2024.2	1146.8
1029.4314	3021.4998	2014.4	1135.25
1029.5425	3022.5481	2017	1136.95
1029.6535	3023.5958	2010.5	1131.85
1029.7645	3024.6428	2009.2	1127.55
1029.8755	3025.6892	2001.05	1121.1
1029.9864	3026.735	1996.5	1116.25
1030.0973	3027.7802	1991.35	1109.75
1030.2082	3028.8247	1974.2	1095.5
1030.319	3029.8685	1969.8	1090.25
1030.4297	3030.9118	1989.8	1111.35
1030.5404	3031.9544	1962.55	1083.7
1030.6511	3032.9963	1971.55	1090.35
1030.7617	3034.0376	1970.1	1090.25
1030.8723	3035.0783	1965.2	1083.15
1030.9829	3036.1184	1955.05	1074.45
1031.0934	3037.1578	1959.7	1080.3
1031.2038	3038.1966	1955.1	1074.5
1031.3142	3039.2348	1938.5	1060.5
1031.4246	3040.2723	1952.15	1064.2
1031.5349	3041.3092	1942	1063.4
1031.6452	3042.3455	1938.6	1060.05
1031.7554	3043.3811	1938.25	1057.1
1031.8656	3044.4161	1924.95	1046.1
1031.9758	3045.4505	1925.85	1047.35
1032.0859	3046.4842	1915.4	1034.7
1032.1959	3047.5173	1909.2	1029.9
1032.3059	3048.5498	1902.2	1024.15
1032.4159	3049.5816	1903.25	1024.95
1032.5258	3050.6128	1906.15	1026.85
1032.6357	3051.6434	1894.2	1013.55
1032.7455	3052.6734	1895.1	1013.65
1032.8553	3053.7027	1890.35	1011.75
1032.9651	3054.7314	1879.65	1000.75
1033.0748	3055.7594	1874.4	994.7
1033.1845	3056.7868	1875.75	993.2
1033.2941	3057.8136	1872.65	992.75
1033.4037	3058.8398	1863.5	983.75
1033.5132	3059.8653	1860.3	979.3
1033.6227	3060.8902	1844.95	966.1
1033.7321	3061.9145	1845.95	966.85
1033.8415	3062.9381	1834.5	954.8
1033.9509	3063.9612	1848.05	954.85
1034.0602	3064.9835	1840.05	960.75
1034.1694	3066.0053	1820.2	937.6
1034.2787	3067.0264	1811.1	932.2
1034.3878	3068.0469	1811.75	932.5
1034.497	3069.0668	1810.9	929.15
1034.6061	3070.086	1802.1	922.8
1034.7151	3071.1046	1804.35	925.1
1034.8241	3072.1226	1808.95	928.65
1034.9331	3073.1399	1789.75	911.3
1035.042	3074.1567	1779.25	899.05
1035.1508	3075.1727	1781.55	899.75
1035.2597	3076.1882	1768.9	891.35
1035.3684	3077.203	1765.6	885.85
1035.4772	3078.2173	1760.75	880.75
1035.5859	3079.2308	1755.45	873.35
1035.6945	3080.2438	1748.95	868
1035.8031	3081.2561	1732.3	853.8
1035.9117	3082.2678	1733.15	852.7
1036.0202	3083.2789	1727.15	846.35
1036.1286	3084.2893	1726.85	847.95
1036.2371	3085.2991	1718.75	838.5
1036.3454	3086.3083	1710.65	827.55
1036.4538	3087.3169	1722.35	843.05
1036.562	3088.3248	1708.8	826.6
1036.6703	3089.3321	1701.9	820.35
1036.7785	3090.3388	1688.15	806.65
1036.8866	3091.3449	1689.7	810.7
1036.9948	3092.3503	1693.95	812.75
1037.1028	3093.3551	1678.2	802.1
1037.2108	3094.3593	1674.3	795.7
1037.3188	3095.3629	1674.15	797.2
1037.4267	3096.3658	1663.8	783
1037.5346	3097.3681	1667.65	790.7
1037.6425	3098.3698	1653.3	770.7
1037.7503	3099.3708	1658.95	774.9
1037.858	3100.3713	1647.25	768.5
1037.9657	3101.3711	1645.8	766.25
1038.0734	3102.3702	1770.3	755.05
1038.181	3103.3688	1642.8	760.2
1038.2886	3104.3667	1635.25	757
1038.3961	3105.364	1613.95	734.3
1038.5036	3106.3607	1623.75	743.35
1038.611	3107.3568	1618.25	736.65
1038.7184	3108.3522	1604.5	725.85
1038.8257	3109.347	1605.55	726.35
1038.933	3110.3412	1610.35	726.35
1039.0403	3111.3348	1596.2	716.3
1039.1475	3112.3277	1590.6	711.45
1039.2547	3113.32	1590.45	710.15
1039.3618	3114.3117	1582.55	703.95
1039.4689	3115.3028	1579.85	700.65
1039.5759	3116.2932	1573.95	690
1039.6829	3117.2831	1581.5	696.65
1039.7898	3118.2723	1570.55	692.95
1039.8967	3119.2608	1566.25	688.2
1040.0035	3120.2488	1558.2	679.05
1040.1103	3121.2361	1559	676.75
1040.2171	3122.2229	1555.85	677.6
1040.3238	3123.209	1550.25	669.75
1040.4305	3124.1944	1542.15	662.9
1040.5371	3125.1793	1542	660.35
1040.6437	3126.1635	1529.4	651.05
1040.7502	3127.1471	1530.15	652.7
1040.8567	3128.1301	1537.95	659.6
1040.9631	3129.1125	1521.95	644.2
1041.0695	3130.0942	1526.35	645.1
1041.1759	3131.0753	1526.65	639.4
1041.2822	3132.0558	1517.85	635.7
1041.3884	3133.0357	1514.6	634.4
1041.4946	3134.015	1512.55	632.5
1041.6008	3134.9936	1505.05	622.6
1041.7069	3135.9716	1530.95	629.95
1041.813	3136.949	1504.65	626.85
1041.919	3137.9258	1514.75	630.3
1042.025	3138.902	1505.95	621.5
1042.1309	3139.8775	1494.55	617.1
1042.2368	3140.8524	1496.2	618.2
1042.3427	3141.8267	1493.2	612.65
1042.4485	3142.8004	1484.15	603.55
1042.5542	3143.7735	1487	600.7
1042.6599	3144.7459	1485.4	603.75
1042.7656	3145.7178	1484.55	603.7
1042.8712	3146.689	1477.6	598.9
1042.9768	3147.6596	1478.95	597.45
1043.0823	3148.6295	1469.75	590.65
1043.1878	3149.5989	1455.8	574.95
1043.2932	3150.5676	1462.7	586
1043.3986	3151.5357	1461.45	584.25
1043.5039	3152.5032	1455.9	576.55
1043.6092	3153.4701	1449.6	571.95
1043.7145	3154.4364	1455.65	573.15
1043.8197	3155.402	1444.45	563.6
1043.9248	3156.367	1449.85	567.9
1044.03	3157.3315	1482	566.85
1044.135	3158.2952	1444.9	564.55
1044.24	3159.2584	1438	558.55
1044.345	3160.221	1427.3	548.45
1044.4499	3161.1829	1422.45	541.8
1044.5548	3162.1442	1420.7	541.3
1044.6596	3163.105	1419.2	539.9
1044.7644	3164.065	1415.15	537.35
1044.8692	3165.0245	1418.3	536.65
1044.9739	3165.9834	1413.25	536.45
1045.0785	3166.9416	1409.5	529.4
1045.1831	3167.8993	1402.8	523.85
1045.2877	3168.8563	1397.55	517.1
1045.3922	3169.8127	1399.25	519.95
1045.4966	3170.7684	1398.65	519.8
1045.6011	3171.7236	1399.1	518.5
1045.7054	3172.6782	1397.65	518.95
1045.8098	3173.6321	1389.5	510.9
1045.914	3174.5854	1386.05	501.3
1046.0183	3175.5381	1388.25	509.9
1046.1224	3176.4902	1381	502.9
1046.2266	3177.4417	1379.5	500
1046.3307	3178.3926	1373.1	494.85
1046.4347	3179.3428	1374.65	496.75
1046.5387	3180.2924	1370.9	491.1
1046.6427	3181.2415	1364.75	483.75
1046.7466	3182.1899	1364.1	484.6
1046.8504	3183.1377	1361.3	481.8
1046.9542	3184.0848	1367.9	486.65
1047.058	3185.0314	1362.6	484.85
1047.1617	3185.9773	1361.85	482.75
1047.2654	3186.9227	1354	474.45
1047.369	3187.8674	1344.55	461.95
1047.4726	3188.8115	1349.1	466.9
1047.5761	3189.755	1346.9	467.2
1047.6796	3190.6979	1339.15	460.5
1047.783	3191.6402	1337.25	457.95
1047.8864	3192.5818	1336.1	459.2
1047.9898	3193.5229	1346.45	450.95
1048.0931	3194.4633	1332.3	455.35
1048.1963	3195.4031	1336.95	456.9
1048.2995	3196.3423	1322.9	442.1
1048.4027	3197.2809	1322.25	442.95
1048.5058	3198.2189	1322.1	442.4
1048.6089	3199.1563	1339.6	443.25
1048.7119	3200.0931	1315.8	437.3
1048.8148	3201.0292	1314.7	436.8
1048.9178	3201.9648	1316.95	437.85
1049.0206	3202.8997	1317.3	434.7
1049.1235	3203.834	1314.35	434.05
1049.2262	3204.7677	1308.25	430.25
1049.329	3205.7008	1310.3	428.4
1049.4317	3206.6333	1298.8	420.15
1049.5343	3207.5652	1306.95	426.1
1049.6369	3208.4964	1297.75	417.75
1049.7394	3209.4271	1294.55	415.35
1049.8419	3210.3571	1295.7	417.95
1049.9444	3211.2865	1288.55	408.5
1050.0468	3212.2154	1291.65	413.1
1050.1491	3213.1436	1291	409.8
1050.2514	3214.0712	1290.3	403.9
1050.3537	3214.9982	1283.2	402.45
1050.4559	3215.9246	1277.9	398
1050.5581	3216.8503	1272	393.75
1050.6602	3217.7755	1284.3	406.1
1050.7623	3218.7001	1279.35	400.25
1050.8643	3219.624	1281.35	400.25
1050.9663	3220.5473	1271.3	393.45
1051.0682	3221.4701	1268.3	386.35
1051.1701	3222.3922	1274.8	394.85
1051.2719	3223.3137	1264.05	383.85
1051.3737	3224.2346	1263.15	383.55
1051.4754	3225.1549	1264.05	386.4
1051.5771	3226.0746	1259.85	381.85
1051.6788	3226.9937	1259.65	380.45
1051.7804	3227.9121	1250.65	370.4
1051.8819	3228.83	1248.45	370.5
1051.9834	3229.7473	1249.45	369.45
1052.0849	3230.6639	1247.85	369
1052.1863	3231.5799	1244.25	363.75
1052.2876	3232.4954	1242.05	362.35
1052.3889	3233.4102	1243	364.5
1052.4902	3234.3244	1241.6	363.55
1052.5914	3235.238	1241.75	363.75
1052.6926	3236.151	1265.7	362.25
1052.7937	3237.0634	1232.95	354.2
1052.8948	3237.9752	1236.1	357.4
1052.9958	3238.8864	1236.25	355.8
1053.0968	3239.797	1227.4	346.95
1053.1977	3240.7069	1222.15	342.8
1053.2986	3241.6163	1234.15	355.2
1053.3994	3242.5251	1215.4	337.4
1053.5002	3243.4332	1220.55	343.5
1053.6009	3244.3408	1213.8	335.9
1053.7016	3245.2477	1214.65	336.1
1053.8022	3246.154	1212.9	334.75
1053.9028	3247.0598	1213.55	332.7
1054.0034	3247.9649	1207.5	326.05
1054.1039	3248.8694	1207.75	328.45
1054.2043	3249.7733	1202.1	322.5
1054.3047	3250.6766	1201.55	321.9
1054.4051	3251.5793	1200.75	321.05
1054.5054	3252.4814	1198.15	319.5
1054.6056	3253.3829	1198.4	321
1054.7058	3254.2838	1199.9	320.25
1054.806	3255.1841	1191.9	313.65
1054.9061	3256.0838	1197.75	318.7
1055.0061	3256.9829	1186.4	308.45
1055.1062	3257.8814	1188.65	308
1055.2061	3258.7792	1188.55	308.9
1055.306	3259.6765	1180.05	300.2
1055.4059	3260.5731	1174.15	294.7
1055.5057	3261.4692	1171.2	292.8
1055.6055	3262.3647	1167.55	288.55
1055.7052	3263.2595	1170.4	291.1
1055.8049	3264.1538	1162.65	283.95
1055.9045	3265.0474	1155.35	277.4
1056.0041	3265.9404	1153.2	275.05
1056.1036	3266.8329	1150.8	272.85
1056.2031	3267.7247	1153.75	266.3
1056.3025	3268.616	1135.3	257.2
1056.4019	3269.5066	1136.35	257.55
1056.5013	3270.3966	1123.2	241.9
1056.6005	3271.286	1119.45	240.7
