Software Version:	3.9.2.0
Unit SN:	10000200
Spectrometer SN:	6960
Date:	3/6/2024 10:35:33 AM
Data Line Index:	25
Spectral Points:	2048
Integration time (ms):	125
Averages:	20
Delay (ms):	30
Sequence Number:	1
Processing:	dark subtract
Laser Power (mW):	300
Laser Current (mA):	823
Laser Diode Temp (C):	25.1
Laser Case Temp (C):	26.6
System Temp (C):	26.4
Spectrometer Temp (C):	23.7
CCD Temp (C):	0.007
Secondary Temp (C):	20.008
Heatsink Temp (C):	22.027
CCDPCB Temp (C):	36.318
SecondaryPCB Temp (C):	30.36

Wavelength	RamanShift	Raw Counts	Dark Subtracted
787.061	30.1047	1148.05	735.3
787.2016	32.3739	1182.6	772.05
787.3422	34.6426	1221.85	810.1
787.4828	36.9109	1277.9	863.45
787.6235	39.1787	1338.85	921.65
787.7642	41.4461	1401.85	978.7
787.9049	43.7131	1464.5	1037.7
788.0456	45.9796	1539.4	1111.45
788.1863	48.2456	1599.1	1166.55
788.3271	50.5112	1666.2	1228.8
788.4679	52.7764	1748.3	1309.75
788.6087	55.0411	1828.3	1386.6
788.7496	57.3054	1904.85	1457.2
788.8904	59.5692	2004	1550.65
789.0313	61.8326	2102.8	1648.3
789.1722	64.0955	2211.9	1754.25
789.3132	66.3579	2347.95	1884
789.4541	68.6199	2494.95	2029.7
789.5951	70.8815	2752.35	2284.05
789.7361	73.1426	3288	2815.15
789.8771	75.4032	4672.55	4195.05
790.0181	77.6634	8210.55	7727.2
790.1592	79.9231	17640.8	17152.5
790.3003	82.1824	57374.05	56872.6
790.4414	84.4412	65535	65012.4
790.5825	86.6995	65535	64984.1
790.7237	88.9574	65535	64954.5
790.8648	91.2148	65535	64940.4
791.006	93.4717	65535	64927.75
791.1472	95.7282	65535	64919.6
791.2885	97.9842	65535	64914.35
791.4297	100.2398	65535	64912.05
791.571	102.4949	65535	64912.55
791.7123	104.7495	65535	64906.35
791.8536	107.0036	65535	64903.6
791.9949	109.2573	65535	64908.9
792.1363	111.5105	65535	64904.5
792.2777	113.7632	65535	64904.6
792.4191	116.0154	65535	64893.1
792.5605	118.2672	65535	64899.3
792.7019	120.5185	65535	64894.9
792.8434	122.7693	65535	64898.65
792.9849	125.0197	65535	64890.4
793.1264	127.2696	65535	64886.35
793.2679	129.519	65535	64882.5
793.4094	131.7679	65535	64882.6
793.551	134.0163	65535	64877
793.6926	136.2642	65535	64871.3
793.8342	138.5117	65535	64867.95
793.9758	140.7587	65535	64871.35
794.1175	143.0052	65535	64868.2
794.2591	145.2512	65535	64868.15
794.4008	147.4967	65535	64867.35
794.5425	149.7417	65535	64863.9
794.6842	151.9863	65535	64863.55
794.826	154.2304	65535	64858.35
794.9677	156.4739	65535	64848.25
795.1095	158.717	65535	64854.85
795.2513	160.9596	65535	64849.1
795.3931	163.2017	65535	64846.1
795.535	165.4433	65535	64843.1
795.6768	167.6844	65535	64843.3
795.8187	169.925	65535	64841.45
795.9606	172.1651	65535	64836.05
796.1025	174.4047	65535	64835.25
796.2445	176.6439	65535	64832.05
796.3864	178.8825	65535	64828.6
796.5284	181.1206	65535	64824.1
796.6704	183.3582	65535	64822.7
796.8124	185.5954	65535	64820.75
796.9544	187.832	65535	64817
797.0965	190.0681	65535	64814.85
797.2386	192.3037	65535	64809.35
797.3806	194.5388	65535	64809.7
797.5228	196.7734	65535	64804.45
797.6649	199.0075	65535	64799.65
797.807	201.2411	65535	64798.45
797.9492	203.4742	65535	64798.85
798.0914	205.7068	65535	64797.15
798.2336	207.9389	65535	64796.3
798.3758	210.1704	65535	64793.65
798.518	212.4015	65535	64798.1
798.6603	214.632	65535	64805.55
798.8025	216.862	65535	64816.7
798.9448	219.0915	65535	64818.6
799.0871	221.3205	65535	64813.75
799.2294	223.549	65535	64814.85
799.3718	225.777	65535	64815.45
799.5141	228.0044	65535	64809.25
799.6565	230.2314	65535	64815.3
799.7989	232.4578	65535	64811.25
799.9413	234.6837	65535	64801.65
800.0837	236.909	65535	64799.65
800.2262	239.1339	65535	64774.4
800.3687	241.3582	65535	64787
800.5111	243.582	65535	64758.35
800.6536	245.8053	65535	64769.6
800.7961	248.0281	65535	64780.15
800.9387	250.2503	65535	64766.15
801.0812	252.472	65535	64768.55
801.2238	254.6932	65535	64771.2
801.3664	256.9139	65535	64768.55
801.509	259.134	65535	64765.45
801.6516	261.3536	65535	64766.25
801.7942	263.5727	65535	64763.4
801.9369	265.7912	65535	64768.65
802.0795	268.0092	65535	64763.9
802.2222	270.2267	65535	64756.4
802.3649	272.4436	65535	64760
802.5076	274.6601	65535	64752.3
802.6504	276.8759	65535	64755.65
802.7931	279.0913	65535	64753.7
802.9359	281.3061	65535	64754.05
803.0787	283.5204	65535	64751.8
803.2215	285.7341	65535	64746.4
803.3643	287.9473	65535	64734.45
803.5071	290.16	65535	64741.35
803.6499	292.3721	65535	64748.8
803.7928	294.5837	65535	64748.9
803.9357	296.7947	65535	64752.15
804.0786	299.0052	65535	64746.75
804.2215	301.2152	65535	64745.4
804.3644	303.4246	65535	64748.15
804.5074	305.6334	65535	64746.9
804.6503	307.8418	65535	64746.05
804.7933	310.0495	65535	64746.8
804.9363	312.2568	65535	64738.35
805.0793	314.4635	65535	64742.75
805.2223	316.6696	65535	64738.65
805.3653	318.8752	65535	64729
805.5084	321.0802	65535	64736.45
805.6514	323.2847	65535	64735.7
805.7945	325.4887	65535	64738.6
805.9376	327.692	65535	64736.3
806.0807	329.8949	65535	64734.2
806.2238	332.0972	65535	64731.85
806.367	334.2989	65535	64729.6
806.5101	336.5001	65535	64729
806.6533	338.7007	65535	64728.35
806.7965	340.9008	65535	64726.75
806.9397	343.1003	65535	64725.25
807.0829	345.2992	65535	64724.35
807.2261	347.4976	65535	64719.85
807.3693	349.6955	65535	64719.7
807.5126	351.8927	65535	64722.5
807.6559	354.0895	65535	64708.85
807.7991	356.2856	65535	64718.35
807.9424	358.4812	65535	64716.5
808.0857	360.6763	65535	64716.95
808.2291	362.8707	65535	64712
808.3724	365.0646	65535	64710.05
808.5158	367.258	65535	64708.3
808.6591	369.4508	65535	64705.45
808.8025	371.643	65535	64705.25
808.9459	373.8346	65535	64702.8
809.0893	376.0257	65535	64704
809.2327	378.2162	65535	64703.8
809.3762	380.4062	65535	64700.3
809.5196	382.5956	65535	64698.1
809.6631	384.7844	65535	64701.8
809.8066	386.9726	65535	64702.75
809.9501	389.1603	65535	64704.1
810.0936	391.3474	65535	64666.95
810.2371	393.5339	65535	64708.45
810.3806	395.7199	65535	64706.35
810.5241	397.9052	65535	64709.95
810.6677	400.09	65535	64709.35
810.8113	402.2743	65535	64709.05
810.9548	404.4579	65535	64707.75
811.0984	406.641	65535	64706.8
811.2421	408.8235	65535	64705.25
811.3857	411.0054	65535	64703.35
811.5293	413.1868	65535	64698.9
811.673	415.3675	65535	64696.4
811.8166	417.5477	65535	64699.9
811.9603	419.7273	65535	64692.35
812.104	421.9064	65535	64689.15
812.2477	424.0848	65535	64689.15
812.3914	426.2627	65535	64686.85
812.5351	428.4399	65535	64688.95
812.6788	430.6166	65535	64688.1
812.8226	432.7928	65535	64690.15
812.9663	434.9683	65535	64687.85
813.1101	437.1432	65535	64682.5
813.2539	439.3176	65535	64683.9
813.3977	441.4914	65535	64685.45
813.5415	443.6645	65535	64681.9
813.6853	445.8371	65535	64684.85
813.8291	448.0091	65535	64687.85
813.973	450.1806	65535	64685.75
814.1168	452.3514	65535	64682.4
814.2607	454.5216	65535	64676.75
814.4046	456.6913	65535	64682.55
814.5485	458.8603	65535	64683.95
814.6924	461.0288	65535	64682.9
814.8363	463.1967	65535	64680.9
814.9802	465.3639	65535	64680.2
815.1241	467.5306	65535	64678.8
815.2681	469.6967	65535	64679
815.412	471.8622	65535	64683.3
815.556	474.0271	65535	64680.55
815.7	476.1914	65535	64679.7
815.844	478.3551	65535	64683.9
815.988	480.5182	65535	64677.15
816.132	482.6807	65535	64679.7
816.276	484.8426	65535	64679.85
816.4201	487.0039	65535	64680.45
816.5641	489.1647	65535	64675.45
816.7082	491.3248	65535	64679.2
816.8522	493.4843	65535	64676.6
816.9963	495.6432	65535	64676.2
817.1404	497.8015	65535	64674.3
817.2845	499.9592	65535	64673.3
817.4286	502.1163	65535	64669.9
817.5727	504.2728	65535	64670.25
817.7168	506.4287	65535	64676
817.861	508.5839	65535	64674.1
818.0051	510.7386	65535	64672.9
818.1493	512.8927	65535	64669.1
818.2935	515.0461	65535	64672.6
818.4377	517.199	65535	64669.55
818.5818	519.3512	65535	64668.5
818.726	521.5029	65535	64663.15
818.8703	523.6539	65535	64667.25
819.0145	525.8043	65535	64669.2
819.1587	527.9541	65535	64665.5
819.303	530.1033	65535	64666.15
819.4472	532.2519	65535	64665.65
819.5915	534.3999	65535	64661.6
819.7357	536.5472	65535	64666.25
819.88	538.694	65535	64666.5
820.0243	540.8401	65535	64664.85
820.1686	542.9856	65535	64656.05
820.3129	545.1305	65535	64659.55
820.4572	547.2748	65535	64662.6
820.6016	549.4185	65535	64658.75
820.7459	551.5615	65535	64659.05
820.8902	553.704	65535	64658.2
821.0346	555.8458	65535	64658.9
821.1789	557.987	65535	64661.3
821.3233	560.1276	65535	64659.1
821.4677	562.2675	65535	64661.55
821.6121	564.4069	65535	64660.15
821.7565	566.5456	65535	64662.1
821.9009	568.6837	65535	64661.3
822.0453	570.8212	65535	64663.1
822.1897	572.958	65535	64659.25
822.3342	575.0942	65535	64662.15
822.4786	577.2299	65535	64663.5
822.6231	579.3648	65535	64663.45
822.7675	581.4992	65535	64665.9
822.912	583.6329	65535	64665.3
823.0565	585.766	65535	64664.35
823.201	587.8985	65535	64665.3
823.3454	590.0304	65535	64637.4
823.4899	592.1616	65535	64657.95
823.6345	594.2922	65535	64658.55
823.779	596.4222	65535	64654.95
823.9235	598.5515	65535	64654.3
824.068	600.6802	65535	64655.9
824.2126	602.8083	65535	64655.25
824.3571	604.9358	65535	64654.65
824.5017	607.0626	65535	64653.5
824.6462	609.1888	65535	64653.75
824.7908	611.3144	65535	64651.75
824.9354	613.4393	65535	64653
825.08	615.5636	65535	64653.55
825.2246	617.6873	65535	64653.05
825.3692	619.8103	65535	64649.45
825.5138	621.9327	65535	64647.65
825.6584	624.0544	65535	64653
825.803	626.1756	65535	64653.75
825.9477	628.2961	65535	64652
826.0923	630.4159	65535	64649.8
826.237	632.5351	65535	64651.5
826.3816	634.6537	65535	64651.85
826.5263	636.7716	65535	64646.55
826.6709	638.8889	65535	64652.65
826.8156	641.0056	65535	64650.15
826.9603	643.1216	65535	64648.25
827.105	645.237	65535	64645.35
827.2497	647.3518	65535	64651.5
827.3944	649.4659	65535	64651.2
827.5391	651.5793	65535	64648.65
827.6838	653.6922	65535	64650.2
827.8285	655.8043	65535	64647.95
827.9733	657.9159	65535	64647.65
828.118	660.0268	65535	64645.95
828.2627	662.137	65535	64649.2
828.4075	664.2466	65535	64643.3
828.5522	666.3556	65535	64646.6
828.697	668.4639	65535	64644.15
828.8418	670.5716	65535	64645.7
828.9865	672.6786	65535	64644.8
829.1313	674.785	65535	64643.35
829.2761	676.8907	65535	64646.55
829.4209	678.9958	65535	64647.95
829.5657	681.1002	65535	64644.95
829.7105	683.204	65535	64641.55
829.8553	685.3072	65535	64641.9
830.0001	687.4097	65535	64644.45
830.1449	689.5115	65535	64639.3
830.2898	691.6127	65535	64647.5
830.4346	693.7132	65535	64641.85
830.5794	695.8131	65535	64633
830.7243	697.9123	65535	64637.95
830.8691	700.0109	65535	64641.35
831.014	702.1089	65535	64642.1
831.1588	704.2061	65535	64640.75
831.3037	706.3028	65535	64642.25
831.4486	708.3987	65535	64639.95
831.5935	710.4941	65535	64642.05
831.7383	712.5887	65535	64642.5
831.8832	714.6827	65535	64637.75
832.0281	716.7761	65535	64640.3
832.173	718.8688	65535	64638.15
832.3179	720.9608	65535	64635.85
832.4628	723.0522	65535	64631.4
832.6077	725.1429	65535	64638.05
832.7527	727.233	65535	64637.65
832.8976	729.3224	65535	64635.65
833.0425	731.4112	65535	64636.95
833.1874	733.4993	65535	64634.45
833.3324	735.5867	65535	64637.45
833.4773	737.6735	65535	64638.55
833.6222	739.7596	65535	64636.9
833.7672	741.845	65535	64639.45
833.9122	743.9298	65535	64636.4
834.0571	746.014	65535	64638.3
834.2021	748.0974	65535	64635.6
834.347	750.1802	65535	64638.2
834.492	752.2624	65535	64637.35
834.637	754.3439	65535	64635
834.782	756.4247	65535	64627.5
834.9269	758.5048	65535	64638.45
835.0719	760.5843	65535	64637.25
835.2169	762.6631	65535	64635.3
835.3619	764.7413	65535	64635.85
835.5069	766.8188	65535	64633.4
835.6519	768.8956	65535	64630.8
835.7969	770.9718	65535	64637.2
835.9419	773.0473	65535	64636.6
836.0869	775.1221	65535	64633.7
836.232	777.1962	65535	64637.6
836.377	779.2697	65535	64631.65
836.522	781.3426	65535	64615.05
836.667	783.4147	65535	64632.85
836.8121	785.4862	65535	64634.7
836.9571	787.557	65535	64635.25
837.1021	789.6271	65535	64633.2
837.2472	791.6966	65535	64636.55
837.3922	793.7654	65535	64636.6
837.5373	795.8335	65535	64637.9
837.6823	797.901	65535	64635.7
837.8274	799.9678	65535	64632.15
837.9724	802.0339	65535	64635.6
838.1175	804.0993	65535	64623.8
838.2626	806.1641	65535	64630.75
838.4076	808.2282	65535	64633.75
838.5527	810.2916	65535	64631.55
838.6978	812.3544	65535	64636.65
838.8428	814.4164	65535	64636.55
838.9879	816.4778	65535	64633.25
839.133	818.5385	65535	64635.3
839.2781	820.5986	65535	64632.65
839.4232	822.658	65535	64630.4
839.5682	824.7166	65535	64633.6
839.7133	826.7747	65535	64632.45
839.8584	828.832	65535	64636.5
840.0035	830.8886	65535	64630.9
840.1486	832.9446	65535	64629.3
840.2937	834.9999	65535	64635.4
840.4388	837.0545	65535	64624.5
840.5839	839.1085	65535	64631.45
840.729	841.1618	65535	64626.8
840.8741	843.2143	65535	64634.3
841.0192	845.2662	65535	64632.45
841.1643	847.3175	65535	64632.1
841.3095	849.368	65535	64633.35
841.4546	851.4179	65535	64630.95
841.5997	853.467	65535	64631.15
841.7448	855.5155	65535	64631.7
841.8899	857.5633	65535	64633.15
842.0351	859.6105	65535	64632.05
842.1802	861.6569	65535	64631
842.3253	863.7027	65535	64628.8
842.4704	865.7478	65535	64629.15
842.6156	867.7922	65535	64632.1
842.7607	869.8359	65535	64629.95
842.9058	871.8789	65535	64630.2
843.0509	873.9212	65535	64598.25
843.1961	875.9629	65535	64631.05
843.3412	878.0039	65535	64630.05
843.4863	880.0441	65535	64633.75
843.6315	882.0837	65535	64630.55
843.7766	884.1226	65535	64626.8
843.9218	886.1609	65535	64632
844.0669	888.1984	65535	64628.75
844.212	890.2352	65535	64630
844.3572	892.2714	65535	64628.95
844.5023	894.3069	65535	64630.45
844.6475	896.3416	65535	64628.5
844.7926	898.3757	65535	64630.65
844.9377	900.4091	65535	64625.8
845.0829	902.4418	65535	64624
845.228	904.4739	65535	64627.5
845.3732	906.5052	65535	64630.5
845.5183	908.5358	65535	64629.4
845.6635	910.5658	65535	64628.05
845.8086	912.595	65535	64627.7
845.9538	914.6236	65535	64626.95
846.0989	916.6515	65535	64629.45
846.2441	918.6786	65535	64628.2
846.3892	920.7051	65535	64627.05
846.5344	922.7309	65535	64628.05
846.6795	924.756	65535	64627.1
846.8246	926.7804	65535	64627.55
846.9698	928.8041	65535	64629.15
847.1149	930.8272	65535	64628.5
847.2601	932.8495	65535	64626.35
847.4052	934.8711	65535	64625.85
847.5504	936.892	65535	64627.35
847.6955	938.9123	65535	64626.3
847.8407	940.9318	65535	64628.55
847.9858	942.9506	65535	64630
848.131	944.9688	65535	64628.4
848.2761	946.9862	65535	64627.85
848.4213	949.003	65535	64628
848.5664	951.019	65535	64627.8
848.7115	953.0344	65535	64629.2
848.8567	955.0491	65535	64627.1
849.0018	957.063	65535	64624.9
849.147	959.0763	65535	64630.25
849.2921	961.0888	65535	64625.35
849.4373	963.1007	65535	64632.3
849.5824	965.1119	65535	64629.2
849.7275	967.1223	65535	64631.6
849.8727	969.1321	65535	64631.25
850.0178	971.1412	65535	64631.05
850.1629	973.1495	65535	64630.45
850.3081	975.1572	65535	64596.65
850.4532	977.1641	65535	64630.3
850.5983	979.1704	65535	64624.15
850.7435	981.1759	65535	64626.8
850.8886	983.1808	65535	64626.95
851.0337	985.1849	65535	64619.35
851.1788	987.1884	65535	64626.8
851.324	989.1911	65535	64626.2
851.4691	991.1932	65535	64626
851.6142	993.1945	65535	64630.15
851.7593	995.1951	65535	64627.4
851.9045	997.1951	65535	64621.85
852.0496	999.1943	65535	64627.75
852.1947	1001.1928	65535	64626.4
852.3398	1003.1906	65535	64628.15
852.4849	1005.1877	65535	64626
852.63	1007.1841	65535	64624.25
852.7751	1009.1798	65535	64627.4
852.9202	1011.1748	65535	64628
853.0653	1013.1691	65535	64628
853.2104	1015.1627	65535	64626.5
853.3555	1017.1556	65535	64627.5
853.5006	1019.1477	65535	64628.7
853.6457	1021.1392	65535	64629.8
853.7908	1023.1299	65535	64631.2
853.9359	1025.12	65535	64627.15
854.081	1027.1093	65535	64632.6
854.2261	1029.0979	65535	64634.4
854.3712	1031.0859	65535	64631.3
854.5163	1033.0731	65535	64629.35
854.6613	1035.0596	65535	64630.85
854.8064	1037.0454	65535	64627.3
854.9515	1039.0304	65535	64627.65
855.0965	1041.0148	65535	64629.55
855.2416	1042.9985	65535	64628.15
855.3867	1044.9814	65535	64628.25
855.5317	1046.9636	65535	64629.6
855.6768	1048.9452	65535	64628.75
855.8219	1050.926	65535	64630.2
855.9669	1052.9061	65535	64631
856.112	1054.8855	65535	64631.6
856.257	1056.8642	65535	64630.45
856.4021	1058.8421	65535	64621.8
856.5471	1060.8194	65535	64628.05
856.6921	1062.7959	65535	64628.05
856.8372	1064.7717	65535	64627.45
856.9822	1066.7469	65535	64627.5
857.1272	1068.7213	65535	64627.15
857.2723	1070.695	65535	64628.25
857.4173	1072.6679	65535	64626.2
857.5623	1074.6402	65535	64626.4
857.7073	1076.6117	65535	64624.85
857.8523	1078.5826	65535	64627
857.9973	1080.5527	65535	64624.7
858.1423	1082.5221	65535	64627.2
858.2873	1084.4908	65535	64629.8
858.4323	1086.4587	65535	64627.05
858.5773	1088.426	65535	64628.55
858.7223	1090.3925	65535	64624.65
858.8673	1092.3584	65535	64628.95
859.0123	1094.3235	65535	64629.2
859.1573	1096.2879	65535	64627.55
859.3022	1098.2515	65535	64630.45
859.4472	1100.2145	65535	64629.1
859.5922	1102.1767	65535	64629.1
859.7371	1104.1382	65535	64629.6
859.8821	1106.099	65535	64626.45
860.027	1108.0591	65535	64629.25
860.172	1110.0185	65535	64626.6
860.3169	1111.9771	65535	64628.15
860.4619	1113.9351	65535	64629.25
860.6068	1115.8923	65535	64626.2
860.7517	1117.8488	65535	64629.1
860.8967	1119.8045	65535	64625.45
861.0416	1121.7596	65535	64626.95
861.1865	1123.7139	65535	64631.15
861.3314	1125.6675	65535	64630.3
861.4763	1127.6204	65535	64629.2
861.6212	1129.5726	65535	64625.95
861.7661	1131.524	65535	64630
861.911	1133.4748	65535	64629.75
862.0559	1135.4248	65535	64628.1
862.2008	1137.3741	65535	64630.25
862.3457	1139.3226	65535	64627.4
862.4905	1141.2705	65535	64628.45
862.6354	1143.2176	65535	64623.85
862.7803	1145.164	65535	64626
862.9251	1147.1097	65535	64625.85
863.07	1149.0546	65535	64626.85
863.2148	1150.9989	65535	64625.7
863.3597	1152.9424	65535	64630.25
863.5045	1154.8852	65535	64628.5
863.6493	1156.8272	65535	64629.95
863.7942	1158.7686	65535	64620.9
863.939	1160.7092	65535	64628.55
864.0838	1162.6491	65535	64626
864.2286	1164.5883	65535	64629.5
864.3734	1166.5267	65535	64628.1
864.5182	1168.4644	65535	64629.2
864.663	1170.4014	65535	64624.1
864.8078	1172.3377	65535	64631.55
864.9526	1174.2732	65535	64629.95
865.0974	1176.2081	65535	64630
865.2421	1178.1421	65535	64626.55
865.3869	1180.0755	65535	64630.8
865.5317	1182.0082	65535	64629.35
865.6764	1183.9401	65535	64627.8
865.8212	1185.8713	65535	64628.7
865.9659	1187.8017	65535	64631.75
866.1106	1189.7315	65535	64633.7
866.2554	1191.6605	65535	64605.15
866.4001	1193.5888	65535	64631.85
866.5448	1195.5163	65535	64631.8
866.6895	1197.4432	65535	64627.95
866.8342	1199.3693	65535	64627.7
866.9789	1201.2947	65535	64627.15
867.1236	1203.2193	65535	64631.35
867.2683	1205.1432	65535	64630.65
867.413	1207.0664	65535	64631.95
867.5576	1208.9889	65535	64627.5
867.7023	1210.9106	65535	64628.55
867.847	1212.8316	65535	64632.05
867.9916	1214.7519	65535	64620.15
868.1363	1216.6715	65535	64629.25
868.2809	1218.5903	65535	64631.95
868.4255	1220.5084	65535	64626.55
868.5701	1222.4257	65535	64629.8
868.7148	1224.3424	65535	64630.5
868.8594	1226.2583	65535	64629.15
869.004	1228.1735	65535	64628.7
869.1486	1230.0879	65535	64627.25
869.2932	1232.0016	65535	64630.45
869.4377	1233.9146	65535	64626.6
869.5823	1235.8269	65535	64633
869.7269	1237.7384	65535	64630.8
869.8715	1239.6492	65535	64631.75
870.016	1241.5592	65535	64629.5
870.1606	1243.4686	65535	64630.05
870.3051	1245.3772	65535	64630.7
870.4496	1247.285	65535	64630.05
870.5941	1249.1922	65535	64629.65
870.7387	1251.0986	65535	64632.6
870.8832	1253.0042	65535	64627.6
871.0277	1254.9092	65535	64631.15
871.1722	1256.8134	65535	64631.85
871.3167	1258.7169	65535	64629.3
871.4611	1260.6196	65535	64629.55
871.6056	1262.5216	65535	64629.05
871.7501	1264.4229	65535	64630.7
871.8945	1266.3234	65535	64631.3
872.039	1268.2232	65535	64630.65
872.1834	1270.1223	65535	64630.45
872.3278	1272.0207	65535	64630.4
872.4723	1273.9183	65535	64625.9
872.6167	1275.8151	65535	64630
872.7611	1277.7113	65535	64628.9
872.9055	1279.6067	65535	64632.35
873.0499	1281.5014	65535	64629.75
873.1943	1283.3953	65535	64626.5
873.3386	1285.2885	65535	64631.45
873.483	1287.181	65535	64627.05
873.6274	1289.0727	65535	64634
873.7717	1290.9637	65535	64630.55
873.9161	1292.854	65535	64630.25
874.0604	1294.7435	65535	64629.25
874.2047	1296.6323	65535	64628.75
874.349	1298.5204	65535	64628.65
874.4933	1300.4077	65535	64632.15
874.6376	1302.2943	65535	64632.45
874.7819	1304.1802	65535	64633.55
874.9262	1306.0653	65535	64628.45
875.0705	1307.9497	65535	64631.8
875.2147	1309.8333	65535	64632.25
875.359	1311.7162	65535	64630
875.5032	1313.5984	65535	64628.9
875.6475	1315.4798	65535	64620.75
875.7917	1317.3605	65535	64614.6
875.9359	1319.2405	65535	64627.65
876.0801	1321.1197	65535	64629.95
876.2243	1322.9982	65535	64627.15
876.3685	1324.876	65535	64631.35
876.5127	1326.753	65535	64630.7
876.6569	1328.6293	65535	64628.2
876.801	1330.5048	65535	64630.2
876.9452	1332.3796	65535	64631.1
877.0893	1334.2537	65535	64605
877.2335	1336.127	65535	64629.75
877.3776	1337.9996	65535	64629.1
877.5217	1339.8714	65535	64630.4
877.6658	1341.7426	65535	64584.8
877.8099	1343.6129	65535	64631.95
877.954	1345.4826	65535	64629.25
878.0981	1347.3515	65535	64630.35
878.2422	1349.2196	65535	64629
878.3862	1351.087	65535	64629.3
878.5303	1352.9537	65535	64628.75
878.6743	1354.8197	65535	64629.45
878.8184	1356.6849	65535	64629.6
878.9624	1358.5493	65535	64630.35
879.1064	1360.4131	65535	64631.55
879.2504	1362.276	65535	64631.55
879.3944	1364.1383	65535	64631.05
879.5384	1365.9998	65535	64622.8
879.6823	1367.8606	65535	64632
879.8263	1369.7206	65535	64629.8
879.9702	1371.5799	65535	64628.85
880.1142	1373.4384	65535	64627.65
880.2581	1375.2962	65535	64629.6
880.402	1377.1533	65535	64631.2
880.5459	1379.0096	65535	64629.45
880.6898	1380.8652	65535	64630.6
880.8337	1382.7201	65535	64630.85
880.9776	1384.5742	65535	64630.3
881.1215	1386.4275	65535	64628.85
881.2653	1388.2802	65535	64632.8
881.4092	1390.132	65535	64629.45
881.553	1391.9832	65535	64627.55
881.6968	1393.8336	65535	64629.6
881.8406	1395.6832	65535	64628.2
881.9844	1397.5322	65535	64629.85
882.1282	1399.3803	65535	64624.2
882.272	1401.2278	65535	64630.4
882.4158	1403.0745	65535	64632.1
882.5595	1404.9204	65535	64630.3
882.7033	1406.7656	65535	64631.25
882.847	1408.6101	65535	64629.4
882.9908	1410.4538	65535	64632.85
883.1345	1412.2968	65535	64631.25
883.2782	1414.139	65535	64629
883.4219	1415.9805	65535	64633.25
883.5656	1417.8213	65535	64626.65
883.7092	1419.6613	65535	64634.2
883.8529	1421.5006	65535	64627.65
883.9965	1423.3391	65535	64631.15
884.1402	1425.1769	65535	64628.95
884.2838	1427.0139	65535	64630.7
884.4274	1428.8502	65535	64630.4
884.571	1430.6858	65535	64629.05
884.7146	1432.5206	65535	64629.6
884.8582	1434.3547	65535	64631.25
885.0018	1436.188	65535	64632.5
885.1453	1438.0206	65535	64630.2
885.2889	1439.8524	65535	64631.9
885.4324	1441.6835	65535	64629.45
885.5759	1443.5139	65535	64627.3
885.7194	1445.3435	65535	64630.3
885.8629	1447.1724	65535	64632.45
886.0064	1449.0005	65535	64630.9
886.1499	1450.8279	65535	64631.15
886.2933	1452.6545	65535	64632.85
886.4368	1454.4804	65535	64632.2
886.5802	1456.3056	65535	64625.3
886.7237	1458.13	65535	64632.45
886.8671	1459.9536	65535	64631.1
887.0105	1461.7766	65535	64631.6
887.1539	1463.5987	65535	64629.9
887.2972	1465.4202	65535	64631.8
887.4406	1467.2409	65535	64632.5
887.584	1469.0608	65535	64631.35
887.7273	1470.88	65535	64631.85
887.8706	1472.6984	65535	64629.75
888.0139	1474.5161	65535	64631.2
888.1572	1476.3331	65535	64634.45
888.3005	1478.1493	65535	64629.85
888.4438	1479.9648	65535	64632.85
888.5871	1481.7795	65535	64632.4
888.7303	1483.5935	65535	64631.7
888.8736	1485.4067	65535	64632.3
889.0168	1487.2192	65535	64630.8
889.16	1489.031	65535	64631
889.3032	1490.842	65535	64629.3
889.4464	1492.6522	65535	64632.05
889.5896	1494.4618	65535	64630.15
889.7327	1496.2705	65535	64632.5
889.8759	1498.0785	65535	64633.5
890.019	1499.8858	65535	64632.3
890.1622	1501.6924	65535	64633.05
890.3053	1503.4981	65535	64632.85
890.4484	1505.3032	65535	64632.25
890.5914	1507.1075	65535	64631.25
890.7345	1508.911	65535	64632.6
890.8776	1510.7138	65535	64630.2
891.0206	1512.5159	65535	64631.75
891.1637	1514.3172	65535	64633.9
891.3067	1516.1178	65535	64631.45
891.4497	1517.9176	65535	64631.8
891.5927	1519.7166	65535	64632.5
891.7357	1521.515	65535	64626
891.8786	1523.3126	65535	64632.55
892.0216	1525.1094	65535	64631.6
892.1645	1526.9055	65535	64635.85
892.3074	1528.7008	65535	64633.6
892.4503	1530.4954	65535	64626.45
892.5932	1532.2893	65535	64633.45
892.7361	1534.0824	65535	64627.75
892.879	1535.8747	65535	64634.75
893.0218	1537.6663	65535	64632
893.1647	1539.4572	65535	64632.2
893.3075	1541.2473	65535	64634
893.4503	1543.0367	65535	64634.35
893.5931	1544.8253	65535	64629.35
893.7359	1546.6132	65535	64630.9
893.8787	1548.4003	65535	64623.1
894.0214	1550.1867	65535	64625.55
894.1642	1551.9723	65535	64630.85
894.3069	1553.7572	65535	64633.1
894.4496	1555.5414	65535	64635.75
894.5923	1557.3247	65535	64633.45
894.735	1559.1074	65535	64634.75
894.8777	1560.8893	65535	64634.6
895.0204	1562.6705	65535	64635.65
895.163	1564.4509	65535	64635.05
895.3056	1566.2305	65535	64637.3
895.4482	1568.0094	65535	64635.65
895.5908	1569.7876	65535	64634.45
895.7334	1571.565	65535	64633.6
895.876	1573.3417	65535	64635.85
896.0186	1575.1176	65535	64635.25
896.1611	1576.8928	65535	64637.65
896.3036	1578.6672	65535	64638.1
896.4461	1580.4409	65535	64640.4
896.5886	1582.2138	65535	64634.85
896.7311	1583.986	65535	64636.65
896.8736	1585.7575	65535	64639.6
897.0161	1587.5282	65535	64638.95
897.1585	1589.2981	65535	64636.9
897.3009	1591.0673	65535	64636.85
897.4433	1592.8358	65535	64638
897.5857	1594.6035	65535	64636.25
897.7281	1596.3704	65535	64635.5
897.8705	1598.1366	65535	64635.9
898.0128	1599.9021	65535	64635
898.1551	1601.6668	65535	64633.5
898.2975	1603.4308	65535	64637.25
898.4398	1605.194	65535	64633.1
898.5821	1606.9564	65535	64638.95
898.7243	1608.7182	65535	64636
898.8666	1610.4791	65535	64639.6
899.0088	1612.2394	65535	64641.05
899.1511	1613.9988	65535	64638.25
899.2933	1615.7576	65535	64637.85
899.4355	1617.5156	65535	64632.75
899.5776	1619.2728	65535	64636.15
899.7198	1621.0293	65535	64637.15
899.862	1622.785	65535	64635.95
900.0041	1624.54	65535	64635.8
900.1462	1626.2942	65535	64639.05
900.2883	1628.0477	65535	64636.85
900.4304	1629.8005	65535	64631.85
900.5725	1631.5525	65535	64638.25
900.7145	1633.3037	65535	64639.2
900.8566	1635.0542	65535	64642.25
900.9986	1636.804	65535	64638.2
901.1406	1638.553	65535	64549.5
901.2826	1640.3013	65535	64636.8
901.4245	1642.0488	65535	64637.9
901.5665	1643.7955	65535	64639.1
901.7085	1645.5416	65535	64636.7
901.8504	1647.2868	65535	64640
901.9923	1649.0313	65535	64639.85
902.1342	1650.7751	65535	64634.9
902.2761	1652.5181	65535	64639.8
902.4179	1654.2604	65535	64638.65
902.5598	1656.0019	65535	64641
902.7016	1657.7427	65535	64639.15
902.8434	1659.4828	65535	64638.05
902.9852	1661.222	65535	64638.35
903.127	1662.9606	65535	64638.2
903.2687	1664.6984	65535	64636.3
903.4105	1666.4354	65535	64637.45
903.5522	1668.1717	65535	64640.3
903.6939	1669.9072	65535	64638.3
903.8356	1671.642	65535	64636.1
903.9773	1673.3761	65535	64637
904.119	1675.1094	65535	64641.25
904.2606	1676.8419	65535	64638.8
904.4022	1678.5737	65535	64638.15
904.5439	1680.3048	65535	64637.15
904.6855	1682.0351	65535	64637.7
904.827	1683.7646	65535	64636.25
904.9686	1685.4934	65535	64641.3
905.1101	1687.2215	65520.1	64625.2
905.2517	1688.9488	65535	64640
905.3932	1690.6754	65434	64539.75
905.5347	1692.4012	65522.75	64628.5
905.6761	1694.1263	65530.55	64636
905.8176	1695.8506	65469.05	64574.3
905.9591	1697.5742	65495.95	64600.45
906.1005	1699.297	65478.35	64582.8
906.2419	1701.0191	65507.15	64611.8
906.3833	1702.7404	65335	64440.4
906.5246	1704.461	65248.9	64353
906.666	1706.1808	65428	64532.1
906.8073	1707.8999	65318.1	64422.85
906.9487	1709.6182	65304.8	64409.8
907.09	1711.3358	65254.4	64360.55
907.2313	1713.0527	65228.15	64334.6
907.3725	1714.7688	65260.2	64361.4
907.5138	1716.4841	64693.85	63797.2
907.655	1718.1987	64924.25	64024.2
907.7962	1719.9126	64773.55	63877.75
907.9374	1721.6257	64971	64074.1
908.0786	1723.338	64952.75	64058.4
908.2198	1725.0496	64085.45	63190.4
908.3609	1726.7605	64185.15	63291
908.502	1728.4706	63841.35	62945.95
908.6431	1730.18	64345.5	63448.05
908.7842	1731.8886	63768.65	62873.7
908.9253	1733.5964	63536.95	62623.5
909.0664	1735.3036	64146.15	63249.75
909.2074	1737.0099	63633.8	62738.6
909.3484	1738.7156	63216.4	62324.35
909.4894	1740.4204	63079.4	62184.3
909.6304	1742.1246	63300.65	62403.95
909.7714	1743.8279	63405.3	62509.7
909.9123	1745.5306	63274.25	62379.45
910.0532	1747.2325	61702.2	60806.45
910.1941	1748.9336	61821.8	60929.05
910.335	1750.634	62354.9	61460.3
910.4759	1752.3336	62751.15	61856.9
910.6168	1754.0325	61589.85	60698.65
910.7576	1755.7307	62675.5	61783.2
910.8984	1757.4281	61172.15	60278.6
911.0392	1759.1247	62193.4	61289.9
911.18	1760.8206	60695.3	59795.15
911.3208	1762.5158	60874.55	59975.75
911.4615	1764.2102	61180.65	60286.4
911.6022	1765.9039	60946.35	60053.5
911.7429	1767.5968	60630.55	59735.75
911.8836	1769.289	60432	59538.45
912.0243	1770.9804	60612.35	59718.1
912.1649	1772.6711	60340.45	59445.8
912.3056	1774.361	60110.55	59216.5
912.4462	1776.0502	60098.1	59202.45
912.5868	1777.7386	59202.3	58304.65
912.7274	1779.4263	59669.55	58773.9
912.8679	1781.1132	59670.45	58775.8
913.0084	1782.7994	59388.1	58493.95
913.149	1784.4849	59518.2	58625.4
913.2895	1786.1696	58327.5	57428.6
913.4299	1787.8535	58974.65	58082.35
913.5704	1789.5367	59098.75	58206
913.7108	1791.2192	58376.8	57481.75
913.8513	1792.9009	58027.2	57103.8
913.9917	1794.5818	58457.35	57562.85
914.132	1796.2621	57878.35	56987.65
914.2724	1797.9415	57910.25	57015.55
914.4128	1799.6202	57775.1	56881.25
914.5531	1801.2982	57863.3	56969
914.6934	1802.9755	57220.35	56325
914.8337	1804.6519	57061.95	56168.7
914.9739	1806.3277	57742.8	56851.05
915.1142	1808.0027	56433.35	55542.6
915.2544	1809.6769	56864.55	55970.7
915.3946	1811.3504	57008.8	56112.65
915.5348	1813.0231	56009.35	55117
915.675	1814.6951	56569.25	55674
915.8151	1816.3664	56194	55297.45
915.9553	1818.0369	56270.7	55377.5
916.0954	1819.7067	55904.6	55010.95
916.2355	1821.3757	56414.2	55520.2
916.3755	1823.044	55545.2	54654.3
916.5156	1824.7115	55347.7	54454.25
916.6556	1826.3783	55461.7	54568.35
916.7956	1828.0443	55382.6	54490.35
916.9356	1829.7096	55060.85	54165.45
917.0756	1831.3741	54680.5	53782.85
917.2155	1833.0379	54825.1	53931.4
917.3555	1834.701	54701.45	53806.55
917.4954	1836.3633	54325.85	53431.75
917.6353	1838.0248	54474.8	53580.95
917.7751	1839.6856	54263.9	53368.35
917.915	1841.3457	53930.1	53036.45
918.0548	1843.005	54289.15	53395
918.1946	1844.6636	53949.75	53056.65
918.3344	1846.3214	53526.95	52630.65
918.4742	1847.9785	53654.5	52762.05
918.6139	1849.6349	53525.95	52632.05
918.7537	1851.2904	53656.75	52755.2
918.8934	1852.9453	53176.3	52282.25
919.0331	1854.5994	53151.8	52255.3
919.1727	1856.2528	53307.8	52409.55
919.3124	1857.9054	52934.75	52040.8
919.452	1859.5572	52791.9	51896.3
919.5916	1861.2083	52730.8	51836
919.7312	1862.8587	53029.15	52133.1
919.8708	1864.5084	52178.5	51284.85
920.0103	1866.1572	52318.2	51424.65
920.1498	1867.8054	51963.45	51070.2
920.2893	1869.4528	52186.9	51293.25
920.4288	1871.0994	51681.45	50786.2
920.5683	1872.7453	51780.15	50885
920.7077	1874.3905	51731	50829.8
920.8471	1876.0349	51365.3	50471.65
920.9865	1877.6786	51503.4	50609
921.1259	1879.3215	51290.1	50395.35
921.2653	1880.9637	51324.95	50431.8
921.4046	1882.6051	51150.35	50257.35
921.5439	1884.2458	50863.1	49968.9
921.6832	1885.8858	50617.5	49723.65
921.8225	1887.525	50669.85	49776.4
921.9617	1889.1634	50451.15	49558.2
922.101	1890.8011	50301.95	49406
922.2402	1892.4381	49948.25	49054.85
922.3794	1894.0743	50181.6	49288.1
922.5185	1895.7098	50013.25	49119.1
922.6577	1897.3446	49760.45	48866.35
922.7968	1898.9786	49708.45	48810.4
922.9359	1900.6118	49549.8	48657.1
923.075	1902.2443	49235.9	48339.6
923.214	1903.8761	49181.75	48289.15
923.3531	1905.5071	48946.5	48052.75
923.4921	1907.1374	48643.75	47749.1
923.6311	1908.7669	48642.85	47750.25
923.77	1910.3957	48657.5	47764.75
923.909	1912.0237	48226.05	47332.85
924.0479	1913.651	48109.5	47215.15
924.1868	1915.2776	48070.25	47177.5
924.3257	1916.9034	47836.9	46944.05
924.4646	1918.5285	47613.8	46721.45
924.6034	1920.1528	47383.4	46489.45
924.7422	1921.7764	47353.25	46461.25
924.881	1923.3992	47123.45	46230.35
925.0198	1925.0213	46865.7	45972.65
925.1586	1926.6427	46641.35	45750.35
925.2973	1928.2633	46684.1	45685.05
925.436	1929.8832	46484.35	45590.1
925.5747	1931.5023	46230.35	45338.7
925.7134	1933.1207	46082.85	45191.1
925.852	1934.7383	46044.15	45147.05
925.9906	1936.3552	45846.35	44953.65
926.1292	1937.9714	45713.3	44819.45
926.2678	1939.5868	45526.9	44631.75
926.4064	1941.2015	45209	44314.3
926.5449	1942.8154	45106.3	44213.4
926.6834	1944.4286	44936.75	44043.95
926.8219	1946.041	44716.3	43806.55
926.9604	1947.6528	44480.1	43582.45
927.0988	1949.2637	44408.4	43516.6
927.2372	1950.8739	44228.9	43336.4
927.3756	1952.4834	44155.7	43263.4
927.514	1954.0921	44122.9	43229.55
927.6523	1955.7001	43845.9	42948.45
927.7907	1957.3074	43704.8	42810.6
927.929	1958.9139	43490.15	42597.85
928.0673	1960.5197	43438.15	42544.1
928.2055	1962.1247	43240.6	42347.8
928.3438	1963.729	43000.8	42109.25
928.482	1965.3325	42860.75	41946.4
928.6202	1966.9353	42732.95	41841.05
928.7584	1968.5374	42511.1	41618.8
928.8965	1970.1387	42426.35	41533.75
929.0346	1971.7393	42279.2	41385.3
929.1727	1973.3392	42144.45	41252.4
929.3108	1974.9383	41937.9	41045.9
929.4489	1976.5366	41768.7	40876.95
929.5869	1978.1342	41711.55	40819.5
929.7249	1979.7311	41659.95	40766.45
929.8629	1981.3273	41516.9	40623.8
930.0009	1982.9227	41326.9	40434.15
930.1388	1984.5173	41180	40291.1
930.2767	1986.1112	40982.35	40092.45
930.4146	1987.7044	40955.45	40065.6
930.5525	1989.2968	40781.95	39889.55
930.6904	1990.8885	40712.75	39817.2
930.8282	1992.4795	40625.6	39734.4
930.966	1994.0697	40400.05	39510.55
931.1038	1995.6592	40251.1	39360.9
931.2415	1997.2479	40079.45	39186.75
931.3793	1998.8359	40021.25	39130.1
931.517	2000.4232	39785.8	38894.25
931.6547	2002.0097	39678.35	38788.3
931.7923	2003.5955	39503.8	38611.4
931.93	2005.1805	39469.8	38575.15
932.0676	2006.7648	39349.55	38459.3
932.2052	2008.3484	39212.7	38321.1
932.3427	2009.9312	39209.5	38317.4
932.4803	2011.5133	38984.95	38095.65
932.6178	2013.0946	38870.55	37979.4
932.7553	2014.6752	38835.7	37947.95
932.8928	2016.2551	38681.05	37789.1
933.0302	2017.8342	38552.7	37660.15
933.1676	2019.4126	38350.8	37461.35
933.305	2020.9902	38175.25	37285.6
933.4424	2022.5672	38115.45	37224.8
933.5798	2024.1433	38057.45	37162.55
933.7171	2025.7188	37854.55	36964.05
933.8544	2027.2935	37821	36929.2
933.9917	2028.8674	37692.8	36802.6
934.129	2030.4406	37550.35	36658.6
934.2662	2032.0131	37305.3	36415.85
934.4034	2033.5849	37155.55	36260.8
934.5406	2035.1559	37130.8	36241.05
934.6778	2036.7261	37090.25	36199.15
934.8149	2038.2957	36963.45	36073
934.952	2039.8645	36861.2	35970.6
935.0891	2041.4325	36891.1	35996.8
935.2262	2042.9998	36695.65	35804.6
935.3632	2044.5664	36552.4	35661.4
935.5002	2046.1323	36468.5	35579
935.6372	2047.6974	36344.75	35453.85
935.7742	2049.2617	36226.3	35336.7
935.9111	2050.8254	36213.9	35319.1
936.048	2052.3883	36102	35210.3
936.1849	2053.9504	36005.95	35116.2
936.3218	2055.5118	35850.35	34959.35
936.4586	2057.0725	35686.85	34791.8
936.5955	2058.6325	35622.7	34731.1
936.7323	2060.1917	35531.4	34640.6
936.869	2061.7502	35401.9	34508.9
937.0058	2063.3079	35245.6	34354.45
937.1425	2064.8649	35143.65	34249.2
937.2792	2066.4212	35048.45	34156.3
937.4159	2067.9767	34880.65	33990.75
937.5525	2069.5315	34711	33820.85
937.6891	2071.0856	34594.05	33701.3
937.8257	2072.6389	34480.2	33588.25
937.9623	2074.1915	34315.25	33424.95
938.0989	2075.7433	34160.4	33268.7
938.2354	2077.2945	34100.8	33211.35
938.3719	2078.8448	33979.25	33087.95
938.5084	2080.3945	33828.5	32934.5
938.6448	2081.9434	33808.9	32919.1
938.7812	2083.4916	33679.1	32788.1
938.9176	2085.039	33533.4	32641.8
939.054	2086.5857	33461.6	32570.5
939.1903	2088.1317	33358.8	32467.25
939.3267	2089.677	33300.25	32409.2
939.463	2091.2215	33177.05	32285.65
939.5992	2092.7652	33100.05	32203.55
939.7355	2094.3083	32987.3	32096.3
939.8717	2095.8506	32986.15	32097
940.0079	2097.3921	32950.75	32060.45
940.1441	2098.933	32779.15	31887.25
940.2802	2100.4731	32616.5	31725.15
940.4163	2102.0124	32610.5	31712.1
940.5524	2103.5511	32502.3	31610.7
940.6885	2105.089	32437.5	31546.9
940.8245	2106.6261	32374.9	31483.25
940.9606	2108.1626	32249.7	31355.55
941.0965	2109.6983	32205	31284.65
941.2325	2111.2332	32077.45	31184.75
941.3684	2112.7675	32036.9	31144.2
941.5044	2114.301	31873.2	30982.4
941.6403	2115.8337	31860.15	30967.35
941.7761	2117.3657	31714.8	30824.95
941.912	2118.897	31642.3	30749.9
942.0478	2120.4276	31525.65	30628.25
942.1835	2121.9575	31344.6	30452.9
942.3193	2123.4866	31359.7	30454.15
942.455	2125.0149	31252.55	30358
942.5907	2126.5426	31073	30183
942.7264	2128.0695	31027.4	30133.35
942.8621	2129.5956	30978.9	30088.3
942.9977	2131.1211	30896.45	30000.1
943.1333	2132.6458	30756.6	29865.45
943.2689	2134.1698	30725.4	29833
943.4044	2135.693	30599.1	29706.4
943.54	2137.2155	30551.35	29655.95
943.6755	2138.7373	30455.2	29562.45
943.8109	2140.2584	30325.9	29436.15
943.9464	2141.7787	30240.3	29344.7
944.0818	2143.2983	30072.2	29181.2
944.2172	2144.8171	29950.65	29063.45
944.3526	2146.3353	29884.05	28992.1
944.4879	2147.8527	29735.95	28844.65
944.6232	2149.3693	29744.35	28854.4
944.7585	2150.8853	29608	28716
944.8938	2152.4005	29440.7	28549.1
945.029	2153.9149	29453.5	28560.25
945.1642	2155.4287	29309.9	28418.7
945.2994	2156.9417	29271.45	28380
945.4346	2158.454	29169.15	28275.95
945.5697	2159.9655	29077.9	28187.65
945.7048	2161.4764	29015.1	28123.55
945.8399	2162.9865	28925.35	28034.7
945.9749	2164.4958	28855.55	27963.55
946.1099	2166.0045	28721.1	27826.35
946.2449	2167.5124	28700.2	27808.05
946.3799	2169.0195	28593.05	27701.85
946.5148	2170.526	28565.4	27673.1
946.6498	2172.0317	28464.3	27573.1
946.7846	2173.5367	28369.75	27476.05
946.9195	2175.0409	28305	27414.3
947.0543	2176.5445	28284	27392.75
947.1891	2178.0473	28136.55	27245.25
947.3239	2179.5494	27994.6	27099.3
947.4587	2181.0507	27865.2	26973.65
947.5934	2182.5513	27839.2	26945.9
947.7281	2184.0512	27782.65	26890.15
947.8628	2185.5504	27672.45	26781.75
947.9974	2187.0488	27519.4	26627.3
948.132	2188.5465	27404.5	26512.75
948.2666	2190.0435	27316.95	26425.55
948.4012	2191.5397	27254.25	26363.4
948.5357	2193.0353	27170.2	26281.75
948.6702	2194.5301	27012.2	26119.75
948.8047	2196.0241	26935.85	26041.45
948.9392	2197.5175	26818.65	25925.15
949.0736	2199.0101	26694.95	25800.85
949.208	2200.502	26558.15	25666.3
949.3424	2201.9931	26452.1	25562.75
949.4767	2203.4835	26404.55	25514.6
949.611	2204.9733	26363.55	25467.2
949.7453	2206.4622	26258.5	25368.5
949.8796	2207.9505	26140.1	25247.15
950.0138	2209.438	26037.75	25149.45
950.148	2210.9248	25967.15	25076.45
950.2822	2212.4109	25873.2	24982.55
950.4164	2213.8962	25746.3	24851.35
950.5505	2215.3809	25668.45	24774.55
950.6846	2216.8648	25615.5	24722.15
950.8186	2218.3479	25508.2	24611.85
950.9527	2219.8304	25447.95	24553.1
951.0867	2221.3121	25358.05	24464.4
951.2207	2222.7931	25262.4	24372.8
951.3546	2224.2733	25155.15	24264.3
951.4886	2225.7529	25054.7	24162.05
951.6225	2227.2317	24946.75	24053.2
951.7563	2228.7098	24939.1	24048.3
951.8902	2230.1872	24847.25	23957.45
952.024	2231.6638	24762.8	23869.9
952.1578	2233.1397	24687.1	23788.75
952.2916	2234.6149	24647.35	23756.95
952.4253	2236.0894	24481.75	23589.25
952.559	2237.5632	24406.85	23513.6
952.6927	2239.0362	24339.8	23450.5
952.8263	2240.5085	24271.45	23378.75
952.9599	2241.9801	24181.5	23291.3
953.0935	2243.4509	24090.65	23199.25
953.2271	2244.921	24017.35	23126.5
953.3606	2246.3904	23889.85	22994
953.4941	2247.8591	23829.8	22937.4
953.6276	2249.3271	23751.85	22860.8
953.7611	2250.7943	23659.05	22766.85
953.8945	2252.2608	23582.9	22690.55
954.0279	2253.7266	23526.85	22637.85
954.1612	2255.1917	23493.8	22602
954.2946	2256.656	23339.05	22447
954.4279	2258.1197	23283.9	22394
954.5612	2259.5826	23204.95	22312.1
954.6944	2261.0447	23169.7	22276.8
954.8276	2262.5062	23087.65	22194.7
954.9608	2263.9669	23028.9	22137.1
955.094	2265.4269	23008.65	22118.05
955.2271	2266.8862	22915.75	22024.95
955.3602	2268.3448	22854.05	21961.3
955.4933	2269.8026	22780.45	21890.25
955.6264	2271.2598	22694.6	21803.8
955.7594	2272.7162	22597.8	21707.65
955.8924	2274.1719	22554.55	21663.2
956.0253	2275.6268	22458	21565.8
956.1583	2277.0811	22453.5	21560.95
956.2912	2278.5346	22322	21430.5
956.4241	2279.9874	22303.3	21411.45
956.5569	2281.4395	22238.8	21348.55
956.6897	2282.8908	22128.3	21232.3
956.8225	2284.3414	22107	21212.45
956.9553	2285.7914	22027.8	21137.95
957.088	2287.2406	21963.05	21069.6
957.2207	2288.689	21855.6	20962.45
957.3534	2290.1368	21817.4	20926
957.486	2291.5838	21738.4	20843.9
957.6186	2293.0302	21670.85	20777.75
957.7512	2294.4758	21546.55	20653.7
957.8838	2295.9206	21453.95	20561.45
958.0163	2297.3648	21421.3	20530.3
958.1488	2298.8082	21396.75	20503.6
958.2813	2300.251	21346.5	20454.3
958.4137	2301.693	21255.55	20362.95
958.5461	2303.1343	21250.6	20357.35
958.6785	2304.5748	21110.8	20219.3
958.8108	2306.0147	21048.6	20156.7
958.9432	2307.4538	20989.8	20094.1
959.0754	2308.8922	20921.85	20031.55
959.2077	2310.3299	20854.95	19963.15
959.3399	2311.7669	20784	19893.75
959.4721	2313.2031	20718.55	19827.6
959.6043	2314.6387	20644.25	19750.95
959.7365	2316.0735	20573.85	19683.85
959.8686	2317.5076	20494.15	19603.15
960.0006	2318.941	20471.7	19580.1
960.1327	2320.3737	20413.1	19521.1
960.2647	2321.8056	20328.3	19434.4
960.3967	2323.2369	20263.55	19375.45
960.5287	2324.6674	20198.7	19303.4
960.6606	2326.0972	20082.15	19189.55
960.7925	2327.5263	20005.6	19113.7
960.9244	2328.9547	19935.8	19043.65
961.0562	2330.3823	19905.3	19014.2
961.1881	2331.8092	19890.8	18994.7
961.3198	2333.2355	19780.7	18886.7
961.4516	2334.661	19809.4	18917.6
961.5833	2336.0858	19724.25	18830.65
961.715	2337.5098	19667.6	18775.75
961.8467	2338.9332	19621.05	18728.45
961.9783	2340.3558	19531.35	18635.3
962.1099	2341.7778	19422	18530.5
962.2415	2343.199	19374.25	18478.95
962.373	2344.6195	19309.15	18418.8
962.5045	2346.0393	19289.85	18400.4
962.636	2347.4583	19217.5	18325.15
962.7675	2348.8767	19121.2	18230.5
962.8989	2350.2943	19090.45	18197.75
963.0303	2351.7113	19035.3	18141.8
963.1617	2353.1275	18972.8	18082.05
963.293	2354.543	18927.8	18026.4
963.4243	2355.9578	18844.9	17955.25
963.5556	2357.3718	18726.75	17835
963.6868	2358.7852	18676.95	17784.45
963.818	2360.1978	18602.15	17711.8
963.9492	2361.6098	18510.25	17620.85
964.0803	2363.021	18480.5	17586.2
964.2114	2364.4315	18396.55	17504.8
964.3425	2365.8413	18353.95	17461
964.4736	2367.2504	18280.75	17390.55
964.6046	2368.6587	18217.5	17323.85
964.7356	2370.0664	18131.2	17241.1
964.8666	2371.4733	18051.65	17159.75
964.9975	2372.8795	18020.1	17129.35
965.1284	2374.285	17917.65	17026.1
965.2593	2375.6899	17850.35	16960.3
965.3901	2377.0939	17801.6	16912.75
965.5209	2378.4973	17734.75	16845.35
965.6517	2379.9	17644.95	16754.7
965.7825	2381.3019	17595.3	16703.45
965.9132	2382.7032	17519.45	16631.9
966.0439	2384.1037	17507.45	16619.8
966.1745	2385.5035	17418	16527.4
966.3051	2386.9027	17338.85	16449.25
966.4357	2388.3011	17307.55	16413.9
966.5663	2389.6987	17288.6	16396.05
966.6968	2391.0957	17221.15	16329.8
966.8273	2392.492	17117.35	16228.9
966.9578	2393.8876	16984.5	16095.35
967.0882	2395.2824	16932	16042.15
967.2186	2396.6765	16852.35	15962.05
967.349	2398.07	16787.45	15896.8
967.4793	2399.4627	16782.4	15890.75
967.6097	2400.8547	16757.45	15865.3
967.7399	2402.246	16663.2	15767.5
967.8702	2403.6366	16543.9	15652.7
968.0004	2405.0265	16446.2	15557.25
968.1306	2406.4156	16401.55	15509.85
968.2607	2407.8041	16317.65	15422.55
968.3909	2409.1918	16300.85	15407.75
968.521	2410.5789	16233.7	15342.55
968.651	2411.9652	16129.9	15234.5
968.781	2413.3508	16099.95	15208.6
968.911	2414.7358	16041.7	15150.45
969.041	2416.12	15963.3	15074.35
969.1709	2417.5035	15934.55	15045.1
969.3008	2418.8863	15885.6	14994.4
969.4307	2420.2684	15832.25	14941.95
969.5606	2421.6497	15757.1	14866.65
969.6904	2423.0304	15649.5	14761.1
969.8201	2424.4104	15612.75	14720.2
969.9499	2425.7896	15577	14682.5
970.0796	2427.1682	15540.85	14650.85
970.2093	2428.546	15495.65	14603.55
970.3389	2429.9232	15468	14576.9
970.4685	2431.2996	15376.35	14486.55
970.5981	2432.6753	15331.55	14441.35
970.7277	2434.0503	15285.1	14396
970.8572	2435.4246	15227.25	14338.55
970.9867	2436.7982	15191.15	14298.45
971.1161	2438.1711	15131.55	14240.9
971.2456	2439.5433	15054.75	14164.05
971.375	2440.9148	14984.4	14087.8
971.5043	2442.2856	14928.3	14037.75
971.6336	2443.6557	14916	14022.65
971.7629	2445.025	14846.35	13954.85
971.8922	2446.3937	14825.85	13935.45
972.0214	2447.7617	14748.05	13858
972.1506	2449.1289	14758.15	13870.05
972.2798	2450.4955	14734.95	13839.6
972.4089	2451.8613	14621.75	13731.15
972.538	2453.2265	14595.5	13703.75
972.6671	2454.5909	14557.8	13666.55
972.7961	2455.9546	14510.6	13619.9
972.9251	2457.3177	14437.65	13546.1
973.0541	2458.68	14386.2	13494.8
973.1831	2460.0416	14404	13512.2
973.312	2461.4025	14359.2	13468
973.4408	2462.7627	14332.65	13429.8
973.5697	2464.1222	14256.85	13366.6
973.6985	2465.4811	14204.95	13313.8
973.8273	2466.8392	14180	13288.15
973.956	2468.1966	14140.9	13249.2
974.0847	2469.5533	14104.35	13211
974.2134	2470.9093	14050.1	13159.3
974.3421	2472.2645	14002.9	13111.3
974.4707	2473.6191	13973.8	13084.9
974.5993	2474.973	13878.5	12988.25
974.7278	2476.3262	13864.7	12972.8
974.8563	2477.6787	13813.7	12923.85
974.9848	2479.0305	13730.05	12839.45
975.1132	2480.3816	13665.75	12772.5
975.2417	2481.7319	13609.25	12717.6
975.37	2483.0816	13567.35	12674
975.4984	2484.4306	13538.5	12647
975.6267	2485.7789	13474	12582.95
975.755	2487.1264	13412.8	12521.05
975.8833	2488.4733	13357.35	12468.3
976.0115	2489.8195	13303.3	12395.15
976.1397	2491.165	13272.95	12379.1
976.2678	2492.5097	13233.8	12341.1
976.3959	2493.8538	13148	12259.05
976.524	2495.1972	13108.65	12218.25
976.6521	2496.5398	13038.05	12145.3
976.7801	2497.8818	13015.55	12121.95
976.9081	2499.2231	12967.2	12075.15
977.036	2500.5637	12925.8	12032.75
977.164	2501.9035	12884.95	11990.45
977.2918	2503.2427	12815.5	11921.6
977.4197	2504.5812	12811	11921.25
977.5475	2505.919	12772.8	11881.4
977.6753	2507.256	12739	11848.9
977.8031	2508.5924	12673.65	11784.3
977.9308	2509.9281	12629.85	11732.25
978.0585	2511.2631	12574.05	11682.9
978.1861	2512.5974	12547.05	11657.25
978.3137	2513.9309	12519.05	11629.4
978.4413	2515.2638	12466.55	11548.8
978.5689	2516.596	12428.55	11536.4
978.6964	2517.9275	12352.7	11461
978.8239	2519.2583	12304.35	11413.1
978.9513	2520.5884	12252.35	11359.35
979.0788	2521.9178	12216.85	11326.95
979.2062	2523.2465	12166.55	11278
979.3335	2524.5745	12093.25	11203.1
979.4608	2525.9018	12088.8	11197.75
979.5881	2527.2284	12064.35	11173.85
979.7154	2528.5543	12025.1	11136.1
979.8426	2529.8796	11986.1	11094.9
979.9698	2531.2041	11952.9	11062.45
980.0969	2532.5279	11915	11025.85
980.224	2533.851	11894.45	11003.25
980.3511	2535.1735	11853.4	10960.95
980.4781	2536.4952	11822.85	10932.6
980.6052	2537.8163	11791.4	10899.25
980.7321	2539.1366	11747.85	10858.7
980.8591	2540.4562	11723.5	10831.7
980.986	2541.7752	11712.95	10823.15
981.1129	2543.0935	11652.45	10759.9
981.2397	2544.411	11646.25	10753.9
981.3665	2545.7279	11602.7	10710.7
981.4933	2547.0441	11561.7	10671.15
981.62	2548.3596	11572.3	10676.9
981.7467	2549.6744	11522.8	10632.4
981.8734	2550.9885	11455.55	10555.5
982.0001	2552.3019	11433.25	10543.3
982.1267	2553.6146	11442.55	10551.85
982.2532	2554.9266	11371.9	10480.7
982.3798	2556.2379	11325.6	10432.65
982.5063	2557.5485	11335.9	10446.15
982.6327	2558.8585	11251.5	10353.35
982.7592	2560.1677	11260.3	10365.25
982.8856	2561.4762	11252.75	10359.95
983.0119	2562.7841	11200.05	10305.95
983.1383	2564.0913	11194.05	10303.4
983.2646	2565.3977	11176.2	10284.6
983.3908	2566.7035	11142.85	10250.95
983.517	2568.0086	11125.95	10233.55
983.6432	2569.313	11081.6	10188.55
983.7694	2570.6167	11064.4	10169.9
983.8955	2571.9197	11035.1	10144.05
984.0216	2573.222	10991.05	10096.6
984.1476	2574.5236	10975.1	10085.05
984.2737	2575.8246	10934.65	10040.85
984.3996	2577.1248	10939.5	10042.35
984.5256	2578.4244	10908.1	10016.85
984.6515	2579.7232	10899.25	10006.7
984.7774	2581.0214	10857.35	9942.45
984.9032	2582.3189	10834.85	9944.1
985.029	2583.6157	10791.6	9895.7
985.1548	2584.9118	10761.5	9870.2
985.2806	2586.2072	10753.7	9863.3
985.4063	2587.5019	10713.9	9823.05
985.5319	2588.7959	10676.95	9785.25
985.6576	2590.0893	10671.95	9778.35
985.7832	2591.3819	10631.25	9740.35
985.9087	2592.6739	10596.15	9705.4
986.0343	2593.9652	10560.75	9668.75
986.1597	2595.2557	10520.1	9630.8
986.2852	2596.5456	10449.65	9557.6
986.4106	2597.8348	10416.15	9524.05
986.536	2599.1234	10386.7	9496.5
986.6614	2600.4112	10343.75	9452
986.7867	2601.6983	10324.9	9430.2
986.912	2602.9848	10284.1	9393.1
987.0372	2604.2705	10235.8	9338.55
987.1624	2605.5556	10203.5	9310.85
987.2876	2606.84	10192.1	9300.8
987.4128	2608.1237	10151.3	9260.7
987.5379	2609.4067	10107.2	9216.7
987.6629	2610.689	10080.55	9182.5
987.788	2611.9707	10053.65	9158.4
987.913	2613.2516	10002.4	9106
988.0379	2614.5319	9919.9	9028.2
988.1629	2615.8115	9912.05	9020.25
988.2878	2617.0903	9873.85	8981.3
988.4126	2618.3685	9825.45	8935
988.5375	2619.6461	9809.75	8917.05
988.6622	2620.9229	9773.45	8882.1
988.787	2622.199	9760.8	8869.85
988.9117	2623.4745	9727.45	8836.2
989.0364	2624.7493	9660.7	8770.55
989.161	2626.0234	9635.05	8743.9
989.2857	2627.2968	9607.3	8716.55
989.4102	2628.5695	9570.85	8679.65
989.5348	2629.8415	9537.85	8645.9
989.6593	2631.1128	9480.15	8587.7
989.7837	2632.3835	9449.7	8560.2
989.9082	2633.6535	9397.65	8506.2
990.0326	2634.9228	9378.5	8486.85
990.1569	2636.1914	9373.4	8484.5
990.2812	2637.4593	9327.1	8434.4
990.4055	2638.7265	9269.6	8377.2
990.5298	2639.9931	9238.2	8348.65
990.654	2641.259	9220.25	8328.35
990.7782	2642.5242	9200.1	8307.65
990.9023	2643.7887	9167.15	8276.8
991.0264	2645.0525	9161.45	8271.45
991.1505	2646.3156	9112.45	8220.2
991.2745	2647.5781	9070.15	8178.4
991.3985	2648.8398	9031.9	8141.8
991.5225	2650.1009	9000.8	8101.85
991.6464	2651.3613	8983.75	8092.35
991.7703	2652.6211	8956.55	8066.2
991.8942	2653.8801	8946.45	8056.4
992.018	2655.1385	8901.7	8009.2
992.1418	2656.3961	8889.4	7999.1
992.2655	2657.6531	8837.65	7946.1
992.3892	2658.9094	8834.35	7945
992.5129	2660.1651	8794.7	7905.1
992.6366	2661.42	8792.2	7901.3
992.7602	2662.6743	8773.35	7880.9
992.8837	2663.9279	8748.15	7858.2
993.0073	2665.1808	8705.75	7813.9
993.1307	2666.433	8696.2	7803.7
993.2542	2667.6846	8657.45	7767.45
993.3776	2668.9354	8655.9	7760.65
993.501	2670.1856	8618.7	7727.25
993.6244	2671.4351	8614.45	7725.05
993.7477	2672.6839	8569.35	7677.55
993.8709	2673.9321	8536.25	7646.85
993.9942	2675.1795	8508.7	7618.6
994.1174	2676.4263	8498.7	7608.05
994.2405	2677.6724	8459.1	7569.3
994.3637	2678.9179	8444.05	7553.7
994.4868	2680.1626	8409.65	7518.95
994.6098	2681.4067	8390.85	7501.2
994.7328	2682.6501	8379.55	7491.4
994.8558	2683.8928	8318.85	7429.45
994.9788	2685.1348	8299.4	7410.45
995.1017	2686.3761	8261.05	7369.2
995.2245	2687.6168	8241.75	7350.9
995.3474	2688.8568	8219.85	7329.45
995.4702	2690.0961	8172.15	7281.8
995.5929	2691.3348	8173.35	7283.3
995.7156	2692.5727	8153.1	7263.6
995.8383	2693.81	8132.5	7241.65
995.961	2695.0466	8096.65	7206.85
996.0836	2696.2826	8060.65	7168.65
996.2062	2697.5178	8031.5	7142
996.3287	2698.7524	8004.9	7114.95
996.4512	2699.9863	7999.65	7108.2
996.5737	2701.2195	7958.05	7068.95
996.6961	2702.452	7940.95	7048.45
996.8185	2703.6839	7930.45	7036.35
996.9408	2704.9151	7894.5	7003.5
997.0631	2706.1456	7874.95	6983.6
997.1854	2707.3755	7837.3	6945.45
997.3077	2708.6046	7812.8	6919.6
997.4299	2709.8331	7811.8	6920.25
997.552	2711.0609	7765.4	6874.75
997.6742	2712.2881	7770.1	6880.35
997.7963	2713.5145	7760.5	6867.85
997.9183	2714.7403	7739.7	6847.7
998.0403	2715.9654	7698.1	6805.95
998.1623	2717.1899	7691.25	6784.8
998.2842	2718.4136	7670.35	6778.4
998.4062	2719.6367	7654.4	6763.55
998.528	2720.8591	7624.95	6726.6
998.6498	2722.0809	7608.5	6716.55
998.7716	2723.3019	7596.95	6703.4
998.8934	2724.5223	7582.9	6688.7
999.0151	2725.7421	7558.4	6666.55
999.1368	2726.9611	7542.9	6650.85
999.2584	2728.1795	7510.35	6616
999.38	2729.3972	7469.75	6579.7
999.5016	2730.6142	7442.25	6538.35
999.6231	2731.8306	7397.8	6508.2
999.7446	2733.0462	7365.8	6471.35
999.8661	2734.2612	7328.15	6432.65
999.9875	2735.4756	7262.85	6371.85
1000.1089	2736.6892	7234.55	6342.65
1000.2302	2737.9022	7201.95	6313
1000.3515	2739.1145	7149.15	6257.2
1000.4728	2740.3262	7117.95	6220.3
1000.594	2741.5372	7068.7	6176.65
1000.7152	2742.7475	7056.4	6165.65
1000.8363	2743.9571	7034.35	6142.8
1000.9575	2745.1661	7003.4	6107.9
1001.0785	2746.3744	6987.25	6097.3
1001.1996	2747.582	6953.2	6062.15
1001.3206	2748.7889	6927.55	6034.2
1001.4415	2749.9952	6891.15	6001.95
1001.5625	2751.2008	6858.1	5966.25
1001.6833	2752.4057	6838.75	5946.6
1001.8042	2753.61	6793.75	5903
1001.925	2754.8136	6784.25	5890.7
1002.0458	2756.0165	6743.6	5852.65
1002.1665	2757.2188	6749.3	5859.9
1002.2872	2758.4204	6713.2	5823.45
1002.4078	2759.6213	6686.95	5794.6
1002.5285	2760.8215	6664.8	5770.3
1002.649	2762.0211	6652.15	5759.35
1002.7696	2763.22	6647.65	5753.85
1002.8901	2764.4182	6608.15	5715.2
1003.0106	2765.6158	6572.95	5683.1
1003.131	2766.8127	6563.8	5673.15
1003.2514	2768.009	6528.9	5639.8
1003.3717	2769.2045	6520.8	5630.6
1003.492	2770.3994	6507.35	5613.75
1003.6123	2771.5936	6460.95	5570.3
1003.7325	2772.7872	6443.45	5554.15
1003.8527	2773.9801	6407.5	5515.75
1003.9729	2775.1723	6397.05	5490.6
1004.093	2776.3639	6390.4	5499.5
1004.2131	2777.5548	6357.5	5466
1004.3331	2778.745	6323.1	5429.8
1004.4531	2779.9346	6328.2	5438.65
1004.5731	2781.1235	6314.25	5424.75
1004.693	2782.3117	6290.35	5399.7
1004.8129	2783.4992	6256.15	5366.85
1004.9328	2784.6861	6245	5355.05
1005.0526	2785.8723	6230.7	5338
1005.1723	2787.0579	6197.6	5306.1
1005.2921	2788.2428	6208.6	5316.05
1005.4118	2789.427	6191	5301.15
1005.5314	2790.6106	6167.75	5277.05
1005.651	2791.7935	6138.5	5249.85
1005.7706	2792.9757	6135.15	5247.4
1005.8902	2794.1573	6120.55	5228.85
1006.0097	2795.3382	6128.85	5240.1
1006.1291	2796.5184	6108.35	5219.65
1006.2485	2797.698	6109.6	5218.45
1006.3679	2798.8769	6093.35	5204.3
1006.4873	2800.0551	6100.5	5209.8
1006.6066	2801.2327	6070.9	5177.05
1006.7258	2802.4096	6072.8	5181.65
1006.8451	2803.5859	6082.6	5194.1
1006.9642	2804.7615	6056.3	5165.15
1007.0834	2805.9364	6084.95	5196.2
1007.2025	2807.1106	6107.6	5219.25
1007.3216	2808.2842	6096.85	5205.4
1007.4406	2809.4572	6096.45	5204.45
1007.5596	2810.6294	6118.25	5225.6
1007.6785	2811.801	6146.6	5255.8
1007.7975	2812.972	6177.45	5287.85
1007.9163	2814.1423	6185.35	5295.7
1008.0352	2815.3119	6224.75	5333.8
1008.154	2816.4808	6252.3	5363.6
1008.2727	2817.6491	6287.8	5397.65
1008.3914	2818.8167	6336.25	5446.65
1008.5101	2819.9837	6368.05	5473.2
1008.6288	2821.15	6384.9	5494.45
1008.7474	2822.3157	6406.3	5519.6
1008.8659	2823.4807	6457.05	5566.85
1008.9844	2824.645	6473.6	5581.05
1009.1029	2825.8086	6475.45	5586.9
1009.2214	2826.9716	6523.65	5634.65
1009.3398	2828.134	6555.7	5666.2
1009.4581	2829.2957	6578.3	5687.9
1009.5764	2830.4567	6596.3	5706.65
1009.6947	2831.617	6582.9	5692.35
1009.813	2832.7767	6613.5	5723.75
1009.9312	2833.9358	6583.55	5694.35
1010.0493	2835.0941	6554.25	5661.85
1010.1675	2836.2519	6559.95	5670
1010.2855	2837.4089	6517.1	5624.85
1010.4036	2838.5653	6503.75	5612.95
1010.5216	2839.7211	6493.3	5602.75
1010.6396	2840.8761	6480.5	5587.55
1010.7575	2842.0306	6480.6	5591.45
1010.8754	2843.1843	6507.6	5619.05
1010.9932	2844.3374	6558.9	5668.4
1011.111	2845.4899	6602.35	5712.6
1011.2288	2846.6417	6658.35	5767.45
1011.3465	2847.7928	6710.95	5822.2
1011.4642	2848.9433	6779.05	5890.75
1011.5818	2850.0931	6856.65	5966.1
1011.6995	2851.2422	6891.2	6001.65
1011.817	2852.3907	6943.25	6052.1
1011.9345	2853.5385	7005.25	6115.45
1012.052	2854.6857	7054.2	6138.25
1012.1695	2855.8323	7061.55	6171.2
1012.2869	2856.9781	7111.6	6222.75
1012.4042	2858.1233	7129.65	6239.5
1012.5216	2859.2679	7173.7	6283.55
1012.6389	2860.4118	7212.8	6322.35
1012.7561	2861.555	7237.6	6344.45
1012.8733	2862.6976	7256.6	6363.7
1012.9905	2863.8395	7234.1	6343.25
1013.1076	2864.9808	7254.75	6367.45
1013.2247	2866.1214	7262.25	6373.9
1013.3417	2867.2614	7247.45	6356.85
1013.4587	2868.4007	7248	6358.3
1013.5757	2869.5393	7233.7	6340.95
1013.6926	2870.6773	7227.25	6333.8
1013.8095	2871.8146	7238.1	6344.8
1013.9263	2872.9513	7208.3	6316.1
1014.0431	2874.0874	7196.9	6307.55
1014.1599	2875.2227	7167.7	6276.9
1014.2766	2876.3574	7137	6246.65
1014.3933	2877.4915	7090.25	6202.3
1014.51	2878.6249	7029.45	6139
1014.6266	2879.7577	6985.05	6094.25
1014.7431	2880.8898	6965.6	6067.6
1014.8596	2882.0212	6941.65	6050.55
1014.9761	2883.152	6913.25	6023.55
1015.0925	2884.2821	6880.9	5992.7
1015.2089	2885.4116	6856.75	5967.35
1015.3253	2886.5405	6835.1	5945.8
1015.4416	2887.6686	6870.55	5977
1015.5579	2888.7962	6828	5940.2
1015.6741	2889.923	6804.4	5915.05
1015.7903	2891.0493	6812.15	5924.5
1015.9065	2892.1748	6803.15	5913.55
1016.0226	2893.2997	6806.7	5915.15
1016.1387	2894.424	6794.25	5906.25
1016.2547	2895.5476	6812.4	5921.25
1016.3707	2896.6706	6783.8	5893.65
1016.4866	2897.7929	6803.25	5913.15
1016.6025	2898.9145	6833.7	5942.8
1016.7184	2900.0355	6841.7	5950.05
1016.8342	2901.1559	6844.6	5954.45
1016.95	2902.2756	6891.45	6002.95
1017.0658	2903.3946	6905.5	6017.1
1017.1815	2904.513	6904.45	6011.4
1017.2971	2905.6308	6906.55	6017.45
1017.4127	2906.7479	6914.2	6023.3
1017.5283	2907.8643	6923.95	6033
1017.6439	2908.9801	6899.55	6008.4
1017.7594	2910.0953	6916.95	6027.2
1017.8748	2911.2098	6914.55	6021.05
1017.9902	2912.3236	6887.15	5990.35
1018.1056	2913.4368	6853.85	5960.8
1018.2209	2914.5494	6830.55	5940.35
1018.3362	2915.6613	6780.2	5886.8
1018.4515	2916.7725	6739.75	5846.75
1018.5667	2917.8831	6714.6	5824.25
1018.6819	2918.9931	6671.6	5780.15
1018.797	2920.1024	6631.7	5740.35
1018.9121	2921.211	6604.2	5713.45
1019.0271	2922.319	6569.4	5678.5
1019.1421	2923.4264	6541.55	5652.55
1019.2571	2924.5331	6517.6	5628.9
1019.372	2925.6391	6484.9	5594.85
1019.4869	2926.7445	6488.85	5599.7
1019.6017	2927.8493	6444.4	5555.4
1019.7165	2928.9534	6441.95	5550.95
1019.8313	2930.0569	6407.95	5515.4
1019.946	2931.1597	6403.25	5509.9
1020.0606	2932.2619	6379.5	5489.35
1020.1753	2933.3634	6368.8	5479.25
1020.2899	2934.4643	6355.35	5458.65
1020.4044	2935.5645	6319.55	5423.15
1020.5189	2936.6641	6266.7	5372.1
1020.6334	2937.763	6197.4	5308.15
1020.7478	2938.8613	6138.6	5250.15
1020.8622	2939.959	6086.35	5192.6
1020.9765	2941.056	5998.35	5108.45
1021.0908	2942.1523	5913.45	5023
1021.2051	2943.248	5798.9	4909.75
1021.3193	2944.3431	5721.45	4832.35
1021.4334	2945.4375	5607.95	4717.9
1021.5476	2946.5313	5500.4	4611.55
1021.6617	2947.6244	5378.45	4487.7
1021.7757	2948.7169	5250.25	4360.9
1021.8897	2949.8087	5150.9	4260.4
1022.0037	2950.8999	5045.7	4157.35
1022.1176	2951.9904	4971.35	4081.6
1022.2315	2953.0803	4877.95	3987.9
1022.3453	2954.1696	4811.3	3919.7
1022.4591	2955.2582	4744.3	3852.55
1022.5728	2956.3462	4674.25	3783.75
1022.6865	2957.4335	4644.8	3754.5
1022.8002	2958.5202	4594.9	3702.1
1022.9138	2959.6062	4552.7	3663.2
1023.0274	2960.6916	4518.95	3631.6
1023.141	2961.7764	4496.7	3606.75
1023.2545	2962.8605	4465.5	3575
1023.3679	2963.9439	4439.3	3549.85
1023.4813	2965.0267	4403.3	3514.95
1023.5947	2966.1089	4417.85	3507.45
1023.708	2967.1905	4376.5	3487.85
1023.8213	2968.2714	4355.7	3467.2
1023.9346	2969.3516	4357.95	3467.05
1024.0478	2970.4312	4363.3	3466.55
1024.1609	2971.5102	4325.45	3434.65
1024.274	2972.5885	4314.85	3425.4
1024.3871	2973.6662	4329.45	3435.55
1024.5002	2974.7432	4292.6	3403.9
1024.6132	2975.8196	4264.3	3374.7
1024.7261	2976.8954	4264.9	3376.25
1024.839	2977.9705	4235.05	3346.2
1024.9519	2979.045	4216.55	3326.6
1025.0647	2980.1188	4179.55	3290.45
1025.1775	2981.192	4151.3	3262.95
1025.2902	2982.2645	4121.75	3231.25
1025.4029	2983.3364	4076.75	3187.55
1025.5156	2984.4077	4056.95	3168.55
1025.6282	2985.4783	4025.65	3131.45
1025.7407	2986.5483	3974.1	3087.1
1025.8532	2987.6177	3928.1	3040.15
1025.9657	2988.6864	3887.85	2999.55
1026.0782	2989.7545	3853.25	2961.8
1026.1906	2990.8219	3805.2	2916.35
1026.3029	2991.8887	3777	2885.3
1026.4152	2992.9548	3729.6	2838.75
1026.5275	2994.0204	3703.55	2815.85
1026.6397	2995.0852	3655.05	2766.55
1026.7519	2996.1495	3614.55	2722.55
1026.864	2997.2131	3571.65	2682.95
1026.9761	2998.276	3563.65	2675.35
1027.0882	2999.3383	3536.9	2649.6
1027.2002	3000.4	3508.85	2618.4
1027.3122	3001.4611	3496.45	2607.75
1027.4241	3002.5215	3469.4	2578.65
1027.536	3003.5812	3437.65	2550.05
1027.6478	3004.6404	3421.95	2530.2
1027.7596	3005.6989	3411.25	2520.9
1027.8714	3006.7567	3386.95	2495.5
1027.9831	3007.8139	3391.7	2481.5
1028.0947	3008.8705	3348.7	2459.15
1028.2064	3009.9264	3342.6	2450.5
1028.3179	3010.9818	3330.95	2442.55
1028.4295	3012.0364	3317.3	2425.7
1028.541	3013.0905	3303.5	2413.7
1028.6524	3014.1439	3289.4	2399.2
1028.7638	3015.1966	3290.3	2400.6
1028.8752	3016.2487	3279.75	2391.3
1028.9865	3017.3002	3262.45	2366.85
1029.0978	3018.3511	3258.25	2369.5
1029.209	3019.4013	3264.5	2375
1029.3202	3020.4509	3254.8	2366.7
1029.4314	3021.4998	3242.85	2352.8
1029.5425	3022.5481	3226.9	2336.4
1029.6535	3023.5958	3220.55	2331
1029.7645	3024.6428	3211.9	2321.4
1029.8755	3025.6892	3207.8	2319.1
1029.9864	3026.735	3197.3	2309.45
1030.0973	3027.7802	3196.25	2307.15
1030.2082	3028.8247	3188.4	2299.1
1030.319	3029.8685	3165.35	2275.2
1030.4297	3030.9118	3179.75	2288.05
1030.5404	3031.9544	3167.5	2279.65
1030.6511	3032.9963	3146.75	2258.1
1030.7617	3034.0376	3162.35	2273.4
1030.8723	3035.0783	3162.6	2270.85
1030.9829	3036.1184	3141.65	2252.15
1031.0934	3037.1578	3139.3	2249.85
1031.2038	3038.1966	3139	2249.9
1031.3142	3039.2348	3128.6	2241.3
1031.4246	3040.2723	3139.15	2240.85
1031.5349	3041.3092	3125	2236.65
1031.6452	3042.3455	3105.35	2215.1
1031.7554	3043.3811	3085.9	2196.15
1031.8656	3044.4161	3074.35	2183.2
1031.9758	3045.4505	3062.45	2174.05
1032.0859	3046.4842	3052.05	2163.2
1032.1959	3047.5173	3043.55	2156.4
1032.3059	3048.5498	3037.1	2147.2
1032.4159	3049.5816	3024.15	2133.4
1032.5258	3050.6128	3019.1	2129.15
1032.6357	3051.6434	2995.65	2106.05
1032.7455	3052.6734	2982.8	2094.1
1032.8553	3053.7027	2986.8	2097.25
1032.9651	3054.7314	2962.75	2073.15
1033.0748	3055.7594	2937.75	2048.85
1033.1845	3056.7868	2944.05	2053.6
1033.2941	3057.8136	2919	2029.9
1033.4037	3058.8398	2906.85	2019.75
1033.5132	3059.8653	2890.05	2000.7
1033.6227	3060.8902	2874.55	1986.15
1033.7321	3061.9145	2873.3	1985.2
1033.8415	3062.9381	2858.55	1969.05
1033.9509	3063.9612	2859.25	1954.1
1034.0602	3064.9835	2826.9	1938
1034.1694	3066.0053	2822.7	1931.2
1034.2787	3067.0264	2808	1918.8
1034.3878	3068.0469	2802.55	1912
1034.497	3069.0668	2782.2	1890.95
1034.6061	3070.086	2780.95	1893.8
1034.7151	3071.1046	2764.35	1874.25
1034.8241	3072.1226	2743.9	1853.6
1034.9331	3073.1399	2724.1	1835.2
1035.042	3074.1567	2715.7	1826.05
1035.1508	3075.1727	2708.5	1817.05
1035.2597	3076.1882	2686.8	1796.8
1035.3684	3077.203	2667.15	1778.8
1035.4772	3078.2173	2665.25	1775.65
1035.5859	3079.2308	2642.5	1752.2
1035.6945	3080.2438	2628.5	1738.4
1035.8031	3081.2561	2613.45	1726.25
1035.9117	3082.2678	2597.9	1709.15
1036.0202	3083.2789	2593.05	1704.45
1036.1286	3084.2893	2576.5	1689.75
1036.2371	3085.2991	2565.7	1676.85
1036.3454	3086.3083	2555.1	1662.7
1036.4538	3087.3169	2536.85	1645.45
1036.562	3088.3248	2530.7	1638.8
1036.6703	3089.3321	2527.15	1635.9
1036.7785	3090.3388	2503.2	1616.7
1036.8866	3091.3449	2500.15	1611.05
1036.9948	3092.3503	2478.95	1587.5
1037.1028	3093.3551	2465.5	1577.9
1037.2108	3094.3593	2476.05	1588.25
1037.3188	3095.3629	2452.15	1564.15
1037.4267	3096.3658	2451.5	1561.2
1037.5346	3097.3681	2449	1561.55
1037.6425	3098.3698	2437.05	1546.7
1037.7503	3099.3708	2438.5	1543
1037.858	3100.3713	2406.85	1518.6
1037.9657	3101.3711	2403.35	1512.95
1038.0734	3102.3702	2520.2	1493.25
1038.181	3103.3688	2399.95	1509.15
1038.2886	3104.3667	2378.25	1490.85
1038.3961	3105.364	2369.55	1481.05
1038.5036	3106.3607	2352.75	1462.3
1038.611	3107.3568	2352.55	1463.7
1038.7184	3108.3522	2347.35	1460.25
1038.8257	3109.347	2327.1	1438.3
1038.933	3110.3412	2323.1	1432.75
1039.0403	3111.3348	2316.7	1429
1039.1475	3112.3277	2309.25	1421.05
1039.2547	3113.32	2294.1	1405.6
1039.3618	3114.3117	2282.85	1393.6
1039.4689	3115.3028	2275.9	1386.1
1039.5759	3116.2932	2270.45	1378.4
1039.6829	3117.2831	2269.05	1373
1039.7898	3118.2723	2253.7	1363.45
1039.8967	3119.2608	2247.1	1359.15
1040.0035	3120.2488	2234.45	1346.75
1040.1103	3121.2361	2243.1	1353.8
1040.2171	3122.2229	2217.55	1327.95
1040.3238	3123.209	2219.85	1330.2
1040.4305	3124.1944	2218.85	1330.8
1040.5371	3125.1793	2203.05	1313.5
1040.6437	3126.1635	2199.8	1311.9
1040.7502	3127.1471	2188.9	1302.5
1040.8567	3128.1301	2179.3	1289.95
1040.9631	3129.1125	2171.05	1283.95
1041.0695	3130.0942	2171	1281.75
1041.1759	3131.0753	2180.9	1283.95
1041.2822	3132.0558	2158.45	1265.3
1041.3884	3133.0357	2146.9	1259.55
1041.4946	3134.015	2146.4	1257.9
1041.6008	3134.9936	2142.7	1254.25
1041.7069	3135.9716	2155.6	1246.25
1041.813	3136.949	2134.95	1245.25
1041.919	3137.9258	2130.45	1236.35
1042.025	3138.902	2121.2	1226.55
1042.1309	3139.8775	2119.4	1230.8
1042.2368	3140.8524	2120.1	1233.15
1042.3427	3141.8267	2098.55	1209.1
1042.4485	3142.8004	2097.5	1209.1
1042.5542	3143.7735	2105.35	1210.1
1042.6599	3144.7459	2095.45	1204.75
1042.7656	3145.7178	2089.15	1198.7
1042.8712	3146.689	2069.95	1181.5
1042.9768	3147.6596	2074.9	1184.15
1043.0823	3148.6295	2060.35	1171.9
1043.1878	3149.5989	2052.35	1163.4
1043.2932	3150.5676	2053.1	1164.5
1043.3986	3151.5357	2042.75	1155.25
1043.5039	3152.5032	2030	1141.35
1043.6092	3153.4701	2033.6	1145.3
1043.7145	3154.4364	2024.05	1135.25
1043.8197	3155.402	2010.05	1123.45
1043.9248	3156.367	2004.55	1113.35
1044.03	3157.3315	2042.65	1110.65
1044.135	3158.2952	1997.55	1109.45
1044.24	3159.2584	1995.85	1105.55
1044.345	3160.221	1979.3	1089.9
1044.4499	3161.1829	1969.25	1079.65
1044.5548	3162.1442	1970.7	1083.35
1044.6596	3163.105	1956.7	1068.6
1044.7644	3164.065	1949.75	1061.45
1044.8692	3165.0245	1945.25	1052.85
1044.9739	3165.9834	1947.45	1059.5
1045.0785	3166.9416	1940	1051.3
1045.1831	3167.8993	1930.15	1041
1045.2877	3168.8563	1931.85	1043.4
1045.3922	3169.8127	1913.35	1024.45
1045.4966	3170.7684	1916.45	1027.6
1045.6011	3171.7236	1909.7	1019.7
1045.7054	3172.6782	1899.15	1009.05
1045.8098	3173.6321	1908.1	1017.05
1045.914	3174.5854	1899.15	1006.6
1046.0183	3175.5381	1899.2	1010.9
1046.1224	3176.4902	1877.3	989.1
1046.2266	3177.4417	1873.7	985.45
1046.3307	3178.3926	1871.9	985.05
1046.4347	3179.3428	1879.9	992.35
1046.5387	3180.2924	1864.85	975.9
1046.6427	3181.2415	1851.85	961.65
1046.7466	3182.1899	1855.25	965.1
1046.8504	3183.1377	1851.1	963.05
1046.9542	3184.0848	1844.2	952.6
1047.058	3185.0314	1839.95	952.1
1047.1617	3185.9773	1828.25	940.55
1047.2654	3186.9227	1818.95	930.5
1047.369	3187.8674	1821.1	933.15
1047.4726	3188.8115	1821.7	928.3
1047.5761	3189.755	1806.15	917.5
1047.6796	3190.6979	1810.45	921.3
1047.783	3191.6402	1804.4	917.15
1047.8864	3192.5818	1794.75	906
1047.9898	3193.5229	1809.15	896.4
1048.0931	3194.4633	1791.4	902.85
1048.1963	3195.4031	1778.5	888.3
1048.2995	3196.3423	1779.3	892.25
1048.4027	3197.2809	1778.65	888.25
1048.5058	3198.2189	1776.9	888.1
1048.6089	3199.1563	1769.45	874.6
1048.7119	3200.0931	1758.8	871
1048.8148	3201.0292	1748.9	859.8
1048.9178	3201.9648	1747.35	857.85
1049.0206	3202.8997	1748.6	857.35
1049.1235	3203.834	1741.05	851.2
1049.2262	3204.7677	1748.15	859.45
1049.329	3205.7008	1739.8	848.2
1049.4317	3206.6333	1732.6	845.1
1049.5343	3207.5652	1721.25	827.85
1049.6369	3208.4964	1716.25	827.4
1049.7394	3209.4271	1720.65	834.25
1049.8419	3210.3571	1716.75	829.85
1049.9444	3211.2865	1711.05	822.15
1050.0468	3212.2154	1703.1	812.7
1050.1491	3213.1436	1709.8	817.6
1050.2514	3214.0712	1703.4	807.4
1050.3537	3214.9982	1695.5	807.6
1050.4559	3215.9246	1684.5	795.8
1050.5581	3216.8503	1681.85	794.8
1050.6602	3217.7755	1674.6	786.5
1050.7623	3218.7001	1675.9	788.7
1050.8643	3219.624	1667.95	778.95
1050.9663	3220.5473	1668.4	780.9
1051.0682	3221.4701	1674.45	785.05
1051.1701	3222.3922	1660.65	770.05
1051.2719	3223.3137	1654.75	765.15
1051.3737	3224.2346	1651.15	762
1051.4754	3225.1549	1657.05	767.65
1051.5771	3226.0746	1647.9	760.8
1051.6788	3226.9937	1636.1	748.35
1051.7804	3227.9121	1636.9	750.15
1051.8819	3228.83	1629.5	741.9
1051.9834	3229.7473	1625.7	736.55
1052.0849	3230.6639	1620.5	730.8
1052.1863	3231.5799	1619.4	731.5
1052.2876	3232.4954	1611.5	723.95
1052.3889	3233.4102	1617.45	728.95
1052.4902	3234.3244	1606.85	718.85
1052.5914	3235.238	1599.75	711.75
1052.6926	3236.151	1620.35	707.35
1052.7937	3237.0634	1592.45	704.25
1052.8948	3237.9752	1585.55	697.1
1052.9958	3238.8864	1582	693.05
1053.0968	3239.797	1578.15	690.85
1053.1977	3240.7069	1578.15	689.75
1053.2986	3241.6163	1573.95	684
1053.3994	3242.5251	1570.9	681.85
1053.5002	3243.4332	1565.1	677.05
1053.6009	3244.3408	1563.65	674.25
1053.7016	3245.2477	1556.2	668.8
1053.8022	3246.154	1555.5	663.85
1053.9028	3247.0598	1546.8	659.4
1054.0034	3247.9649	1538.1	650.4
1054.1039	3248.8694	1533.25	644.75
1054.2043	3249.7733	1531.85	642.3
1054.3047	3250.6766	1531.75	643.65
1054.4051	3251.5793	1526.3	635.65
1054.5054	3252.4814	1526.5	640
1054.6056	3253.3829	1520.3	632.2
1054.7058	3254.2838	1511.5	623.1
1054.806	3255.1841	1511.2	622.65
1054.9061	3256.0838	1506	618.85
1055.0061	3256.9829	1501.7	614.8
1055.1062	3257.8814	1497.55	607.95
1055.2061	3258.7792	1496.25	607.8
1055.306	3259.6765	1489	598.75
1055.4059	3260.5731	1483.05	593.7
1055.5057	3261.4692	1472.1	582.9
1055.6055	3262.3647	1469.25	580.5
1055.7052	3263.2595	1456.65	568.3
1055.8049	3264.1538	1457.05	568.8
1055.9045	3265.0474	1444.25	554.5
1056.0041	3265.9404	1438.25	549.85
1056.1036	3266.8329	1425.4	536
1056.2031	3267.7247	1428.5	532.35
1056.3025	3268.616	1395.9	508.85
1056.4019	3269.5066	1389.6	501.8
1056.5013	3270.3966	1382.4	493
1056.6005	3271.286	1358.7	472.15
