Software Version:	3.9.2.0
Unit SN:	10000200
Spectrometer SN:	6960
Date:	3/6/2024 11:01:19 AM
Data Line Index:	25
Spectral Points:	2048
Integration time (ms):	125
Averages:	20
Delay (ms):	30
Sequence Number:	1
Processing:	dark subtract
Laser Power (mW):	305
Laser Current (mA):	822
Laser Diode Temp (C):	25
Laser Case Temp (C):	28.2
System Temp (C):	28
Spectrometer Temp (C):	25.6
CCD Temp (C):	-0.002
Secondary Temp (C):	20.008
Heatsink Temp (C):	23.967
CCDPCB Temp (C):	37.252
SecondaryPCB Temp (C):	34.795

Wavelength	RamanShift	Raw Counts	Dark Subtracted
787.061	30.1047	1084.3	671.4
787.2016	32.3739	1106.25	697.5
787.3422	34.6426	1151.35	739.85
787.4828	36.9109	1202.6	787.8
787.6235	39.1787	1250.6	834.35
787.7642	41.4461	1303	881.75
787.9049	43.7131	1366.75	941.25
788.0456	45.9796	1430.05	999.35
788.1863	48.2456	1487.25	1052.45
788.3271	50.5112	1559.05	1119.9
788.4679	52.7764	1620.8	1181.4
788.6087	55.0411	1692.5	1249.7
788.7496	57.3054	1781	1332
788.8904	59.5692	1866.3	1413.2
789.0313	61.8326	1951.3	1496.25
789.1722	64.0955	2060.3	1599.75
789.3132	66.3579	2173.3	1708.75
789.4541	68.6199	2320.05	1853.7
789.5951	70.8815	2553.6	2081.85
789.7361	73.1426	3027.5	2553
789.8771	75.4032	4218.35	3737.85
790.0181	77.6634	7265.55	6781
790.1592	79.9231	15041.1	14553.2
790.3003	82.1824	48279.35	47781.2
790.4414	84.4412	65535	65018.7
790.5825	86.6995	65535	64993.7
790.7237	88.9574	65535	64973
790.8648	91.2148	65535	64958.55
791.006	93.4717	65535	64947.3
791.1472	95.7282	65535	64941.2
791.2885	97.9842	65535	64939.2
791.4297	100.2398	65535	64936.05
791.571	102.4949	65535	64933.25
791.7123	104.7495	65535	64925.3
791.8536	107.0036	65535	64927.8
791.9949	109.2573	65535	64929.35
792.1363	111.5105	65535	64926.35
792.2777	113.7632	65535	64922.45
792.4191	116.0154	65535	64912.05
792.5605	118.2672	65535	64921.45
792.7019	120.5185	65535	64918.15
792.8434	122.7693	65535	64916.6
792.9849	125.0197	65535	64915.7
793.1264	127.2696	65535	64911.95
793.2679	129.519	65535	64906.85
793.4094	131.7679	65535	64901.6
793.551	134.0163	65535	64899.55
793.6926	136.2642	65535	64896.5
793.8342	138.5117	65535	64887.1
793.9758	140.7587	65535	64893.3
794.1175	143.0052	65535	64889.4
794.2591	145.2512	65535	64893
794.4008	147.4967	65535	64889.15
794.5425	149.7417	65535	64887.55
794.6842	151.9863	65535	64882.6
794.826	154.2304	65535	64879.35
794.9677	156.4739	65535	64875.8
795.1095	158.717	65535	64875.6
795.2513	160.9596	65535	64871.45
795.3931	163.2017	65535	64867.4
795.535	165.4433	65535	64867
795.6768	167.6844	65535	64866.05
795.8187	169.925	65535	64860.65
795.9606	172.1651	65535	64858.2
796.1025	174.4047	65535	64855.6
796.2445	176.6439	65535	64853.1
796.3864	178.8825	65535	64850.75
796.5284	181.1206	65535	64847.75
796.6704	183.3582	65535	64840.75
796.8124	185.5954	65535	64840.3
796.9544	187.832	65535	64833.55
797.0965	190.0681	65535	64837
797.2386	192.3037	65535	64831.45
797.3806	194.5388	65535	64827.2
797.5228	196.7734	65535	64826.05
797.6649	199.0075	65535	64818.9
797.807	201.2411	65535	64818
797.9492	203.4742	65535	64821.45
798.0914	205.7068	65535	64820.75
798.2336	207.9389	65535	64817.25
798.3758	210.1704	65535	64815.1
798.518	212.4015	65535	64809.5
798.6603	214.632	65535	64815.7
798.8025	216.862	65535	64827.45
798.9448	219.0915	65535	64832
799.0871	221.3205	65535	64831.55
799.2294	223.549	65535	64835.2
799.3718	225.777	65535	64836.95
799.5141	228.0044	65535	64831.5
799.6565	230.2314	65535	64835.4
799.7989	232.4578	65535	64830.8
799.9413	234.6837	65535	64822
800.0837	236.909	65535	64820.65
800.2262	239.1339	65535	64799.55
800.3687	241.3582	65535	64809.9
800.5111	243.582	65535	64778.65
800.6536	245.8053	65535	64795.05
800.7961	248.0281	65535	64799.1
800.9387	250.2503	65535	64792.7
801.0812	252.472	65535	64790.8
801.2238	254.6932	65535	64785.5
801.3664	256.9139	65535	64784.65
801.509	259.134	65535	64783.15
801.6516	261.3536	65535	64786
801.7942	263.5727	65535	64781.3
801.9369	265.7912	65535	64780.45
802.0795	268.0092	65535	64782.95
802.2222	270.2267	65535	64782.55
802.3649	272.4436	65535	64778
802.5076	274.6601	65535	64774.4
802.6504	276.8759	65535	64780.45
802.7931	279.0913	65535	64774.35
802.9359	281.3061	65535	64772.2
803.0787	283.5204	65535	64769.95
803.2215	285.7341	65535	64766.45
803.3643	287.9473	65535	64753.35
803.5071	290.16	65535	64762.3
803.6499	292.3721	65535	64768.75
803.7928	294.5837	65535	64766.8
803.9357	296.7947	65535	64767.35
804.0786	299.0052	65535	64769.55
804.2215	301.2152	65535	64763.25
804.3644	303.4246	65535	64763.95
804.5074	305.6334	65535	64764.75
804.6503	307.8418	65535	64761.65
804.7933	310.0495	65535	64761.45
804.9363	312.2568	65535	64762.75
805.0793	314.4635	65535	64760.45
805.2223	316.6696	65535	64760.1
805.3653	318.8752	65535	64747.85
805.5084	321.0802	65535	64757.65
805.6514	323.2847	65535	64752.15
805.7945	325.4887	65535	64752.45
805.9376	327.692	65535	64755.25
806.0807	329.8949	65535	64750.95
806.2238	332.0972	65535	64749.8
806.367	334.2989	65535	64747.95
806.5101	336.5001	65535	64744.55
806.6533	338.7007	65535	64747.45
806.7965	340.9008	65535	64745.2
806.9397	343.1003	65535	64743.8
807.0829	345.2992	65535	64739.7
807.2261	347.4976	65535	64739.95
807.3693	349.6955	65535	64738.15
807.5126	351.8927	65535	64736.35
807.6559	354.0895	65535	64726.5
807.7991	356.2856	65535	64734.7
807.9424	358.4812	65535	64734.2
808.0857	360.6763	65535	64736.1
808.2291	362.8707	65535	64733.35
808.3724	365.0646	65535	64729
808.5158	367.258	65535	64729.6
808.6591	369.4508	65535	64723.7
808.8025	371.643	65535	64726.45
808.9459	373.8346	65535	64720.8
809.0893	376.0257	65535	64720.65
809.2327	378.2162	65535	64716.8
809.3762	380.4062	65535	64717.75
809.5196	382.5956	65535	64719.2
809.6631	384.7844	65535	64717.75
809.8066	386.9726	65535	64717.25
809.9501	389.1603	65535	64719.3
810.0936	391.3474	65535	64675.65
810.2371	393.5339	65535	64719.5
810.3806	395.7199	65535	64719.95
810.5241	397.9052	65535	64724
810.6677	400.09	65535	64725
810.8113	402.2743	65535	64726.9
810.9548	404.4579	65535	64728.55
811.0984	406.641	65535	64725.45
811.2421	408.8235	65535	64723.35
811.3857	411.0054	65535	64723.25
811.5293	413.1868	65535	64716.75
811.673	415.3675	65535	64717.65
811.8166	417.5477	65535	64718.9
811.9603	419.7273	65535	64714.3
812.104	421.9064	65535	64706.45
812.2477	424.0848	65535	64710.2
812.3914	426.2627	65535	64709.55
812.5351	428.4399	65535	64704.85
812.6788	430.6166	65535	64702.5
812.8226	432.7928	65535	64700.85
812.9663	434.9683	65535	64702
813.1101	437.1432	65535	64701.85
813.2539	439.3176	65535	64703.45
813.3977	441.4914	65535	64701.1
813.5415	443.6645	65535	64698.75
813.6853	445.8371	65535	64702.4
813.8291	448.0091	65535	64704.45
813.973	450.1806	65535	64703.4
814.1168	452.3514	65535	64699.25
814.2607	454.5216	65535	64689.75
814.4046	456.6913	65535	64694.85
814.5485	458.8603	65535	64695.7
814.6924	461.0288	65535	64697.3
814.8363	463.1967	65535	64695.95
814.9802	465.3639	65535	64697.55
815.1241	467.5306	65535	64697.15
815.2681	469.6967	65535	64694.7
815.412	471.8622	65535	64696.15
815.556	474.0271	65535	64695.9
815.7	476.1914	65535	64693
815.844	478.3551	65535	64695.15
815.988	480.5182	65535	64692.55
816.132	482.6807	65535	64694.5
816.276	484.8426	65535	64695.55
816.4201	487.0039	65535	64692.05
816.5641	489.1647	65535	64691.05
816.7082	491.3248	65535	64692.2
816.8522	493.4843	65535	64692.6
816.9963	495.6432	65535	64688.95
817.1404	497.8015	65535	64685.9
817.2845	499.9592	65535	64690.4
817.4286	502.1163	65535	64687.9
817.5727	504.2728	65535	64688.15
817.7168	506.4287	65535	64689.3
817.861	508.5839	65535	64688.05
818.0051	510.7386	65535	64687.85
818.1493	512.8927	65535	64683.25
818.2935	515.0461	65535	64684.65
818.4377	517.199	65535	64685.85
818.5818	519.3512	65535	64682.95
818.726	521.5029	65535	64677.95
818.8703	523.6539	65535	64682.3
819.0145	525.8043	65535	64679.45
819.1587	527.9541	65535	64680.25
819.303	530.1033	65535	64679
819.4472	532.2519	65535	64681.5
819.5915	534.3999	65535	64675.55
819.7357	536.5472	65535	64676.7
819.88	538.694	65535	64678.85
820.0243	540.8401	65535	64676.95
820.1686	542.9856	65535	64677.7
820.3129	545.1305	65535	64676.45
820.4572	547.2748	65535	64673.35
820.6016	549.4185	65535	64667.35
820.7459	551.5615	65535	64673.85
820.8902	553.704	65535	64675.65
821.0346	555.8458	65535	64673.3
821.1789	557.987	65535	64672.5
821.3233	560.1276	65535	64671.65
821.4677	562.2675	65535	64674.85
821.6121	564.4069	65535	64673.4
821.7565	566.5456	65535	64675.8
821.9009	568.6837	65535	64675.4
822.0453	570.8212	65535	64680.75
822.1897	572.958	65535	64673.55
822.3342	575.0942	65535	64676.7
822.4786	577.2299	65535	64675.4
822.6231	579.3648	65535	64675.35
822.7675	581.4992	65535	64678.55
822.912	583.6329	65535	64675.6
823.0565	585.766	65535	64673.5
823.201	587.8985	65535	64675.45
823.3454	590.0304	65535	64660.7
823.4899	592.1616	65535	64670.5
823.6345	594.2922	65535	64669.5
823.779	596.4222	65535	64667.85
823.9235	598.5515	65535	64667.1
824.068	600.6802	65535	64665.35
824.2126	602.8083	65535	64670.3
824.3571	604.9358	65535	64666.6
824.5017	607.0626	65535	64668.65
824.6462	609.1888	65535	64664.85
824.7908	611.3144	65535	64665
824.9354	613.4393	65535	64668.8
825.08	615.5636	65535	64666.2
825.2246	617.6873	65535	64666.2
825.3692	619.8103	65535	64664.05
825.5138	621.9327	65535	64663.15
825.6584	624.0544	65535	64665.85
825.803	626.1756	65535	64666.4
825.9477	628.2961	65535	64662.5
826.0923	630.4159	65535	64664.85
826.237	632.5351	65535	64662.3
826.3816	634.6537	65535	64662.85
826.5263	636.7716	65535	64663.8
826.6709	638.8889	65535	64663.45
826.8156	641.0056	65535	64663.45
826.9603	643.1216	65535	64661.1
827.105	645.237	65535	64657.95
827.2497	647.3518	65535	64663.65
827.3944	649.4659	65535	64663.3
827.5391	651.5793	65535	64658.5
827.6838	653.6922	65535	64661.4
827.8285	655.8043	65535	64662.2
827.9733	657.9159	65535	64660.3
828.118	660.0268	65535	64656.55
828.2627	662.137	65535	64658.3
828.4075	664.2466	65535	64659.65
828.5522	666.3556	65535	64661.25
828.697	668.4639	65535	64654.95
828.8418	670.5716	65535	64659.4
828.9865	672.6786	65535	64655.45
829.1313	674.785	65535	64657
829.2761	676.8907	65535	64659.25
829.4209	678.9958	65535	64659.85
829.5657	681.1002	65535	64657.35
829.7105	683.204	65535	64653.75
829.8553	685.3072	65535	64654.3
830.0001	687.4097	65535	64658.35
830.1449	689.5115	65535	64652.9
830.2898	691.6127	65535	64658.2
830.4346	693.7132	65535	64655.25
830.5794	695.8131	65535	64646.7
830.7243	697.9123	65535	64652.2
830.8691	700.0109	65535	64653.85
831.014	702.1089	65535	64652.15
831.1588	704.2061	65535	64652
831.3037	706.3028	65535	64654.15
831.4486	708.3987	65535	64651.3
831.5935	710.4941	65535	64652.15
831.7383	712.5887	65535	64653.9
831.8832	714.6827	65535	64648.2
832.0281	716.7761	65535	64653.3
832.173	718.8688	65535	64653.05
832.3179	720.9608	65535	64647.75
832.4628	723.0522	65535	64646.55
832.6077	725.1429	65535	64650.05
832.7527	727.233	65535	64652.05
832.8976	729.3224	65535	64649.5
833.0425	731.4112	65535	64649.8
833.1874	733.4993	65535	64648.75
833.3324	735.5867	65535	64646.9
833.4773	737.6735	65535	64649.75
833.6222	739.7596	65535	64648.15
833.7672	741.845	65535	64649.9
833.9122	743.9298	65535	64649.05
834.0571	746.014	65535	64650.25
834.2021	748.0974	65535	64646.6
834.347	750.1802	65535	64647.2
834.492	752.2624	65535	64647.6
834.637	754.3439	65535	64646.4
834.782	756.4247	65535	64637.6
834.9269	758.5048	65535	64647.85
835.0719	760.5843	65535	64648.5
835.2169	762.6631	65535	64644.45
835.3619	764.7413	65535	64648.4
835.5069	766.8188	65535	64644.4
835.6519	768.8956	65535	64644.85
835.7969	770.9718	65535	64647.75
835.9419	773.0473	65535	64648.65
836.0869	775.1221	65535	64643.65
836.232	777.1962	65535	64646.75
836.377	779.2697	65535	64644.25
836.522	781.3426	65535	64624.25
836.667	783.4147	65535	64643.25
836.8121	785.4862	65535	64648.7
836.9571	787.557	65535	64647.5
837.1021	789.6271	65535	64647.5
837.2472	791.6966	65535	64647
837.3922	793.7654	65535	64645.85
837.5373	795.8335	65535	64646.35
837.6823	797.901	65535	64645.4
837.8274	799.9678	65535	64641.6
837.9724	802.0339	65535	64645.75
838.1175	804.0993	65535	64634.65
838.2626	806.1641	65535	64642.8
838.4076	808.2282	65535	64643.2
838.5527	810.2916	65535	64642.5
838.6978	812.3544	65535	64648.1
838.8428	814.4164	65535	64648.35
838.9879	816.4778	65535	64642.85
839.133	818.5385	65535	64644.55
839.2781	820.5986	65535	64643.9
839.4232	822.658	65535	64642.6
839.5682	824.7166	65535	64645.2
839.7133	826.7747	65535	64647.95
839.8584	828.832	65535	64642.6
840.0035	830.8886	65535	64643.15
840.1486	832.9446	65535	64641.5
840.2937	834.9999	65535	64646.9
840.4388	837.0545	65535	64641.45
840.5839	839.1085	65535	64641.8
840.729	841.1618	65535	64637.35
840.8741	843.2143	65535	64644.35
841.0192	845.2662	65535	64641.95
841.1643	847.3175	65535	64643.8
841.3095	849.368	65535	64643.45
841.4546	851.4179	65535	64644.9
841.5997	853.467	65535	64643.15
841.7448	855.5155	65535	64642.9
841.8899	857.5633	65535	64641.05
842.0351	859.6105	65535	64640.6
842.1802	861.6569	65535	64643.05
842.3253	863.7027	65535	64642.35
842.4704	865.7478	65535	64641.95
842.6156	867.7922	65535	64639.95
842.7607	869.8359	65535	64642
842.9058	871.8789	65535	64639.35
843.0509	873.9212	65535	64608.4
843.1961	875.9629	65535	64640.2
843.3412	878.0039	65535	64638.5
843.4863	880.0441	65535	64641.15
843.6315	882.0837	65535	64641.1
843.7766	884.1226	65535	64639.4
843.9218	886.1609	65535	64641.65
844.0669	888.1984	65535	64640.2
844.212	890.2352	65535	64641.65
844.3572	892.2714	65535	64637
844.5023	894.3069	65535	64638.3
844.6475	896.3416	65535	64637.8
844.7926	898.3757	65535	64639.2
844.9377	900.4091	65535	64639.7
845.0829	902.4418	65535	64634.5
845.228	904.4739	65535	64636.75
845.3732	906.5052	65535	64638.65
845.5183	908.5358	65535	64639.15
845.6635	910.5658	65535	64638.9
845.8086	912.595	65535	64639.95
845.9538	914.6236	65535	64638.7
846.0989	916.6515	65535	64639
846.2441	918.6786	65535	64637.6
846.3892	920.7051	65535	64637.2
846.5344	922.7309	65535	64638.15
846.6795	924.756	65535	64639.9
846.8246	926.7804	65535	64637.15
846.9698	928.8041	65535	64635.9
847.1149	930.8272	65535	64636.45
847.2601	932.8495	65535	64638.55
847.4052	934.8711	65535	64635.8
847.5504	936.892	65535	64639.3
847.6955	938.9123	65535	64635.15
847.8407	940.9318	65535	64636.85
847.9858	942.9506	65535	64637.2
848.131	944.9688	65535	64638.9
848.2761	946.9862	65535	64636.95
848.4213	949.003	65535	64638.9
848.5664	951.019	65535	64636.7
848.7115	953.0344	65535	64633.8
848.8567	955.0491	65535	64635.9
849.0018	957.063	65535	64639.25
849.147	959.0763	65535	64639.85
849.2921	961.0888	65535	64636.6
849.4373	963.1007	65535	64637.6
849.5824	965.1119	65535	64638.25
849.7275	967.1223	65535	64637.8
849.8727	969.1321	65535	64641.85
850.0178	971.1412	65535	64639.05
850.1629	973.1495	65535	64639.2
850.3081	975.1572	65535	64603.35
850.4532	977.1641	65535	64635.8
850.5983	979.1704	65535	64636.65
850.7435	981.1759	65535	64635.65
850.8886	983.1808	65535	64637.25
851.0337	985.1849	65535	64625.85
851.1788	987.1884	65535	64635.55
851.324	989.1911	65535	64633.65
851.4691	991.1932	65535	64636.05
851.6142	993.1945	65535	64639.35
851.7593	995.1951	65535	64637.7
851.9045	997.1951	65535	64632.6
852.0496	999.1943	65535	64636.95
852.1947	1001.1928	65535	64634.55
852.3398	1003.1906	65535	64636.8
852.4849	1005.1877	65535	64635
852.63	1007.1841	65535	64635.75
852.7751	1009.1798	65535	64638.55
852.9202	1011.1748	65535	64637.65
853.0653	1013.1691	65535	64637
853.2104	1015.1627	65535	64636.4
853.3555	1017.1556	65535	64637.4
853.5006	1019.1477	65535	64637.45
853.6457	1021.1392	65535	64638.55
853.7908	1023.1299	65535	64637.95
853.9359	1025.12	65535	64636.65
854.081	1027.1093	65535	64640.75
854.2261	1029.0979	65535	64642.2
854.3712	1031.0859	65535	64640.05
854.5163	1033.0731	65535	64636.3
854.6613	1035.0596	65535	64638.5
854.8064	1037.0454	65535	64634.3
854.9515	1039.0304	65535	64635.75
855.0965	1041.0148	65535	64636.9
855.2416	1042.9985	65535	64636.55
855.3867	1044.9814	65535	64640.1
855.5317	1046.9636	65535	64637.45
855.6768	1048.9452	65535	64639.4
855.8219	1050.926	65535	64635.5
855.9669	1052.9061	65535	64634.7
856.112	1054.8855	65535	64636.95
856.257	1056.8642	65535	64638.1
856.4021	1058.8421	65535	64631.65
856.5471	1060.8194	65535	64635.55
856.6921	1062.7959	65535	64636.25
856.8372	1064.7717	65535	64635.35
856.9822	1066.7469	65535	64634.3
857.1272	1068.7213	65535	64632.35
857.2723	1070.695	65535	64636.7
857.4173	1072.6679	65535	64636.35
857.5623	1074.6402	65535	64636.5
857.7073	1076.6117	65535	64631.25
857.8523	1078.5826	65535	64634.75
857.9973	1080.5527	65535	64632.85
858.1423	1082.5221	65535	64638.05
858.2873	1084.4908	65535	64638.4
858.4323	1086.4587	65535	64635.9
858.5773	1088.426	65535	64635.65
858.7223	1090.3925	65535	64631.25
858.8673	1092.3584	65535	64636.4
859.0123	1094.3235	65535	64636.3
859.1573	1096.2879	65535	64633.65
859.3022	1098.2515	65535	64635.45
859.4472	1100.2145	65535	64638.35
859.5922	1102.1767	65535	64631.75
859.7371	1104.1382	65535	64637.1
859.8821	1106.099	65535	64634.05
860.027	1108.0591	65535	64636.85
860.172	1110.0185	65535	64631.45
860.3169	1111.9771	65535	64634.9
860.4619	1113.9351	65535	64635.75
860.6068	1115.8923	65535	64635.35
860.7517	1117.8488	65535	64633.6
860.8967	1119.8045	65535	64635.45
861.0416	1121.7596	65535	64636.25
861.1865	1123.7139	65535	64635.8
861.3314	1125.6675	65535	64636.5
861.4763	1127.6204	65535	64635.8
861.6212	1129.5726	65535	64633.05
861.7661	1131.524	65535	64636.3
861.911	1133.4748	65535	64636.7
862.0559	1135.4248	65535	64634.35
862.2008	1137.3741	65535	64633.05
862.3457	1139.3226	65535	64633.85
862.4905	1141.2705	65535	64634.75
862.6354	1143.2176	65535	64630.45
862.7803	1145.164	65535	64633.8
862.9251	1147.1097	65535	64635.45
863.07	1149.0546	65535	64633.45
863.2148	1150.9989	65535	64635.75
863.3597	1152.9424	65535	64633.85
863.5045	1154.8852	65535	64632.75
863.6493	1156.8272	65535	64636
863.7942	1158.7686	65535	64626.7
863.939	1160.7092	65535	64635.05
864.0838	1162.6491	65535	64634.5
864.2286	1164.5883	65535	64635.95
864.3734	1166.5267	65535	64633.3
864.5182	1168.4644	65535	64634.85
864.663	1170.4014	65535	64632
864.8078	1172.3377	65535	64635.2
864.9526	1174.2732	65535	64635.65
865.0974	1176.2081	65535	64635.65
865.2421	1178.1421	65535	64633.65
865.3869	1180.0755	65535	64637.55
865.5317	1182.0082	65535	64632.5
865.6764	1183.9401	65535	64633.6
865.8212	1185.8713	65535	64636.35
865.9659	1187.8017	65535	64634.6
866.1106	1189.7315	65535	64636.5
866.2554	1191.6605	65535	64609.95
866.4001	1193.5888	65535	64637.6
866.5448	1195.5163	65535	64635.65
866.6895	1197.4432	65535	64636.85
866.8342	1199.3693	65535	64636.95
866.9789	1201.2947	65535	64631.8
867.1236	1203.2193	65535	64634.55
867.2683	1205.1432	65535	64633.95
867.413	1207.0664	65535	64635.7
867.5576	1208.9889	65535	64634.1
867.7023	1210.9106	65535	64635.4
867.847	1212.8316	65535	64637.25
867.9916	1214.7519	65535	64624.55
868.1363	1216.6715	65535	64636.2
868.2809	1218.5903	65535	64635.85
868.4255	1220.5084	65535	64636.05
868.5701	1222.4257	65535	64634.65
868.7148	1224.3424	65535	64637.6
868.8594	1226.2583	65535	64629.9
869.004	1228.1735	65535	64635.45
869.1486	1230.0879	65535	64634.3
869.2932	1232.0016	65535	64634.75
869.4377	1233.9146	65535	64632.7
869.5823	1235.8269	65535	64635.3
869.7269	1237.7384	65535	64635.65
869.8715	1239.6492	65535	64638.6
870.016	1241.5592	65535	64634
870.1606	1243.4686	65535	64634.1
870.3051	1245.3772	65535	64634.5
870.4496	1247.285	65535	64633.45
870.5941	1249.1922	65535	64637.55
870.7387	1251.0986	65535	64636
870.8832	1253.0042	65535	64635.55
871.0277	1254.9092	65535	64635.85
871.1722	1256.8134	65535	64636.05
871.3167	1258.7169	65535	64634.2
871.4611	1260.6196	65535	64637
871.6056	1262.5216	65535	64634.05
871.7501	1264.4229	65535	64635.65
871.8945	1266.3234	65535	64634.3
872.039	1268.2232	65535	64634.15
872.1834	1270.1223	65535	64634
872.3278	1272.0207	65535	64637.95
872.4723	1273.9183	65535	64631
872.6167	1275.8151	65535	64638.55
872.7611	1277.7113	65535	64634.25
872.9055	1279.6067	65535	64633.9
873.0499	1281.5014	65535	64633.75
873.1943	1283.3953	65535	64633
873.3386	1285.2885	65535	64639.5
873.483	1287.181	65535	64636.1
873.6274	1289.0727	65535	64638.4
873.7717	1290.9637	65535	64632.55
873.9161	1292.854	65535	64636
874.0604	1294.7435	65535	64633.05
874.2047	1296.6323	65535	64635.15
874.349	1298.5204	65535	64630.7
874.4933	1300.4077	65535	64635.4
874.6376	1302.2943	65535	64636.8
874.7819	1304.1802	65535	64636.3
874.9262	1306.0653	65535	64634.5
875.0705	1307.9497	65535	64636.25
875.2147	1309.8333	65535	64635.35
875.359	1311.7162	65535	64633.35
875.5032	1313.5984	65535	64633.35
875.6475	1315.4798	65535	64625.5
875.7917	1317.3605	65535	64617.2
875.9359	1319.2405	65535	64633.55
876.0801	1321.1197	65535	64632.95
876.2243	1322.9982	65535	64631.3
876.3685	1324.876	65535	64639.3
876.5127	1326.753	65535	64633.65
876.6569	1328.6293	65535	64633.4
876.801	1330.5048	65535	64633.3
876.9452	1332.3796	65535	64636.5
877.0893	1334.2537	65535	64611.9
877.2335	1336.127	65535	64635.85
877.3776	1337.9996	65535	64635.9
877.5217	1339.8714	65535	64635.15
877.6658	1341.7426	65535	64593.65
877.8099	1343.6129	65535	64635.75
877.954	1345.4826	65535	64633.2
878.0981	1347.3515	65535	64632.35
878.2422	1349.2196	65535	64634.65
878.3862	1351.087	65535	64636.85
878.5303	1352.9537	65535	64634.2
878.6743	1354.8197	65535	64634.3
878.8184	1356.6849	65535	64635.35
878.9624	1358.5493	65535	64635.6
879.1064	1360.4131	65535	64634.5
879.2504	1362.276	65535	64634.5
879.3944	1364.1383	65535	64636.1
879.5384	1365.9998	65535	64629.75
879.6823	1367.8606	65535	64632.4
879.8263	1369.7206	65535	64635.6
879.9702	1371.5799	65535	64633.65
880.1142	1373.4384	65535	64635.85
880.2581	1375.2962	65535	64632.6
880.402	1377.1533	65535	64635.15
880.5459	1379.0096	65535	64634.65
880.6898	1380.8652	65535	64634.3
880.8337	1382.7201	65535	64634.25
880.9776	1384.5742	65535	64635.65
881.1215	1386.4275	65535	64633.1
881.2653	1388.2802	65535	64635.25
881.4092	1390.132	65535	64634.65
881.553	1391.9832	65535	64632.95
881.6968	1393.8336	65535	64635.85
881.8406	1395.6832	65535	64633.95
881.9844	1397.5322	65535	64635.7
882.1282	1399.3803	65535	64630.1
882.272	1401.2278	65535	64635.55
882.4158	1403.0745	65535	64636.35
882.5595	1404.9204	65535	64637.1
882.7033	1406.7656	65535	64636.05
882.847	1408.6101	65535	64635.35
882.9908	1410.4538	65535	64634.1
883.1345	1412.2968	65535	64636.65
883.2782	1414.139	65535	64636.3
883.4219	1415.9805	65535	64637.2
883.5656	1417.8213	65535	64628.7
883.7092	1419.6613	65535	64636.65
883.8529	1421.5006	65535	64633.9
883.9965	1423.3391	65535	64635.9
884.1402	1425.1769	65535	64634.5
884.2838	1427.0139	65535	64636.35
884.4274	1428.8502	65535	64633.9
884.571	1430.6858	65535	64634.5
884.7146	1432.5206	65535	64633.75
884.8582	1434.3547	65535	64634.7
885.0018	1436.188	65535	64636
885.1453	1438.0206	65535	64635.45
885.2889	1439.8524	65535	64633.9
885.4324	1441.6835	65535	64634.65
885.5759	1443.5139	65535	64632.75
885.7194	1445.3435	65535	64635.85
885.8629	1447.1724	65535	64635.3
886.0064	1449.0005	65535	64636.6
886.1499	1450.8279	65535	64633.6
886.2933	1452.6545	65535	64635.25
886.4368	1454.4804	65535	64635.95
886.5802	1456.3056	65535	64628.2
886.7237	1458.13	65535	64638.85
886.8671	1459.9536	65535	64636.55
887.0105	1461.7766	65535	64635.9
887.1539	1463.5987	65535	64635.4
887.2972	1465.4202	65535	64636.8
887.4406	1467.2409	65535	64638.05
887.584	1469.0608	65535	64635.35
887.7273	1470.88	65535	64636.2
887.8706	1472.6984	65535	64635.75
888.0139	1474.5161	65535	64633.65
888.1572	1476.3331	65535	64634.85
888.3005	1478.1493	65535	64635.2
888.4438	1479.9648	65535	64637.25
888.5871	1481.7795	65535	64634.3
888.7303	1483.5935	65535	64637
888.8736	1485.4067	65535	64635.95
889.0168	1487.2192	65535	64636.1
889.16	1489.031	65535	64631.95
889.3032	1490.842	65535	64638.4
889.4464	1492.6522	65535	64635.25
889.5896	1494.4618	65535	64633.2
889.7327	1496.2705	65535	64636.3
889.8759	1498.0785	65535	64634
890.019	1499.8858	65535	64636.3
890.1622	1501.6924	65535	64635.35
890.3053	1503.4981	65535	64636.65
890.4484	1505.3032	65535	64635.7
890.5914	1507.1075	65535	64634.35
890.7345	1508.911	65535	64635.45
890.8776	1510.7138	65535	64633.85
891.0206	1512.5159	65535	64637.25
891.1637	1514.3172	65532.2	64634
891.3067	1516.1178	65535	64636.3
891.4497	1517.9176	65535	64636
891.5927	1519.7166	65535	64637.4
891.7357	1521.515	65533.55	64627.3
891.8786	1523.3126	65477.8	64578.95
892.0216	1525.1094	65535	64632.45
892.1645	1526.9055	65505.65	64608.65
892.3074	1528.7008	65510.25	64612.1
892.4503	1530.4954	65408.1	64502.5
892.5932	1532.2893	65512.7	64614.25
892.7361	1534.0824	65396	64493.75
892.879	1535.8747	65199.9	64302.25
893.0218	1537.6663	65511.35	64614.1
893.1647	1539.4572	64756.95	63858.2
893.3075	1541.2473	65159	64258.7
893.4503	1543.0367	65063.65	64166.45
893.5931	1544.8253	64932.15	64028.85
893.7359	1546.6132	65055.45	64155
893.8787	1548.4003	64764.65	63856.45
894.0214	1550.1867	64637.6	63730.95
894.1642	1551.9723	64507.9	63604.55
894.3069	1553.7572	64551.5	63653.25
894.4496	1555.5414	64799.2	63904
894.5923	1557.3247	63323.75	62427.2
894.735	1559.1074	64506.7	63610.85
894.8777	1560.8893	64000.1	63104.85
895.0204	1562.6705	64253.35	63355
895.163	1564.4509	63325.35	62427.7
895.3056	1566.2305	63720	62824.85
895.4482	1568.0094	64307.1	63411.25
895.5908	1569.7876	63850.05	62954.6
895.7334	1571.565	63270.95	62373.15
895.876	1573.3417	63569.8	62673.1
896.0186	1575.1176	63423.7	62528.85
896.1611	1576.8928	63151.55	62253.05
896.3036	1578.6672	62517.1	61621.3
896.4461	1580.4409	62809.5	61915.05
896.5886	1582.2138	62042	61143.45
896.7311	1583.986	62233.6	61336.6
896.8736	1585.7575	61532.15	60638.3
897.0161	1587.5282	61618.75	60724.1
897.1585	1589.2981	61679.25	60783.45
897.3009	1591.0673	61012.15	60115.85
897.4433	1592.8358	60634.35	59738.05
897.5857	1594.6035	61000.3	60101.5
897.7281	1596.3704	61078.15	60182.6
897.8705	1598.1366	60238.6	59342.05
898.0128	1599.9021	59777.05	58882.8
898.1551	1601.6668	60347.05	59448.55
898.2975	1603.4308	60036.15	59140.75
898.4398	1605.194	60265	59363.7
898.5821	1606.9564	59219.2	58323.65
898.7243	1608.7182	59743.45	58843.85
898.8666	1610.4791	59295.2	58401.3
899.0088	1612.2394	59660.5	58766.3
899.1511	1613.9988	59251.65	58357.45
899.2933	1615.7576	59782.15	58886.95
899.4355	1617.5156	59783.85	58884.5
899.5776	1619.2728	60463.95	59568.05
899.7198	1621.0293	59475.6	58580.75
899.862	1622.785	59446.1	58547.9
900.0041	1624.54	59722.95	58823.45
900.1462	1626.2942	59225.1	58331.15
900.2883	1628.0477	58269.35	57371.4
900.4304	1629.8005	57776.05	56877.35
900.5725	1631.5525	58110.7	57217.1
900.7145	1633.3037	57213.1	56319.35
900.8566	1635.0542	57106.4	56212.3
900.9986	1636.804	57190.3	56295.6
901.1406	1638.553	56590.8	55589.15
901.2826	1640.3013	56575.3	55680.4
901.4245	1642.0488	56072.95	55177.1
901.5665	1643.7955	56286.85	55395.05
901.7085	1645.5416	55955.25	55060.2
901.8504	1647.2868	55761.5	54865.8
901.9923	1649.0313	56104.05	55209.7
902.1342	1650.7751	55840.8	54943.2
902.2761	1652.5181	55594.1	54699.15
902.4179	1654.2604	55702.25	54808.85
902.5598	1656.0019	56129.8	55235.3
902.7016	1657.7427	55957.45	55065.15
902.8434	1659.4828	56333.65	55439.4
902.9852	1661.222	56202.4	55304.25
903.127	1662.9606	56319	55424.75
903.2687	1664.6984	55892.65	54997
903.4105	1666.4354	55785.9	54888.6
903.5522	1668.1717	54916.1	54021.3
903.6939	1669.9072	54224.15	53327.8
903.8356	1671.642	53820.1	52921.6
903.9773	1673.3761	53484.05	52591.5
904.119	1675.1094	53136.6	52243.8
904.2606	1676.8419	52826	51929.55
904.4022	1678.5737	52473.55	51578.7
904.5439	1680.3048	52266.95	51372.8
904.6855	1682.0351	51948.7	51055.95
904.827	1683.7646	51709.8	50811.6
904.9686	1685.4934	51641.95	50748.6
905.1101	1687.2215	51177.1	50282.5
905.2517	1688.9488	51173.75	50280.05
905.3932	1690.6754	50531.8	49638.05
905.5347	1692.4012	50627.35	49733.75
905.6761	1694.1263	50460.2	49565.8
905.8176	1695.8506	50249.75	49356.4
905.9591	1697.5742	50038.9	49145.8
906.1005	1699.297	49888.05	48997.45
906.2419	1701.0191	49639.55	48745.85
906.3833	1702.7404	49328.6	48435.95
906.5246	1704.461	49049.85	48154.25
906.666	1706.1808	48941.7	48047.35
906.8073	1707.8999	48813.25	47918.9
906.9487	1709.6182	48635.75	47743.4
907.09	1711.3358	48477.7	47582.6
907.2313	1713.0527	48276.2	47383.75
907.3725	1714.7688	48128.75	47227.45
907.5138	1716.4841	47795.55	46900.1
907.655	1718.1987	47807	46909.2
907.7962	1719.9126	47583.95	46690.75
907.9374	1721.6257	47410.5	46514.95
908.0786	1723.338	47355.55	46461.65
908.2198	1725.0496	46968.55	46072.6
908.3609	1726.7605	46904.85	46008.9
908.502	1728.4706	46722	45828.2
908.6431	1730.18	46483.9	45587.95
908.7842	1731.8886	46343.75	45451.6
908.9253	1733.5964	46235.05	45322.75
909.0664	1735.3036	46149.3	45253
909.2074	1737.0099	46017.95	45126.8
909.3484	1738.7156	45850.3	44959.15
909.4894	1740.4204	45564.45	44670
909.6304	1742.1246	45453.35	44558.4
909.7714	1743.8279	45418.5	44525.45
909.9123	1745.5306	45343.5	44450.6
910.0532	1747.2325	45046.2	44152.8
910.1941	1748.9336	44875.45	43984.8
910.335	1750.634	44670.65	43776.05
910.4759	1752.3336	44640.6	43747.9
910.6168	1754.0325	44551.6	43660.4
910.7576	1755.7307	44434.35	43541.9
910.8984	1757.4281	44256.8	43365.3
911.0392	1759.1247	44254.25	43353.65
911.18	1760.8206	44071.2	43174.7
911.3208	1762.5158	43928.3	43033.05
911.4615	1764.2102	43769.2	42877.65
911.6022	1765.9039	43595	42704.25
911.7429	1767.5968	43520.9	42627.65
911.8836	1769.289	43345.55	42451.95
912.0243	1770.9804	43200.55	42306.8
912.1649	1772.6711	43233.2	42338.3
912.3056	1774.361	43011.5	42116.85
912.4462	1776.0502	42985.75	42092.7
912.5868	1777.7386	42794.8	41898.55
912.7274	1779.4263	42651.3	41758
912.8679	1781.1132	42587.6	41695.6
913.0084	1782.7994	42450.95	41557.95
913.149	1784.4849	42377.45	41485.35
913.2895	1786.1696	42113	41214.25
913.4299	1787.8535	42048.45	41157.1
913.5704	1789.5367	41920.35	41028.55
913.7108	1791.2192	41827.5	40935.7
913.8513	1792.9009	41646.35	40724.35
913.9917	1794.5818	41558.2	40663.4
914.132	1796.2621	41438.35	40548.35
914.2724	1797.9415	41322.75	40429.65
914.4128	1799.6202	41239.35	40345.55
914.5531	1801.2982	41066.2	40171.95
914.6934	1802.9755	41015.35	40122.85
914.8337	1804.6519	40866.25	39972.9
914.9739	1806.3277	40659.5	39766.55
915.1142	1808.0027	40475.6	39582.65
915.2544	1809.6769	40508.75	39615.9
915.3946	1811.3504	40310.25	39416.25
915.5348	1813.0231	40242.8	39348.85
915.675	1814.6951	40137.85	39244.65
915.8151	1816.3664	40085.5	39189.6
915.9553	1818.0369	39958.35	39065.85
916.0954	1819.7067	39832.45	38940
916.2355	1821.3757	39735.35	38841.3
916.3755	1823.044	39617.35	38727.2
916.5156	1824.7115	39540.65	38647.75
916.6556	1826.3783	39348.35	38455.3
916.7956	1828.0443	39157.85	38264.65
916.9356	1829.7096	39143.25	38250.15
917.0756	1831.3741	39091.5	38198.6
917.2155	1833.0379	38962.7	38071.1
917.3555	1834.701	38814.8	37919.35
917.4954	1836.3633	38729.05	37836.55
917.6353	1838.0248	38641.15	37746.35
917.7751	1839.6856	38459.8	37568.1
917.915	1841.3457	38462.8	37569.75
918.0548	1843.005	38367.65	37475.3
918.1946	1844.6636	38255.95	37364.45
918.3344	1846.3214	38131.65	37240.35
918.4742	1847.9785	38098.45	37209.6
918.6139	1849.6349	37925.05	37030.4
918.7537	1851.2904	37811.7	36909.65
918.8934	1852.9453	37706.7	36813.3
919.0331	1854.5994	37621.9	36726.45
919.1727	1856.2528	37577.8	36679.75
919.3124	1857.9054	37485.7	36593.05
919.452	1859.5572	37427.6	36535.85
919.5916	1861.2083	37259.55	36364.5
919.7312	1862.8587	37279	36385.7
919.8708	1864.5084	37087.5	36193.55
920.0103	1866.1572	36957.05	36064.4
920.1498	1867.8054	36807.9	35914.85
920.2893	1869.4528	36798.1	35906.3
920.4288	1871.0994	36640	35747.3
920.5683	1872.7453	36615.8	35720.65
920.7077	1874.3905	36495.3	35594.85
920.8471	1876.0349	36315.2	35421.5
920.9865	1877.6786	36315.7	35420.85
921.1259	1879.3215	36258.5	35366.95
921.2653	1880.9637	36111.55	35219.1
921.4046	1882.6051	36088.35	35194.2
921.5439	1884.2458	35939.65	35046.45
921.6832	1885.8858	35764.25	34870.9
921.8225	1887.525	35767.1	34873.8
921.9617	1889.1634	35553.2	34660.3
922.101	1890.8011	35388.65	34496.05
922.2402	1892.4381	35327.8	34435.55
922.3794	1894.0743	35291.7	34400.55
922.5185	1895.7098	35207.4	34313.9
922.6577	1897.3446	35102.75	34211.1
922.7968	1898.9786	34982.15	34086.65
922.9359	1900.6118	34915.9	34024.3
923.075	1902.2443	34664.65	33769.3
923.214	1903.8761	34620.7	33727.75
923.3531	1905.5071	34374.7	33481.15
923.4921	1907.1374	34336	33441.05
923.6311	1908.7669	34247.5	33356.75
923.77	1910.3957	34159.65	33268.7
923.909	1912.0237	33927.75	33034.3
924.0479	1913.651	33835.15	32941.55
924.1868	1915.2776	33757.6	32865.8
924.3257	1916.9034	33609.65	32717.95
924.4646	1918.5285	33452.7	32563.05
924.6034	1920.1528	33307.15	32414.15
924.7422	1921.7764	33270.4	32379.95
924.881	1923.3992	33130.95	32239.5
925.0198	1925.0213	32886.35	31994.45
925.1586	1926.6427	32748.65	31856.9
925.2973	1928.2633	32774.3	31775.15
925.436	1929.8832	32584.1	31690.3
925.5747	1931.5023	32411.2	31518.85
925.7134	1933.1207	32402.8	31509.9
925.852	1934.7383	32262.05	31370.85
925.9906	1936.3552	32154	31261.2
926.1292	1937.9714	32058.55	31165.65
926.2678	1939.5868	31930.7	31037.3
926.4064	1941.2015	31671.75	30777.7
926.5449	1942.8154	31550.45	30659.05
926.6834	1944.4286	31423.15	30530.95
926.8219	1946.041	31306.2	30396.2
926.9604	1947.6528	31124.45	30225.8
927.0988	1949.2637	31104.35	30213.2
927.2372	1950.8739	30946.8	30056.4
927.3756	1952.4834	30855.35	29963.1
927.514	1954.0921	30826.6	29934.9
927.6523	1955.7001	30690.7	29792.6
927.7907	1957.3074	30571.95	29678.55
927.929	1958.9139	30442.6	29551.4
928.0673	1960.5197	30371	29477.7
928.2055	1962.1247	30188.55	29296.45
928.3438	1963.729	30018.15	29125.75
928.482	1965.3325	29935.85	29020.7
928.6202	1966.9353	29824	28933.9
928.7584	1968.5374	29741.5	28850.1
928.8965	1970.1387	29597.85	28706.8
929.0346	1971.7393	29526.4	28635.3
929.1727	1973.3392	29414.9	28521.95
929.3108	1974.9383	29243.9	28355.15
929.4489	1976.5366	29172.8	28280.5
929.5869	1978.1342	29126.7	28234.95
929.7249	1979.7311	29048.25	28154.15
929.8629	1981.3273	28935	28044.25
930.0009	1982.9227	28881	27987.25
930.1388	1984.5173	28705.8	27814.05
930.2767	1986.1112	28610.85	27720.55
930.4146	1987.7044	28536.15	27646.3
930.5525	1989.2968	28422.85	27530.2
930.6904	1990.8885	28343	27446.55
930.8282	1992.4795	28234.25	27339.85
930.966	1994.0697	28139.55	27246.35
931.1038	1995.6592	28045.5	27154.2
931.2415	1997.2479	27906.35	27014.55
931.3793	1998.8359	27822.2	26931.85
931.517	2000.4232	27719.1	26830.1
931.6547	2002.0097	27579.9	26691.65
931.7923	2003.5955	27499.05	26606.6
931.93	2005.1805	27453.5	26559.45
932.0676	2006.7648	27373.65	26481.35
932.2052	2008.3484	27277.8	26384.55
932.3427	2009.9312	27270.3	26377.95
932.4803	2011.5133	27149.85	26260
932.6178	2013.0946	27039	26146.9
932.7553	2014.6752	26980.35	26092.55
932.8928	2016.2551	26882.85	25990.4
933.0302	2017.8342	26758.85	25868.7
933.1676	2019.4126	26659.1	25766.5
933.305	2020.9902	26543.85	25652.95
933.4424	2022.5672	26502.15	25610.25
933.5798	2024.1433	26448.4	25549.6
933.7171	2025.7188	26307.7	25417.9
933.8544	2027.2935	26229.9	25339.4
933.9917	2028.8674	26100.45	25210.5
934.129	2030.4406	26059.05	25168
934.2662	2032.0131	25869.6	24980.8
934.4034	2033.5849	25857.55	24964.45
934.5406	2035.1559	25737.1	24847
934.6778	2036.7261	25741.15	24850.85
934.8149	2038.2957	25620.5	24729.65
934.952	2039.8645	25547.2	24655.55
935.0891	2041.4325	25514.7	24620.8
935.2262	2042.9998	25375.9	24484.25
935.3632	2044.5664	25370.7	24479.4
935.5002	2046.1323	25232.8	24341.35
935.6372	2047.6974	25144.2	24253.35
935.7742	2049.2617	25065.3	24174.8
935.9111	2050.8254	25070.35	24157.1
936.048	2052.3883	24967.6	24074.95
936.1849	2053.9504	24871.35	23980.3
936.3218	2055.5118	24815.1	23923.2
936.4586	2057.0725	24676.15	23781.9
936.5955	2058.6325	24641.3	23749.75
936.7323	2060.1917	24558.55	23667.6
936.869	2061.7502	24443.9	23551.6
937.0058	2063.3079	24362.25	23470.5
937.1425	2064.8649	24338.55	23442.9
937.2792	2066.4212	24269.05	23376.45
937.4159	2067.9767	24166.45	23276.2
937.5525	2069.5315	24036.75	23146.55
937.6891	2071.0856	23938.65	23049.3
937.8257	2072.6389	23852.55	22960.6
937.9623	2074.1915	23730.6	22839.9
938.0989	2075.7433	23609.4	22714.85
938.2354	2077.2945	23534.65	22644.3
938.3719	2078.8448	23425.25	22535.05
938.5084	2080.3945	23369.1	22476
938.6448	2081.9434	23368.9	22476.6
938.7812	2083.4916	23261.15	22368.45
938.9176	2085.039	23170.05	22278.05
939.054	2086.5857	23105.55	22212.35
939.1903	2088.1317	23058.25	22167.95
939.3267	2089.677	22988.5	22097.1
939.463	2091.2215	22905.65	22013.05
939.5992	2092.7652	22825.6	21931.8
939.7355	2094.3083	22751.5	21858.8
939.8717	2095.8506	22713.75	21822.75
940.0079	2097.3921	22694.45	21804.2
940.1441	2098.933	22587.3	21695.25
940.2802	2100.4731	22533.65	21643.75
940.4163	2102.0124	22524.05	21623.45
940.5524	2103.5511	22450.6	21558.1
940.6885	2105.089	22352.4	21460.15
940.8245	2106.6261	22333.6	21441.6
940.9606	2108.1626	22236.5	21342.75
941.0965	2109.6983	22222.25	21300.3
941.2325	2111.2332	22115.35	21221.3
941.3684	2112.7675	22003.05	21110.4
941.5044	2114.301	21961.3	21068
941.6403	2115.8337	21922.85	21030.95
941.7761	2117.3657	21836.95	20946.5
941.912	2118.897	21818.85	20927.1
942.0478	2120.4276	21704.2	20805.4
942.1835	2121.9575	21596.05	20703.75
942.3193	2123.4866	21627.2	20721.15
942.455	2125.0149	21522.65	20627.9
942.5907	2126.5426	21385.1	20493.65
942.7264	2128.0695	21374.55	20478.85
942.8621	2129.5956	21286.8	20395.9
942.9977	2131.1211	21241.8	20344.05
943.1333	2132.6458	21186.45	20294.45
943.2689	2134.1698	21152.05	20261.55
943.4044	2135.693	21079.35	20186.35
943.54	2137.2155	21076.1	20184.05
943.6755	2138.7373	20963.65	20070.25
943.8109	2140.2584	20886.35	19996.4
943.9464	2141.7787	20816.85	19921
944.0818	2143.2983	20716.9	19825.95
944.2172	2144.8171	20615.65	19727
944.3526	2146.3353	20518.6	19624.7
944.4879	2147.8527	20456.9	19565.1
944.6232	2149.3693	20439.6	19548.7
944.7585	2150.8853	20324.5	19432.65
944.8938	2152.4005	20219.4	19327.8
945.029	2153.9149	20214.8	19321
945.1642	2155.4287	20121.45	19230.2
945.2994	2156.9417	20115.5	19224.4
945.4346	2158.454	20056.9	19163.5
945.5697	2159.9655	19970.5	19080.4
945.7048	2161.4764	19967.65	19075.4
945.8399	2162.9865	19886.95	18996.2
945.9749	2164.4958	19796.35	18903.25
946.1099	2166.0045	19721.6	18828.15
946.2449	2167.5124	19701.6	18810.25
946.3799	2169.0195	19635.85	18742.8
946.5148	2170.526	19603.6	18712.15
946.6498	2172.0317	19498.45	18605.5
946.7846	2173.5367	19487.95	18596.45
946.9195	2175.0409	19372.6	18481.2
947.0543	2176.5445	19379.25	18488
947.1891	2178.0473	19310.35	18417.35
947.3239	2179.5494	19204.55	18309.6
947.4587	2181.0507	19154.35	18263.4
947.5934	2182.5513	19095.65	18204
947.7281	2184.0512	19028.5	18137.45
947.8628	2185.5504	18965.6	18073.65
947.9974	2187.0488	18856.85	17964.95
948.132	2188.5465	18791.8	17898.7
948.2666	2190.0435	18723.65	17830.75
948.4012	2191.5397	18659.5	17766.4
948.5357	2193.0353	18623.8	17734.1
948.6702	2194.5301	18483.85	17591.85
948.8047	2196.0241	18430.25	17538.65
948.9392	2197.5175	18397.75	17506.65
949.0736	2199.0101	18299	17403.1
949.208	2200.502	18217.75	17325.85
949.3424	2201.9931	18129.75	17239.35
949.4767	2203.4835	18070.8	17176.5
949.611	2204.9733	18045.55	17148.95
949.7453	2206.4622	17958.5	17066.8
949.8796	2207.9505	17906.15	17011.3
950.0138	2209.438	17826.55	16935.3
950.148	2210.9248	17786.4	16893.8
950.2822	2212.4109	17707.25	16816.7
950.4164	2213.8962	17649.05	16753.9
950.5505	2215.3809	17629.55	16734.45
950.6846	2216.8648	17539.85	16647.6
950.8186	2218.3479	17514.4	16617.25
950.9527	2219.8304	17429.05	16534.65
951.0867	2221.3121	17326.65	16430.45
951.2207	2222.7931	17271.65	16379.4
951.3546	2224.2733	17205.7	16314.65
951.4886	2225.7529	17155	16262.9
951.6225	2227.2317	17108.15	16215
951.7563	2228.7098	17062.8	16171.25
951.8902	2230.1872	16965.05	16073.8
952.024	2231.6638	16956.5	16064.55
952.1578	2233.1397	16890.8	15992.75
952.2916	2234.6149	16795.3	15903.3
952.4253	2236.0894	16771.65	15879.45
952.559	2237.5632	16750	15848.8
952.6927	2239.0362	16651.7	15759.9
952.8263	2240.5085	16601.45	15710.75
952.9599	2241.9801	16518.8	15625.8
953.0935	2243.4509	16477	15586
953.2271	2244.921	16397.95	15504.55
953.3606	2246.3904	16343.9	15448.95
953.4941	2247.8591	16318.15	15427.3
953.6276	2249.3271	16217.85	15326.9
953.7611	2250.7943	16172.3	15280.85
953.8945	2252.2608	16100.3	15208.85
954.0279	2253.7266	16100.05	15207.75
954.1612	2255.1917	16011.05	15117.55
954.2946	2256.656	15974.35	15080.3
954.4279	2258.1197	15906.95	15014.65
954.5612	2259.5826	15840	14945.45
954.6944	2261.0447	15846.15	14954.8
954.8276	2262.5062	15753.05	14859.85
954.9608	2263.9669	15732.25	14840
955.094	2265.4269	15691.95	14801.65
955.2271	2266.8862	15600.25	14707.15
955.3602	2268.3448	15576.75	14683.5
955.4933	2269.8026	15567.45	14676.55
955.6264	2271.2598	15481.1	14588.3
955.7594	2272.7162	15436.1	14547
955.8924	2274.1719	15407.4	14515.7
956.0253	2275.6268	15289.45	14398.05
956.1583	2277.0811	15286.9	14393.2
956.2912	2278.5346	15256.45	14364.7
956.4241	2279.9874	15180.9	14289.1
956.5569	2281.4395	15170.25	14279.5
956.6897	2282.8908	15105.65	14208.25
956.8225	2284.3414	15054.2	14160.9
956.9553	2285.7914	14994.9	14104.6
957.088	2287.2406	14955.15	14061.25
957.2207	2288.689	14921.45	14029.35
957.3534	2290.1368	14840.5	13946.4
957.486	2291.5838	14803.75	13910.7
957.6186	2293.0302	14765.7	13871.6
957.7512	2294.4758	14692.85	13800.3
957.8838	2295.9206	14656.5	13760.45
958.0163	2297.3648	14601.6	13709.1
958.1488	2298.8082	14614.7	13722.4
958.2813	2300.251	14555	13663.3
958.4137	2301.693	14493	13599.7
958.5461	2303.1343	14474.55	13580.35
958.6785	2304.5748	14399.05	13506.2
958.8108	2306.0147	14354.85	13462.3
958.9432	2307.4538	14327.1	13432.7
959.0754	2308.8922	14267	13376.85
959.2077	2310.3299	14213.2	13322.9
959.3399	2311.7669	14157.65	13266.45
959.4721	2313.2031	14118.75	13227.95
959.6043	2314.6387	14054.3	13161.9
959.7365	2316.0735	14005.4	13113.45
959.8686	2317.5076	13975.15	13082.05
960.0006	2318.941	13932.1	13038.35
960.1327	2320.3737	13891	12998.85
960.2647	2321.8056	13850.95	12957.05
960.3967	2323.2369	13797.3	12903.5
960.5287	2324.6674	13754.25	12858.05
960.6606	2326.0972	13675.8	12780.9
960.7925	2327.5263	13647	12755.05
960.9244	2328.9547	13605.4	12713.7
961.0562	2330.3823	13539.15	12647.7
961.1881	2331.8092	13527.1	12633.95
961.3198	2333.2355	13450.35	12557.25
961.4516	2334.661	13439.35	12546.85
961.5833	2336.0858	13430.15	12534
961.715	2337.5098	13384.15	12492.7
961.8467	2338.9332	13328.65	12435.3
961.9783	2340.3558	13289.1	12391.1
962.1099	2341.7778	13222.8	12331.05
962.2415	2343.199	13182.8	12289.15
962.373	2344.6195	13182.15	12290.45
962.5045	2346.0393	13130.95	12240.05
962.636	2347.4583	13068.9	12174.05
962.7675	2348.8767	13029.75	12137.2
962.8989	2350.2943	12981.1	12088.9
963.0303	2351.7113	12994.15	12101.65
963.1617	2353.1275	12912.25	12019.9
963.293	2354.543	12872.6	11954.5
963.4243	2355.9578	12844.1	11952.1
963.5556	2357.3718	12731.55	11840.1
963.6868	2358.7852	12712.75	11817.95
963.818	2360.1978	12662.9	11768.8
963.9492	2361.6098	12638.75	11744.7
964.0803	2363.021	12585.35	11690.05
964.2114	2364.4315	12535.75	11645.35
964.3425	2365.8413	12501.95	11607.35
964.4736	2367.2504	12440.3	11549.45
964.6046	2368.6587	12366.7	11475.2
964.7356	2370.0664	12309.95	11418.35
964.8666	2371.4733	12305.25	11412.75
964.9975	2372.8795	12240.4	11348.35
965.1284	2374.285	12179.6	11286.45
965.2593	2375.6899	12129.05	11237.9
965.3901	2377.0939	12055.25	11161.95
965.5209	2378.4973	12019.95	11129.2
965.6517	2379.9	12011.4	11120.45
965.7825	2381.3019	11954.1	11064.3
965.9132	2382.7032	11904.95	11015.55
966.0439	2384.1037	11870.55	10980.8
966.1745	2385.5035	11857	10964.85
966.3051	2386.9027	11795.4	10905.45
966.4357	2388.3011	11752.8	10856.85
966.5663	2389.6987	11698.85	10806.55
966.6968	2391.0957	11671.3	10781
966.8273	2392.492	11633.8	10743.4
966.9578	2393.8876	11540.05	10649.9
967.0882	2395.2824	11514.75	10624.15
967.2186	2396.6765	11469.1	10578.2
967.349	2398.07	11418.6	10528.05
967.4793	2399.4627	11394.65	10504.5
967.6097	2400.8547	11330.95	10439.8
967.7399	2402.246	11303.05	10407.25
967.8702	2403.6366	11238.6	10347.45
968.0004	2405.0265	11230.15	10341.9
968.1306	2406.4156	11138.25	10245.6
968.2607	2407.8041	11116.65	10222.7
968.3909	2409.1918	11070.4	10176.15
968.521	2410.5789	11025.05	10132.9
968.651	2411.9652	10980.65	10086.75
968.781	2413.3508	10951.6	10061.3
968.911	2414.7358	10921.25	10029.8
969.041	2416.12	10861.75	9972.15
969.1709	2417.5035	10804.8	9915.05
969.3008	2418.8863	10776.5	9883.95
969.4307	2420.2684	10763.55	9872.8
969.5606	2421.6497	10720.5	9828.45
969.6904	2423.0304	10641.85	9751
969.8201	2424.4104	10611.2	9720
969.9499	2425.7896	10561.5	9662.6
970.0796	2427.1682	10544.7	9652.35
970.2093	2428.546	10522.25	9632
970.3389	2429.9232	10493.65	9600.7
970.4685	2431.2996	10460.8	9570.6
970.5981	2432.6753	10414.45	9524.2
970.7277	2434.0503	10394.7	9503
970.8572	2435.4246	10337.1	9445.45
970.9867	2436.7982	10320.3	9427.9
971.1161	2438.1711	10254.1	9364.1
971.2456	2439.5433	10241.2	9349.75
971.375	2440.9148	10199	9306.65
971.5043	2442.2856	10169.4	9278.3
971.6336	2443.6557	10128	9236.05
971.7629	2445.025	10063.15	9171.45
971.8922	2446.3937	10081.65	9190.4
972.0214	2447.7617	10036.55	9144.8
972.1506	2449.1289	10030.25	9139.25
972.2798	2450.4955	9963.75	9069.35
972.4089	2451.8613	9940.15	9049.35
972.538	2453.2265	9892.85	9001.4
972.6671	2454.5909	9856.4	8963.65
972.7961	2455.9546	9865.85	8974.05
972.9251	2457.3177	9846	8954.75
973.0541	2458.68	9820.45	8928.85
973.1831	2460.0416	9788.8	8897.15
973.312	2461.4025	9758.05	8866.45
973.4408	2462.7627	9742.35	8840.35
973.5697	2464.1222	9695.35	8804.25
973.6985	2465.4811	9663.7	8771.45
973.8273	2466.8392	9605.7	8715.55
973.956	2468.1966	9593.75	8700.35
974.0847	2469.5533	9612.35	8716.75
974.2134	2470.9093	9564.25	8672.6
974.3421	2472.2645	9527.5	8634.35
974.4707	2473.6191	9500.25	8607.75
974.5993	2474.973	9431.35	8536.8
974.7278	2476.3262	9405	8512.25
974.8563	2477.6787	9387.85	8498.2
974.9848	2479.0305	9326.5	8436.7
975.1132	2480.3816	9329	8435.15
975.2417	2481.7319	9279.25	8386.25
975.37	2483.0816	9240.45	8346.15
975.4984	2484.4306	9197.6	8302
975.6267	2485.7789	9153.95	8262.1
975.755	2487.1264	9145.8	8252.7
975.8833	2488.4733	9084.8	8194.8
976.0115	2489.8195	9060.35	8163.65
976.1397	2491.165	9027.45	8132.4
976.2678	2492.5097	8984	8089.7
976.3959	2493.8538	8935.5	8042.45
976.524	2495.1972	8928.25	8038.6
976.6521	2496.5398	8864.5	7972
976.7801	2497.8818	8862.7	7970.3
976.9081	2499.2231	8857	7965.5
977.036	2500.5637	8793.95	7899.9
977.164	2501.9035	8753.6	7860.5
977.2918	2503.2427	8739.65	7843.45
977.4197	2504.5812	8702.35	7811.55
977.5475	2505.919	8684.25	7791.7
977.6753	2507.256	8676	7784.85
977.8031	2508.5924	8604.8	7714.8
977.9308	2509.9281	8599.1	7701.2
978.0585	2511.2631	8557.75	7666.25
978.1861	2512.5974	8536.75	7646.85
978.3137	2513.9309	8504.25	7612.9
978.4413	2515.2638	8503.65	7576.7
978.5689	2516.596	8453.1	7562.45
978.6964	2517.9275	8416.75	7525.45
978.8239	2519.2583	8380.6	7487.8
978.9513	2520.5884	8345.4	7450.25
979.0788	2521.9178	8320.55	7429.9
979.2062	2523.2465	8290.45	7398.4
979.3335	2524.5745	8238.25	7346.35
979.4608	2525.9018	8219.45	7328.35
979.5881	2527.2284	8182.2	7289.75
979.7154	2528.5543	8190	7298.8
979.8426	2529.8796	8159.2	7267.15
979.9698	2531.2041	8143.8	7251.25
980.0969	2532.5279	8117.05	7224.75
980.224	2533.851	8106.2	7215.05
980.3511	2535.1735	8053.7	7163.7
980.4781	2536.4952	8033.85	7142.75
980.6052	2537.8163	8013.25	7121.7
980.7321	2539.1366	7996.25	7103.7
980.8591	2540.4562	7958.85	7064.65
980.986	2541.7752	7958	7066.8
981.1129	2543.0935	7962.45	7071.85
981.2397	2544.411	7923.7	7033.05
981.3665	2545.7279	7913.65	7023.75
981.4933	2547.0441	7883.4	6990.9
981.62	2548.3596	7863.8	6967
981.7467	2549.6744	7843.4	6949.65
981.8734	2550.9885	7824.5	6932
982.0001	2552.3019	7779.5	6887.55
982.1267	2553.6146	7791.5	6900
982.2532	2554.9266	7754.65	6860.65
982.3798	2556.2379	7722.3	6829.65
982.5063	2557.5485	7708.55	6817.25
982.6327	2558.8585	7701.55	6802.5
982.7592	2560.1677	7672.3	6777.25
982.8856	2561.4762	7629.25	6738.15
983.0119	2562.7841	7627.95	6733.3
983.1383	2564.0913	7621.35	6729.35
983.2646	2565.3977	7612.5	6721.5
983.3908	2566.7035	7586.8	6694.95
983.517	2568.0086	7567	6673.65
983.6432	2569.313	7549.45	6655.6
983.7694	2570.6167	7531.35	6635.9
983.8955	2571.9197	7499.15	6606.5
984.0216	2573.222	7513.95	6619.3
984.1476	2574.5236	7482.35	6591.1
984.2737	2575.8246	7462.15	6564.55
984.3996	2577.1248	7447.35	6552.05
984.5256	2578.4244	7446.35	6556.45
984.6515	2579.7232	7422.8	6530.85
984.7774	2581.0214	7427.2	6510.25
984.9032	2582.3189	7383.25	6493.1
985.029	2583.6157	7368.1	6472.9
985.1548	2584.9118	7356.3	6463.55
985.2806	2586.2072	7340.25	6448.7
985.4063	2587.5019	7304.4	6412.5
985.5319	2588.7959	7265.05	6372.7
985.6576	2590.0893	7264.75	6371.1
985.7832	2591.3819	7235.35	6344.5
985.9087	2592.6739	7206.6	6315.85
986.0343	2593.9652	7207.25	6313.8
986.1597	2595.2557	7190.65	6299.85
986.2852	2596.5456	7143.95	6249.15
986.4106	2597.8348	7136.3	6245.35
986.536	2599.1234	7095.3	6204.9
986.6614	2600.4112	7066.65	6176.8
986.7867	2601.6983	7057.35	6164.55
986.912	2602.9848	7041.05	6148.3
987.0372	2604.2705	7014.7	6114.6
987.1624	2605.5556	6998.25	6105.1
987.2876	2606.84	6965.7	6072.8
987.4128	2608.1237	6969.15	6078.3
987.5379	2609.4067	6910.9	6020.25
987.6629	2610.689	6882.35	5982
987.788	2611.9707	6851.7	5957.7
987.913	2613.2516	6849.2	5951.25
988.0379	2614.5319	6809.1	5917.55
988.1629	2615.8115	6796.7	5903.5
988.2878	2617.0903	6765.65	5872.35
988.4126	2618.3685	6724.75	5831.7
988.5375	2619.6461	6702.6	5809.55
988.6622	2620.9229	6704.3	5812.85
988.787	2622.199	6685	5792.75
988.9117	2623.4745	6662.65	5770.65
989.0364	2624.7493	6636.6	5745.3
989.161	2626.0234	6625.9	5735.4
989.2857	2627.2968	6575.5	5683.95
989.4102	2628.5695	6552.2	5660.05
989.5348	2629.8415	6526.9	5636.65
989.6593	2631.1128	6486.25	5594.2
989.7837	2632.3835	6471.25	5580.85
989.9082	2633.6535	6450.3	5559.55
990.0326	2634.9228	6441	5549
990.1569	2636.1914	6432.95	5540.7
990.2812	2637.4593	6414.55	5516.5
990.4055	2638.7265	6375.25	5482.25
990.5298	2639.9931	6361.3	5470.7
990.654	2641.259	6311.95	5418.35
990.7782	2642.5242	6312.75	5420.7
990.9023	2643.7887	6302.5	5410
991.0264	2645.0525	6267.5	5375.4
991.1505	2646.3156	6258.4	5367.8
991.2745	2647.5781	6231.3	5340.9
991.3985	2648.8398	6212.35	5320.75
991.5225	2650.1009	6195	5294.3
991.6464	2651.3613	6197.8	5306.7
991.7703	2652.6211	6163.8	5271.7
991.8942	2653.8801	6132.7	5240.4
992.018	2655.1385	6130.55	5234.35
992.1418	2656.3961	6117.05	5225.6
992.2655	2657.6531	6111.35	5219.95
992.3892	2658.9094	6080.4	5190.65
992.5129	2660.1651	6064.55	5174.15
992.6366	2661.42	6049.1	5157.4
992.7602	2662.6743	6021.7	5129.1
992.8837	2663.9279	6007.1	5115.45
993.0073	2665.1808	6001.1	5106.95
993.1307	2666.433	5989.4	5097.4
993.2542	2667.6846	5959.35	5067.4
993.3776	2668.9354	5968.65	5073.9
993.501	2670.1856	5929.95	5036.75
993.6244	2671.4351	5913.25	5022.55
993.7477	2672.6839	5910.6	5017.7
993.8709	2673.9321	5893.75	5002
993.9942	2675.1795	5874.45	4985.95
994.1174	2676.4263	5865.2	4973.85
994.2405	2677.6724	5822.65	4930.9
994.3637	2678.9179	5837.1	4944.15
994.4868	2680.1626	5817.1	4925.45
994.6098	2681.4067	5801.9	4908.85
994.7328	2682.6501	5784.1	4890.95
994.8558	2683.8928	5774.4	4882.55
994.9788	2685.1348	5735.85	4845.1
995.1017	2686.3761	5704.05	4812.4
995.2245	2687.6168	5687.05	4795.6
995.3474	2688.8568	5675.4	4782.8
995.4702	2690.0961	5656.9	4764.7
995.5929	2691.3348	5652.05	4761.35
995.7156	2692.5727	5632.1	4740.7
995.8383	2693.81	5600.9	4709.2
995.961	2695.0466	5577.35	4687.4
996.0836	2696.2826	5568.7	4675.95
996.2062	2697.5178	5549.8	4655.4
996.3287	2698.7524	5527.7	4635.3
996.4512	2699.9863	5513.6	4619.05
996.5737	2701.2195	5500.25	4608.45
996.6961	2702.452	5491.45	4598.75
996.8185	2703.6839	5479.4	4585.5
996.9408	2704.9151	5470.65	4579.65
997.0631	2706.1456	5463.9	4574.9
997.1854	2707.3755	5463.6	4572.15
997.3077	2708.6046	5446.6	4552.35
997.4299	2709.8331	5425.7	4532.95
997.552	2711.0609	5410.5	4518.7
997.6742	2712.2881	5400.55	4507.8
997.7963	2713.5145	5380	4487.75
997.9183	2714.7403	5380.55	4489.05
998.0403	2715.9654	5369	4476.3
998.1623	2717.1899	5369.9	4463.25
998.2842	2718.4136	5356.8	4465.55
998.4062	2719.6367	5354.2	4464
998.528	2720.8591	5343.3	4444.3
998.6498	2722.0809	5326.3	4434.3
998.7716	2723.3019	5329.75	4433.45
998.8934	2724.5223	5331	4438.4
999.0151	2725.7421	5313.15	4421.6
999.1368	2726.9611	5298.85	4404.8
999.2584	2728.1795	5275	4376.8
999.38	2729.3972	5258.85	4367.15
999.5016	2730.6142	5229.3	4333.15
999.6231	2731.8306	5191.6	4298.9
999.7446	2733.0462	5181.75	4288.9
999.8661	2734.2612	5129.75	4233.3
999.9875	2735.4756	5101.9	4206.95
1000.1089	2736.6892	5079.6	4185.9
1000.2302	2737.9022	5027.65	4137
1000.3515	2739.1145	5015.15	4123.35
1000.4728	2740.3262	4980.05	4080.3
1000.594	2741.5372	4936.55	4046
1000.7152	2742.7475	4925.75	4035
1000.8363	2743.9571	4909.7	4016.55
1000.9575	2745.1661	4893.65	3997.3
1001.0785	2746.3744	4855.6	3962.1
1001.1996	2747.582	4852.55	3961.95
1001.3206	2748.7889	4810.3	3918.15
1001.4415	2749.9952	4796.15	3904.3
1001.5625	2751.2008	4784.45	3891.3
1001.6833	2752.4057	4771.25	3878.45
1001.8042	2753.61	4752.9	3861.5
1001.925	2754.8136	4736.1	3841.55
1002.0458	2756.0165	4728.6	3837.5
1002.1665	2757.2188	4715.15	3822.85
1002.2872	2758.4204	4702.35	3810.85
1002.4078	2759.6213	4682	3789.75
1002.5285	2760.8215	4684.25	3789.15
1002.649	2762.0211	4646.1	3752.85
1002.7696	2763.22	4632.25	3737.4
1002.8901	2764.4182	4627.7	3734.9
1003.0106	2765.6158	4607.45	3715.6
1003.131	2766.8127	4590	3697.85
1003.2514	2768.009	4570.4	3677.85
1003.3717	2769.2045	4562.05	3670
1003.492	2770.3994	4557.75	3663.85
1003.6123	2771.5936	4517.55	3626.45
1003.7325	2772.7872	4510.4	3619.15
1003.8527	2773.9801	4484	3589.95
1003.9729	2775.1723	4495.25	3586.95
1004.093	2776.3639	4472.7	3581.65
1004.2131	2777.5548	4446.3	3552.4
1004.3331	2778.745	4438.4	3543.2
1004.4531	2779.9346	4424.3	3534.6
1004.5731	2781.1235	4423.55	3530
1004.693	2782.3117	4425.8	3534.5
1004.8129	2783.4992	4418.75	3526.65
1004.9328	2784.6861	4376.5	3485.75
1005.0526	2785.8723	4388.8	3493.4
1005.1723	2787.0579	4379.2	3487.1
1005.2921	2788.2428	4383.15	3490.8
1005.4118	2789.427	4368.6	3475.6
1005.5314	2790.6106	4360.85	3470.65
1005.651	2791.7935	4348.75	3456.6
1005.7706	2792.9757	4341.3	3450.55
1005.8902	2794.1573	4355.3	3461.2
1006.0097	2795.3382	4346.95	3456.3
1006.1291	2796.5184	4347.35	3456.15
1006.2485	2797.698	4357.6	3464.95
1006.3679	2798.8769	4360.55	3468.7
1006.4873	2800.0551	4366.7	3475.4
1006.6066	2801.2327	4367.1	3472.95
1006.7258	2802.4096	4362.6	3471.55
1006.8451	2803.5859	4367	3475.5
1006.9642	2804.7615	4387.8	3495.45
1007.0834	2805.9364	4399.35	3510.75
1007.2025	2807.1106	4407.45	3517.85
1007.3216	2808.2842	4425.95	3534.05
1007.4406	2809.4572	4444.8	3552.95
1007.5596	2810.6294	4459.95	3565.8
1007.6785	2811.801	4514.4	3623.2
1007.7975	2812.972	4517.55	3624.4
1007.9163	2814.1423	4547.15	3655.05
1008.0352	2815.3119	4613.85	3721.7
1008.154	2816.4808	4643.9	3751.65
1008.2727	2817.6491	4676.7	3784.55
1008.3914	2818.8167	4750.35	3859.85
1008.5101	2819.9837	4772.75	3877.9
1008.6288	2821.15	4799.25	3905.95
1008.7474	2822.3157	4812.75	3922.05
1008.8659	2823.4807	4868.1	3975.35
1008.9844	2824.645	4892.95	4001.3
1009.1029	2825.8086	4949.1	4057.9
1009.2214	2826.9716	4942.8	4050.6
1009.3398	2828.134	4971	4079.9
1009.4581	2829.2957	5014.8	4125.5
1009.5764	2830.4567	5021.65	4129.2
1009.6947	2831.617	5032.25	4142.7
1009.813	2832.7767	5041.25	4150.15
1009.9312	2833.9358	5034.15	4144.85
1010.0493	2835.0941	5023.5	4128.55
1010.1675	2836.2519	5014.5	4123.65
1010.2855	2837.4089	4995.15	4102.75
1010.4036	2838.5653	4969.4	4078.35
1010.5216	2839.7211	4953.6	4063.5
1010.6396	2840.8761	4967.25	4072.85
1010.7575	2842.0306	4988.9	4099.35
1010.8754	2843.1843	5019.2	4128.4
1010.9932	2844.3374	5065.85	4175.25
1011.111	2845.4899	5104.05	4212.25
1011.2288	2846.6417	5174.7	4282.05
1011.3465	2847.7928	5239.3	4347.75
1011.4642	2848.9433	5305.1	4413.25
1011.5818	2850.0931	5377	4485.9
1011.6995	2851.2422	5454.25	4560.9
1011.817	2852.3907	5530.35	4636.4
1011.9345	2853.5385	5583.15	4691.75
1012.052	2854.6857	5623.95	4706.15
1012.1695	2855.8323	5659.75	4768.8
1012.2869	2856.9781	5713.75	4824.7
1012.4042	2858.1233	5751.5	4859.95
1012.5216	2859.2679	5785	4892.7
1012.6389	2860.4118	5802.45	4911.8
1012.7561	2861.555	5871.45	4976.4
1012.8733	2862.6976	5872.15	4980.15
1012.9905	2863.8395	5889.75	4998.15
1013.1076	2864.9808	5907.2	5016.4
1013.2247	2866.1214	5913.2	5021.75
1013.3417	2867.2614	5924.15	5033.55
1013.4587	2868.4007	5927.35	5034.3
1013.5757	2869.5393	5907.9	5014.3
1013.6926	2870.6773	5927.85	5035.65
1013.8095	2871.8146	5909.4	5013.8
1013.9263	2872.9513	5914.75	5021.75
1014.0431	2874.0874	5893.9	5002.15
1014.1599	2875.2227	5876.65	4983
1014.2766	2876.3574	5852.25	4961.2
1014.3933	2877.4915	5824.55	4932.05
1014.51	2878.6249	5778	4886.75
1014.6266	2879.7577	5743.4	4852.3
1014.7431	2880.8898	5733.95	4833.8
1014.8596	2882.0212	5694.6	4804
1014.9761	2883.152	5654.35	4763.7
1015.0925	2884.2821	5626.65	4736.65
1015.2089	2885.4116	5632.8	4741.75
1015.3253	2886.5405	5636.95	4742.85
1015.4416	2887.6686	5614.45	4719.9
1015.5579	2888.7962	5599.95	4709.2
1015.6741	2889.923	5619.2	4728.15
1015.7903	2891.0493	5615.1	4724.45
1015.9065	2892.1748	5624.65	4733.65
1016.0226	2893.2997	5615.6	4724.15
1016.1387	2894.424	5607.75	4716.85
1016.2547	2895.5476	5629.15	4736.75
1016.3707	2896.6706	5637.8	4748.3
1016.4866	2897.7929	5671.45	4781.4
1016.6025	2898.9145	5677.75	4787.35
1016.7184	2900.0355	5690.05	4797.35
1016.8342	2901.1559	5697.85	4805.35
1016.95	2902.2756	5743.05	4852.65
1017.0658	2903.3946	5793.65	4902.5
1017.1815	2904.513	5799.2	4905.85
1017.2971	2905.6308	5793.7	4901.15
1017.4127	2906.7479	5842.3	4950.6
1017.5283	2907.8643	5848.45	4955.6
1017.6439	2908.9801	5834.9	4942.85
1017.7594	2910.0953	5839.6	4947.55
1017.8748	2911.2098	5846.25	4950.65
1017.9902	2912.3236	5810.4	4911
1018.1056	2913.4368	5795.1	4901.5
1018.2209	2914.5494	5754.25	4863.25
1018.3362	2915.6613	5739.55	4842.65
1018.4515	2916.7725	5703.35	4811
1018.5667	2917.8831	5670.45	4778.2
1018.6819	2918.9931	5622.95	4729.5
1018.797	2920.1024	5588.65	4695.95
1018.9121	2921.211	5552.15	4660
1019.0271	2922.319	5534.3	4642.1
1019.1421	2923.4264	5513.35	4622.85
1019.2571	2924.5331	5483.1	4594
1019.372	2925.6391	5470.6	4580.75
1019.4869	2926.7445	5455.45	4566.55
1019.6017	2927.8493	5452.65	4561.5
1019.7165	2928.9534	5438.35	4547.55
1019.8313	2930.0569	5428.15	4534.1
1019.946	2931.1597	5404.6	4512.3
1020.0606	2932.2619	5372.6	4483.6
1020.1753	2933.3634	5351.2	4462.45
1020.2899	2934.4643	5340.05	4441.25
1020.4044	2935.5645	5317.45	4419.5
1020.5189	2936.6641	5282.6	4386.55
1020.6334	2937.763	5227.5	4337
1020.7478	2938.8613	5179.4	4286.8
1020.8622	2939.959	5112.7	4217.05
1020.9765	2941.056	5014.2	4123.8
1021.0908	2942.1523	4928.7	4036.8
1021.2051	2943.248	4828.4	3937.5
1021.3193	2944.3431	4729.7	3838.35
1021.4334	2945.4375	4632.55	3742.5
1021.5476	2946.5313	4517.65	3628.25
1021.6617	2947.6244	4392.1	3500.75
1021.7757	2948.7169	4289	3396.9
1021.8897	2949.8087	4192.25	3301.35
1022.0037	2950.8999	4093.45	3200.85
1022.1176	2951.9904	3983.7	3093.7
1022.2315	2953.0803	3898.55	3006.45
1022.3453	2954.1696	3843.3	2952.25
1022.4591	2955.2582	3783.4	2893.45
1022.5728	2956.3462	3729.55	2839.7
1022.6865	2957.4335	3675.35	2785.45
1022.8002	2958.5202	3641.35	2748.9
1022.9138	2959.6062	3613	2721.9
1023.0274	2960.6916	3577.25	2685.25
1023.141	2961.7764	3557.9	2665.35
1023.2545	2962.8605	3514.4	2623.95
1023.3679	2963.9439	3511.5	2620.55
1023.4813	2965.0267	3485.5	2593.7
1023.5947	2966.1089	3489.35	2575.9
1023.708	2967.1905	3468	2575.6
1023.8213	2968.2714	3448.85	2557.3
1023.9346	2969.3516	3444.1	2554.4
1024.0478	2970.4312	3440.1	2542.95
1024.1609	2971.5102	3427.45	2536.45
1024.274	2972.5885	3426.75	2536.1
1024.3871	2973.6662	3421.25	2526.85
1024.5002	2974.7432	3409.15	2518.7
1024.6132	2975.8196	3404.85	2516.05
1024.7261	2976.8954	3376.6	2485.9
1024.839	2977.9705	3354.4	2463.75
1024.9519	2979.045	3350.8	2460
1025.0647	2980.1188	3311.25	2419.95
1025.1775	2981.192	3275.5	2384.1
1025.2902	2982.2645	3267.55	2376.55
1025.4029	2983.3364	3220.5	2329.4
1025.5156	2984.4077	3186.45	2296.45
1025.6282	2985.4783	3165.6	2269.2
1025.7407	2986.5483	3134.1	2242.9
1025.8532	2987.6177	3092.7	2201.9
1025.9657	2988.6864	3047.05	2157.05
1026.0782	2989.7545	3002.9	2109.5
1026.1906	2990.8219	2965.35	2073.05
1026.3029	2991.8887	2917.25	2023.9
1026.4152	2992.9548	2895.85	2003.6
1026.5275	2994.0204	2854.45	1963.7
1026.6397	2995.0852	2819.35	1929.05
1026.7519	2996.1495	2796.25	1907.25
1026.864	2997.2131	2769.65	1878.1
1026.9761	2998.276	2746.45	1855.8
1027.0882	2999.3383	2720.4	1829.35
1027.2002	3000.4	2691.45	1798.4
1027.3122	3001.4611	2672.65	1782.3
1027.4241	3002.5215	2648.85	1757.75
1027.536	3003.5812	2624	1733.4
1027.6478	3004.6404	2619.2	1729.35
1027.7596	3005.6989	2611.95	1718.65
1027.8714	3006.7567	2596.3	1705
1027.9831	3007.8139	2601.2	1686.3
1028.0947	3008.8705	2565.65	1675.3
1028.2064	3009.9264	2560.7	1666.4
1028.3179	3010.9818	2553.85	1663.45
1028.4295	3012.0364	2545.75	1655.3
1028.541	3013.0905	2527.85	1637.5
1028.6524	3014.1439	2525.9	1633.8
1028.7638	3015.1966	2521.95	1632.55
1028.8752	3016.2487	2510.85	1619.8
1028.9865	3017.3002	2517.65	1619.8
1029.0978	3018.3511	2499	1609.25
1029.209	3019.4013	2492.35	1601.35
1029.3202	3020.4509	2493.35	1602.7
1029.4314	3021.4998	2499.85	1609.3
1029.5425	3022.5481	2485.75	1595.75
1029.6535	3023.5958	2477.6	1586.45
1029.7645	3024.6428	2472.6	1579.05
1029.8755	3025.6892	2468.6	1579
1029.9864	3026.735	2473.7	1582.95
1030.0973	3027.7802	2477.45	1586.35
1030.2082	3028.8247	2460.5	1569.6
1030.319	3029.8685	2462.3	1571.35
1030.4297	3030.9118	2458.85	1568.7
1030.5404	3031.9544	2459.25	1567.6
1030.6511	3032.9963	2459.15	1569.2
1030.7617	3034.0376	2443.85	1554.55
1030.8723	3035.0783	2455.3	1561.5
1030.9829	3036.1184	2474.6	1580.95
1031.0934	3037.1578	2448.6	1558.8
1031.2038	3038.1966	2454.1	1561.2
1031.3142	3039.2348	2449.85	1560.9
1031.4246	3040.2723	2449	1549.85
1031.5349	3041.3092	2432.6	1543.1
1031.6452	3042.3455	2431.05	1541.8
1031.7554	3043.3811	2426.45	1537.2
1031.8656	3044.4161	2417.15	1525
1031.9758	3045.4505	2405.2	1515.7
1032.0859	3046.4842	2405.35	1511.7
1032.1959	3047.5173	2378.85	1488.65
1032.3059	3048.5498	2382.25	1490.9
1032.4159	3049.5816	2366.1	1475
1032.5258	3050.6128	2358.45	1466.3
1032.6357	3051.6434	2331.9	1439.4
1032.7455	3052.6734	2334.75	1443.1
1032.8553	3053.7027	2330.85	1440.35
1032.9651	3054.7314	2316.1	1426.25
1033.0748	3055.7594	2296.75	1406.65
1033.1845	3056.7868	2289.85	1399.7
1033.2941	3057.8136	2274.5	1383.2
1033.4037	3058.8398	2264.6	1373.85
1033.5132	3059.8653	2270.1	1379.9
1033.6227	3060.8902	2258.8	1369.4
1033.7321	3061.9145	2241.95	1351.8
1033.8415	3062.9381	2235.85	1346.7
1033.9509	3063.9612	2239.2	1333.15
1034.0602	3064.9835	2221.1	1329.2
1034.1694	3066.0053	2206.5	1313.55
1034.2787	3067.0264	2186	1297.5
1034.3878	3068.0469	2186.2	1294.75
1034.497	3069.0668	2182.8	1289.05
1034.6061	3070.086	2150.8	1260.6
1034.7151	3071.1046	2149.1	1256.8
1034.8241	3072.1226	2137	1244.65
1034.9331	3073.1399	2127.65	1236.65
1035.042	3074.1567	2106.3	1214.25
1035.1508	3075.1727	2102.95	1212.7
1035.2597	3076.1882	2080.7	1190.2
1035.3684	3077.203	2078.75	1189.35
1035.4772	3078.2173	2064.15	1174.45
1035.5859	3079.2308	2053.1	1159.2
1035.6945	3080.2438	2037.15	1144.7
1035.8031	3081.2561	2021.3	1129.55
1035.9117	3082.2678	2008	1116.35
1036.0202	3083.2789	2005.55	1115.35
1036.1286	3084.2893	2000.5	1111.95
1036.2371	3085.2991	1982.85	1091.65
1036.3454	3086.3083	1980.75	1086.85
1036.4538	3087.3169	1955	1062.5
1036.562	3088.3248	1968.1	1076.05
1036.6703	3089.3321	1952.7	1061.2
1036.7785	3090.3388	1939.45	1050.2
1036.8866	3091.3449	1928.15	1039.75
1036.9948	3092.3503	1925.7	1034.15
1037.1028	3093.3551	1911.85	1021.8
1037.2108	3094.3593	1917.95	1029.3
1037.3188	3095.3629	1907.05	1017.55
1037.4267	3096.3658	1896	1003.15
1037.5346	3097.3681	1880	990.3
1037.6425	3098.3698	1890.2	998.65
1037.7503	3099.3708	1881.6	983.3
1037.858	3100.3713	1862.5	972.45
1037.9657	3101.3711	1856.7	968.05
1038.0734	3102.3702	1960.65	957.85
1038.181	3103.3688	1858.4	964.85
1038.2886	3104.3667	1847.45	958.75
1038.3961	3105.364	1840.1	950.5
1038.5036	3106.3607	1841.4	950.55
1038.611	3107.3568	1827.25	936.7
1038.7184	3108.3522	1823.9	933.5
1038.8257	3109.347	1809.4	919.15
1038.933	3110.3412	1813.55	919.7
1039.0403	3111.3348	1801.35	910.05
1039.1475	3112.3277	1780.8	892.05
1039.2547	3113.32	1789.05	902.2
1039.3618	3114.3117	1784.2	893.35
1039.4689	3115.3028	1782.25	892.55
1039.5759	3116.2932	1776.15	885.1
1039.6829	3117.2831	1774.75	880.25
1039.7898	3118.2723	1761.75	871.8
1039.8967	3119.2608	1758.9	867.7
1040.0035	3120.2488	1755.8	865.4
1040.1103	3121.2361	1750.05	860.25
1040.2171	3122.2229	1744.05	854.45
1040.3238	3123.209	1733.8	841.1
1040.4305	3124.1944	1729.8	840.8
1040.5371	3125.1793	1729.8	837.3
1040.6437	3126.1635	1733.35	842.75
1040.7502	3127.1471	1720.55	830.5
1040.8567	3128.1301	1716.8	826.65
1040.9631	3129.1125	1709.35	817.6
1041.0695	3130.0942	1703.7	815.3
1041.1759	3131.0753	1711.55	812.25
1041.2822	3132.0558	1700.25	805.35
1041.3884	3133.0357	1695.2	805.6
1041.4946	3134.015	1699.6	807.8
1041.6008	3134.9936	1693.4	803.25
1041.7069	3135.9716	1701.95	791.45
1041.813	3136.949	1680.05	789.55
1041.919	3137.9258	1691.85	795.6
1042.025	3138.902	1678.5	783.85
1042.1309	3139.8775	1675.85	786
1042.2368	3140.8524	1664.25	774.1
1042.3427	3141.8267	1664.55	771.35
1042.4485	3142.8004	1667.3	776.2
1042.5542	3143.7735	1663.45	766.3
1042.6599	3144.7459	1656.9	765.2
1042.7656	3145.7178	1648.3	757
1042.8712	3146.689	1645.3	755.95
1042.9768	3147.6596	1646.05	754.8
1043.0823	3148.6295	1640.45	748.1
1043.1878	3149.5989	1633.9	742.5
1043.2932	3150.5676	1627.85	738.55
1043.3986	3151.5357	1621.45	732.5
1043.5039	3152.5032	1624.1	734.85
1043.6092	3153.4701	1610.75	722.35
1043.7145	3154.4364	1610.9	717.4
1043.8197	3155.402	1608	718.45
1043.9248	3156.367	1601	709.3
1044.03	3157.3315	1638.35	703.55
1044.135	3158.2952	1596.65	705.45
1044.24	3159.2584	1589.65	698.85
1044.345	3160.221	1582.75	692
1044.4499	3161.1829	1582.4	692.15
1044.5548	3162.1442	1576.3	686.9
1044.6596	3163.105	1573.3	684.15
1044.7644	3164.065	1571.7	681.25
1044.8692	3165.0245	1565.2	671.3
1044.9739	3165.9834	1558.7	669.15
1045.0785	3166.9416	1560.15	669.8
1045.1831	3167.8993	1556.45	666.65
1045.2877	3168.8563	1550.8	661.65
1045.3922	3169.8127	1545.7	655.15
1045.4966	3170.7684	1539.4	649.55
1045.6011	3171.7236	1541.1	651.1
1045.7054	3172.6782	1534.85	644.25
1045.8098	3173.6321	1525.3	635.7
1045.914	3174.5854	1532.25	636.75
1046.0183	3175.5381	1528.6	638.95
1046.1224	3176.4902	1517.6	629.35
1046.2266	3177.4417	1522.05	632.45
1046.3307	3178.3926	1509.7	619.95
1046.4347	3179.3428	1506.65	616.35
1046.5387	3180.2924	1507.65	618.4
1046.6427	3181.2415	1502.65	614.1
1046.7466	3182.1899	1501.55	610.2
1046.8504	3183.1377	1498.05	607.6
1046.9542	3184.0848	1500.4	606.85
1047.058	3185.0314	1482	591.1
1047.1617	3185.9773	1489.45	599.15
1047.2654	3186.9227	1491.95	599.45
1047.369	3187.8674	1466.95	577.35
1047.4726	3188.8115	1485.75	590.1
1047.5761	3189.755	1472.2	581.2
1047.6796	3190.6979	1468.05	577.8
1047.783	3191.6402	1463.35	574.5
1047.8864	3192.5818	1469.25	579.45
1047.9898	3193.5229	1487.45	575.15
1048.0931	3194.4633	1460.35	570.85
1048.1963	3195.4031	1456.05	565.95
1048.2995	3196.3423	1456.3	569.1
1048.4027	3197.2809	1456.1	566.9
1048.5058	3198.2189	1446.35	555.3
1048.6089	3199.1563	1466.65	560.9
1048.7119	3200.0931	1442.25	551.35
1048.8148	3201.0292	1437.5	548.95
1048.9178	3201.9648	1431.9	541.6
1049.0206	3202.8997	1437.35	546.05
1049.1235	3203.834	1427.85	536.3
1049.2262	3204.7677	1425.4	535.65
1049.329	3205.7008	1423.05	533.35
1049.4317	3206.6333	1421.05	531.85
1049.5343	3207.5652	1428.5	534.45
1049.6369	3208.4964	1412.3	519.1
1049.7394	3209.4271	1409.7	520.8
1049.8419	3210.3571	1403.3	513.7
1049.9444	3211.2865	1405.45	517.6
1050.0468	3212.2154	1408.45	518.85
1050.1491	3213.1436	1406	513.85
1050.2514	3214.0712	1411.6	514.65
1050.3537	3214.9982	1392.8	502.2
1050.4559	3215.9246	1396.85	508
1050.5581	3216.8503	1393.95	504.1
1050.6602	3217.7755	1392.75	503.9
1050.7623	3218.7001	1393.3	502.75
1050.8643	3219.624	1385.65	494.85
1050.9663	3220.5473	1379.4	488.6
1051.0682	3221.4701	1379.15	488.2
1051.1701	3222.3922	1381.45	490.25
1051.2719	3223.3137	1377.25	487.8
1051.3737	3224.2346	1375.25	485.3
1051.4754	3225.1549	1369.85	480.65
1051.5771	3226.0746	1368.25	478.95
1051.6788	3226.9937	1365.8	476.8
1051.7804	3227.9121	1361.1	472.65
1051.8819	3228.83	1361.6	471.05
1051.9834	3229.7473	1353.05	461.6
1052.0849	3230.6639	1354.8	462.7
1052.1863	3231.5799	1350.5	460.1
1052.2876	3232.4954	1349.6	459.9
1052.3889	3233.4102	1348.1	458.85
1052.4902	3234.3244	1350.35	461.5
1052.5914	3235.238	1341.7	452.3
1052.6926	3236.151	1368.95	455.7
1052.7937	3237.0634	1334.85	445.75
1052.8948	3237.9752	1333.25	443.2
1052.9958	3238.8864	1332.45	441.8
1053.0968	3239.797	1326	437.55
1053.1977	3240.7069	1326.55	434.15
1053.2986	3241.6163	1326.8	434.75
1053.3994	3242.5251	1323.5	436.4
1053.5002	3243.4332	1321	432.75
1053.6009	3244.3408	1314.7	425.1
1053.7016	3245.2477	1310.6	420.3
1053.8022	3246.154	1317.7	427.65
1053.9028	3247.0598	1308.55	416.8
1054.0034	3247.9649	1306.75	417.4
1054.1039	3248.8694	1302.95	412.35
1054.2043	3249.7733	1299.4	409.85
1054.3047	3250.6766	1298.5	409.05
1054.4051	3251.5793	1301.05	412.1
1054.5054	3252.4814	1296.55	407.25
1054.6056	3253.3829	1285.95	395.4
1054.7058	3254.2838	1290.2	400.25
1054.806	3255.1841	1285.65	395.75
1054.9061	3256.0838	1280.8	390.4
1055.0061	3256.9829	1280.65	390.3
1055.1062	3257.8814	1273.8	381.8
1055.2061	3258.7792	1272	379.55
1055.306	3259.6765	1270.65	380.8
1055.4059	3260.5731	1263.5	373.75
1055.5057	3261.4692	1260.4	371.1
1055.6055	3262.3647	1256.05	368.15
1055.7052	3263.2595	1249.05	360.4
1055.8049	3264.1538	1245.2	355
1055.9045	3265.0474	1245.45	355.3
1056.0041	3265.9404	1228	338.45
1056.1036	3266.8329	1222.4	332.9
1056.2031	3267.7247	1231	332.05
1056.3025	3268.616	1211.4	323.55
1056.4019	3269.5066	1205.4	316.35
1056.5013	3270.3966	1202.05	313.6
1056.6005	3271.286	1191.65	302.8
