Software Version:	3.9.2.0
Unit SN:	10000200
Spectrometer SN:	6960
Date:	3/6/2024 10:39:06 AM
Data Line Index:	25
Spectral Points:	2048
Integration time (ms):	125
Averages:	20
Delay (ms):	30
Sequence Number:	1
Processing:	dark subtract
Laser Power (mW):	305
Laser Current (mA):	823
Laser Diode Temp (C):	25.1
Laser Case Temp (C):	26.9
System Temp (C):	26.6
Spectrometer Temp (C):	24
CCD Temp (C):	0.001
Secondary Temp (C):	20.013
Heatsink Temp (C):	22.236
CCDPCB Temp (C):	36.385
SecondaryPCB Temp (C):	32.238

Wavelength	RamanShift	Raw Counts	Dark Subtracted
787.061	30.1047	1138.9	727.15
787.2016	32.3739	1179.05	770.15
787.3422	34.6426	1223.95	811.1
787.4828	36.9109	1271.75	856.15
787.6235	39.1787	1321.45	903.25
787.7642	41.4461	1392.5	969.15
787.9049	43.7131	1460.2	1033.7
788.0456	45.9796	1516.7	1088.1
788.1863	48.2456	1591.85	1158.5
788.3271	50.5112	1659.1	1221.45
788.4679	52.7764	1732.95	1294.75
788.6087	55.0411	1808.85	1365.4
788.7496	57.3054	1892.6	1442.9
788.8904	59.5692	1977.5	1528.2
789.0313	61.8326	2080.35	1626.55
789.1722	64.0955	2191	1731.35
789.3132	66.3579	2321.45	1858.75
789.4541	68.6199	2494.45	2027.3
789.5951	70.8815	2741.7	2272.35
789.7361	73.1426	3277.2	2802.55
789.8771	75.4032	4625.4	4146
790.0181	77.6634	8079.1	7596.75
790.1592	79.9231	17236.65	16747.3
790.3003	82.1824	56263.85	55763.9
790.4414	84.4412	65535	65013.15
790.5825	86.6995	65535	64982.75
790.7237	88.9574	65535	64956.2
790.8648	91.2148	65535	64936.45
791.006	93.4717	65535	64924.45
791.1472	95.7282	65535	64919.05
791.2885	97.9842	65535	64916
791.4297	100.2398	65535	64912.7
791.571	102.4949	65535	64910.75
791.7123	104.7495	65535	64906.75
791.8536	107.0036	65535	64907.3
791.9949	109.2573	65535	64907.4
792.1363	111.5105	65535	64905.8
792.2777	113.7632	65535	64903.2
792.4191	116.0154	65535	64893.85
792.5605	118.2672	65535	64898.65
792.7019	120.5185	65535	64897.5
792.8434	122.7693	65535	64895.8
792.9849	125.0197	65535	64893.3
793.1264	127.2696	65535	64886.4
793.2679	129.519	65535	64884.05
793.4094	131.7679	65535	64880.1
793.551	134.0163	65535	64878.55
793.6926	136.2642	65535	64876.75
793.8342	138.5117	65535	64866.7
793.9758	140.7587	65535	64870.45
794.1175	143.0052	65535	64871.2
794.2591	145.2512	65535	64870.3
794.4008	147.4967	65535	64868.95
794.5425	149.7417	65535	64863.25
794.6842	151.9863	65535	64859.9
794.826	154.2304	65535	64859.05
794.9677	156.4739	65535	64850.8
795.1095	158.717	65535	64850.65
795.2513	160.9596	65535	64848.05
795.3931	163.2017	65535	64844.1
795.535	165.4433	65535	64843.15
795.6768	167.6844	65535	64841.65
795.8187	169.925	65535	64837.95
795.9606	172.1651	65535	64839.9
796.1025	174.4047	65535	64832
796.2445	176.6439	65535	64832.25
796.3864	178.8825	65535	64827.55
796.5284	181.1206	65535	64826.4
796.6704	183.3582	65535	64823.5
796.8124	185.5954	65535	64820
796.9544	187.832	65535	64815.15
797.0965	190.0681	65535	64814.4
797.2386	192.3037	65535	64811.05
797.3806	194.5388	65535	64807.75
797.5228	196.7734	65535	64805.55
797.6649	199.0075	65535	64800.6
797.807	201.2411	65535	64798.25
797.9492	203.4742	65535	64801.95
798.0914	205.7068	65535	64795.75
798.2336	207.9389	65535	64797.85
798.3758	210.1704	65535	64794.55
798.518	212.4015	65535	64796.75
798.6603	214.632	65535	64803.9
798.8025	216.862	65535	64814.75
798.9448	219.0915	65535	64815.2
799.0871	221.3205	65535	64814.2
799.2294	223.549	65535	64813.55
799.3718	225.777	65535	64815.05
799.5141	228.0044	65535	64811.5
799.6565	230.2314	65535	64813.3
799.7989	232.4578	65535	64808
799.9413	234.6837	65535	64801.5
800.0837	236.909	65535	64795.95
800.2262	239.1339	65535	64775.25
800.3687	241.3582	65535	64786.45
800.5111	243.582	65535	64758.95
800.6536	245.8053	65535	64768.1
800.7961	248.0281	65535	64772.55
800.9387	250.2503	65535	64774.15
801.0812	252.472	65535	64765.8
801.2238	254.6932	65535	64765.6
801.3664	256.9139	65535	64769.4
801.509	259.134	65535	64762.75
801.6516	261.3536	65535	64764.95
801.7942	263.5727	65535	64763.65
801.9369	265.7912	65535	64766
802.0795	268.0092	65535	64763.1
802.2222	270.2267	65535	64759.4
802.3649	272.4436	65535	64763.05
802.5076	274.6601	65535	64755.15
802.6504	276.8759	65535	64757.6
802.7931	279.0913	65535	64756.85
802.9359	281.3061	65535	64752.1
803.0787	283.5204	65535	64753.45
803.2215	285.7341	65535	64750.6
803.3643	287.9473	65535	64733.5
803.5071	290.16	65535	64741.45
803.6499	292.3721	65535	64746.85
803.7928	294.5837	65535	64749.35
803.9357	296.7947	65535	64746.5
804.0786	299.0052	65535	64746.7
804.2215	301.2152	65535	64748.8
804.3644	303.4246	65535	64749.45
804.5074	305.6334	65535	64747.65
804.6503	307.8418	65535	64746.05
804.7933	310.0495	65535	64740.2
804.9363	312.2568	65535	64741.95
805.0793	314.4635	65535	64742.45
805.2223	316.6696	65535	64736.2
805.3653	318.8752	65535	64731.55
805.5084	321.0802	65535	64736.85
805.6514	323.2847	65535	64735.45
805.7945	325.4887	65535	64737.8
805.9376	327.692	65535	64737.2
806.0807	329.8949	65535	64733.35
806.2238	332.0972	65535	64732.2
806.367	334.2989	65535	64730.4
806.5101	336.5001	65535	64727.1
806.6533	338.7007	65535	64728.05
806.7965	340.9008	65535	64726.2
806.9397	343.1003	65535	64724.75
807.0829	345.2992	65535	64722.25
807.2261	347.4976	65535	64725.8
807.3693	349.6955	65535	64718.25
807.5126	351.8927	65535	64717.4
807.6559	354.0895	65535	64705.8
807.7991	356.2856	65535	64718.2
807.9424	358.4812	65535	64718.95
808.0857	360.6763	65535	64715.55
808.2291	362.8707	65535	64713.15
808.3724	365.0646	65535	64710.9
808.5158	367.258	65535	64708.8
808.6591	369.4508	65535	64703.05
808.8025	371.643	65535	64704.7
808.9459	373.8346	65535	64702.1
809.0893	376.0257	65535	64700.3
809.2327	378.2162	65535	64703.25
809.3762	380.4062	65535	64696.4
809.5196	382.5956	65535	64697.5
809.6631	384.7844	65535	64701.9
809.8066	386.9726	65535	64702.55
809.9501	389.1603	65535	64706.9
810.0936	391.3474	65535	64666.85
810.2371	393.5339	65535	64709.15
810.3806	395.7199	65535	64713.05
810.5241	397.9052	65535	64709.25
810.6677	400.09	65535	64709.8
810.8113	402.2743	65535	64711.1
810.9548	404.4579	65535	64709.1
811.0984	406.641	65535	64706.15
811.2421	408.8235	65535	64708.55
811.3857	411.0054	65535	64702.8
811.5293	413.1868	65535	64701.5
811.673	415.3675	65535	64700.85
811.8166	417.5477	65535	64697.2
811.9603	419.7273	65535	64694.1
812.104	421.9064	65535	64688.65
812.2477	424.0848	65535	64689.1
812.3914	426.2627	65535	64691.65
812.5351	428.4399	65535	64691
812.6788	430.6166	65535	64686.5
812.8226	432.7928	65535	64688.6
812.9663	434.9683	65535	64688.6
813.1101	437.1432	65535	64683.45
813.2539	439.3176	65535	64684.65
813.3977	441.4914	65535	64683.45
813.5415	443.6645	65535	64686.4
813.6853	445.8371	65535	64685.7
813.8291	448.0091	65535	64686.2
813.973	450.1806	65535	64681.9
814.1168	452.3514	65535	64682.5
814.2607	454.5216	65535	64677.25
814.4046	456.6913	65535	64681.95
814.5485	458.8603	65535	64681
814.6924	461.0288	65535	64685.2
814.8363	463.1967	65535	64683.25
814.9802	465.3639	65535	64682.2
815.1241	467.5306	65535	64680.7
815.2681	469.6967	65535	64684
815.412	471.8622	65535	64684
815.556	474.0271	65535	64682.5
815.7	476.1914	65535	64677.85
815.844	478.3551	65535	64677.2
815.988	480.5182	65535	64679.25
816.132	482.6807	65535	64677.15
816.276	484.8426	65535	64681.85
816.4201	487.0039	65535	64680.1
816.5641	489.1647	65535	64678
816.7082	491.3248	65535	64676.7
816.8522	493.4843	65535	64677.55
816.9963	495.6432	65535	64679
817.1404	497.8015	65535	64670.25
817.2845	499.9592	65535	64672.4
817.4286	502.1163	65535	64675.45
817.5727	504.2728	65535	64673.85
817.7168	506.4287	65535	64673.95
817.861	508.5839	65535	64674.9
818.0051	510.7386	65535	64673.9
818.1493	512.8927	65535	64668
818.2935	515.0461	65535	64670.95
818.4377	517.199	65535	64671.85
818.5818	519.3512	65535	64667.05
818.726	521.5029	65535	64661.75
818.8703	523.6539	65535	64667.55
819.0145	525.8043	65535	64665.8
819.1587	527.9541	65535	64664.25
819.303	530.1033	65535	64666
819.4472	532.2519	65535	64667.95
819.5915	534.3999	65535	64661.65
819.7357	536.5472	65535	64664.45
819.88	538.694	65535	64665.25
820.0243	540.8401	65535	64662.6
820.1686	542.9856	65535	64661.35
820.3129	545.1305	65535	64659.1
820.4572	547.2748	65535	64659.7
820.6016	549.4185	65535	64657.6
820.7459	551.5615	65535	64660.15
820.8902	553.704	65535	64658.35
821.0346	555.8458	65535	64665.5
821.1789	557.987	65535	64662.95
821.3233	560.1276	65535	64660.2
821.4677	562.2675	65535	64664.1
821.6121	564.4069	65535	64661.35
821.7565	566.5456	65535	64667.2
821.9009	568.6837	65535	64659.85
822.0453	570.8212	65535	64662.2
822.1897	572.958	65535	64658.4
822.3342	575.0942	65535	64661.45
822.4786	577.2299	65535	64662.35
822.6231	579.3648	65535	64662.55
822.7675	581.4992	65535	64665.85
822.912	583.6329	65535	64661.8
823.0565	585.766	65535	64663.85
823.201	587.8985	65535	64663.05
823.3454	590.0304	65535	64634.4
823.4899	592.1616	65535	64656.35
823.6345	594.2922	65535	64657.65
823.779	596.4222	65535	64657.3
823.9235	598.5515	65535	64654.3
824.068	600.6802	65535	64654.1
824.2126	602.8083	65535	64655.25
824.3571	604.9358	65535	64649.35
824.5017	607.0626	65535	64655.35
824.6462	609.1888	65535	64651.55
824.7908	611.3144	65535	64652.3
824.9354	613.4393	65535	64653.55
825.08	615.5636	65535	64654.2
825.2246	617.6873	65535	64656.55
825.3692	619.8103	65535	64652.35
825.5138	621.9327	65535	64650.75
825.6584	624.0544	65535	64654.8
825.803	626.1756	65535	64653
825.9477	628.2961	65535	64652.7
826.0923	630.4159	65535	64653
826.237	632.5351	65535	64650.7
826.3816	634.6537	65535	64652.5
826.5263	636.7716	65535	64649.65
826.6709	638.8889	65535	64648.8
826.8156	641.0056	65535	64649.05
826.9603	643.1216	65535	64647.45
827.105	645.237	65535	64648
827.2497	647.3518	65535	64649.45
827.3944	649.4659	65535	64651.65
827.5391	651.5793	65535	64649
827.6838	653.6922	65535	64648.5
827.8285	655.8043	65535	64653.35
827.9733	657.9159	65535	64647.5
828.118	660.0268	65535	64645.7
828.2627	662.137	65535	64649.9
828.4075	664.2466	65535	64643.15
828.5522	666.3556	65535	64646.1
828.697	668.4639	65535	64644.4
828.8418	670.5716	65535	64647.5
828.9865	672.6786	65535	64645.2
829.1313	674.785	65535	64644.25
829.2761	676.8907	65535	64646.15
829.4209	678.9958	65535	64644.15
829.5657	681.1002	65535	64646.5
829.7105	683.204	65535	64642.9
829.8553	685.3072	65535	64641.05
830.0001	687.4097	65535	64643.25
830.1449	689.5115	65535	64644.2
830.2898	691.6127	65535	64644.05
830.4346	693.7132	65535	64643.25
830.5794	695.8131	65535	64637.5
830.7243	697.9123	65535	64643.05
830.8691	700.0109	65535	64642.75
831.014	702.1089	65535	64640.7
831.1588	704.2061	65535	64644.25
831.3037	706.3028	65535	64639.25
831.4486	708.3987	65535	64642.65
831.5935	710.4941	65535	64641.65
831.7383	712.5887	65535	64638.3
831.8832	714.6827	65535	64637.35
832.0281	716.7761	65535	64641.3
832.173	718.8688	65535	64640.35
832.3179	720.9608	65535	64634.4
832.4628	723.0522	65535	64639.55
832.6077	725.1429	65535	64641.15
832.7527	727.233	65535	64640.35
832.8976	729.3224	65535	64641.7
833.0425	731.4112	65535	64636.05
833.1874	733.4993	65535	64637.2
833.3324	735.5867	65535	64639.6
833.4773	737.6735	65535	64634
833.6222	739.7596	65535	64635.9
833.7672	741.845	65535	64638.5
833.9122	743.9298	65535	64633.55
834.0571	746.014	65535	64637.55
834.2021	748.0974	65535	64637.85
834.347	750.1802	65535	64635.35
834.492	752.2624	65535	64637.8
834.637	754.3439	65535	64631.9
834.782	756.4247	65535	64626.3
834.9269	758.5048	65535	64636.2
835.0719	760.5843	65535	64637.4
835.2169	762.6631	65535	64634.6
835.3619	764.7413	65535	64638
835.5069	766.8188	65535	64633.45
835.6519	768.8956	65535	64632.1
835.7969	770.9718	65535	64635.35
835.9419	773.0473	65535	64637.95
836.0869	775.1221	65535	64633
836.232	777.1962	65535	64636.45
836.377	779.2697	65535	64633.5
836.522	781.3426	65535	64615.75
836.667	783.4147	65535	64634.55
836.8121	785.4862	65535	64635.95
836.9571	787.557	65535	64634.5
837.1021	789.6271	65535	64635.7
837.2472	791.6966	65535	64631.55
837.3922	793.7654	65535	64634.05
837.5373	795.8335	65535	64633.35
837.6823	797.901	65535	64635.95
837.8274	799.9678	65535	64634.95
837.9724	802.0339	65535	64637.75
838.1175	804.0993	65535	64623.4
838.2626	806.1641	65535	64632.65
838.4076	808.2282	65535	64634.4
838.5527	810.2916	65535	64633.25
838.6978	812.3544	65535	64636.3
838.8428	814.4164	65535	64632.25
838.9879	816.4778	65535	64632.9
839.133	818.5385	65535	64633.7
839.2781	820.5986	65535	64634.6
839.4232	822.658	65535	64630.75
839.5682	824.7166	65535	64631.25
839.7133	826.7747	65535	64634.25
839.8584	828.832	65535	64635.8
840.0035	830.8886	65535	64632.45
840.1486	832.9446	65535	64630.25
840.2937	834.9999	65535	64634.1
840.4388	837.0545	65535	64628.15
840.5839	839.1085	65535	64632.45
840.729	841.1618	65535	64631.55
840.8741	843.2143	65535	64631.15
841.0192	845.2662	65535	64631.75
841.1643	847.3175	65535	64634.3
841.3095	849.368	65535	64630.4
841.4546	851.4179	65535	64634.85
841.5997	853.467	65535	64631.9
841.7448	855.5155	65535	64632
841.8899	857.5633	65535	64634.65
842.0351	859.6105	65535	64629.9
842.1802	861.6569	65535	64633.35
842.3253	863.7027	65535	64629.45
842.4704	865.7478	65535	64631.45
842.6156	867.7922	65535	64632.3
842.7607	869.8359	65535	64630.7
842.9058	871.8789	65535	64631.4
843.0509	873.9212	65535	64601.4
843.1961	875.9629	65535	64633.3
843.3412	878.0039	65535	64630.8
843.4863	880.0441	65535	64632.1
843.6315	882.0837	65535	64628.85
843.7766	884.1226	65535	64627.2
843.9218	886.1609	65535	64633.6
844.0669	888.1984	65535	64630.15
844.212	890.2352	65535	64631.7
844.3572	892.2714	65535	64626.1
844.5023	894.3069	65535	64629.2
844.6475	896.3416	65535	64628
844.7926	898.3757	65535	64630.1
844.9377	900.4091	65535	64629.9
845.0829	902.4418	65535	64625.8
845.228	904.4739	65535	64626.3
845.3732	906.5052	65535	64628.25
845.5183	908.5358	65535	64631.45
845.6635	910.5658	65535	64628.4
845.8086	912.595	65535	64633.4
845.9538	914.6236	65535	64629.05
846.0989	916.6515	65535	64630.5
846.2441	918.6786	65535	64627.05
846.3892	920.7051	65535	64627
846.5344	922.7309	65535	64627.95
846.6795	924.756	65535	64628.5
846.8246	926.7804	65535	64625.85
846.9698	928.8041	65535	64628.6
847.1149	930.8272	65535	64629.45
847.2601	932.8495	65535	64626.35
847.4052	934.8711	65535	64627
847.5504	936.892	65535	64630.9
847.6955	938.9123	65535	64629.8
847.8407	940.9318	65535	64629.5
847.9858	942.9506	65535	64628.1
848.131	944.9688	65535	64629.35
848.2761	946.9862	65535	64628.85
848.4213	949.003	65535	64629.3
848.5664	951.019	65535	64629.05
848.7115	953.0344	65535	64629
848.8567	955.0491	65535	64628.25
849.0018	957.063	65535	64626.8
849.147	959.0763	65535	64628.05
849.2921	961.0888	65535	64623.75
849.4373	963.1007	65535	64628.65
849.5824	965.1119	65535	64629.95
849.7275	967.1223	65535	64630.45
849.8727	969.1321	65535	64630.4
850.0178	971.1412	65535	64627.65
850.1629	973.1495	65535	64628.1
850.3081	975.1572	65535	64581.45
850.4532	977.1641	65535	64626.4
850.5983	979.1704	65535	64627.05
850.7435	981.1759	65535	64624.95
850.8886	983.1808	65535	64631
851.0337	985.1849	65535	64619.5
851.1788	987.1884	65535	64627.4
851.324	989.1911	65535	64625.8
851.4691	991.1932	65535	64624.7
851.6142	993.1945	65535	64628.15
851.7593	995.1951	65535	64629.55
851.9045	997.1951	65535	64622.55
852.0496	999.1943	65535	64628.5
852.1947	1001.1928	65535	64627.65
852.3398	1003.1906	65535	64628
852.4849	1005.1877	65535	64628
852.63	1007.1841	65535	64629.15
852.7751	1009.1798	65535	64629.4
852.9202	1011.1748	65535	64627.5
853.0653	1013.1691	65535	64629.85
853.2104	1015.1627	65535	64627.7
853.3555	1017.1556	65535	64627.15
853.5006	1019.1477	65535	64629.25
853.6457	1021.1392	65535	64630.15
853.7908	1023.1299	65535	64628.3
853.9359	1025.12	65535	64628.75
854.081	1027.1093	65535	64632.6
854.2261	1029.0979	65535	64632.7
854.3712	1031.0859	65535	64632.4
854.5163	1033.0731	65535	64630.05
854.6613	1035.0596	65535	64631.1
854.8064	1037.0454	65535	64630.65
854.9515	1039.0304	65535	64628.65
855.0965	1041.0148	65535	64631.1
855.2416	1042.9985	65535	64626.9
855.3867	1044.9814	65535	64630.2
855.5317	1046.9636	65535	64625.1
855.6768	1048.9452	65535	64631.75
855.8219	1050.926	65535	64629.5
855.9669	1052.9061	65535	64627
856.112	1054.8855	65535	64629.1
856.257	1056.8642	65535	64629.05
856.4021	1058.8421	65535	64624.6
856.5471	1060.8194	65535	64627.2
856.6921	1062.7959	65535	64628.15
856.8372	1064.7717	65535	64628.85
856.9822	1066.7469	65535	64627.4
857.1272	1068.7213	65535	64627.65
857.2723	1070.695	65535	64629.6
857.4173	1072.6679	65535	64630.45
857.5623	1074.6402	65535	64630.15
857.7073	1076.6117	65535	64623.25
857.8523	1078.5826	65535	64627.65
857.9973	1080.5527	65535	64627.45
858.1423	1082.5221	65535	64629.5
858.2873	1084.4908	65535	64628.95
858.4323	1086.4587	65535	64627.2
858.5773	1088.426	65535	64628.4
858.7223	1090.3925	65535	64623.25
858.8673	1092.3584	65535	64630.5
859.0123	1094.3235	65535	64630.05
859.1573	1096.2879	65535	64628.75
859.3022	1098.2515	65535	64627.2
859.4472	1100.2145	65535	64631.95
859.5922	1102.1767	65535	64627.3
859.7371	1104.1382	65535	64628.95
859.8821	1106.099	65535	64626
860.027	1108.0591	65535	64628.15
860.172	1110.0185	65535	64629.3
860.3169	1111.9771	65535	64629.15
860.4619	1113.9351	65535	64629.35
860.6068	1115.8923	65535	64626.7
860.7517	1117.8488	65535	64624.45
860.8967	1119.8045	65535	64629.05
861.0416	1121.7596	65535	64627.95
861.1865	1123.7139	65535	64630.5
861.3314	1125.6675	65535	64626.9
861.4763	1127.6204	65535	64630.15
861.6212	1129.5726	65535	64626.25
861.7661	1131.524	65535	64629.25
861.911	1133.4748	65535	64627.4
862.0559	1135.4248	65535	64627.95
862.2008	1137.3741	65535	64631.6
862.3457	1139.3226	65535	64627.4
862.4905	1141.2705	65535	64629.15
862.6354	1143.2176	65535	64623.35
862.7803	1145.164	65535	64627
862.9251	1147.1097	65535	64628.3
863.07	1149.0546	65535	64629.35
863.2148	1150.9989	65535	64629.05
863.3597	1152.9424	65535	64626.15
863.5045	1154.8852	65535	64628.4
863.6493	1156.8272	65535	64629.25
863.7942	1158.7686	65535	64623.05
863.939	1160.7092	65535	64628.1
864.0838	1162.6491	65535	64626.7
864.2286	1164.5883	65535	64627.9
864.3734	1166.5267	65535	64626.9
864.5182	1168.4644	65535	64632.15
864.663	1170.4014	65535	64623.8
864.8078	1172.3377	65535	64629.1
864.9526	1174.2732	65535	64629.55
865.0974	1176.2081	65535	64628.75
865.2421	1178.1421	65535	64626.7
865.3869	1180.0755	65535	64630.45
865.5317	1182.0082	65535	64628.7
865.6764	1183.9401	65535	64627.65
865.8212	1185.8713	65535	64629.5
865.9659	1187.8017	65535	64629.75
866.1106	1189.7315	65535	64632.5
866.2554	1191.6605	65535	64602.85
866.4001	1193.5888	65535	64632.4
866.5448	1195.5163	65535	64633.5
866.6895	1197.4432	65535	64628.85
866.8342	1199.3693	65535	64631.2
866.9789	1201.2947	65535	64628.1
867.1236	1203.2193	65535	64629.55
867.2683	1205.1432	65535	64628.45
867.413	1207.0664	65535	64628.4
867.5576	1208.9889	65535	64629.1
867.7023	1210.9106	65535	64630.85
867.847	1212.8316	65535	64632.35
867.9916	1214.7519	65535	64622.3
868.1363	1216.6715	65535	64630.7
868.2809	1218.5903	65535	64629.4
868.4255	1220.5084	65535	64630.25
868.5701	1222.4257	65535	64630.05
868.7148	1224.3424	65535	64631.55
868.8594	1226.2583	65535	64627.8
869.004	1228.1735	65535	64628.15
869.1486	1230.0879	65535	64629.05
869.2932	1232.0016	65535	64630.75
869.4377	1233.9146	65535	64627.15
869.5823	1235.8269	65535	64630
869.7269	1237.7384	65535	64631.3
869.8715	1239.6492	65535	64629.7
870.016	1241.5592	65535	64628.5
870.1606	1243.4686	65535	64628.85
870.3051	1245.3772	65535	64630
870.4496	1247.285	65535	64631.95
870.5941	1249.1922	65535	64632.9
870.7387	1251.0986	65535	64631.45
870.8832	1253.0042	65535	64631.35
871.0277	1254.9092	65535	64630.8
871.1722	1256.8134	65535	64631.75
871.3167	1258.7169	65535	64629.65
871.4611	1260.6196	65535	64632.85
871.6056	1262.5216	65535	64630.9
871.7501	1264.4229	65535	64632.5
871.8945	1266.3234	65535	64630.85
872.039	1268.2232	65535	64630.25
872.1834	1270.1223	65535	64628.25
872.3278	1272.0207	65535	64629.15
872.4723	1273.9183	65535	64625.8
872.6167	1275.8151	65535	64630.1
872.7611	1277.7113	65535	64628.25
872.9055	1279.6067	65535	64628.85
873.0499	1281.5014	65535	64629.6
873.1943	1283.3953	65535	64626.05
873.3386	1285.2885	65535	64633.3
873.483	1287.181	65535	64629.55
873.6274	1289.0727	65535	64630.9
873.7717	1290.9637	65535	64632.05
873.9161	1292.854	65535	64629.55
874.0604	1294.7435	65535	64630.3
874.2047	1296.6323	65535	64630.9
874.349	1298.5204	65535	64623.85
874.4933	1300.4077	65535	64630.45
874.6376	1302.2943	65535	64631.55
874.7819	1304.1802	65535	64630.15
874.9262	1306.0653	65535	64630.1
875.0705	1307.9497	65535	64633.15
875.2147	1309.8333	65535	64633.9
875.359	1311.7162	65535	64633.4
875.5032	1313.5984	65535	64629
875.6475	1315.4798	65535	64618.6
875.7917	1317.3605	65535	64614
875.9359	1319.2405	65535	64628.95
876.0801	1321.1197	65535	64629.65
876.2243	1322.9982	65535	64627.85
876.3685	1324.876	65535	64629.35
876.5127	1326.753	65535	64631.5
876.6569	1328.6293	65535	64629.55
876.801	1330.5048	65535	64627.45
876.9452	1332.3796	65535	64629.45
877.0893	1334.2537	65535	64607.5
877.2335	1336.127	65535	64628.85
877.3776	1337.9996	65535	64629.6
877.5217	1339.8714	65535	64629.7
877.6658	1341.7426	65535	64582.8
877.8099	1343.6129	65535	64631.55
877.954	1345.4826	65535	64632.65
878.0981	1347.3515	65535	64629.6
878.2422	1349.2196	65535	64629.65
878.3862	1351.087	65535	64629.5
878.5303	1352.9537	65535	64631.35
878.6743	1354.8197	65535	64630.3
878.8184	1356.6849	65535	64632.4
878.9624	1358.5493	65535	64628.65
879.1064	1360.4131	65535	64630.7
879.2504	1362.276	65535	64631.9
879.3944	1364.1383	65535	64631.65
879.5384	1365.9998	65535	64626.05
879.6823	1367.8606	65535	64629.35
879.8263	1369.7206	65535	64629.1
879.9702	1371.5799	65535	64628.6
880.1142	1373.4384	65535	64631
880.2581	1375.2962	65535	64629.8
880.402	1377.1533	65535	64630.3
880.5459	1379.0096	65535	64628.65
880.6898	1380.8652	65535	64629.3
880.8337	1382.7201	65535	64630.35
880.9776	1384.5742	65535	64632.8
881.1215	1386.4275	65535	64631.25
881.2653	1388.2802	65535	64631.3
881.4092	1390.132	65535	64631.8
881.553	1391.9832	65535	64627.3
881.6968	1393.8336	65535	64632.3
881.8406	1395.6832	65535	64629.2
881.9844	1397.5322	65535	64630.95
882.1282	1399.3803	65535	64626.95
882.272	1401.2278	65535	64629.3
882.4158	1403.0745	65535	64631.65
882.5595	1404.9204	65535	64630.8
882.7033	1406.7656	65535	64631.05
882.847	1408.6101	65535	64629.25
882.9908	1410.4538	65535	64631.55
883.1345	1412.2968	65535	64630.55
883.2782	1414.139	65535	64632.55
883.4219	1415.9805	65535	64632.8
883.5656	1417.8213	65535	64623.45
883.7092	1419.6613	65535	64631.65
883.8529	1421.5006	65535	64631.5
883.9965	1423.3391	65535	64629.95
884.1402	1425.1769	65535	64630.05
884.2838	1427.0139	65535	64630.5
884.4274	1428.8502	65535	64628.8
884.571	1430.6858	65535	64632.05
884.7146	1432.5206	65535	64631.45
884.8582	1434.3547	65535	64629.4
885.0018	1436.188	65535	64633
885.1453	1438.0206	65535	64628.85
885.2889	1439.8524	65535	64632.7
885.4324	1441.6835	65535	64630.3
885.5759	1443.5139	65535	64626.65
885.7194	1445.3435	65535	64630.75
885.8629	1447.1724	65535	64630.2
886.0064	1449.0005	65535	64633.55
886.1499	1450.8279	65535	64631.95
886.2933	1452.6545	65535	64631.2
886.4368	1454.4804	65535	64634.1
886.5802	1456.3056	65535	64624.35
886.7237	1458.13	65535	64632.45
886.8671	1459.9536	65535	64632.05
887.0105	1461.7766	65535	64632.55
887.1539	1463.5987	65535	64633.05
887.2972	1465.4202	65535	64631.05
887.4406	1467.2409	65535	64629.75
887.584	1469.0608	65535	64632.3
887.7273	1470.88	65535	64631.7
887.8706	1472.6984	65535	64631.7
888.0139	1474.5161	65535	64628.7
888.1572	1476.3331	65535	64633.65
888.3005	1478.1493	65535	64632.55
888.4438	1479.9648	65535	64633.15
888.5871	1481.7795	65535	64631.05
888.7303	1483.5935	65535	64630.4
888.8736	1485.4067	65535	64629
889.0168	1487.2192	65535	64632.45
889.16	1489.031	65535	64630.2
889.3032	1490.842	65535	64631.75
889.4464	1492.6522	65535	64632.7
889.5896	1494.4618	65535	64630.65
889.7327	1496.2705	65535	64633.7
889.8759	1498.0785	65535	64631.85
890.019	1499.8858	65535	64628.9
890.1622	1501.6924	65535	64632.6
890.3053	1503.4981	65535	64630.45
890.4484	1505.3032	65535	64632.55
890.5914	1507.1075	65535	64632.35
890.7345	1508.911	65535	64635
890.8776	1510.7138	65535	64633.5
891.0206	1512.5159	65535	64633
891.1637	1514.3172	65535	64635.25
891.3067	1516.1178	65535	64636.1
891.4497	1517.9176	65535	64628.45
891.5927	1519.7166	65535	64634.65
891.7357	1521.515	65535	64625.65
891.8786	1523.3126	65535	64634.85
892.0216	1525.1094	65535	64631.2
892.1645	1526.9055	65535	64636.3
892.3074	1528.7008	65535	64633.55
892.4503	1530.4954	65535	64627.3
892.5932	1532.2893	65535	64635.85
892.7361	1534.0824	65535	64628.8
892.879	1535.8747	65535	64633.05
893.0218	1537.6663	65535	64632.3
893.1647	1539.4572	65535	64632.05
893.3075	1541.2473	65535	64633.3
893.4503	1543.0367	65535	64633.75
893.5931	1544.8253	65535	64629.7
893.7359	1546.6132	65535	64631.65
893.8787	1548.4003	65535	64625.65
894.0214	1550.1867	65535	64627.75
894.1642	1551.9723	65535	64630.8
894.3069	1553.7572	65535	64632.45
894.4496	1555.5414	65535	64634.5
894.5923	1557.3247	65535	64636.1
894.735	1559.1074	65535	64634.05
894.8777	1560.8893	65535	64635.45
895.0204	1562.6705	65535	64631.25
895.163	1564.4509	65535	64635.2
895.3056	1566.2305	65535	64635.7
895.4482	1568.0094	65535	64637.35
895.5908	1569.7876	65535	64638.05
895.7334	1571.565	65535	64636.05
895.876	1573.3417	65535	64637.75
896.0186	1575.1176	65535	64637.8
896.1611	1576.8928	65535	64636.9
896.3036	1578.6672	65535	64637.15
896.4461	1580.4409	65535	64639.55
896.5886	1582.2138	65535	64634.95
896.7311	1583.986	65535	64635.4
896.8736	1585.7575	65535	64634.35
897.0161	1587.5282	65535	64638.7
897.1585	1589.2981	65535	64636.8
897.3009	1591.0673	65535	64636.5
897.4433	1592.8358	65535	64636.6
897.5857	1594.6035	65535	64633.45
897.7281	1596.3704	65535	64636.5
897.8705	1598.1366	65535	64635
898.0128	1599.9021	65535	64637.9
898.1551	1601.6668	65535	64634.2
898.2975	1603.4308	65535	64635.45
898.4398	1605.194	65535	64629.9
898.5821	1606.9564	65535	64636.7
898.7243	1608.7182	65535	64635.55
898.8666	1610.4791	65535	64640.45
899.0088	1612.2394	65535	64639.25
899.1511	1613.9988	65535	64639.95
899.2933	1615.7576	65535	64638.65
899.4355	1617.5156	65535	64629.5
899.5776	1619.2728	65535	64636.15
899.7198	1621.0293	65535	64637.25
899.862	1622.785	65535	64634.1
900.0041	1624.54	65535	64634.55
900.1462	1626.2942	65535	64636.2
900.2883	1628.0477	65535	64636.85
900.4304	1629.8005	65530.7	64631.55
900.5725	1631.5525	65535	64638.35
900.7145	1633.3037	65526.95	64629.05
900.8566	1635.0542	65522.9	64626.2
900.9986	1636.804	65533.75	64636.4
901.1406	1638.553	65517.7	64538.1
901.2826	1640.3013	65523.95	64627.55
901.4245	1642.0488	65512.55	64616.05
901.5665	1643.7955	65522.3	64628.75
901.7085	1645.5416	65516	64618.65
901.8504	1647.2868	65456.15	64560.65
901.9923	1649.0313	65520.45	64624.05
902.1342	1650.7751	65498.45	64597.15
902.2761	1652.5181	65464	64568
902.4179	1654.2604	65476.65	64580.8
902.5598	1656.0019	65490.95	64598.15
902.7016	1657.7427	65481.25	64585.45
902.8434	1659.4828	65517.2	64618.5
902.9852	1661.222	65449.1	64553.1
903.127	1662.9606	65521.45	64626.1
903.2687	1664.6984	65435.45	64536.95
903.4105	1666.4354	65499.05	64601.55
903.5522	1668.1717	65362.9	64464.65
903.6939	1669.9072	64977.55	64078.4
903.8356	1671.642	65028.4	64130.15
903.9773	1673.3761	64931.9	64038
904.119	1675.1094	64825.85	63930.25
904.2606	1676.8419	64241.15	63344.25
904.4022	1678.5737	64588.8	63692.5
904.5439	1680.3048	64318.9	63421.55
904.6855	1682.0351	64038.5	63140.3
904.827	1683.7646	63747.95	62847.65
904.9686	1685.4934	64102.85	63207.7
905.1101	1687.2215	62636.4	61741.7
905.2517	1688.9488	63770	62873.85
905.3932	1690.6754	61468.6	60574.85
905.5347	1692.4012	62709.45	61813.75
905.6761	1694.1263	62945.45	62049.85
905.8176	1695.8506	61748.1	60853.55
905.9591	1697.5742	61954.85	61058.2
906.1005	1699.297	61697.75	60801.45
906.2419	1701.0191	61935.5	61039.55
906.3833	1702.7404	60690.95	59796.4
906.5246	1704.461	60316.25	59421.25
906.666	1706.1808	61031.8	60136.55
906.8073	1707.8999	60578	59682.5
906.9487	1709.6182	60233.65	59339.7
907.09	1711.3358	60158.15	59260.9
907.2313	1713.0527	59972.7	59082.6
907.3725	1714.7688	60041.05	59142.7
907.5138	1716.4841	58824.1	57925.85
907.655	1718.1987	59304.15	58401.45
907.7962	1719.9126	59008.3	58114.95
907.9374	1721.6257	59148.1	58251.35
908.0786	1723.338	59191.05	58295.9
908.2198	1725.0496	57966.8	57072.9
908.3609	1726.7605	58052.7	57157.3
908.502	1728.4706	57674.35	56779.25
908.6431	1730.18	57984.55	57087.45
908.7842	1731.8886	57584.35	56691.65
908.9253	1733.5964	57190.1	56274.25
909.0664	1735.3036	57710.6	56814.2
909.2074	1737.0099	57238.3	56344.2
909.3484	1738.7156	56740.25	55847.55
909.4894	1740.4204	56520.55	55624.3
909.6304	1742.1246	56643.75	55746.35
909.7714	1743.8279	56701.45	55807.1
909.9123	1745.5306	56613.35	55720.1
910.0532	1747.2325	55613.1	54718.95
910.1941	1748.9336	55642.65	54750.2
910.335	1750.634	55624.85	54727.1
910.4759	1752.3336	55872.65	54976.35
910.6168	1754.0325	55241.45	54350
910.7576	1755.7307	55709.95	54816.85
910.8984	1757.4281	54938.8	54046.4
911.0392	1759.1247	55384.75	54482.5
911.18	1760.8206	54628.45	53728
911.3208	1762.5158	54673.65	53775.55
911.4615	1764.2102	54679.2	53785.85
911.6022	1765.9039	54411.2	53519.45
911.7429	1767.5968	54286.25	53391.4
911.8836	1769.289	54024.15	53128.85
912.0243	1770.9804	54049.8	53152.85
912.1649	1772.6711	53873.7	52978.4
912.3056	1774.361	53686.15	52791.7
912.4462	1776.0502	53583.5	52688.65
912.5868	1777.7386	53289.6	52393
912.7274	1779.4263	53216.7	52323.05
912.8679	1781.1132	53219.8	52327.55
913.0084	1782.7994	52941	52046.95
913.149	1784.4849	53040	52146.6
913.2895	1786.1696	52433.1	51533.75
913.4299	1787.8535	52507.95	51615.1
913.5704	1789.5367	52519.8	51627.55
913.7108	1791.2192	52159.7	51267.6
913.8513	1792.9009	51987.2	51063
913.9917	1794.5818	52055.95	51159.95
914.132	1796.2621	51787.6	50894.3
914.2724	1797.9415	51608.2	50713.3
914.4128	1799.6202	51502.9	50607.6
914.5531	1801.2982	51459.95	50566.5
914.6934	1802.9755	51173.15	50276.9
914.8337	1804.6519	51102.55	50207.8
914.9739	1806.3277	51071.65	50179.7
915.1142	1808.0027	50550	49658.3
915.2544	1809.6769	50607.5	49714.5
915.3946	1811.3504	50619.3	49724.9
915.5348	1813.0231	50226.7	49333.5
915.675	1814.6951	50266.75	49373.85
915.8151	1816.3664	50188.95	49294.45
915.9553	1818.0369	50069.65	49175.6
916.0954	1819.7067	49867.95	48972.4
916.2355	1821.3757	49949.8	49055.05
916.3755	1823.044	49562.15	48670.9
916.5156	1824.7115	49445.7	48550.3
916.6556	1826.3783	49278.1	48385.75
916.7956	1828.0443	49139.3	48247.6
916.9356	1829.7096	49008.2	48112
917.0756	1831.3741	48895.4	47998
917.2155	1833.0379	48782.8	47889.15
917.3555	1834.701	48643.75	47750.45
917.4954	1836.3633	48524.25	47631.3
917.6353	1838.0248	48328.35	47432.1
917.7751	1839.6856	48269.1	47376.1
917.915	1841.3457	48126.75	47232.65
918.0548	1843.005	48086.15	47193.15
918.1946	1844.6636	48006.8	47112.7
918.3344	1846.3214	47798.65	46907.7
918.4742	1847.9785	47717.25	46825.4
918.6139	1849.6349	47596.35	46701.1
918.7537	1851.2904	47501.2	46598.55
918.8934	1852.9453	47310.5	46413.85
919.0331	1854.5994	47203.4	46309.15
919.1727	1856.2528	47284.1	46384.1
919.3124	1857.9054	47061.7	46168.95
919.452	1859.5572	46963.8	46072.75
919.5916	1861.2083	46821.1	45928
919.7312	1862.8587	46855.15	45965.7
919.8708	1864.5084	46593.45	45699.8
920.0103	1866.1572	46458.9	45565.5
920.1498	1867.8054	46251.45	45357.25
920.2893	1869.4528	46192.6	45299.55
920.4288	1871.0994	45997.6	45102.25
920.5683	1872.7453	45939.1	45043.2
920.7077	1874.3905	45851.5	44949.95
920.8471	1876.0349	45688.5	44794.4
920.9865	1877.6786	45714.6	44820.7
921.1259	1879.3215	45594.1	44701.85
921.2653	1880.9637	45455.95	44562.9
921.4046	1882.6051	45383.35	44489.45
921.5439	1884.2458	45225.65	44329.6
921.6832	1885.8858	44979.7	44085.4
921.8225	1887.525	44934.15	44040
921.9617	1889.1634	44742.6	43851.75
922.101	1890.8011	44521.05	43626.35
922.2402	1892.4381	44395.75	43502.95
922.3794	1894.0743	44373.25	43481.55
922.5185	1895.7098	44279.9	43386.4
922.6577	1897.3446	44126.75	43233.15
922.7968	1898.9786	43974.45	43078.25
922.9359	1900.6118	43912.5	43020.2
923.075	1902.2443	43636.8	42743.55
923.214	1903.8761	43587	42692.35
923.3531	1905.5071	43279.85	42386.85
923.4921	1907.1374	43211.45	42317.15
923.6311	1908.7669	43103.55	42209.95
923.77	1910.3957	43037.85	42144.65
923.909	1912.0237	42752.2	41858.95
924.0479	1913.651	42659.25	41767.05
924.1868	1915.2776	42504.2	41612.7
924.3257	1916.9034	42373.45	41481.3
924.4646	1918.5285	42115	41223.2
924.6034	1920.1528	41968.7	41074.25
924.7422	1921.7764	41905.8	41014.35
924.881	1923.3992	41730.05	40837.8
925.0198	1925.0213	41445.8	40552.65
925.1586	1926.6427	41305.6	40413.35
925.2973	1928.2633	41294.6	40282.6
925.436	1929.8832	41113.9	40219.2
925.5747	1931.5023	40874.3	39980.85
925.7134	1933.1207	40810.1	39916.85
925.852	1934.7383	40687.6	39795.6
925.9906	1936.3552	40505.85	39613.75
926.1292	1937.9714	40419.5	39528.75
926.2678	1939.5868	40259	39363.9
926.4064	1941.2015	40061.25	39167.8
926.5449	1942.8154	39883.9	38989.5
926.6834	1944.4286	39665.05	38769.9
926.8219	1946.041	39580.6	38670.6
926.9604	1947.6528	39300.5	38401.35
927.0988	1949.2637	39242.8	38350.45
927.2372	1950.8739	39095.85	38204.35
927.3756	1952.4834	39062.05	38168.5
927.514	1954.0921	38917.35	38024.4
927.6523	1955.7001	38797.65	37900.4
927.7907	1957.3074	38601.2	37709.8
927.929	1958.9139	38461.7	37569.35
928.0673	1960.5197	38344.25	37449.55
928.2055	1962.1247	38171.55	37279.65
928.3438	1963.729	37983.95	37093.55
928.482	1965.3325	37878.5	36962
928.6202	1966.9353	37695.25	36804.25
928.7584	1968.5374	37586.4	36690.4
928.8965	1970.1387	37491.55	36598.6
929.0346	1971.7393	37365.1	36473.25
929.1727	1973.3392	37227.4	36335.45
929.3108	1974.9383	37071.05	36180.25
929.4489	1976.5366	36928	36035.55
929.5869	1978.1342	36860.05	35967.8
929.7249	1979.7311	36765.25	35872.35
929.8629	1981.3273	36646.05	35752.95
930.0009	1982.9227	36498.1	35605.3
930.1388	1984.5173	36307.5	35414.7
930.2767	1986.1112	36179.8	35286.75
930.4146	1987.7044	36141.05	35251.9
930.5525	1989.2968	35961.2	35069.2
930.6904	1990.8885	35892.5	34998.1
930.8282	1992.4795	35799.45	34905.05
930.966	1994.0697	35642.45	34751.85
931.1038	1995.6592	35462.75	34571.05
931.2415	1997.2479	35368.8	34478.9
931.3793	1998.8359	35290	34399.2
931.517	2000.4232	35117.4	34226.35
931.6547	2002.0097	34984.6	34096.35
931.7923	2003.5955	34857.45	33966.55
931.93	2005.1805	34784	33892
932.0676	2006.7648	34667.35	33775.3
932.2052	2008.3484	34544.1	33651.65
932.3427	2009.9312	34601.5	33710.45
932.4803	2011.5133	34416.05	33525.5
932.6178	2013.0946	34320.2	33430.8
932.7553	2014.6752	34175.8	33286.9
932.8928	2016.2551	34105.9	33214.35
933.0302	2017.8342	33860.05	32969.1
933.1676	2019.4126	33783.65	32892.45
933.305	2020.9902	33582.65	32692.6
933.4424	2022.5672	33558.8	32665
933.5798	2024.1433	33423.25	32526.1
933.7171	2025.7188	33374.15	32484.15
933.8544	2027.2935	33253.7	32362.95
933.9917	2028.8674	33091.15	32199.7
934.129	2030.4406	33022.05	32135.7
934.2662	2032.0131	32887.9	31997.95
934.4034	2033.5849	32769.9	31873.5
934.5406	2035.1559	32666.9	31775.55
934.6778	2036.7261	32596	31704.35
934.8149	2038.2957	32459.6	31570.35
934.952	2039.8645	32395.65	31503.1
935.0891	2041.4325	32392.75	31499.9
935.2262	2042.9998	32255.25	31363.95
935.3632	2044.5664	32118.45	31225.2
935.5002	2046.1323	32034.8	31146.65
935.6372	2047.6974	31935.1	31045.25
935.7742	2049.2617	31841.8	30949.95
935.9111	2050.8254	31826.65	30915.15
936.048	2052.3883	31798	30904.8
936.1849	2053.9504	31648.85	30758.4
936.3218	2055.5118	31488.7	30597.6
936.4586	2057.0725	31362.85	30467.75
936.5955	2058.6325	31264.7	30373.65
936.7323	2060.1917	31164.4	30275.1
936.869	2061.7502	31071.55	30178.65
937.0058	2063.3079	30979.2	30087.95
937.1425	2064.8649	30887.6	29992.25
937.2792	2066.4212	30823.85	29931.2
937.4159	2067.9767	30710.95	29820.85
937.5525	2069.5315	30569.85	29680.8
937.6891	2071.0856	30404.65	29513.15
937.8257	2072.6389	30292.8	29399.35
937.9623	2074.1915	30122.35	29233.85
938.0989	2075.7433	29988.05	29095.95
938.2354	2077.2945	29964	29076.35
938.3719	2078.8448	29801.5	28911.6
938.5084	2080.3945	29726.85	28835.9
938.6448	2081.9434	29694.5	28803.65
938.7812	2083.4916	29602.4	28711.25
938.9176	2085.039	29480.3	28586.9
939.054	2086.5857	29419.15	28527.3
939.1903	2088.1317	29342.55	28451.05
939.3267	2089.677	29245.75	28354.25
939.463	2091.2215	29173.2	28281.25
939.5992	2092.7652	29032.9	28141.85
939.7355	2094.3083	28989.8	28096.15
939.8717	2095.8506	28886.2	27995.45
940.0079	2097.3921	28898.6	28007.95
940.1441	2098.933	28764.25	27874.25
940.2802	2100.4731	28691.8	27800.85
940.4163	2102.0124	28639.1	27740.2
940.5524	2103.5511	28543.5	27650.9
940.6885	2105.089	28494.5	27605.75
940.8245	2106.6261	28380.5	27489
940.9606	2108.1626	28316.45	27422.7
941.0965	2109.6983	28258.85	27339.7
941.2325	2111.2332	28071.6	27177.7
941.3684	2112.7675	28048.2	27156.35
941.5044	2114.301	27959.55	27066.6
941.6403	2115.8337	27931.7	27039.05
941.7761	2117.3657	27806.05	26916.05
941.912	2118.897	27756.25	26863.55
942.0478	2120.4276	27639.4	26743.9
942.1835	2121.9575	27527.25	26637
942.3193	2123.4866	27529.5	26621.8
942.455	2125.0149	27464.9	26571
942.5907	2126.5426	27247.25	26358.15
942.7264	2128.0695	27183.65	26288.95
942.8621	2129.5956	27119.2	26228.5
942.9977	2131.1211	27107.65	26212.1
943.1333	2132.6458	27037.35	26146.3
943.2689	2134.1698	26947.25	26052.85
943.4044	2135.693	26827.15	25931.85
943.54	2137.2155	26755.35	25862.45
943.6755	2138.7373	26699.35	25807.6
943.8109	2140.2584	26585.55	25695.3
943.9464	2141.7787	26482.15	25585.8
944.0818	2143.2983	26378.95	25486.1
944.2172	2144.8171	26244.15	25353.95
944.3526	2146.3353	26199.7	25304.4
944.4879	2147.8527	26057.55	25167.15
944.6232	2149.3693	26099.15	25206.6
944.7585	2150.8853	25979.7	25085.7
944.8938	2152.4005	25825.65	24934
945.029	2153.9149	25759.65	24865.95
945.1642	2155.4287	25675.95	24785.1
945.2994	2156.9417	25593.1	24701.35
945.4346	2158.454	25517.8	24622.85
945.5697	2159.9655	25447.15	24554.6
945.7048	2161.4764	25417.85	24525.95
945.8399	2162.9865	25317	24425.3
945.9749	2164.4958	25249.35	24358.05
946.1099	2166.0045	25176.5	24280.75
946.2449	2167.5124	25164.45	24274.15
946.3799	2169.0195	25096.15	24203.3
946.5148	2170.526	25021.2	24128.95
946.6498	2172.0317	24905.45	24014.15
946.7846	2173.5367	24818.2	23926.75
946.9195	2175.0409	24732.4	23842.55
947.0543	2176.5445	24761.6	23871.05
947.1891	2178.0473	24642.65	23750.8
947.3239	2179.5494	24516.25	23620.4
947.4587	2181.0507	24461.45	23567.7
947.5934	2182.5513	24354.75	23464.45
947.7281	2184.0512	24323.35	23431.1
947.8628	2185.5504	24195.6	23304.35
947.9974	2187.0488	24038.85	23147.4
948.132	2188.5465	23987.45	23095.7
948.2666	2190.0435	23868.1	22976.25
948.4012	2191.5397	23792.05	22899.7
948.5357	2193.0353	23759.05	22866.7
948.6702	2194.5301	23629.6	22737.25
948.8047	2196.0241	23548.25	22655.05
948.9392	2197.5175	23485.3	22594.35
949.0736	2199.0101	23372.7	22477.85
949.208	2200.502	23251.9	22362.8
949.3424	2201.9931	23150.9	22262.4
949.4767	2203.4835	23050.95	22159.55
949.611	2204.9733	23041.5	22144.4
949.7453	2206.4622	22984	22092.55
949.8796	2207.9505	22877.95	21982.05
950.0138	2209.438	22764.45	21875.1
950.148	2210.9248	22693.7	21799.6
950.2822	2212.4109	22621.5	21731.25
950.4164	2213.8962	22532.1	21639.2
950.5505	2215.3809	22473.05	21579.35
950.6846	2216.8648	22368.2	21477.45
950.8186	2218.3479	22322.25	21428.05
950.9527	2219.8304	22241.5	21347.15
951.0867	2221.3121	22125.75	21234.1
951.2207	2222.7931	22084.35	21192.35
951.3546	2224.2733	21988.4	21096.85
951.4886	2225.7529	21923.35	21031.35
951.6225	2227.2317	21815.6	20921.4
951.7563	2228.7098	21811	20922.3
951.8902	2230.1872	21666.65	20775.55
952.024	2231.6638	21674.85	20783.75
952.1578	2233.1397	21582.95	20686.45
952.2916	2234.6149	21462.2	20571.4
952.4253	2236.0894	21418.5	20527.05
952.559	2237.5632	21358.75	20457.6
952.6927	2239.0362	21261.95	20371.15
952.8263	2240.5085	21158.95	20267.7
952.9599	2241.9801	21094.95	20202.25
953.0935	2243.4509	21041.1	20149.85
953.2271	2244.921	20969.7	20074.35
953.3606	2246.3904	20881.75	19989.2
953.4941	2247.8591	20814.55	19924.55
953.6276	2249.3271	20751.9	19862.7
953.7611	2250.7943	20696.15	19804.7
953.8945	2252.2608	20583.1	19690.6
954.0279	2253.7266	20541.1	19651
954.1612	2255.1917	20452.45	19561
954.2946	2256.656	20373.5	19480.45
954.4279	2258.1197	20359.5	19467.8
954.5612	2259.5826	20278.9	19386.15
954.6944	2261.0447	20239.85	19349.5
954.8276	2262.5062	20101.15	19207.15
954.9608	2263.9669	20099.05	19205.25
955.094	2265.4269	20053.15	19162.95
955.2271	2266.8862	19993.8	19102.05
955.3602	2268.3448	19912.8	19021.05
955.4933	2269.8026	19850.85	18958.15
955.6264	2271.2598	19782	18890.95
955.7594	2272.7162	19714.05	18825.65
955.8924	2274.1719	19674.7	18781.25
956.0253	2275.6268	19612.6	18720.35
956.1583	2277.0811	19567.95	18677.15
956.2912	2278.5346	19510.85	18620.55
956.4241	2279.9874	19468.8	18577.7
956.5569	2281.4395	19434.5	18544.35
956.6897	2282.8908	19324.15	18427.1
956.8225	2284.3414	19271.35	18376.65
956.9553	2285.7914	19219.65	18326.65
957.088	2287.2406	19139.3	18245.55
957.2207	2288.689	19084.8	18193.55
957.3534	2290.1368	19012.45	18119.9
957.486	2291.5838	18958.6	18066
957.6186	2293.0302	18908.45	18016.45
957.7512	2294.4758	18828.8	17937.7
957.8838	2295.9206	18762.4	17869.15
958.0163	2297.3648	18701.95	17809.5
958.1488	2298.8082	18654.25	17760.45
958.2813	2300.251	18596.7	17705.9
958.4137	2301.693	18538.5	17643.75
958.5461	2303.1343	18515.45	17624.05
958.6785	2304.5748	18441.55	17551.25
958.8108	2306.0147	18348.1	17457
958.9432	2307.4538	18343.55	17450.45
959.0754	2308.8922	18254.6	17364.65
959.2077	2310.3299	18190.85	17299.55
959.3399	2311.7669	18135.2	17244.05
959.4721	2313.2031	18087.45	17194.9
959.6043	2314.6387	17978.4	17085.8
959.7365	2316.0735	17957.6	17066.85
959.8686	2317.5076	17857.55	16965.1
960.0006	2318.941	17820.6	16930
960.1327	2320.3737	17784.05	16891.1
960.2647	2321.8056	17712.15	16819.55
960.3967	2323.2369	17656.8	16765.95
960.5287	2324.6674	17615	16722
960.6606	2326.0972	17554	16659.85
960.7925	2327.5263	17474.6	16585.5
960.9244	2328.9547	17413.4	16521.1
961.0562	2330.3823	17369.25	16477.6
961.1881	2331.8092	17328.7	16434.25
961.3198	2333.2355	17250.35	16356.9
961.4516	2334.661	17220.15	16327.6
961.5833	2336.0858	17160.4	16264.45
961.715	2337.5098	17111.75	16222.05
961.8467	2338.9332	17066.95	16174.3
961.9783	2340.3558	16997	16099.8
962.1099	2341.7778	16968.55	16076.95
962.2415	2343.199	16888.2	15994.85
962.373	2344.6195	16807.9	15918.2
962.5045	2346.0393	16743.4	15850.95
962.636	2347.4583	16738.5	15845.2
962.7675	2348.8767	16699.35	15805.3
962.8989	2350.2943	16671	15778.7
963.0303	2351.7113	16623.8	15732.55
963.1617	2353.1275	16503.4	15611.05
963.293	2354.543	16449.8	15549.5
963.4243	2355.9578	16427.85	15536.15
963.5556	2357.3718	16333.3	15441.95
963.6868	2358.7852	16249.3	15356.3
963.818	2360.1978	16172.15	15280.75
963.9492	2361.6098	16154.45	15263
964.0803	2363.021	16119.6	15224.55
964.2114	2364.4315	16066.25	15176.5
964.3425	2365.8413	16022.7	15131.3
964.4736	2367.2504	15932.4	15042.3
964.6046	2368.6587	15880.8	14989.05
964.7356	2370.0664	15772.85	14883.7
964.8666	2371.4733	15739.2	14846.7
964.9975	2372.8795	15686.8	14795.45
965.1284	2374.285	15616.85	14723.5
965.2593	2375.6899	15519.9	14629.1
965.3901	2377.0939	15450.25	14559.8
965.5209	2378.4973	15412.5	14521.8
965.6517	2379.9	15366.15	14476.35
965.7825	2381.3019	15305.8	14415.6
965.9132	2382.7032	15248.4	14358.2
966.0439	2384.1037	15214.1	14327.2
966.1745	2385.5035	15154.8	14266
966.3051	2386.9027	15099.9	14209.7
966.4357	2388.3011	15061.8	14166.85
966.5663	2389.6987	14989.55	14098.05
966.6968	2391.0957	14959.3	14070.2
966.8273	2392.492	14885	13995.65
966.9578	2393.8876	14796.35	13908.15
967.0882	2395.2824	14734.3	13844.1
967.2186	2396.6765	14670.9	13781.1
967.349	2398.07	14574.4	13684.2
967.4793	2399.4627	14557.95	13666.55
967.6097	2400.8547	14518.85	13627.55
967.7399	2402.246	14465.05	13571.2
967.8702	2403.6366	14374.95	13481.4
968.0004	2405.0265	14320.9	13430.35
968.1306	2406.4156	14272.85	13376.8
968.2607	2407.8041	14210.1	13316.05
968.3909	2409.1918	14177.8	13283.1
968.521	2410.5789	14156.5	13265.55
968.651	2411.9652	14086.85	13195.85
968.781	2413.3508	14042.05	13152.7
968.911	2414.7358	13958	13066.75
969.041	2416.12	13887.6	12998.45
969.1709	2417.5035	13867.35	12976.6
969.3008	2418.8863	13803.1	12911.85
969.4307	2420.2684	13752	12860.5
969.5606	2421.6497	13699.05	12806.25
969.6904	2423.0304	13625.45	12734.9
969.8201	2424.4104	13594.75	12703.55
969.9499	2425.7896	13557	12664.3
970.0796	2427.1682	13519.25	12628.6
970.2093	2428.546	13464.8	12573.3
970.3389	2429.9232	13425.7	12534.3
970.4685	2431.2996	13405.55	12517.05
970.5981	2432.6753	13375.8	12484.65
970.7277	2434.0503	13310.25	12420.25
970.8572	2435.4246	13288.35	12399.4
970.9867	2436.7982	13225.4	12333.65
971.1161	2438.1711	13181.45	12291.2
971.2456	2439.5433	13146.3	12254.95
971.375	2440.9148	13070.7	12175.25
971.5043	2442.2856	12973.05	12080.95
971.6336	2443.6557	12984.25	12092.55
971.7629	2445.025	12916.7	12026.3
971.8922	2446.3937	12905.6	12016.05
972.0214	2447.7617	12817.15	11925.55
972.1506	2449.1289	12806.85	11914.65
972.2798	2450.4955	12767.55	11872.9
972.4089	2451.8613	12722.05	11832.35
972.538	2453.2265	12714.65	11824.85
972.6671	2454.5909	12686.45	11795.1
972.7961	2455.9546	12646.5	11756.05
972.9251	2457.3177	12554.5	11665.2
973.0541	2458.68	12530.1	11638.7
973.1831	2460.0416	12520.7	11627.9
973.312	2461.4025	12492	11601.2
973.4408	2462.7627	12481.95	11580.65
973.5697	2464.1222	12407.75	11518.7
973.6985	2465.4811	12377.65	11485.7
973.8273	2466.8392	12314.9	11422.95
973.956	2468.1966	12279.9	11388.2
974.0847	2469.5533	12283.85	11389.6
974.2134	2470.9093	12260.9	11371.25
974.3421	2472.2645	12182.25	11291.7
974.4707	2473.6191	12162.55	11273
974.5993	2474.973	12112.95	11223.2
974.7278	2476.3262	12075.95	11184.45
974.8563	2477.6787	12010.15	11119.4
974.9848	2479.0305	11938.35	11047.9
975.1132	2480.3816	11933.7	11039.8
975.2417	2481.7319	11854.9	10964.2
975.37	2483.0816	11809.65	10918.35
975.4984	2484.4306	11755.15	10862.65
975.6267	2485.7789	11724.95	10835.2
975.755	2487.1264	11694.3	10802.1
975.8833	2488.4733	11623.8	10734.55
976.0115	2489.8195	11584.75	10675.9
976.1397	2491.165	11569.3	10675.2
976.2678	2492.5097	11517.05	10624.8
976.3959	2493.8538	11449.1	10556.15
976.524	2495.1972	11399.25	10507.25
976.6521	2496.5398	11367.2	10474.3
976.7801	2497.8818	11326.45	10433.95
976.9081	2499.2231	11307.45	10417
977.036	2500.5637	11218.35	10324.15
977.164	2501.9035	11202.15	10310.8
977.2918	2503.2427	11145.95	10249.05
977.4197	2504.5812	11102.45	10211.05
977.5475	2505.919	11093.9	10202.1
977.6753	2507.256	11082.65	10192
977.8031	2508.5924	11005.6	10115.25
977.9308	2509.9281	10977.55	10081.4
978.0585	2511.2631	10917.55	10026.2
978.1861	2512.5974	10908.7	10018.2
978.3137	2513.9309	10882.15	9990.95
978.4413	2515.2638	10833.7	9917.55
978.5689	2516.596	10768	9877.25
978.6964	2517.9275	10752.8	9858.35
978.8239	2519.2583	10713.8	9819.75
978.9513	2520.5884	10664	9771.65
979.0788	2521.9178	10630.1	9739.95
979.2062	2523.2465	10588.55	9698.4
979.3335	2524.5745	10538.3	9648.2
979.4608	2525.9018	10517.6	9627.1
979.5881	2527.2284	10478.95	9587
979.7154	2528.5543	10458.4	9568.4
979.8426	2529.8796	10448.05	9559.05
979.9698	2531.2041	10410.45	9519.1
980.0969	2532.5279	10356.3	9468.6
980.224	2533.851	10332.8	9440.4
980.3511	2535.1735	10326.25	9435.9
980.4781	2536.4952	10296.85	9404.3
980.6052	2537.8163	10273.4	9381.6
980.7321	2539.1366	10236.25	9345.75
980.8591	2540.4562	10197.55	9305.35
980.986	2541.7752	10181.5	9290.85
981.1129	2543.0935	10156.9	9264.15
981.2397	2544.411	10107.6	9217.8
981.3665	2545.7279	10073.2	9183.95
981.4933	2547.0441	10081.9	9190.5
981.62	2548.3596	10066.6	9172.35
981.7467	2549.6744	10051.2	9160.8
981.8734	2550.9885	10002.65	9109.35
982.0001	2552.3019	9940	9052.25
982.1267	2553.6146	9926.25	9034.65
982.2532	2554.9266	9907.05	9014.9
982.3798	2556.2379	9874.7	8981.3
982.5063	2557.5485	9850.9	8958.6
982.6327	2558.8585	9809.7	8912.75
982.7592	2560.1677	9805.25	8910.55
982.8856	2561.4762	9785.1	8892.15
983.0119	2562.7841	9740.3	8845.05
983.1383	2564.0913	9721.65	8829.6
983.2646	2565.3977	9712.55	8821.6
983.3908	2566.7035	9694.35	8804
983.517	2568.0086	9683	8788.85
983.6432	2569.313	9623.9	8733.75
983.7694	2570.6167	9620.35	8726.2
983.8955	2571.9197	9588.8	8697.75
984.0216	2573.222	9573.25	8679.75
984.1476	2574.5236	9548.3	8654.8
984.2737	2575.8246	9527.5	8634.2
984.3996	2577.1248	9500.85	8606
984.5256	2578.4244	9484.65	8592.4
984.6515	2579.7232	9460.7	8569.95
984.7774	2581.0214	9484.7	8570
984.9032	2582.3189	9436.7	8545.15
985.029	2583.6157	9415.4	8518.6
985.1548	2584.9118	9391.85	8498.65
985.2806	2586.2072	9325.05	8435.7
985.4063	2587.5019	9304.4	8414.1
985.5319	2588.7959	9255.9	8365.45
985.6576	2590.0893	9267.3	8374.55
985.7832	2591.3819	9252.4	8361.55
985.9087	2592.6739	9191.15	8301.7
986.0343	2593.9652	9183	8290
986.1597	2595.2557	9157.4	8266.65
986.2852	2596.5456	9109.8	8215.25
986.4106	2597.8348	9084.55	8194.4
986.536	2599.1234	9039.05	8148.75
986.6614	2600.4112	9013.4	8121.95
986.7867	2601.6983	8993.9	8098.85
986.912	2602.9848	8951.15	8057.45
987.0372	2604.2705	8923.6	8024.8
987.1624	2605.5556	8897.7	8005.5
987.2876	2606.84	8871.05	7980.4
987.4128	2608.1237	8843.65	7952.65
987.5379	2609.4067	8809.7	7918.2
987.6629	2610.689	8778.7	7877.7
987.788	2611.9707	8752.7	7859
987.913	2613.2516	8707.5	7811.35
988.0379	2614.5319	8665.25	7774.1
988.1629	2615.8115	8651.05	7758.9
988.2878	2617.0903	8592.75	7698.9
988.4126	2618.3685	8557.7	7667
988.5375	2619.6461	8539.05	7648.1
988.6622	2620.9229	8486.05	7595.85
988.787	2622.199	8484.35	7591.4
988.9117	2623.4745	8461.4	7568.75
989.0364	2624.7493	8431.9	7540.75
989.161	2626.0234	8391.05	7498.9
989.2857	2627.2968	8358.4	7469.4
989.4102	2628.5695	8339.9	7447.5
989.5348	2629.8415	8293.25	7400.75
989.6593	2631.1128	8271.65	7379.4
989.7837	2632.3835	8223.1	7333.35
989.9082	2633.6535	8215.45	7323.15
990.0326	2634.9228	8159.3	7269.2
990.1569	2636.1914	8137	7245.25
990.2812	2637.4593	8114.3	7223.55
990.4055	2638.7265	8101.75	7210.5
990.5298	2639.9931	8072.2	7182.55
990.654	2641.259	8043.75	7150.9
990.7782	2642.5242	8032.7	7141.4
990.9023	2643.7887	7989.05	7097.5
991.0264	2645.0525	7969.35	7076.3
991.1505	2646.3156	7944.15	7052.55
991.2745	2647.5781	7917.2	7025.5
991.3985	2648.8398	7891.45	7000.1
991.5225	2650.1009	7873.85	6973.25
991.6464	2651.3613	7847.35	6957.5
991.7703	2652.6211	7801.9	6911.45
991.8942	2653.8801	7789.3	6900.45
992.018	2655.1385	7759.95	6865.3
992.1418	2656.3961	7745	6853.95
992.2655	2657.6531	7727	6835.9
992.3892	2658.9094	7716.4	6825.15
992.5129	2660.1651	7697.35	6809
992.6366	2661.42	7663	6773.4
992.7602	2662.6743	7638.5	6747.15
992.8837	2663.9279	7611.4	6722.9
993.0073	2665.1808	7598.4	6707.45
993.1307	2666.433	7590.5	6697.95
993.2542	2667.6846	7541.35	6648.95
993.3776	2668.9354	7543.1	6649.75
993.501	2670.1856	7517.7	6626.55
993.6244	2671.4351	7489.85	6599.75
993.7477	2672.6839	7487.7	6595.95
993.8709	2673.9321	7463	6574.35
993.9942	2675.1795	7424.9	6534.55
994.1174	2676.4263	7412.15	6519.85
994.2405	2677.6724	7380.45	6489.3
994.3637	2678.9179	7387.55	6496.9
994.4868	2680.1626	7344.9	6454
994.6098	2681.4067	7311.4	6419.5
994.7328	2682.6501	7297.55	6405.35
994.8558	2683.8928	7278	6385.55
994.9788	2685.1348	7248.85	6360.15
995.1017	2686.3761	7231.65	6342.4
995.2245	2687.6168	7203.3	6313.15
995.3474	2688.8568	7182.85	6289.95
995.4702	2690.0961	7143.55	6253.25
995.5929	2691.3348	7133.8	6241.9
995.7156	2692.5727	7111.75	6220.55
995.8383	2693.81	7070.3	6178.65
995.961	2695.0466	7066.65	6177.95
996.0836	2696.2826	7043.9	6152.8
996.2062	2697.5178	7026.9	6134.05
996.3287	2698.7524	6980.25	6090.6
996.4512	2699.9863	6990.25	6096.45
996.5737	2701.2195	6937.65	6049
996.6961	2702.452	6932.2	6039.95
996.8185	2703.6839	6922.15	6031.15
996.9408	2704.9151	6896.2	6006.15
997.0631	2706.1456	6872.8	5981.15
997.1854	2707.3755	6854.9	5963.35
997.3077	2708.6046	6859.7	5967.45
997.4299	2709.8331	6827.4	5935.45
997.552	2711.0609	6792.65	5901.8
997.6742	2712.2881	6782.25	5891.4
997.7963	2713.5145	6764.75	5873.15
997.9183	2714.7403	6762.45	5870.1
998.0403	2715.9654	6742.6	5851
998.1623	2717.1899	6754.35	5847.8
998.2842	2718.4136	6728.2	5835.15
998.4062	2719.6367	6730	5839.75
998.528	2720.8591	6696.9	5800.75
998.6498	2722.0809	6676.5	5786.5
998.7716	2723.3019	6666.5	5774
998.8934	2724.5223	6637.75	5747.5
999.0151	2725.7421	6609.45	5720.25
999.1368	2726.9611	6587.3	5693.65
999.2584	2728.1795	6569.2	5674.3
999.38	2729.3972	6543.85	5653.4
999.5016	2730.6142	6536.3	5632.7
999.6231	2731.8306	6482.2	5591.05
999.7446	2733.0462	6445.3	5553.05
999.8661	2734.2612	6409	5513.25
999.9875	2735.4756	6374	5480.95
1000.1089	2736.6892	6326.05	5433.8
1000.2302	2737.9022	6301	5411.1
1000.3515	2739.1145	6241.9	5349.8
1000.4728	2740.3262	6225.9	5329.25
1000.594	2741.5372	6203.5	5313.75
1000.7152	2742.7475	6165.5	5274.4
1000.8363	2743.9571	6144.2	5251.8
1000.9575	2745.1661	6127.95	5233.8
1001.0785	2746.3744	6102.5	5211.65
1001.1996	2747.582	6085.7	5194.75
1001.3206	2748.7889	6051.55	5157.7
1001.4415	2749.9952	6040	5149.15
1001.5625	2751.2008	5994.3	5103.9
1001.6833	2752.4057	5977	5085.15
1001.8042	2753.61	5955.75	5063.8
1001.925	2754.8136	5953.55	5060.8
1002.0458	2756.0165	5914.95	5025.2
1002.1665	2757.2188	5890.4	5001.25
1002.2872	2758.4204	5878.85	4987.9
1002.4078	2759.6213	5865.7	4972.15
1002.5285	2760.8215	5845.1	4951.55
1002.649	2762.0211	5825.8	4932.3
1002.7696	2763.22	5793.6	4900.55
1002.8901	2764.4182	5800.5	4908.75
1003.0106	2765.6158	5774.55	4883.95
1003.131	2766.8127	5739.9	4849.65
1003.2514	2768.009	5718.65	4825.85
1003.3717	2769.2045	5712.95	4819.85
1003.492	2770.3994	5706.45	4812.5
1003.6123	2771.5936	5662.3	4771
1003.7325	2772.7872	5633.5	4742.9
1003.8527	2773.9801	5616.35	4724.65
1003.9729	2775.1723	5617.5	4709.4
1004.093	2776.3639	5577	4686.1
1004.2131	2777.5548	5557.1	4666.45
1004.3331	2778.745	5550.35	4658.65
1004.4531	2779.9346	5536.75	4647.15
1004.5731	2781.1235	5512.8	4620.15
1004.693	2782.3117	5521.75	4629.5
1004.8129	2783.4992	5488.25	4597.85
1004.9328	2784.6861	5477.1	4586.25
1005.0526	2785.8723	5478.6	4586.35
1005.1723	2787.0579	5452.6	4561.95
1005.2921	2788.2428	5443.75	4553.25
1005.4118	2789.427	5419.25	4528.15
1005.5314	2790.6106	5424.95	4536.45
1005.651	2791.7935	5436.45	4546.25
1005.7706	2792.9757	5395.95	4506.05
1005.8902	2794.1573	5404.95	4512.55
1006.0097	2795.3382	5393.5	4502.25
1006.1291	2796.5184	5386.05	4495.95
1006.2485	2797.698	5377	4484.85
1006.3679	2798.8769	5400.5	4509.65
1006.4873	2800.0551	5379.95	4490.3
1006.6066	2801.2327	5390	4497.5
1006.7258	2802.4096	5368.85	4478.85
1006.8451	2803.5859	5390.75	4497.6
1006.9642	2804.7615	5368.75	4477.35
1007.0834	2805.9364	5390.65	4498.85
1007.2025	2807.1106	5402.7	4512.35
1007.3216	2808.2842	5406.55	4513.25
1007.4406	2809.4572	5416.75	4527.5
1007.5596	2810.6294	5448.75	4557.85
1007.6785	2811.801	5468.25	4579.8
1007.7975	2812.972	5503.4	4613
1007.9163	2814.1423	5533.8	4644.5
1008.0352	2815.3119	5568.55	4678.5
1008.154	2816.4808	5584.7	4694.3
1008.2727	2817.6491	5597.05	4704.3
1008.3914	2818.8167	5674.35	4785.1
1008.5101	2819.9837	5684.3	4789.3
1008.6288	2821.15	5710.25	4819.25
1008.7474	2822.3157	5741.15	4852.25
1008.8659	2823.4807	5797.7	4906.1
1008.9844	2824.645	5825.75	4932.85
1009.1029	2825.8086	5839.1	4949.65
1009.2214	2826.9716	5870.45	4979.55
1009.3398	2828.134	5907.7	5017.2
1009.4581	2829.2957	5930.35	5039.85
1009.5764	2830.4567	5943.1	5055.4
1009.6947	2831.617	5934.05	5043.4
1009.813	2832.7767	5946.4	5056.2
1009.9312	2833.9358	5940.35	5050.75
1010.0493	2835.0941	5924.45	5032.9
1010.1675	2836.2519	5909.7	5018.45
1010.2855	2837.4089	5876.5	4984
1010.4036	2838.5653	5858.45	4966.75
1010.5216	2839.7211	5853.2	4965.15
1010.6396	2840.8761	5855.75	4963.75
1010.7575	2842.0306	5863.8	4975.15
1010.8754	2843.1843	5896.95	5007.65
1010.9932	2844.3374	5937.1	5046.35
1011.111	2845.4899	5987.2	5096.9
1011.2288	2846.6417	6036.4	5145.7
1011.3465	2847.7928	6092.95	5202.25
1011.4642	2848.9433	6144.6	5256.1
1011.5818	2850.0931	6244.2	5353.4
1011.6995	2851.2422	6291.25	5401.35
1011.817	2852.3907	6344	5451.65
1011.9345	2853.5385	6407.75	5513.15
1012.052	2854.6857	6462.1	5548
1012.1695	2855.8323	6487.45	5598.1
1012.2869	2856.9781	6539.45	5650
1012.4042	2858.1233	6554.5	5662.9
1012.5216	2859.2679	6593.45	5703.25
1012.6389	2860.4118	6615.6	5724.2
1012.7561	2861.555	6647.35	5751.9
1012.8733	2862.6976	6646.25	5753.65
1012.9905	2863.8395	6659.25	5770.6
1013.1076	2864.9808	6708.2	5817.75
1013.2247	2866.1214	6695	5805.95
1013.3417	2867.2614	6719.35	5829.35
1013.4587	2868.4007	6700.15	5809.4
1013.5757	2869.5393	6679.05	5788.15
1013.6926	2870.6773	6679.55	5785.5
1013.8095	2871.8146	6684.45	5791.3
1013.9263	2872.9513	6684.35	5792.5
1014.0431	2874.0874	6648.8	5757.25
1014.1599	2875.2227	6633.15	5742.7
1014.2766	2876.3574	6610.9	5721.8
1014.3933	2877.4915	6557.5	5666.75
1014.51	2878.6249	6527.85	5636.85
1014.6266	2879.7577	6483.35	5591.35
1014.7431	2880.8898	6456.2	5556.3
1014.8596	2882.0212	6417.9	5525.55
1014.9761	2883.152	6398.55	5508.85
1015.0925	2884.2821	6350.75	5461.65
1015.2089	2885.4116	6352.85	5462.6
1015.3253	2886.5405	6342.55	5453.5
1015.4416	2887.6686	6349.7	5455.2
1015.5579	2888.7962	6324.85	5436.1
1015.6741	2889.923	6323.15	5433.75
1015.7903	2891.0493	6321.4	5430.7
1015.9065	2892.1748	6303.7	5413.45
1016.0226	2893.2997	6296.1	5404.15
1016.1387	2894.424	6304.5	5414.45
1016.2547	2895.5476	6307.8	5416.7
1016.3707	2896.6706	6336.15	5445.9
1016.4866	2897.7929	6339.2	5448
1016.6025	2898.9145	6346.15	5455.65
1016.7184	2900.0355	6375.3	5484.1
1016.8342	2901.1559	6372.1	5482.05
1016.95	2902.2756	6413.15	5523.2
1017.0658	2903.3946	6410.65	5520.7
1017.1815	2904.513	6426.9	5531.75
1017.2971	2905.6308	6438.75	5546.45
1017.4127	2906.7479	6452.9	5562
1017.5283	2907.8643	6457.95	5565.35
1017.6439	2908.9801	6465.1	5574.5
1017.7594	2910.0953	6465.5	5574.55
1017.8748	2911.2098	6442.9	5550.05
1017.9902	2912.3236	6429.65	5532.9
1018.1056	2913.4368	6417.75	5524.2
1018.2209	2914.5494	6384.1	5493.9
1018.3362	2915.6613	6331.55	5436.65
1018.4515	2916.7725	6313.8	5421.1
1018.5667	2917.8831	6273.6	5383.1
1018.6819	2918.9931	6232.1	5338.1
1018.797	2920.1024	6194.4	5304.95
1018.9121	2921.211	6183.85	5292.3
1019.0271	2922.319	6143.85	5252.85
1019.1421	2923.4264	6121.4	5233.3
1019.2571	2924.5331	6088	5199.1
1019.372	2925.6391	6069.2	5180.65
1019.4869	2926.7445	6042.3	5154.5
1019.6017	2927.8493	6025.6	5135.55
1019.7165	2928.9534	6016.5	5127.25
1019.8313	2930.0569	5989.45	5095.25
1019.946	2931.1597	5989.85	5097.5
1020.0606	2932.2619	5971.8	5081.55
1020.1753	2933.3634	5948.4	5059.1
1020.2899	2934.4643	5939	5043
1020.4044	2935.5645	5894.45	4996.7
1020.5189	2936.6641	5874.8	4982.45
1020.6334	2937.763	5803.2	4914.2
1020.7478	2938.8613	5737.3	4848.9
1020.8622	2939.959	5676.8	4782.55
1020.9765	2941.056	5575.75	4686.75
1021.0908	2942.1523	5490.45	4602.05
1021.2051	2943.248	5399.95	4508.1
1021.3193	2944.3431	5298.85	4410.2
1021.4334	2945.4375	5184.2	4295.95
1021.5476	2946.5313	5082.35	4192.25
1021.6617	2947.6244	4951.7	4061.45
1021.7757	2948.7169	4874.1	3983.15
1021.8897	2949.8087	4773.55	3884.55
1022.0037	2950.8999	4655.7	3765.85
1022.1176	2951.9904	4551.45	3660.3
1022.2315	2953.0803	4462.7	3571.8
1022.3453	2954.1696	4403.65	3513.1
1022.4591	2955.2582	4343.1	3455.1
1022.5728	2956.3462	4286.75	3399.35
1022.6865	2957.4335	4249.9	3360.3
1022.8002	2958.5202	4198.3	3305.65
1022.9138	2959.6062	4154.3	3264.1
1023.0274	2960.6916	4126.7	3235
1023.141	2961.7764	4111.85	3221.7
1023.2545	2962.8605	4069.5	3178.75
1023.3679	2963.9439	4049.1	3159.45
1023.4813	2965.0267	4026.4	3135.7
1023.5947	2966.1089	4023.1	3108.8
1023.708	2967.1905	3994.55	3104.6
1023.8213	2968.2714	3984.3	3095
1023.9346	2969.3516	3974.7	3085.5
1024.0478	2970.4312	3977	3077.7
1024.1609	2971.5102	3953.95	3063.7
1024.274	2972.5885	3937.95	3048.6
1024.3871	2973.6662	3942.15	3048
1024.5002	2974.7432	3914.25	3025.65
1024.6132	2975.8196	3904.65	3015.1
1024.7261	2976.8954	3880.4	2991.85
1024.839	2977.9705	3849.9	2961.25
1024.9519	2979.045	3854.15	2964.85
1025.0647	2980.1188	3827.75	2939.15
1025.1775	2981.192	3790.65	2903.65
1025.2902	2982.2645	3755.85	2864.3
1025.4029	2983.3364	3720.8	2831.9
1025.5156	2984.4077	3693.9	2805.9
1025.6282	2985.4783	3663.5	2766.95
1025.7407	2986.5483	3612.1	2723.45
1025.8532	2987.6177	3584.35	2697
1025.9657	2988.6864	3534.25	2644.75
1026.0782	2989.7545	3505.05	2613.25
1026.1906	2990.8219	3469.35	2577.95
1026.3029	2991.8887	3413.45	2523.35
1026.4152	2992.9548	3389.05	2497.45
1026.5275	2994.0204	3332.75	2444.8
1026.6397	2995.0852	3312.65	2425.05
1026.7519	2996.1495	3274.25	2382.5
1026.864	2997.2131	3245.65	2357.15
1026.9761	2998.276	3218.7	2328.75
1027.0882	2999.3383	3194.9	2305.3
1027.2002	3000.4	3169.15	2278.8
1027.3122	3001.4611	3142.25	2252.35
1027.4241	3002.5215	3129.7	2239.65
1027.536	3003.5812	3116.1	2225.85
1027.6478	3004.6404	3092.85	2201.3
1027.7596	3005.6989	3071.35	2181
1027.8714	3006.7567	3061.3	2169.35
1027.9831	3007.8139	3050.5	2141.2
1028.0947	3008.8705	3012.6	2123.25
1028.2064	3009.9264	3010.1	2118.15
1028.3179	3010.9818	3002.1	2113.9
1028.4295	3012.0364	2988.4	2098.3
1028.541	3013.0905	2986.95	2096.55
1028.6524	3014.1439	2978.75	2088
1028.7638	3015.1966	2978.3	2090
1028.8752	3016.2487	2978.15	2089.9
1028.9865	3017.3002	2957.5	2061.95
1029.0978	3018.3511	2946.95	2059.25
1029.209	3019.4013	2944.2	2054.95
1029.3202	3020.4509	2929.1	2041.4
1029.4314	3021.4998	2928.65	2038.75
1029.5425	3022.5481	2921	2032.35
1029.6535	3023.5958	2907.75	2018.05
1029.7645	3024.6428	2907.25	2016.95
1029.8755	3025.6892	2912.95	2023.3
1029.9864	3026.735	2903.45	2013.3
1030.0973	3027.7802	2889.9	1999.05
1030.2082	3028.8247	2885.95	1998.65
1030.319	3029.8685	2878.9	1990.75
1030.4297	3030.9118	2858.85	1969.35
1030.5404	3031.9544	2880.65	1993.95
1030.6511	3032.9963	2878.4	1990.25
1030.7617	3034.0376	2865.9	1975.4
1030.8723	3035.0783	2860.05	1968.05
1030.9829	3036.1184	2865.45	1975.8
1031.0934	3037.1578	2860.9	1972.25
1031.2038	3038.1966	2851.9	1961.35
1031.3142	3039.2348	2848.05	1959.5
1031.4246	3040.2723	2855.15	1957.9
1031.5349	3041.3092	2831.35	1941.4
1031.6452	3042.3455	2832.35	1944.4
1031.7554	3043.3811	2812.4	1923.15
1031.8656	3044.4161	2796.9	1907.6
1031.9758	3045.4505	2785.75	1897.35
1032.0859	3046.4842	2784.2	1893.95
1032.1959	3047.5173	2766.4	1878.3
1032.3059	3048.5498	2760.2	1870.2
1032.4159	3049.5816	2751.75	1862.4
1032.5258	3050.6128	2738.75	1848.95
1032.6357	3051.6434	2732.85	1841.9
1032.7455	3052.6734	2715.05	1824.95
1032.8553	3053.7027	2702.45	1812.4
1032.9651	3054.7314	2696.85	1807.15
1033.0748	3055.7594	2674.7	1785.95
1033.1845	3056.7868	2663.05	1773.25
1033.2941	3057.8136	2664.15	1776.05
1033.4037	3058.8398	2642.45	1753.5
1033.5132	3059.8653	2633.9	1745.15
1033.6227	3060.8902	2629.85	1740.05
1033.7321	3061.9145	2606	1717.55
1033.8415	3062.9381	2601.25	1711.95
1033.9509	3063.9612	2601.95	1697.35
1034.0602	3064.9835	2572.5	1682.5
1034.1694	3066.0053	2575.5	1684.6
1034.2787	3067.0264	2561.6	1673.2
1034.3878	3068.0469	2536.7	1648.05
1034.497	3069.0668	2536.9	1644.45
1034.6061	3070.086	2517.35	1627.75
1034.7151	3071.1046	2513.75	1626.15
1034.8241	3072.1226	2501.45	1610.55
1034.9331	3073.1399	2487.25	1597.7
1035.042	3074.1567	2463.45	1574.6
1035.1508	3075.1727	2444.15	1552.8
1035.2597	3076.1882	2426.7	1538.5
1035.3684	3077.203	2415.05	1525.7
1035.4772	3078.2173	2412.15	1522.85
1035.5859	3079.2308	2398.8	1505.4
1035.6945	3080.2438	2390.2	1498.35
1035.8031	3081.2561	2374.7	1485.15
1035.9117	3082.2678	2364.95	1476.75
1036.0202	3083.2789	2346.55	1456.9
1036.1286	3084.2893	2343.35	1454.55
1036.2371	3085.2991	2328	1438.5
1036.3454	3086.3083	2321.65	1428.15
1036.4538	3087.3169	2304.35	1413.2
1036.562	3088.3248	2296.5	1405.1
1036.6703	3089.3321	2292.15	1399
1036.7785	3090.3388	2269.1	1377.05
1036.8866	3091.3449	2258.4	1368.9
1036.9948	3092.3503	2260.35	1369.95
1037.1028	3093.3551	2249.85	1363.05
1037.2108	3094.3593	2239.15	1353.7
1037.3188	3095.3629	2222.55	1333.65
1037.4267	3096.3658	2225.2	1334.3
1037.5346	3097.3681	2214.1	1325.85
1037.6425	3098.3698	2205.45	1312.55
1037.7503	3099.3708	2194	1299.5
1037.858	3100.3713	2191.7	1304.7
1037.9657	3101.3711	2176.25	1286.1
1038.0734	3102.3702	2294.15	1268
1038.181	3103.3688	2183.2	1293.5
1038.2886	3104.3667	2157.1	1271.25
1038.3961	3105.364	2145.35	1258.75
1038.5036	3106.3607	2140.6	1248.55
1038.611	3107.3568	2135.3	1244.05
1038.7184	3108.3522	2126.55	1238.75
1038.8257	3109.347	2118.65	1227.5
1038.933	3110.3412	2117.55	1224.3
1039.0403	3111.3348	2097.85	1208.2
1039.1475	3112.3277	2101.8	1213.05
1039.2547	3113.32	2087.4	1200.8
1039.3618	3114.3117	2074.75	1186
1039.4689	3115.3028	2074.35	1184.8
1039.5759	3116.2932	2071.85	1181.65
1039.6829	3117.2831	2064.15	1169.85
1039.7898	3118.2723	2055.1	1163.25
1039.8967	3119.2608	2048.15	1158.35
1040.0035	3120.2488	2041.45	1151.75
1040.1103	3121.2361	2027.75	1138.55
1040.2171	3122.2229	2024.5	1136.3
1040.3238	3123.209	2016.4	1125.75
1040.4305	3124.1944	2017.5	1128.8
1040.5371	3125.1793	2004.15	1113.3
1040.6437	3126.1635	2004.8	1117.85
1040.7502	3127.1471	1993.15	1103.8
1040.8567	3128.1301	1989.75	1099.8
1040.9631	3129.1125	1989	1100.85
1041.0695	3130.0942	1984.15	1094
1041.1759	3131.0753	1983.55	1087.25
1041.2822	3132.0558	1967.8	1076.2
1041.3884	3133.0357	1965.9	1074.6
1041.4946	3134.015	1965.25	1074.1
1041.6008	3134.9936	1952.65	1062.9
1041.7069	3135.9716	1964.8	1052.95
1041.813	3136.949	1938.95	1049.1
1041.919	3137.9258	1947.2	1051.95
1042.025	3138.902	1938	1042.1
1042.1309	3139.8775	1942.4	1054.8
1042.2368	3140.8524	1933.4	1045.8
1042.3427	3141.8267	1922.9	1032.5
1042.4485	3142.8004	1922.1	1033.15
1042.5542	3143.7735	1925.9	1029.5
1042.6599	3144.7459	1910.25	1022
1042.7656	3145.7178	1903.3	1014.45
1042.8712	3146.689	1896.35	1008.2
1042.9768	3147.6596	1878.5	989.35
1043.0823	3148.6295	1886.2	996.25
1043.1878	3149.5989	1880.05	990.4
1043.2932	3150.5676	1877.3	987.15
1043.3986	3151.5357	1861.2	973.6
1043.5039	3152.5032	1870.1	981.4
1043.6092	3153.4701	1845.45	958.2
1043.7145	3154.4364	1857.6	967
1043.8197	3155.402	1842.2	954.35
1043.9248	3156.367	1840.65	949.25
1044.03	3157.3315	1873.7	941.4
1044.135	3158.2952	1828.9	938.4
1044.24	3159.2584	1823.7	935.25
1044.345	3160.221	1817.4	928
1044.4499	3161.1829	1811.7	923.45
1044.5548	3162.1442	1809.75	921.65
1044.6596	3163.105	1801.35	913.3
1044.7644	3164.065	1797.2	908.8
1044.8692	3165.0245	1784.8	892.25
1044.9739	3165.9834	1784.85	895.25
1045.0785	3166.9416	1783.6	894.2
1045.1831	3167.8993	1783.1	892.65
1045.2877	3168.8563	1774.9	887.35
1045.3922	3169.8127	1765.9	877.85
1045.4966	3170.7684	1764.9	876.3
1045.6011	3171.7236	1754.5	864.05
1045.7054	3172.6782	1751.15	862.15
1045.8098	3173.6321	1748.4	858.55
1045.914	3174.5854	1742.85	848.35
1046.0183	3175.5381	1732.75	842.9
1046.1224	3176.4902	1739.45	850.1
1046.2266	3177.4417	1726.3	836.8
1046.3307	3178.3926	1727	838.9
1046.4347	3179.3428	1724.65	836.6
1046.5387	3180.2924	1712.65	825.25
1046.6427	3181.2415	1708.95	821.25
1046.7466	3182.1899	1703.85	813.8
1046.8504	3183.1377	1706.4	818.65
1046.9542	3184.0848	1702.85	810.2
1047.058	3185.0314	1688.3	798.2
1047.1617	3185.9773	1689.15	799.8
1047.2654	3186.9227	1689.3	799.3
1047.369	3187.8674	1678.3	788.25
1047.4726	3188.8115	1678.65	785.4
1047.5761	3189.755	1675.5	787.1
1047.6796	3190.6979	1674.15	785.75
1047.783	3191.6402	1659.05	771.45
1047.8864	3192.5818	1662.85	775.8
1047.9898	3193.5229	1679.9	767.25
1048.0931	3194.4633	1658.15	768.5
1048.1963	3195.4031	1646	756.45
1048.2995	3196.3423	1638.4	748.15
1048.4027	3197.2809	1642.45	753.75
1048.5058	3198.2189	1639.5	749.65
1048.6089	3199.1563	1646.75	752.9
1048.7119	3200.0931	1632.3	743.3
1048.8148	3201.0292	1617.25	729.5
1048.9178	3201.9648	1617.2	730.85
1049.0206	3202.8997	1618.55	727.3
1049.1235	3203.834	1615.05	725.4
1049.2262	3204.7677	1617	728.4
1049.329	3205.7008	1603.75	713.15
1049.4317	3206.6333	1603.75	717.45
1049.5343	3207.5652	1601.9	710.55
1049.6369	3208.4964	1594.35	703.6
1049.7394	3209.4271	1584.35	697.5
1049.8419	3210.3571	1596.05	707.75
1049.9444	3211.2865	1582.25	693.15
1050.0468	3212.2154	1584.2	693.95
1050.1491	3213.1436	1575.15	683.35
1050.2514	3214.0712	1577.7	683
1050.3537	3214.9982	1570.75	680.4
1050.4559	3215.9246	1568.3	680.95
1050.5581	3216.8503	1562.75	673.3
1050.6602	3217.7755	1565.7	675.8
1050.7623	3218.7001	1561.3	672.65
1050.8643	3219.624	1559.1	668.9
1050.9663	3220.5473	1548.6	660.1
1051.0682	3221.4701	1546.6	657.25
1051.1701	3222.3922	1544	654.25
1051.2719	3223.3137	1542.15	653.65
1051.3737	3224.2346	1537.35	648.65
1051.4754	3225.1549	1533	645.1
1051.5771	3226.0746	1533.2	645.45
1051.6788	3226.9937	1521.25	630.7
1051.7804	3227.9121	1517.6	630.2
1051.8819	3228.83	1522.15	632.45
1051.9834	3229.7473	1513.95	624.55
1052.0849	3230.6639	1512.45	622.3
1052.1863	3231.5799	1500.4	612.45
1052.2876	3232.4954	1500.7	612.1
1052.3889	3233.4102	1501.1	612.05
1052.4902	3234.3244	1497.8	609.15
1052.5914	3235.238	1492.5	604.25
1052.6926	3236.151	1507.25	595.15
1052.7937	3237.0634	1494.15	605.1
1052.8948	3237.9752	1483	596
1052.9958	3238.8864	1485.1	597.4
1053.0968	3239.797	1478.55	590.35
1053.1977	3240.7069	1478.7	590.55
1053.2986	3241.6163	1476.45	583.75
1053.3994	3242.5251	1463.9	575.6
1053.5002	3243.4332	1461.35	574.1
1053.6009	3244.3408	1450.85	562.7
1053.7016	3245.2477	1456.25	569.45
1053.8022	3246.154	1455.5	565.65
1053.9028	3247.0598	1452.15	563.05
1054.0034	3247.9649	1438.7	549.45
1054.1039	3248.8694	1445.65	558.25
1054.2043	3249.7733	1438.15	550
1054.3047	3250.6766	1435.95	548
1054.4051	3251.5793	1431.1	541.65
1054.5054	3252.4814	1428.85	539.9
1054.6056	3253.3829	1418.4	531.7
1054.7058	3254.2838	1416	528.85
1054.806	3255.1841	1426.3	537.7
1054.9061	3256.0838	1413.95	524.1
1055.0061	3256.9829	1404.05	513.6
1055.1062	3257.8814	1405.55	516.9
1055.2061	3258.7792	1398.2	508.5
1055.306	3259.6765	1396.1	507.45
1055.4059	3260.5731	1390.55	504.25
1055.5057	3261.4692	1386.8	498.55
1055.6055	3262.3647	1378	487.3
1055.7052	3263.2595	1375.45	486.95
1055.8049	3264.1538	1361.95	473.5
1055.9045	3265.0474	1361.2	471.65
1056.0041	3265.9404	1346.15	457.95
1056.1036	3266.8329	1343.45	455.1
1056.2031	3267.7247	1339.65	442.55
1056.3025	3268.616	1327.1	438.85
1056.4019	3269.5066	1314.7	425.85
1056.5013	3270.3966	1306.35	417.15
1056.6005	3271.286	1289.95	403.7
