Software Version:	3.9.2.0
Unit SN:	10000200
Spectrometer SN:	6960
Date:	3/6/2024 10:53:05 AM
Data Line Index:	25
Spectral Points:	2048
Integration time (ms):	125
Averages:	20
Delay (ms):	30
Sequence Number:	1
Processing:	dark subtract
Laser Power (mW):	300
Laser Current (mA):	823
Laser Diode Temp (C):	25.1
Laser Case Temp (C):	27.8
System Temp (C):	27.6
Spectrometer Temp (C):	25.1
CCD Temp (C):	0.005
Secondary Temp (C):	20.004
Heatsink Temp (C):	23.31
CCDPCB Temp (C):	36.896
SecondaryPCB Temp (C):	34.506

Wavelength	RamanShift	Raw Counts	Dark Subtracted
787.061	30.1047	1112.15	696.85
787.2016	32.3739	1143.75	732.55
787.3422	34.6426	1199.1	785.3
787.4828	36.9109	1236.45	820.05
787.6235	39.1787	1292.3	872.15
787.7642	41.4461	1349.85	924.5
787.9049	43.7131	1415.95	988.05
788.0456	45.9796	1480.05	1048.9
788.1863	48.2456	1552.1	1117.6
788.3271	50.5112	1611.6	1174.35
788.4679	52.7764	1700.5	1261
788.6087	55.0411	1767.9	1324.65
788.7496	57.3054	1847.9	1398.3
788.8904	59.5692	1934.55	1483.65
789.0313	61.8326	2038.2	1581.6
789.1722	64.0955	2144.95	1683.8
789.3132	66.3579	2254.2	1788.85
789.4541	68.6199	2421.05	1954.45
789.5951	70.8815	2677.75	2208.15
789.7361	73.1426	3177.5	2702.85
789.8771	75.4032	4435.7	3955.15
790.0181	77.6634	7662	7176.35
790.1592	79.9231	16094.2	15604.15
790.3003	82.1824	52643.15	52144.75
790.4414	84.4412	65535	65016.7
790.5825	86.6995	65535	64995.45
790.7237	88.9574	65535	64974.55
790.8648	91.2148	65535	64957.2
791.006	93.4717	65535	64947.55
791.1472	95.7282	65535	64939.2
791.2885	97.9842	65535	64940.05
791.4297	100.2398	65535	64933.8
791.571	102.4949	65535	64930.5
791.7123	104.7495	65535	64927.4
791.8536	107.0036	65535	64927.35
791.9949	109.2573	65535	64928.4
792.1363	111.5105	65535	64925
792.2777	113.7632	65535	64924.55
792.4191	116.0154	65535	64913.75
792.5605	118.2672	65535	64921.75
792.7019	120.5185	65535	64916.1
792.8434	122.7693	65535	64915.15
792.9849	125.0197	65535	64915.75
793.1264	127.2696	65535	64907.15
793.2679	129.519	65535	64905.65
793.4094	131.7679	65535	64902.5
793.551	134.0163	65535	64900.8
793.6926	136.2642	65535	64896.6
793.8342	138.5117	65535	64891.15
793.9758	140.7587	65535	64894.25
794.1175	143.0052	65535	64893.85
794.2591	145.2512	65535	64889.45
794.4008	147.4967	65535	64888.55
794.5425	149.7417	65535	64885.4
794.6842	151.9863	65535	64881.4
794.826	154.2304	65535	64879.05
794.9677	156.4739	65535	64875.8
795.1095	158.717	65535	64875.55
795.2513	160.9596	65535	64870.15
795.3931	163.2017	65535	64866.5
795.535	165.4433	65535	64865.05
795.6768	167.6844	65535	64862.85
795.8187	169.925	65535	64861.75
795.9606	172.1651	65535	64855.35
796.1025	174.4047	65535	64855.95
796.2445	176.6439	65535	64853.3
796.3864	178.8825	65535	64850.7
796.5284	181.1206	65535	64844
796.6704	183.3582	65535	64840.15
796.8124	185.5954	65535	64838.85
796.9544	187.832	65535	64840.25
797.0965	190.0681	65535	64837.6
797.2386	192.3037	65535	64831.4
797.3806	194.5388	65535	64827.85
797.5228	196.7734	65535	64826
797.6649	199.0075	65535	64820.1
797.807	201.2411	65535	64822.2
797.9492	203.4742	65535	64823
798.0914	205.7068	65535	64819.85
798.2336	207.9389	65535	64814.35
798.3758	210.1704	65535	64813.85
798.518	212.4015	65535	64814.55
798.6603	214.632	65535	64818
798.8025	216.862	65535	64832.35
798.9448	219.0915	65535	64837.45
799.0871	221.3205	65535	64831.35
799.2294	223.549	65535	64837.55
799.3718	225.777	65535	64836.05
799.5141	228.0044	65535	64830.5
799.6565	230.2314	65535	64832.5
799.7989	232.4578	65535	64834
799.9413	234.6837	65535	64820.55
800.0837	236.909	65535	64819.85
800.2262	239.1339	65535	64795.3
800.3687	241.3582	65535	64812.15
800.5111	243.582	65535	64780.95
800.6536	245.8053	65535	64791.45
800.7961	248.0281	65535	64798
800.9387	250.2503	65535	64789.5
801.0812	252.472	65535	64788.75
801.2238	254.6932	65535	64787.55
801.3664	256.9139	65535	64786.25
801.509	259.134	65535	64783.15
801.6516	261.3536	65535	64787.55
801.7942	263.5727	65535	64784.9
801.9369	265.7912	65535	64789.45
802.0795	268.0092	65535	64782.9
802.2222	270.2267	65535	64778.7
802.3649	272.4436	65535	64779.25
802.5076	274.6601	65535	64767.95
802.6504	276.8759	65535	64774.05
802.7931	279.0913	65535	64775
802.9359	281.3061	65535	64776.2
803.0787	283.5204	65535	64771.85
803.2215	285.7341	65535	64768.25
803.3643	287.9473	65535	64754.5
803.5071	290.16	65535	64760.55
803.6499	292.3721	65535	64766.95
803.7928	294.5837	65535	64763.55
803.9357	296.7947	65535	64768.75
804.0786	299.0052	65535	64768.25
804.2215	301.2152	65535	64762.6
804.3644	303.4246	65535	64764.3
804.5074	305.6334	65535	64766.7
804.6503	307.8418	65535	64765.05
804.7933	310.0495	65535	64762.05
804.9363	312.2568	65535	64765.75
805.0793	314.4635	65535	64760.45
805.2223	316.6696	65535	64756.4
805.3653	318.8752	65535	64748.25
805.5084	321.0802	65535	64754.2
805.6514	323.2847	65535	64756.1
805.7945	325.4887	65535	64756.45
805.9376	327.692	65535	64752.65
806.0807	329.8949	65535	64751.4
806.2238	332.0972	65535	64747.2
806.367	334.2989	65535	64746.95
806.5101	336.5001	65535	64746.65
806.6533	338.7007	65535	64747.85
806.7965	340.9008	65535	64741.3
806.9397	343.1003	65535	64743.35
807.0829	345.2992	65535	64742.3
807.2261	347.4976	65535	64742.2
807.3693	349.6955	65535	64735.55
807.5126	351.8927	65535	64737.2
807.6559	354.0895	65535	64722.9
807.7991	356.2856	65535	64738.85
807.9424	358.4812	65535	64736.4
808.0857	360.6763	65535	64734.7
808.2291	362.8707	65535	64730.1
808.3724	365.0646	65535	64731.6
808.5158	367.258	65535	64725.4
808.6591	369.4508	65535	64723.95
808.8025	371.643	65535	64728.6
808.9459	373.8346	65535	64722.05
809.0893	376.0257	65535	64716.45
809.2327	378.2162	65535	64722.8
809.3762	380.4062	65535	64715.3
809.5196	382.5956	65535	64713.8
809.6631	384.7844	65535	64719.35
809.8066	386.9726	65535	64716.2
809.9501	389.1603	65535	64720.8
810.0936	391.3474	65535	64679.8
810.2371	393.5339	65535	64723.9
810.3806	395.7199	65535	64722.7
810.5241	397.9052	65535	64730.7
810.6677	400.09	65535	64727.75
810.8113	402.2743	65535	64727.65
810.9548	404.4579	65535	64729
811.0984	406.641	65535	64727.8
811.2421	408.8235	65535	64725.7
811.3857	411.0054	65535	64720.55
811.5293	413.1868	65535	64716.55
811.673	415.3675	65535	64715
811.8166	417.5477	65535	64717.55
811.9603	419.7273	65535	64716.3
812.104	421.9064	65535	64704.05
812.2477	424.0848	65535	64710.75
812.3914	426.2627	65535	64704.85
812.5351	428.4399	65535	64705.4
812.6788	430.6166	65535	64705.15
812.8226	432.7928	65535	64703.45
812.9663	434.9683	65535	64705.7
813.1101	437.1432	65535	64697.7
813.2539	439.3176	65535	64701.2
813.3977	441.4914	65535	64696.8
813.5415	443.6645	65535	64700.3
813.6853	445.8371	65535	64702.05
813.8291	448.0091	65535	64701.05
813.973	450.1806	65535	64701.15
814.1168	452.3514	65535	64699.25
814.2607	454.5216	65535	64688.5
814.4046	456.6913	65535	64692.85
814.5485	458.8603	65535	64696.95
814.6924	461.0288	65535	64698.1
814.8363	463.1967	65535	64700.6
814.9802	465.3639	65535	64693.95
815.1241	467.5306	65535	64694.65
815.2681	469.6967	65535	64696.55
815.412	471.8622	65535	64695.05
815.556	474.0271	65535	64698.1
815.7	476.1914	65535	64689.55
815.844	478.3551	65535	64695.3
815.988	480.5182	65535	64693.35
816.132	482.6807	65535	64693.25
816.276	484.8426	65535	64695.7
816.4201	487.0039	65535	64692.25
816.5641	489.1647	65535	64693.9
816.7082	491.3248	65535	64691.3
816.8522	493.4843	65535	64691.1
816.9963	495.6432	65535	64692.6
817.1404	497.8015	65535	64687.85
817.2845	499.9592	65535	64688.75
817.4286	502.1163	65535	64686.2
817.5727	504.2728	65535	64687.4
817.7168	506.4287	65535	64691.7
817.861	508.5839	65535	64689.6
818.0051	510.7386	65535	64689.55
818.1493	512.8927	65535	64682.3
818.2935	515.0461	65535	64686.1
818.4377	517.199	65535	64688.7
818.5818	519.3512	65535	64682.8
818.726	521.5029	65535	64674.65
818.8703	523.6539	65535	64679.3
819.0145	525.8043	65535	64681.85
819.1587	527.9541	65535	64682.4
819.303	530.1033	65535	64679.3
819.4472	532.2519	65535	64680.4
819.5915	534.3999	65535	64679.55
819.7357	536.5472	65535	64678.3
819.88	538.694	65535	64678.55
820.0243	540.8401	65535	64678.5
820.1686	542.9856	65535	64675.95
820.3129	545.1305	65535	64676.25
820.4572	547.2748	65535	64673.8
820.6016	549.4185	65535	64671.65
820.7459	551.5615	65535	64674.65
820.8902	553.704	65535	64673.2
821.0346	555.8458	65535	64677.55
821.1789	557.987	65535	64676.1
821.3233	560.1276	65535	64672.75
821.4677	562.2675	65535	64673.35
821.6121	564.4069	65535	64676.65
821.7565	566.5456	65535	64677.3
821.9009	568.6837	65535	64674.2
822.0453	570.8212	65535	64677.15
822.1897	572.958	65535	64672.65
822.3342	575.0942	65535	64673.4
822.4786	577.2299	65535	64674.9
822.6231	579.3648	65535	64677.05
822.7675	581.4992	65535	64679.65
822.912	583.6329	65535	64676.95
823.0565	585.766	65535	64675.05
823.201	587.8985	65535	64675.3
823.3454	590.0304	65535	64648.6
823.4899	592.1616	65535	64668.5
823.6345	594.2922	65535	64670.9
823.779	596.4222	65535	64668.9
823.9235	598.5515	65535	64671.3
824.068	600.6802	65535	64667.35
824.2126	602.8083	65535	64670.05
824.3571	604.9358	65535	64667.8
824.5017	607.0626	65535	64667.8
824.6462	609.1888	65535	64667.65
824.7908	611.3144	65535	64663.8
824.9354	613.4393	65535	64668.45
825.08	615.5636	65535	64666.25
825.2246	617.6873	65535	64668.4
825.3692	619.8103	65535	64665.15
825.5138	621.9327	65535	64664.75
825.6584	624.0544	65535	64667.8
825.803	626.1756	65535	64667.2
825.9477	628.2961	65535	64663.25
826.0923	630.4159	65535	64662.5
826.237	632.5351	65535	64663.8
826.3816	634.6537	65535	64663.4
826.5263	636.7716	65535	64662.1
826.6709	638.8889	65535	64660.6
826.8156	641.0056	65535	64661.65
826.9603	643.1216	65535	64660.95
827.105	645.237	65535	64656.65
827.2497	647.3518	65535	64662.65
827.3944	649.4659	65535	64661.35
827.5391	651.5793	65535	64661.15
827.6838	653.6922	65535	64662.7
827.8285	655.8043	65535	64659.2
827.9733	657.9159	65535	64661.2
828.118	660.0268	65535	64656.1
828.2627	662.137	65535	64659.55
828.4075	664.2466	65535	64659.85
828.5522	666.3556	65535	64657.95
828.697	668.4639	65535	64657
828.8418	670.5716	65535	64658.3
828.9865	672.6786	65535	64656.8
829.1313	674.785	65535	64656.25
829.2761	676.8907	65535	64656.8
829.4209	678.9958	65535	64657.35
829.5657	681.1002	65535	64656.75
829.7105	683.204	65535	64650.05
829.8553	685.3072	65535	64653.15
830.0001	687.4097	65535	64656.8
830.1449	689.5115	65535	64653.8
830.2898	691.6127	65535	64654.6
830.4346	693.7132	65535	64650.9
830.5794	695.8131	65535	64644.85
830.7243	697.9123	65535	64649.8
830.8691	700.0109	65535	64654.1
831.014	702.1089	65535	64657.3
831.1588	704.2061	65535	64653.75
831.3037	706.3028	65535	64651.65
831.4486	708.3987	65535	64652.05
831.5935	710.4941	65535	64653.5
831.7383	712.5887	65535	64652.05
831.8832	714.6827	65535	64650.5
832.0281	716.7761	65535	64653.35
832.173	718.8688	65535	64649.35
832.3179	720.9608	65535	64647.7
832.4628	723.0522	65535	64649.1
832.6077	725.1429	65535	64648.45
832.7527	727.233	65535	64648.7
832.8976	729.3224	65535	64651.75
833.0425	731.4112	65535	64651.5
833.1874	733.4993	65535	64647.2
833.3324	735.5867	65535	64648.25
833.4773	737.6735	65535	64649.2
833.6222	739.7596	65535	64648.3
833.7672	741.845	65535	64651
833.9122	743.9298	65535	64648.5
834.0571	746.014	65535	64648.05
834.2021	748.0974	65535	64646.65
834.347	750.1802	65535	64647.2
834.492	752.2624	65535	64648.05
834.637	754.3439	65535	64644.9
834.782	756.4247	65535	64637.95
834.9269	758.5048	65535	64649.05
835.0719	760.5843	65535	64644.6
835.2169	762.6631	65535	64646.75
835.3619	764.7413	65535	64647.65
835.5069	766.8188	65535	64645.7
835.6519	768.8956	65535	64646
835.7969	770.9718	65535	64646.4
835.9419	773.0473	65535	64645.1
836.0869	775.1221	65535	64644.05
836.232	777.1962	65535	64644.35
836.377	779.2697	65535	64644.1
836.522	781.3426	65535	64627.55
836.667	783.4147	65535	64644.6
836.8121	785.4862	65535	64651.1
836.9571	787.557	65535	64647.65
837.1021	789.6271	65535	64649
837.2472	791.6966	65535	64645.55
837.3922	793.7654	65535	64647.25
837.5373	795.8335	65535	64647.3
837.6823	797.901	65535	64646.75
837.8274	799.9678	65535	64643.75
837.9724	802.0339	65535	64645
838.1175	804.0993	65535	64634.85
838.2626	806.1641	65535	64642.6
838.4076	808.2282	65535	64647.6
838.5527	810.2916	65535	64642.3
838.6978	812.3544	65535	64647.4
838.8428	814.4164	65535	64649.1
838.9879	816.4778	65535	64642.9
839.133	818.5385	65535	64645.4
839.2781	820.5986	65535	64644.45
839.4232	822.658	65535	64642.3
839.5682	824.7166	65535	64642.65
839.7133	826.7747	65535	64642.8
839.8584	828.832	65535	64645.2
840.0035	830.8886	65535	64640.9
840.1486	832.9446	65535	64640.75
840.2937	834.9999	65535	64643.05
840.4388	837.0545	65535	64639.9
840.5839	839.1085	65535	64642.7
840.729	841.1618	65535	64640.6
840.8741	843.2143	65535	64644.8
841.0192	845.2662	65535	64642.3
841.1643	847.3175	65535	64644.25
841.3095	849.368	65535	64641.15
841.4546	851.4179	65535	64643.3
841.5997	853.467	65535	64642.05
841.7448	855.5155	65535	64640.85
841.8899	857.5633	65535	64642.25
842.0351	859.6105	65535	64642.8
842.1802	861.6569	65535	64642.25
842.3253	863.7027	65535	64640.45
842.4704	865.7478	65535	64641.6
842.6156	867.7922	65535	64640.2
842.7607	869.8359	65535	64639.7
842.9058	871.8789	65535	64640.5
843.0509	873.9212	65535	64610.8
843.1961	875.9629	65535	64641.4
843.3412	878.0039	65535	64640.2
843.4863	880.0441	65535	64643.55
843.6315	882.0837	65535	64638.9
843.7766	884.1226	65535	64642.35
843.9218	886.1609	65535	64642
844.0669	888.1984	65535	64640.5
844.212	890.2352	65535	64641.8
844.3572	892.2714	65535	64636.4
844.5023	894.3069	65535	64639.85
844.6475	896.3416	65535	64641.5
844.7926	898.3757	65535	64642.05
844.9377	900.4091	65535	64639.3
845.0829	902.4418	65535	64634.95
845.228	904.4739	65535	64636.7
845.3732	906.5052	65535	64641.15
845.5183	908.5358	65535	64638.35
845.6635	910.5658	65535	64637.35
845.8086	912.595	65535	64639.35
845.9538	914.6236	65535	64641.15
846.0989	916.6515	65535	64639.85
846.2441	918.6786	65535	64637.55
846.3892	920.7051	65535	64638.05
846.5344	922.7309	65535	64640.4
846.6795	924.756	65535	64636.1
846.8246	926.7804	65535	64636.3
846.9698	928.8041	65535	64636.2
847.1149	930.8272	65535	64639.05
847.2601	932.8495	65535	64636.85
847.4052	934.8711	65535	64637.65
847.5504	936.892	65535	64639.55
847.6955	938.9123	65535	64639.8
847.8407	940.9318	65535	64640.25
847.9858	942.9506	65535	64640
848.131	944.9688	65535	64641.3
848.2761	946.9862	65535	64640.05
848.4213	949.003	65535	64636
848.5664	951.019	65535	64636.9
848.7115	953.0344	65535	64638.05
848.8567	955.0491	65535	64636.3
849.0018	957.063	65535	64634.95
849.147	959.0763	65535	64637.75
849.2921	961.0888	65535	64635.2
849.4373	963.1007	65535	64637.4
849.5824	965.1119	65535	64640.4
849.7275	967.1223	65535	64639.2
849.8727	969.1321	65535	64639
850.0178	971.1412	65535	64637.9
850.1629	973.1495	65535	64639.8
850.3081	975.1572	65535	64605.5
850.4532	977.1641	65535	64636.65
850.5983	979.1704	65535	64638.3
850.7435	981.1759	65535	64633.2
850.8886	983.1808	65535	64636.15
851.0337	985.1849	65535	64627
851.1788	987.1884	65535	64635.45
851.324	989.1911	65535	64632.75
851.4691	991.1932	65535	64637.05
851.6142	993.1945	65535	64636.8
851.7593	995.1951	65535	64635.55
851.9045	997.1951	65535	64633
852.0496	999.1943	65535	64640.05
852.1947	1001.1928	65535	64637.45
852.3398	1003.1906	65535	64639.25
852.4849	1005.1877	65535	64634.55
852.63	1007.1841	65535	64637.7
852.7751	1009.1798	65535	64636
852.9202	1011.1748	65535	64636.5
853.0653	1013.1691	65535	64635.7
853.2104	1015.1627	65535	64636.75
853.3555	1017.1556	65535	64638.7
853.5006	1019.1477	65535	64637.55
853.6457	1021.1392	65535	64639.85
853.7908	1023.1299	65535	64635.85
853.9359	1025.12	65535	64634.8
854.081	1027.1093	65535	64638.65
854.2261	1029.0979	65535	64638.85
854.3712	1031.0859	65535	64639.1
854.5163	1033.0731	65535	64635.2
854.6613	1035.0596	65535	64636.8
854.8064	1037.0454	65535	64636.7
854.9515	1039.0304	65535	64635.9
855.0965	1041.0148	65535	64639.2
855.2416	1042.9985	65535	64636.05
855.3867	1044.9814	65535	64638.95
855.5317	1046.9636	65535	64634.3
855.6768	1048.9452	65535	64637.85
855.8219	1050.926	65535	64637.1
855.9669	1052.9061	65535	64638.7
856.112	1054.8855	65535	64635.5
856.257	1056.8642	65535	64637.15
856.4021	1058.8421	65535	64632.3
856.5471	1060.8194	65535	64635.85
856.6921	1062.7959	65535	64636.45
856.8372	1064.7717	65535	64637.55
856.9822	1066.7469	65535	64635
857.1272	1068.7213	65535	64633.85
857.2723	1070.695	65535	64639.25
857.4173	1072.6679	65535	64636.4
857.5623	1074.6402	65535	64635
857.7073	1076.6117	65535	64631.5
857.8523	1078.5826	65535	64635
857.9973	1080.5527	65535	64633.95
858.1423	1082.5221	65535	64636.25
858.2873	1084.4908	65535	64636.65
858.4323	1086.4587	65535	64637
858.5773	1088.426	65535	64633.85
858.7223	1090.3925	65535	64630.75
858.8673	1092.3584	65535	64633.8
859.0123	1094.3235	65535	64635.75
859.1573	1096.2879	65535	64634.4
859.3022	1098.2515	65535	64636.35
859.4472	1100.2145	65535	64636.25
859.5922	1102.1767	65535	64632.95
859.7371	1104.1382	65535	64633.65
859.8821	1106.099	65535	64633.65
860.027	1108.0591	65535	64635.35
860.172	1110.0185	65535	64635.8
860.3169	1111.9771	65535	64636.95
860.4619	1113.9351	65535	64636.25
860.6068	1115.8923	65535	64635.55
860.7517	1117.8488	65535	64635.65
860.8967	1119.8045	65535	64636.5
861.0416	1121.7596	65535	64635.7
861.1865	1123.7139	65535	64637.7
861.3314	1125.6675	65535	64635.6
861.4763	1127.6204	65535	64634.5
861.6212	1129.5726	65535	64632.2
861.7661	1131.524	65535	64636.95
861.911	1133.4748	65535	64634.95
862.0559	1135.4248	65535	64633.45
862.2008	1137.3741	65535	64635.6
862.3457	1139.3226	65535	64633.9
862.4905	1141.2705	65535	64636.45
862.6354	1143.2176	65535	64630.45
862.7803	1145.164	65535	64632.8
862.9251	1147.1097	65535	64636.75
863.07	1149.0546	65535	64632.45
863.2148	1150.9989	65535	64636.15
863.3597	1152.9424	65535	64632.85
863.5045	1154.8852	65535	64636.65
863.6493	1156.8272	65535	64635.8
863.7942	1158.7686	65535	64630.4
863.939	1160.7092	65535	64634.3
864.0838	1162.6491	65535	64633.65
864.2286	1164.5883	65535	64635.65
864.3734	1166.5267	65535	64636.45
864.5182	1168.4644	65535	64635.5
864.663	1170.4014	65535	64631.65
864.8078	1172.3377	65535	64636.2
864.9526	1174.2732	65535	64637.2
865.0974	1176.2081	65535	64634.9
865.2421	1178.1421	65535	64632.45
865.3869	1180.0755	65535	64635.75
865.5317	1182.0082	65535	64635.85
865.6764	1183.9401	65535	64635.15
865.8212	1185.8713	65535	64636.15
865.9659	1187.8017	65535	64636.25
866.1106	1189.7315	65535	64640.2
866.2554	1191.6605	65535	64610
866.4001	1193.5888	65535	64634.3
866.5448	1195.5163	65535	64636.45
866.6895	1197.4432	65535	64633.45
866.8342	1199.3693	65535	64636.1
866.9789	1201.2947	65535	64631.6
867.1236	1203.2193	65535	64635.25
867.2683	1205.1432	65535	64633.4
867.413	1207.0664	65535	64636
867.5576	1208.9889	65535	64631.8
867.7023	1210.9106	65535	64636.55
867.847	1212.8316	65535	64636.85
867.9916	1214.7519	65535	64625.95
868.1363	1216.6715	65535	64635.45
868.2809	1218.5903	65535	64635.95
868.4255	1220.5084	65535	64636.1
868.5701	1222.4257	65535	64634.95
868.7148	1224.3424	65535	64639.55
868.8594	1226.2583	65535	64631.45
869.004	1228.1735	65535	64634.25
869.1486	1230.0879	65535	64635.85
869.2932	1232.0016	65535	64636.1
869.4377	1233.9146	65535	64634.8
869.5823	1235.8269	65535	64635.6
869.7269	1237.7384	65535	64636.2
869.8715	1239.6492	65535	64637.75
870.016	1241.5592	65535	64633.6
870.1606	1243.4686	65535	64635
870.3051	1245.3772	65535	64635
870.4496	1247.285	65535	64633.95
870.5941	1249.1922	65535	64637
870.7387	1251.0986	65535	64638.05
870.8832	1253.0042	65535	64636.9
871.0277	1254.9092	65535	64636.35
871.1722	1256.8134	65535	64637.55
871.3167	1258.7169	65535	64634.6
871.4611	1260.6196	65535	64637.55
871.6056	1262.5216	65535	64634.2
871.7501	1264.4229	65535	64638
871.8945	1266.3234	65535	64636.05
872.039	1268.2232	65535	64633.3
872.1834	1270.1223	65535	64632.65
872.3278	1272.0207	65535	64635.4
872.4723	1273.9183	65535	64629.8
872.6167	1275.8151	65535	64637.55
872.7611	1277.7113	65535	64636.25
872.9055	1279.6067	65535	64636.7
873.0499	1281.5014	65535	64632.45
873.1943	1283.3953	65535	64635.75
873.3386	1285.2885	65535	64636.7
873.483	1287.181	65535	64636.2
873.6274	1289.0727	65535	64636.4
873.7717	1290.9637	65535	64635.85
873.9161	1292.854	65535	64636.85
874.0604	1294.7435	65535	64634.95
874.2047	1296.6323	65535	64638.75
874.349	1298.5204	65535	64633.45
874.4933	1300.4077	65535	64636.55
874.6376	1302.2943	65535	64637.35
874.7819	1304.1802	65535	64635.45
874.9262	1306.0653	65535	64635.7
875.0705	1307.9497	65535	64637.1
875.2147	1309.8333	65535	64634.5
875.359	1311.7162	65535	64635.95
875.5032	1313.5984	65535	64632.5
875.6475	1315.4798	65535	64626.85
875.7917	1317.3605	65535	64621.25
875.9359	1319.2405	65535	64633
876.0801	1321.1197	65535	64635.45
876.2243	1322.9982	65535	64629.35
876.3685	1324.876	65535	64637.85
876.5127	1326.753	65535	64632.6
876.6569	1328.6293	65535	64633.45
876.801	1330.5048	65535	64634.05
876.9452	1332.3796	65535	64635.75
877.0893	1334.2537	65535	64610.15
877.2335	1336.127	65535	64635.6
877.3776	1337.9996	65535	64632.2
877.5217	1339.8714	65535	64637.1
877.6658	1341.7426	65535	64592.05
877.8099	1343.6129	65535	64634.95
877.954	1345.4826	65535	64634.6
878.0981	1347.3515	65535	64632
878.2422	1349.2196	65535	64634.85
878.3862	1351.087	65535	64636
878.5303	1352.9537	65535	64632.2
878.6743	1354.8197	65535	64634.6
878.8184	1356.6849	65535	64634.65
878.9624	1358.5493	65535	64635.15
879.1064	1360.4131	65535	64636.05
879.2504	1362.276	65535	64636.55
879.3944	1364.1383	65535	64636.7
879.5384	1365.9998	65535	64628.05
879.6823	1367.8606	65535	64632.7
879.8263	1369.7206	65535	64633.95
879.9702	1371.5799	65535	64634.15
880.1142	1373.4384	65535	64634.7
880.2581	1375.2962	65535	64635
880.402	1377.1533	65535	64636.15
880.5459	1379.0096	65535	64636.3
880.6898	1380.8652	65535	64636.5
880.8337	1382.7201	65535	64637.25
880.9776	1384.5742	65535	64633.8
881.1215	1386.4275	65535	64632.05
881.2653	1388.2802	65535	64635
881.4092	1390.132	65535	64636.05
881.553	1391.9832	65535	64634.2
881.6968	1393.8336	65535	64635.3
881.8406	1395.6832	65535	64634.1
881.9844	1397.5322	65535	64635.35
882.1282	1399.3803	65535	64632.2
882.272	1401.2278	65535	64632.7
882.4158	1403.0745	65535	64637.1
882.5595	1404.9204	65535	64636.9
882.7033	1406.7656	65535	64634.85
882.847	1408.6101	65535	64635
882.9908	1410.4538	65535	64636.35
883.1345	1412.2968	65535	64635.2
883.2782	1414.139	65535	64635.65
883.4219	1415.9805	65535	64635.15
883.5656	1417.8213	65535	64630.25
883.7092	1419.6613	65535	64637.15
883.8529	1421.5006	65535	64633.6
883.9965	1423.3391	65535	64636.05
884.1402	1425.1769	65535	64633.9
884.2838	1427.0139	65535	64635.15
884.4274	1428.8502	65535	64633.95
884.571	1430.6858	65535	64636.55
884.7146	1432.5206	65535	64635.65
884.8582	1434.3547	65535	64634.15
885.0018	1436.188	65535	64635.6
885.1453	1438.0206	65535	64636.3
885.2889	1439.8524	65535	64636.05
885.4324	1441.6835	65535	64635.1
885.5759	1443.5139	65535	64633.1
885.7194	1445.3435	65535	64633.75
885.8629	1447.1724	65535	64636.65
886.0064	1449.0005	65535	64634.75
886.1499	1450.8279	65535	64633.55
886.2933	1452.6545	65535	64635.75
886.4368	1454.4804	65535	64637.65
886.5802	1456.3056	65535	64628.75
886.7237	1458.13	65535	64635.35
886.8671	1459.9536	65535	64637
887.0105	1461.7766	65535	64636.45
887.1539	1463.5987	65535	64635.4
887.2972	1465.4202	65535	64634.5
887.4406	1467.2409	65535	64635.3
887.584	1469.0608	65535	64636.7
887.7273	1470.88	65535	64635.4
887.8706	1472.6984	65535	64635.35
888.0139	1474.5161	65535	64633.6
888.1572	1476.3331	65535	64638.05
888.3005	1478.1493	65535	64633.9
888.4438	1479.9648	65535	64636.5
888.5871	1481.7795	65535	64636.65
888.7303	1483.5935	65535	64637.7
888.8736	1485.4067	65535	64634.9
889.0168	1487.2192	65535	64634.35
889.16	1489.031	65535	64633.1
889.3032	1490.842	65535	64637.45
889.4464	1492.6522	65535	64636.5
889.5896	1494.4618	65535	64636.2
889.7327	1496.2705	65535	64636.7
889.8759	1498.0785	65535	64636.9
890.019	1499.8858	65535	64635.8
890.1622	1501.6924	65535	64636.55
890.3053	1503.4981	65535	64635.3
890.4484	1505.3032	65535	64635.65
890.5914	1507.1075	65535	64635.2
890.7345	1508.911	65535	64636.35
890.8776	1510.7138	65535	64636.85
891.0206	1512.5159	65535	64636.45
891.1637	1514.3172	65535	64636.15
891.3067	1516.1178	65535	64636.5
891.4497	1517.9176	65535	64633.85
891.5927	1519.7166	65535	64637.85
891.7357	1521.515	65535	64631.3
891.8786	1523.3126	65535	64635
892.0216	1525.1094	65535	64635.3
892.1645	1526.9055	65535	64638.35
892.3074	1528.7008	65535	64636.2
892.4503	1530.4954	65535	64631.3
892.5932	1532.2893	65535	64637.6
892.7361	1534.0824	65535	64633.05
892.879	1535.8747	65535	64636.85
893.0218	1537.6663	65535	64636.35
893.1647	1539.4572	65518	64617.8
893.3075	1541.2473	65532.7	64634.7
893.4503	1543.0367	65533.65	64636.5
893.5931	1544.8253	65527.15	64625.15
893.7359	1546.6132	65532.5	64631.75
893.8787	1548.4003	65525.7	64615.2
894.0214	1550.1867	65518.65	64612.55
894.1642	1551.9723	65509.95	64609.3
894.3069	1553.7572	65512	64613.95
894.4496	1555.5414	65523.75	64626.7
894.5923	1557.3247	65347.1	64449.95
894.735	1559.1074	65514.5	64616.9
894.8777	1560.8893	65469	64570.8
895.0204	1562.6705	65486.35	64590
895.163	1564.4509	65373.2	64475.55
895.3056	1566.2305	65444.95	64547.5
895.4482	1568.0094	65502.4	64607.35
895.5908	1569.7876	65438	64542.2
895.7334	1571.565	65324.7	64428.55
895.876	1573.3417	65395.35	64498.25
896.0186	1575.1176	65383.15	64486.3
896.1611	1576.8928	65339.9	64442.2
896.3036	1578.6672	65193.25	64297.1
896.4461	1580.4409	65301.9	64407.85
896.5886	1582.2138	65004.7	64106.65
896.7311	1583.986	65107.85	64208.65
896.8736	1585.7575	64694.6	63797.5
897.0161	1587.5282	64847.7	63952.95
897.1585	1589.2981	64886.8	63992.25
897.3009	1591.0673	64499.7	63604.05
897.4433	1592.8358	64102.75	63208.4
897.5857	1594.6035	64461.75	63566.7
897.7281	1596.3704	64554.4	63658.2
897.8705	1598.1366	63755.85	62859.35
898.0128	1599.9021	63390.8	62497.15
898.1551	1601.6668	64027.35	63130.3
898.2975	1603.4308	63684.65	62789.95
898.4398	1605.194	63689.7	62787.8
898.5821	1606.9564	62673.75	61778.3
898.7243	1608.7182	63260.8	62363
898.8666	1610.4791	62727.2	61833.4
899.0088	1612.2394	63295.25	62402.65
899.1511	1613.9988	62647.1	61751.45
899.2933	1615.7576	63370.6	62475.65
899.4355	1617.5156	63325.95	62424.05
899.5776	1619.2728	63990.4	63093.45
899.7198	1621.0293	62900.7	62004.1
899.862	1622.785	62895.4	61999.4
900.0041	1624.54	63302.05	62403.3
900.1462	1626.2942	62651.1	61753.4
900.2883	1628.0477	61609	60711.9
900.4304	1629.8005	60905.6	60007.35
900.5725	1631.5525	61661	60766.9
900.7145	1633.3037	60319.4	59425.65
900.8566	1635.0542	60202.55	59309.5
900.9986	1636.804	60619.45	59723.2
901.1406	1638.553	59602.8	58597.3
901.2826	1640.3013	59880.25	58982.15
901.4245	1642.0488	59113.5	58217
901.5665	1643.7955	59565.65	58671.4
901.7085	1645.5416	59059.8	58164
901.8504	1647.2868	58650.6	57753.4
901.9923	1649.0313	59371.15	58475.7
902.1342	1650.7751	58920.3	58022.7
902.2761	1652.5181	58580.95	57685.05
902.4179	1654.2604	58675.6	57781.85
902.5598	1656.0019	59137.75	58243.55
902.7016	1657.7427	58903.75	58008
902.8434	1659.4828	59438.5	58543.35
902.9852	1661.222	59110.65	58216.15
903.127	1662.9606	59504.7	58609.9
903.2687	1664.6984	58746.15	57851.7
903.4105	1666.4354	58823.85	57929.7
903.5522	1668.1717	57702.9	56807.8
903.6939	1669.9072	56909.35	56015.3
903.8356	1671.642	56654.2	55758.6
903.9773	1673.3761	56282.3	55389.45
904.119	1675.1094	56006.85	55112.7
904.2606	1676.8419	55467.65	54575.65
904.4022	1678.5737	55231.6	54336.5
904.5439	1680.3048	54918.7	54023.25
904.6855	1682.0351	54629.75	53735.6
904.827	1683.7646	54350.1	53450.85
904.9686	1685.4934	54320.55	53426.85
905.1101	1687.2215	53492.05	52598.15
905.2517	1688.9488	53896.6	53001.35
905.3932	1690.6754	52799.55	51907.15
905.5347	1692.4012	53104.8	52210.1
905.6761	1694.1263	53006.7	52112.6
905.8176	1695.8506	52641.15	51744.4
905.9591	1697.5742	52489.2	51598.7
906.1005	1699.297	52244.4	51350.8
906.2419	1701.0191	52104.55	51211.9
906.3833	1702.7404	51720.5	50828.7
906.5246	1704.461	51426.35	50529.75
906.666	1706.1808	51316.6	50420
906.8073	1707.8999	51187.8	50293.85
906.9487	1709.6182	50966.75	50072.6
907.09	1711.3358	50843.15	49950.7
907.2313	1713.0527	50648.8	49757.7
907.3725	1714.7688	50542.45	49643.9
907.5138	1716.4841	50108.5	49212.05
907.655	1718.1987	50109.75	49211.9
907.7962	1719.9126	49867.65	48975.45
907.9374	1721.6257	49713.7	48817.6
908.0786	1723.338	49682.1	48789.6
908.2198	1725.0496	49163.9	48270.6
908.3609	1726.7605	49150.35	48259.35
908.502	1728.4706	48922.45	48027.35
908.6431	1730.18	48668.6	47772.4
908.7842	1731.8886	48573.4	47679.9
908.9253	1733.5964	48422.55	47509.5
909.0664	1735.3036	48350.9	47454.9
909.2074	1737.0099	48150.4	47257.1
909.3484	1738.7156	47996.6	47104.65
909.4894	1740.4204	47729.8	46831.85
909.6304	1742.1246	47683	46788.1
909.7714	1743.8279	47533.75	46639.95
909.9123	1745.5306	47479.8	46586.85
910.0532	1747.2325	47197.15	46303.75
910.1941	1748.9336	47072.2	46179.5
910.335	1750.634	46781.75	45886.2
910.4759	1752.3336	46743.55	45850.25
910.6168	1754.0325	46631.2	45740.35
910.7576	1755.7307	46571.45	45678.3
910.8984	1757.4281	46443.95	45548.55
911.0392	1759.1247	46368.95	45468.95
911.18	1760.8206	46170.55	45273.55
911.3208	1762.5158	46070.45	45173.15
911.4615	1764.2102	45918.45	45026.1
911.6022	1765.9039	45688.05	44795.1
911.7429	1767.5968	45608.3	44715.6
911.8836	1769.289	45414.55	44521.7
912.0243	1770.9804	45353	44458.8
912.1649	1772.6711	45255.15	44364.8
912.3056	1774.361	45083	44188.2
912.4462	1776.0502	44969.55	44075.05
912.5868	1777.7386	44854.7	43958.25
912.7274	1779.4263	44647.95	43753.65
912.8679	1781.1132	44607.2	43715.65
913.0084	1782.7994	44450.45	43556.55
913.149	1784.4849	44330.3	43438.25
913.2895	1786.1696	44126.25	43228.5
913.4299	1787.8535	44102.15	43210.6
913.5704	1789.5367	44021.35	43128.9
913.7108	1791.2192	43827	42933.8
913.8513	1792.9009	43636.6	42713.75
913.9917	1794.5818	43532.15	42638
914.132	1796.2621	43450.25	42557.9
914.2724	1797.9415	43271.45	42377
914.4128	1799.6202	43109.45	42215.25
914.5531	1801.2982	42978.3	42087.8
914.6934	1802.9755	42946.2	42052.95
914.8337	1804.6519	42832.05	41939.8
914.9739	1806.3277	42601.2	41708.6
915.1142	1808.0027	42423.05	41532.85
915.2544	1809.6769	42402	41508.85
915.3946	1811.3504	42242.7	41348.7
915.5348	1813.0231	42136.55	41243.85
915.675	1814.6951	42028.1	41134.8
915.8151	1816.3664	42000.6	41107.05
915.9553	1818.0369	41777.8	40883.35
916.0954	1819.7067	41643	40750.45
916.2355	1821.3757	41618.25	40722.85
916.3755	1823.044	41507.05	40613.7
916.5156	1824.7115	41370.05	40477.35
916.6556	1826.3783	41170.6	40278.75
916.7956	1828.0443	41087.35	40195.75
916.9356	1829.7096	40935.85	40043
917.0756	1831.3741	40868.75	39972.8
917.2155	1833.0379	40776.2	39884.15
917.3555	1834.701	40567.35	39673.1
917.4954	1836.3633	40492.4	39599.05
917.6353	1838.0248	40396.6	39502.9
917.7751	1839.6856	40264.85	39372.25
917.915	1841.3457	40272.5	39381.7
918.0548	1843.005	40102.05	39208.5
918.1946	1844.6636	40076.35	39186.15
918.3344	1846.3214	39876.4	38983.5
918.4742	1847.9785	39801.9	38909.4
918.6139	1849.6349	39659.75	38764.2
918.7537	1851.2904	39527.75	38624.7
918.8934	1852.9453	39441.85	38547.55
919.0331	1854.5994	39341.95	38445.9
919.1727	1856.2528	39328.35	38430.95
919.3124	1857.9054	39191.7	38298.65
919.452	1859.5572	39134.9	38243.6
919.5916	1861.2083	39011.85	38118.7
919.7312	1862.8587	38928.7	38036.2
919.8708	1864.5084	38818.15	37923.95
920.0103	1866.1572	38654.15	37761.2
920.1498	1867.8054	38484.6	37592.25
920.2893	1869.4528	38482.85	37590.2
920.4288	1871.0994	38310.2	37416.45
920.5683	1872.7453	38293.55	37399.75
920.7077	1874.3905	38131.35	37232.6
920.8471	1876.0349	38007.75	37112.25
920.9865	1877.6786	37992	37098.55
921.1259	1879.3215	37889.2	36996.25
921.2653	1880.9637	37794.45	36901.75
921.4046	1882.6051	37732.5	36840.3
921.5439	1884.2458	37564.5	36670.3
921.6832	1885.8858	37451.55	36559.55
921.8225	1887.525	37354.55	36462.2
921.9617	1889.1634	37148.55	36255.4
922.101	1890.8011	37017.8	36122.35
922.2402	1892.4381	36906.9	36014.3
922.3794	1894.0743	36867.85	35973.5
922.5185	1895.7098	36765.55	35874.95
922.6577	1897.3446	36654	35761.2
922.7968	1898.9786	36520.7	35623.8
922.9359	1900.6118	36446.4	35556.05
923.075	1902.2443	36309.2	35415.2
923.214	1903.8761	36171.1	35278.75
923.3531	1905.5071	35935.3	35041.5
923.4921	1907.1374	35771.7	34878.5
923.6311	1908.7669	35785.25	34891.55
923.77	1910.3957	35713.5	34820.95
923.909	1912.0237	35474.15	34581.75
924.0479	1913.651	35413.95	34520.55
924.1868	1915.2776	35289.75	34401.35
924.3257	1916.9034	35152.9	34262.05
924.4646	1918.5285	34950.9	34060.5
924.6034	1920.1528	34787.4	33893.7
924.7422	1921.7764	34797.85	33905.3
924.881	1923.3992	34602.7	33711.25
925.0198	1925.0213	34354.3	33463.5
925.1586	1926.6427	34209.5	33317.15
925.2973	1928.2633	34202.4	33206.5
925.436	1929.8832	34030.3	33136.15
925.5747	1931.5023	33849.6	32959.8
925.7134	1933.1207	33817.65	32927.4
925.852	1934.7383	33681.45	32789.7
925.9906	1936.3552	33562.95	32670.45
926.1292	1937.9714	33457.3	32564.95
926.2678	1939.5868	33293.15	32397.55
926.4064	1941.2015	33089.3	32196.15
926.5449	1942.8154	32988.65	32095
926.6834	1944.4286	32824.95	31932.85
926.8219	1946.041	32708.25	31798.1
926.9604	1947.6528	32525.3	31628.3
927.0988	1949.2637	32455.9	31564.75
927.2372	1950.8739	32321.25	31428.2
927.3756	1952.4834	32244.25	31352.7
927.514	1954.0921	32195.15	31303.1
927.6523	1955.7001	32029.7	31133.7
927.7907	1957.3074	31941.5	31049.2
927.929	1958.9139	31812.6	30920.1
928.0673	1960.5197	31731.45	30837.55
928.2055	1962.1247	31557.2	30667.15
928.3438	1963.729	31394.4	30503.35
928.482	1965.3325	31253.55	30337.6
928.6202	1966.9353	31136.7	30245.55
928.7584	1968.5374	31029.5	30136
928.8965	1970.1387	30931.3	30039.75
929.0346	1971.7393	30797.35	29903.25
929.1727	1973.3392	30694	29803.75
929.3108	1974.9383	30560.65	29669.6
929.4489	1976.5366	30439.75	29547.55
929.5869	1978.1342	30395	29502.95
929.7249	1979.7311	30360.7	29466.75
929.8629	1981.3273	30214.85	29323.05
930.0009	1982.9227	30061.3	29168
930.1388	1984.5173	29941.85	29050.4
930.2767	1986.1112	29854.4	28963.25
930.4146	1987.7044	29749.15	28859
930.5525	1989.2968	29610.25	28716.4
930.6904	1990.8885	29588.8	28691.9
930.8282	1992.4795	29457.65	28564
930.966	1994.0697	29361.45	28468.45
931.1038	1995.6592	29241	28348.9
931.2415	1997.2479	29158.55	28265.65
931.3793	1998.8359	29033.3	28143.5
931.517	2000.4232	28900.4	28009.2
931.6547	2002.0097	28822.1	27932.35
931.7923	2003.5955	28652.2	27758.8
931.93	2005.1805	28666.8	27774.2
932.0676	2006.7648	28510.95	27617.35
932.2052	2008.3484	28411.45	27518.8
932.3427	2009.9312	28453.65	27561.35
932.4803	2011.5133	28257	27366.25
932.6178	2013.0946	28183.45	27291.05
932.7553	2014.6752	28149.7	27260.7
932.8928	2016.2551	28076.3	27181.55
933.0302	2017.8342	27861.45	26969.5
933.1676	2019.4126	27753.65	26860.7
933.305	2020.9902	27644.8	26755.15
933.4424	2022.5672	27599.6	26706.15
933.5798	2024.1433	27543.6	26648.5
933.7171	2025.7188	27409.15	26518.2
933.8544	2027.2935	27325.9	26434.45
933.9917	2028.8674	27227.85	26338.55
934.129	2030.4406	27108.7	26221.75
934.2662	2032.0131	26969.6	26080.55
934.4034	2033.5849	26896.1	25999.55
934.5406	2035.1559	26795.05	25902.8
934.6778	2036.7261	26791.75	25897.25
934.8149	2038.2957	26709.85	25818.15
934.952	2039.8645	26652.65	25761.05
935.0891	2041.4325	26629.05	25736
935.2262	2042.9998	26483.9	25594.2
935.3632	2044.5664	26404.1	25510.65
935.5002	2046.1323	26346.05	25454.05
935.6372	2047.6974	26231.25	25341.25
935.7742	2049.2617	26159.3	25267.5
935.9111	2050.8254	26129.9	25216.95
936.048	2052.3883	26065.25	25171.8
936.1849	2053.9504	25974.1	25081.25
936.3218	2055.5118	25879.6	24986.85
936.4586	2057.0725	25730	24836.4
936.5955	2058.6325	25647.65	24757.75
936.7323	2060.1917	25556.2	24665.3
936.869	2061.7502	25540.5	24646.15
937.0058	2063.3079	25400.55	24510.45
937.1425	2064.8649	25311.35	24415.75
937.2792	2066.4212	25273.15	24380.75
937.4159	2067.9767	25198.9	24309.25
937.5525	2069.5315	25070.3	24180.25
937.6891	2071.0856	24967	24075.45
937.8257	2072.6389	24805.15	23913.6
937.9623	2074.1915	24689.35	23801.15
938.0989	2075.7433	24567.55	23675.45
938.2354	2077.2945	24572.55	23681.45
938.3719	2078.8448	24442.35	23550.75
938.5084	2080.3945	24349.9	23458.65
938.6448	2081.9434	24332.9	23441.65
938.7812	2083.4916	24273.3	23381.3
938.9176	2085.039	24131.75	23238.85
939.054	2086.5857	24079	23184.95
939.1903	2088.1317	24028	23134.6
939.3267	2089.677	23947.75	23055.55
939.463	2091.2215	23866.6	22976.05
939.5992	2092.7652	23789.6	22896.7
939.7355	2094.3083	23746.55	22855.1
939.8717	2095.8506	23674.55	22782.55
940.0079	2097.3921	23681.4	22790.5
940.1441	2098.933	23583.5	22690.9
940.2802	2100.4731	23502.65	22611.1
940.4163	2102.0124	23457.55	22558.45
940.5524	2103.5511	23376	22485.55
940.6885	2105.089	23336.95	22445.05
940.8245	2106.6261	23280.55	22389
940.9606	2108.1626	23174.3	22281.45
941.0965	2109.6983	23115.85	22192.85
941.2325	2111.2332	23046.15	22153.15
941.3684	2112.7675	22913.5	22021.4
941.5044	2114.301	22867	21972.75
941.6403	2115.8337	22836.75	21944.1
941.7761	2117.3657	22727.45	21836
941.912	2118.897	22717	21825.75
942.0478	2120.4276	22601.45	21703.55
942.1835	2121.9575	22467.7	21575
942.3193	2123.4866	22522.45	21617
942.455	2125.0149	22441.35	21547.3
942.5907	2126.5426	22292.65	21401.35
942.7264	2128.0695	22237.25	21341.35
942.8621	2129.5956	22176.55	21287.35
942.9977	2131.1211	22115.25	21221.9
943.1333	2132.6458	22022.15	21130.9
943.2689	2134.1698	21969.3	21077.65
943.4044	2135.693	21885.6	20990.9
943.54	2137.2155	21894.4	21001.3
943.6755	2138.7373	21802.25	20910.2
943.8109	2140.2584	21748.95	20857.65
943.9464	2141.7787	21631.95	20734.9
944.0818	2143.2983	21552.45	20662.7
944.2172	2144.8171	21432	20542.65
944.3526	2146.3353	21398.85	20506.75
944.4879	2147.8527	21289.3	20400.3
944.6232	2149.3693	21301.2	20410.1
944.7585	2150.8853	21179.65	20288.6
944.8938	2152.4005	21050.05	20159.55
945.029	2153.9149	21039.9	20147.95
945.1642	2155.4287	20934.45	20042.4
945.2994	2156.9417	20915.5	20021.55
945.4346	2158.454	20851.1	19957.55
945.5697	2159.9655	20779.6	19888.35
945.7048	2161.4764	20756.65	19866.7
945.8399	2162.9865	20694.95	19804.1
945.9749	2164.4958	20603.75	19712.45
946.1099	2166.0045	20544.3	19649.7
946.2449	2167.5124	20508.85	19616.2
946.3799	2169.0195	20444.8	19552
946.5148	2170.526	20458.6	19565.7
946.6498	2172.0317	20360.85	19468.65
946.7846	2173.5367	20246.8	19354.1
946.9195	2175.0409	20174.2	19281.85
947.0543	2176.5445	20142.25	19250.3
947.1891	2178.0473	20056.65	19163.85
947.3239	2179.5494	19966.7	19070.7
947.4587	2181.0507	19924.75	19033.05
947.5934	2182.5513	19850.35	18958.6
947.7281	2184.0512	19795.4	18903.05
947.8628	2185.5504	19709.45	18818.65
947.9974	2187.0488	19597.2	18706.3
948.132	2188.5465	19553.3	18662.45
948.2666	2190.0435	19469.6	18577.95
948.4012	2191.5397	19425.8	18534.2
948.5357	2193.0353	19340.4	18448.05
948.6702	2194.5301	19238.3	18344.05
948.8047	2196.0241	19161.95	18269.3
948.9392	2197.5175	19111.85	18218.25
949.0736	2199.0101	19031.45	18135.3
949.208	2200.502	18931.8	18040.05
949.3424	2201.9931	18852.45	17960.8
949.4767	2203.4835	18804.2	17911.7
949.611	2204.9733	18742.55	17845
949.7453	2206.4622	18726	17833.6
949.8796	2207.9505	18606.8	17711.4
950.0138	2209.438	18512.85	17621.9
950.148	2210.9248	18432.55	17540.2
950.2822	2212.4109	18403.65	17512.95
950.4164	2213.8962	18317.05	17421.55
950.5505	2215.3809	18307.95	17413.55
950.6846	2216.8648	18240.3	17347.45
950.8186	2218.3479	18201.1	17304.95
950.9527	2219.8304	18096.95	17200.85
951.0867	2221.3121	18006.05	17111.45
951.2207	2222.7931	17931.2	17039.05
951.3546	2224.2733	17882.85	16991.9
951.4886	2225.7529	17801.75	16908.15
951.6225	2227.2317	17768.1	16873.4
951.7563	2228.7098	17720.15	16828.75
951.8902	2230.1872	17665.3	16773.25
952.024	2231.6638	17585.05	16694.9
952.1578	2233.1397	17545.5	16647.35
952.2916	2234.6149	17475.9	16583.05
952.4253	2236.0894	17389.1	16497.45
952.559	2237.5632	17376.2	16474.55
952.6927	2239.0362	17299.45	16409.1
952.8263	2240.5085	17219.35	16327.6
952.9599	2241.9801	17132.5	16241.05
953.0935	2243.4509	17076	16183.55
953.2271	2244.921	17029.1	16138.2
953.3606	2246.3904	16969.2	16075.7
953.4941	2247.8591	16898.5	16006.4
953.6276	2249.3271	16860.7	15968.55
953.7611	2250.7943	16809.45	15917.95
953.8945	2252.2608	16740.2	15849.05
954.0279	2253.7266	16687.2	15794.95
954.1612	2255.1917	16669	15776.6
954.2946	2256.656	16551.05	15659.65
954.4279	2258.1197	16507.45	15617.9
954.5612	2259.5826	16472.25	15579.65
954.6944	2261.0447	16465	15572.3
954.8276	2262.5062	16362.9	15468.1
954.9608	2263.9669	16325.4	15429.75
955.094	2265.4269	16297.55	15405.3
955.2271	2266.8862	16239.3	15349.15
955.3602	2268.3448	16185.65	15294.95
955.4933	2269.8026	16134.2	15241.15
955.6264	2271.2598	16088.6	15195.45
955.7594	2272.7162	16006.65	15116.05
955.8924	2274.1719	15960.25	15067.2
956.0253	2275.6268	15913.6	15022.4
956.1583	2277.0811	15853.8	14963.35
956.2912	2278.5346	15820.7	14930.5
956.4241	2279.9874	15767.5	14876.6
956.5569	2281.4395	15735.95	14844.35
956.6897	2282.8908	15685.65	14786.8
956.8225	2284.3414	15656.75	14764.8
956.9553	2285.7914	15560.3	14669.35
957.088	2287.2406	15525.85	14633.05
957.2207	2288.689	15497	14605.65
957.3534	2290.1368	15463.05	14569.55
957.486	2291.5838	15394.75	14499.9
957.6186	2293.0302	15345	14448.5
957.7512	2294.4758	15250.6	14359.85
957.8838	2295.9206	15182.75	14285.7
958.0163	2297.3648	15173.1	14280.5
958.1488	2298.8082	15145.05	14252.2
958.2813	2300.251	15068.7	14175.45
958.4137	2301.693	15024.7	14130.55
958.5461	2303.1343	14993.05	14102.75
958.6785	2304.5748	14939.2	14047.5
958.8108	2306.0147	14897	14004.6
958.9432	2307.4538	14857.15	13964.1
959.0754	2308.8922	14804.15	13913.2
959.2077	2310.3299	14755.4	13863.6
959.3399	2311.7669	14688.45	13798.25
959.4721	2313.2031	14633.8	13743.55
959.6043	2314.6387	14568.75	13675.95
959.7365	2316.0735	14542.85	13650.75
959.8686	2317.5076	14485.8	13591.6
960.0006	2318.941	14405.05	13513.7
960.1327	2320.3737	14406.2	13514.15
960.2647	2321.8056	14349.3	13455
960.3967	2323.2369	14295.25	13403.95
960.5287	2324.6674	14255.6	13362.4
960.6606	2326.0972	14183.2	13289.3
960.7925	2327.5263	14128.2	13235.05
960.9244	2328.9547	14086.35	13192.85
961.0562	2330.3823	14072.15	13177.3
961.1881	2331.8092	14035.15	13139.45
961.3198	2333.2355	13960.2	13069.55
961.4516	2334.661	13923.65	13032.6
961.5833	2336.0858	13928.65	13036.25
961.715	2337.5098	13859.35	12966.4
961.8467	2338.9332	13829.65	12938.05
961.9783	2340.3558	13771.15	12876.55
962.1099	2341.7778	13728.55	12837.5
962.2415	2343.199	13675.35	12779.1
962.373	2344.6195	13634.85	12743.2
962.5045	2346.0393	13624.9	12733.1
962.636	2347.4583	13598.05	12703.5
962.7675	2348.8767	13510.65	12616.9
962.8989	2350.2943	13468.85	12574.75
963.0303	2351.7113	13469.85	12576.8
963.1617	2353.1275	13368.3	12475.3
963.293	2354.543	13368.35	12450.3
963.4243	2355.9578	13318.25	12425.55
963.5556	2357.3718	13208.65	12315.9
963.6868	2358.7852	13160.4	12266.75
963.818	2360.1978	13110.4	12217.55
963.9492	2361.6098	13087.45	12194.8
964.0803	2363.021	13055.2	12158.2
964.2114	2364.4315	12996.05	12103.9
964.3425	2365.8413	12944	12051.8
964.4736	2367.2504	12889.25	11998.3
964.6046	2368.6587	12831.1	11939
964.7356	2370.0664	12763.15	11871.6
964.8666	2371.4733	12731.85	11838.55
964.9975	2372.8795	12674.85	11784.1
965.1284	2374.285	12637.25	11743.95
965.2593	2375.6899	12578	11686.05
965.3901	2377.0939	12509.15	11619.35
965.5209	2378.4973	12434.8	11545.1
965.6517	2379.9	12399.4	11509.35
965.7825	2381.3019	12366.75	11476.7
965.9132	2382.7032	12312.65	11422.7
966.0439	2384.1037	12306.45	11417.35
966.1745	2385.5035	12246.4	11355.9
966.3051	2386.9027	12207	11317.05
966.4357	2388.3011	12176.7	11282.5
966.5663	2389.6987	12143.95	11252.4
966.6968	2391.0957	12098.05	11205.65
966.8273	2392.492	12030.2	11140.1
966.9578	2393.8876	11964.2	11071.05
967.0882	2395.2824	11922.65	11031.75
967.2186	2396.6765	11872.05	10982.45
967.349	2398.07	11795.7	10906.25
967.4793	2399.4627	11784.4	10892.05
967.6097	2400.8547	11760.25	10867.1
967.7399	2402.246	11692.55	10795.95
967.8702	2403.6366	11617.05	10723.4
968.0004	2405.0265	11592.9	10702.45
968.1306	2406.4156	11551.85	10656.6
968.2607	2407.8041	11523	10629.8
968.3909	2409.1918	11467.2	10575.15
968.521	2410.5789	11410.75	10520.1
968.651	2411.9652	11363.1	10469.75
968.781	2413.3508	11337.4	10445.9
968.911	2414.7358	11272.1	10380.05
969.041	2416.12	11233.7	10342.7
969.1709	2417.5035	11205.05	10313.6
969.3008	2418.8863	11173.45	10282.45
969.4307	2420.2684	11125.55	10234.25
969.5606	2421.6497	11058.35	10168.4
969.6904	2423.0304	10987.85	10097.85
969.8201	2424.4104	10980.3	10088.2
969.9499	2425.7896	10974.25	10077.95
970.0796	2427.1682	10922.85	10032.5
970.2093	2428.546	10914.55	10022.35
970.3389	2429.9232	10873.1	9980.4
970.4685	2431.2996	10804.4	9912.8
970.5981	2432.6753	10812.3	9921
970.7277	2434.0503	10763.4	9872.6
970.8572	2435.4246	10708.35	9819.3
970.9867	2436.7982	10665.1	9773.75
971.1161	2438.1711	10663.4	9775
971.2456	2439.5433	10600.2	9709.4
971.375	2440.9148	10569.3	9676.05
971.5043	2442.2856	10484.8	9596.3
971.6336	2443.6557	10496.75	9605.55
971.7629	2445.025	10438.8	9548.9
971.8922	2446.3937	10431.3	9539
972.0214	2447.7617	10378.45	9486.35
972.1506	2449.1289	10376	9482.05
972.2798	2450.4955	10330.6	9436.55
972.4089	2451.8613	10306	9415.05
972.538	2453.2265	10262.85	9371.35
972.6671	2454.5909	10215.1	9323.75
972.7961	2455.9546	10211.5	9319.65
972.9251	2457.3177	10171.4	9279.8
973.0541	2458.68	10146.15	9255.8
973.1831	2460.0416	10121.8	9229.7
973.312	2461.4025	10109.35	9215.45
973.4408	2462.7627	10049.9	9145.9
973.5697	2464.1222	10045.1	9153.45
973.6985	2465.4811	10010.8	9120.3
973.8273	2466.8392	9948.35	9057.35
973.956	2468.1966	9929.05	9035.7
974.0847	2469.5533	9911.45	9018.1
974.2134	2470.9093	9888.8	8995.1
974.3421	2472.2645	9849.05	8954.8
974.4707	2473.6191	9845.75	8954.3
974.5993	2474.973	9787.75	8896.5
974.7278	2476.3262	9738.95	8845.5
974.8563	2477.6787	9706.75	8814.75
974.9848	2479.0305	9630.95	8739.1
975.1132	2480.3816	9627.45	8734
975.2417	2481.7319	9587.15	8695.85
975.37	2483.0816	9574.7	8681.9
975.4984	2484.4306	9541.8	8649.25
975.6267	2485.7789	9477.45	8585.5
975.755	2487.1264	9440.7	8546.9
975.8833	2488.4733	9406.75	8514.8
976.0115	2489.8195	9363.9	8466.6
976.1397	2491.165	9338.45	8442.55
976.2678	2492.5097	9285.45	8393.95
976.3959	2493.8538	9246.6	8353.95
976.524	2495.1972	9183.45	8291.2
976.6521	2496.5398	9168.25	8276.95
976.7801	2497.8818	9149.3	8257.55
976.9081	2499.2231	9132.25	8242.05
977.036	2500.5637	9079.1	8185.25
977.164	2501.9035	9055.7	8161.6
977.2918	2503.2427	9023.95	8127.6
977.4197	2504.5812	8968.1	8076.25
977.5475	2505.919	8948.1	8055.35
977.6753	2507.256	8981.3	8089.55
977.8031	2508.5924	8926.1	8035.9
977.9308	2509.9281	8860.85	7964.75
978.0585	2511.2631	8846.15	7956.2
978.1861	2512.5974	8823.25	7931.8
978.3137	2513.9309	8789.65	7895.55
978.4413	2515.2638	8775.6	7850.5
978.5689	2516.596	8741.95	7851.55
978.6964	2517.9275	8685.85	7792.05
978.8239	2519.2583	8664.65	7773.85
978.9513	2520.5884	8617.05	7723
979.0788	2521.9178	8571.3	7678.4
979.2062	2523.2465	8571.9	7679.6
979.3335	2524.5745	8521.05	7629.05
979.4608	2525.9018	8491.8	7600.5
979.5881	2527.2284	8476.3	7584.8
979.7154	2528.5543	8434.65	7544.15
979.8426	2529.8796	8437.75	7545.75
979.9698	2531.2041	8405.65	7512.35
980.0969	2532.5279	8367.1	7475.7
980.224	2533.851	8360.4	7469.25
980.3511	2535.1735	8338.05	7447.5
980.4781	2536.4952	8329.15	7439.05
980.6052	2537.8163	8307.1	7413.55
980.7321	2539.1366	8251.55	7360
980.8591	2540.4562	8243	7351.6
980.986	2541.7752	8223.15	7332.2
981.1129	2543.0935	8209.3	7319.4
981.2397	2544.411	8173.6	7279.6
981.3665	2545.7279	8163.45	7272.25
981.4933	2547.0441	8159.65	7268.25
981.62	2548.3596	8140.15	7246.55
981.7467	2549.6744	8113.1	7220.15
981.8734	2550.9885	8052.7	7158.15
982.0001	2552.3019	8044.65	7152.65
982.1267	2553.6146	8030.1	7138
982.2532	2554.9266	8000.35	7108.5
982.3798	2556.2379	7987.05	7094.3
982.5063	2557.5485	7979.6	7087.7
982.6327	2558.8585	7962.25	7065.1
982.7592	2560.1677	7927.55	7030.65
982.8856	2561.4762	7909.75	7016.95
983.0119	2562.7841	7883.5	6988.6
983.1383	2564.0913	7875.3	6982.75
983.2646	2565.3977	7844.55	6951.75
983.3908	2566.7035	7825.3	6933.8
983.517	2568.0086	7821.55	6928.55
983.6432	2569.313	7801.35	6910.1
983.7694	2570.6167	7769.55	6873.5
983.8955	2571.9197	7744.75	6850.65
984.0216	2573.222	7740.5	6846.35
984.1476	2574.5236	7723.45	6830.05
984.2737	2575.8246	7686.9	6792.1
984.3996	2577.1248	7698.75	6803.75
984.5256	2578.4244	7676.2	6785.45
984.6515	2579.7232	7639.15	6748.25
984.7774	2581.0214	7667.6	6737.65
984.9032	2582.3189	7604.3	6711.8
985.029	2583.6157	7581.1	6685.8
985.1548	2584.9118	7592.4	6698.9
985.2806	2586.2072	7530.25	6638.9
985.4063	2587.5019	7516.4	6624.6
985.5319	2588.7959	7513.5	6619.8
985.6576	2590.0893	7492.4	6598.6
985.7832	2591.3819	7483.95	6593.4
985.9087	2592.6739	7437.85	6547
986.0343	2593.9652	7415.2	6521.55
986.1597	2595.2557	7397.05	6505.2
986.2852	2596.5456	7400.1	6505.05
986.4106	2597.8348	7371.05	6480.75
986.536	2599.1234	7328.6	6438.35
986.6614	2600.4112	7311.25	6417.9
986.7867	2601.6983	7270	6375.1
986.912	2602.9848	7254.2	6361.9
987.0372	2604.2705	7223.1	6324.7
987.1624	2605.5556	7226.3	6333.3
987.2876	2606.84	7177.25	6286.3
987.4128	2608.1237	7149.7	6258.3
987.5379	2609.4067	7133.1	6241.8
987.6629	2610.689	7095.95	6193.9
987.788	2611.9707	7066.85	6168.45
987.913	2613.2516	7062.75	6165.4
988.0379	2614.5319	7015.85	6122.15
988.1629	2615.8115	6995	6100.7
988.2878	2617.0903	6984.05	6089.5
988.4126	2618.3685	6930.15	6039.1
988.5375	2619.6461	6918.95	6027.9
988.6622	2620.9229	6897	6005
988.787	2622.199	6871.5	5980.2
988.9117	2623.4745	6860.8	5967.55
989.0364	2624.7493	6827.35	5937.7
989.161	2626.0234	6811.1	5919.75
989.2857	2627.2968	6779.6	5887.25
989.4102	2628.5695	6750.5	5856
989.5348	2629.8415	6718.45	5825.3
989.6593	2631.1128	6706.55	5812.95
989.7837	2632.3835	6660.2	5768.1
989.9082	2633.6535	6658.8	5767.05
990.0326	2634.9228	6610.95	5719.95
990.1569	2636.1914	6625.05	5734.2
990.2812	2637.4593	6598.35	5699.5
990.4055	2638.7265	6592.35	5699.5
990.5298	2639.9931	6546.4	5653.55
990.654	2641.259	6532.05	5637.9
990.7782	2642.5242	6505.6	5613.6
990.9023	2643.7887	6491.3	5601.6
991.0264	2645.0525	6473.8	5581
991.1505	2646.3156	6461.8	5568.3
991.2745	2647.5781	6416.75	5526.6
991.3985	2648.8398	6392.5	5500.4
991.5225	2650.1009	6375.85	5476.5
991.6464	2651.3613	6358.65	5465.25
991.7703	2652.6211	6330.6	5436.45
991.8942	2653.8801	6329.5	5438.6
992.018	2655.1385	6313.15	5416.7
992.1418	2656.3961	6298.75	5405.25
992.2655	2657.6531	6289.2	5397.05
992.3892	2658.9094	6261.45	5368.45
992.5129	2660.1651	6251.2	5359.35
992.6366	2661.42	6221.3	5329.45
992.7602	2662.6743	6206.6	5313.25
992.8837	2663.9279	6198.4	5304.8
993.0073	2665.1808	6175.25	5283.5
993.1307	2666.433	6146.8	5253.75
993.2542	2667.6846	6154.35	5261.65
993.3776	2668.9354	6156.7	5262.05
993.501	2670.1856	6112.5	5220.3
993.6244	2671.4351	6099.55	5208.8
993.7477	2672.6839	6083.2	5189.95
993.8709	2673.9321	6077.5	5185.9
993.9942	2675.1795	6051.4	5158.1
994.1174	2676.4263	6016.2	5122.8
994.2405	2677.6724	5997.75	5106.65
994.3637	2678.9179	5998.25	5103.7
994.4868	2680.1626	5990.75	5100
994.6098	2681.4067	5976.1	5082.85
994.7328	2682.6501	5941.75	5048.8
994.8558	2683.8928	5914.7	5022.4
994.9788	2685.1348	5898.4	5006.25
995.1017	2686.3761	5897.2	5006.05
995.2245	2687.6168	5879.65	4988.35
995.3474	2688.8568	5843.8	4951.45
995.4702	2690.0961	5817.6	4926.5
995.5929	2691.3348	5819	4927.1
995.7156	2692.5727	5810.05	4917.9
995.8383	2693.81	5765.75	4874.2
995.961	2695.0466	5751.1	4859.9
996.0836	2696.2826	5731.1	4838.1
996.2062	2697.5178	5706.95	4812.9
996.3287	2698.7524	5694.5	4801.55
996.4512	2699.9863	5679.65	4784.1
996.5737	2701.2195	5650.75	4760.75
996.6961	2702.452	5675.15	4783.45
996.8185	2703.6839	5639.9	4748.4
996.9408	2704.9151	5617.8	4729.8
997.0631	2706.1456	5596.35	4704.1
997.1854	2707.3755	5601.9	4710.15
997.3077	2708.6046	5599.3	4704.2
997.4299	2709.8331	5580.3	4686.45
997.552	2711.0609	5565.35	4672.95
997.6742	2712.2881	5574.55	4679.75
997.7963	2713.5145	5550.4	4657.4
997.9183	2714.7403	5531.9	4641.1
998.0403	2715.9654	5521.25	4629.6
998.1623	2717.1899	5531.35	4625.5
998.2842	2718.4136	5528	4636.7
998.4062	2719.6367	5500.6	4608.55
998.528	2720.8591	5501.45	4601.9
998.6498	2722.0809	5467.45	4575.2
998.7716	2723.3019	5469.9	4576.7
998.8934	2724.5223	5465.05	4572.45
999.0151	2725.7421	5446.7	4555.4
999.1368	2726.9611	5433.95	4540.25
999.2584	2728.1795	5422.35	4526.4
999.38	2729.3972	5394.7	4503.1
999.5016	2730.6142	5374.15	4472.75
999.6231	2731.8306	5333.35	4439.5
999.7446	2733.0462	5313	4420.05
999.8661	2734.2612	5268.35	4370.6
999.9875	2735.4756	5241.85	4347.45
1000.1089	2736.6892	5192.75	4301.9
1000.2302	2737.9022	5165.65	4275
1000.3515	2739.1145	5168.05	4277.35
1000.4728	2740.3262	5129.4	4229.45
1000.594	2741.5372	5097.5	4206.15
1000.7152	2742.7475	5064.1	4172.55
1000.8363	2743.9571	5049.9	4157
1000.9575	2745.1661	5028.35	4131.1
1001.0785	2746.3744	4999.6	4105.85
1001.1996	2747.582	4967.65	4076.75
1001.3206	2748.7889	4961	4067.45
1001.4415	2749.9952	4931.65	4040.15
1001.5625	2751.2008	4895.8	4002.35
1001.6833	2752.4057	4885.8	3990.95
1001.8042	2753.61	4877.95	3984.05
1001.925	2754.8136	4861.8	3967.2
1002.0458	2756.0165	4850.95	3959.8
1002.1665	2757.2188	4844.2	3952.05
1002.2872	2758.4204	4826	3933.95
1002.4078	2759.6213	4802.4	3908.4
1002.5285	2760.8215	4798.35	3902.55
1002.649	2762.0211	4775.4	3882.15
1002.7696	2763.22	4754.9	3859.4
1002.8901	2764.4182	4746.9	3853.15
1003.0106	2765.6158	4736	3844.25
1003.131	2766.8127	4702.65	3811.25
1003.2514	2768.009	4687.35	3797.05
1003.3717	2769.2045	4684.75	3791.9
1003.492	2770.3994	4664.9	3771.65
1003.6123	2771.5936	4656.1	3763.7
1003.7325	2772.7872	4643.25	3752.1
1003.8527	2773.9801	4598.25	3704.45
1003.9729	2775.1723	4598.15	3689.95
1004.093	2776.3639	4582.1	3690.6
1004.2131	2777.5548	4572.2	3678.55
1004.3331	2778.745	4557.4	3664.2
1004.4531	2779.9346	4554.9	3662.9
1004.5731	2781.1235	4542.9	3650.3
1004.693	2782.3117	4518.4	3627.75
1004.8129	2783.4992	4526.15	3635.45
1004.9328	2784.6861	4496.6	3604.8
1005.0526	2785.8723	4500.5	3607.65
1005.1723	2787.0579	4507.5	3613.65
1005.2921	2788.2428	4487.2	3595.3
1005.4118	2789.427	4480.95	3589.75
1005.5314	2790.6106	4477.2	3585.05
1005.651	2791.7935	4477.7	3583.05
1005.7706	2792.9757	4463.15	3572.75
1005.8902	2794.1573	4464.8	3570.95
1006.0097	2795.3382	4462.7	3570.95
1006.1291	2796.5184	4451.75	3562.45
1006.2485	2797.698	4464.45	3571
1006.3679	2798.8769	4477.95	3587.55
1006.4873	2800.0551	4482.1	3589.5
1006.6066	2801.2327	4462.05	3567.45
1006.7258	2802.4096	4477.35	3586.75
1006.8451	2803.5859	4491.7	3599.85
1006.9642	2804.7615	4506.85	3615.6
1007.0834	2805.9364	4505.8	3614.85
1007.2025	2807.1106	4514.95	3622.85
1007.3216	2808.2842	4524.2	3630.75
1007.4406	2809.4572	4559.25	3668.3
1007.5596	2810.6294	4570.45	3678.05
1007.6785	2811.801	4600.9	3709.6
1007.7975	2812.972	4651.6	3761.25
1007.9163	2814.1423	4683.2	3790.45
1008.0352	2815.3119	4710.3	3817.5
1008.154	2816.4808	4731.15	3838.85
1008.2727	2817.6491	4772.5	3880.25
1008.3914	2818.8167	4811.75	3920.55
1008.5101	2819.9837	4845.4	3947.9
1008.6288	2821.15	4888.65	3996.15
1008.7474	2822.3157	4914.15	4023.05
1008.8659	2823.4807	4967.4	4076.25
1008.9844	2824.645	5021.1	4128.1
1009.1029	2825.8086	5021.45	4131.2
1009.2214	2826.9716	5057.3	4166.75
1009.3398	2828.134	5086.1	4196
1009.4581	2829.2957	5133.9	4242
1009.5764	2830.4567	5143.85	4251.8
1009.6947	2831.617	5156.6	4265.75
1009.813	2832.7767	5151.1	4261.7
1009.9312	2833.9358	5139.85	4250.95
1010.0493	2835.0941	5122.95	4228.5
1010.1675	2836.2519	5098.35	4206.8
1010.2855	2837.4089	5089	4197.15
1010.4036	2838.5653	5083	4191.95
1010.5216	2839.7211	5078.25	4189.5
1010.6396	2840.8761	5071.25	4178.15
1010.7575	2842.0306	5085.75	4195.35
1010.8754	2843.1843	5119.6	4230.6
1010.9932	2844.3374	5172.5	4279.2
1011.111	2845.4899	5199.45	4305.75
1011.2288	2846.6417	5280.45	4387.4
1011.3465	2847.7928	5342.1	4449.9
1011.4642	2848.9433	5410.1	4519.9
1011.5818	2850.0931	5473.8	4582.7
1011.6995	2851.2422	5552.4	4659.7
1011.817	2852.3907	5636	4742.55
1011.9345	2853.5385	5685.55	4792
1012.052	2854.6857	5752.25	4833.65
1012.1695	2855.8323	5766.9	4876.55
1012.2869	2856.9781	5815.8	4923.6
1012.4042	2858.1233	5856.8	4965.1
1012.5216	2859.2679	5878.55	4987.2
1012.6389	2860.4118	5922.35	5029.8
1012.7561	2861.555	5949.3	5054.05
1012.8733	2862.6976	5966.1	5073.85
1012.9905	2863.8395	5969.85	5077.8
1013.1076	2864.9808	6014.5	5122.55
1013.2247	2866.1214	6016.6	5127.2
1013.3417	2867.2614	6013.8	5123.3
1013.4587	2868.4007	6009.65	5117.5
1013.5757	2869.5393	6017.65	5126.8
1013.6926	2870.6773	6017.8	5120.85
1013.8095	2871.8146	6031.85	5138.3
1013.9263	2872.9513	5997.9	5103.35
1014.0431	2874.0874	5983	5092.75
1014.1599	2875.2227	5966.65	5076
1014.2766	2876.3574	5957	5065.4
1014.3933	2877.4915	5913.35	5022.8
1014.51	2878.6249	5885.15	4994.05
1014.6266	2879.7577	5855.55	4961.15
1014.7431	2880.8898	5832.55	4931.1
1014.8596	2882.0212	5787.4	4896.35
1014.9761	2883.152	5761.6	4870.35
1015.0925	2884.2821	5745.55	4856.4
1015.2089	2885.4116	5722.9	4833.4
1015.3253	2886.5405	5716.25	4826.3
1015.4416	2887.6686	5707	4813.5
1015.5579	2888.7962	5692	4804.1
1015.6741	2889.923	5689.9	4799.6
1015.7903	2891.0493	5702.5	4809.8
1015.9065	2892.1748	5708.45	4815.9
1016.0226	2893.2997	5696.35	4806.25
1016.1387	2894.424	5730.2	4840
1016.2547	2895.5476	5718.6	4826.7
1016.3707	2896.6706	5735.65	4841.65
1016.4866	2897.7929	5755.75	4862.45
1016.6025	2898.9145	5764.75	4873.05
1016.7184	2900.0355	5788.9	4897.9
1016.8342	2901.1559	5798.65	4904.85
1016.95	2902.2756	5845.8	4955.35
1017.0658	2903.3946	5858.4	4968.4
1017.1815	2904.513	5872.15	4977
1017.2971	2905.6308	5861.6	4968.75
1017.4127	2906.7479	5892.05	5001.45
1017.5283	2907.8643	5914.55	5022.25
1017.6439	2908.9801	5913.65	5024.45
1017.7594	2910.0953	5926.55	5037.55
1017.8748	2911.2098	5920.4	5024.85
1017.9902	2912.3236	5906.95	5007.85
1018.1056	2913.4368	5874.65	4981.05
1018.2209	2914.5494	5856.4	4965.95
1018.3362	2915.6613	5829.2	4934.65
1018.4515	2916.7725	5780.25	4886.15
1018.5667	2917.8831	5749.4	4855.95
1018.6819	2918.9931	5721.5	4828.9
1018.797	2920.1024	5680.25	4787.85
1018.9121	2921.211	5644.7	4753
1019.0271	2922.319	5626.95	4735
1019.1421	2923.4264	5588.5	4697.7
1019.2571	2924.5331	5571.85	4681.5
1019.372	2925.6391	5546.9	4657.05
1019.4869	2926.7445	5527.75	4638.4
1019.6017	2927.8493	5513.75	4622.6
1019.7165	2928.9534	5486.6	4597.05
1019.8313	2930.0569	5493.65	4599.85
1019.946	2931.1597	5489.35	4595.35
1020.0606	2932.2619	5471.9	4581.55
1020.1753	2933.3634	5436.65	4545.1
1020.2899	2934.4643	5424.8	4529.25
1020.4044	2935.5645	5391.9	4493.9
1020.5189	2936.6641	5361.05	4466.75
1020.6334	2937.763	5297.15	4407.2
1020.7478	2938.8613	5251.85	4360.2
1020.8622	2939.959	5188.05	4291.3
1020.9765	2941.056	5095.85	4204.5
1021.0908	2942.1523	5012.55	4119
1021.2051	2943.248	4905.45	4013.1
1021.3193	2944.3431	4811.6	3919.85
1021.4334	2945.4375	4684.55	3792.8
1021.5476	2946.5313	4590.9	3700.55
1021.6617	2947.6244	4474.3	3584.3
1021.7757	2948.7169	4358.8	3466.6
1021.8897	2949.8087	4259.8	3369
1022.0037	2950.8999	4162.9	3270.45
1022.1176	2951.9904	4072.65	3182
1022.2315	2953.0803	3999.65	3106.15
1022.3453	2954.1696	3926	3037.8
1022.4591	2955.2582	3850.55	2958.6
1022.5728	2956.3462	3787.15	2896.55
1022.6865	2957.4335	3741.3	2850.9
1022.8002	2958.5202	3699.25	2807.25
1022.9138	2959.6062	3652.35	2761.2
1023.0274	2960.6916	3658.15	2767.05
1023.141	2961.7764	3608.45	2717.65
1023.2545	2962.8605	3585.95	2692.8
1023.3679	2963.9439	3561.5	2670.15
1023.4813	2965.0267	3555.2	2663.1
1023.5947	2966.1089	3555.75	2642.75
1023.708	2967.1905	3524.8	2636.05
1023.8213	2968.2714	3522	2632.9
1023.9346	2969.3516	3497.8	2606.05
1024.0478	2970.4312	3504	2606.15
1024.1609	2971.5102	3498.6	2607.75
1024.274	2972.5885	3480.25	2588.9
1024.3871	2973.6662	3472.55	2576.55
1024.5002	2974.7432	3464.45	2574.1
1024.6132	2975.8196	3452.3	2561
1024.7261	2976.8954	3445.9	2555.55
1024.839	2977.9705	3400.4	2508.3
1024.9519	2979.045	3406.75	2515.7
1025.0647	2980.1188	3388.35	2499.15
1025.1775	2981.192	3338.8	2450.5
1025.2902	2982.2645	3317.5	2426.55
1025.4029	2983.3364	3284.05	2393.25
1025.5156	2984.4077	3251.75	2361.15
1025.6282	2985.4783	3223.55	2328.25
1025.7407	2986.5483	3181.8	2292.55
1025.8532	2987.6177	3139.9	2251.2
1025.9657	2988.6864	3107.75	2216.2
1026.0782	2989.7545	3061.8	2169.75
1026.1906	2990.8219	3016.6	2125.8
1026.3029	2991.8887	3000.55	2105.95
1026.4152	2992.9548	2956.3	2065.3
1026.5275	2994.0204	2918.8	2029.15
1026.6397	2995.0852	2891.1	2001.9
1026.7519	2996.1495	2856.4	1965.3
1026.864	2997.2131	2819.25	1927.1
1026.9761	2998.276	2787.25	1896
1027.0882	2999.3383	2771.65	1878.5
1027.2002	3000.4	2741.95	1850.05
1027.3122	3001.4611	2718.9	1828.8
1027.4241	3002.5215	2709.85	1819.6
1027.536	3003.5812	2680.1	1790.85
1027.6478	3004.6404	2671	1780.2
1027.7596	3005.6989	2665.05	1772.8
1027.8714	3006.7567	2650.75	1759.35
1027.9831	3007.8139	2640.15	1727.55
1028.0947	3008.8705	2632.25	1740.15
1028.2064	3009.9264	2615.45	1722.1
1028.3179	3010.9818	2609.1	1716.4
1028.4295	3012.0364	2591.8	1703.1
1028.541	3013.0905	2587.35	1696.85
1028.6524	3014.1439	2579.95	1689
1028.7638	3015.1966	2570.95	1679.7
1028.8752	3016.2487	2561.05	1671.3
1028.9865	3017.3002	2563.65	1665.35
1029.0978	3018.3511	2548.2	1659.25
1029.209	3019.4013	2544.55	1655.75
1029.3202	3020.4509	2545.4	1656.55
1029.4314	3021.4998	2530.45	1638.1
1029.5425	3022.5481	2539.4	1648.5
1029.6535	3023.5958	2523.95	1633.25
1029.7645	3024.6428	2529.25	1638.1
1029.8755	3025.6892	2512.15	1621.15
1029.9864	3026.735	2516.45	1625.05
1030.0973	3027.7802	2505.95	1616.65
1030.2082	3028.8247	2502.4	1610.95
1030.319	3029.8685	2497.5	1606.45
1030.4297	3030.9118	2496.95	1605.05
1030.5404	3031.9544	2500.1	1610.05
1030.6511	3032.9963	2497.2	1607.5
1030.7617	3034.0376	2499.5	1608.8
1030.8723	3035.0783	2506.2	1614
1030.9829	3036.1184	2493.75	1601.6
1031.0934	3037.1578	2493.85	1604.3
1031.2038	3038.1966	2494.45	1604.4
1031.3142	3039.2348	2485.1	1596.55
1031.4246	3040.2723	2501.55	1602.1
1031.5349	3041.3092	2487.05	1597.35
1031.6452	3042.3455	2486	1594
1031.7554	3043.3811	2460.6	1568.5
1031.8656	3044.4161	2451.8	1560.45
1031.9758	3045.4505	2453.85	1564.4
1032.0859	3046.4842	2438.5	1545.6
1032.1959	3047.5173	2431	1540.55
1032.3059	3048.5498	2414.8	1523.75
1032.4159	3049.5816	2392.6	1500.05
1032.5258	3050.6128	2390.8	1498.45
1032.6357	3051.6434	2380.8	1487.5
1032.7455	3052.6734	2379.75	1488.9
1032.8553	3053.7027	2363.2	1471.4
1032.9651	3054.7314	2351.7	1461.2
1033.0748	3055.7594	2347.45	1457.5
1033.1845	3056.7868	2333.05	1439.95
1033.2941	3057.8136	2319.75	1429.75
1033.4037	3058.8398	2316.2	1425.3
1033.5132	3059.8653	2302.7	1410.95
1033.6227	3060.8902	2297.5	1405.85
1033.7321	3061.9145	2272.25	1382.75
1033.8415	3062.9381	2280.05	1389.55
1033.9509	3063.9612	2283.25	1376.85
1034.0602	3064.9835	2253.2	1361.65
1034.1694	3066.0053	2242.25	1349.45
1034.2787	3067.0264	2227.5	1337.65
1034.3878	3068.0469	2225.2	1333.65
1034.497	3069.0668	2215.6	1320.45
1034.6061	3070.086	2201.95	1313.2
1034.7151	3071.1046	2183.65	1294
1034.8241	3072.1226	2171.35	1277.7
1034.9331	3073.1399	2162.25	1270.9
1035.042	3074.1567	2146.35	1254.95
1035.1508	3075.1727	2132.3	1237.45
1035.2597	3076.1882	2122.25	1232.3
1035.3684	3077.203	2116.7	1225.75
1035.4772	3078.2173	2095.4	1204.1
1035.5859	3079.2308	2087.25	1195.15
1035.6945	3080.2438	2069.45	1177.25
1035.8031	3081.2561	2072.45	1183.25
1035.9117	3082.2678	2057.7	1167.6
1036.0202	3083.2789	2042.7	1151.5
1036.1286	3084.2893	2030.85	1140.35
1036.2371	3085.2991	2018.75	1128.85
1036.3454	3086.3083	2010.1	1113.6
1036.4538	3087.3169	1998.25	1107.1
1036.562	3088.3248	2002.35	1109.4
1036.6703	3089.3321	1984.35	1094.25
1036.7785	3090.3388	1970.1	1081.3
1036.8866	3091.3449	1968.9	1078.25
1036.9948	3092.3503	1959.1	1067.25
1037.1028	3093.3551	1951.25	1062.4
1037.2108	3094.3593	1939.65	1049.7
1037.3188	3095.3629	1936.1	1046.1
1037.4267	3096.3658	1939.3	1046.6
1037.5346	3097.3681	1927.8	1037.2
1037.6425	3098.3698	1916.3	1024.25
1037.7503	3099.3708	1919.2	1022.9
1037.858	3100.3713	1901.4	1012.05
1037.9657	3101.3711	1888.6	997.45
1038.0734	3102.3702	1999.3	992.4
1038.181	3103.3688	1893.9	1001.7
1038.2886	3104.3667	1881.05	991.4
1038.3961	3105.364	1878.4	989
1038.5036	3106.3607	1864.15	972.35
1038.611	3107.3568	1859.15	966.3
1038.7184	3108.3522	1859.05	968.55
1038.8257	3109.347	1842.35	950.4
1038.933	3110.3412	1844.65	951.4
1039.0403	3111.3348	1838.9	948.35
1039.1475	3112.3277	1821.45	931.75
1039.2547	3113.32	1822.35	933
1039.3618	3114.3117	1826.6	934.2
1039.4689	3115.3028	1817.05	926.15
1039.5759	3116.2932	1803.5	911.35
1039.6829	3117.2831	1801.9	905.7
1039.7898	3118.2723	1797.8	907.2
1039.8967	3119.2608	1794.65	903.9
1040.0035	3120.2488	1786.25	897
1040.1103	3121.2361	1784.55	895.95
1040.2171	3122.2229	1775.05	886.8
1040.3238	3123.209	1768.6	878.55
1040.4305	3124.1944	1766.25	877.3
1040.5371	3125.1793	1764.95	873.5
1040.6437	3126.1635	1763.8	873.9
1040.7502	3127.1471	1747.2	856.5
1040.8567	3128.1301	1749.2	859.45
1040.9631	3129.1125	1746.4	859
1041.0695	3130.0942	1740.5	851.55
1041.1759	3131.0753	1748.6	848.05
1041.2822	3132.0558	1732.55	840.1
1041.3884	3133.0357	1720.65	829.75
1041.4946	3134.015	1719.05	827.9
1041.6008	3134.9936	1717.05	825
1041.7069	3135.9716	1738.3	828.45
1041.813	3136.949	1709.1	817.65
1041.919	3137.9258	1716.35	821.2
1042.025	3138.902	1711.4	816.75
1042.1309	3139.8775	1702.45	811.45
1042.2368	3140.8524	1695.3	804.4
1042.3427	3141.8267	1689.7	799
1042.4485	3142.8004	1686.85	795.8
1042.5542	3143.7735	1680.5	784.55
1042.6599	3144.7459	1676.8	785.2
1042.7656	3145.7178	1677.95	786.85
1042.8712	3146.689	1668.4	779.35
1042.9768	3147.6596	1664.95	773.75
1043.0823	3148.6295	1662.4	770.6
1043.1878	3149.5989	1657.2	768.4
1043.2932	3150.5676	1651.4	762.05
1043.3986	3151.5357	1651.35	763.2
1043.5039	3152.5032	1646.95	756.25
1043.6092	3153.4701	1640.4	749.5
1043.7145	3154.4364	1640.25	745.75
1043.8197	3155.402	1628.4	738.1
1043.9248	3156.367	1632.4	741.3
1044.03	3157.3315	1669.5	735.7
1044.135	3158.2952	1621.25	729.45
1044.24	3159.2584	1612.25	722.95
1044.345	3160.221	1600.35	709.5
1044.4499	3161.1829	1599.5	709.2
1044.5548	3162.1442	1593.7	703.65
1044.6596	3163.105	1592.5	702.15
1044.7644	3164.065	1586.2	693.3
1044.8692	3165.0245	1591.15	698
1044.9739	3165.9834	1578.5	688.3
1045.0785	3166.9416	1579.1	689.4
1045.1831	3167.8993	1574.7	683.8
1045.2877	3168.8563	1568.7	677.05
1045.3922	3169.8127	1565.4	673.3
1045.4966	3170.7684	1565.5	676.65
1045.6011	3171.7236	1562.4	671.15
1045.7054	3172.6782	1555.95	664.8
1045.8098	3173.6321	1554.95	663.7
1045.914	3174.5854	1560.6	666.9
1046.0183	3175.5381	1550.75	661.4
1046.1224	3176.4902	1536.1	645.95
1046.2266	3177.4417	1538.95	649.35
1046.3307	3178.3926	1535.3	647.4
1046.4347	3179.3428	1530.75	642.65
1046.5387	3180.2924	1525.1	635.7
1046.6427	3181.2415	1521.4	631.15
1046.7466	3182.1899	1518.9	628.05
1046.8504	3183.1377	1512.2	623.05
1046.9542	3184.0848	1517.9	625.7
1047.058	3185.0314	1506.55	615.9
1047.1617	3185.9773	1507.5	617.2
1047.2654	3186.9227	1503.55	612.75
1047.369	3187.8674	1501.75	610.65
1047.4726	3188.8115	1497.5	602.9
1047.5761	3189.755	1497.2	607.15
1047.6796	3190.6979	1487.2	598.15
1047.783	3191.6402	1482.8	595.05
1047.8864	3192.5818	1485.9	595.35
1047.9898	3193.5229	1506.6	593.65
1048.0931	3194.4633	1484.25	594.6
1048.1963	3195.4031	1477.8	587.8
1048.2995	3196.3423	1473.9	584.5
1048.4027	3197.2809	1470.4	579.85
1048.5058	3198.2189	1473.45	584.05
1048.6089	3199.1563	1471.7	576.1
1048.7119	3200.0931	1461.3	572.65
1048.8148	3201.0292	1451.85	563.95
1048.9178	3201.9648	1449.65	559.8
1049.0206	3202.8997	1456.6	564.55
1049.1235	3203.834	1446	555.55
1049.2262	3204.7677	1452.1	563.35
1049.329	3205.7008	1449.35	558
1049.4317	3206.6333	1445	555.55
1049.5343	3207.5652	1434.2	543.55
1049.6369	3208.4964	1436.35	545.55
1049.7394	3209.4271	1436.55	548.15
1049.8419	3210.3571	1428.2	540.15
1049.9444	3211.2865	1423.1	532.2
1050.0468	3212.2154	1431.75	542.8
1050.1491	3213.1436	1431.25	535.95
1050.2514	3214.0712	1429.95	533.95
1050.3537	3214.9982	1418.5	529.4
1050.4559	3215.9246	1416.75	526.75
1050.5581	3216.8503	1412.85	523.95
1050.6602	3217.7755	1406.3	515.9
1050.7623	3218.7001	1397	508.8
1050.8643	3219.624	1403.65	513.75
1050.9663	3220.5473	1405.05	514.05
1051.0682	3221.4701	1396.1	503.1
1051.1701	3222.3922	1400.8	508.25
1051.2719	3223.3137	1404.45	515.1
1051.3737	3224.2346	1388.1	499.1
1051.4754	3225.1549	1390.2	501.1
1051.5771	3226.0746	1382.3	493
1051.6788	3226.9937	1378.35	487.35
1051.7804	3227.9121	1382.9	493.1
1051.8819	3228.83	1376.7	486.25
1051.9834	3229.7473	1378.25	487.35
1052.0849	3230.6639	1368.05	478.7
1052.1863	3231.5799	1369.45	482.05
1052.2876	3232.4954	1371.55	480.45
1052.3889	3233.4102	1368.6	478.45
1052.4902	3234.3244	1358.85	467.75
1052.5914	3235.238	1353.45	464.5
1052.6926	3236.151	1376.95	464.25
1052.7937	3237.0634	1346.95	457.65
1052.8948	3237.9752	1348.55	459.95
1052.9958	3238.8864	1349.45	458.05
1053.0968	3239.797	1346.5	455.8
1053.1977	3240.7069	1344.85	454.4
1053.2986	3241.6163	1339.25	446.75
1053.3994	3242.5251	1338.65	449.65
1053.5002	3243.4332	1337.3	449
1053.6009	3244.3408	1335.4	446.1
1053.7016	3245.2477	1328.65	439.1
1053.8022	3246.154	1330.15	439.2
1053.9028	3247.0598	1322	432
1054.0034	3247.9649	1316.55	424.75
1054.1039	3248.8694	1316.4	426
1054.2043	3249.7733	1316.55	426.75
1054.3047	3250.6766	1313.1	425.7
1054.4051	3251.5793	1308.8	419.55
1054.5054	3252.4814	1308.5	419.15
1054.6056	3253.3829	1298.45	409.1
1054.7058	3254.2838	1294.05	406.6
1054.806	3255.1841	1301.5	413.75
1054.9061	3256.0838	1293.35	405.45
1055.0061	3256.9829	1285.3	394.5
1055.1062	3257.8814	1293.55	400.8
1055.2061	3258.7792	1285.25	393.55
1055.306	3259.6765	1280.4	389.05
1055.4059	3260.5731	1278.3	389.7
1055.5057	3261.4692	1277.45	387.4
1055.6055	3262.3647	1271.05	381.6
1055.7052	3263.2595	1264.05	376.4
1055.8049	3264.1538	1258.9	370.15
1055.9045	3265.0474	1247.3	356.6
1056.0041	3265.9404	1246.8	357.2
1056.1036	3266.8329	1241.1	351.65
1056.2031	3267.7247	1243.75	344.15
1056.3025	3268.616	1230.6	342.15
1056.4019	3269.5066	1222.85	334.7
1056.5013	3270.3966	1218.35	327.15
1056.6005	3271.286	1200.8	312.55
