Software Version:	3.9.2.0
Unit SN:	10000200
Spectrometer SN:	6960
Date:	3/6/2024 10:37:18 AM
Data Line Index:	25
Spectral Points:	2048
Integration time (ms):	125
Averages:	20
Delay (ms):	30
Sequence Number:	1
Processing:	dark subtract
Laser Power (mW):	305
Laser Current (mA):	822
Laser Diode Temp (C):	25.1
Laser Case Temp (C):	26.7
System Temp (C):	26.5
Spectrometer Temp (C):	23.8
CCD Temp (C):	0.004
Secondary Temp (C):	20.007
Heatsink Temp (C):	22.193
CCDPCB Temp (C):	36.251
SecondaryPCB Temp (C):	32.928

Wavelength	RamanShift	Raw Counts	Dark Subtracted
787.061	30.1047	1154.85	743.15
787.2016	32.3739	1194.3	783.85
787.3422	34.6426	1242.85	830.15
787.4828	36.9109	1293.5	879.4
787.6235	39.1787	1342.4	925.35
787.7642	41.4461	1401.65	978.95
787.9049	43.7131	1483	1056.75
788.0456	45.9796	1551.45	1122.35
788.1863	48.2456	1613.9	1180.35
788.3271	50.5112	1683	1248.35
788.4679	52.7764	1767.7	1328.8
788.6087	55.0411	1842.9	1399.15
788.7496	57.3054	1927.7	1478.65
788.8904	59.5692	2020.95	1570.85
789.0313	61.8326	2118.35	1665.15
789.1722	64.0955	2241.15	1785.25
789.3132	66.3579	2372.2	1910.25
789.4541	68.6199	2524.7	2058.95
789.5951	70.8815	2781.95	2311.05
789.7361	73.1426	3348.55	2874.2
789.8771	75.4032	4752.45	4276.9
790.0181	77.6634	8267.55	7785.35
790.1592	79.9231	17831.1	17341.5
790.3003	82.1824	57975.8	57473.15
790.4414	84.4412	65535	65013.4
790.5825	86.6995	65535	64987.4
790.7237	88.9574	65535	64957.45
790.8648	91.2148	65535	64942.1
791.006	93.4717	65535	64929.75
791.1472	95.7282	65535	64925.05
791.2885	97.9842	65535	64917.95
791.4297	100.2398	65535	64916.2
791.571	102.4949	65535	64911.5
791.7123	104.7495	65535	64909.45
791.8536	107.0036	65535	64907.75
791.9949	109.2573	65535	64908.65
792.1363	111.5105	65535	64910.4
792.2777	113.7632	65535	64906.65
792.4191	116.0154	65535	64898.5
792.5605	118.2672	65535	64899.45
792.7019	120.5185	65535	64900.75
792.8434	122.7693	65535	64896.25
792.9849	125.0197	65535	64897.35
793.1264	127.2696	65535	64890.75
793.2679	129.519	65535	64885.85
793.4094	131.7679	65535	64882.7
793.551	134.0163	65535	64883.55
793.6926	136.2642	65535	64876.2
793.8342	138.5117	65535	64867.45
793.9758	140.7587	65535	64874.9
794.1175	143.0052	65535	64867.05
794.2591	145.2512	65535	64869.2
794.4008	147.4967	65535	64870.85
794.5425	149.7417	65535	64867.1
794.6842	151.9863	65535	64865.1
794.826	154.2304	65535	64864.45
794.9677	156.4739	65535	64855.7
795.1095	158.717	65535	64853.15
795.2513	160.9596	65535	64852.85
795.3931	163.2017	65535	64849.5
795.535	165.4433	65535	64851.05
795.6768	167.6844	65535	64845.9
795.8187	169.925	65535	64840.65
795.9606	172.1651	65535	64839.2
796.1025	174.4047	65535	64835.45
796.2445	176.6439	65535	64834.55
796.3864	178.8825	65535	64835.25
796.5284	181.1206	65535	64825.55
796.6704	183.3582	65535	64821.4
796.8124	185.5954	65535	64821.25
796.9544	187.832	65535	64817.95
797.0965	190.0681	65535	64817.5
797.2386	192.3037	65535	64813.15
797.3806	194.5388	65535	64807.25
797.5228	196.7734	65535	64807.3
797.6649	199.0075	65535	64805
797.807	201.2411	65535	64804.95
797.9492	203.4742	65535	64807.6
798.0914	205.7068	65535	64802.15
798.2336	207.9389	65535	64796.55
798.3758	210.1704	65535	64793.85
798.518	212.4015	65535	64798.05
798.6603	214.632	65535	64807
798.8025	216.862	65535	64817.65
798.9448	219.0915	65535	64817
799.0871	221.3205	65535	64813.5
799.2294	223.549	65535	64817.95
799.3718	225.777	65535	64815
799.5141	228.0044	65535	64811.1
799.6565	230.2314	65535	64816.05
799.7989	232.4578	65535	64813.9
799.9413	234.6837	65535	64799.65
800.0837	236.909	65535	64802
800.2262	239.1339	65535	64771.2
800.3687	241.3582	65535	64791.3
800.5111	243.582	65535	64756.5
800.6536	245.8053	65535	64773.85
800.7961	248.0281	65535	64777
800.9387	250.2503	65535	64774.25
801.0812	252.472	65535	64767.95
801.2238	254.6932	65535	64771.45
801.3664	256.9139	65535	64771.2
801.509	259.134	65535	64765.9
801.6516	261.3536	65535	64763.95
801.7942	263.5727	65535	64767.85
801.9369	265.7912	65535	64770.7
802.0795	268.0092	65535	64765.25
802.2222	270.2267	65535	64760.9
802.3649	272.4436	65535	64765.4
802.5076	274.6601	65535	64758.3
802.6504	276.8759	65535	64759.65
802.7931	279.0913	65535	64755.65
802.9359	281.3061	65535	64757.35
803.0787	283.5204	65535	64758.8
803.2215	285.7341	65535	64746.35
803.3643	287.9473	65535	64735.85
803.5071	290.16	65535	64745.8
803.6499	292.3721	65535	64754.1
803.7928	294.5837	65535	64751.4
803.9357	296.7947	65535	64751.6
804.0786	299.0052	65535	64750.4
804.2215	301.2152	65535	64747.6
804.3644	303.4246	65535	64751.3
804.5074	305.6334	65535	64750.6
804.6503	307.8418	65535	64748.75
804.7933	310.0495	65535	64744.75
804.9363	312.2568	65535	64747
805.0793	314.4635	65535	64746.7
805.2223	316.6696	65535	64744.45
805.3653	318.8752	65535	64736.55
805.5084	321.0802	65535	64738.35
805.6514	323.2847	65535	64738.15
805.7945	325.4887	65535	64740.2
805.9376	327.692	65535	64736.8
806.0807	329.8949	65535	64734.95
806.2238	332.0972	65535	64735.95
806.367	334.2989	65535	64732.45
806.5101	336.5001	65535	64734.5
806.6533	338.7007	65535	64731.4
806.7965	340.9008	65535	64728.75
806.9397	343.1003	65535	64728.85
807.0829	345.2992	65535	64726.6
807.2261	347.4976	65535	64723.7
807.3693	349.6955	65535	64720.9
807.5126	351.8927	65535	64720.95
807.6559	354.0895	65535	64711.85
807.7991	356.2856	65535	64719.75
807.9424	358.4812	65535	64719.05
808.0857	360.6763	65535	64718.65
808.2291	362.8707	65535	64718.25
808.3724	365.0646	65535	64715.6
808.5158	367.258	65535	64713
808.6591	369.4508	65535	64708.45
808.8025	371.643	65535	64708.15
808.9459	373.8346	65535	64707
809.0893	376.0257	65535	64704.55
809.2327	378.2162	65535	64706.5
809.3762	380.4062	65535	64702.6
809.5196	382.5956	65535	64700.9
809.6631	384.7844	65535	64707.35
809.8066	386.9726	65535	64709
809.9501	389.1603	65535	64708.45
810.0936	391.3474	65535	64669.9
810.2371	393.5339	65535	64711.2
810.3806	395.7199	65535	64714.6
810.5241	397.9052	65535	64710.35
810.6677	400.09	65535	64709.8
810.8113	402.2743	65535	64708.45
810.9548	404.4579	65535	64708.6
811.0984	406.641	65535	64711.55
811.2421	408.8235	65535	64707.15
811.3857	411.0054	65535	64704.9
811.5293	413.1868	65535	64701.2
811.673	415.3675	65535	64700.05
811.8166	417.5477	65535	64699.8
811.9603	419.7273	65535	64695.05
812.104	421.9064	65535	64687.2
812.2477	424.0848	65535	64693.15
812.3914	426.2627	65535	64693.85
812.5351	428.4399	65535	64693.75
812.6788	430.6166	65535	64690.75
812.8226	432.7928	65535	64688.75
812.9663	434.9683	65535	64689.45
813.1101	437.1432	65535	64687.7
813.2539	439.3176	65535	64688.5
813.3977	441.4914	65535	64688.2
813.5415	443.6645	65535	64687.85
813.6853	445.8371	65535	64685.1
813.8291	448.0091	65535	64688.75
813.973	450.1806	65535	64687.8
814.1168	452.3514	65535	64681.9
814.2607	454.5216	65535	64676.8
814.4046	456.6913	65535	64680.45
814.5485	458.8603	65535	64684.75
814.6924	461.0288	65535	64687.4
814.8363	463.1967	65535	64685.6
814.9802	465.3639	65535	64680.7
815.1241	467.5306	65535	64684.1
815.2681	469.6967	65535	64679.45
815.412	471.8622	65535	64684.45
815.556	474.0271	65535	64682.85
815.7	476.1914	65535	64679.95
815.844	478.3551	65535	64681.85
815.988	480.5182	65535	64679
816.132	482.6807	65535	64680.55
816.276	484.8426	65535	64684.25
816.4201	487.0039	65535	64679.65
816.5641	489.1647	65535	64679.3
816.7082	491.3248	65535	64677.6
816.8522	493.4843	65535	64677.5
816.9963	495.6432	65535	64679.45
817.1404	497.8015	65535	64671.75
817.2845	499.9592	65535	64678.15
817.4286	502.1163	65535	64675.25
817.5727	504.2728	65535	64670.9
817.7168	506.4287	65535	64678.4
817.861	508.5839	65535	64674.35
818.0051	510.7386	65535	64676.45
818.1493	512.8927	65535	64671.95
818.2935	515.0461	65535	64674.05
818.4377	517.199	65535	64669.85
818.5818	519.3512	65535	64672.6
818.726	521.5029	65535	64663.15
818.8703	523.6539	65535	64672.55
819.0145	525.8043	65535	64669.75
819.1587	527.9541	65535	64665.8
819.303	530.1033	65535	64670.1
819.4472	532.2519	65535	64670.1
819.5915	534.3999	65535	64671.2
819.7357	536.5472	65535	64669.5
819.88	538.694	65535	64668.85
820.0243	540.8401	65535	64670.65
820.1686	542.9856	65535	64666.6
820.3129	545.1305	65535	64664.7
820.4572	547.2748	65535	64664.1
820.6016	549.4185	65535	64662.35
820.7459	551.5615	65535	64661.45
820.8902	553.704	65535	64663.25
821.0346	555.8458	65535	64663.85
821.1789	557.987	65535	64659.9
821.3233	560.1276	65535	64663.1
821.4677	562.2675	65535	64665.5
821.6121	564.4069	65535	64661.6
821.7565	566.5456	65535	64665.3
821.9009	568.6837	65535	64662.35
822.0453	570.8212	65535	64666.25
822.1897	572.958	65535	64657.5
822.3342	575.0942	65535	64661.6
822.4786	577.2299	65535	64664.6
822.6231	579.3648	65535	64665.35
822.7675	581.4992	65535	64664.25
822.912	583.6329	65535	64664.75
823.0565	585.766	65535	64663.3
823.201	587.8985	65535	64662.35
823.3454	590.0304	65535	64638.3
823.4899	592.1616	65535	64659.6
823.6345	594.2922	65535	64660.8
823.779	596.4222	65535	64657.7
823.9235	598.5515	65535	64656.2
824.068	600.6802	65535	64657.55
824.2126	602.8083	65535	64659
824.3571	604.9358	65535	64660.35
824.5017	607.0626	65535	64656.3
824.6462	609.1888	65535	64654.1
824.7908	611.3144	65535	64653.6
824.9354	613.4393	65535	64656.35
825.08	615.5636	65535	64656.1
825.2246	617.6873	65535	64658.3
825.3692	619.8103	65535	64653.85
825.5138	621.9327	65535	64651.4
825.6584	624.0544	65535	64656.25
825.803	626.1756	65535	64656.5
825.9477	628.2961	65535	64654.6
826.0923	630.4159	65535	64654.95
826.237	632.5351	65535	64656.3
826.3816	634.6537	65535	64653.15
826.5263	636.7716	65535	64648.5
826.6709	638.8889	65535	64650.9
826.8156	641.0056	65535	64649.75
826.9603	643.1216	65535	64647.9
827.105	645.237	65535	64649.55
827.2497	647.3518	65535	64651.95
827.3944	649.4659	65535	64652.05
827.5391	651.5793	65535	64650.95
827.6838	653.6922	65535	64650.9
827.8285	655.8043	65535	64653.8
827.9733	657.9159	65535	64651.05
828.118	660.0268	65535	64647.75
828.2627	662.137	65535	64646.55
828.4075	664.2466	65535	64648.55
828.5522	666.3556	65535	64647.15
828.697	668.4639	65535	64645.9
828.8418	670.5716	65535	64647.25
828.9865	672.6786	65535	64645.5
829.1313	674.785	65535	64645.45
829.2761	676.8907	65535	64646.6
829.4209	678.9958	65535	64649.05
829.5657	681.1002	65535	64648.5
829.7105	683.204	65535	64642.4
829.8553	685.3072	65535	64645.95
830.0001	687.4097	65535	64645.15
830.1449	689.5115	65535	64641.85
830.2898	691.6127	65535	64647
830.4346	693.7132	65535	64645.15
830.5794	695.8131	65535	64631.55
830.7243	697.9123	65535	64642.9
830.8691	700.0109	65535	64642.65
831.014	702.1089	65535	64645.1
831.1588	704.2061	65535	64645.4
831.3037	706.3028	65535	64638.75
831.4486	708.3987	65535	64644.5
831.5935	710.4941	65535	64647.05
831.7383	712.5887	65535	64640.7
831.8832	714.6827	65535	64638.75
832.0281	716.7761	65535	64643.25
832.173	718.8688	65535	64642.05
832.3179	720.9608	65535	64638.05
832.4628	723.0522	65535	64639.05
832.6077	725.1429	65535	64643.25
832.7527	727.233	65535	64639.85
832.8976	729.3224	65535	64638.65
833.0425	731.4112	65535	64638.35
833.1874	733.4993	65535	64637
833.3324	735.5867	65535	64637.95
833.4773	737.6735	65535	64639.35
833.6222	739.7596	65535	64638.7
833.7672	741.845	65535	64638.4
833.9122	743.9298	65535	64637
834.0571	746.014	65535	64640.8
834.2021	748.0974	65535	64638.65
834.347	750.1802	65535	64639.3
834.492	752.2624	65535	64636.45
834.637	754.3439	65535	64638.85
834.782	756.4247	65535	64629.75
834.9269	758.5048	65535	64638.25
835.0719	760.5843	65535	64637.9
835.2169	762.6631	65535	64641.3
835.3619	764.7413	65535	64639
835.5069	766.8188	65535	64640.3
835.6519	768.8956	65535	64638.6
835.7969	770.9718	65535	64638.65
835.9419	773.0473	65535	64639.8
836.0869	775.1221	65535	64641.6
836.232	777.1962	65535	64640.3
836.377	779.2697	65535	64634.15
836.522	781.3426	65535	64616.45
836.667	783.4147	65535	64637.5
836.8121	785.4862	65535	64638
836.9571	787.557	65535	64637.85
837.1021	789.6271	65535	64637.6
837.2472	791.6966	65535	64638.1
837.3922	793.7654	65535	64640
837.5373	795.8335	65535	64637.25
837.6823	797.901	65535	64640.95
837.8274	799.9678	65535	64634.75
837.9724	802.0339	65535	64640.5
838.1175	804.0993	65535	64627.8
838.2626	806.1641	65535	64635.55
838.4076	808.2282	65535	64634.4
838.5527	810.2916	65535	64634.45
838.6978	812.3544	65535	64638.95
838.8428	814.4164	65535	64639.4
838.9879	816.4778	65535	64637.4
839.133	818.5385	65535	64636.95
839.2781	820.5986	65535	64634.75
839.4232	822.658	65535	64634.45
839.5682	824.7166	65535	64637
839.7133	826.7747	65535	64635.95
839.8584	828.832	65535	64636.15
840.0035	830.8886	65535	64635
840.1486	832.9446	65535	64632.5
840.2937	834.9999	65535	64638.35
840.4388	837.0545	65535	64633.05
840.5839	839.1085	65535	64634.75
840.729	841.1618	65535	64630.55
840.8741	843.2143	65535	64631.45
841.0192	845.2662	65535	64635.95
841.1643	847.3175	65535	64632.7
841.3095	849.368	65535	64633.5
841.4546	851.4179	65535	64634.45
841.5997	853.467	65535	64637.6
841.7448	855.5155	65535	64637
841.8899	857.5633	65535	64635.75
842.0351	859.6105	65535	64633.35
842.1802	861.6569	65535	64633.75
842.3253	863.7027	65535	64632
842.4704	865.7478	65535	64634.05
842.6156	867.7922	65535	64635.9
842.7607	869.8359	65535	64632.35
842.9058	871.8789	65535	64635.15
843.0509	873.9212	65535	64603.75
843.1961	875.9629	65535	64633.65
843.3412	878.0039	65535	64635.9
843.4863	880.0441	65535	64635.6
843.6315	882.0837	65535	64633.15
843.7766	884.1226	65535	64629.9
843.9218	886.1609	65535	64636.35
844.0669	888.1984	65535	64636.3
844.212	890.2352	65535	64633.5
844.3572	892.2714	65535	64629.95
844.5023	894.3069	65535	64632.55
844.6475	896.3416	65535	64631.4
844.7926	898.3757	65535	64631.2
844.9377	900.4091	65535	64629.55
845.0829	902.4418	65535	64628.4
845.228	904.4739	65535	64629.75
845.3732	906.5052	65535	64631.35
845.5183	908.5358	65535	64636.65
845.6635	910.5658	65535	64630.55
845.8086	912.595	65535	64632.55
845.9538	914.6236	65535	64632.35
846.0989	916.6515	65535	64631.2
846.2441	918.6786	65535	64629.65
846.3892	920.7051	65535	64629.7
846.5344	922.7309	65535	64633.9
846.6795	924.756	65535	64633.2
846.8246	926.7804	65535	64630.2
846.9698	928.8041	65535	64626.75
847.1149	930.8272	65535	64628.85
847.2601	932.8495	65535	64631.75
847.4052	934.8711	65535	64630.7
847.5504	936.892	65535	64630.7
847.6955	938.9123	65535	64632.75
847.8407	940.9318	65535	64632.8
847.9858	942.9506	65535	64631.45
848.131	944.9688	65535	64630.6
848.2761	946.9862	65535	64631.3
848.4213	949.003	65535	64631.7
848.5664	951.019	65535	64629.7
848.7115	953.0344	65535	64628.8
848.8567	955.0491	65535	64628.25
849.0018	957.063	65535	64632.7
849.147	959.0763	65535	64632.95
849.2921	961.0888	65535	64628.8
849.4373	963.1007	65535	64630.85
849.5824	965.1119	65535	64634.45
849.7275	967.1223	65535	64634.15
849.8727	969.1321	65535	64634.55
850.0178	971.1412	65535	64634.5
850.1629	973.1495	65535	64631.95
850.3081	975.1572	65535	64585.25
850.4532	977.1641	65535	64631.25
850.5983	979.1704	65535	64629.55
850.7435	981.1759	65535	64625.35
850.8886	983.1808	65535	64629.85
851.0337	985.1849	65535	64623.05
851.1788	987.1884	65535	64629.7
851.324	989.1911	65535	64628.8
851.4691	991.1932	65535	64629.95
851.6142	993.1945	65535	64629.05
851.7593	995.1951	65535	64629.5
851.9045	997.1951	65535	64624.4
852.0496	999.1943	65535	64630.95
852.1947	1001.1928	65535	64632.2
852.3398	1003.1906	65535	64635.1
852.4849	1005.1877	65535	64630.55
852.63	1007.1841	65535	64630.45
852.7751	1009.1798	65535	64630
852.9202	1011.1748	65535	64631.35
853.0653	1013.1691	65535	64631.15
853.2104	1015.1627	65535	64630.8
853.3555	1017.1556	65535	64630.5
853.5006	1019.1477	65535	64630.9
853.6457	1021.1392	65535	64633.05
853.7908	1023.1299	65535	64630.75
853.9359	1025.12	65535	64629.65
854.081	1027.1093	65535	64634.3
854.2261	1029.0979	65535	64636.05
854.3712	1031.0859	65535	64633.65
854.5163	1033.0731	65535	64632.4
854.6613	1035.0596	65535	64632.7
854.8064	1037.0454	65535	64631.55
854.9515	1039.0304	65535	64634.8
855.0965	1041.0148	65535	64635.5
855.2416	1042.9985	65535	64630.85
855.3867	1044.9814	65535	64633.7
855.5317	1046.9636	65535	64627.9
855.6768	1048.9452	65535	64633.75
855.8219	1050.926	65535	64633.5
855.9669	1052.9061	65535	64633.9
856.112	1054.8855	65535	64630.1
856.257	1056.8642	65535	64632.95
856.4021	1058.8421	65535	64626.8
856.5471	1060.8194	65535	64630.2
856.6921	1062.7959	65535	64633
856.8372	1064.7717	65535	64632.95
856.9822	1066.7469	65535	64630.4
857.1272	1068.7213	65535	64629.85
857.2723	1070.695	65535	64631.8
857.4173	1072.6679	65535	64632.85
857.5623	1074.6402	65535	64630.6
857.7073	1076.6117	65535	64627.55
857.8523	1078.5826	65535	64629.25
857.9973	1080.5527	65535	64629.85
858.1423	1082.5221	65535	64628.9
858.2873	1084.4908	65535	64632.45
858.4323	1086.4587	65535	64631.7
858.5773	1088.426	65535	64628.9
858.7223	1090.3925	65535	64627
858.8673	1092.3584	65535	64630.05
859.0123	1094.3235	65535	64632.4
859.1573	1096.2879	65535	64630.15
859.3022	1098.2515	65535	64632.05
859.4472	1100.2145	65535	64633.15
859.5922	1102.1767	65535	64625.45
859.7371	1104.1382	65535	64633.75
859.8821	1106.099	65535	64629.35
860.027	1108.0591	65535	64633.85
860.172	1110.0185	65535	64632.05
860.3169	1111.9771	65535	64630.55
860.4619	1113.9351	65535	64631.7
860.6068	1115.8923	65535	64631.8
860.7517	1117.8488	65535	64630.3
860.8967	1119.8045	65535	64633.2
861.0416	1121.7596	65535	64632.35
861.1865	1123.7139	65535	64633.5
861.3314	1125.6675	65535	64631.25
861.4763	1127.6204	65535	64630.1
861.6212	1129.5726	65535	64630.4
861.7661	1131.524	65535	64631.8
861.911	1133.4748	65535	64630.3
862.0559	1135.4248	65535	64628.75
862.2008	1137.3741	65535	64631.95
862.3457	1139.3226	65535	64629.75
862.4905	1141.2705	65535	64633.9
862.6354	1143.2176	65535	64624.3
862.7803	1145.164	65535	64630.65
862.9251	1147.1097	65535	64632.35
863.07	1149.0546	65535	64631.65
863.2148	1150.9989	65535	64630.5
863.3597	1152.9424	65535	64629.75
863.5045	1154.8852	65535	64630.9
863.6493	1156.8272	65535	64633.35
863.7942	1158.7686	65535	64625.6
863.939	1160.7092	65535	64628.7
864.0838	1162.6491	65535	64627.95
864.2286	1164.5883	65535	64633.05
864.3734	1166.5267	65535	64629.75
864.5182	1168.4644	65535	64631.6
864.663	1170.4014	65535	64628.35
864.8078	1172.3377	65535	64633.9
864.9526	1174.2732	65535	64631.75
865.0974	1176.2081	65535	64629.1
865.2421	1178.1421	65535	64630.55
865.3869	1180.0755	65535	64634.65
865.5317	1182.0082	65535	64631.9
865.6764	1183.9401	65535	64631
865.8212	1185.8713	65535	64631.4
865.9659	1187.8017	65535	64632.15
866.1106	1189.7315	65535	64634.5
866.2554	1191.6605	65535	64608.75
866.4001	1193.5888	65535	64630.1
866.5448	1195.5163	65535	64633.5
866.6895	1197.4432	65535	64631.65
866.8342	1199.3693	65535	64633.85
866.9789	1201.2947	65535	64627.55
867.1236	1203.2193	65535	64631.95
867.2683	1205.1432	65535	64632.45
867.413	1207.0664	65535	64632.1
867.5576	1208.9889	65535	64627.85
867.7023	1210.9106	65535	64630.8
867.847	1212.8316	65535	64634.35
867.9916	1214.7519	65535	64622.85
868.1363	1216.6715	65535	64634.25
868.2809	1218.5903	65535	64633.55
868.4255	1220.5084	65535	64632.1
868.5701	1222.4257	65535	64634.4
868.7148	1224.3424	65535	64633.4
868.8594	1226.2583	65535	64628.8
869.004	1228.1735	65535	64631.1
869.1486	1230.0879	65535	64631.9
869.2932	1232.0016	65535	64632.05
869.4377	1233.9146	65535	64633.3
869.5823	1235.8269	65535	64634.6
869.7269	1237.7384	65535	64632.15
869.8715	1239.6492	65535	64633.1
870.016	1241.5592	65535	64634.9
870.1606	1243.4686	65535	64633.95
870.3051	1245.3772	65535	64632.5
870.4496	1247.285	65535	64632.6
870.5941	1249.1922	65535	64630.95
870.7387	1251.0986	65535	64632.45
870.8832	1253.0042	65535	64633.55
871.0277	1254.9092	65535	64633.1
871.1722	1256.8134	65535	64634.05
871.3167	1258.7169	65535	64630.35
871.4611	1260.6196	65535	64634.7
871.6056	1262.5216	65535	64633.55
871.7501	1264.4229	65535	64632.7
871.8945	1266.3234	65535	64633
872.039	1268.2232	65535	64632.7
872.1834	1270.1223	65535	64631.75
872.3278	1272.0207	65535	64631.7
872.4723	1273.9183	65535	64627.85
872.6167	1275.8151	65535	64634
872.7611	1277.7113	65535	64631.8
872.9055	1279.6067	65535	64635.1
873.0499	1281.5014	65535	64631
873.1943	1283.3953	65535	64631.35
873.3386	1285.2885	65535	64635.5
873.483	1287.181	65535	64632.85
873.6274	1289.0727	65535	64634.1
873.7717	1290.9637	65535	64632.45
873.9161	1292.854	65535	64634.55
874.0604	1294.7435	65535	64634.3
874.2047	1296.6323	65535	64631.45
874.349	1298.5204	65535	64631.15
874.4933	1300.4077	65535	64632.45
874.6376	1302.2943	65535	64633.05
874.7819	1304.1802	65535	64632.6
874.9262	1306.0653	65535	64630.65
875.0705	1307.9497	65535	64631.7
875.2147	1309.8333	65535	64633.35
875.359	1311.7162	65535	64634.3
875.5032	1313.5984	65535	64632.3
875.6475	1315.4798	65535	64620.6
875.7917	1317.3605	65535	64616.25
875.9359	1319.2405	65535	64632.2
876.0801	1321.1197	65535	64629.9
876.2243	1322.9982	65535	64628.25
876.3685	1324.876	65535	64632.05
876.5127	1326.753	65535	64635.75
876.6569	1328.6293	65535	64632.05
876.801	1330.5048	65535	64630.55
876.9452	1332.3796	65535	64634.3
877.0893	1334.2537	65535	64609.6
877.2335	1336.127	65535	64633.75
877.3776	1337.9996	65535	64632.25
877.5217	1339.8714	65535	64630.3
877.6658	1341.7426	65535	64589.05
877.8099	1343.6129	65535	64629
877.954	1345.4826	65535	64632.15
878.0981	1347.3515	65535	64631.4
878.2422	1349.2196	65535	64631.7
878.3862	1351.087	65535	64634.45
878.5303	1352.9537	65535	64630.4
878.6743	1354.8197	65535	64631.2
878.8184	1356.6849	65535	64632.25
878.9624	1358.5493	65535	64630.9
879.1064	1360.4131	65535	64634.25
879.2504	1362.276	65535	64633.75
879.3944	1364.1383	65535	64632.35
879.5384	1365.9998	65535	64626.25
879.6823	1367.8606	65535	64629.55
879.8263	1369.7206	65535	64633.2
879.9702	1371.5799	65535	64631.1
880.1142	1373.4384	65535	64633.35
880.2581	1375.2962	65535	64632.35
880.402	1377.1533	65535	64633.5
880.5459	1379.0096	65535	64633.65
880.6898	1380.8652	65535	64632.7
880.8337	1382.7201	65535	64635.2
880.9776	1384.5742	65535	64633.4
881.1215	1386.4275	65535	64630.85
881.2653	1388.2802	65535	64634.35
881.4092	1390.132	65535	64632.95
881.553	1391.9832	65535	64632.35
881.6968	1393.8336	65535	64631.75
881.8406	1395.6832	65535	64632
881.9844	1397.5322	65535	64632.85
882.1282	1399.3803	65535	64628.65
882.272	1401.2278	65535	64631.9
882.4158	1403.0745	65535	64635.65
882.5595	1404.9204	65535	64632.55
882.7033	1406.7656	65535	64634.1
882.847	1408.6101	65535	64633.35
882.9908	1410.4538	65535	64629.2
883.1345	1412.2968	65535	64633.4
883.2782	1414.139	65535	64635.6
883.4219	1415.9805	65535	64634.9
883.5656	1417.8213	65535	64628.1
883.7092	1419.6613	65535	64633.35
883.8529	1421.5006	65535	64632.5
883.9965	1423.3391	65535	64629.7
884.1402	1425.1769	65535	64632.15
884.2838	1427.0139	65535	64632.4
884.4274	1428.8502	65535	64632.95
884.571	1430.6858	65535	64632.3
884.7146	1432.5206	65535	64633.85
884.8582	1434.3547	65535	64634.65
885.0018	1436.188	65535	64634.35
885.1453	1438.0206	65535	64632.85
885.2889	1439.8524	65535	64631.2
885.4324	1441.6835	65535	64632.05
885.5759	1443.5139	65535	64629.45
885.7194	1445.3435	65535	64633.6
885.8629	1447.1724	65535	64632.7
886.0064	1449.0005	65535	64636.1
886.1499	1450.8279	65535	64633.6
886.2933	1452.6545	65535	64633.6
886.4368	1454.4804	65535	64634.55
886.5802	1456.3056	65535	64626.35
886.7237	1458.13	65535	64635.25
886.8671	1459.9536	65535	64633.3
887.0105	1461.7766	65535	64633
887.1539	1463.5987	65535	64634.2
887.2972	1465.4202	65535	64634.8
887.4406	1467.2409	65535	64634.4
887.584	1469.0608	65535	64636.65
887.7273	1470.88	65535	64635.4
887.8706	1472.6984	65535	64637.5
888.0139	1474.5161	65535	64631.1
888.1572	1476.3331	65535	64633.5
888.3005	1478.1493	65535	64633.3
888.4438	1479.9648	65535	64634.35
888.5871	1481.7795	65535	64633.6
888.7303	1483.5935	65535	64636.05
888.8736	1485.4067	65535	64634.3
889.0168	1487.2192	65535	64635.9
889.16	1489.031	65535	64632.25
889.3032	1490.842	65535	64634.2
889.4464	1492.6522	65535	64633.15
889.5896	1494.4618	65535	64633.55
889.7327	1496.2705	65535	64634.7
889.8759	1498.0785	65535	64632.2
890.019	1499.8858	65535	64634.85
890.1622	1501.6924	65535	64636.2
890.3053	1503.4981	65535	64634.95
890.4484	1505.3032	65535	64634.1
890.5914	1507.1075	65535	64634.55
890.7345	1508.911	65535	64634.55
890.8776	1510.7138	65535	64633.9
891.0206	1512.5159	65535	64632.25
891.1637	1514.3172	65535	64635.85
891.3067	1516.1178	65535	64636.2
891.4497	1517.9176	65535	64632.25
891.5927	1519.7166	65535	64637.1
891.7357	1521.515	65535	64627.75
891.8786	1523.3126	65535	64635.65
892.0216	1525.1094	65535	64633.85
892.1645	1526.9055	65535	64634.9
892.3074	1528.7008	65535	64636.5
892.4503	1530.4954	65535	64626.05
892.5932	1532.2893	65535	64637.6
892.7361	1534.0824	65535	64631.75
892.879	1535.8747	65535	64636.45
893.0218	1537.6663	65535	64634.95
893.1647	1539.4572	65535	64633
893.3075	1541.2473	65535	64633.8
893.4503	1543.0367	65535	64636.3
893.5931	1544.8253	65535	64630.85
893.7359	1546.6132	65535	64632.9
893.8787	1548.4003	65535	64626.15
894.0214	1550.1867	65535	64627.6
894.1642	1551.9723	65535	64631.3
894.3069	1553.7572	65535	64633.65
894.4496	1555.5414	65535	64636.55
894.5923	1557.3247	65535	64636.85
894.735	1559.1074	65535	64637.7
894.8777	1560.8893	65535	64635.95
895.0204	1562.6705	65535	64635.4
895.163	1564.4509	65535	64638.35
895.3056	1566.2305	65535	64636.5
895.4482	1568.0094	65535	64637.55
895.5908	1569.7876	65535	64638.7
895.7334	1571.565	65535	64636.45
895.876	1573.3417	65535	64635.6
896.0186	1575.1176	65535	64636.8
896.1611	1576.8928	65535	64637.4
896.3036	1578.6672	65535	64638.55
896.4461	1580.4409	65535	64639.9
896.5886	1582.2138	65535	64636.9
896.7311	1583.986	65535	64639.15
896.8736	1585.7575	65535	64637.7
897.0161	1587.5282	65535	64639.5
897.1585	1589.2981	65535	64638.5
897.3009	1591.0673	65535	64637.2
897.4433	1592.8358	65535	64637.4
897.5857	1594.6035	65535	64635.9
897.7281	1596.3704	65535	64639.6
897.8705	1598.1366	65535	64636.65
898.0128	1599.9021	65535	64638.35
898.1551	1601.6668	65535	64636.05
898.2975	1603.4308	65535	64635.8
898.4398	1605.194	65535	64636.05
898.5821	1606.9564	65535	64638.85
898.7243	1608.7182	65535	64637.7
898.8666	1610.4791	65535	64641.05
899.0088	1612.2394	65535	64641.2
899.1511	1613.9988	65535	64639.95
899.2933	1615.7576	65535	64639.85
899.4355	1617.5156	65535	64632.3
899.5776	1619.2728	65535	64636.65
899.7198	1621.0293	65535	64638.75
899.862	1622.785	65535	64637.7
900.0041	1624.54	65535	64636.2
900.1462	1626.2942	65535	64639.15
900.2883	1628.0477	65535	64636.4
900.4304	1629.8005	65535	64635.45
900.5725	1631.5525	65535	64638.95
900.7145	1633.3037	65535	64639.15
900.8566	1635.0542	65535	64639.55
900.9986	1636.804	65535	64638.45
901.1406	1638.553	65535	64547.4
901.2826	1640.3013	65535	64640.85
901.4245	1642.0488	65535	64637.95
901.5665	1643.7955	65535	64641.75
901.7085	1645.5416	65535	64640.95
901.8504	1647.2868	65535	64642
901.9923	1649.0313	65535	64640.65
902.1342	1650.7751	65535	64635.85
902.2761	1652.5181	65535	64640.2
902.4179	1654.2604	65535	64639.3
902.5598	1656.0019	65535	64640.8
902.7016	1657.7427	65535	64641.1
902.8434	1659.4828	65535	64639.8
902.9852	1661.222	65535	64640.05
903.127	1662.9606	65535	64641.15
903.2687	1664.6984	65535	64639.5
903.4105	1666.4354	65535	64637.3
903.5522	1668.1717	65535	64641.05
903.6939	1669.9072	65531.1	64634.25
903.8356	1671.642	65534.6	64637.15
903.9773	1673.3761	65531.2	64636.15
904.119	1675.1094	65528.35	64631.95
904.2606	1676.8419	65504.1	64608.45
904.4022	1678.5737	65523.05	64629.7
904.5439	1680.3048	65517.55	64623.6
904.6855	1682.0351	65484.7	64590.4
904.827	1683.7646	65450.45	64552.15
904.9686	1685.4934	65505.4	64611.15
905.1101	1687.2215	65229.4	64333.35
905.2517	1688.9488	65460.35	64564.2
905.3932	1690.6754	64767	63872.3
905.5347	1692.4012	65258.05	64362.5
905.6761	1694.1263	65349.75	64455.1
905.8176	1695.8506	64912.85	64017.95
905.9591	1697.5742	65037.7	64145.6
906.1005	1699.297	64929.75	64035.15
906.2419	1701.0191	65044.55	64150.55
906.3833	1702.7404	64412.75	63518.8
906.5246	1704.461	64137.1	63242.9
906.666	1706.1808	64691.4	63795.75
906.8073	1707.8999	64354.4	63460.6
906.9487	1709.6182	64243.85	63350.25
907.09	1711.3358	64140.2	63247.2
907.2313	1713.0527	64056.35	63162.5
907.3725	1714.7688	64122.8	63223.4
907.5138	1716.4841	63011.55	62114.95
907.655	1718.1987	63466.95	62569.15
907.7962	1719.9126	63161.4	62267.1
907.9374	1721.6257	63533.9	62638.95
908.0786	1723.338	63490.95	62597.05
908.2198	1725.0496	61990.45	61095.45
908.3609	1726.7605	62194.7	61299.55
908.502	1728.4706	61752.95	60861
908.6431	1730.18	62400.4	61506.2
908.7842	1731.8886	61674.85	60780.6
908.9253	1733.5964	61224.6	60309.9
909.0664	1735.3036	62041.05	61145.7
909.2074	1737.0099	61457.2	60563.55
909.3484	1738.7156	60739.15	59848.95
909.4894	1740.4204	60607.25	59710.85
909.6304	1742.1246	60879.2	59986
909.7714	1743.8279	60973.05	60079.8
909.9123	1745.5306	60860.5	59965.75
910.0532	1747.2325	59392.2	58498.8
910.1941	1748.9336	59452.3	58560
910.335	1750.634	59822.35	58926.2
910.4759	1752.3336	60178.65	59287.05
910.6168	1754.0325	59106.65	58212.8
910.7576	1755.7307	60014.5	59120.8
910.8984	1757.4281	58800.8	57908.9
911.0392	1759.1247	59611	58709.3
911.18	1760.8206	58426.7	57529.4
911.3208	1762.5158	58477.75	57579.65
911.4615	1764.2102	58700.35	57807
911.6022	1765.9039	58421.3	57530.6
911.7429	1767.5968	58240.15	57348.15
911.8836	1769.289	58017.35	57124.65
912.0243	1770.9804	58137.05	57244.25
912.1649	1772.6711	57937.1	57043.05
912.3056	1774.361	57685.8	56793
912.4462	1776.0502	57682.1	56788.8
912.5868	1777.7386	56994.9	56098.3
912.7274	1779.4263	57173.25	56279.95
912.8679	1781.1132	57216.55	56322.1
913.0084	1782.7994	56914.05	56020.7
913.149	1784.4849	57065.3	56173.6
913.2895	1786.1696	56105.1	55206.8
913.4299	1787.8535	56462.85	55571.4
913.5704	1789.5367	56570.45	55676.15
913.7108	1791.2192	55941.85	55051.4
913.8513	1792.9009	55670.55	54746.7
913.9917	1794.5818	55943.5	55048.7
914.132	1796.2621	55563.85	54672.8
914.2724	1797.9415	55492.65	54597.9
914.4128	1799.6202	55352.4	54461.45
914.5531	1801.2982	55409.75	54516.2
914.6934	1802.9755	54933.6	54039.2
914.8337	1804.6519	54795.5	53902.75
914.9739	1806.3277	55232.9	54340.8
915.1142	1808.0027	54184.55	53292.5
915.2544	1809.6769	54450.35	53558.8
915.3946	1811.3504	54541.85	53646.15
915.5348	1813.0231	53810.2	52915
915.675	1814.6951	54122.85	53230.05
915.8151	1816.3664	53915.5	53021.45
915.9553	1818.0369	53823.2	52930.05
916.0954	1819.7067	53572.65	52681.7
916.2355	1821.3757	53896	53002.8
916.3755	1823.044	53186.05	52292.05
916.5156	1824.7115	53087.7	52196.4
916.6556	1826.3783	53033.7	52142.95
916.7956	1828.0443	52901.4	52009.1
916.9356	1829.7096	52709	51815.4
917.0756	1831.3741	52502.05	51604.3
917.2155	1833.0379	52519.55	51627.4
917.3555	1834.701	52362.6	51468.5
917.4954	1836.3633	52063.7	51169.8
917.6353	1838.0248	52147.5	51253.85
917.7751	1839.6856	51994.4	51099.8
917.915	1841.3457	51734.95	50842.45
918.0548	1843.005	51839.35	50946.75
918.1946	1844.6636	51662.75	50769.5
918.3344	1846.3214	51387.35	50494.8
918.4742	1847.9785	51368.65	50477.2
918.6139	1849.6349	51194.5	50299.85
918.7537	1851.2904	51267.95	50366.5
918.8934	1852.9453	50932.7	50038.15
919.0331	1854.5994	50880.9	49986.6
919.1727	1856.2528	50932.05	50033.7
919.3124	1857.9054	50652.05	49758.95
919.452	1859.5572	50555.25	49663.9
919.5916	1861.2083	50461.9	49567.25
919.7312	1862.8587	50579.45	49687.05
919.8708	1864.5084	50076.75	49183.4
920.0103	1866.1572	50101.15	49207.4
920.1498	1867.8054	49760.4	48868.6
920.2893	1869.4528	49834.2	48941.25
920.4288	1871.0994	49545.8	48654.25
920.5683	1872.7453	49456.5	48562.65
920.7077	1874.3905	49347.35	48445.9
920.8471	1876.0349	49113.15	48218.6
920.9865	1877.6786	49209.6	48315.75
921.1259	1879.3215	49029.4	48137.85
921.2653	1880.9637	48998.45	48105.85
921.4046	1882.6051	48893.65	48000.3
921.5439	1884.2458	48703.1	47808.75
921.6832	1885.8858	48448.6	47555.5
921.8225	1887.525	48387.9	47493
921.9617	1889.1634	48162.7	47270.7
922.101	1890.8011	48007.9	47114.1
922.2402	1892.4381	47822.7	46930.05
922.3794	1894.0743	47839.7	46947.5
922.5185	1895.7098	47737	46845.65
922.6577	1897.3446	47517.05	46624.95
922.7968	1898.9786	47431.6	46534.7
922.9359	1900.6118	47270.3	46377.9
923.075	1902.2443	47070.55	46176.7
923.214	1903.8761	46979.25	46086.25
923.3531	1905.5071	46683.15	45789.9
923.4921	1907.1374	46491.15	45599
923.6311	1908.7669	46467.65	45577.3
923.77	1910.3957	46408.7	45516.9
923.909	1912.0237	46058.8	45167.35
924.0479	1913.651	46016.45	45123.7
924.1868	1915.2776	45846.5	44955.2
924.3257	1916.9034	45673.3	44781.3
924.4646	1918.5285	45409	44518.3
924.6034	1920.1528	45225.55	44332.45
924.7422	1921.7764	45243.4	44352.15
924.881	1923.3992	45008.6	44115.95
925.0198	1925.0213	44702.2	43808.75
925.1586	1926.6427	44506.65	43614.6
925.2973	1928.2633	44554.35	43553.85
925.436	1929.8832	44298.65	43405.35
925.5747	1931.5023	44100.7	43209.25
925.7134	1933.1207	43999.2	43109.6
925.852	1934.7383	43891.1	42999.3
925.9906	1936.3552	43730.6	42838.1
926.1292	1937.9714	43641.6	42749.05
926.2678	1939.5868	43469	42575.2
926.4064	1941.2015	43153	42258.95
926.5449	1942.8154	43005.9	42114.25
926.6834	1944.4286	42855	41963.5
926.8219	1946.041	42663.85	41752.35
926.9604	1947.6528	42451.1	41554.3
927.0988	1949.2637	42359.85	41469.05
927.2372	1950.8739	42226.1	41332.8
927.3756	1952.4834	42103.7	41210.65
927.514	1954.0921	42037.75	41144.7
927.6523	1955.7001	41845.7	40948.1
927.7907	1957.3074	41729.4	40837
927.929	1958.9139	41496.85	40605.55
928.0673	1960.5197	41443.65	40550.3
928.2055	1962.1247	41183.35	40292.6
928.3438	1963.729	41042.85	40150.45
928.482	1965.3325	40902.5	39989.15
928.6202	1966.9353	40755.5	39864.35
928.7584	1968.5374	40605.5	39713
928.8965	1970.1387	40448.55	39557.45
929.0346	1971.7393	40315.6	39423.75
929.1727	1973.3392	40228.05	39337.45
929.3108	1974.9383	40074.5	39184.4
929.4489	1976.5366	39817.5	38925.2
929.5869	1978.1342	39782.05	38890.85
929.7249	1979.7311	39705.25	38812.25
929.8629	1981.3273	39549.15	38654.5
930.0009	1982.9227	39428.75	38536.1
930.1388	1984.5173	39276.4	38386.5
930.2767	1986.1112	39063.5	38172.1
930.4146	1987.7044	38995.6	38105.9
930.5525	1989.2968	38859.45	37966.95
930.6904	1990.8885	38745.95	37853.45
930.8282	1992.4795	38675.15	37782.05
930.966	1994.0697	38482.3	37591.25
931.1038	1995.6592	38343.45	37453.6
931.2415	1997.2479	38217.75	37327.55
931.3793	1998.8359	38054	37163.25
931.517	2000.4232	37893.8	37004.3
931.6547	2002.0097	37759.2	36869.8
931.7923	2003.5955	37608.45	36717.35
931.93	2005.1805	37570	36678.55
932.0676	2006.7648	37465.8	36575
932.2052	2008.3484	37297.75	36404.8
932.3427	2009.9312	37334.95	36442.65
932.4803	2011.5133	37092.6	36202.25
932.6178	2013.0946	37009.7	36118.4
932.7553	2014.6752	36919.35	36031.95
932.8928	2016.2551	36851.85	35962.8
933.0302	2017.8342	36628.2	35736.95
933.1676	2019.4126	36546.85	35655.35
933.305	2020.9902	36379.65	35489.25
933.4424	2022.5672	36260.45	35368.1
933.5798	2024.1433	36217.6	35322.05
933.7171	2025.7188	36027.75	35137.25
933.8544	2027.2935	35995	35105.4
933.9917	2028.8674	35818.65	34929.3
934.129	2030.4406	35674.3	34787.7
934.2662	2032.0131	35526.05	34637.4
934.4034	2033.5849	35413.95	34518.9
934.5406	2035.1559	35358.85	34465.35
934.6778	2036.7261	35317.65	34426.85
934.8149	2038.2957	35161.75	34272.05
934.952	2039.8645	35076.4	34187.2
935.0891	2041.4325	35067.8	34173.35
935.2262	2042.9998	34855.3	33965
935.3632	2044.5664	34802.9	33912.2
935.5002	2046.1323	34743.75	33852.8
935.6372	2047.6974	34547.5	33656.9
935.7742	2049.2617	34460.45	33570.3
935.9111	2050.8254	34402.35	33489.8
936.048	2052.3883	34387.6	33495.35
936.1849	2053.9504	34254.5	33364.1
936.3218	2055.5118	34090.6	33199.2
936.4586	2057.0725	33941.35	33047.15
936.5955	2058.6325	33861.4	32969.55
936.7323	2060.1917	33769.8	32880.9
936.869	2061.7502	33683.4	32789.15
937.0058	2063.3079	33501.3	32611.55
937.1425	2064.8649	33442.35	32548.5
937.2792	2066.4212	33299.9	32409.05
937.4159	2067.9767	33235.75	32344.95
937.5525	2069.5315	33067	32176.45
937.6891	2071.0856	32916.75	32026.95
937.8257	2072.6389	32779.05	31887.05
937.9623	2074.1915	32588.1	31699.5
938.0989	2075.7433	32476.05	31583.75
938.2354	2077.2945	32397.9	31510.35
938.3719	2078.8448	32271.15	31379.95
938.5084	2080.3945	32187.6	31297.15
938.6448	2081.9434	32152.6	31261.05
938.7812	2083.4916	32028.45	31138.55
938.9176	2085.039	31855.55	30961.95
939.054	2086.5857	31823.2	30930.05
939.1903	2088.1317	31742.45	30852.4
939.3267	2089.677	31631.2	30740.25
939.463	2091.2215	31517.4	30625.75
939.5992	2092.7652	31438.45	30547.45
939.7355	2094.3083	31310.85	30418.9
939.8717	2095.8506	31308.95	30418.35
940.0079	2097.3921	31283.95	30392.6
940.1441	2098.933	31133.3	30239.9
940.2802	2100.4731	31027.95	30138.65
940.4163	2102.0124	30972.9	30075.85
940.5524	2103.5511	30944.55	30054.25
940.6885	2105.089	30832.55	29941
940.8245	2106.6261	30758.1	29866.45
940.9606	2108.1626	30662.35	29771.25
941.0965	2109.6983	30575.9	29659.05
941.2325	2111.2332	30446.55	29554.25
941.3684	2112.7675	30380.95	29489.15
941.5044	2114.301	30247.75	29355.95
941.6403	2115.8337	30253.05	29360.95
941.7761	2117.3657	30146.2	29254.85
941.912	2118.897	30061.7	29169.65
942.0478	2120.4276	29929.9	29033.5
942.1835	2121.9575	29773.55	28882.25
942.3193	2123.4866	29802.7	28897.55
942.455	2125.0149	29721	28828.8
942.5907	2126.5426	29514.6	28623.6
942.7264	2128.0695	29457.45	28561.45
942.8621	2129.5956	29395.6	28507.3
942.9977	2131.1211	29309.4	28412.95
943.1333	2132.6458	29222.35	28332.3
943.2689	2134.1698	29151.05	28260.4
943.4044	2135.693	29083.8	28190.95
943.54	2137.2155	29014.4	28120
943.6755	2138.7373	28957.35	28066.25
943.8109	2140.2584	28796.6	27906.15
943.9464	2141.7787	28704.6	27808.05
944.0818	2143.2983	28565.6	27675.8
944.2172	2144.8171	28443.75	27553.55
944.3526	2146.3353	28342.4	27449.4
944.4879	2147.8527	28192.55	27304.3
944.6232	2149.3693	28215.9	27325.45
944.7585	2150.8853	28100	27207.9
944.8938	2152.4005	27960	27068.3
945.029	2153.9149	27882.9	26991.75
945.1642	2155.4287	27790.2	26900.15
945.2994	2156.9417	27721.8	26829.3
945.4346	2158.454	27646.3	26752.95
945.5697	2159.9655	27571.55	26680.4
945.7048	2161.4764	27550.05	26658.75
945.8399	2162.9865	27422.7	26532.1
945.9749	2164.4958	27369	26476.6
946.1099	2166.0045	27222.2	26328.7
946.2449	2167.5124	27241.3	26350.5
946.3799	2169.0195	27118.65	26230.3
946.5148	2170.526	27064.8	26173.45
946.6498	2172.0317	26960.8	26070.65
946.7846	2173.5367	26918.05	26026.4
946.9195	2175.0409	26834.3	25945.7
947.0543	2176.5445	26849.3	25959.4
947.1891	2178.0473	26680.75	25789.95
947.3239	2179.5494	26575.5	25681.15
947.4587	2181.0507	26462.75	25572.5
947.5934	2182.5513	26394.95	25506.65
947.7281	2184.0512	26363.45	25471.95
947.8628	2185.5504	26234.8	25344.65
947.9974	2187.0488	26089.05	25197.7
948.132	2188.5465	26013.95	25122.15
948.2666	2190.0435	25915.15	25023.9
948.4012	2191.5397	25810.8	24919.1
948.5357	2193.0353	25738.6	24848.55
948.6702	2194.5301	25593.4	24701.25
948.8047	2196.0241	25520.7	24629.65
948.9392	2197.5175	25457.35	24567.65
949.0736	2199.0101	25360.3	24464.8
949.208	2200.502	25212.65	24323.3
949.3424	2201.9931	25102.7	24212.05
949.4767	2203.4835	25048.55	24155.6
949.611	2204.9733	24974.9	24076.15
949.7453	2206.4622	24910	24018.15
949.8796	2207.9505	24842.65	23949.15
950.0138	2209.438	24662.45	23773.65
950.148	2210.9248	24615.15	23723.95
950.2822	2212.4109	24472.7	23583.2
950.4164	2213.8962	24427.55	23533.5
950.5505	2215.3809	24336.9	23443.5
950.6846	2216.8648	24295.25	23402.45
950.8186	2218.3479	24223.4	23325.35
950.9527	2219.8304	24077.5	23184.05
951.0867	2221.3121	23982.45	23089.6
951.2207	2222.7931	23927.3	23038.15
951.3546	2224.2733	23864.65	22972.7
951.4886	2225.7529	23766.4	22875.15
951.6225	2227.2317	23667.85	22777.3
951.7563	2228.7098	23659.85	22767.7
951.8902	2230.1872	23495.5	22604.25
952.024	2231.6638	23492.85	22603.15
952.1578	2233.1397	23354.45	22456.45
952.2916	2234.6149	23290.3	22398.8
952.4253	2236.0894	23179.25	22286
952.559	2237.5632	23152.7	22260.95
952.6927	2239.0362	23015.05	22126.05
952.8263	2240.5085	22971	22080.55
952.9599	2241.9801	22929.05	22037.7
953.0935	2243.4509	22851.1	21958.8
953.2271	2244.921	22754.45	21863.9
953.3606	2246.3904	22631.95	21739.4
953.4941	2247.8591	22567.55	21677.45
953.6276	2249.3271	22517.7	21627.55
953.7611	2250.7943	22431.85	21541.25
953.8945	2252.2608	22367.85	21476.5
954.0279	2253.7266	22300.05	21410.25
954.1612	2255.1917	22202	21311.45
954.2946	2256.656	22124.2	21233
954.4279	2258.1197	22082.15	21192.1
954.5612	2259.5826	22030.85	21138.45
954.6944	2261.0447	21965.35	21073.7
954.8276	2262.5062	21828.35	20934.6
954.9608	2263.9669	21800.5	20907.35
955.094	2265.4269	21738.85	20849
955.2271	2266.8862	21684.05	20794.1
955.3602	2268.3448	21593.55	20702.4
955.4933	2269.8026	21566.9	20677.5
955.6264	2271.2598	21456.85	20565.3
955.7594	2272.7162	21407.45	20517.95
955.8924	2274.1719	21366.4	20476.25
956.0253	2275.6268	21292.3	20402.4
956.1583	2277.0811	21238.4	20345.55
956.2912	2278.5346	21167.15	20277.5
956.4241	2279.9874	21083.25	20191.35
956.5569	2281.4395	21077.45	20186.8
956.6897	2282.8908	20930.15	20033.4
956.8225	2284.3414	20921.55	20028.65
956.9553	2285.7914	20869.8	19977.95
957.088	2287.2406	20775.7	19883.55
957.2207	2288.689	20724.6	19832.8
957.3534	2290.1368	20652.6	19759.45
957.486	2291.5838	20575	19680.6
957.6186	2293.0302	20536.1	19644.15
957.7512	2294.4758	20411.5	19520.85
957.8838	2295.9206	20346.15	19454.1
958.0163	2297.3648	20292.75	19403.35
958.1488	2298.8082	20232.1	19341.4
958.2813	2300.251	20192.75	19301.85
958.4137	2301.693	20114.5	19222.15
958.5461	2303.1343	20092.95	19200.15
958.6785	2304.5748	19999.75	19109.05
958.8108	2306.0147	19950.4	19059.9
958.9432	2307.4538	19857.55	18963.6
959.0754	2308.8922	19796.85	18907.55
959.2077	2310.3299	19708.8	18818.95
959.3399	2311.7669	19658.7	18768.95
959.4721	2313.2031	19587.55	18698.25
959.6043	2314.6387	19511.95	18621.6
959.7365	2316.0735	19438.45	18547.15
959.8686	2317.5076	19404	18513.05
960.0006	2318.941	19342.7	18451.85
960.1327	2320.3737	19263.7	18374.55
960.2647	2321.8056	19248.1	18354.5
960.3967	2323.2369	19141.2	18249.55
960.5287	2324.6674	19086.55	18192.2
960.6606	2326.0972	19013.55	18122
960.7925	2327.5263	18945	18056.45
960.9244	2328.9547	18909.9	18019.95
961.0562	2330.3823	18834.1	17943.15
961.1881	2331.8092	18810.4	17916.05
961.3198	2333.2355	18693.9	17802
961.4516	2334.661	18695.05	17802.5
961.5833	2336.0858	18669.55	17775.7
961.715	2337.5098	18563	17671.5
961.8467	2338.9332	18526.85	17634.8
961.9783	2340.3558	18481.5	17586.7
962.1099	2341.7778	18376.9	17485.3
962.2415	2343.199	18318.75	17425.15
962.373	2344.6195	18273.05	17383.1
962.5045	2346.0393	18189.15	17298.85
962.636	2347.4583	18191.1	17297.25
962.7675	2348.8767	18115.55	17223.25
962.8989	2350.2943	18084.95	17192.2
963.0303	2351.7113	18029.1	17136.2
963.1617	2353.1275	17970.95	17079.8
963.293	2354.543	17891.15	16993.3
963.4243	2355.9578	17811.25	16921.4
963.5556	2357.3718	17700.2	16811.3
963.6868	2358.7852	17647.25	16752.65
963.818	2360.1978	17588.7	16698
963.9492	2361.6098	17552.25	16661
964.0803	2363.021	17505.55	16610.25
964.2114	2364.4315	17443.7	16553
964.3425	2365.8413	17363.2	16470.2
964.4736	2367.2504	17300.45	16410.35
964.6046	2368.6587	17220.7	16332
964.7356	2370.0664	17154	16264.4
964.8666	2371.4733	17082.7	16192.45
964.9975	2372.8795	17015.55	16124.85
965.1284	2374.285	16957.7	16067.55
965.2593	2375.6899	16867.15	15977.1
965.3901	2377.0939	16794.6	15903.65
965.5209	2378.4973	16736.3	15846.45
965.6517	2379.9	16699.4	15808.15
965.7825	2381.3019	16644.7	15752.35
965.9132	2382.7032	16576.6	15688.2
966.0439	2384.1037	16521	15632.2
966.1745	2385.5035	16461.95	15572.15
966.3051	2386.9027	16395.2	15505.7
966.4357	2388.3011	16338.3	15445.6
966.5663	2389.6987	16293.6	15402.05
966.6968	2391.0957	16211.5	15322.5
966.8273	2392.492	16168.8	15280.45
966.9578	2393.8876	16058.35	15166.65
967.0882	2395.2824	15980.65	15091.65
967.2186	2396.6765	15930.25	15039.45
967.349	2398.07	15870.25	14979.85
967.4793	2399.4627	15838.6	14944.95
967.6097	2400.8547	15760.45	14871.25
967.7399	2402.246	15733.5	14837.95
967.8702	2403.6366	15623.8	14734.3
968.0004	2405.0265	15556.9	14669.3
968.1306	2406.4156	15508.45	14613.4
968.2607	2407.8041	15441.3	14550.1
968.3909	2409.1918	15400.45	14509.8
968.521	2410.5789	15342.45	14452.15
968.651	2411.9652	15303.45	14411.1
968.781	2413.3508	15254.95	14363.95
968.911	2414.7358	15180.05	14290.75
969.041	2416.12	15109.7	14219.95
969.1709	2417.5035	15049.95	14161.45
969.3008	2418.8863	14968.95	14078
969.4307	2420.2684	14942.4	14052.6
969.5606	2421.6497	14886.75	13996.7
969.6904	2423.0304	14789.55	13899.85
969.8201	2424.4104	14755.35	13866.05
969.9499	2425.7896	14697.2	13804.85
970.0796	2427.1682	14663.95	13772.9
970.2093	2428.546	14612.4	13720.65
970.3389	2429.9232	14586.25	13693.65
970.4685	2431.2996	14561	13671.2
970.5981	2432.6753	14497.25	13609.5
970.7277	2434.0503	14441.8	13551.5
970.8572	2435.4246	14362.3	13471.75
970.9867	2436.7982	14323.55	13430.7
971.1161	2438.1711	14291.35	13400.6
971.2456	2439.5433	14258.85	13370
971.375	2440.9148	14206.05	13309.9
971.5043	2442.2856	14096.35	13205.55
971.6336	2443.6557	14061.5	13168.95
971.7629	2445.025	14029.2	13139.05
971.8922	2446.3937	14005.7	13115.35
972.0214	2447.7617	13922.5	13032.05
972.1506	2449.1289	13898.45	13008.6
972.2798	2450.4955	13889.75	12996.75
972.4089	2451.8613	13846.15	12956.2
972.538	2453.2265	13813.5	12924.1
972.6671	2454.5909	13737.85	12847.7
972.7961	2455.9546	13722.1	12832.75
972.9251	2457.3177	13638.4	12748.5
973.0541	2458.68	13626.35	12734.05
973.1831	2460.0416	13585.2	12695.15
973.312	2461.4025	13591.35	12699.05
973.4408	2462.7627	13540	12639.65
973.5697	2464.1222	13499.15	12610.7
973.6985	2465.4811	13423.3	12531.4
973.8273	2466.8392	13381.5	12491.4
973.956	2468.1966	13345.1	12453.75
974.0847	2469.5533	13312.8	12418.9
974.2134	2470.9093	13304	12413.15
974.3421	2472.2645	13219.25	12327.65
974.4707	2473.6191	13188.15	12298.9
974.5993	2474.973	13127.3	12236.35
974.7278	2476.3262	13058.5	12165.8
974.8563	2477.6787	13043.15	12153.75
974.9848	2479.0305	12990.7	12100.9
975.1132	2480.3816	12913.8	12023.25
975.2417	2481.7319	12878.7	11988.9
975.37	2483.0816	12825.3	11934.2
975.4984	2484.4306	12771.7	11881.05
975.6267	2485.7789	12702.7	11812.5
975.755	2487.1264	12663.85	11772.1
975.8833	2488.4733	12618.35	11731.95
976.0115	2489.8195	12596.1	11688.6
976.1397	2491.165	12550.15	11655
976.2678	2492.5097	12478.05	11586.5
976.3959	2493.8538	12430.6	11541
976.524	2495.1972	12353	11462.6
976.6521	2496.5398	12329.75	11438.15
976.7801	2497.8818	12291.95	11402
976.9081	2499.2231	12219	11328.9
977.036	2500.5637	12201.55	11310.35
977.164	2501.9035	12187.25	11295.95
977.2918	2503.2427	12146.55	11251.65
977.4197	2504.5812	12077.5	11185.8
977.5475	2505.919	12051.7	11158.6
977.6753	2507.256	12010.55	11119.5
977.8031	2508.5924	11946.05	11056.6
977.9308	2509.9281	11910.1	11014.1
978.0585	2511.2631	11874.3	10985
978.1861	2512.5974	11851.95	10959.05
978.3137	2513.9309	11792.65	10900.5
978.4413	2515.2638	11796.9	10880.95
978.5689	2516.596	11733.9	10842.35
978.6964	2517.9275	11663.45	10771.75
978.8239	2519.2583	11642.05	10751.9
978.9513	2520.5884	11581.95	10691.35
979.0788	2521.9178	11518	10627.9
979.2062	2523.2465	11496.9	10606.35
979.3335	2524.5745	11447.15	10555.6
979.4608	2525.9018	11409.05	10517.35
979.5881	2527.2284	11404.4	10516.1
979.7154	2528.5543	11361.55	10473.6
979.8426	2529.8796	11296.1	10405.4
979.9698	2531.2041	11272.2	10381.4
980.0969	2532.5279	11263.95	10377.1
980.224	2533.851	11235.5	10345.35
980.3511	2535.1735	11175.6	10286.5
980.4781	2536.4952	11173.4	10284.25
980.6052	2537.8163	11133.05	10241.05
980.7321	2539.1366	11070.55	10181.5
980.8591	2540.4562	11038.3	10145.2
980.986	2541.7752	11040.55	10151.1
981.1129	2543.0935	11023.6	10131.75
981.2397	2544.411	11009.2	10117.7
981.3665	2545.7279	10971.65	10082.55
981.4933	2547.0441	10920.55	10031.55
981.62	2548.3596	10927.6	10033.35
981.7467	2549.6744	10908.5	10018.25
981.8734	2550.9885	10843.65	9946.85
982.0001	2552.3019	10831.2	9941.15
982.1267	2553.6146	10783	9892.1
982.2532	2554.9266	10736.05	9845.65
982.3798	2556.2379	10712.3	9822.4
982.5063	2557.5485	10685.25	9794.4
982.6327	2558.8585	10645.1	9749.35
982.7592	2560.1677	10645.35	9750
982.8856	2561.4762	10609.95	9717.2
983.0119	2562.7841	10580.2	9685.7
983.1383	2564.0913	10529.7	9639.45
983.2646	2565.3977	10527.9	9640.6
983.3908	2566.7035	10496.95	9606.7
983.517	2568.0086	10484.65	9594.6
983.6432	2569.313	10479.5	9589.25
983.7694	2570.6167	10430.7	9538.05
983.8955	2571.9197	10400.6	9509.65
984.0216	2573.222	10393.85	9501.3
984.1476	2574.5236	10366.8	9475.25
984.2737	2575.8246	10306.3	9413.4
984.3996	2577.1248	10321.1	9426.8
984.5256	2578.4244	10287.9	9398.5
984.6515	2579.7232	10269.05	9378.95
984.7774	2581.0214	10260.45	9343.9
984.9032	2582.3189	10202.9	9312.85
985.029	2583.6157	10185.45	9291.7
985.1548	2584.9118	10181.7	9291.4
985.2806	2586.2072	10139.05	9249.3
985.4063	2587.5019	10104.95	9215.2
985.5319	2588.7959	10067.75	9179.35
985.6576	2590.0893	10058.35	9164.9
985.7832	2591.3819	10029.1	9139.85
985.9087	2592.6739	9980.3	9091.1
986.0343	2593.9652	9986.4	9093.6
986.1597	2595.2557	9935	9045.45
986.2852	2596.5456	9859.15	8965.5
986.4106	2597.8348	9830.95	8942.1
986.536	2599.1234	9806.65	8917.55
986.6614	2600.4112	9759.35	8869.3
986.7867	2601.6983	9748.2	8854.75
986.912	2602.9848	9722.6	8828.65
987.0372	2604.2705	9677.4	8779.65
987.1624	2605.5556	9659.9	8770.25
987.2876	2606.84	9625	8734.3
987.4128	2608.1237	9569.4	8678.55
987.5379	2609.4067	9532.8	8642.85
987.6629	2610.689	9512.35	8613.25
987.788	2611.9707	9476.75	8583.9
987.913	2613.2516	9428.5	8535.15
988.0379	2614.5319	9408.6	8518.95
988.1629	2615.8115	9380.9	8489.75
988.2878	2617.0903	9333.25	8441.95
988.4126	2618.3685	9288.7	8398.55
988.5375	2619.6461	9248.45	8358.15
988.6622	2620.9229	9211.1	8321.15
988.787	2622.199	9211.05	8318.7
988.9117	2623.4745	9183.85	8292.15
989.0364	2624.7493	9129.9	8238.95
989.161	2626.0234	9091.2	8202.3
989.2857	2627.2968	9058.65	8169.2
989.4102	2628.5695	9008	8117.5
989.5348	2629.8415	8989.95	8100.05
989.6593	2631.1128	8968.45	8076.55
989.7837	2632.3835	8919.7	8028.3
989.9082	2633.6535	8872.5	7982.4
990.0326	2634.9228	8845.95	7954.95
990.1569	2636.1914	8786.5	7897.55
990.2812	2637.4593	8783.4	7892.25
990.4055	2638.7265	8752.2	7859.4
990.5298	2639.9931	8732.45	7844.55
990.654	2641.259	8736.4	7844.75
990.7782	2642.5242	8711.2	7819.95
990.9023	2643.7887	8658.95	7769.55
991.0264	2645.0525	8642.5	7751.35
991.1505	2646.3156	8613.8	7723.4
991.2745	2647.5781	8578.45	7689.4
991.3985	2648.8398	8528.9	7638.25
991.5225	2650.1009	8539.6	7639.6
991.6464	2651.3613	8474.25	7584.1
991.7703	2652.6211	8457.8	7567.7
991.8942	2653.8801	8418	7530.05
992.018	2655.1385	8421.15	7528
992.1418	2656.3961	8385.8	7497.6
992.2655	2657.6531	8394.65	7505.9
992.3892	2658.9094	8340.95	7450.9
992.5129	2660.1651	8334.3	7444.75
992.6366	2661.42	8304.15	7414.6
992.7602	2662.6743	8293.35	7399.85
992.8837	2663.9279	8269.95	7379.55
993.0073	2665.1808	8228.3	7338.15
993.1307	2666.433	8214.25	7322.1
993.2542	2667.6846	8172.3	7281.15
993.3776	2668.9354	8170.15	7276.95
993.501	2670.1856	8123.3	7231.6
993.6244	2671.4351	8090.45	7201
993.7477	2672.6839	8097.65	7205.95
993.8709	2673.9321	8073.25	7183.15
993.9942	2675.1795	8033.35	7143.6
994.1174	2676.4263	8014.95	7124.6
994.2405	2677.6724	8020.35	7132
994.3637	2678.9179	7967.8	7076.6
994.4868	2680.1626	7947.85	7057.6
994.6098	2681.4067	7938.75	7048.75
994.7328	2682.6501	7894.35	7003.4
994.8558	2683.8928	7862.05	6971.75
994.9788	2685.1348	7847.65	6959.15
995.1017	2686.3761	7816.75	6926
995.2245	2687.6168	7778.55	6888.75
995.3474	2688.8568	7778.3	6887.2
995.4702	2690.0961	7743.15	6854.45
995.5929	2691.3348	7700.25	6811.4
995.7156	2692.5727	7697.85	6805.3
995.8383	2693.81	7666.75	6776.3
995.961	2695.0466	7657.5	6768.55
996.0836	2696.2826	7629.9	6738.75
996.2062	2697.5178	7606.05	6712.2
996.3287	2698.7524	7556.5	6665.8
996.4512	2699.9863	7569.85	6677.6
996.5737	2701.2195	7515.9	6627.4
996.6961	2702.452	7511.25	6619.3
996.8185	2703.6839	7482.2	6591.85
996.9408	2704.9151	7456.2	6565.6
997.0631	2706.1456	7431.6	6542.4
997.1854	2707.3755	7408.05	6516.4
997.3077	2708.6046	7416.7	6524.3
997.4299	2709.8331	7376.15	6484.9
997.552	2711.0609	7367	6475.05
997.6742	2712.2881	7341.2	6452.65
997.7963	2713.5145	7311.4	6418.7
997.9183	2714.7403	7306.8	6418.65
998.0403	2715.9654	7280.9	6389.15
998.1623	2717.1899	7293.2	6387.85
998.2842	2718.4136	7272.1	6382.9
998.4062	2719.6367	7233	6342.4
998.528	2720.8591	7229.35	6331.7
998.6498	2722.0809	7197.5	6308.35
998.7716	2723.3019	7188.45	6294.1
998.8934	2724.5223	7189.7	6297.7
999.0151	2725.7421	7152.4	6259.2
999.1368	2726.9611	7130.6	6235.7
999.2584	2728.1795	7117.7	6221.45
999.38	2729.3972	7080.8	6188.85
999.5016	2730.6142	7037.45	6133.7
999.6231	2731.8306	6998.65	6106.95
999.7446	2733.0462	6963.85	6071.75
999.8661	2734.2612	6928.8	6034.6
999.9875	2735.4756	6879.95	5988.8
1000.1089	2736.6892	6837	5947.5
1000.2302	2737.9022	6809.7	5920
1000.3515	2739.1145	6750.1	5858.45
1000.4728	2740.3262	6742.2	5844.65
1000.594	2741.5372	6701	5810.2
1000.7152	2742.7475	6666.7	5777.15
1000.8363	2743.9571	6649.15	5759.55
1000.9575	2745.1661	6637	5740.7
1001.0785	2746.3744	6597.45	5705.3
1001.1996	2747.582	6554.7	5664.65
1001.3206	2748.7889	6525.7	5635.45
1001.4415	2749.9952	6521.65	5632.9
1001.5625	2751.2008	6505.95	5614.3
1001.6833	2752.4057	6466.65	5575.65
1001.8042	2753.61	6437.75	5548.05
1001.925	2754.8136	6428.8	5535.05
1002.0458	2756.0165	6410.7	5521.05
1002.1665	2757.2188	6391.5	5504.2
1002.2872	2758.4204	6336	5446.55
1002.4078	2759.6213	6318.6	5425.7
1002.5285	2760.8215	6314.25	5419.8
1002.649	2762.0211	6302.5	5411.7
1002.7696	2763.22	6271.7	5378.45
1002.8901	2764.4182	6262.1	5371.9
1003.0106	2765.6158	6242.9	5353.15
1003.131	2766.8127	6213.7	5323.25
1003.2514	2768.009	6171.25	5281.7
1003.3717	2769.2045	6178.9	5286.35
1003.492	2770.3994	6130.15	5239
1003.6123	2771.5936	6135.35	5245.65
1003.7325	2772.7872	6111.55	5221.55
1003.8527	2773.9801	6072.8	5181.3
1003.9729	2775.1723	6070.35	5162.8
1004.093	2776.3639	6047.85	5158.8
1004.2131	2777.5548	6003.15	5112.6
1004.3331	2778.745	5994.8	5104.65
1004.4531	2779.9346	5964.85	5074.9
1004.5731	2781.1235	5972.35	5081.3
1004.693	2782.3117	5947.25	5058.65
1004.8129	2783.4992	5939.7	5049.95
1004.9328	2784.6861	5906.95	5015.9
1005.0526	2785.8723	5887.25	4994.8
1005.1723	2787.0579	5878.95	4985.85
1005.2921	2788.2428	5864.65	4974.2
1005.4118	2789.427	5853.45	4965.1
1005.5314	2790.6106	5833.75	4945.25
1005.651	2791.7935	5839.1	4951
1005.7706	2792.9757	5810.85	4923.25
1005.8902	2794.1573	5810.15	4918.3
1006.0097	2795.3382	5813.05	4921.65
1006.1291	2796.5184	5800	4910.35
1006.2485	2797.698	5788.85	4896.5
1006.3679	2798.8769	5803.85	4914
1006.4873	2800.0551	5786.95	4896.75
1006.6066	2801.2327	5784.85	4892.6
1006.7258	2802.4096	5757.9	4868.2
1006.8451	2803.5859	5790.65	4900.95
1006.9642	2804.7615	5777.95	4886.75
1007.0834	2805.9364	5783.4	4894.9
1007.2025	2807.1106	5787	4897.35
1007.3216	2808.2842	5789.1	4898.3
1007.4406	2809.4572	5809.6	4921.35
1007.5596	2810.6294	5831.4	4939.7
1007.6785	2811.801	5858	4969.45
1007.7975	2812.972	5895.35	5007.7
1007.9163	2814.1423	5928.55	5037.05
1008.0352	2815.3119	5942.65	5053.15
1008.154	2816.4808	5966.65	5076.4
1008.2727	2817.6491	6018.9	5128.45
1008.3914	2818.8167	6030.05	5142.25
1008.5101	2819.9837	6079.2	5184.45
1008.6288	2821.15	6117	5228.5
1008.7474	2822.3157	6131.35	5243.65
1008.8659	2823.4807	6159.55	5270.4
1008.9844	2824.645	6197.6	5305.9
1009.1029	2825.8086	6210.55	5320.8
1009.2214	2826.9716	6254.25	5365.3
1009.3398	2828.134	6282.85	5392.5
1009.4581	2829.2957	6318.15	5427.4
1009.5764	2830.4567	6322.65	5435.25
1009.6947	2831.617	6312.5	5421.95
1009.813	2832.7767	6323.2	5433.75
1009.9312	2833.9358	6309.7	5422.8
1010.0493	2835.0941	6273.5	5381.2
1010.1675	2836.2519	6270.5	5380.8
1010.2855	2837.4089	6255.95	5363.5
1010.4036	2838.5653	6229.8	5340.8
1010.5216	2839.7211	6222	5334.6
1010.6396	2840.8761	6230.1	5338.35
1010.7575	2842.0306	6233.15	5345.6
1010.8754	2843.1843	6262.1	5370.5
1010.9932	2844.3374	6277.25	5389.6
1011.111	2845.4899	6341.8	5452.55
1011.2288	2846.6417	6402.2	5512
1011.3465	2847.7928	6435.45	5547.6
1011.4642	2848.9433	6495.3	5605.8
1011.5818	2850.0931	6559.7	5670.9
1011.6995	2851.2422	6633.75	5741.1
1011.817	2852.3907	6687.35	5794.9
1011.9345	2853.5385	6728.8	5834.75
1012.052	2854.6857	6795.75	5881.55
1012.1695	2855.8323	6832.6	5945.55
1012.2869	2856.9781	6867.75	5979.75
1012.4042	2858.1233	6887.7	5996.65
1012.5216	2859.2679	6919.6	6031.6
1012.6389	2860.4118	6957.65	6066.95
1012.7561	2861.555	6966.8	6069.65
1012.8733	2862.6976	6987.1	6093.4
1012.9905	2863.8395	6990.95	6100.25
1013.1076	2864.9808	7006.65	6118.25
1013.2247	2866.1214	7008.5	6119.35
1013.3417	2867.2614	7003.9	6114.55
1013.4587	2868.4007	6993.8	6103.5
1013.5757	2869.5393	6991.7	6098.9
1013.6926	2870.6773	6995.25	6101.05
1013.8095	2871.8146	7006.6	6112.55
1013.9263	2872.9513	6992.3	6099.65
1014.0431	2874.0874	6952.7	6062.85
1014.1599	2875.2227	6946.25	6055
1014.2766	2876.3574	6904.25	6015.9
1014.3933	2877.4915	6857.15	5968.85
1014.51	2878.6249	6804.95	5916.25
1014.6266	2879.7577	6773.15	5882.2
1014.7431	2880.8898	6771.9	5872.8
1014.8596	2882.0212	6723.65	5834.8
1014.9761	2883.152	6689.1	5799.2
1015.0925	2884.2821	6668.45	5779.65
1015.2089	2885.4116	6629.55	5741.85
1015.3253	2886.5405	6617.85	5728.7
1015.4416	2887.6686	6616.35	5724.8
1015.5579	2888.7962	6611.65	5722.7
1015.6741	2889.923	6612.5	5724.7
1015.7903	2891.0493	6608.55	5720.3
1015.9065	2892.1748	6586.6	5694.85
1016.0226	2893.2997	6591.3	5700.55
1016.1387	2894.424	6601.15	5712.15
1016.2547	2895.5476	6583.8	5695
1016.3707	2896.6706	6600.55	5712.9
1016.4866	2897.7929	6622.75	5733.15
1016.6025	2898.9145	6641.45	5751.65
1016.7184	2900.0355	6654.15	5764.6
1016.8342	2901.1559	6664.45	5772.1
1016.95	2902.2756	6666.9	5777.3
1017.0658	2903.3946	6691.75	5803.55
1017.1815	2904.513	6704	5811.5
1017.2971	2905.6308	6705.7	5815.35
1017.4127	2906.7479	6718.15	5828.1
1017.5283	2907.8643	6742.25	5853.5
1017.6439	2908.9801	6734.75	5845.1
1017.7594	2910.0953	6723.1	5833
1017.8748	2911.2098	6729.25	5838.4
1017.9902	2912.3236	6694	5794.4
1018.1056	2913.4368	6650.35	5758.3
1018.2209	2914.5494	6641.65	5751.45
1018.3362	2915.6613	6597.25	5702.65
1018.4515	2916.7725	6573.2	5681.75
1018.5667	2917.8831	6550.1	5659.45
1018.6819	2918.9931	6492.65	5601.95
1018.797	2920.1024	6454.2	5562.3
1018.9121	2921.211	6407.15	5514.6
1019.0271	2922.319	6394.3	5506.4
1019.1421	2923.4264	6357.15	5468.7
1019.2571	2924.5331	6340.65	5452.65
1019.372	2925.6391	6287.75	5398.4
1019.4869	2926.7445	6294.15	5405.1
1019.6017	2927.8493	6276.75	5389.6
1019.7165	2928.9534	6242.3	5351.95
1019.8313	2930.0569	6226.55	5335.25
1019.946	2931.1597	6219.4	5328.35
1020.0606	2932.2619	6193.7	5304.45
1020.1753	2933.3634	6175.05	5287
1020.2899	2934.4643	6174.55	5276.8
1020.4044	2935.5645	6151.05	5253.85
1020.5189	2936.6641	6116.4	5221.85
1020.6334	2937.763	6032.5	5142.95
1020.7478	2938.8613	5991.3	5101.3
1020.8622	2939.959	5904.2	5010.85
1020.9765	2941.056	5835.15	4946.9
1021.0908	2942.1523	5743.9	4853
1021.2051	2943.248	5640.25	4749.6
1021.3193	2944.3431	5532.35	4643.7
1021.4334	2945.4375	5423	4532.9
1021.5476	2946.5313	5316.15	4427.15
1021.6617	2947.6244	5210.65	4320.3
1021.7757	2948.7169	5096.65	4204.45
1021.8897	2949.8087	4996.4	4107.55
1022.0037	2950.8999	4875	3986.7
1022.1176	2951.9904	4793.05	3902.85
1022.2315	2953.0803	4717.1	3828.4
1022.3453	2954.1696	4628	3739.6
1022.4591	2955.2582	4575.45	3688.1
1022.5728	2956.3462	4523.35	3633.85
1022.6865	2957.4335	4469.4	3579.15
1022.8002	2958.5202	4414.6	3522.05
1022.9138	2959.6062	4395.3	3504.4
1023.0274	2960.6916	4358.55	3470.15
1023.141	2961.7764	4313.35	3423.25
1023.2545	2962.8605	4302.8	3413.85
1023.3679	2963.9439	4272.15	3382.5
1023.4813	2965.0267	4267.4	3378.15
1023.5947	2966.1089	4258.85	3348.4
1023.708	2967.1905	4208.4	3319.6
1023.8213	2968.2714	4203.05	3314.45
1023.9346	2969.3516	4188.55	3301.85
1024.0478	2970.4312	4178.35	3282.1
1024.1609	2971.5102	4153.65	3262.8
1024.274	2972.5885	4144.55	3254.95
1024.3871	2973.6662	4154.6	3261
1024.5002	2974.7432	4142.05	3253.3
1024.6132	2975.8196	4103.95	3213.35
1024.7261	2976.8954	4096.5	3207
1024.839	2977.9705	4083.35	3194.5
1024.9519	2979.045	4059.95	3169.65
1025.0647	2980.1188	4021.75	3134.5
1025.1775	2981.192	3997.3	3108.35
1025.2902	2982.2645	3961.55	3071.6
1025.4029	2983.3364	3939.05	3049.15
1025.5156	2984.4077	3885.2	2996.95
1025.6282	2985.4783	3856.45	2959.55
1025.7407	2986.5483	3816.75	2929.05
1025.8532	2987.6177	3759.75	2870.45
1025.9657	2988.6864	3739.35	2849.3
1026.0782	2989.7545	3704.8	2814.65
1026.1906	2990.8219	3663.4	2774.6
1026.3029	2991.8887	3617.05	2727.45
1026.4152	2992.9548	3579.4	2688.7
1026.5275	2994.0204	3550.25	2663
1026.6397	2995.0852	3504.15	2617.15
1026.7519	2996.1495	3475.8	2585.3
1026.864	2997.2131	3428.5	2540.1
1026.9761	2998.276	3413.2	2523.25
1027.0882	2999.3383	3385.5	2495.75
1027.2002	3000.4	3356.9	2465.85
1027.3122	3001.4611	3336.85	2448.9
1027.4241	3002.5215	3324.75	2435.2
1027.536	3003.5812	3296	2406.95
1027.6478	3004.6404	3276.95	2390.8
1027.7596	3005.6989	3269.55	2377.2
1027.8714	3006.7567	3240.25	2352.35
1027.9831	3007.8139	3234	2323.25
1028.0947	3008.8705	3200.1	2311.45
1028.2064	3009.9264	3204.2	2312.55
1028.3179	3010.9818	3191.6	2302.25
1028.4295	3012.0364	3174	2283.6
1028.541	3013.0905	3160.75	2271.4
1028.6524	3014.1439	3156.95	2266
1028.7638	3015.1966	3145.8	2256.25
1028.8752	3016.2487	3136.8	2247.5
1028.9865	3017.3002	3130.1	2238.6
1029.0978	3018.3511	3119	2232.55
1029.209	3019.4013	3122.15	2232
1029.3202	3020.4509	3113.6	2225.85
1029.4314	3021.4998	3102.05	2212.95
1029.5425	3022.5481	3097.4	2207.75
1029.6535	3023.5958	3089.35	2199.8
1029.7645	3024.6428	3084.95	2194
1029.8755	3025.6892	3074.9	2186.6
1029.9864	3026.735	3065.2	2174.75
1030.0973	3027.7802	3048.9	2161.6
1030.2082	3028.8247	3034.1	2146.55
1030.319	3029.8685	3033.1	2142.5
1030.4297	3030.9118	3038.2	2148.2
1030.5404	3031.9544	3032.95	2145.3
1030.6511	3032.9963	3029.65	2140.3
1030.7617	3034.0376	3021.45	2131.15
1030.8723	3035.0783	3028.4	2136.45
1030.9829	3036.1184	3020.1	2129.95
1031.0934	3037.1578	3017.3	2127.85
1031.2038	3038.1966	3005.4	2116.6
1031.3142	3039.2348	3008.3	2121.25
1031.4246	3040.2723	3005.6	2109
1031.5349	3041.3092	2996.85	2107.65
1031.6452	3042.3455	2986.45	2098.4
1031.7554	3043.3811	2966.7	2077.25
1031.8656	3044.4161	2955.55	2064.9
1031.9758	3045.4505	2958.3	2072
1032.0859	3046.4842	2942.9	2054.15
1032.1959	3047.5173	2920.05	2032.4
1032.3059	3048.5498	2906.55	2017.1
1032.4159	3049.5816	2902.2	2013.45
1032.5258	3050.6128	2892.95	2002.35
1032.6357	3051.6434	2878.2	1988.2
1032.7455	3052.6734	2861	1970.55
1032.8553	3053.7027	2855.2	1965.75
1032.9651	3054.7314	2843.2	1954.5
1033.0748	3055.7594	2827.65	1938.05
1033.1845	3056.7868	2810.6	1922.2
1033.2941	3057.8136	2810.5	1921.65
1033.4037	3058.8398	2792.75	1904.8
1033.5132	3059.8653	2764.05	1874.1
1033.6227	3060.8902	2769.25	1881.2
1033.7321	3061.9145	2752.85	1865.1
1033.8415	3062.9381	2748.7	1860.8
1033.9509	3063.9612	2753.2	1847.9
1034.0602	3064.9835	2734.75	1843.55
1034.1694	3066.0053	2705.05	1814.35
1034.2787	3067.0264	2698.65	1811.65
1034.3878	3068.0469	2684.85	1796.75
1034.497	3069.0668	2673.25	1781.1
1034.6061	3070.086	2660	1772.45
1034.7151	3071.1046	2635.05	1746.75
1034.8241	3072.1226	2631.15	1741.15
1034.9331	3073.1399	2614.05	1725.2
1035.042	3074.1567	2603.4	1713.75
1035.1508	3075.1727	2580.45	1690.2
1035.2597	3076.1882	2571.5	1681.85
1035.3684	3077.203	2566.75	1677.4
1035.4772	3078.2173	2551.95	1662
1035.5859	3079.2308	2530.5	1638.45
1035.6945	3080.2438	2524.3	1633.65
1035.8031	3081.2561	2510.2	1620.9
1035.9117	3082.2678	2491.5	1602.95
1036.0202	3083.2789	2487.25	1599.2
1036.1286	3084.2893	2472.9	1582.35
1036.2371	3085.2991	2448.4	1560.25
1036.3454	3086.3083	2468.05	1576.2
1036.4538	3087.3169	2443.5	1553.2
1036.562	3088.3248	2436.4	1546.95
1036.6703	3089.3321	2414.35	1523.2
1036.7785	3090.3388	2409.6	1521.95
1036.8866	3091.3449	2385.55	1495.85
1036.9948	3092.3503	2381.5	1488.5
1037.1028	3093.3551	2377.05	1489.2
1037.2108	3094.3593	2370.15	1481.25
1037.3188	3095.3629	2356.5	1468.35
1037.4267	3096.3658	2348.4	1458.05
1037.5346	3097.3681	2348.9	1459.65
1037.6425	3098.3698	2328.6	1439.1
1037.7503	3099.3708	2314.3	1419.2
1037.858	3100.3713	2308.45	1419.7
1037.9657	3101.3711	2294.3	1405
1038.0734	3102.3702	2420.25	1391.05
1038.181	3103.3688	2311.25	1420.35
1038.2886	3104.3667	2275.75	1387.5
1038.3961	3105.364	2260.05	1372.8
1038.5036	3106.3607	2253.05	1362.6
1038.611	3107.3568	2255.05	1364.5
1038.7184	3108.3522	2252.05	1366.75
1038.8257	3109.347	2229.15	1339.25
1038.933	3110.3412	2230.9	1338
1039.0403	3111.3348	2217.45	1329.1
1039.1475	3112.3277	2206.7	1315.55
1039.2547	3113.32	2206.05	1319.35
1039.3618	3114.3117	2198.4	1308.65
1039.4689	3115.3028	2195.5	1307.45
1039.5759	3116.2932	2181.65	1291.5
1039.6829	3117.2831	2182.95	1285.6
1039.7898	3118.2723	2169.55	1281.05
1039.8967	3119.2608	2166.15	1275.85
1040.0035	3120.2488	2157.2	1268.1
1040.1103	3121.2361	2149.7	1260
1040.2171	3122.2229	2140.15	1252.2
1040.3238	3123.209	2131.35	1242.05
1040.4305	3124.1944	2129.1	1239
1040.5371	3125.1793	2118.85	1230.85
1040.6437	3126.1635	2119.65	1232.6
1040.7502	3127.1471	2097.2	1208.95
1040.8567	3128.1301	2098.6	1211.6
1040.9631	3129.1125	2081.5	1192.35
1041.0695	3130.0942	2081.45	1192.8
1041.1759	3131.0753	2090.45	1191.25
1041.2822	3132.0558	2077.05	1183.6
1041.3884	3133.0357	2077.75	1189.65
1041.4946	3134.015	2062.85	1173.75
1041.6008	3134.9936	2061.85	1172.15
1041.7069	3135.9716	2080.9	1172.55
1041.813	3136.949	2047.4	1157.7
1041.919	3137.9258	2048.2	1155.6
1042.025	3138.902	2041.25	1146.2
1042.1309	3139.8775	2029.8	1141.15
1042.2368	3140.8524	2018.45	1131.2
1042.3427	3141.8267	2032.35	1141.5
1042.4485	3142.8004	2013.75	1123.9
1042.5542	3143.7735	2015	1119.85
1042.6599	3144.7459	2016.55	1124
1042.7656	3145.7178	2000.1	1109.6
1042.8712	3146.689	1999.5	1111.35
1042.9768	3147.6596	1991.5	1100.25
1043.0823	3148.6295	1986.8	1098.75
1043.1878	3149.5989	1973.45	1083.85
1043.2932	3150.5676	1972.7	1086.9
1043.3986	3151.5357	1965.5	1079.15
1043.5039	3152.5032	1956.2	1067.7
1043.6092	3153.4701	1948.45	1061.85
1043.7145	3154.4364	1936.85	1045.05
1043.8197	3155.402	1934.55	1047.05
1043.9248	3156.367	1935.9	1045.45
1044.03	3157.3315	1963.8	1033.35
1044.135	3158.2952	1929.45	1040.5
1044.24	3159.2584	1919	1030.25
1044.345	3160.221	1912.4	1023.65
1044.4499	3161.1829	1898	1009.8
1044.5548	3162.1442	1899.45	1010.45
1044.6596	3163.105	1887.35	999.05
1044.7644	3164.065	1885.75	997.35
1044.8692	3165.0245	1879.05	987.35
1044.9739	3165.9834	1878.35	991.1
1045.0785	3166.9416	1868.5	980.95
1045.1831	3167.8993	1871.85	983.75
1045.2877	3168.8563	1864.65	973.55
1045.3922	3169.8127	1849.65	960.4
1045.4966	3170.7684	1855.55	966.75
1045.6011	3171.7236	1846.1	957.4
1045.7054	3172.6782	1840.45	952.55
1045.8098	3173.6321	1830	938.75
1045.914	3174.5854	1829.95	936.55
1046.0183	3175.5381	1819.6	930.2
1046.1224	3176.4902	1820.8	932.45
1046.2266	3177.4417	1800.75	913.85
1046.3307	3178.3926	1807.15	919.65
1046.4347	3179.3428	1798.5	912.05
1046.5387	3180.2924	1797.85	909.45
1046.6427	3181.2415	1792.65	902.75
1046.7466	3182.1899	1783.95	894.2
1046.8504	3183.1377	1779.1	890.6
1046.9542	3184.0848	1776.65	885.95
1047.058	3185.0314	1765.8	878
1047.1617	3185.9773	1766.15	877
1047.2654	3186.9227	1761.9	873.35
1047.369	3187.8674	1759.25	869.65
1047.4726	3188.8115	1751.95	859.05
1047.5761	3189.755	1744.2	857.75
1047.6796	3190.6979	1744.45	855.45
1047.783	3191.6402	1736.5	848.8
1047.8864	3192.5818	1732.25	844.65
1047.9898	3193.5229	1748.5	834.55
1048.0931	3194.4633	1741	851.3
1048.1963	3195.4031	1728.95	839.35
1048.2995	3196.3423	1717.1	830.65
1048.4027	3197.2809	1713.85	826.15
1048.5058	3198.2189	1710.55	822.35
1048.6089	3199.1563	1714.05	819.4
1048.7119	3200.0931	1704.9	816.75
1048.8148	3201.0292	1690.85	803.75
1048.9178	3201.9648	1693.2	804.85
1049.0206	3202.8997	1690.75	798.3
1049.1235	3203.834	1685.9	797.4
1049.2262	3204.7677	1678.55	790.05
1049.329	3205.7008	1679.25	788.75
1049.4317	3206.6333	1669.55	782.9
1049.5343	3207.5652	1663.85	773.7
1049.6369	3208.4964	1661.7	773.5
1049.7394	3209.4271	1656.65	767.15
1049.8419	3210.3571	1659.95	772.5
1049.9444	3211.2865	1651.45	762.5
1050.0468	3212.2154	1652.3	763.7
1050.1491	3213.1436	1656.15	765.5
1050.2514	3214.0712	1644.7	747.05
1050.3537	3214.9982	1646.85	757.15
1050.4559	3215.9246	1636.3	747.85
1050.5581	3216.8503	1634.15	746.55
1050.6602	3217.7755	1623.05	733.95
1050.7623	3218.7001	1626.2	737.5
1050.8643	3219.624	1623.05	737.15
1050.9663	3220.5473	1609.25	719.95
1051.0682	3221.4701	1610.8	721.4
1051.1701	3222.3922	1614.6	724
1051.2719	3223.3137	1600.55	713.05
1051.3737	3224.2346	1595.2	707.8
1051.4754	3225.1549	1596.45	707.5
1051.5771	3226.0746	1593.65	705.5
1051.6788	3226.9937	1590.75	701.75
1051.7804	3227.9121	1573.75	687.25
1051.8819	3228.83	1584.15	696.6
1051.9834	3229.7473	1577.9	687.6
1052.0849	3230.6639	1565.05	676.45
1052.1863	3231.5799	1566.15	677.45
1052.2876	3232.4954	1570.3	681.15
1052.3889	3233.4102	1567.55	679
1052.4902	3234.3244	1554.45	664.15
1052.5914	3235.238	1554.45	666.7
1052.6926	3236.151	1567.25	655.45
1052.7937	3237.0634	1544.45	656.8
1052.8948	3237.9752	1546.1	659.7
1052.9958	3238.8864	1535	646.25
1053.0968	3239.797	1533.7	644.7
1053.1977	3240.7069	1531.2	642.35
1053.2986	3241.6163	1527.5	637.2
1053.3994	3242.5251	1522.5	636.85
1053.5002	3243.4332	1521.45	632.2
1053.6009	3244.3408	1509.6	619.1
1053.7016	3245.2477	1516.7	628.25
1053.8022	3246.154	1511.75	622.55
1053.9028	3247.0598	1495.8	606
1054.0034	3247.9649	1497.95	609.55
1054.1039	3248.8694	1498.3	608.75
1054.2043	3249.7733	1496.65	608.7
1054.3047	3250.6766	1488.65	600.1
1054.4051	3251.5793	1489.4	600.75
1054.5054	3252.4814	1488	600.1
1054.6056	3253.3829	1470.5	582.7
1054.7058	3254.2838	1472.85	584.15
1054.806	3255.1841	1463.1	575.35
1054.9061	3256.0838	1463	577.1
1055.0061	3256.9829	1462.1	574.45
1055.1062	3257.8814	1460.65	571.25
1055.2061	3258.7792	1459.8	569.8
1055.306	3259.6765	1445.55	556.2
1055.4059	3260.5731	1444.2	555.5
1055.5057	3261.4692	1441.35	554
1055.6055	3262.3647	1423.8	534.75
1055.7052	3263.2595	1417.45	530.35
1055.8049	3264.1538	1410.85	523.5
1055.9045	3265.0474	1406.75	517
1056.0041	3265.9404	1404.3	514.65
1056.1036	3266.8329	1389.1	500.75
1056.2031	3267.7247	1383.3	484.2
1056.3025	3268.616	1368.5	481.8
1056.4019	3269.5066	1355.7	468.55
1056.5013	3270.3966	1341.6	451.25
1056.6005	3271.286	1331.55	445.15
