Software Version:	3.9.2.0
Unit SN:	10000200
Spectrometer SN:	6960
Date:	3/6/2024 10:26:41 AM
Data Line Index:	25
Spectral Points:	2048
Integration time (ms):	125
Averages:	20
Delay (ms):	30
Sequence Number:	1
Processing:	dark subtract
Laser Power (mW):	305
Laser Current (mA):	825
Laser Diode Temp (C):	25
Laser Case Temp (C):	25.9
System Temp (C):	25.7
Spectrometer Temp (C):	23.2
CCD Temp (C):	0.013
Secondary Temp (C):	20.007
Heatsink Temp (C):	21.301
CCDPCB Temp (C):	35.551
SecondaryPCB Temp (C):	28.415

Wavelength	RamanShift	Raw Counts	Dark Subtracted
787.061	30.1047	1089.85	678.45
787.2016	32.3739	1117.95	709.25
787.3422	34.6426	1162.05	750.55
787.4828	36.9109	1207.5	795.45
787.6235	39.1787	1254.85	836.9
787.7642	41.4461	1324.45	904.2
787.9049	43.7131	1383.9	960.3
788.0456	45.9796	1440.2	1013.5
788.1863	48.2456	1507.15	1075.5
788.3271	50.5112	1576.55	1143.5
788.4679	52.7764	1640.95	1206.2
788.6087	55.0411	1714.55	1274.4
788.7496	57.3054	1792.2	1346.9
788.8904	59.5692	1872.55	1422.15
789.0313	61.8326	1964.7	1513.9
789.1722	64.0955	2072.05	1614.55
789.3132	66.3579	2182.95	1723.4
789.4541	68.6199	2325.1	1862
789.5951	70.8815	2581.95	2115.6
789.7361	73.1426	3088.7	2614.95
789.8771	75.4032	4404.75	3927.05
790.0181	77.6634	7785.35	7303.25
790.1592	79.9231	16666.35	16177.75
790.3003	82.1824	52945.05	52446.6
790.4414	84.4412	65535	65016.15
790.5825	86.6995	65535	64985.7
790.7237	88.9574	65535	64962.7
790.8648	91.2148	65535	64943.15
791.006	93.4717	65535	64932.4
791.1472	95.7282	65535	64929.05
791.2885	97.9842	65535	64922.95
791.4297	100.2398	65535	64922.95
791.571	102.4949	65535	64916.25
791.7123	104.7495	65535	64916.25
791.8536	107.0036	65535	64914.75
791.9949	109.2573	65535	64917.55
792.1363	111.5105	65535	64915.45
792.2777	113.7632	65535	64912.6
792.4191	116.0154	65535	64896.5
792.5605	118.2672	65535	64906.8
792.7019	120.5185	65535	64903.15
792.8434	122.7693	65535	64906.1
792.9849	125.0197	65535	64896.85
793.1264	127.2696	65535	64895.1
793.2679	129.519	65535	64891.15
793.4094	131.7679	65535	64886.35
793.551	134.0163	65535	64882.45
793.6926	136.2642	65535	64882
793.8342	138.5117	65535	64873.85
793.9758	140.7587	65535	64876.8
794.1175	143.0052	65535	64873.25
794.2591	145.2512	65535	64877.8
794.4008	147.4967	65535	64874.25
794.5425	149.7417	65535	64873.5
794.6842	151.9863	65535	64869.6
794.826	154.2304	65535	64865.9
794.9677	156.4739	65535	64859.95
795.1095	158.717	65535	64863.55
795.2513	160.9596	65535	64856.35
795.3931	163.2017	65535	64854.7
795.535	165.4433	65535	64852.8
795.6768	167.6844	65535	64848.6
795.8187	169.925	65535	64849.15
795.9606	172.1651	65535	64846.65
796.1025	174.4047	65535	64841
796.2445	176.6439	65535	64838.1
796.3864	178.8825	65535	64837.85
796.5284	181.1206	65535	64831.3
796.6704	183.3582	65535	64826.8
796.8124	185.5954	65535	64826.7
796.9544	187.832	65535	64823
797.0965	190.0681	65535	64818.5
797.2386	192.3037	65535	64816.35
797.3806	194.5388	65535	64812.45
797.5228	196.7734	65535	64813.75
797.6649	199.0075	65535	64807.85
797.807	201.2411	65535	64807.35
797.9492	203.4742	65535	64808.9
798.0914	205.7068	65535	64806.1
798.2336	207.9389	65535	64805.65
798.3758	210.1704	65535	64801.25
798.518	212.4015	65535	64806.7
798.6603	214.632	65535	64817.2
798.8025	216.862	65535	64821.3
798.9448	219.0915	65535	64823.35
799.0871	221.3205	65535	64819.45
799.2294	223.549	65535	64823.55
799.3718	225.777	65535	64826.7
799.5141	228.0044	65535	64817.5
799.6565	230.2314	65535	64822.15
799.7989	232.4578	65535	64816.15
799.9413	234.6837	65535	64806.9
800.0837	236.909	65535	64806.25
800.2262	239.1339	65535	64777.1
800.3687	241.3582	65535	64797.1
800.5111	243.582	65535	64763.65
800.6536	245.8053	65535	64777.05
800.7961	248.0281	65535	64781.8
800.9387	250.2503	65535	64777.1
801.0812	252.472	65535	64773.6
801.2238	254.6932	65535	64774.3
801.3664	256.9139	65535	64774.55
801.509	259.134	65535	64772.05
801.6516	261.3536	65535	64773.4
801.7942	263.5727	65535	64774.75
801.9369	265.7912	65535	64771
802.0795	268.0092	65535	64766.5
802.2222	270.2267	65535	64767.15
802.3649	272.4436	65535	64770.9
802.5076	274.6601	65535	64757.85
802.6504	276.8759	65535	64761.65
802.7931	279.0913	65535	64763.25
802.9359	281.3061	65535	64762.3
803.0787	283.5204	65535	64761.05
803.2215	285.7341	65535	64754.45
803.3643	287.9473	65535	64741.95
803.5071	290.16	65535	64748.75
803.6499	292.3721	65535	64758
803.7928	294.5837	65535	64752
803.9357	296.7947	65535	64755.1
804.0786	299.0052	65535	64754.95
804.2215	301.2152	65535	64752.55
804.3644	303.4246	65535	64756.1
804.5074	305.6334	65535	64756.1
804.6503	307.8418	65535	64747.7
804.7933	310.0495	65535	64747.55
804.9363	312.2568	65535	64751.6
805.0793	314.4635	65535	64746.65
805.2223	316.6696	65535	64742.45
805.3653	318.8752	65535	64737.8
805.5084	321.0802	65535	64744.8
805.6514	323.2847	65535	64742.25
805.7945	325.4887	65535	64740.05
805.9376	327.692	65535	64740.3
806.0807	329.8949	65535	64739
806.2238	332.0972	65535	64739.3
806.367	334.2989	65535	64734.95
806.5101	336.5001	65535	64738.15
806.6533	338.7007	65535	64734.25
806.7965	340.9008	65535	64731.65
806.9397	343.1003	65535	64729.25
807.0829	345.2992	65535	64731.6
807.2261	347.4976	65535	64729.9
807.3693	349.6955	65535	64724.35
807.5126	351.8927	65535	64722.55
807.6559	354.0895	65535	64713.9
807.7991	356.2856	65535	64720.3
807.9424	358.4812	65535	64725.9
808.0857	360.6763	65535	64719.6
808.2291	362.8707	65535	64718.85
808.3724	365.0646	65535	64718.3
808.5158	367.258	65535	64712.6
808.6591	369.4508	65535	64712.15
808.8025	371.643	65535	64710.65
808.9459	373.8346	65535	64710.2
809.0893	376.0257	65535	64705.7
809.2327	378.2162	65535	64704.35
809.3762	380.4062	65535	64705.85
809.5196	382.5956	65535	64707.55
809.6631	384.7844	65535	64708.95
809.8066	386.9726	65535	64709.45
809.9501	389.1603	65535	64718.8
810.0936	391.3474	65535	64673.2
810.2371	393.5339	65535	64713.95
810.3806	395.7199	65535	64715.3
810.5241	397.9052	65535	64714.45
810.6677	400.09	65535	64715.7
810.8113	402.2743	65535	64717.1
810.9548	404.4579	65535	64713.65
811.0984	406.641	65535	64711.5
811.2421	408.8235	65535	64711.4
811.3857	411.0054	65535	64710.35
811.5293	413.1868	65535	64706.5
811.673	415.3675	65535	64704.7
811.8166	417.5477	65535	64701.15
811.9603	419.7273	65535	64699.2
812.104	421.9064	65535	64689.85
812.2477	424.0848	65535	64695.8
812.3914	426.2627	65535	64694.45
812.5351	428.4399	65535	64691.5
812.6788	430.6166	65535	64694.5
812.8226	432.7928	65535	64692.4
812.9663	434.9683	65535	64688.4
813.1101	437.1432	65535	64690.05
813.2539	439.3176	65535	64689.45
813.3977	441.4914	65535	64690.6
813.5415	443.6645	65535	64688.15
813.6853	445.8371	65535	64687.95
813.8291	448.0091	65535	64692.55
813.973	450.1806	65535	64688.4
814.1168	452.3514	65535	64687.35
814.2607	454.5216	65535	64679.8
814.4046	456.6913	65535	64685.05
814.5485	458.8603	65535	64687.1
814.6924	461.0288	65535	64689.15
814.8363	463.1967	65535	64688.1
814.9802	465.3639	65535	64684.25
815.1241	467.5306	65535	64684.15
815.2681	469.6967	65535	64684.9
815.412	471.8622	65535	64685.15
815.556	474.0271	65535	64685.15
815.7	476.1914	65535	64682.45
815.844	478.3551	65535	64683.5
815.988	480.5182	65535	64684.05
816.132	482.6807	65535	64682.55
816.276	484.8426	65535	64686.25
816.4201	487.0039	65535	64687.7
816.5641	489.1647	65535	64678.4
816.7082	491.3248	65535	64681.25
816.8522	493.4843	65535	64682.4
816.9963	495.6432	65535	64680.8
817.1404	497.8015	65535	64679
817.2845	499.9592	65535	64677.7
817.4286	502.1163	65535	64675.3
817.5727	504.2728	65535	64678.75
817.7168	506.4287	65535	64679.6
817.861	508.5839	65535	64678.95
818.0051	510.7386	65535	64674.4
818.1493	512.8927	65535	64670.35
818.2935	515.0461	65535	64674.4
818.4377	517.199	65535	64674.65
818.5818	519.3512	65535	64673.15
818.726	521.5029	65535	64671.1
818.8703	523.6539	65535	64672.1
819.0145	525.8043	65535	64669.1
819.1587	527.9541	65535	64671.55
819.303	530.1033	65535	64668.1
819.4472	532.2519	65535	64669.35
819.5915	534.3999	65535	64669
819.7357	536.5472	65535	64669.75
819.88	538.694	65535	64671.55
820.0243	540.8401	65535	64671.8
820.1686	542.9856	65535	64665.8
820.3129	545.1305	65535	64666.75
820.4572	547.2748	65535	64665
820.6016	549.4185	65535	64661.9
820.7459	551.5615	65535	64661.5
820.8902	553.704	65535	64663.05
821.0346	555.8458	65535	64667.55
821.1789	557.987	65535	64662.45
821.3233	560.1276	65535	64663.55
821.4677	562.2675	65535	64665.75
821.6121	564.4069	65535	64667.75
821.7565	566.5456	65535	64665.7
821.9009	568.6837	65535	64662.8
822.0453	570.8212	65535	64667.6
822.1897	572.958	65535	64665.5
822.3342	575.0942	65535	64666.75
822.4786	577.2299	65535	64667.3
822.6231	579.3648	65535	64668.45
822.7675	581.4992	65535	64669.25
822.912	583.6329	65535	64669.65
823.0565	585.766	65535	64663.65
823.201	587.8985	65535	64665.7
823.3454	590.0304	65535	64637.7
823.4899	592.1616	65535	64659.35
823.6345	594.2922	65535	64661.85
823.779	596.4222	65535	64662.6
823.9235	598.5515	65535	64657.75
824.068	600.6802	65535	64659.15
824.2126	602.8083	65535	64660.5
824.3571	604.9358	65535	64658.1
824.5017	607.0626	65535	64659.3
824.6462	609.1888	65535	64658.3
824.7908	611.3144	65535	64656.55
824.9354	613.4393	65535	64658.65
825.08	615.5636	65535	64656.75
825.2246	617.6873	65535	64657.9
825.3692	619.8103	65535	64655.25
825.5138	621.9327	65535	64654.35
825.6584	624.0544	65535	64658.3
825.803	626.1756	65535	64659.6
825.9477	628.2961	65535	64654.45
826.0923	630.4159	65535	64654.6
826.237	632.5351	65535	64655.9
826.3816	634.6537	65535	64654.05
826.5263	636.7716	65535	64648.5
826.6709	638.8889	65535	64652
826.8156	641.0056	65535	64652.85
826.9603	643.1216	65535	64651.4
827.105	645.237	65535	64649
827.2497	647.3518	65535	64655.7
827.3944	649.4659	65535	64654.05
827.5391	651.5793	65535	64655.05
827.6838	653.6922	65535	64656.15
827.8285	655.8043	65535	64655.15
827.9733	657.9159	65535	64650.25
828.118	660.0268	65535	64649.65
828.2627	662.137	65535	64649.8
828.4075	664.2466	65535	64645.95
828.5522	666.3556	65535	64651
828.697	668.4639	65535	64647.25
828.8418	670.5716	65535	64651.8
828.9865	672.6786	65535	64648.35
829.1313	674.785	65535	64647.1
829.2761	676.8907	65535	64651.15
829.4209	678.9958	65535	64649.1
829.5657	681.1002	65535	64647.35
829.7105	683.204	65535	64643.8
829.8553	685.3072	65535	64645.75
830.0001	687.4097	65535	64644.5
830.1449	689.5115	65535	64647.85
830.2898	691.6127	65535	64649
830.4346	693.7132	65535	64645.55
830.5794	695.8131	65535	64641.6
830.7243	697.9123	65535	64645.8
830.8691	700.0109	65535	64645.3
831.014	702.1089	65535	64648.9
831.1588	704.2061	65535	64648.2
831.3037	706.3028	65535	64645
831.4486	708.3987	65535	64643.9
831.5935	710.4941	65535	64646.9
831.7383	712.5887	65535	64643.55
831.8832	714.6827	65535	64640.35
832.0281	716.7761	65535	64646.6
832.173	718.8688	65535	64644.6
832.3179	720.9608	65535	64637.4
832.4628	723.0522	65535	64641.85
832.6077	725.1429	65535	64642.35
832.7527	727.233	65535	64644.05
832.8976	729.3224	65535	64640.45
833.0425	731.4112	65535	64642.45
833.1874	733.4993	65535	64641.95
833.3324	735.5867	65535	64641.25
833.4773	737.6735	65535	64641.2
833.6222	739.7596	65535	64641.45
833.7672	741.845	65535	64642.25
833.9122	743.9298	65535	64639.85
834.0571	746.014	65535	64641.1
834.2021	748.0974	65535	64642.95
834.347	750.1802	65535	64637.05
834.492	752.2624	65535	64640.8
834.637	754.3439	65535	64638.6
834.782	756.4247	65535	64633.3
834.9269	758.5048	65535	64640.9
835.0719	760.5843	65535	64639.65
835.2169	762.6631	65535	64639.1
835.3619	764.7413	65535	64644.15
835.5069	766.8188	65535	64637.8
835.6519	768.8956	65535	64637.75
835.7969	770.9718	65535	64641.55
835.9419	773.0473	65535	64639.4
836.0869	775.1221	65535	64637.8
836.232	777.1962	65535	64639.9
836.377	779.2697	65535	64638.3
836.522	781.3426	65535	64620.65
836.667	783.4147	65535	64635.25
836.8121	785.4862	65535	64639.35
836.9571	787.557	65535	64640.25
837.1021	789.6271	65535	64636.85
837.2472	791.6966	65535	64638.8
837.3922	793.7654	65535	64636
837.5373	795.8335	65535	64639.15
837.6823	797.901	65535	64641.35
837.8274	799.9678	65535	64636.55
837.9724	802.0339	65535	64640.85
838.1175	804.0993	65535	64629.6
838.2626	806.1641	65535	64638.45
838.4076	808.2282	65535	64638.75
838.5527	810.2916	65535	64634.55
838.6978	812.3544	65535	64637.9
838.8428	814.4164	65535	64641.15
838.9879	816.4778	65535	64637.1
839.133	818.5385	65535	64640.5
839.2781	820.5986	65535	64635.45
839.4232	822.658	65535	64636.5
839.5682	824.7166	65535	64637.75
839.7133	826.7747	65535	64634.3
839.8584	828.832	65535	64636.85
840.0035	830.8886	65535	64631.55
840.1486	832.9446	65535	64634.75
840.2937	834.9999	65535	64635.95
840.4388	837.0545	65535	64635.3
840.5839	839.1085	65535	64635.15
840.729	841.1618	65535	64633.05
840.8741	843.2143	65535	64635.8
841.0192	845.2662	65535	64637.35
841.1643	847.3175	65535	64636.95
841.3095	849.368	65535	64636.95
841.4546	851.4179	65535	64635.85
841.5997	853.467	65535	64638.75
841.7448	855.5155	65535	64636.35
841.8899	857.5633	65535	64633.15
842.0351	859.6105	65535	64635.15
842.1802	861.6569	65535	64637.8
842.3253	863.7027	65535	64633.8
842.4704	865.7478	65535	64631.95
842.6156	867.7922	65535	64635.45
842.7607	869.8359	65535	64636.4
842.9058	871.8789	65535	64633.6
843.0509	873.9212	65535	64602.7
843.1961	875.9629	65535	64633.95
843.3412	878.0039	65535	64628.75
843.4863	880.0441	65535	64635.6
843.6315	882.0837	65535	64633.5
843.7766	884.1226	65535	64632.9
843.9218	886.1609	65535	64633.9
844.0669	888.1984	65535	64632.1
844.212	890.2352	65535	64633.75
844.3572	892.2714	65535	64631.05
844.5023	894.3069	65535	64632.85
844.6475	896.3416	65535	64635.15
844.7926	898.3757	65535	64632.85
844.9377	900.4091	65535	64632.65
845.0829	902.4418	65535	64629.75
845.228	904.4739	65535	64632.95
845.3732	906.5052	65535	64635.4
845.5183	908.5358	65535	64630.75
845.6635	910.5658	65535	64633.45
845.8086	912.595	65535	64633.75
845.9538	914.6236	65535	64633.3
846.0989	916.6515	65535	64633.5
846.2441	918.6786	65535	64631
846.3892	920.7051	65535	64627.8
846.5344	922.7309	65535	64632.8
846.6795	924.756	65535	64632.55
846.8246	926.7804	65535	64630.7
846.9698	928.8041	65535	64628.55
847.1149	930.8272	65535	64630.85
847.2601	932.8495	65535	64631.65
847.4052	934.8711	65535	64631.8
847.5504	936.892	65535	64634.15
847.6955	938.9123	65535	64629.9
847.8407	940.9318	65535	64633.55
847.9858	942.9506	65535	64634.2
848.131	944.9688	65535	64631.9
848.2761	946.9862	65535	64633.1
848.4213	949.003	65535	64633.35
848.5664	951.019	65535	64630.6
848.7115	953.0344	65535	64634.25
848.8567	955.0491	65535	64630.65
849.0018	957.063	65535	64633.05
849.147	959.0763	65535	64633
849.2921	961.0888	65535	64627.3
849.4373	963.1007	65535	64632.45
849.5824	965.1119	65535	64632.25
849.7275	967.1223	65535	64633.5
849.8727	969.1321	65535	64635.75
850.0178	971.1412	65535	64634.45
850.1629	973.1495	65535	64634.25
850.3081	975.1572	65535	64601.8
850.4532	977.1641	65535	64632.95
850.5983	979.1704	65535	64630.95
850.7435	981.1759	65535	64627.8
850.8886	983.1808	65535	64629.6
851.0337	985.1849	65535	64618.35
851.1788	987.1884	65535	64631.5
851.324	989.1911	65535	64629.75
851.4691	991.1932	65535	64630.8
851.6142	993.1945	65535	64631.95
851.7593	995.1951	65535	64630.65
851.9045	997.1951	65535	64628.15
852.0496	999.1943	65535	64631.35
852.1947	1001.1928	65535	64630.75
852.3398	1003.1906	65535	64634.4
852.4849	1005.1877	65535	64630.05
852.63	1007.1841	65535	64630.95
852.7751	1009.1798	65535	64631.45
852.9202	1011.1748	65535	64633.9
853.0653	1013.1691	65535	64632.35
853.2104	1015.1627	65535	64629.55
853.3555	1017.1556	65535	64630.5
853.5006	1019.1477	65535	64632.2
853.6457	1021.1392	65535	64634.15
853.7908	1023.1299	65535	64633.9
853.9359	1025.12	65535	64633.9
854.081	1027.1093	65535	64634.85
854.2261	1029.0979	65535	64635.9
854.3712	1031.0859	65535	64636.9
854.5163	1033.0731	65535	64635.45
854.6613	1035.0596	65535	64634.4
854.8064	1037.0454	65535	64632.5
854.9515	1039.0304	65535	64632.35
855.0965	1041.0148	65535	64632.5
855.2416	1042.9985	65535	64629.6
855.3867	1044.9814	65535	64633.35
855.5317	1046.9636	65535	64633.05
855.6768	1048.9452	65535	64631.75
855.8219	1050.926	65535	64634.05
855.9669	1052.9061	65535	64634.65
856.112	1054.8855	65535	64632.2
856.257	1056.8642	65535	64631.5
856.4021	1058.8421	65535	64627.85
856.5471	1060.8194	65535	64633.05
856.6921	1062.7959	65535	64633
856.8372	1064.7717	65535	64631.4
856.9822	1066.7469	65535	64630.65
857.1272	1068.7213	65535	64631.6
857.2723	1070.695	65535	64632.3
857.4173	1072.6679	65535	64631.3
857.5623	1074.6402	65535	64629.6
857.7073	1076.6117	65535	64625
857.8523	1078.5826	65535	64631.3
857.9973	1080.5527	65535	64630.3
858.1423	1082.5221	65535	64634.35
858.2873	1084.4908	65535	64631.5
858.4323	1086.4587	65535	64634.3
858.5773	1088.426	65535	64630.05
858.7223	1090.3925	65535	64626.35
858.8673	1092.3584	65535	64634.45
859.0123	1094.3235	65535	64632.65
859.1573	1096.2879	65535	64633.65
859.3022	1098.2515	65535	64634.35
859.4472	1100.2145	65535	64633.25
859.5922	1102.1767	65535	64629.5
859.7371	1104.1382	65535	64630.5
859.8821	1106.099	65535	64630.7
860.027	1108.0591	65535	64630.6
860.172	1110.0185	65535	64628.95
860.3169	1111.9771	65535	64633.7
860.4619	1113.9351	65535	64632
860.6068	1115.8923	65535	64631.4
860.7517	1117.8488	65535	64630.3
860.8967	1119.8045	65535	64632.5
861.0416	1121.7596	65535	64630.35
861.1865	1123.7139	65535	64634.85
861.3314	1125.6675	65535	64635.7
861.4763	1127.6204	65535	64631.45
861.6212	1129.5726	65535	64629.8
861.7661	1131.524	65535	64633.3
861.911	1133.4748	65535	64632.35
862.0559	1135.4248	65535	64629.2
862.2008	1137.3741	65535	64633.7
862.3457	1139.3226	65535	64630.45
862.4905	1141.2705	65535	64633.4
862.6354	1143.2176	65535	64627.4
862.7803	1145.164	65535	64628.25
862.9251	1147.1097	65535	64631.9
863.07	1149.0546	65535	64630.45
863.2148	1150.9989	65535	64631.15
863.3597	1152.9424	65535	64631.4
863.5045	1154.8852	65535	64631.55
863.6493	1156.8272	65535	64633.55
863.7942	1158.7686	65535	64626.45
863.939	1160.7092	65535	64632.1
864.0838	1162.6491	65535	64630.1
864.2286	1164.5883	65535	64629.8
864.3734	1166.5267	65535	64630.9
864.5182	1168.4644	65535	64630.05
864.663	1170.4014	65535	64627.7
864.8078	1172.3377	65535	64635
864.9526	1174.2732	65535	64635.2
865.0974	1176.2081	65535	64635.8
865.2421	1178.1421	65535	64628.2
865.3869	1180.0755	65535	64634.7
865.5317	1182.0082	65535	64631.2
865.6764	1183.9401	65535	64632
865.8212	1185.8713	65535	64633.9
865.9659	1187.8017	65535	64634.2
866.1106	1189.7315	65535	64632.7
866.2554	1191.6605	65535	64607.4
866.4001	1193.5888	65535	64629.85
866.5448	1195.5163	65535	64633.9
866.6895	1197.4432	65535	64632.5
866.8342	1199.3693	65535	64633.75
866.9789	1201.2947	65535	64628.8
867.1236	1203.2193	65535	64630.8
867.2683	1205.1432	65535	64632.1
867.413	1207.0664	65535	64632.05
867.5576	1208.9889	65535	64630.5
867.7023	1210.9106	65535	64632.05
867.847	1212.8316	65535	64634
867.9916	1214.7519	65535	64624.6
868.1363	1216.6715	65535	64634.45
868.2809	1218.5903	65535	64632.6
868.4255	1220.5084	65535	64635.25
868.5701	1222.4257	65535	64633.65
868.7148	1224.3424	65535	64634
868.8594	1226.2583	65535	64630.85
869.004	1228.1735	65535	64631.6
869.1486	1230.0879	65535	64633
869.2932	1232.0016	65535	64635
869.4377	1233.9146	65535	64632.1
869.5823	1235.8269	65535	64635.45
869.7269	1237.7384	65535	64633.55
869.8715	1239.6492	65535	64633.85
870.016	1241.5592	65535	64631.75
870.1606	1243.4686	65535	64635.35
870.3051	1245.3772	65535	64634.1
870.4496	1247.285	65535	64631.8
870.5941	1249.1922	65535	64635.05
870.7387	1251.0986	65535	64633.75
870.8832	1253.0042	65535	64633.5
871.0277	1254.9092	65535	64634.55
871.1722	1256.8134	65535	64633
871.3167	1258.7169	65535	64631.1
871.4611	1260.6196	65535	64632.35
871.6056	1262.5216	65535	64630.05
871.7501	1264.4229	65535	64634.6
871.8945	1266.3234	65535	64632.4
872.039	1268.2232	65535	64632.8
872.1834	1270.1223	65535	64632.95
872.3278	1272.0207	65535	64632.2
872.4723	1273.9183	65535	64625.9
872.6167	1275.8151	65535	64634.1
872.7611	1277.7113	65535	64633.65
872.9055	1279.6067	65535	64634.4
873.0499	1281.5014	65535	64632.45
873.1943	1283.3953	65535	64632.95
873.3386	1285.2885	65535	64634
873.483	1287.181	65535	64635.05
873.6274	1289.0727	65535	64636.55
873.7717	1290.9637	65535	64630.75
873.9161	1292.854	65535	64634.2
874.0604	1294.7435	65535	64631.85
874.2047	1296.6323	65535	64632.05
874.349	1298.5204	65535	64630.75
874.4933	1300.4077	65535	64632.9
874.6376	1302.2943	65535	64635.75
874.7819	1304.1802	65535	64633.7
874.9262	1306.0653	65535	64631.5
875.0705	1307.9497	65535	64632.6
875.2147	1309.8333	65535	64632.8
875.359	1311.7162	65535	64635.85
875.5032	1313.5984	65535	64632.35
875.6475	1315.4798	65535	64632.75
875.7917	1317.3605	65535	64619.6
875.9359	1319.2405	65535	64632.6
876.0801	1321.1197	65535	64633.75
876.2243	1322.9982	65535	64630.4
876.3685	1324.876	65535	64633.6
876.5127	1326.753	65535	64632.25
876.6569	1328.6293	65535	64631.15
876.801	1330.5048	65535	64631.3
876.9452	1332.3796	65535	64634.35
877.0893	1334.2537	65535	64607.2
877.2335	1336.127	65535	64634.75
877.3776	1337.9996	65535	64633
877.5217	1339.8714	65535	64634.3
877.6658	1341.7426	65535	64590.8
877.8099	1343.6129	65535	64632.65
877.954	1345.4826	65535	64634.9
878.0981	1347.3515	65535	64631.75
878.2422	1349.2196	65535	64633.4
878.3862	1351.087	65535	64633.75
878.5303	1352.9537	65535	64632.55
878.6743	1354.8197	65535	64634.15
878.8184	1356.6849	65535	64632
878.9624	1358.5493	65535	64633.7
879.1064	1360.4131	65535	64633.45
879.2504	1362.276	65535	64631.85
879.3944	1364.1383	65535	64635.2
879.5384	1365.9998	65535	64627.75
879.6823	1367.8606	65535	64632.4
879.8263	1369.7206	65535	64633.2
879.9702	1371.5799	65535	64630.9
880.1142	1373.4384	65535	64634.35
880.2581	1375.2962	65535	64632.45
880.402	1377.1533	65535	64635.6
880.5459	1379.0096	65535	64633.65
880.6898	1380.8652	65535	64633.7
880.8337	1382.7201	65535	64632.7
880.9776	1384.5742	65535	64632.85
881.1215	1386.4275	65535	64630.1
881.2653	1388.2802	65535	64634.4
881.4092	1390.132	65535	64632.8
881.553	1391.9832	65535	64632.8
881.6968	1393.8336	65535	64635.55
881.8406	1395.6832	65535	64632.5
881.9844	1397.5322	65535	64634.45
882.1282	1399.3803	65535	64628.1
882.272	1401.2278	65535	64633.2
882.4158	1403.0745	65535	64633.65
882.5595	1404.9204	65535	64635.3
882.7033	1406.7656	65535	64635.1
882.847	1408.6101	65535	64633.1
882.9908	1410.4538	65535	64632.7
883.1345	1412.2968	65535	64632.5
883.2782	1414.139	65535	64636.5
883.4219	1415.9805	65535	64636.2
883.5656	1417.8213	65535	64625.6
883.7092	1419.6613	65535	64634.45
883.8529	1421.5006	65535	64633.9
883.9965	1423.3391	65535	64631.2
884.1402	1425.1769	65535	64632
884.2838	1427.0139	65535	64633.4
884.4274	1428.8502	65535	64633.95
884.571	1430.6858	65535	64635.6
884.7146	1432.5206	65535	64633.45
884.8582	1434.3547	65535	64632.75
885.0018	1436.188	65535	64633.25
885.1453	1438.0206	65535	64632.65
885.2889	1439.8524	65535	64634.4
885.4324	1441.6835	65535	64632.3
885.5759	1443.5139	65535	64630.45
885.7194	1445.3435	65535	64635.3
885.8629	1447.1724	65535	64635.25
886.0064	1449.0005	65535	64635.25
886.1499	1450.8279	65535	64632.65
886.2933	1452.6545	65535	64634.35
886.4368	1454.4804	65535	64634.95
886.5802	1456.3056	65535	64628.45
886.7237	1458.13	65535	64634.6
886.8671	1459.9536	65535	64633.6
887.0105	1461.7766	65535	64632.65
887.1539	1463.5987	65535	64634.5
887.2972	1465.4202	65535	64637.65
887.4406	1467.2409	65535	64635.5
887.584	1469.0608	65535	64635.8
887.7273	1470.88	65535	64635.15
887.8706	1472.6984	65535	64634.25
888.0139	1474.5161	65535	64632.3
888.1572	1476.3331	65535	64636
888.3005	1478.1493	65535	64633.5
888.4438	1479.9648	65535	64634.55
888.5871	1481.7795	65535	64632.75
888.7303	1483.5935	65535	64634.95
888.8736	1485.4067	65535	64633.9
889.0168	1487.2192	65535	64634
889.16	1489.031	65535	64631.85
889.3032	1490.842	65535	64636.1
889.4464	1492.6522	65535	64637.4
889.5896	1494.4618	65535	64633.6
889.7327	1496.2705	65535	64636.15
889.8759	1498.0785	65535	64631.9
890.019	1499.8858	65535	64636.8
890.1622	1501.6924	65535	64634.8
890.3053	1503.4981	65535	64635.35
890.4484	1505.3032	65535	64634.9
890.5914	1507.1075	65535	64633.8
890.7345	1508.911	65535	64635.25
890.8776	1510.7138	65535	64634.3
891.0206	1512.5159	65535	64633.75
891.1637	1514.3172	65535	64635.5
891.3067	1516.1178	65535	64637.95
891.4497	1517.9176	65535	64634.7
891.5927	1519.7166	65535	64637.85
891.7357	1521.515	65535	64630.8
891.8786	1523.3126	65535	64638
892.0216	1525.1094	65535	64633.35
892.1645	1526.9055	65535	64637.45
892.3074	1528.7008	65535	64635.4
892.4503	1530.4954	65535	64634.65
892.5932	1532.2893	65535	64638.55
892.7361	1534.0824	65535	64631.85
892.879	1535.8747	65535	64638.15
893.0218	1537.6663	65535	64636.6
893.1647	1539.4572	65535	64635.2
893.3075	1541.2473	65535	64635.2
893.4503	1543.0367	65535	64635.45
893.5931	1544.8253	65535	64632.25
893.7359	1546.6132	65535	64632.4
893.8787	1548.4003	65535	64624.25
894.0214	1550.1867	65534.2	64627.05
894.1642	1551.9723	65533.7	64628.15
894.3069	1553.7572	65532.75	64634.35
894.4496	1555.5414	65535	64637.75
894.5923	1557.3247	65485	64587.3
894.735	1559.1074	65533.15	64636.5
894.8777	1560.8893	65523.5	64627.6
895.0204	1562.6705	65533.6	64636.6
895.163	1564.4509	65515.5	64618.25
895.3056	1566.2305	65524.45	64627.95
895.4482	1568.0094	65532.65	64637
895.5908	1569.7876	65524.35	64627.45
895.7334	1571.565	65509.25	64614.2
895.876	1573.3417	65516.8	64620.65
896.0186	1575.1176	65509.6	64613
896.1611	1576.8928	65496.95	64599.25
896.3036	1578.6672	65461.6	64564.5
896.4461	1580.4409	65503.6	64610.75
896.5886	1582.2138	65454.95	64556.25
896.7311	1583.986	65472.8	64578.55
896.8736	1585.7575	65436.95	64541.65
897.0161	1587.5282	65449.15	64553.85
897.1585	1589.2981	65459.65	64565.65
897.3009	1591.0673	65422.9	64527.1
897.4433	1592.8358	65392.15	64496.85
897.5857	1594.6035	65435.3	64537.45
897.7281	1596.3704	65440.8	64545.45
897.8705	1598.1366	65377.4	64480.3
898.0128	1599.9021	65347.45	64450.4
898.1551	1601.6668	65392.2	64493.75
898.2975	1603.4308	65363.45	64465.9
898.4398	1605.194	65373.15	64474.4
898.5821	1606.9564	65322.45	64429.05
898.7243	1608.7182	65359.05	64462.55
898.8666	1610.4791	65332.3	64439.05
899.0088	1612.2394	65362.05	64468.75
899.1511	1613.9988	65323.6	64429.15
899.2933	1615.7576	65369.55	64477.45
899.4355	1617.5156	65353.45	64449.9
899.5776	1619.2728	65378.2	64483.85
899.7198	1621.0293	65312.95	64418.9
899.862	1622.785	65315.6	64416.55
900.0041	1624.54	65338.4	64440.95
900.1462	1626.2942	65304.85	64409.6
900.2883	1628.0477	65254.9	64357.1
900.4304	1629.8005	65222.15	64323.1
900.5725	1631.5525	65285.25	64390.55
900.7145	1633.3037	65216.75	64322.5
900.8566	1635.0542	65200.7	64308.15
900.9986	1636.804	65244.35	64348.85
901.1406	1638.553	65166.8	64179.15
901.2826	1640.3013	65195.35	64298
901.4245	1642.0488	65142.1	64245.3
901.5665	1643.7955	65198.5	64305.25
901.7085	1645.5416	65161.1	64268.15
901.8504	1647.2868	65093.55	64201
901.9923	1649.0313	65192.5	64297.1
902.1342	1650.7751	65143.8	64246.7
902.2761	1652.5181	65104.75	64211.6
902.4179	1654.2604	65105.45	64211.5
902.5598	1656.0019	65135.35	64242.8
902.7016	1657.7427	65091.85	64197.6
902.8434	1659.4828	65161.2	64268.9
902.9852	1661.222	65065.15	64171.65
903.127	1662.9606	65167.7	64273.65
903.2687	1664.6984	65042.3	64146.85
903.4105	1666.4354	65094.6	64197.25
903.5522	1668.1717	64946.5	64051.2
903.6939	1669.9072	64806.7	63912.85
903.8356	1671.642	64805	63906.6
903.9773	1673.3761	64784.1	63891.9
904.119	1675.1094	64735.15	63840.6
904.2606	1676.8419	64597.8	63703.3
904.4022	1678.5737	64647.5	63753.55
904.5439	1680.3048	64588.95	63694.55
904.6855	1682.0351	64556.15	63663.45
904.827	1683.7646	64503.05	63607.35
904.9686	1685.4934	64529.95	63636.3
905.1101	1687.2215	64312.65	63417.65
905.2517	1688.9488	64451.2	63557
905.3932	1690.6754	64122	63230.1
905.5347	1692.4012	64302.95	63410.1
905.6761	1694.1263	64323.8	63431
905.8176	1695.8506	64189.15	63296.3
905.9591	1697.5742	64219.5	63325.55
906.1005	1699.297	64169.75	63277.15
906.2419	1701.0191	64198.1	63303.55
906.3833	1702.7404	64023.9	63131.9
906.5246	1704.461	63964.15	63068.85
906.666	1706.1808	64055.75	63159.5
906.8073	1707.8999	63986	63090
906.9487	1709.6182	63909.95	63018.95
907.09	1711.3358	63897.35	63004.4
907.2313	1713.0527	63842	62951.5
907.3725	1714.7688	63838.6	62941.35
907.5138	1716.4841	63668.35	62775.15
907.655	1718.1987	63711.8	62813.65
907.7962	1719.9126	63673	62780.6
907.9374	1721.6257	63682.2	62788
908.0786	1723.338	63708.05	62813.3
908.2198	1725.0496	63519.25	62626.95
908.3609	1726.7605	63522.3	62629.3
908.502	1728.4706	63459.25	62563.5
908.6431	1730.18	63499.55	62605.8
908.7842	1731.8886	63424.05	62531.85
908.9253	1733.5964	63398.6	62502.95
909.0664	1735.3036	63461.1	62566.35
909.2074	1737.0099	63366.45	62474.55
909.3484	1738.7156	63305.15	62413.9
909.4894	1740.4204	63248.45	62352.8
909.6304	1742.1246	63273.5	62377
909.7714	1743.8279	63271.15	62378.1
909.9123	1745.5306	63273.2	62381.35
910.0532	1747.2325	63058.45	62167.2
910.1941	1748.9336	63054.8	62163.2
910.335	1750.634	63060.85	62166.5
910.4759	1752.3336	63114.05	62223
910.6168	1754.0325	62969.65	62077.3
910.7576	1755.7307	63067.05	62176.3
910.8984	1757.4281	62917.65	62025.2
911.0392	1759.1247	63029.45	62130.05
911.18	1760.8206	62804.15	61906.55
911.3208	1762.5158	62846.85	61949.7
911.4615	1764.2102	62866.8	61976.1
911.6022	1765.9039	62802.3	61910.6
911.7429	1767.5968	62736.25	61844.45
911.8836	1769.289	62696.65	61804.05
912.0243	1770.9804	62747.85	61856.4
912.1649	1772.6711	62667.9	61775.9
912.3056	1774.361	62635.65	61741.25
912.4462	1776.0502	62633.5	61739.15
912.5868	1777.7386	62408.4	61511.8
912.7274	1779.4263	62528.15	61634.7
912.8679	1781.1132	62509.6	61618.5
913.0084	1782.7994	62429.1	61536.1
913.149	1784.4849	62443.6	61552.15
913.2895	1786.1696	62060.55	61164.9
913.4299	1787.8535	62301.25	61411.45
913.5704	1789.5367	62296.75	61406
913.7108	1791.2192	62047.8	61156.45
913.8513	1792.9009	61851.45	60928.2
913.9917	1794.5818	62109.25	61213.05
914.132	1796.2621	61869.4	60977.9
914.2724	1797.9415	61916.6	61025.15
914.4128	1799.6202	61836.3	60945.5
914.5531	1801.2982	61811.1	60918.25
914.6934	1802.9755	61508.7	60614.8
914.8337	1804.6519	61394.95	60501.45
914.9739	1806.3277	61824.75	60934.4
915.1142	1808.0027	61087	60199.2
915.2544	1809.6769	61376.75	60485.25
915.3946	1811.3504	61420.6	60527.8
915.5348	1813.0231	60785	59892.65
915.675	1814.6951	61203.15	60309.6
915.8151	1816.3664	60961.45	60068.5
915.9553	1818.0369	60978.65	60085.6
916.0954	1819.7067	60803.45	59912.45
916.2355	1821.3757	61152.7	60260.45
916.3755	1823.044	60595.05	59704.85
916.5156	1824.7115	60212.1	59319.75
916.6556	1826.3783	60443.45	59551.3
916.7956	1828.0443	60488.8	59599.25
916.9356	1829.7096	60288.5	59394.3
917.0756	1831.3741	59662.65	58767.05
917.2155	1833.0379	60027.3	59137.7
917.3555	1834.701	60035.05	59140.95
917.4954	1836.3633	59541.55	58648.6
917.6353	1838.0248	59827.35	58934.5
917.7751	1839.6856	59668.35	58777.95
917.915	1841.3457	59199.15	58308.65
918.0548	1843.005	59746.65	58856.3
918.1946	1844.6636	59403.75	58511.9
918.3344	1846.3214	58513.05	57619.15
918.4742	1847.9785	58765.95	57873.25
918.6139	1849.6349	58717.95	57825.05
918.7537	1851.2904	59364.35	58462.95
918.8934	1852.9453	58313.2	57420.65
919.0331	1854.5994	58806.25	57912.2
919.1727	1856.2528	58695.6	57799.6
919.3124	1857.9054	58144.4	57253.85
919.452	1859.5572	57869.85	56978.95
919.5916	1861.2083	58185.35	57292.85
919.7312	1862.8587	58790.85	57899.25
919.8708	1864.5084	57153	56260.85
920.0103	1866.1572	57886.35	56996.8
920.1498	1867.8054	57097.3	56205.45
920.2893	1869.4528	57459.85	56567.15
920.4288	1871.0994	56936	56044.75
920.5683	1872.7453	56893.65	55999.75
920.7077	1874.3905	57182.5	56284.75
920.8471	1876.0349	56512.6	55621.8
920.9865	1877.6786	57010.3	56118
921.1259	1879.3215	56364.35	55473.35
921.2653	1880.9637	57058.35	56166.3
921.4046	1882.6051	56333.6	55442.9
921.5439	1884.2458	56060.6	55168.7
921.6832	1885.8858	55779.35	54888.2
921.8225	1887.525	56058.05	55167.25
921.9617	1889.1634	55860.3	54968.35
922.101	1890.8011	55538.6	54646.4
922.2402	1892.4381	54955.7	54065.65
922.3794	1894.0743	55646.5	54757.4
922.5185	1895.7098	55145.95	54254.9
922.6577	1897.3446	54802.4	53909.3
922.7968	1898.9786	55000.7	54103.45
922.9359	1900.6118	54569.45	53676.95
923.075	1902.2443	54207.9	53318.8
923.214	1903.8761	54700.95	53811.75
923.3531	1905.5071	54286.45	53395.05
923.4921	1907.1374	53391.95	52499.95
923.6311	1908.7669	53721.6	52831.5
923.77	1910.3957	54069.1	53177.5
923.909	1912.0237	53415.2	52524.25
924.0479	1913.651	53082.8	52190.65
924.1868	1915.2776	52947.4	52058.3
924.3257	1916.9034	52964.4	52073.15
924.4646	1918.5285	52628.35	51737.8
924.6034	1920.1528	52563.3	51674.3
924.7422	1921.7764	52408.7	51516.4
924.881	1923.3992	52319.55	51430.45
925.0198	1925.0213	51970.1	51077.4
925.1586	1926.6427	51460.6	50572.6
925.2973	1928.2633	51756.85	50790.45
925.436	1929.8832	51524.3	50631.8
925.5747	1931.5023	51363.55	50471.95
925.7134	1933.1207	50865.65	49974.4
925.852	1934.7383	51129.05	50237.4
925.9906	1936.3552	50739.8	49851.9
926.1292	1937.9714	50716.2	49824.55
926.2678	1939.5868	50644.15	49751.15
926.4064	1941.2015	50103	49210.65
926.5449	1942.8154	49850.55	48958.8
926.6834	1944.4286	49878.5	48986.7
926.8219	1946.041	49809.7	48898.45
926.9604	1947.6528	49510	48614.3
927.0988	1949.2637	49319.85	48429.5
927.2372	1950.8739	49028.5	48136.55
927.3756	1952.4834	49134.8	48244.7
927.514	1954.0921	48983.6	48093.05
927.6523	1955.7001	48581	47687.4
927.7907	1957.3074	48695.7	47806.05
927.929	1958.9139	48298.55	47408.45
928.0673	1960.5197	48300.75	47408.8
928.2055	1962.1247	48073.15	47182.5
928.3438	1963.729	47818.3	46927.8
928.482	1965.3325	47634	46723.7
928.6202	1966.9353	47620.8	46730.75
928.7584	1968.5374	47249.75	46360.45
928.8965	1970.1387	47158.75	46267.5
929.0346	1971.7393	47026.55	46136.3
929.1727	1973.3392	46872.55	45982.35
929.3108	1974.9383	46658.7	45769.95
929.4489	1976.5366	46473.4	45585.6
929.5869	1978.1342	46447.35	45555.85
929.7249	1979.7311	46271.4	45381.9
929.8629	1981.3273	46171.7	45283.9
930.0009	1982.9227	45997.5	45104.85
930.1388	1984.5173	45877.45	44988.2
930.2767	1986.1112	45593.2	44703.1
930.4146	1987.7044	45674.05	44784.5
930.5525	1989.2968	45314.05	44424.85
930.6904	1990.8885	45335.35	44442.35
930.8282	1992.4795	45153.85	44263.55
930.966	1994.0697	44975.7	44087.25
931.1038	1995.6592	44887.9	43999.95
931.2415	1997.2479	44717.4	43828.15
931.3793	1998.8359	44571.4	43680.9
931.517	2000.4232	44332.7	43443.75
931.6547	2002.0097	44188.5	43299.55
931.7923	2003.5955	44015.9	43126.4
931.93	2005.1805	44001.6	43110.7
932.0676	2006.7648	43855.2	42964.65
932.2052	2008.3484	43733.55	42844.25
932.3427	2009.9312	43714.5	42825.1
932.4803	2011.5133	43519.85	42630.7
932.6178	2013.0946	43415.95	42528.85
932.7553	2014.6752	43313.45	42425.2
932.8928	2016.2551	43162.3	42272.9
933.0302	2017.8342	43027.15	42136.9
933.1676	2019.4126	42838.55	41949.15
933.305	2020.9902	42676.8	41789.5
933.4424	2022.5672	42617.1	41726.3
933.5798	2024.1433	42466.6	41572.4
933.7171	2025.7188	42327.35	41440.7
933.8544	2027.2935	42178.85	41289.3
933.9917	2028.8674	42011	41122.1
934.129	2030.4406	41964.75	41078.45
934.2662	2032.0131	41743.35	40855.95
934.4034	2033.5849	41542.4	40646.4
934.5406	2035.1559	41556.75	40667.2
934.6778	2036.7261	41489.4	40600.4
934.8149	2038.2957	41299.4	40409.7
934.952	2039.8645	41223.2	40334.2
935.0891	2041.4325	41194.4	40302.3
935.2262	2042.9998	41079.15	40190.95
935.3632	2044.5664	40874.55	39982.25
935.5002	2046.1323	40775.2	39886.35
935.6372	2047.6974	40672.2	39784.75
935.7742	2049.2617	40530.3	39641.65
935.9111	2050.8254	40520.15	39625.55
936.048	2052.3883	40379.4	39489.35
936.1849	2053.9504	40294.45	39404.8
936.3218	2055.5118	40157.95	39267.9
936.4586	2057.0725	39951.4	39056
936.5955	2058.6325	39848.8	38958.55
936.7323	2060.1917	39750.25	38861.15
936.869	2061.7502	39609.7	38718.8
937.0058	2063.3079	39465.55	38576.55
937.1425	2064.8649	39308.2	38415.3
937.2792	2066.4212	39187.05	38297.5
937.4159	2067.9767	39132.35	38244.35
937.5525	2069.5315	38956.8	38069.95
937.6891	2071.0856	38758.2	37868.75
937.8257	2072.6389	38687	37796.8
937.9623	2074.1915	38473.5	37585.65
938.0989	2075.7433	38260.3	37370.05
938.2354	2077.2945	38141.55	37254.7
938.3719	2078.8448	38079.4	37191.2
938.5084	2080.3945	37976.7	37087.6
938.6448	2081.9434	37896	37006.35
938.7812	2083.4916	37782.35	36891.55
938.9176	2085.039	37609.25	36717.15
939.054	2086.5857	37587.05	36694.65
939.1903	2088.1317	37508.3	36616.05
939.3267	2089.677	37350	36458.95
939.463	2091.2215	37272.1	36380.55
939.5992	2092.7652	37138.85	36249.5
939.7355	2094.3083	37043.15	36153.85
939.8717	2095.8506	36973.6	36084.6
940.0079	2097.3921	36951.15	36061.55
940.1441	2098.933	36785.6	35896.85
940.2802	2100.4731	36621.95	35733.85
940.4163	2102.0124	36678.95	35770.9
940.5524	2103.5511	36514.65	35624.7
940.6885	2105.089	36411.4	35521.95
940.8245	2106.6261	36323.9	35434.45
940.9606	2108.1626	36226.05	35337.1
941.0965	2109.6983	36207.9	35287.8
941.2325	2111.2332	36053.2	35164.35
941.3684	2112.7675	35928.4	35038.9
941.5044	2114.301	35798.85	34907.4
941.6403	2115.8337	35813.2	34922.4
941.7761	2117.3657	35648.85	34760.3
941.912	2118.897	35564.05	34673.15
942.0478	2120.4276	35493.9	34598.65
942.1835	2121.9575	35321.7	34431.75
942.3193	2123.4866	35305.55	34401.15
942.455	2125.0149	35186.95	34291.75
942.5907	2126.5426	34907	34019.5
942.7264	2128.0695	34880.8	33987.2
942.8621	2129.5956	34821.35	33931.1
942.9977	2131.1211	34753.2	33858.7
943.1333	2132.6458	34653.9	33766.6
943.2689	2134.1698	34542.1	33653.2
943.4044	2135.693	34428.8	33537.8
943.54	2137.2155	34385.05	33492.1
943.6755	2138.7373	34327.2	33438.05
943.8109	2140.2584	34176.85	33286.6
943.9464	2141.7787	34060.15	33165.7
944.0818	2143.2983	33887.4	32999.25
944.2172	2144.8171	33731.15	32845.35
944.3526	2146.3353	33640.45	32750.4
944.4879	2147.8527	33533.85	32646.55
944.6232	2149.3693	33523.4	32634.6
944.7585	2150.8853	33388.5	32496.35
944.8938	2152.4005	33213.1	32321.1
945.029	2153.9149	33166.95	32276.6
945.1642	2155.4287	33040.5	32152.5
945.2994	2156.9417	32931.35	32041.7
945.4346	2158.454	32854.1	31964.1
945.5697	2159.9655	32793.9	31905.15
945.7048	2161.4764	32737.45	31848.55
945.8399	2162.9865	32595.45	31707.4
945.9749	2164.4958	32500.75	31611.4
946.1099	2166.0045	32298.65	31407
946.2449	2167.5124	32330.7	31440.35
946.3799	2169.0195	32276.15	31387.85
946.5148	2170.526	32220.6	31331.1
946.6498	2172.0317	32126.3	31237.4
946.7846	2173.5367	31999	31109.1
946.9195	2175.0409	31911	31022.3
947.0543	2176.5445	31890.9	31003.35
947.1891	2178.0473	31741.2	30852.95
947.3239	2179.5494	31599.35	30704
947.4587	2181.0507	31436.9	30546.75
947.5934	2182.5513	31396.7	30507.05
947.7281	2184.0512	31336.85	30448.55
947.8628	2185.5504	31201.35	30312.05
947.9974	2187.0488	31031.95	30140.1
948.132	2188.5465	30924.05	30035.85
948.2666	2190.0435	30823.85	29933.1
948.4012	2191.5397	30753.05	29864.3
948.5357	2193.0353	30632.7	29745.9
948.6702	2194.5301	30456	29565.6
948.8047	2196.0241	30386.75	29496.1
948.9392	2197.5175	30252.35	29363.2
949.0736	2199.0101	30138	29244.15
949.208	2200.502	30021.9	29132.8
949.3424	2201.9931	29907.8	29018.95
949.4767	2203.4835	29805.95	28914.2
949.611	2204.9733	29704.65	28810.25
949.7453	2206.4622	29681.45	28793.9
949.8796	2207.9505	29533.45	28642.2
950.0138	2209.438	29434.7	28546.7
950.148	2210.9248	29273.1	28382.55
950.2822	2212.4109	29183.25	28295.25
950.4164	2213.8962	29115.8	28224.7
950.5505	2215.3809	29075.25	28183.65
950.6846	2216.8648	28981.45	28090.75
950.8186	2218.3479	28891.35	27998.2
950.9527	2219.8304	28736.4	27842.1
951.0867	2221.3121	28606	27713.45
951.2207	2222.7931	28543.45	27654.15
951.3546	2224.2733	28490.9	27601.45
951.4886	2225.7529	28333.8	27443.3
951.6225	2227.2317	28266.7	27373.45
951.7563	2228.7098	28236.25	27346.85
951.8902	2230.1872	28070.1	27182.65
952.024	2231.6638	28031.1	27141.65
952.1578	2233.1397	27886.7	26991.45
952.2916	2234.6149	27819.15	26929.4
952.4253	2236.0894	27663.15	26772.15
952.559	2237.5632	27669	26779.4
952.6927	2239.0362	27479.9	26591.4
952.8263	2240.5085	27455.65	26565.8
952.9599	2241.9801	27365.95	26477.65
953.0935	2243.4509	27298.3	26410.9
953.2271	2244.921	27141	26251.95
953.3606	2246.3904	27056	26164.35
953.4941	2247.8591	26958.9	26068.4
953.6276	2249.3271	26885.35	25994.95
953.7611	2250.7943	26766.15	25876.15
953.8945	2252.2608	26708.1	25818.3
954.0279	2253.7266	26628.3	25740.25
954.1612	2255.1917	26584.3	25695
954.2946	2256.656	26449.7	25561.3
954.4279	2258.1197	26399.7	25512.6
954.5612	2259.5826	26309.15	25418.75
954.6944	2261.0447	26219.35	25328.35
954.8276	2262.5062	26109.8	25217.55
954.9608	2263.9669	26082.9	25191.05
955.094	2265.4269	26024.9	25136.2
955.2271	2266.8862	25932.8	25045.25
955.3602	2268.3448	25872.75	24983.35
955.4933	2269.8026	25810.7	24922.85
955.6264	2271.2598	25729.65	24841.25
955.7594	2272.7162	25613.1	24725.6
955.8924	2274.1719	25544.1	24655.1
956.0253	2275.6268	25504.8	24614.9
956.1583	2277.0811	25431.25	24540.35
956.2912	2278.5346	25353.85	24464.95
956.4241	2279.9874	25276.7	24386.5
956.5569	2281.4395	25232.3	24344.65
956.6897	2282.8908	25132.95	24241.6
956.8225	2284.3414	25047.85	24157.15
956.9553	2285.7914	24984	24096.9
957.088	2287.2406	24892.15	24002.45
957.2207	2288.689	24825.95	23935.55
957.3534	2290.1368	24682.85	23791.4
957.486	2291.5838	24621.1	23729.55
957.6186	2293.0302	24587.85	23697.45
957.7512	2294.4758	24474.95	23585.55
957.8838	2295.9206	24393.85	23503.05
958.0163	2297.3648	24296.05	23406.8
958.1488	2298.8082	24267.95	23377.25
958.2813	2300.251	24172.55	23283.1
958.4137	2301.693	24093.35	23200.75
958.5461	2303.1343	24080.4	23188.7
958.6785	2304.5748	23964.4	23075.05
958.8108	2306.0147	23857	22968.45
958.9432	2307.4538	23845.7	22955.7
959.0754	2308.8922	23760.7	22871.6
959.2077	2310.3299	23683.05	22793.45
959.3399	2311.7669	23571.85	22683.6
959.4721	2313.2031	23502.7	22612.35
959.6043	2314.6387	23412.5	22523.2
959.7365	2316.0735	23342.85	22451.45
959.8686	2317.5076	23254.85	22364.65
960.0006	2318.941	23227.4	22337.75
960.1327	2320.3737	23163.75	22274.3
960.2647	2321.8056	23101.6	22211.85
960.3967	2323.2369	23010.3	22120.1
960.5287	2324.6674	22934.9	22044.05
960.6606	2326.0972	22846.4	21956.6
960.7925	2327.5263	22774.45	21885.8
960.9244	2328.9547	22698.95	21809.6
961.0562	2330.3823	22599.6	21710.05
961.1881	2331.8092	22579.65	21687.7
961.3198	2333.2355	22462.25	21572.3
961.4516	2334.661	22467.45	21577.4
961.5833	2336.0858	22406.05	21515.1
961.715	2337.5098	22337.9	21446.95
961.8467	2338.9332	22303.45	21415.05
961.9783	2340.3558	22197.9	21304.4
962.1099	2341.7778	22102.4	21212.1
962.2415	2343.199	22020.7	21128
962.373	2344.6195	21959.85	21069.9
962.5045	2346.0393	21904.2	21016.8
962.636	2347.4583	21843.75	20954.5
962.7675	2348.8767	21767.65	20878.6
962.8989	2350.2943	21701	20809.15
963.0303	2351.7113	21684	20792.1
963.1617	2353.1275	21619.3	20726.65
963.293	2354.543	21479.6	20582.4
963.4243	2355.9578	21459.65	20569.05
963.5556	2357.3718	21302.8	20413.45
963.6868	2358.7852	21222.85	20332.1
963.818	2360.1978	21132.45	20244.55
963.9492	2361.6098	21078.35	20190.05
964.0803	2363.021	21014.6	20120.55
964.2114	2364.4315	21001.9	20111.9
964.3425	2365.8413	20914.95	20025.05
964.4736	2367.2504	20863.25	19975.45
964.6046	2368.6587	20750.9	19863.65
964.7356	2370.0664	20686.65	19798.6
964.8666	2371.4733	20604.45	19716.6
964.9975	2372.8795	20548.8	19660.05
965.1284	2374.285	20466.75	19578.05
965.2593	2375.6899	20383	19495.1
965.3901	2377.0939	20249.45	19360.9
965.5209	2378.4973	20197.2	19306.65
965.6517	2379.9	20103.05	19215.55
965.7825	2381.3019	20055.45	19167.9
965.9132	2382.7032	19992.35	19101.8
966.0439	2384.1037	19936.85	19050.25
966.1745	2385.5035	19873	18985.1
966.3051	2386.9027	19790.6	18901.85
966.4357	2388.3011	19744.3	18852.3
966.5663	2389.6987	19686.5	18797.4
966.6968	2391.0957	19588.95	18699.45
966.8273	2392.492	19520.4	18632.95
966.9578	2393.8876	19403.85	18516.65
967.0882	2395.2824	19361.5	18472.7
967.2186	2396.6765	19265.65	18378.85
967.349	2398.07	19194.65	18308.15
967.4793	2399.4627	19164.95	18274.25
967.6097	2400.8547	19061	18174.15
967.7399	2402.246	18992.45	18096.65
967.8702	2403.6366	18911.25	18021
968.0004	2405.0265	18827.95	17939.7
968.1306	2406.4156	18753.05	17858.4
968.2607	2407.8041	18673.7	17783.1
968.3909	2409.1918	18591.1	17699.85
968.521	2410.5789	18519.05	17630.35
968.651	2411.9652	18452	17560.9
968.781	2413.3508	18382.65	17493.6
968.911	2414.7358	18268.7	17379.05
969.041	2416.12	18274.8	17387.05
969.1709	2417.5035	18236.15	17348.2
969.3008	2418.8863	18139.55	17250.15
969.4307	2420.2684	18076.75	17189.2
969.5606	2421.6497	17984.65	17095.65
969.6904	2423.0304	17857.3	16970.9
969.8201	2424.4104	17823.35	16935
969.9499	2425.7896	17794.75	16902.35
970.0796	2427.1682	17760.5	16873.4
970.2093	2428.546	17697.4	16808.55
970.3389	2429.9232	17652.7	16762.7
970.4685	2431.2996	17616.15	16727.05
970.5981	2432.6753	17565.6	16677.15
970.7277	2434.0503	17505.45	16615.1
970.8572	2435.4246	17411.5	16523.1
970.9867	2436.7982	17349.05	16458.45
971.1161	2438.1711	17330.7	16443.2
971.2456	2439.5433	17251.6	16361.1
971.375	2440.9148	17180.8	16287.3
971.5043	2442.2856	17086.75	16198
971.6336	2443.6557	17030.2	16140.2
971.7629	2445.025	16959.05	16071.35
971.8922	2446.3937	16963.7	16075.6
972.0214	2447.7617	16885.8	15996.5
972.1506	2449.1289	16864.1	15976.35
972.2798	2450.4955	16782.7	15890.45
972.4089	2451.8613	16722.7	15836.35
972.538	2453.2265	16702.15	15814.9
972.6671	2454.5909	16648.95	15760
972.7961	2455.9546	16603.3	15715.2
972.9251	2457.3177	16535.5	15647.85
973.0541	2458.68	16504.3	15615.15
973.1831	2460.0416	16480	15591.6
973.312	2461.4025	16467.1	15577.55
973.4408	2462.7627	16374	15473.25
973.5697	2464.1222	16317.5	15428.85
973.6985	2465.4811	16236.5	15347.5
973.8273	2466.8392	16161.45	15272.05
973.956	2468.1966	16141.1	15251.25
974.0847	2469.5533	16129.5	15239.65
974.2134	2470.9093	16075.15	15184.85
974.3421	2472.2645	16027.2	15137.15
974.4707	2473.6191	15964.9	15077.8
974.5993	2474.973	15908.4	15017.25
974.7278	2476.3262	15845.8	14956.65
974.8563	2477.6787	15786.85	14900.25
974.9848	2479.0305	15691.85	14804.35
975.1132	2480.3816	15664.7	14774.85
975.2417	2481.7319	15592.25	14702.45
975.37	2483.0816	15534.1	14643.45
975.4984	2484.4306	15488.9	14599.6
975.6267	2485.7789	15425.2	14537.45
975.755	2487.1264	15325.85	14436.1
975.8833	2488.4733	15295.85	14406.15
976.0115	2489.8195	15268.3	14372.65
976.1397	2491.165	15207.1	14313.4
976.2678	2492.5097	15146.4	14256.4
976.3959	2493.8538	15052.6	14165.45
976.524	2495.1972	14994.35	14106.3
976.6521	2496.5398	14940.3	14052.1
976.7801	2497.8818	14894.65	14004.4
976.9081	2499.2231	14816.45	13926.75
977.036	2500.5637	14767	13876.1
977.164	2501.9035	14738.3	13848.15
977.2918	2503.2427	14687.6	13795.05
977.4197	2504.5812	14640.25	13752.1
977.5475	2505.919	14602.1	13710.9
977.6753	2507.256	14567.6	13678.85
977.8031	2508.5924	14461.4	13572.4
977.9308	2509.9281	14463.2	13568.15
978.0585	2511.2631	14396.4	13507.65
978.1861	2512.5974	14357.1	13467.6
978.3137	2513.9309	14254.4	13365.8
978.4413	2515.2638	14265.35	13350.2
978.5689	2516.596	14206	13317.55
978.6964	2517.9275	14145.45	13256.65
978.8239	2519.2583	14117.3	13227.75
978.9513	2520.5884	14010.5	13121.6
979.0788	2521.9178	13953.2	13063.85
979.2062	2523.2465	13944.4	13057.5
979.3335	2524.5745	13855.8	12969
979.4608	2525.9018	13819.8	12931.15
979.5881	2527.2284	13821.1	12933.5
979.7154	2528.5543	13760.3	12871.8
979.8426	2529.8796	13719.5	12828.95
979.9698	2531.2041	13695.9	12807.5
980.0969	2532.5279	13647.1	12759.65
980.224	2533.851	13608.8	12718.85
980.3511	2535.1735	13598	12710.35
980.4781	2536.4952	13525.15	12636.2
980.6052	2537.8163	13506	12618.95
980.7321	2539.1366	13423.65	12535.25
980.8591	2540.4562	13446.75	12558.55
980.986	2541.7752	13398.4	12509.4
981.1129	2543.0935	13370.55	12479.85
981.2397	2544.411	13338.85	12447.5
981.3665	2545.7279	13289.4	12401.4
981.4933	2547.0441	13276.7	12387.35
981.62	2548.3596	13251.95	12361.75
981.7467	2549.6744	13218.85	12330.2
981.8734	2550.9885	13123.85	12228.25
982.0001	2552.3019	13095.35	12206.65
982.1267	2553.6146	13080.3	12190.95
982.2532	2554.9266	13038.25	12150.35
982.3798	2556.2379	12997.5	12104.5
982.5063	2557.5485	12971.5	12084.75
982.6327	2558.8585	12927.35	12031.55
982.7592	2560.1677	12895.25	12002.7
982.8856	2561.4762	12868.85	11979.7
983.0119	2562.7841	12843.4	11952.1
983.1383	2564.0913	12811.15	11923.7
983.2646	2565.3977	12812.85	11925.05
983.3908	2566.7035	12757.05	11867.85
983.517	2568.0086	12717.75	11829.05
983.6432	2569.313	12697.6	11807.7
983.7694	2570.6167	12650.8	11759.65
983.8955	2571.9197	12628.8	11742
984.0216	2573.222	12626.7	11734.95
984.1476	2574.5236	12562.15	11673.15
984.2737	2575.8246	12554.2	11663.65
984.3996	2577.1248	12513.05	11620.65
984.5256	2578.4244	12501.85	11613.15
984.6515	2579.7232	12476.45	11586.85
984.7774	2581.0214	12481.05	11567.9
984.9032	2582.3189	12410.55	11524.3
985.029	2583.6157	12392.7	11499.65
985.1548	2584.9118	12342.6	11452.6
985.2806	2586.2072	12296.75	11407.55
985.4063	2587.5019	12267.2	11380
985.5319	2588.7959	12237.85	11349.4
985.6576	2590.0893	12229.35	11338.4
985.7832	2591.3819	12193.65	11306.1
985.9087	2592.6739	12117.35	11230.85
986.0343	2593.9652	12088.8	11198.55
986.1597	2595.2557	12054.1	11165.75
986.2852	2596.5456	11984.6	11093.8
986.4106	2597.8348	11953.25	11064.9
986.536	2599.1234	11919.5	11029.95
986.6614	2600.4112	11895.15	11006.9
986.7867	2601.6983	11826.25	10935.2
986.912	2602.9848	11764.5	10874.3
987.0372	2604.2705	11729.8	10835.6
987.1624	2605.5556	11736.1	10846.25
987.2876	2606.84	11671.15	10784
987.4128	2608.1237	11620.3	10729
987.5379	2609.4067	11570.15	10680.25
987.6629	2610.689	11516.4	10619.8
987.788	2611.9707	11466.8	10573.4
987.913	2613.2516	11456.8	10564.15
988.0379	2614.5319	11381.7	10493.85
988.1629	2615.8115	11325.55	10436.65
988.2878	2617.0903	11306.25	10418.2
988.4126	2618.3685	11247.9	10358.45
988.5375	2619.6461	11224.95	10337.2
988.6622	2620.9229	11161.35	10273.85
988.787	2622.199	11149.05	10259.45
988.9117	2623.4745	11120.15	10230.35
989.0364	2624.7493	11086	10197.15
989.161	2626.0234	11025.6	10138.85
989.2857	2627.2968	10982.3	10092.7
989.4102	2628.5695	10949.85	10061.05
989.5348	2629.8415	10923.65	10034.95
989.6593	2631.1128	10869.8	9979.95
989.7837	2632.3835	10811.2	9922.45
989.9082	2633.6535	10763.8	9875.7
990.0326	2634.9228	10727.1	9839.85
990.1569	2636.1914	10698.2	9810.05
990.2812	2637.4593	10671.8	9775.8
990.4055	2638.7265	10624.55	9736.5
990.5298	2639.9931	10592.25	9702.65
990.654	2641.259	10582	9692.4
990.7782	2642.5242	10539.8	9651.8
990.9023	2643.7887	10481	9592.55
991.0264	2645.0525	10454.4	9565.75
991.1505	2646.3156	10414.45	9525.85
991.2745	2647.5781	10383.8	9497.5
991.3985	2648.8398	10384.95	9497.3
991.5225	2650.1009	10345.35	9420.55
991.6464	2651.3613	10296.65	9405.8
991.7703	2652.6211	10248.7	9359.45
991.8942	2653.8801	10231.9	9344.95
992.018	2655.1385	10203	9311.4
992.1418	2656.3961	10192.75	9303.85
992.2655	2657.6531	10140.95	9251.7
992.3892	2658.9094	10116.2	9227
992.5129	2660.1651	10070.8	9182.9
992.6366	2661.42	10056.35	9167.45
992.7602	2662.6743	10023	9133.15
992.8837	2663.9279	10013.75	9124.9
993.0073	2665.1808	9979.75	9089.55
993.1307	2666.433	9948.75	9059.65
993.2542	2667.6846	9927.35	9037.7
993.3776	2668.9354	9900.1	9009.15
993.501	2670.1856	9833.2	8942.8
993.6244	2671.4351	9833.75	8945.75
993.7477	2672.6839	9820.45	8931.4
993.8709	2673.9321	9770.85	8882.55
993.9942	2675.1795	9750.6	8862.65
994.1174	2676.4263	9717.95	8830.15
994.2405	2677.6724	9675.05	8787.15
994.3637	2678.9179	9657.3	8768.75
994.4868	2680.1626	9613.65	8725.5
994.6098	2681.4067	9607.65	8720.35
994.7328	2682.6501	9567.35	8679.1
994.8558	2683.8928	9535.45	8647.35
994.9788	2685.1348	9509.35	8621.95
995.1017	2686.3761	9455	8567.2
995.2245	2687.6168	9420.95	8533.15
995.3474	2688.8568	9397.05	8508.1
995.4702	2690.0961	9356.1	8469.4
995.5929	2691.3348	9346.2	8458.3
995.7156	2692.5727	9312	8422.85
995.8383	2693.81	9286.85	8398.95
995.961	2695.0466	9249	8363.35
996.0836	2696.2826	9220.7	8331.8
996.2062	2697.5178	9204.95	8315
996.3287	2698.7524	9144.5	8254.75
996.4512	2699.9863	9150.3	8257.75
996.5737	2701.2195	9111.95	8224.2
996.6961	2702.452	9085.45	8197.05
996.8185	2703.6839	9048.15	8159.5
996.9408	2704.9151	9049.7	8161.45
997.0631	2706.1456	9001.4	8112.2
997.1854	2707.3755	8973	8084.55
997.3077	2708.6046	8951.9	8063.25
997.4299	2709.8331	8924.75	8035.15
997.552	2711.0609	8874.35	7985.85
997.6742	2712.2881	8869.55	7981.5
997.7963	2713.5145	8841.1	7951.65
997.9183	2714.7403	8822.95	7933.35
998.0403	2715.9654	8779.4	7890.95
998.1623	2717.1899	8762.7	7858.4
998.2842	2718.4136	8737.1	7848.05
998.4062	2719.6367	8727.35	7840.75
998.528	2720.8591	8683.6	7788.7
998.6498	2722.0809	8666	7780.2
998.7716	2723.3019	8651.1	7758.8
998.8934	2724.5223	8627.05	7737.35
999.0151	2725.7421	8590	7700.05
999.1368	2726.9611	8592.7	7702.95
999.2584	2728.1795	8565.65	7670.6
999.38	2729.3972	8522.5	7635.45
999.5016	2730.6142	8489.65	7593.05
999.6231	2731.8306	8407.5	7518.5
999.7446	2733.0462	8385.8	7497.2
999.8661	2734.2612	8320.75	7425.35
999.9875	2735.4756	8261.85	7372.5
1000.1089	2736.6892	8234.6	7345.2
1000.2302	2737.9022	8198.65	7312.2
1000.3515	2739.1145	8144.55	7257.7
1000.4728	2740.3262	8107.45	7212.65
1000.594	2741.5372	8084.35	7196.05
1000.7152	2742.7475	8043.75	7155.9
1000.8363	2743.9571	8017.4	7126.35
1000.9575	2745.1661	7986.3	7095.2
1001.0785	2746.3744	7973.45	7084.25
1001.1996	2747.582	7938.8	7052.15
1001.3206	2748.7889	7889.5	7000.3
1001.4415	2749.9952	7872.35	6984.95
1001.5625	2751.2008	7811.6	6921.95
1001.6833	2752.4057	7811.3	6920.2
1001.8042	2753.61	7765.35	6876.9
1001.925	2754.8136	7762.8	6874.2
1002.0458	2756.0165	7723.05	6834.2
1002.1665	2757.2188	7682.85	6795.55
1002.2872	2758.4204	7664.1	6774.05
1002.4078	2759.6213	7638.85	6749.1
1002.5285	2760.8215	7629.5	6736.45
1002.649	2762.0211	7588.3	6699.25
1002.7696	2763.22	7569.65	6678.65
1002.8901	2764.4182	7551.9	6662.15
1003.0106	2765.6158	7514.75	6627.4
1003.131	2766.8127	7490.2	6602.8
1003.2514	2768.009	7461.65	6573.4
1003.3717	2769.2045	7445.2	6555.7
1003.492	2770.3994	7421.65	6533.1
1003.6123	2771.5936	7388.45	6498.15
1003.7325	2772.7872	7347	6459.65
1003.8527	2773.9801	7308.85	6417.95
1003.9729	2775.1723	7304.6	6400.35
1004.093	2776.3639	7274.45	6385.95
1004.2131	2777.5548	7214.2	6324
1004.3331	2778.745	7213.75	6326.3
1004.4531	2779.9346	7206.6	6320.25
1004.5731	2781.1235	7184.75	6294.45
1004.693	2782.3117	7175.2	6287.7
1004.8129	2783.4992	7124.75	6237.7
1004.9328	2784.6861	7127.4	6238.85
1005.0526	2785.8723	7092.25	6202.2
1005.1723	2787.0579	7065.8	6177.4
1005.2921	2788.2428	7052.9	6162.3
1005.4118	2789.427	7033.5	6146.6
1005.5314	2790.6106	7013.15	6126.55
1005.651	2791.7935	7020.8	6131.4
1005.7706	2792.9757	6989	6102.55
1005.8902	2794.1573	6954.75	6065.85
1006.0097	2795.3382	6958.15	6070.75
1006.1291	2796.5184	6942	6054.4
1006.2485	2797.698	6924.3	6031.65
1006.3679	2798.8769	6933.9	6043.75
1006.4873	2800.0551	6891.75	6003.1
1006.6066	2801.2327	6899.35	6007.3
1006.7258	2802.4096	6883.05	5995.15
1006.8451	2803.5859	6886.7	5998.65
1006.9642	2804.7615	6854.8	5967.25
1007.0834	2805.9364	6859.25	5972.6
1007.2025	2807.1106	6850.05	5960.65
1007.3216	2808.2842	6862.25	5972.1
1007.4406	2809.4572	6852.7	5962.6
1007.5596	2810.6294	6858	5968
1007.6785	2811.801	6897.55	6011.2
1007.7975	2812.972	6910.25	6023.65
1007.9163	2814.1423	6919.8	6031.8
1008.0352	2815.3119	6937.1	6050.15
1008.154	2816.4808	6973.95	6087.4
1008.2727	2817.6491	6989.5	6103.05
1008.3914	2818.8167	7005.4	6116.95
1008.5101	2819.9837	7056.7	6163.05
1008.6288	2821.15	7097.15	6210.1
1008.7474	2822.3157	7095.4	6208.5
1008.8659	2823.4807	7131.2	6245.6
1008.9844	2824.645	7156.9	6268.3
1009.1029	2825.8086	7186.7	6300.85
1009.2214	2826.9716	7213.8	6328.5
1009.3398	2828.134	7248.45	6359.1
1009.4581	2829.2957	7270.45	6382.7
1009.5764	2830.4567	7285.45	6399
1009.6947	2831.617	7296.35	6408.2
1009.813	2832.7767	7288.65	6401.9
1009.9312	2833.9358	7268.45	6380.4
1010.0493	2835.0941	7248.1	6361.2
1010.1675	2836.2519	7228.35	6339.95
1010.2855	2837.4089	7200.05	6309.35
1010.4036	2838.5653	7183.6	6296.8
1010.5216	2839.7211	7167.35	6279.65
1010.6396	2840.8761	7149.45	6260.15
1010.7575	2842.0306	7140.25	6254.25
1010.8754	2843.1843	7164.05	6274.95
1010.9932	2844.3374	7170.3	6283.3
1011.111	2845.4899	7204.75	6315.85
1011.2288	2846.6417	7255.6	6369.5
1011.3465	2847.7928	7305	6418.3
1011.4642	2848.9433	7351.45	6464.35
1011.5818	2850.0931	7396.35	6508.15
1011.6995	2851.2422	7470.65	6580.5
1011.817	2852.3907	7502.2	6611.4
1011.9345	2853.5385	7556.35	6668.2
1012.052	2854.6857	7567.05	6669.05
1012.1695	2855.8323	7613.5	6727.75
1012.2869	2856.9781	7631.1	6744.7
1012.4042	2858.1233	7651.55	6764.15
1012.5216	2859.2679	7665.8	6779
1012.6389	2860.4118	7705.7	6818.25
1012.7561	2861.555	7708.15	6814.8
1012.8733	2862.6976	7746.15	6855.8
1012.9905	2863.8395	7739.6	6852.55
1013.1076	2864.9808	7769.6	6883.2
1013.2247	2866.1214	7785.8	6901.1
1013.3417	2867.2614	7780.95	6892.75
1013.4587	2868.4007	7763.3	6874.55
1013.5757	2869.5393	7738.15	6849.35
1013.6926	2870.6773	7727.8	6838.95
1013.8095	2871.8146	7737.9	6845.05
1013.9263	2872.9513	7699.3	6809.35
1014.0431	2874.0874	7654.4	6766.55
1014.1599	2875.2227	7645.25	6755.25
1014.2766	2876.3574	7617.8	6730.3
1014.3933	2877.4915	7552.3	6665
1014.51	2878.6249	7518.35	6630.6
1014.6266	2879.7577	7505.35	6618.3
1014.7431	2880.8898	7450.95	6551.8
1014.8596	2882.0212	7407.3	6522.85
1014.9761	2883.152	7385.65	6497.05
1015.0925	2884.2821	7350.1	6464.1
1015.2089	2885.4116	7303.55	6415.9
1015.3253	2886.5405	7287.1	6398.8
1015.4416	2887.6686	7289.1	6398.8
1015.5579	2888.7962	7278.4	6390.85
1015.6741	2889.923	7264.15	6376
1015.7903	2891.0493	7248.7	6361.25
1015.9065	2892.1748	7247.45	6359.65
1016.0226	2893.2997	7225.55	6337.05
1016.1387	2894.424	7217.8	6331
1016.2547	2895.5476	7226.95	6340.8
1016.3707	2896.6706	7208.8	6323.05
1016.4866	2897.7929	7209.75	6320.3
1016.6025	2898.9145	7232.95	6344.8
1016.7184	2900.0355	7251.3	6361.9
1016.8342	2901.1559	7253.65	6366.1
1016.95	2902.2756	7253.9	6366.35
1017.0658	2903.3946	7288.05	6401.05
1017.1815	2904.513	7293.5	6401.3
1017.2971	2905.6308	7278.25	6390.3
1017.4127	2906.7479	7300.45	6410.85
1017.5283	2907.8643	7331.5	6443.6
1017.6439	2908.9801	7297.35	6409.55
1017.7594	2910.0953	7287	6398.85
1017.8748	2911.2098	7256.5	6365.1
1017.9902	2912.3236	7223.35	6327.1
1018.1056	2913.4368	7228.25	6337.4
1018.2209	2914.5494	7186.2	6296.1
1018.3362	2915.6613	7142.75	6250.65
1018.4515	2916.7725	7109.95	6218.4
1018.5667	2917.8831	7057.85	6169.25
1018.6819	2918.9931	7017.6	6127.6
1018.797	2920.1024	6974.65	6086.95
1018.9121	2921.211	6955.65	6067.5
1019.0271	2922.319	6930.4	6041.8
1019.1421	2923.4264	6893.65	6006.7
1019.2571	2924.5331	6847.35	5961.5
1019.372	2925.6391	6815.3	5928.4
1019.4869	2926.7445	6819.3	5933.3
1019.6017	2927.8493	6801.8	5913.1
1019.7165	2928.9534	6792.9	5906.3
1019.8313	2930.0569	6773.8	5885.35
1019.946	2931.1597	6768.45	5880.1
1020.0606	2932.2619	6712.35	5824.15
1020.1753	2933.3634	6722.8	5835.95
1020.2899	2934.4643	6719.45	5824.2
1020.4044	2935.5645	6683.15	5791.2
1020.5189	2936.6641	6665.15	5773.2
1020.6334	2937.763	6585.7	5696.1
1020.7478	2938.8613	6542.4	5655.65
1020.8622	2939.959	6474.75	5585.7
1020.9765	2941.056	6391.55	5507.75
1021.0908	2942.1523	6301.45	5412.95
1021.2051	2943.248	6207.9	5318.15
1021.3193	2944.3431	6123.7	5235.8
1021.4334	2945.4375	5996.55	5110.4
1021.5476	2946.5313	5899.75	5012.6
1021.6617	2947.6244	5779.6	4890.15
1021.7757	2948.7169	5688.05	4799.3
1021.8897	2949.8087	5578.6	4692.9
1022.0037	2950.8999	5468.8	4581.55
1022.1176	2951.9904	5388	4502.2
1022.2315	2953.0803	5305.15	4416.7
1022.3453	2954.1696	5227.45	4340.95
1022.4591	2955.2582	5163.6	4275.45
1022.5728	2956.3462	5109.75	4223.4
1022.6865	2957.4335	5071.15	4183.85
1022.8002	2958.5202	5025.3	4134.5
1022.9138	2959.6062	4975.6	4088.1
1023.0274	2960.6916	4943.55	4056.1
1023.141	2961.7764	4909.75	4022.45
1023.2545	2962.8605	4870.3	3981.95
1023.3679	2963.9439	4834.65	3947.65
1023.4813	2965.0267	4818.6	3932
1023.5947	2966.1089	4828.6	3920.3
1023.708	2967.1905	4773.45	3886.55
1023.8213	2968.2714	4773.1	3883.5
1023.9346	2969.3516	4745.5	3858.1
1024.0478	2970.4312	4743.85	3849.25
1024.1609	2971.5102	4714.95	3827.4
1024.274	2972.5885	4705.4	3817.8
1024.3871	2973.6662	4708.35	3815.95
1024.5002	2974.7432	4690.05	3804.1
1024.6132	2975.8196	4674.3	3786.45
1024.7261	2976.8954	4640.8	3755.45
1024.839	2977.9705	4635.55	3747.8
1024.9519	2979.045	4599.3	3713.05
1025.0647	2980.1188	4559.6	3671.15
1025.1775	2981.192	4548.7	3661.65
1025.2902	2982.2645	4519.25	3630
1025.4029	2983.3364	4481.15	3594.6
1025.5156	2984.4077	4432.95	3546.3
1025.6282	2985.4783	4420.45	3527.75
1025.7407	2986.5483	4362.75	3474.7
1025.8532	2987.6177	4317.4	3432.3
1025.9657	2988.6864	4293.85	3405.8
1026.0782	2989.7545	4252.75	3365.95
1026.1906	2990.8219	4197.5	3310.85
1026.3029	2991.8887	4157.3	3267.5
1026.4152	2992.9548	4125.35	3237.6
1026.5275	2994.0204	4105.75	3219.7
1026.6397	2995.0852	4060.65	3176
1026.7519	2996.1495	4013.15	3126.5
1026.864	2997.2131	3985.15	3098.45
1026.9761	2998.276	3950.2	3062.6
1027.0882	2999.3383	3917.15	3028.3
1027.2002	3000.4	3889.35	3003.6
1027.3122	3001.4611	3861.4	2972.5
1027.4241	3002.5215	3840.3	2953.9
1027.536	3003.5812	3802.6	2916.65
1027.6478	3004.6404	3785.6	2897.5
1027.7596	3005.6989	3790.15	2900.2
1027.8714	3006.7567	3765.8	2877
1027.9831	3007.8139	3753.95	2848.3
1028.0947	3008.8705	3722.3	2834
1028.2064	3009.9264	3707.7	2816.75
1028.3179	3010.9818	3677.8	2789.1
1028.4295	3012.0364	3685.85	2797
1028.541	3013.0905	3653.4	2765.1
1028.6524	3014.1439	3642	2753.65
1028.7638	3015.1966	3643.6	2758.15
1028.8752	3016.2487	3627.9	2740.05
1028.9865	3017.3002	3615.3	2726.15
1029.0978	3018.3511	3619.65	2733.4
1029.209	3019.4013	3595.45	2708.15
1029.3202	3020.4509	3575.8	2688.75
1029.4314	3021.4998	3587.3	2698.55
1029.5425	3022.5481	3565.6	2679.2
1029.6535	3023.5958	3556.3	2669.15
1029.7645	3024.6428	3546.05	2658.45
1029.8755	3025.6892	3529.5	2644.25
1029.9864	3026.735	3524.6	2638.95
1030.0973	3027.7802	3522.95	2635.65
1030.2082	3028.8247	3497.3	2610.95
1030.319	3029.8685	3488.95	2600.25
1030.4297	3030.9118	3478.5	2591.35
1030.5404	3031.9544	3470.1	2581.5
1030.6511	3032.9963	3479.85	2593.4
1030.7617	3034.0376	3474.85	2589.2
1030.8723	3035.0783	3455.35	2566.05
1030.9829	3036.1184	3453.35	2568.85
1031.0934	3037.1578	3431.15	2545.25
1031.2038	3038.1966	3438.15	2551.95
1031.3142	3039.2348	3425.3	2539.9
1031.4246	3040.2723	3412.95	2518.65
1031.5349	3041.3092	3410.7	2525
1031.6452	3042.3455	3391.45	2504.75
1031.7554	3043.3811	3377.65	2488.8
1031.8656	3044.4161	3365.15	2478.25
1031.9758	3045.4505	3355.7	2470.45
1032.0859	3046.4842	3351	2463.45
1032.1959	3047.5173	3338.05	2449.7
1032.3059	3048.5498	3317.3	2431.85
1032.4159	3049.5816	3298.8	2410.8
1032.5258	3050.6128	3293.25	2404.65
1032.6357	3051.6434	3287.45	2398.9
1032.7455	3052.6734	3266.7	2379.45
1032.8553	3053.7027	3255.9	2368.7
1032.9651	3054.7314	3257.15	2371.4
1033.0748	3055.7594	3218.3	2333.1
1033.1845	3056.7868	3227.45	2339.9
1033.2941	3057.8136	3207.2	2321.3
1033.4037	3058.8398	3206.6	2320.15
1033.5132	3059.8653	3173.8	2287.75
1033.6227	3060.8902	3167.2	2280.9
1033.7321	3061.9145	3160	2272.15
1033.8415	3062.9381	3155.55	2266.65
1033.9509	3063.9612	3142	2239.9
1034.0602	3064.9835	3120.1	2232.4
1034.1694	3066.0053	3096.1	2206.6
1034.2787	3067.0264	3098	2212.35
1034.3878	3068.0469	3093.05	2204.1
1034.497	3069.0668	3072.65	2183.25
1034.6061	3070.086	3048.5	2162.25
1034.7151	3071.1046	3048	2160.75
1034.8241	3072.1226	3038.1	2148.7
1034.9331	3073.1399	3013.9	2128.15
1035.042	3074.1567	3001.6	2115.5
1035.1508	3075.1727	2991.1	2103.45
1035.2597	3076.1882	2969.5	2081
1035.3684	3077.203	2957.8	2072
1035.4772	3078.2173	2948.3	2060.65
1035.5859	3079.2308	2930.2	2039.75
1035.6945	3080.2438	2900.5	2012.15
1035.8031	3081.2561	2890.6	2002.55
1035.9117	3082.2678	2877.05	1990.65
1036.0202	3083.2789	2870.2	1983.2
1036.1286	3084.2893	2867.75	1980.6
1036.2371	3085.2991	2854.75	1968.35
1036.3454	3086.3083	2842.8	1951
1036.4538	3087.3169	2828.75	1941.95
1036.562	3088.3248	2823.9	1936.15
1036.6703	3089.3321	2806.15	1918.5
1036.7785	3090.3388	2790.35	1902.9
1036.8866	3091.3449	2773.6	1886.15
1036.9948	3092.3503	2765.05	1876
1037.1028	3093.3551	2754.25	1867.8
1037.2108	3094.3593	2749.8	1863.2
1037.3188	3095.3629	2725.15	1837.3
1037.4267	3096.3658	2716.5	1829.05
1037.5346	3097.3681	2709	1821.9
1037.6425	3098.3698	2709.05	1820.9
1037.7503	3099.3708	2698.05	1806.65
1037.858	3100.3713	2674.05	1787.4
1037.9657	3101.3711	2670.4	1782.15
1038.0734	3102.3702	2777.5	1756.05
1038.181	3103.3688	2667.15	1777.7
1038.2886	3104.3667	2638.1	1751.3
1038.3961	3105.364	2627.65	1743
1038.5036	3106.3607	2617.6	1728
1038.611	3107.3568	2608.75	1722.05
1038.7184	3108.3522	2596.6	1711.15
1038.8257	3109.347	2596.95	1707.25
1038.933	3110.3412	2584.85	1693.45
1039.0403	3111.3348	2572.55	1685.4
1039.1475	3112.3277	2550.1	1663.95
1039.2547	3113.32	2547.3	1662.6
1039.3618	3114.3117	2540.5	1653.6
1039.4689	3115.3028	2529.65	1642.65
1039.5759	3116.2932	2516.35	1627
1039.6829	3117.2831	2507.65	1615.2
1039.7898	3118.2723	2486.05	1600.05
1039.8967	3119.2608	2480.65	1594.2
1040.0035	3120.2488	2475.65	1590.45
1040.1103	3121.2361	2456.2	1568
1040.2171	3122.2229	2455.3	1568.4
1040.3238	3123.209	2449.9	1561
1040.4305	3124.1944	2444.15	1559.3
1040.5371	3125.1793	2437.65	1549.75
1040.6437	3126.1635	2425.9	1538.15
1040.7502	3127.1471	2421.7	1534.2
1040.8567	3128.1301	2401.8	1515.5
1040.9631	3129.1125	2403.2	1515.95
1041.0695	3130.0942	2404.8	1517.8
1041.1759	3131.0753	2399.55	1503.45
1041.2822	3132.0558	2387.3	1496.7
1041.3884	3133.0357	2385	1496.8
1041.4946	3134.015	2377.4	1489.95
1041.6008	3134.9936	2360.45	1473.15
1041.7069	3135.9716	2368.3	1461.85
1041.813	3136.949	2357.95	1472.9
1041.919	3137.9258	2351.25	1459.1
1042.025	3138.902	2336.95	1446
1042.1309	3139.8775	2328.85	1443.3
1042.2368	3140.8524	2326.3	1441.35
1042.3427	3141.8267	2311.6	1422.95
1042.4485	3142.8004	2314.15	1427.65
1042.5542	3143.7735	2316.05	1421.5
1042.6599	3144.7459	2310	1419.4
1042.7656	3145.7178	2290.65	1402.55
1042.8712	3146.689	2276.6	1389.6
1042.9768	3147.6596	2278.45	1393.25
1043.0823	3148.6295	2258.2	1373.25
1043.1878	3149.5989	2271.4	1383
1043.2932	3150.5676	2247.4	1362.15
1043.3986	3151.5357	2246.6	1359.65
1043.5039	3152.5032	2239	1352.55
1043.6092	3153.4701	2223.5	1337.5
1043.7145	3154.4364	2219.4	1330.05
1043.8197	3155.402	2213.45	1329.45
1043.9248	3156.367	2215.45	1327.2
1044.03	3157.3315	2245.75	1315.15
1044.135	3158.2952	2197.25	1309.25
1044.24	3159.2584	2194.4	1308.75
1044.345	3160.221	2173.3	1287.8
1044.4499	3161.1829	2174.65	1287.3
1044.5548	3162.1442	2162.85	1276.9
1044.6596	3163.105	2156.25	1268.75
1044.7644	3164.065	2148.35	1261.95
1044.8692	3165.0245	2135.25	1245.85
1044.9739	3165.9834	2136.1	1250
1045.0785	3166.9416	2129.8	1243.45
1045.1831	3167.8993	2112.85	1228.15
1045.2877	3168.8563	2118	1230.45
1045.3922	3169.8127	2100.75	1214.7
1045.4966	3170.7684	2087.25	1200.15
1045.6011	3171.7236	2094.95	1207.2
1045.7054	3172.6782	2089.65	1204.25
1045.8098	3173.6321	2091.55	1204.5
1045.914	3174.5854	2073	1182.6
1046.0183	3175.5381	2071.45	1184.45
1046.1224	3176.4902	2062.05	1174.25
1046.2266	3177.4417	2045.9	1159.1
1046.3307	3178.3926	2041.6	1154.95
1046.4347	3179.3428	2038.6	1153.7
1046.5387	3180.2924	2029.55	1142.75
1046.6427	3181.2415	2029.9	1142.8
1046.7466	3182.1899	2023.7	1137.95
1046.8504	3183.1377	2009.4	1121.85
1046.9542	3184.0848	2011.65	1121.95
1047.058	3185.0314	1994.35	1108.7
1047.1617	3185.9773	1990.95	1104.3
1047.2654	3186.9227	1981.55	1094.1
1047.369	3187.8674	1988.75	1100.65
1047.4726	3188.8115	1994.8	1103.5
1047.5761	3189.755	1973.5	1086
1047.6796	3190.6979	1960.75	1075.7
1047.783	3191.6402	1969.2	1084.9
1047.8864	3192.5818	1952	1065.35
1047.9898	3193.5229	1969.5	1058.3
1048.0931	3194.4633	1948.65	1060.75
1048.1963	3195.4031	1946.85	1061.2
1048.2995	3196.3423	1942.4	1056.35
1048.4027	3197.2809	1928.9	1042.55
1048.5058	3198.2189	1929.15	1043.1
1048.6089	3199.1563	1922.65	1029
1048.7119	3200.0931	1906.55	1022.55
1048.8148	3201.0292	1907.75	1022.3
1048.9178	3201.9648	1905.45	1017.65
1049.0206	3202.8997	1906.5	1017.85
1049.1235	3203.834	1895.2	1007.7
1049.2262	3204.7677	1883.4	997.45
1049.329	3205.7008	1884.4	994.8
1049.4317	3206.6333	1875.05	990.2
1049.5343	3207.5652	1881.55	995.7
1049.6369	3208.4964	1856.5	969.3
1049.7394	3209.4271	1865.45	979.95
1049.8419	3210.3571	1861.95	977.5
1049.9444	3211.2865	1852.8	964.45
1050.0468	3212.2154	1856.85	969.55
1050.1491	3213.1436	1846.8	957.8
1050.2514	3214.0712	1847.6	954.35
1050.3537	3214.9982	1836.8	950.9
1050.4559	3215.9246	1831.8	944.55
1050.5581	3216.8503	1830.45	945.75
1050.6602	3217.7755	1817.6	930
1050.7623	3218.7001	1820.15	934.7
1050.8643	3219.624	1806.3	920.65
1050.9663	3220.5473	1800.8	915.4
1051.0682	3221.4701	1797.9	908.8
1051.1701	3222.3922	1801.25	914.2
1051.2719	3223.3137	1802.85	915.3
1051.3737	3224.2346	1788.85	902.65
1051.4754	3225.1549	1783.2	896.8
1051.5771	3226.0746	1774.1	887.35
1051.6788	3226.9937	1778.65	893.05
1051.7804	3227.9121	1766.95	882.4
1051.8819	3228.83	1769.75	884.55
1051.9834	3229.7473	1759	874.45
1052.0849	3230.6639	1751.8	866.8
1052.1863	3231.5799	1747.35	861.4
1052.2876	3232.4954	1743.65	856.1
1052.3889	3233.4102	1737.6	851.45
1052.4902	3234.3244	1732.8	842.9
1052.5914	3235.238	1731.75	843.55
1052.6926	3236.151	1749.8	839.15
1052.7937	3237.0634	1722.75	837.35
1052.8948	3237.9752	1712.45	827.1
1052.9958	3238.8864	1707.75	822.9
1053.0968	3239.797	1709.8	822.25
1053.1977	3240.7069	1697.55	809.6
1053.2986	3241.6163	1691.1	802.25
1053.3994	3242.5251	1695.85	809.95
1053.5002	3243.4332	1686	801.25
1053.6009	3244.3408	1681.6	793.9
1053.7016	3245.2477	1668.05	783
1053.8022	3246.154	1673.9	785
1053.9028	3247.0598	1660.55	773.5
1054.0034	3247.9649	1650.25	763.65
1054.1039	3248.8694	1650.3	763.05
1054.2043	3249.7733	1649.25	764.8
1054.3047	3250.6766	1643	756.7
1054.4051	3251.5793	1648.6	762.15
1054.5054	3252.4814	1633.85	749.3
1054.6056	3253.3829	1632.75	747.45
1054.7058	3254.2838	1628.7	744.3
1054.806	3255.1841	1619.3	732.95
1054.9061	3256.0838	1620.15	733.7
1055.0061	3256.9829	1606.4	722.35
1055.1062	3257.8814	1601.4	710.85
1055.2061	3258.7792	1606.55	717.5
1055.306	3259.6765	1590.55	702.95
1055.4059	3260.5731	1585.3	699.35
1055.5057	3261.4692	1568.3	680.85
1055.6055	3262.3647	1564.8	677.8
1055.7052	3263.2595	1557.35	671.05
1055.8049	3264.1538	1547.95	661.6
1055.9045	3265.0474	1532.85	645.9
1056.0041	3265.9404	1529.9	645.25
1056.1036	3266.8329	1508.05	622.55
1056.2031	3267.7247	1514.8	619.55
1056.3025	3268.616	1491.8	607.5
1056.4019	3269.5066	1479.45	593.7
1056.5013	3270.3966	1450.95	564.8
1056.6005	3271.286	1438.8	553.35
