Software Version:	3.9.2.0
Unit SN:	10000200
Spectrometer SN:	6960
Date:	3/6/2024 9:43:55 AM
Data Line Index:	25
Spectral Points:	2048
Integration time (ms):	125
Averages:	20
Delay (ms):	30
Sequence Number:	1
Processing:	dark subtract
Laser Power (mW):	300
Laser Current (mA):	824
Laser Diode Temp (C):	25.1
Laser Case Temp (C):	24
System Temp (C):	23.9
Spectrometer Temp (C):	21.5
CCD Temp (C):	-0.02
Secondary Temp (C):	20.004
Heatsink Temp (C):	17.81
CCDPCB Temp (C):	30.282
SecondaryPCB Temp (C):	25.58

Wavelength	RamanShift	Raw Counts	Dark Subtracted
787.061	30.1047	457.5	49.2
787.2016	32.3739	456.95	50.15
787.3422	34.6426	463.75	57.1
787.4828	36.9109	466.6	57.75
787.6235	39.1787	476.55	64.3
787.7642	41.4461	480.55	64.6
787.9049	43.7131	491.4	72.4
788.0456	45.9796	495	72.4
788.1863	48.2456	503.5	77
788.3271	50.5112	511	81.65
788.4679	52.7764	519.75	86.3
788.6087	55.0411	528	89.65
788.7496	57.3054	541.75	97.65
788.8904	59.5692	542.9	99.9
789.0313	61.8326	558.2	111.25
789.1722	64.0955	566.45	117.05
789.3132	66.3579	581.65	127.35
789.4541	68.6199	594.95	138.75
789.5951	70.8815	628.1	164.4
789.7361	73.1426	680	213.95
789.8771	75.4032	818.2	347.45
790.0181	77.6634	1168.05	696.05
790.1592	79.9231	1998.75	1523
790.3003	82.1824	3720.75	3239.8
790.4414	84.4412	6765.15	6275.55
790.5825	86.6995	10852.9	10355.35
790.7237	88.9574	14899	14391.4
790.8648	91.2148	17845.85	17330
791.006	93.4717	19486.5	18965.2
791.1472	95.7282	20219.45	19696.45
791.2885	97.9842	20600	20076.1
791.4297	100.2398	20693.15	20163.25
791.571	102.4949	20771.3	20242.2
791.7123	104.7495	20799.35	20261.35
791.8536	107.0036	20742.35	20206.95
791.9949	109.2573	20782.65	20250.05
792.1363	111.5105	20784.9	20249.55
792.2777	113.7632	20761.45	20222.75
792.4191	116.0154	20810	20259.95
792.5605	118.2672	20855.6	20312.2
792.7019	120.5185	20929.85	20385.05
792.8434	122.7693	20924.85	20376.65
792.9849	125.0197	20953.7	20400.65
793.1264	127.2696	20934.75	20379.4
793.2679	129.519	21051.6	20490
793.4094	131.7679	21095.85	20533.75
793.551	134.0163	21171.4	20608.75
793.6926	136.2642	21202.2	20633.3
793.8342	138.5117	21204	20635.25
793.9758	140.7587	21156.05	20585.3
794.1175	143.0052	21252.25	20679.1
794.2591	145.2512	21226.1	20649.6
794.4008	147.4967	21206.2	20630.8
794.5425	149.7417	21196.25	20617.35
794.6842	151.9863	21156.4	20573
794.826	154.2304	21221.95	20633.35
794.9677	156.4739	21200.6	20606.8
795.1095	158.717	21197.2	20604.85
795.2513	160.9596	21229.9	20632.25
795.3931	163.2017	21224.3	20626
795.535	165.4433	21238	20637.85
795.6768	167.6844	21236.6	20631.05
795.8187	169.925	21259.85	20653.05
795.9606	172.1651	21242.8	20632.25
796.1025	174.4047	21225.3	20608.7
796.2445	176.6439	21223.25	20606.35
796.3864	178.8825	21261.55	20642.45
796.5284	181.1206	21264.9	20643.8
796.6704	183.3582	21292.05	20665.3
796.8124	185.5954	21336.55	20709.6
796.9544	187.832	21326.05	20692.9
797.0965	190.0681	21397.25	20761.7
797.2386	192.3037	21430.4	20790.3
797.3806	194.5388	21447.75	20806.25
797.5228	196.7734	21502.05	20859.05
797.6649	199.0075	21547.75	20905.6
797.807	201.2411	21685.65	21040.9
797.9492	203.4742	21694.3	21048.2
798.0914	205.7068	21779.55	21127.25
798.2336	207.9389	21818.35	21165.7
798.3758	210.1704	21879.15	21234.85
798.518	212.4015	21871.45	21235.1
798.6603	214.632	21883.9	21256.15
798.8025	216.862	21921.15	21290.2
798.9448	219.0915	21933.5	21301.5
799.0871	221.3205	21972.5	21338.45
799.2294	223.549	21998.5	21369.4
799.3718	225.777	22068.2	21436.7
799.5141	228.0044	22087.6	21447.2
799.6565	230.2314	22155.45	21513.2
799.7989	232.4578	22116.65	21471.3
799.9413	234.6837	22150.75	21497.7
800.0837	236.909	22210.05	21554.95
800.2262	239.1339	22226.1	21545.25
800.3687	241.3582	22258.35	21594.65
800.5111	243.582	22272.15	21579.5
800.6536	245.8053	22309.55	21628.55
800.7961	248.0281	22299.25	21620.25
800.9387	250.2503	22290.95	21607.75
801.0812	252.472	22305.65	21624.4
801.2238	254.6932	22409.3	21729.35
801.3664	256.9139	22326.9	21643.95
801.509	259.134	22359.95	21671.85
801.6516	261.3536	22355.6	21672
801.7942	263.5727	22447.3	21758.8
801.9369	265.7912	22463.55	21777.15
802.0795	268.0092	22535.15	21847.4
802.2222	270.2267	22528.65	21840.35
802.3649	272.4436	22573.4	21882
802.5076	274.6601	22547.05	21845.25
802.6504	276.8759	22589.35	21893.7
802.7931	279.0913	22643.8	21947.95
802.9359	281.3061	22634.8	21936.7
803.0787	283.5204	22686.75	21986.55
803.2215	285.7341	22681.75	21977.75
803.3643	287.9473	22730.55	22015.35
803.5071	290.16	22733.55	22027.15
803.6499	292.3721	22711.2	22009.3
803.7928	294.5837	22718.15	22014.15
803.9357	296.7947	22694.05	21989.95
804.0786	299.0052	22707	22005.05
804.2215	301.2152	22616.8	21910.35
804.3644	303.4246	22625.1	21921
804.5074	305.6334	22603.05	21895.8
804.6503	307.8418	22600.5	21888.5
804.7933	310.0495	22560.1	21848.05
804.9363	312.2568	22548.5	21838.6
805.0793	314.4635	22463.3	21749.75
805.2223	316.6696	22443.15	21729.95
805.3653	318.8752	22339.15	21615.45
805.5084	321.0802	22317.35	21601.5
805.6514	323.2847	22365.75	21644.9
805.7945	325.4887	22356.15	21635.4
805.9376	327.692	22321.75	21599.15
806.0807	329.8949	22411.65	21689.15
806.2238	332.0972	22400.25	21677.5
806.367	334.2989	22432.3	21703.45
806.5101	336.5001	22431.65	21701.4
806.6533	338.7007	22373.3	21645.4
806.7965	340.9008	22397.65	21666.4
806.9397	343.1003	22348	21616.6
807.0829	345.2992	22370.2	21636.15
807.2261	347.4976	22372.6	21637.1
807.3693	349.6955	22318.6	21581.25
807.5126	351.8927	22326.7	21586.15
807.6559	354.0895	22288.25	21537.25
807.7991	356.2856	22312.1	21570.55
807.9424	358.4812	22253.7	21511.05
808.0857	360.6763	22282.1	21538.1
808.2291	362.8707	22230.5	21484.55
808.3724	365.0646	22274.8	21524.6
808.5158	367.258	22204.75	21455.5
808.6591	369.4508	22188.6	21429.9
808.8025	371.643	22225.85	21473.15
808.9459	373.8346	22172.9	21417.45
809.0893	376.0257	22197.45	21438.2
809.2327	378.2162	22164.85	21408.75
809.3762	380.4062	22170.25	21412.1
809.5196	382.5956	22126.75	21370.45
809.6631	384.7844	22088.05	21338.65
809.8066	386.9726	21993.25	21242.55
809.9501	389.1603	21965.85	21219.25
810.0936	391.3474	21984.55	21193.55
810.2371	393.5339	21953.8	21201.6
810.3806	395.7199	21867.1	21117.3
810.5241	397.9052	21907.5	21157.75
810.6677	400.09	21888	21135.85
810.8113	402.2743	21893	21137.95
810.9548	404.4579	21883.3	21128.5
811.0984	406.641	21953.4	21193.35
811.2421	408.8235	21959.65	21199.8
811.3857	411.0054	22055.2	21293.75
811.5293	413.1868	22114.45	21349.7
811.673	415.3675	22117.3	21347.9
811.8166	417.5477	22129.35	21360.35
811.9603	419.7273	22051.45	21281.8
812.104	421.9064	21905.65	21126.3
812.2477	424.0848	21832.45	21059.55
812.3914	426.2627	21758.7	20985.95
812.5351	428.4399	21695.4	20920.3
812.6788	430.6166	21625.3	20847.5
812.8226	432.7928	21574.9	20796
812.9663	434.9683	21509.8	20731.8
813.1101	437.1432	21456.75	20673.55
813.2539	439.3176	21356.35	20578.1
813.3977	441.4914	21291.35	20513.35
813.5415	443.6645	21280.85	20500.95
813.6853	445.8371	21185.45	20406.2
813.8291	448.0091	21119.85	20338.9
813.973	450.1806	21102.8	20320.65
814.1168	452.3514	21045.9	20262.75
814.2607	454.5216	21044.75	20251.5
814.4046	456.6913	20944.35	20157.25
814.5485	458.8603	20940.7	20154.65
814.6924	461.0288	20970.8	20187.55
814.8363	463.1967	20889.6	20106.25
814.9802	465.3639	20945.7	20158.75
815.1241	467.5306	20869.55	20082.8
815.2681	469.6967	20814.85	20029.3
815.412	471.8622	20779.5	19991.2
815.556	474.0271	20760.4	19973.45
815.7	476.1914	20737	19946.15
815.844	478.3551	20745.35	19957.75
815.988	480.5182	20764.45	19973.4
816.132	482.6807	20739.6	19950.1
816.276	484.8426	20765.35	19977.6
816.4201	487.0039	20836.35	20046.9
816.5641	489.1647	20816.45	20025.65
816.7082	491.3248	20874.7	20082.6
816.8522	493.4843	20837.6	20046.45
816.9963	495.6432	20827.85	20033.25
817.1404	497.8015	20774.2	19976.6
817.2845	499.9592	20786.9	19990.4
817.4286	502.1163	20697.85	19898.5
817.5727	504.2728	20648.25	19849.5
817.7168	506.4287	20700.15	19902.7
817.861	508.5839	20595.35	19798.6
818.0051	510.7386	20572.05	19773.25
818.1493	512.8927	20620.8	19819.35
818.2935	515.0461	20605.9	19806.35
818.4377	517.199	20591.1	19787.5
818.5818	519.3512	20588.95	19786.95
818.726	521.5029	20606	19797.15
818.8703	523.6539	20583.85	19780.1
819.0145	525.8043	20601.15	19795.75
819.1587	527.9541	20576.85	19769.4
819.303	530.1033	20512.9	19706.6
819.4472	532.2519	20438.2	19632.3
819.5915	534.3999	20394.75	19584.95
819.7357	536.5472	20366.3	19558.8
819.88	538.694	20361.1	19553.25
820.0243	540.8401	20387.3	19579.1
820.1686	542.9856	20398.3	19588.35
820.3129	545.1305	20334.25	19523.4
820.4572	547.2748	20401.75	19591.65
820.6016	549.4185	20370.2	19555.25
820.7459	551.5615	20343.15	19531.55
820.8902	553.704	20348.75	19536.65
821.0346	555.8458	20270.3	19460.9
821.1789	557.987	20307.25	19497
821.3233	560.1276	20327.3	19515.7
821.4677	562.2675	20327.3	19516.15
821.6121	564.4069	20334.55	19522.4
821.7565	566.5456	20334.3	19524.5
821.9009	568.6837	20307.05	19493.7
822.0453	570.8212	20225.6	19413.95
822.1897	572.958	20126.8	19313.55
822.3342	575.0942	20055.4	19241.85
822.4786	577.2299	20050.15	19235.5
822.6231	579.3648	19962.1	19149.85
822.7675	581.4992	19860.05	19045.85
822.912	583.6329	19782.6	18969.1
823.0565	585.766	19772.65	18958.6
823.201	587.8985	19788.4	18973.2
823.3454	590.0304	19716.8	18886.8
823.4899	592.1616	19709	18887.6
823.6345	594.2922	19687.4	18867.35
823.779	596.4222	19610	18789.25
823.9235	598.5515	19513.15	18692.45
824.068	600.6802	19477.8	18656.7
824.2126	602.8083	19364.6	18544.05
824.3571	604.9358	19363.1	18541.05
824.5017	607.0626	19296.05	18471.05
824.6462	609.1888	19330.8	18505.55
824.7908	611.3144	19299.35	18474.6
824.9354	613.4393	19279.05	18454.85
825.08	615.5636	19281.65	18454
825.2246	617.6873	19288	18462.2
825.3692	619.8103	19310.1	18481.75
825.5138	621.9327	19252.85	18426.6
825.6584	624.0544	19244.2	18418.6
825.803	626.1756	19191.05	18366.7
825.9477	628.2961	19130.1	18303.1
826.0923	630.4159	19080.45	18254.4
826.237	632.5351	19099.95	18272.15
826.3816	634.6537	19052.8	18223.75
826.5263	636.7716	19034.5	18203.05
826.6709	638.8889	19004.1	18171.05
826.8156	641.0056	19054.15	18223.6
826.9603	643.1216	19005.1	18172.65
827.105	645.237	19023.2	18191.25
827.2497	647.3518	18941.35	18110.8
827.3944	649.4659	18967.65	18139.35
827.5391	651.5793	18907.8	18077.8
827.6838	653.6922	18864.85	18034.45
827.8285	655.8043	18827.35	17996.75
827.9733	657.9159	18830.3	17996.6
828.118	660.0268	18774.7	17940.55
828.2627	662.137	18744.95	17908.45
828.4075	664.2466	18719.55	17885.1
828.5522	666.3556	18697.75	17863.4
828.697	668.4639	18637.4	17800.25
828.8418	670.5716	18689.05	17855.15
828.9865	672.6786	18676.15	17840.5
829.1313	674.785	18596.7	17755.65
829.2761	676.8907	18543.05	17706.05
829.4209	678.9958	18531.75	17696.8
829.5657	681.1002	18492.95	17655.9
829.7105	683.204	18485.35	17642.05
829.8553	685.3072	18487.7	17647
830.0001	687.4097	18403	17564.05
830.1449	689.5115	18428.25	17589.05
830.2898	691.6127	18370	17529.45
830.4346	693.7132	18361.25	17523.5
830.5794	695.8131	18391.15	17529.7
830.7243	697.9123	18358.95	17517.55
830.8691	700.0109	18351.8	17508.7
831.014	702.1089	18303.15	17463.05
831.1588	704.2061	18272.05	17431.25
831.3037	706.3028	18286.4	17445.35
831.4486	708.3987	18294.85	17452.6
831.5935	710.4941	18247.25	17404.45
831.7383	712.5887	18264.05	17419.05
831.8832	714.6827	18243.85	17397.5
832.0281	716.7761	18197.85	17356.2
832.173	718.8688	18142.55	17297.1
832.3179	720.9608	18145.25	17295.3
832.4628	723.0522	18197.2	17347.3
832.6077	725.1429	18122.35	17277.85
832.7527	727.233	18117.7	17270.2
832.8976	729.3224	18180.8	17333.45
833.0425	731.4112	18133.9	17287.65
833.1874	733.4993	18115.7	17266.7
833.3324	735.5867	18046.65	17200.15
833.4773	737.6735	18025.5	17178.3
833.6222	739.7596	17950.35	17099.55
833.7672	741.845	17874.9	17028.3
833.9122	743.9298	17863.15	17012.15
834.0571	746.014	17798.2	16951.45
834.2021	748.0974	17842.4	16993.9
834.347	750.1802	17781.75	16932.15
834.492	752.2624	17723.25	16875.3
834.637	754.3439	17632.35	16781.55
834.782	756.4247	17597.4	16738.15
834.9269	758.5048	17528.5	16679.85
835.0719	760.5843	17526.3	16675.95
835.2169	762.6631	17483.65	16632.55
835.3619	764.7413	17471.25	16620.3
835.5069	766.8188	17506.3	16654.8
835.6519	768.8956	17463.7	16609.3
835.7969	770.9718	17526.75	16674.75
835.9419	773.0473	17454.1	16604.3
836.0869	775.1221	17437.25	16585.3
836.232	777.1962	17321.85	16470.1
836.377	779.2697	17318.65	16466.25
836.522	781.3426	17353.5	16482.35
836.667	783.4147	17351.15	16499
836.8121	785.4862	17356.5	16505.55
836.9571	787.557	17274.4	16422.4
837.1021	789.6271	17207	16353.1
837.2472	791.6966	17100.05	16246.75
837.3922	793.7654	16994.1	16141
837.5373	795.8335	16954.35	16099.8
837.6823	797.901	16920.1	16066.65
837.8274	799.9678	16841.15	15984.35
837.9724	802.0339	16844.7	15989.85
838.1175	804.0993	16841.1	15978.35
838.2626	806.1641	16772.6	15916.25
838.4076	808.2282	16745.25	15890.85
838.5527	810.2916	16745.7	15888.75
838.6978	812.3544	16734.4	15878.65
838.8428	814.4164	16699.7	15845.4
838.9879	816.4778	16693.25	15836.5
839.133	818.5385	16618.8	15764.1
839.2781	820.5986	16633	15776.75
839.4232	822.658	16651.5	15792.2
839.5682	824.7166	16632.1	15776.35
839.7133	826.7747	16687.55	15830.75
839.8584	828.832	16689.1	15831.55
840.0035	830.8886	16666.8	15807.9
840.1486	832.9446	16652.85	15794.25
840.2937	834.9999	16615.15	15758.8
840.4388	837.0545	16588.8	15725.5
840.5839	839.1085	16500.2	15640.25
840.729	841.1618	16443.9	15581.9
840.8741	843.2143	16393.9	15535.5
841.0192	845.2662	16297.65	15437.35
841.1643	847.3175	16324	15464.9
841.3095	849.368	16252.6	15391.9
841.4546	851.4179	16217.2	15359.2
841.5997	853.467	16151.85	15291.5
841.7448	855.5155	16147.9	15285.65
841.8899	857.5633	16125.85	15263.8
842.0351	859.6105	16078.15	15216.7
842.1802	861.6569	16054.7	15194.85
842.3253	863.7027	16031.25	15168.55
842.4704	865.7478	16020.2	15159.65
842.6156	867.7922	16018	15155.85
842.7607	869.8359	15972.9	15110.05
842.9058	871.8789	15955.05	15092.6
843.0509	873.9212	15962.65	15067.35
843.1961	875.9629	15875.25	15013.2
843.3412	878.0039	15884.1	15021.25
843.4863	880.0441	15867.45	15007.5
843.6315	882.0837	15877.6	15013.3
843.7766	884.1226	15843.9	14979.8
843.9218	886.1609	15860.45	14999.5
844.0669	888.1984	15881.15	15018.55
844.212	890.2352	15937.5	15075.95
844.3572	892.2714	15894.8	15029.1
844.5023	894.3069	15873.25	15007.45
844.6475	896.3416	15824.85	14958.75
844.7926	898.3757	15774.05	14907.4
844.9377	900.4091	15740.5	14875.95
845.0829	902.4418	15700.75	14833.4
845.228	904.4739	15642.7	14776.4
845.3732	906.5052	15663.2	14797.95
845.5183	908.5358	15617.8	14754.8
845.6635	910.5658	15597.95	14728.9
845.8086	912.595	15546.6	14680
845.9538	914.6236	15483.85	14618.95
846.0989	916.6515	15439.9	14575.95
846.2441	918.6786	15381.85	14515.85
846.3892	920.7051	15401.75	14534.5
846.5344	922.7309	15419.6	14554.3
846.6795	924.756	15343.7	14475.35
846.8246	926.7804	15324.05	14455.75
846.9698	928.8041	15243.85	14375.95
847.1149	930.8272	15254.9	14388.1
847.2601	932.8495	15205.5	14338.5
847.4052	934.8711	15202.3	14334.35
847.5504	936.892	15103.5	14236.45
847.6955	938.9123	15095.35	14228.75
847.8407	940.9318	15095.85	14229.05
847.9858	942.9506	15056.2	14187.65
848.131	944.9688	14979.8	14111.8
848.2761	946.9862	14953.9	14083.95
848.4213	949.003	14826.95	13958.75
848.5664	951.019	14830.9	13963.8
848.7115	953.0344	14787	13918.7
848.8567	955.0491	14737.75	13869.1
849.0018	957.063	14713.1	13846.05
849.147	959.0763	14776.35	13908.25
849.2921	961.0888	14682.15	13810.8
849.4373	963.1007	14699.1	13830.5
849.5824	965.1119	14680.8	13815.3
849.7275	967.1223	14630.45	13763.9
849.8727	969.1321	14651.2	13785.1
850.0178	971.1412	14629.4	13762.3
850.1629	973.1495	14562.7	13693.2
850.3081	975.1572	14578.55	13663.35
850.4532	977.1641	14552.55	13682.6
850.5983	979.1704	14498.05	13628.7
850.7435	981.1759	14463.35	13589.85
850.8886	983.1808	14422.3	13549.5
851.0337	985.1849	14388.15	13509.55
851.1788	987.1884	14355.05	13483.2
851.324	989.1911	14318.55	13444.75
851.4691	991.1932	14323.65	13450.75
851.6142	993.1945	14279.75	13409.15
851.7593	995.1951	14168.75	13298.75
851.9045	997.1951	14199	13322.3
852.0496	999.1943	14132.7	13263.55
852.1947	1001.1928	14057.75	13185.45
852.3398	1003.1906	14026.35	13155.85
852.4849	1005.1877	14016.65	13144.15
852.63	1007.1841	13988.3	13116.8
852.7751	1009.1798	13936.35	13063.95
852.9202	1011.1748	13895.15	13023.9
853.0653	1013.1691	13870.3	12998.5
853.2104	1015.1627	13773.5	12902.7
853.3555	1017.1556	13646.4	12775.05
853.5006	1019.1477	13682.4	12809.9
853.6457	1021.1392	13572.05	12700.7
853.7908	1023.1299	13534.4	12663.75
853.9359	1025.12	13463.1	12590.85
854.081	1027.1093	13422	12553.25
854.2261	1029.0979	13382.8	12514.7
854.3712	1031.0859	13336.8	12468.05
854.5163	1033.0731	13311.5	12440.4
854.6613	1035.0596	13296	12425
854.8064	1037.0454	13229.55	12357.05
854.9515	1039.0304	13218.5	12345.55
855.0965	1041.0148	13144.4	12273.5
855.2416	1042.9985	13103.45	12230.45
855.3867	1044.9814	13098.35	12227.25
855.5317	1046.9636	13025.65	12149.8
855.6768	1048.9452	12960.55	12087.7
855.8219	1050.926	12974.15	12102.4
855.9669	1052.9061	12931.4	12058.6
856.112	1054.8855	12912.15	12039.6
856.257	1056.8642	12915.4	12042.5
856.4021	1058.8421	12902.7	12024.9
856.5471	1060.8194	12835.45	11963.7
856.6921	1062.7959	12823.65	11949.2
856.8372	1064.7717	12784.7	11909.5
856.9822	1066.7469	12769.7	11894.95
857.1272	1068.7213	12759.85	11882.65
857.2723	1070.695	12751.95	11880.55
857.4173	1072.6679	12694.5	11819.65
857.5623	1074.6402	12690.95	11816.2
857.7073	1076.6117	12689.15	11809
857.8523	1078.5826	12693.45	11819
857.9973	1080.5527	12615.25	11739.8
858.1423	1082.5221	12547.85	11672.15
858.2873	1084.4908	12521	11644.9
858.4323	1086.4587	12490.75	11616.95
858.5773	1088.426	12468.7	11593.5
858.7223	1090.3925	12441.45	11562.3
858.8673	1092.3584	12400.9	11525.9
859.0123	1094.3235	12347.8	11470.7
859.1573	1096.2879	12331.2	11458.15
859.3022	1098.2515	12320.5	11444.2
859.4472	1100.2145	12317.8	11443.5
859.5922	1102.1767	12330.85	11453
859.7371	1104.1382	12297.35	11423.3
859.8821	1106.099	12313.85	11435.95
860.027	1108.0591	12294.9	11419.15
860.172	1110.0185	12299.15	11421.85
860.3169	1111.9771	12275.55	11399.95
860.4619	1113.9351	12273.6	11396.75
860.6068	1115.8923	12285.2	11410.55
860.7517	1117.8488	12286.75	11409.85
860.8967	1119.8045	12201.7	11326.75
861.0416	1121.7596	12134.55	11258.6
861.1865	1123.7139	12037.9	11164
861.3314	1125.6675	11978.8	11102.5
861.4763	1127.6204	12004.35	11128.1
861.6212	1129.5726	11969.1	11091.45
861.7661	1131.524	11954.85	11078.4
861.911	1133.4748	11912.45	11034.95
862.0559	1135.4248	11831.75	10955.05
862.2008	1137.3741	11801.45	10925.2
862.3457	1139.3226	11760.6	10881.45
862.4905	1141.2705	11765.85	10889.4
862.6354	1143.2176	11713.2	10832.65
862.7803	1145.164	11706.25	10829.95
862.9251	1147.1097	11652.75	10775.3
863.07	1149.0546	11632.2	10753.1
863.2148	1150.9989	11595.4	10717.9
863.3597	1152.9424	11561.4	10685.05
863.5045	1154.8852	11569.1	10692.25
863.6493	1156.8272	11536.8	10660.1
863.7942	1158.7686	11564.3	10680.45
863.939	1160.7092	11505.35	10628.7
864.0838	1162.6491	11445.8	10566.25
864.2286	1164.5883	11481.35	10604.45
864.3734	1166.5267	11453.4	10574.1
864.5182	1168.4644	11444.55	10566.3
864.663	1170.4014	11470.2	10588.05
864.8078	1172.3377	11473.35	10596.2
864.9526	1174.2732	11483.55	10606.85
865.0974	1176.2081	11528.95	10651.05
865.2421	1178.1421	11579.8	10698.6
865.3869	1180.0755	11608.2	10733.25
865.5317	1182.0082	11593.85	10715.65
865.6764	1183.9401	11571.85	10693.9
865.8212	1185.8713	11507.5	10630.8
865.9659	1187.8017	11410.85	10535.35
866.1106	1189.7315	11345.6	10470.05
866.2554	1191.6605	11220.85	10343.2
866.4001	1193.5888	11162.95	10287.15
866.5448	1195.5163	11118	10244.25
866.6895	1197.4432	11069.7	10191.9
866.8342	1199.3693	11039.3	10163.95
866.9789	1201.2947	10991.25	10106.35
867.1236	1203.2193	10933.25	10054.75
867.2683	1205.1432	10918.5	10039.1
867.413	1207.0664	10898.8	10019
867.5576	1208.9889	10856.4	9974.4
867.7023	1210.9106	10804.45	9925.85
867.847	1212.8316	10753.7	9876.95
867.9916	1214.7519	10757.3	9868.35
868.1363	1216.6715	10721.35	9845
868.2809	1218.5903	10724.5	9847.3
868.4255	1220.5084	10729.35	9852.6
868.5701	1222.4257	10740.4	9862.05
868.7148	1224.3424	10696.65	9816.45
868.8594	1226.2583	10674.6	9790.8
869.004	1228.1735	10665.7	9785.95
869.1486	1230.0879	10637.5	9758.9
869.2932	1232.0016	10639.05	9760.55
869.4377	1233.9146	10652.4	9771.45
869.5823	1235.8269	10637.6	9760.85
869.7269	1237.7384	10661.25	9780.95
869.8715	1239.6492	10576.35	9697.65
870.016	1241.5592	10569.5	9688.5
870.1606	1243.4686	10574	9695.05
870.3051	1245.3772	10601	9722.35
870.4496	1247.285	10644.9	9766
870.5941	1249.1922	10650.7	9771.7
870.7387	1251.0986	10660	9780.8
870.8832	1253.0042	10675.3	9793.7
871.0277	1254.9092	10710.65	9833.75
871.1722	1256.8134	10716.8	9838.1
871.3167	1258.7169	10777.95	9898.65
871.4611	1260.6196	10780.8	9900.25
871.6056	1262.5216	10784	9905.9
871.7501	1264.4229	10732.15	9852.15
871.8945	1266.3234	10701.85	9821.95
872.039	1268.2232	10694.6	9812.45
872.1834	1270.1223	10653.25	9772.55
872.3278	1272.0207	10599.6	9717.55
872.4723	1273.9183	10585.7	9698.35
872.6167	1275.8151	10559.2	9680.65
872.7611	1277.7113	10555.4	9676.25
872.9055	1279.6067	10602.9	9723.05
873.0499	1281.5014	10626.7	9745.1
873.1943	1283.3953	10751.4	9870.15
873.3386	1285.2885	10829.2	9950.75
873.483	1287.181	10929.4	10048.65
873.6274	1289.0727	10975.7	10096.2
873.7717	1290.9637	10894.85	10013.3
873.9161	1292.854	10854.55	9974.75
874.0604	1294.7435	10767.35	9885.3
874.2047	1296.6323	10712.7	9832.2
874.349	1298.5204	10635.7	9750.55
874.4933	1300.4077	10597.95	9715.55
874.6376	1302.2943	10530.85	9652.35
874.7819	1304.1802	10531.75	9652.4
874.9262	1306.0653	10448.95	9567.6
875.0705	1307.9497	10424.35	9542.45
875.2147	1309.8333	10393	9512.3
875.359	1311.7162	10366.8	9486
875.5032	1313.5984	10367.65	9486.05
875.6475	1315.4798	10321.75	9426.6
875.7917	1317.3605	10276.75	9380.45
875.9359	1319.2405	10289.9	9408.2
876.0801	1321.1197	10250.55	9368.45
876.2243	1322.9982	10200.2	9314.55
876.3685	1324.876	10170.4	9291.65
876.5127	1326.753	10082.7	9202.15
876.6569	1328.6293	10025.75	9146.2
876.801	1330.5048	9968.45	9083.55
876.9452	1332.3796	9891.95	9013.1
877.0893	1334.2537	9882.95	8978.75
877.2335	1336.127	9833.65	8953.15
877.3776	1337.9996	9791.2	8909.25
877.5217	1339.8714	9751.95	8871.45
877.6658	1341.7426	9755.35	8830.45
877.8099	1343.6129	9721.75	8839.15
877.954	1345.4826	9673.1	8793.55
878.0981	1347.3515	9662.85	8779.35
878.2422	1349.2196	9636.4	8753.05
878.3862	1351.087	9646.5	8764.95
878.5303	1352.9537	9638.1	8759.1
878.6743	1354.8197	9628.8	8748.7
878.8184	1356.6849	9622.8	8741.9
878.9624	1358.5493	9618.65	8736.65
879.1064	1360.4131	9619.65	8737.7
879.2504	1362.276	9597.1	8714.9
879.3944	1364.1383	9608	8725.55
879.5384	1365.9998	9583.95	8698
879.6823	1367.8606	9543.95	8662.8
879.8263	1369.7206	9530.7	8648.3
879.9702	1371.5799	9526.9	8643
880.1142	1373.4384	9497.1	8613.3
880.2581	1375.2962	9478.5	8597.2
880.402	1377.1533	9367.2	8487.2
880.5459	1379.0096	9305.3	8422.15
880.6898	1380.8652	9287.6	8407.5
880.8337	1382.7201	9253.65	8371.7
880.9776	1384.5742	9179.75	8298.75
881.1215	1386.4275	9133.65	8251.6
881.2653	1388.2802	9092.05	8210.65
881.4092	1390.132	9071.65	8191.35
881.553	1391.9832	9086.85	8204.6
881.6968	1393.8336	9044.25	8161.8
881.8406	1395.6832	8982	8096.95
881.9844	1397.5322	8954.35	8073.9
882.1282	1399.3803	8946.35	8061.4
882.272	1401.2278	8876.5	7993.7
882.4158	1403.0745	8841.15	7959.9
882.5595	1404.9204	8808.95	7928.7
882.7033	1406.7656	8802.45	7918.55
882.847	1408.6101	8758.95	7876
882.9908	1410.4538	8744.35	7863.45
883.1345	1412.2968	8729.25	7846.7
883.2782	1414.139	8688.55	7806.4
883.4219	1415.9805	8667.3	7784.3
883.5656	1417.8213	8671.55	7769.25
883.7092	1419.6613	8615.1	7734.7
883.8529	1421.5006	8613.45	7729.6
883.9965	1423.3391	8634.5	7753.55
884.1402	1425.1769	8611.85	7727.1
884.2838	1427.0139	8675.85	7793.45
884.4274	1428.8502	8693.4	7808.95
884.571	1430.6858	8715.6	7833.45
884.7146	1432.5206	8699.45	7818.7
884.8582	1434.3547	8706.6	7826
885.0018	1436.188	8670.8	7788.35
885.1453	1438.0206	8667.05	7786.25
885.2889	1439.8524	8632.45	7748.85
885.4324	1441.6835	8620.65	7736.75
885.5759	1443.5139	8592.35	7705.15
885.7194	1445.3435	8582.65	7700.85
885.8629	1447.1724	8555.45	7675.7
886.0064	1449.0005	8550.8	7667.9
886.1499	1450.8279	8555.4	7670.25
886.2933	1452.6545	8501.2	7619.3
886.4368	1454.4804	8523.75	7641.55
886.5802	1456.3056	8501.9	7613.95
886.7237	1458.13	8472.3	7591.75
886.8671	1459.9536	8443.7	7562.9
887.0105	1461.7766	8419.95	7537.65
887.1539	1463.5987	8369.55	7487.15
887.2972	1465.4202	8361.85	7479.45
887.4406	1467.2409	8289.5	7406.75
887.584	1469.0608	8269.15	7386.9
887.7273	1470.88	8231.15	7347.1
887.8706	1472.6984	8206.35	7324.7
888.0139	1474.5161	8148.55	7262.9
888.1572	1476.3331	8122.05	7238.5
888.3005	1478.1493	8128.55	7244.95
888.4438	1479.9648	8091.2	7209.75
888.5871	1481.7795	8089.55	7207.45
888.7303	1483.5935	8073.8	7193.1
888.8736	1485.4067	8050.25	7167.1
889.0168	1487.2192	8047.75	7166.05
889.16	1489.031	8033.05	7149.4
889.3032	1490.842	8011.05	7130.45
889.4464	1492.6522	8007.4	7126.15
889.5896	1494.4618	7970.65	7085.5
889.7327	1496.2705	7964.75	7083.1
889.8759	1498.0785	7940.55	7059.15
890.019	1499.8858	7946.7	7061.1
890.1622	1501.6924	7916.7	7035.5
890.3053	1503.4981	7860.05	6978.6
890.4484	1505.3032	7862.75	6982.15
890.5914	1507.1075	7836	6954
890.7345	1508.911	7832.6	6949.4
890.8776	1510.7138	7808.4	6925.9
891.0206	1512.5159	7775	6892.1
891.1637	1514.3172	7735.15	6853.8
891.3067	1516.1178	7711.05	6828.15
891.4497	1517.9176	7679.75	6794.75
891.5927	1519.7166	7656.4	6775.85
891.7357	1521.515	7645.25	6757.2
891.8786	1523.3126	7637.1	6753.6
892.0216	1525.1094	7617.65	6733.2
892.1645	1526.9055	7586	6703.75
892.3074	1528.7008	7534.15	6652.45
892.4503	1530.4954	7501.7	6617.5
892.5932	1532.2893	7491.9	6609.9
892.7361	1534.0824	7448.25	6562.55
892.879	1535.8747	7468.9	6587
893.0218	1537.6663	7410.2	6527
893.1647	1539.4572	7357.15	6472.45
893.3075	1541.2473	7372.8	6492.15
893.4503	1543.0367	7328.55	6449
893.5931	1544.8253	7303.4	6416
893.7359	1546.6132	7320.2	6435.3
893.8787	1548.4003	7280.15	6390.5
894.0214	1550.1867	7283.1	6393.25
894.1642	1551.9723	7241.45	6355.25
894.3069	1553.7572	7239.25	6354.6
894.4496	1555.5414	7205.8	6323.3
894.5923	1557.3247	7219.55	6335.95
894.735	1559.1074	7224.1	6342.7
894.8777	1560.8893	7218.05	6339.1
895.0204	1562.6705	7223	6342.45
895.163	1564.4509	7198.7	6319.45
895.3056	1566.2305	7183.6	6305.2
895.4482	1568.0094	7200.85	6321.25
895.5908	1569.7876	7185.05	6304.1
895.7334	1571.565	7151.75	6268.25
895.876	1573.3417	7114.1	6232.8
896.0186	1575.1176	7128.5	6249.75
896.1611	1576.8928	7117.5	6235.2
896.3036	1578.6672	7085.9	6207.65
896.4461	1580.4409	7074.3	6197.95
896.5886	1582.2138	7073.4	6192.1
896.7311	1583.986	7070.65	6191.5
896.8736	1585.7575	7083.65	6203.45
897.0161	1587.5282	7088.55	6210.85
897.1585	1589.2981	7087.2	6207.1
897.3009	1591.0673	7061.15	6179.05
897.4433	1592.8358	7064.1	6186.65
897.5857	1594.6035	7043.25	6159.7
897.7281	1596.3704	7007.4	6128.1
897.8705	1598.1366	6975	6094.1
898.0128	1599.9021	6962.7	6081.2
898.1551	1601.6668	6893.9	6012.7
898.2975	1603.4308	6862.55	5980.1
898.4398	1605.194	6859.95	5975.05
898.5821	1606.9564	6837.3	5957.7
898.7243	1608.7182	6865.1	5982.1
898.8666	1610.4791	6903.9	6026.7
899.0088	1612.2394	6928.1	6050.3
899.1511	1613.9988	6973.45	6094.2
899.2933	1615.7576	7006.05	6125.7
899.4355	1617.5156	7042.35	6155.65
899.5776	1619.2728	6996.15	6116.25
899.7198	1621.0293	6913.45	6033.15
899.862	1622.785	6846.5	5963.55
900.0041	1624.54	6735.55	5853
900.1462	1626.2942	6641.45	5760.1
900.2883	1628.0477	6547.05	5665.7
900.4304	1629.8005	6456.7	5573.1
900.5725	1631.5525	6389.35	5508.45
900.7145	1633.3037	6355.65	5476.35
900.8566	1635.0542	6295.25	5416.15
900.9986	1636.804	6274.25	5393.9
901.1406	1638.553	6315.45	5343.55
901.2826	1640.3013	6215.6	5333.9
901.4245	1642.0488	6165.7	5286
901.5665	1643.7955	6143.05	5263.85
901.7085	1645.5416	6111.45	5234.35
901.8504	1647.2868	6090.2	5208
901.9923	1649.0313	6047.25	5167.05
902.1342	1650.7751	6053.4	5171.1
902.2761	1652.5181	6029.55	5151.1
902.4179	1654.2604	6008.55	5128.3
902.5598	1656.0019	5996.1	5117.6
902.7016	1657.7427	5977.2	5097.2
902.8434	1659.4828	5976.8	5097.65
902.9852	1661.222	5967.2	5084.55
903.127	1662.9606	5982.65	5101.05
903.2687	1664.6984	5969	5089.35
903.4105	1666.4354	5990.2	5108.75
903.5522	1668.1717	5949.65	5070.05
903.6939	1669.9072	5904.1	5023.7
903.8356	1671.642	5877.95	4995.3
903.9773	1673.3761	5811.25	4932.65
904.119	1675.1094	5765.7	4885.25
904.2606	1676.8419	5723.7	4845.2
904.4022	1678.5737	5690.05	4808.8
904.5439	1680.3048	5673.2	4793.05
904.6855	1682.0351	5640.9	4759.55
904.827	1683.7646	5623.5	4740.2
904.9686	1685.4934	5601.6	4721.65
905.1101	1687.2215	5580.3	4698.45
905.2517	1688.9488	5537.15	4657.55
905.3932	1690.6754	5521.95	4642.65
905.5347	1692.4012	5499.1	4618.7
905.6761	1694.1263	5488.6	4610.15
905.8176	1695.8506	5459.05	4577.1
905.9591	1697.5742	5443.75	4564.4
906.1005	1699.297	5425.05	4545.55
906.2419	1701.0191	5396.1	4516.5
906.3833	1702.7404	5387.7	4508.8
906.5246	1704.461	5348	4465.45
906.666	1706.1808	5327.7	4445.35
906.8073	1707.8999	5329.05	4448.85
906.9487	1709.6182	5310.8	4431.6
907.09	1711.3358	5274.65	4396.2
907.2313	1713.0527	5269.45	4392.55
907.3725	1714.7688	5246.35	4360.6
907.5138	1716.4841	5221.35	4342.3
907.655	1718.1987	5233.6	4348.15
907.7962	1719.9126	5193.7	4314.35
907.9374	1721.6257	5196.4	4313.75
908.0786	1723.338	5192.45	4312.65
908.2198	1725.0496	5178	4296.7
908.3609	1726.7605	5151.9	4270.9
908.502	1728.4706	5155.05	4274.8
908.6431	1730.18	5127.05	4245.1
908.7842	1731.8886	5103.55	4223.1
908.9253	1733.5964	5119.3	4236.1
909.0664	1735.3036	5116.8	4234.55
909.2074	1737.0099	5100.4	4220.15
909.3484	1738.7156	5087.85	4209.4
909.4894	1740.4204	5084.75	4203.95
909.6304	1742.1246	5056.25	4173.95
909.7714	1743.8279	5079.8	4201.05
909.9123	1745.5306	5060.75	4180.65
910.0532	1747.2325	5054.65	4176.7
910.1941	1748.9336	5057.75	4178.3
910.335	1750.634	5026.65	4145.5
910.4759	1752.3336	5037.45	4160
910.6168	1754.0325	5004.8	4127.45
910.7576	1755.7307	5010.65	4133.45
910.8984	1757.4281	4999.9	4120.3
911.0392	1759.1247	4981	4093.35
911.18	1760.8206	4988.2	4103.1
911.3208	1762.5158	4985.6	4101.05
911.4615	1764.2102	4976.75	4097.05
911.6022	1765.9039	4969.2	4089.65
911.7429	1767.5968	4940	4061.85
911.8836	1769.289	4954.3	4075.25
912.0243	1770.9804	4939.1	4057
912.1649	1772.6711	4922.85	4043.15
912.3056	1774.361	4924.65	4043.8
912.4462	1776.0502	4909.65	4029.35
912.5868	1777.7386	4907.1	4023.4
912.7274	1779.4263	4884.85	4004.65
912.8679	1781.1132	4882.1	4002.4
913.0084	1782.7994	4865.2	3984.35
913.149	1784.4849	4860.7	3983.8
913.2895	1786.1696	4845.25	3947.15
913.4299	1787.8535	4821.85	3943.8
913.5704	1789.5367	4799.2	3920.95
913.7108	1791.2192	4798.05	3917.4
913.8513	1792.9009	4818.55	3910.9
913.9917	1794.5818	4785.6	3905.3
914.132	1796.2621	4779.1	3900.3
914.2724	1797.9415	4780.7	3900.35
914.4128	1799.6202	4762.15	3881.45
914.5531	1801.2982	4753.95	3874.85
914.6934	1802.9755	4753.3	3873.15
914.8337	1804.6519	4725.95	3846.3
914.9739	1806.3277	4706.8	3829.1
915.1142	1808.0027	4691.6	3813.35
915.2544	1809.6769	4682.7	3802.6
915.3946	1811.3504	4681.6	3800.7
915.5348	1813.0231	4671.4	3790.9
915.675	1814.6951	4663.7	3785.3
915.8151	1816.3664	4655.3	3773.3
915.9553	1818.0369	4657.9	3777.25
916.0954	1819.7067	4634.6	3754.45
916.2355	1821.3757	4627.05	3744.8
916.3755	1823.044	4613.15	3733.45
916.5156	1824.7115	4612.5	3733.05
916.6556	1826.3783	4600.4	3720.7
916.7956	1828.0443	4588.6	3710.5
916.9356	1829.7096	4572.1	3689.45
917.0756	1831.3741	4585.6	3705.1
917.2155	1833.0379	4552.05	3673.95
917.3555	1834.701	4548.95	3668.15
917.4954	1836.3633	4543.55	3665
917.6353	1838.0248	4540	3658.95
917.7751	1839.6856	4531.2	3650.4
917.915	1841.3457	4518.15	3638.95
918.0548	1843.005	4512	3630.9
918.1946	1844.6636	4511	3633.15
918.3344	1846.3214	4481.8	3601.75
918.4742	1847.9785	4478.5	3600.45
918.6139	1849.6349	4476.25	3592.45
918.7537	1851.2904	4486.4	3596.05
918.8934	1852.9453	4470.4	3590.55
919.0331	1854.5994	4456.25	3573.25
919.1727	1856.2528	4442.3	3556.75
919.3124	1857.9054	4443.85	3564.55
919.452	1859.5572	4433.1	3551.8
919.5916	1861.2083	4417.2	3536.1
919.7312	1862.8587	4406.5	3526.85
919.8708	1864.5084	4417.7	3538.8
920.0103	1866.1572	4413.65	3534.2
920.1498	1867.8054	4380.95	3500.85
920.2893	1869.4528	4377.05	3496.4
920.4288	1871.0994	4358.25	3476.1
920.5683	1872.7453	4366.1	3486.2
920.7077	1874.3905	4360.8	3472.3
920.8471	1876.0349	4350.8	3471.9
920.9865	1877.6786	4351.65	3470.7
921.1259	1879.3215	4349.45	3468.45
921.2653	1880.9637	4336.95	3456.85
921.4046	1882.6051	4326.9	3448.2
921.5439	1884.2458	4319.4	3437.55
921.6832	1885.8858	4315.45	3434.3
921.8225	1887.525	4296.5	3413.15
921.9617	1889.1634	4287.7	3407.95
922.101	1890.8011	4272.15	3392.1
922.2402	1892.4381	4259.95	3380.45
922.3794	1894.0743	4271.2	3391.55
922.5185	1895.7098	4260.2	3382.1
922.6577	1897.3446	4242.8	3361.65
922.7968	1898.9786	4240.75	3357.7
922.9359	1900.6118	4233.15	3354
923.075	1902.2443	4205.05	3323.45
923.214	1903.8761	4196.9	3317.35
923.3531	1905.5071	4186.55	3305.55
923.4921	1907.1374	4186.9	3305
923.6311	1908.7669	4170.65	3289.6
923.77	1910.3957	4172.85	3294.8
923.909	1912.0237	4127.95	3246.75
924.0479	1913.651	4147.5	3266.75
924.1868	1915.2776	4144.75	3266.35
924.3257	1916.9034	4124.8	3246.25
924.4646	1918.5285	4101.2	3223.95
924.6034	1920.1528	4094	3214.75
924.7422	1921.7764	4090.75	3213.55
924.881	1923.3992	4077.05	3197.3
925.0198	1925.0213	4063.45	3184.35
925.1586	1926.6427	4036.9	3157.1
925.2973	1928.2633	4224.1	3130.35
925.436	1929.8832	4070.4	3186.65
925.5747	1931.5023	4017.85	3139.45
925.7134	1933.1207	4006.55	3125.95
925.852	1934.7383	4006	3124.65
925.9906	1936.3552	4005.55	3128.4
926.1292	1937.9714	3984.35	3103.15
926.2678	1939.5868	3983.7	3103.5
926.4064	1941.2015	3971.15	3090.15
926.5449	1942.8154	3961.9	3083.1
926.6834	1944.4286	3954.35	3074.55
926.8219	1946.041	3966	3062.9
926.9604	1947.6528	3931.45	3048.45
927.0988	1949.2637	3920.05	3040.9
927.2372	1950.8739	3903.85	3021.6
927.3756	1952.4834	3891.15	3012.25
927.514	1954.0921	3902.8	3023.55
927.6523	1955.7001	3887.8	3005.55
927.7907	1957.3074	3881.75	3002.95
927.929	1958.9139	3878.5	3000.65
928.0673	1960.5197	3872.5	2990.9
928.2055	1962.1247	3844.8	2964.8
928.3438	1963.729	3835.35	2957.85
928.482	1965.3325	3854.55	2952.75
928.6202	1966.9353	3822.95	2946.15
928.7584	1968.5374	3813.8	2934.45
928.8965	1970.1387	3804.55	2924.95
929.0346	1971.7393	3787.6	2909.75
929.1727	1973.3392	3783.5	2905.55
929.3108	1974.9383	3770.6	2893.5
929.4489	1976.5366	3764.75	2884.2
929.5869	1978.1342	3753.2	2874.45
929.7249	1979.7311	3761.65	2881.65
929.8629	1981.3273	3750.15	2871.8
930.0009	1982.9227	3753.55	2872.4
930.1388	1984.5173	3728.5	2849.9
930.2767	1986.1112	3714.2	2838
930.4146	1987.7044	3725.55	2848.2
930.5525	1989.2968	3705.6	2827.65
930.6904	1990.8885	3717.55	2835.25
930.8282	1992.4795	3699.55	2821.1
930.966	1994.0697	3683.25	2804.4
931.1038	1995.6592	3680.65	2802.45
931.2415	1997.2479	3682.55	2802.6
931.3793	1998.8359	3665.55	2786.6
931.517	2000.4232	3661.9	2784.65
931.6547	2002.0097	3654.5	2778.4
931.7923	2003.5955	3644.4	2765.15
931.93	2005.1805	3639.55	2761.6
932.0676	2006.7648	3640.8	2762.35
932.2052	2008.3484	3630.65	2750.55
932.3427	2009.9312	3634.1	2752.55
932.4803	2011.5133	3611.45	2735.2
932.6178	2013.0946	3620.05	2742.6
932.7553	2014.6752	3608.8	2733.2
932.8928	2016.2551	3602.05	2725.6
933.0302	2017.8342	3589.95	2712.35
933.1676	2019.4126	3587.65	2711.95
933.305	2020.9902	3570.65	2695.55
933.4424	2022.5672	3564.55	2686.15
933.5798	2024.1433	3578.15	2695.95
933.7171	2025.7188	3556.35	2681
933.8544	2027.2935	3549.95	2671.7
933.9917	2028.8674	3539.2	2663.1
934.129	2030.4406	3535.65	2658.5
934.2662	2032.0131	3520.5	2643.95
934.4034	2033.5849	3512.6	2631.25
934.5406	2035.1559	3515.65	2638.85
934.6778	2036.7261	3518.95	2640.25
934.8149	2038.2957	3505.05	2627.3
934.952	2039.8645	3514.35	2637.6
935.0891	2041.4325	3505.6	2625.4
935.2262	2042.9998	3494.75	2617.6
935.3632	2044.5664	3486.05	2608.7
935.5002	2046.1323	3488	2610.2
935.6372	2047.6974	3477.65	2601.4
935.7742	2049.2617	3479.15	2601.45
935.9111	2050.8254	3474.8	2593.4
936.048	2052.3883	3474.05	2595.2
936.1849	2053.9504	3466.05	2587.75
936.3218	2055.5118	3463.5	2585.1
936.4586	2057.0725	3456.2	2573.7
936.5955	2058.6325	3430.65	2552.5
936.7323	2060.1917	3447.2	2570.45
936.869	2061.7502	3438.4	2558.35
937.0058	2063.3079	3429.55	2553.35
937.1425	2064.8649	3425.45	2544.55
937.2792	2066.4212	3414.55	2536.35
937.4159	2067.9767	3423.2	2545.9
937.5525	2069.5315	3411.2	2534.8
937.6891	2071.0856	3403.25	2526.5
937.8257	2072.6389	3398.15	2518.3
937.9623	2074.1915	3373.1	2496.9
938.0989	2075.7433	3379.25	2499.5
938.2354	2077.2945	3373.4	2495.9
938.3719	2078.8448	3356.1	2477.65
938.5084	2080.3945	3361.5	2484.65
938.6448	2081.9434	3363.35	2484.5
938.7812	2083.4916	3353	2474.55
938.9176	2085.039	3343.05	2463.75
939.054	2086.5857	3352.55	2471.65
939.1903	2088.1317	3350.65	2472.5
939.3267	2089.677	3340	2461.55
939.463	2091.2215	3325.75	2448.15
939.5992	2092.7652	3328.1	2447.05
939.7355	2094.3083	3333.1	2453.15
939.8717	2095.8506	3316.45	2440.25
940.0079	2097.3921	3315.5	2438.05
940.1441	2098.933	3315.55	2439.3
940.2802	2100.4731	3313.7	2436.05
940.4163	2102.0124	3313.6	2417.85
940.5524	2103.5511	3300.6	2423.7
940.6885	2105.089	3300.65	2421.9
940.8245	2106.6261	3300.9	2423.9
940.9606	2108.1626	3298.1	2417.35
941.0965	2109.6983	3304.45	2396.6
941.2325	2111.2332	3301.5	2424.45
941.3684	2112.7675	3272.5	2393.25
941.5044	2114.301	3273.75	2394.2
941.6403	2115.8337	3272.55	2395.45
941.7761	2117.3657	3261	2385.2
941.912	2118.897	3261.45	2381.45
942.0478	2120.4276	3256.05	2372.85
942.1835	2121.9575	3247.35	2368.95
942.3193	2123.4866	3255.65	2376.5
942.455	2125.0149	3243.45	2361.4
942.5907	2126.5426	3230.65	2351.45
942.7264	2128.0695	3234.05	2351.05
942.8621	2129.5956	3231.1	2354.45
942.9977	2131.1211	3220.7	2340.1
943.1333	2132.6458	3201.45	2324.5
943.2689	2134.1698	3207.95	2328.45
943.4044	2135.693	3211.8	2331.8
943.54	2137.2155	3209.6	2328.8
943.6755	2138.7373	3207.4	2326.6
943.8109	2140.2584	3195.3	2317.3
943.9464	2141.7787	3186.55	2303.25
944.0818	2143.2983	3170.5	2294.75
944.2172	2144.8171	3170.1	2294.45
944.3526	2146.3353	3154.45	2275.55
944.4879	2147.8527	3154.75	2278.95
944.6232	2149.3693	3166.45	2288.5
944.7585	2150.8853	3152.45	2275.55
944.8938	2152.4005	3148.45	2269.4
945.029	2153.9149	3134.35	2254.6
945.1642	2155.4287	3145.6	2266.35
945.2994	2156.9417	3136.4	2257.1
945.4346	2158.454	3115.55	2235.15
945.5697	2159.9655	3125.05	2246.45
945.7048	2161.4764	3115.5	2238
945.8399	2162.9865	3107.4	2228.75
945.9749	2164.4958	3096.15	2217.3
946.1099	2166.0045	3095.3	2214.4
946.2449	2167.5124	3095.65	2218.6
946.3799	2169.0195	3086.95	2208.85
946.5148	2170.526	3096.7	2218.3
946.6498	2172.0317	3090.35	2211.95
946.7846	2173.5367	3078.25	2200.25
946.9195	2175.0409	3080.05	2204
947.0543	2176.5445	3078.7	2201.7
947.1891	2178.0473	3059.2	2181.1
947.3239	2179.5494	3052.3	2171.45
947.4587	2181.0507	3044.9	2167.2
947.5934	2182.5513	3033.6	2155.25
947.7281	2184.0512	3030.2	2152.45
947.8628	2185.5504	3027.3	2149
947.9974	2187.0488	3005.6	2127.05
948.132	2188.5465	3003.8	2126.75
948.2666	2190.0435	3005.05	2127.65
948.4012	2191.5397	2993.75	2116.25
948.5357	2193.0353	2992.05	2113.45
948.6702	2194.5301	2980	2100.35
948.8047	2196.0241	2985.4	2106.55
948.9392	2197.5175	2982.75	2104.25
949.0736	2199.0101	2968.45	2085.7
949.208	2200.502	2961.85	2084.95
949.3424	2201.9931	2942.9	2065.9
949.4767	2203.4835	2940.7	2063.15
949.611	2204.9733	2943.75	2059.3
949.7453	2206.4622	2932.45	2055.45
949.8796	2207.9505	2940.8	2062.05
950.0138	2209.438	2914.05	2038.25
950.148	2210.9248	2918.45	2039.95
950.2822	2212.4109	2899.65	2022.05
950.4164	2213.8962	2908.1	2029.4
950.5505	2215.3809	2901.2	2020.55
950.6846	2216.8648	2892.6	2014.05
950.8186	2218.3479	2888.45	2006.1
950.9527	2219.8304	2878.3	1996.45
951.0867	2221.3121	2883	2004.3
951.2207	2222.7931	2872.5	1993.7
951.3546	2224.2733	2864.3	1985.7
951.4886	2225.7529	2853.65	1974.35
951.6225	2227.2317	2863.85	1983.05
951.7563	2228.7098	2837.55	1961.25
951.8902	2230.1872	2832.45	1955.6
952.024	2231.6638	2834.75	1956.75
952.1578	2233.1397	2830.8	1945.45
952.2916	2234.6149	2819.55	1941.8
952.4253	2236.0894	2814.3	1936.95
952.559	2237.5632	2811.5	1926.1
952.6927	2239.0362	2797.65	1919.25
952.8263	2240.5085	2790.65	1912.2
952.9599	2241.9801	2783.95	1904.15
953.0935	2243.4509	2786.65	1908.95
953.2271	2244.921	2778.6	1901.35
953.3606	2246.3904	2759.75	1878.85
953.4941	2247.8591	2763.25	1886.05
953.6276	2249.3271	2760.85	1881.35
953.7611	2250.7943	2756.6	1879.2
953.8945	2252.2608	2745.4	1865
954.0279	2253.7266	2739.6	1860.3
954.1612	2255.1917	2742.15	1864.45
954.2946	2256.656	2732.2	1853.4
954.4279	2258.1197	2722.6	1846
954.5612	2259.5826	2722.1	1844.4
954.6944	2261.0447	2718.8	1837.55
954.8276	2262.5062	2700.85	1820.9
954.9608	2263.9669	2706.8	1827.6
955.094	2265.4269	2694.65	1818.7
955.2271	2266.8862	2693.9	1816.2
955.3602	2268.3448	2690.8	1814
955.4933	2269.8026	2686.25	1808.05
955.6264	2271.2598	2673.75	1796.75
955.7594	2272.7162	2676.3	1799.85
955.8924	2274.1719	2666.7	1789.05
956.0253	2275.6268	2664	1785.15
956.1583	2277.0811	2661.75	1783.35
956.2912	2278.5346	2650.35	1773.9
956.4241	2279.9874	2659.25	1782.9
956.5569	2281.4395	2649.05	1773.05
956.6897	2282.8908	2639.45	1756.35
956.8225	2284.3414	2640.1	1763.1
956.9553	2285.7914	2635.5	1757.8
957.088	2287.2406	2626.85	1747.65
957.2207	2288.689	2611.45	1732.2
957.3534	2290.1368	2610.65	1730.6
957.486	2291.5838	2612.45	1730.85
957.6186	2293.0302	2603.7	1722.6
957.7512	2294.4758	2605.65	1726.75
957.8838	2295.9206	2593.85	1714.05
958.0163	2297.3648	2587.95	1710.95
958.1488	2298.8082	2584.65	1706.2
958.2813	2300.251	2573.45	1695.4
958.4137	2301.693	2573.9	1692.9
958.5461	2303.1343	2571.45	1691.3
958.6785	2304.5748	2562.4	1684.8
958.8108	2306.0147	2563.55	1685.8
958.9432	2307.4538	2562.65	1682.7
959.0754	2308.8922	2535.35	1659.85
959.2077	2310.3299	2541.4	1664.15
959.3399	2311.7669	2535.85	1659.75
959.4721	2313.2031	2520.4	1642.05
959.6043	2314.6387	2520.5	1639.9
959.7365	2316.0735	2522.6	1643.9
959.8686	2317.5076	2520.85	1644.4
960.0006	2318.941	2507.25	1629.7
960.1327	2320.3737	2524.25	1643.85
960.2647	2321.8056	2512.45	1632.2
960.3967	2323.2369	2500.35	1620.4
960.5287	2324.6674	2502.55	1622.25
960.6606	2326.0972	2506.05	1627.35
960.7925	2327.5263	2482.55	1602.3
960.9244	2328.9547	2486.65	1607.3
961.0562	2330.3823	2473.35	1593.1
961.1881	2331.8092	2475.15	1595.35
961.3198	2333.2355	2465.6	1587.55
961.4516	2334.661	2454.7	1576.45
961.5833	2336.0858	2459.95	1580.6
961.715	2337.5098	2452.5	1570.2
961.8467	2338.9332	2455.75	1577.05
961.9783	2340.3558	2447.15	1564.3
962.1099	2341.7778	2430.15	1551.45
962.2415	2343.199	2436.35	1557.3
962.373	2344.6195	2430.85	1551.55
962.5045	2346.0393	2415.8	1537.6
962.636	2347.4583	2417.7	1539.95
962.7675	2348.8767	2416.35	1535.1
962.8989	2350.2943	2412.25	1533.95
963.0303	2351.7113	2411.05	1531.5
963.1617	2353.1275	2392.15	1513.25
963.293	2354.543	2398.35	1510.55
963.4243	2355.9578	2388.9	1509.85
963.5556	2357.3718	2375.9	1497.2
963.6868	2358.7852	2370.65	1486.65
963.818	2360.1978	2364.4	1485.45
963.9492	2361.6098	2366	1486.7
964.0803	2363.021	2361.5	1478.55
964.2114	2364.4315	2351.4	1474.3
964.3425	2365.8413	2356.9	1475.6
964.4736	2367.2504	2344.35	1466.6
964.6046	2368.6587	2329.6	1450
964.7356	2370.0664	2329.25	1452.85
964.8666	2371.4733	2325.15	1445.65
964.9975	2372.8795	2319.75	1442.25
965.1284	2374.285	2309.95	1430.4
965.2593	2375.6899	2293.95	1416
965.3901	2377.0939	2291.05	1411.35
965.5209	2378.4973	2286.7	1409.3
965.6517	2379.9	2292.95	1412.4
965.7825	2381.3019	2270.2	1391.05
965.9132	2382.7032	2269.2	1392
966.0439	2384.1037	2267.6	1390.6
966.1745	2385.5035	2265.65	1387.25
966.3051	2386.9027	2260.8	1383.5
966.4357	2388.3011	2258	1377.45
966.5663	2389.6987	2257.85	1380.35
966.6968	2391.0957	2245.85	1366.7
966.8273	2392.492	2237.35	1358.4
966.9578	2393.8876	2222.55	1342.75
967.0882	2395.2824	2231.55	1352.3
967.2186	2396.6765	2218.1	1339.6
967.349	2398.07	2207.45	1329.45
967.4793	2399.4627	2213.45	1335.05
967.6097	2400.8547	2204.5	1325.2
967.7399	2402.246	2207.4	1323.45
967.8702	2403.6366	2197.15	1317.1
968.0004	2405.0265	2185.95	1305.95
968.1306	2406.4156	2179.95	1296.15
968.2607	2407.8041	2165.75	1282.45
968.3909	2409.1918	2170.55	1288.6
968.521	2410.5789	2166	1286.75
968.651	2411.9652	2156.95	1274.5
968.781	2413.3508	2157.95	1277.1
968.911	2414.7358	2153.45	1271.65
969.041	2416.12	2139.2	1262.35
969.1709	2417.5035	2137.8	1259.3
969.3008	2418.8863	2124.05	1243.45
969.4307	2420.2684	2123.9	1246
969.5606	2421.6497	2118.25	1236.65
969.6904	2423.0304	2116.35	1237.05
969.8201	2424.4104	2111.5	1231.5
969.9499	2425.7896	2101.05	1219.4
970.0796	2427.1682	2107.85	1228.6
970.2093	2428.546	2098.25	1216.75
970.3389	2429.9232	2106.8	1224.9
970.4685	2431.2996	2093	1213.9
970.5981	2432.6753	2089.3	1208
970.7277	2434.0503	2090.2	1211.2
970.8572	2435.4246	2068.85	1188.4
970.9867	2436.7982	2084.5	1203.5
971.1161	2438.1711	2080.8	1203.55
971.2456	2439.5433	2079.5	1197.7
971.375	2440.9148	2069	1186.5
971.5043	2442.2856	2054.7	1174.95
971.6336	2443.6557	2060.05	1180.1
971.7629	2445.025	2055.2	1176.1
971.8922	2446.3937	2044.35	1164.25
972.0214	2447.7617	2052.55	1173.3
972.1506	2449.1289	2045.9	1165.75
972.2798	2450.4955	2039.05	1156.55
972.4089	2451.8613	2036.6	1157.55
972.538	2453.2265	2022.85	1141.95
972.6671	2454.5909	2030.6	1152.35
972.7961	2455.9546	2023.1	1142.35
972.9251	2457.3177	2020	1140.35
973.0541	2458.68	2024.2	1144.25
973.1831	2460.0416	2018.8	1141
973.312	2461.4025	2024.1	1145.45
973.4408	2462.7627	2025	1134.1
973.5697	2464.1222	2004.65	1127.3
973.6985	2465.4811	2005.25	1126
973.8273	2466.8392	1996.95	1118.15
973.956	2468.1966	2005.4	1122.45
974.0847	2469.5533	2001.1	1118.4
974.2134	2470.9093	1989.25	1108.7
974.3421	2472.2645	1987.75	1107.95
974.4707	2473.6191	1982.4	1103.75
974.5993	2474.973	1980.8	1100.75
974.7278	2476.3262	1979.4	1099.95
974.8563	2477.6787	1965.05	1088.65
974.9848	2479.0305	1970.75	1093.5
975.1132	2480.3816	1966.6	1085.85
975.2417	2481.7319	1948.25	1070.85
975.37	2483.0816	1949.2	1067.9
975.4984	2484.4306	1953.75	1073.4
975.6267	2485.7789	1936.2	1059.25
975.755	2487.1264	1930.5	1050.5
975.8833	2488.4733	1939.5	1062.7
976.0115	2489.8195	1938.75	1052.9
976.1397	2491.165	1932.85	1050.9
976.2678	2492.5097	1930.95	1047.6
976.3959	2493.8538	1921.25	1043.2
976.524	2495.1972	1915.1	1034.55
976.6521	2496.5398	1910	1030.3
976.7801	2497.8818	1911.85	1029.65
976.9081	2499.2231	1895.4	1019
977.036	2500.5637	1892.7	1013.1
977.164	2501.9035	1893.75	1013.15
977.2918	2503.2427	1890.8	1010
977.4197	2504.5812	1889.8	1011.1
977.5475	2505.919	1887.2	1004.8
977.6753	2507.256	1883.4	1003.95
977.8031	2508.5924	1875.45	996.7
977.9308	2509.9281	1880.9	996.3
978.0585	2511.2631	1865.5	986.65
978.1861	2512.5974	1867.7	989.25
978.3137	2513.9309	1874.9	995.1
978.4413	2515.2638	1886.95	980.55
978.5689	2516.596	1859.75	980.8
978.6964	2517.9275	1843.9	963.15
978.8239	2519.2583	1849.2	967.55
978.9513	2520.5884	1843.75	962.5
979.0788	2521.9178	1838.9	958.35
979.2062	2523.2465	1835.4	958.15
979.3335	2524.5745	1831.45	952.15
979.4608	2525.9018	1832.7	955.25
979.5881	2527.2284	1819.45	941.95
979.7154	2528.5543	1818.7	940
979.8426	2529.8796	1820.75	943.2
979.9698	2531.2041	1812.75	933.65
980.0969	2532.5279	1823.1	943.65
980.224	2533.851	1810.45	931.6
980.3511	2535.1735	1809.75	930.35
980.4781	2536.4952	1805.35	927.1
980.6052	2537.8163	1813.35	934.55
980.7321	2539.1366	1788.8	911.85
980.8591	2540.4562	1795.9	916.45
980.986	2541.7752	1796.4	919.05
981.1129	2543.0935	1795	915.45
981.2397	2544.411	1788.25	909.4
981.3665	2545.7279	1785.45	907.35
981.4933	2547.0441	1783.2	903.65
981.62	2548.3596	1783.7	901.9
981.7467	2549.6744	1791.15	911.25
981.8734	2550.9885	1787.75	899.6
982.0001	2552.3019	1770.35	890.05
982.1267	2553.6146	1767.6	887.6
982.2532	2554.9266	1770.05	890.9
982.3798	2556.2379	1768.2	887
982.5063	2557.5485	1766.1	889.15
982.6327	2558.8585	1767.6	881.75
982.7592	2560.1677	1767.85	884.95
982.8856	2561.4762	1760.45	881.4
983.0119	2562.7841	1755.2	871.55
983.1383	2564.0913	1740.85	861.3
983.2646	2565.3977	1748.6	867.65
983.3908	2566.7035	1746.35	867.3
983.517	2568.0086	1743.75	862.45
983.6432	2569.313	1741.55	863.05
983.7694	2570.6167	1739.55	857.7
983.8955	2571.9197	1728	849.2
984.0216	2573.222	1738.6	858.45
984.1476	2574.5236	1729.7	849.25
984.2737	2575.8246	1728.7	845.9
984.3996	2577.1248	1734.85	853.3
984.5256	2578.4244	1721.7	842.45
984.6515	2579.7232	1723.5	843.1
984.7774	2581.0214	1750.8	847.25
984.9032	2582.3189	1714	837.05
985.029	2583.6157	1713.05	829.05
985.1548	2584.9118	1712.15	832.75
985.2806	2586.2072	1708.45	827.9
985.4063	2587.5019	1709.05	829.85
985.5319	2588.7959	1699.15	819
985.6576	2590.0893	1702.4	822.85
985.7832	2591.3819	1701.25	822.55
985.9087	2592.6739	1696.2	818
986.0343	2593.9652	1687.65	807.75
986.1597	2595.2557	1688.3	810.6
986.2852	2596.5456	1682.25	800.65
986.4106	2597.8348	1678.5	800.4
986.536	2599.1234	1670.85	792.45
986.6614	2600.4112	1666.8	789.1
986.7867	2601.6983	1663.1	780.7
986.912	2602.9848	1668.9	789.25
987.0372	2604.2705	1669.7	782.7
987.1624	2605.5556	1661	782.9
987.2876	2606.84	1653.8	775.6
987.4128	2608.1237	1653.9	774
987.5379	2609.4067	1639.85	759.8
987.6629	2610.689	1653.45	764.6
987.788	2611.9707	1657.7	775.05
987.913	2613.2516	1648.05	765.15
988.0379	2614.5319	1624.65	746.05
988.1629	2615.8115	1632.6	753
988.2878	2617.0903	1627.85	747.15
988.4126	2618.3685	1633.4	754.05
988.5375	2619.6461	1622.1	743.6
988.6622	2620.9229	1621.05	743
988.787	2622.199	1615.95	734.4
988.9117	2623.4745	1614.7	733.85
989.0364	2624.7493	1608.85	732.15
989.161	2626.0234	1608.45	731.25
989.2857	2627.2968	1600.1	720.65
989.4102	2628.5695	1600.25	718.85
989.5348	2629.8415	1598.4	720.85
989.6593	2631.1128	1595.1	714.65
989.7837	2632.3835	1594.7	715.65
989.9082	2633.6535	1588.9	709.2
990.0326	2634.9228	1577.85	699.5
990.1569	2636.1914	1580.5	702.3
990.2812	2637.4593	1579.4	694
990.4055	2638.7265	1574.4	696.4
990.5298	2639.9931	1583.85	704.25
990.654	2641.259	1572.35	692.4
990.7782	2642.5242	1570	688.95
990.9023	2643.7887	1565.05	686.8
991.0264	2645.0525	1562.35	683.95
991.1505	2646.3156	1560.75	680.15
991.2745	2647.5781	1552.3	674.35
991.3985	2648.8398	1552.9	674.4
991.5225	2650.1009	1558.25	671.2
991.6464	2651.3613	1545	667.7
991.7703	2652.6211	1550.45	670.85
991.8942	2653.8801	1545.6	668.3
992.018	2655.1385	1537.3	656.15
992.1418	2656.3961	1544	664.15
992.2655	2657.6531	1540.7	661.95
992.3892	2658.9094	1541.6	663.05
992.5129	2660.1651	1535	655.75
992.6366	2661.42	1533.1	653.55
992.7602	2662.6743	1537.1	657.05
992.8837	2663.9279	1528.85	650.75
993.0073	2665.1808	1532.35	653.15
993.1307	2666.433	1528.75	647.8
993.2542	2667.6846	1524.9	645.6
993.3776	2668.9354	1527.75	645.25
993.501	2670.1856	1524.8	645.6
993.6244	2671.4351	1520.4	643.25
993.7477	2672.6839	1510.75	628.35
993.8709	2673.9321	1506.65	628.05
993.9942	2675.1795	1512.4	633
994.1174	2676.4263	1508.15	628.3
994.2405	2677.6724	1507.15	631.5
994.3637	2678.9179	1506.35	626.95
994.4868	2680.1626	1496.4	617.9
994.6098	2681.4067	1500.1	620
994.7328	2682.6501	1498.05	619.65
994.8558	2683.8928	1493.3	612.35
994.9788	2685.1348	1492.3	613.95
995.1017	2686.3761	1489.55	612.45
995.2245	2687.6168	1478.25	598.45
995.3474	2688.8568	1488.7	610.6
995.4702	2690.0961	1474	597
995.5929	2691.3348	1475.3	596
995.7156	2692.5727	1477.15	598.7
995.8383	2693.81	1471.55	593.15
995.961	2695.0466	1471.65	595.55
996.0836	2696.2826	1462.05	579.75
996.2062	2697.5178	1483.9	585.65
996.3287	2698.7524	1463.25	584.7
996.4512	2699.9863	1465.95	585.1
996.5737	2701.2195	1455.85	578.8
996.6961	2702.452	1454.45	574.85
996.8185	2703.6839	1459.55	580.9
996.9408	2704.9151	1451.25	575.2
997.0631	2706.1456	1448.8	571.4
997.1854	2707.3755	1446.15	567.65
997.3077	2708.6046	1448.2	566.55
997.4299	2709.8331	1446.95	568.35
997.552	2711.0609	1439.75	560.6
997.6742	2712.2881	1445.3	565.65
997.7963	2713.5145	1438.85	557.65
997.9183	2714.7403	1436.4	558.5
998.0403	2715.9654	1437.4	559.6
998.1623	2717.1899	1444.4	549.9
998.2842	2718.4136	1431.25	553.25
998.4062	2719.6367	1426.8	546.95
998.528	2720.8591	1433.2	547.9
998.6498	2722.0809	1426.85	548.45
998.7716	2723.3019	1429.1	546.95
998.8934	2724.5223	1417.85	539.15
999.0151	2725.7421	1417.35	538.25
999.1368	2726.9611	1425.35	542.9
999.2584	2728.1795	1423.35	541.85
999.38	2729.3972	1408.15	531.4
999.5016	2730.6142	1415.7	524.15
999.6231	2731.8306	1408.65	529.95
999.7446	2733.0462	1398.4	518.25
999.8661	2734.2612	1405.15	521.85
999.9875	2735.4756	1395.35	518.55
1000.1089	2736.6892	1386.05	507.45
1000.2302	2737.9022	1386.25	508.9
1000.3515	2739.1145	1385.6	507.6
1000.4728	2740.3262	1388.2	498.55
1000.594	2741.5372	1378.1	501.2
1000.7152	2742.7475	1387.3	508.1
1000.8363	2743.9571	1383.1	500.65
1000.9575	2745.1661	1375.2	492.6
1001.0785	2746.3744	1374.5	493.45
1001.1996	2747.582	1371.15	493.5
1001.3206	2748.7889	1369.2	489.15
1001.4415	2749.9952	1366.35	486.25
1001.5625	2751.2008	1370.65	491.8
1001.6833	2752.4057	1367.9	485.05
1001.8042	2753.61	1360.05	480.1
1001.925	2754.8136	1363.45	483.45
1002.0458	2756.0165	1355.2	476.7
1002.1665	2757.2188	1350.15	473.9
1002.2872	2758.4204	1345.05	468.15
1002.4078	2759.6213	1354.5	474.3
1002.5285	2760.8215	1356.2	473.05
1002.649	2762.0211	1355.25	475.6
1002.7696	2763.22	1348.2	465.95
1002.8901	2764.4182	1344.45	466
1003.0106	2765.6158	1340.8	463.55
1003.131	2766.8127	1337.2	459.95
1003.2514	2768.009	1330.95	452.2
1003.3717	2769.2045	1337.8	458.3
1003.492	2770.3994	1333.35	452.1
1003.6123	2771.5936	1330.65	450.2
1003.7325	2772.7872	1324.3	447.8
1003.8527	2773.9801	1324.4	443.95
1003.9729	2775.1723	1339.15	442.85
1004.093	2776.3639	1325	448.1
1004.2131	2777.5548	1325.15	444.35
1004.3331	2778.745	1322.6	442.5
1004.4531	2779.9346	1317.35	439.6
1004.5731	2781.1235	1319.2	440.1
1004.693	2782.3117	1306.5	429.95
1004.8129	2783.4992	1308	431.9
1004.9328	2784.6861	1302.45	424.25
1005.0526	2785.8723	1307.75	426.05
1005.1723	2787.0579	1302	424.15
1005.2921	2788.2428	1305.7	426.1
1005.4118	2789.427	1304.45	427.45
1005.5314	2790.6106	1300.65	420.5
1005.651	2791.7935	1296.4	418.5
1005.7706	2792.9757	1299.25	422.5
1005.8902	2794.1573	1296.05	415.15
1006.0097	2795.3382	1298.7	419.1
1006.1291	2796.5184	1289.35	412.3
1006.2485	2797.698	1292.75	412.7
1006.3679	2798.8769	1285	406.15
1006.4873	2800.0551	1283.35	404.5
1006.6066	2801.2327	1279.9	398.35
1006.7258	2802.4096	1285.5	407.45
1006.8451	2803.5859	1279	399.85
1006.9642	2804.7615	1278.45	400.6
1007.0834	2805.9364	1279.5	402.05
1007.2025	2807.1106	1276.1	396.95
1007.3216	2808.2842	1277.05	398.7
1007.4406	2809.4572	1273.9	395.55
1007.5596	2810.6294	1272.1	392.65
1007.6785	2811.801	1271.75	395.4
1007.7975	2812.972	1270	392.2
1007.9163	2814.1423	1269.7	391.4
1008.0352	2815.3119	1273.25	395.15
1008.154	2816.4808	1272.1	395.45
1008.2727	2817.6491	1272.4	396
1008.3914	2818.8167	1276.35	400.75
1008.5101	2819.9837	1282.5	400.3
1008.6288	2821.15	1281	402.75
1008.7474	2822.3157	1289.95	413.35
1008.8659	2823.4807	1282.55	404.5
1008.9844	2824.645	1292.7	412.4
1009.1029	2825.8086	1295.1	418
1009.2214	2826.9716	1291.4	415
1009.3398	2828.134	1295.55	420.05
1009.4581	2829.2957	1307.65	430.3
1009.5764	2830.4567	1308.25	430.15
1009.6947	2831.617	1301.1	424.75
1009.813	2832.7767	1310.35	431.65
1009.9312	2833.9358	1308.75	431.55
1010.0493	2835.0941	1307.2	425.25
1010.1675	2836.2519	1306.95	431.25
1010.2855	2837.4089	1299.5	420.8
1010.4036	2838.5653	1297.95	419.85
1010.5216	2839.7211	1294.9	418.05
1010.6396	2840.8761	1295.6	414.6
1010.7575	2842.0306	1287.05	410.4
1010.8754	2843.1843	1290.95	413.3
1010.9932	2844.3374	1286.7	409.05
1011.111	2845.4899	1286.05	407.75
1011.2288	2846.6417	1291.45	413.45
1011.3465	2847.7928	1290	410.8
1011.4642	2848.9433	1286.75	407.6
1011.5818	2850.0931	1290.5	414.1
1011.6995	2851.2422	1291.2	412.85
1011.817	2852.3907	1287.45	410.35
1011.9345	2853.5385	1293.3	412.05
1012.052	2854.6857	1304.15	415.25
1012.1695	2855.8323	1284.6	408.6
1012.2869	2856.9781	1287	406.9
1012.4042	2858.1233	1280.4	404.45
1012.5216	2859.2679	1288.35	411.15
1012.6389	2860.4118	1293.15	415.75
1012.7561	2861.555	1295.5	412.8
1012.8733	2862.6976	1294.65	414.2
1012.9905	2863.8395	1296.85	417.95
1013.1076	2864.9808	1297.2	421.1
1013.2247	2866.1214	1294.45	417.15
1013.3417	2867.2614	1295.8	418.45
1013.4587	2868.4007	1290.9	410.6
1013.5757	2869.5393	1290.8	414.7
1013.6926	2870.6773	1295.95	413.5
1013.8095	2871.8146	1295.15	413.05
1013.9263	2872.9513	1288.4	408.65
1014.0431	2874.0874	1295.35	417.45
1014.1599	2875.2227	1288.5	409.95
1014.2766	2876.3574	1283	403.35
1014.3933	2877.4915	1287.8	409.8
1014.51	2878.6249	1294.85	416.75
1014.6266	2879.7577	1291.55	412.9
1014.7431	2880.8898	1302.75	415.4
1014.8596	2882.0212	1297.9	422.15
1014.9761	2883.152	1292.1	414.05
1015.0925	2884.2821	1295.65	418.95
1015.2089	2885.4116	1289.45	411.45
1015.3253	2886.5405	1286.7	410.6
1015.4416	2887.6686	1287.65	407
1015.5579	2888.7962	1278.2	401.7
1015.6741	2889.923	1284.8	407.85
1015.7903	2891.0493	1282.75	405.3
1015.9065	2892.1748	1282.25	403.65
1016.0226	2893.2997	1289.25	411.3
1016.1387	2894.424	1285.75	409.7
1016.2547	2895.5476	1277.35	399.6
1016.3707	2896.6706	1278.6	401.5
1016.4866	2897.7929	1283.85	405
1016.6025	2898.9145	1279.3	403.05
1016.7184	2900.0355	1274.95	395.85
1016.8342	2901.1559	1272.7	393.15
1016.95	2902.2756	1271.5	394
1017.0658	2903.3946	1267.15	390.95
1017.1815	2904.513	1273.5	392.6
1017.2971	2905.6308	1265.25	388.85
1017.4127	2906.7479	1269.85	393
1017.5283	2907.8643	1270.05	390.6
1017.6439	2908.9801	1265.75	387.7
1017.7594	2910.0953	1257.9	381.85
1017.8748	2911.2098	1269.5	389.8
1017.9902	2912.3236	1268.5	381.7
1018.1056	2913.4368	1260.75	382
1018.2209	2914.5494	1259.9	381.15
1018.3362	2915.6613	1267.9	382.65
1018.4515	2916.7725	1256.2	375.15
1018.5667	2917.8831	1252.35	374.85
1018.6819	2918.9931	1255.4	374.25
1018.797	2920.1024	1248.55	370.2
1018.9121	2921.211	1241.65	363.55
1019.0271	2922.319	1239.1	359.5
1019.1421	2923.4264	1242.05	364.4
1019.2571	2924.5331	1234	356.5
1019.372	2925.6391	1235.15	358.95
1019.4869	2926.7445	1229.9	353.8
1019.6017	2927.8493	1235.45	356.75
1019.7165	2928.9534	1233.05	355.05
1019.8313	2930.0569	1238.7	359.3
1019.946	2931.1597	1235.05	356.3
1020.0606	2932.2619	1234.65	357.5
1020.1753	2933.3634	1232.95	355.05
1020.2899	2934.4643	1240.15	355.1
1020.4044	2935.5645	1232.1	348.2
1020.5189	2936.6641	1234.8	352.5
1020.6334	2937.763	1234.05	359.7
1020.7478	2938.8613	1228.8	350.4
1020.8622	2939.959	1237.5	353.55
1020.9765	2941.056	1220.9	344.4
1021.0908	2942.1523	1216.2	336.5
1021.2051	2943.248	1210.35	333.35
1021.3193	2944.3431	1208.15	329.45
1021.4334	2945.4375	1197.3	320.35
1021.5476	2946.5313	1183.85	304.9
1021.6617	2947.6244	1186.3	309.3
1021.7757	2948.7169	1184.4	307.55
1021.8897	2949.8087	1174.7	295.8
1022.0037	2950.8999	1164.15	284.6
1022.1176	2951.9904	1166.3	289.8
1022.2315	2953.0803	1163	283.2
1022.3453	2954.1696	1154.1	277.85
1022.4591	2955.2582	1151.05	272.4
1022.5728	2956.3462	1146	268.5
1022.6865	2957.4335	1140.55	261.6
1022.8002	2958.5202	1145.2	265.75
1022.9138	2959.6062	1142.2	265.05
1023.0274	2960.6916	1141.6	265.35
1023.141	2961.7764	1141.5	263.55
1023.2545	2962.8605	1140.95	264.1
1023.3679	2963.9439	1139.35	261.8
1023.4813	2965.0267	1135.3	256.8
1023.5947	2966.1089	1157.75	256.9
1023.708	2967.1905	1136.75	259.75
1023.8213	2968.2714	1135.25	259.15
1023.9346	2969.3516	1134.75	256.7
1024.0478	2970.4312	1132.65	246.95
1024.1609	2971.5102	1126	248.7
1024.274	2972.5885	1130.75	253
1024.3871	2973.6662	1131.5	247.8
1024.5002	2974.7432	1127.45	251.45
1024.6132	2975.8196	1127.65	250.35
1024.7261	2976.8954	1124.3	247.7
1024.839	2977.9705	1126.1	247.05
1024.9519	2979.045	1119.6	242.8
1025.0647	2980.1188	1120.4	243.95
1025.1775	2981.192	1120.4	243.55
1025.2902	2982.2645	1119.3	240.45
1025.4029	2983.3364	1112.8	236.7
1025.5156	2984.4077	1113.9	236.7
1025.6282	2985.4783	1121.85	240.45
1025.7407	2986.5483	1110.9	234.85
1025.8532	2987.6177	1105.25	228.25
1025.9657	2988.6864	1106.7	226.7
1026.0782	2989.7545	1105.15	225.8
1026.1906	2990.8219	1100.65	224.1
1026.3029	2991.8887	1099.9	218.85
1026.4152	2992.9548	1094.9	216.55
1026.5275	2994.0204	1093.7	217.45
1026.6397	2995.0852	1087.25	211.6
1026.7519	2996.1495	1084.85	206.9
1026.864	2997.2131	1085.5	207.4
1026.9761	2998.276	1082.4	205.25
1027.0882	2999.3383	1085.2	207.8
1027.2002	3000.4	1077.95	199.3
1027.3122	3001.4611	1073.1	195.85
1027.4241	3002.5215	1076.5	200.95
1027.536	3003.5812	1073.9	197.6
1027.6478	3004.6404	1074.9	197.25
1027.7596	3005.6989	1075.85	197.25
1027.8714	3006.7567	1069.45	191.8
1027.9831	3007.8139	1093.75	194.2
1028.0947	3008.8705	1070	191.75
1028.2064	3009.9264	1068.35	186.8
1028.3179	3010.9818	1067.1	190.45
1028.4295	3012.0364	1060.35	182.85
1028.541	3013.0905	1062.35	184.75
1028.6524	3014.1439	1059.55	179.6
1028.7638	3015.1966	1057.25	181.9
1028.8752	3016.2487	1060.05	181.4
1028.9865	3017.3002	1064.3	181.95
1029.0978	3018.3511	1061.1	185.7
1029.209	3019.4013	1059.7	181.7
1029.3202	3020.4509	1057.7	178.1
1029.4314	3021.4998	1055.95	177.7
1029.5425	3022.5481	1051.75	175.75
1029.6535	3023.5958	1056	177.85
1029.7645	3024.6428	1050.5	172.75
1029.8755	3025.6892	1055.25	178.5
1029.9864	3026.735	1054.65	177.1
1030.0973	3027.7802	1050.6	174.65
1030.2082	3028.8247	1049.5	171.8
1030.319	3029.8685	1048	170.9
1030.4297	3030.9118	1047.55	170.25
1030.5404	3031.9544	1039.05	162.3
1030.6511	3032.9963	1044.3	165.65
1030.7617	3034.0376	1046.15	170.7
1030.8723	3035.0783	1051.75	171.75
1030.9829	3036.1184	1048.5	170.5
1031.0934	3037.1578	1044.75	167.9
1031.2038	3038.1966	1044.15	166.9
1031.3142	3039.2348	1041.15	164.1
1031.4246	3040.2723	1050.1	165.95
1031.5349	3041.3092	1041.1	164.9
1031.6452	3042.3455	1041.55	164.65
1031.7554	3043.3811	1041.15	163.45
1031.8656	3044.4161	1041.15	163.55
1031.9758	3045.4505	1037.55	162.4
1032.0859	3046.4842	1036.95	159.7
1032.1959	3047.5173	1036.25	159.6
1032.3059	3048.5498	1039.3	162.75
1032.4159	3049.5816	1031.6	153.95
1032.5258	3050.6128	1035.15	154.7
1032.6357	3051.6434	1038.7	160.1
1032.7455	3052.6734	1036.5	158.2
1032.8553	3053.7027	1036.1	158.7
1032.9651	3054.7314	1033.6	156.05
1033.0748	3055.7594	1037.4	161.15
1033.1845	3056.7868	1034.2	156.3
1033.2941	3057.8136	1032.1	154.95
1033.4037	3058.8398	1029.05	153.35
1033.5132	3059.8653	1030.1	153.6
1033.6227	3060.8902	1035.05	158.75
1033.7321	3061.9145	1030.35	152.7
1033.8415	3062.9381	1030	153.85
1033.9509	3063.9612	1044.9	152.5
1034.0602	3064.9835	1028.7	152.5
1034.1694	3066.0053	1026.45	145.3
1034.2787	3067.0264	1026.45	149.65
1034.3878	3068.0469	1026.8	147.8
1034.497	3069.0668	1031.55	150.75
1034.6061	3070.086	1025.45	149.95
1034.7151	3071.1046	1028.55	152.35
1034.8241	3072.1226	1026.35	147.2
1034.9331	3073.1399	1022.8	146.8
1035.042	3074.1567	1023.8	145.75
1035.1508	3075.1727	1021.6	142.85
1035.2597	3076.1882	1022.8	146.5
1035.3684	3077.203	1021.5	144.75
1035.4772	3078.2173	1023.15	145.2
1035.5859	3079.2308	1017.1	138.15
1035.6945	3080.2438	1018.95	139.1
1035.8031	3081.2561	1014.6	137.15
1035.9117	3082.2678	1012.8	135.8
1036.0202	3083.2789	1013.25	136.7
1036.1286	3084.2893	1014.35	139.2
1036.2371	3085.2991	1015.2	138.15
1036.3454	3086.3083	1020.7	139.9
1036.4538	3087.3169	1013.7	134.55
1036.562	3088.3248	1010.7	131.3
1036.6703	3089.3321	1010.7	132.4
1036.7785	3090.3388	1006.45	129.9
1036.8866	3091.3449	1010.65	133.7
1036.9948	3092.3503	1009	129.6
1037.1028	3093.3551	1008	132.55
1037.2108	3094.3593	1005.2	129.75
1037.3188	3095.3629	1005.2	127.3
1037.4267	3096.3658	1009.8	130.45
1037.5346	3097.3681	1010.85	134.15
1037.6425	3098.3698	1005.8	127.05
1037.7503	3099.3708	1007.45	123.9
1037.858	3100.3713	1001.35	125.75
1037.9657	3101.3711	1007	128.8
1038.0734	3102.3702	1136.9	124.2
1038.181	3103.3688	1003.05	124.7
1038.2886	3104.3667	999.9	123.3
1038.3961	3105.364	999.95	123.3
1038.5036	3106.3607	1000.4	119.8
1038.611	3107.3568	998	120.6
1038.7184	3108.3522	996.35	120.05
1038.8257	3109.347	995.7	117.4
1038.933	3110.3412	1000.45	117.75
1039.0403	3111.3348	994.65	116.25
1039.1475	3112.3277	989.6	112.3
1039.2547	3113.32	996.45	119.55
1039.3618	3114.3117	994.1	118.8
1039.4689	3115.3028	989.95	112.85
1039.5759	3116.2932	991.05	112.9
1039.6829	3117.2831	995.85	113.75
1039.7898	3118.2723	989.8	111.85
1039.8967	3119.2608	990.55	115
1040.0035	3120.2488	986.65	109.5
1040.1103	3121.2361	989.75	112.35
1040.2171	3122.2229	988.15	111.85
1040.3238	3123.209	986.75	107.45
1040.4305	3124.1944	983.05	105.6
1040.5371	3125.1793	987.45	109
1040.6437	3126.1635	983.05	105.85
1040.7502	3127.1471	984.6	108.8
1040.8567	3128.1301	982.25	105.75
1040.9631	3129.1125	982.15	106.3
1041.0695	3130.0942	985.7	108.95
1041.1759	3131.0753	992.2	106
1041.2822	3132.0558	982	103.1
1041.3884	3133.0357	981.75	103.8
1041.4946	3134.015	984.25	105.9
1041.6008	3134.9936	980.3	99.65
1041.7069	3135.9716	998.3	100
1041.813	3136.949	978.6	103.25
1041.919	3137.9258	982.2	99.95
1042.025	3138.902	982.85	98.4
1042.1309	3139.8775	975	98.8
1042.2368	3140.8524	974.5	96.1
1042.3427	3141.8267	976.85	96.65
1042.4485	3142.8004	976.3	97.6
1042.5542	3143.7735	982.85	100.55
1042.6599	3144.7459	973.95	94.55
1042.7656	3145.7178	979.5	101.05
1042.8712	3146.689	975.5	100.45
1042.9768	3147.6596	977.85	99.85
1043.0823	3148.6295	973.6	96.4
1043.1878	3149.5989	975.25	98.8
1043.2932	3150.5676	970.8	95.2
1043.3986	3151.5357	971.75	96.9
1043.5039	3152.5032	971.15	94.75
1043.6092	3153.4701	968.6	90.2
1043.7145	3154.4364	973.85	94.45
1043.8197	3155.402	969	91.85
1043.9248	3156.367	971.5	92.1
1044.03	3157.3315	1005.55	90.3
1044.135	3158.2952	968.95	91.25
1044.24	3159.2584	963.75	87.2
1044.345	3160.221	966.2	86.5
1044.4499	3161.1829	965.2	89.15
1044.5548	3162.1442	967.85	91.65
1044.6596	3163.105	968.7	91.6
1044.7644	3164.065	964.1	86.65
1044.8692	3165.0245	966.3	85.4
1044.9739	3165.9834	963.8	88.8
1045.0785	3166.9416	962.6	85.1
1045.1831	3167.8993	964.95	88.25
1045.2877	3168.8563	959.3	81.35
1045.3922	3169.8127	959.4	83.5
1045.4966	3170.7684	959.95	82.95
1045.6011	3171.7236	963.6	87.85
1045.7054	3172.6782	962.75	84.55
1045.8098	3173.6321	963.55	86.05
1045.914	3174.5854	965.6	83.75
1046.0183	3175.5381	962.5	84.9
1046.1224	3176.4902	958.2	80.8
1046.2266	3177.4417	956.25	80.65
1046.3307	3178.3926	957.75	81.35
1046.4347	3179.3428	957.6	81.85
1046.5387	3180.2924	957.25	80.85
1046.6427	3181.2415	956.75	79.25
1046.7466	3182.1899	961	82.9
1046.8504	3183.1377	956.65	79.9
1046.9542	3184.0848	957.3	77.15
1047.058	3185.0314	956.35	80
1047.1617	3185.9773	954.75	78.6
1047.2654	3186.9227	955.25	77.35
1047.369	3187.8674	953.8	78.15
1047.4726	3188.8115	957.2	75.85
1047.5761	3189.755	954.65	77.6
1047.6796	3190.6979	952.7	76.45
1047.783	3191.6402	950.5	75.35
1047.8864	3192.5818	950.4	73.8
1047.9898	3193.5229	957.75	73.6
1048.0931	3194.4633	947.75	68.5
1048.1963	3195.4031	953.1	75.25
1048.2995	3196.3423	952.05	74.65
1048.4027	3197.2809	947	68.3
1048.5058	3198.2189	952.7	75.55
1048.6089	3199.1563	958.1	71.95
1048.7119	3200.0931	946.95	72.2
1048.8148	3201.0292	948.95	72.45
1048.9178	3201.9648	949.9	72.5
1049.0206	3202.8997	950.7	71
1049.1235	3203.834	946.2	67.7
1049.2262	3204.7677	947	70
1049.329	3205.7008	947.4	66.55
1049.4317	3206.6333	946.85	72.4
1049.5343	3207.5652	948.7	69.95
1049.6369	3208.4964	944.7	66.9
1049.7394	3209.4271	946.6	71.7
1049.8419	3210.3571	943.3	66.25
1049.9444	3211.2865	946.85	67.05
1050.0468	3212.2154	945.95	69.8
1050.1491	3213.1436	948.15	68.3
1050.2514	3214.0712	952.35	68.9
1050.3537	3214.9982	941.15	65
1050.4559	3215.9246	943.5	66.3
1050.5581	3216.8503	942.55	66.1
1050.6602	3217.7755	941.8	64.05
1050.7623	3218.7001	938.25	59.8
1050.8643	3219.624	941	64.8
1050.9663	3220.5473	938.4	60.45
1051.0682	3221.4701	942.45	64.5
1051.1701	3222.3922	943.75	64.6
1051.2719	3223.3137	942.35	66.75
1051.3737	3224.2346	939.3	64.25
1051.4754	3225.1549	939.65	63
1051.5771	3226.0746	938.15	61.05
1051.6788	3226.9937	938.05	59.7
1051.7804	3227.9121	938.3	62.5
1051.8819	3228.83	938	61.95
1051.9834	3229.7473	938.95	61
1052.0849	3230.6639	940	63.8
1052.1863	3231.5799	935.85	59.55
1052.2876	3232.4954	936.9	56.9
1052.3889	3233.4102	936.25	59.7
1052.4902	3234.3244	936.55	57.65
1052.5914	3235.238	936.9	60.55
1052.6926	3236.151	960.3	58.95
1052.7937	3237.0634	932.6	56.05
1052.8948	3237.9752	931.05	55.2
1052.9958	3238.8864	935.6	57.35
1053.0968	3239.797	935	57.1
1053.1977	3240.7069	934.1	54.95
1053.2986	3241.6163	934.9	57.55
1053.3994	3242.5251	932.2	55.1
1053.5002	3243.4332	934	58.3
1053.6009	3244.3408	931.45	54.1
1053.7016	3245.2477	932.6	55.5
1053.8022	3246.154	933.45	55.15
1053.9028	3247.0598	932.9	55.5
1054.0034	3247.9649	933.65	57.2
1054.1039	3248.8694	931.05	54.85
1054.2043	3249.7733	928.8	52.55
1054.3047	3250.6766	929.35	52.55
1054.4051	3251.5793	929.5	52.45
1054.5054	3252.4814	930.1	52.3
1054.6056	3253.3829	929.65	55.05
1054.7058	3254.2838	926.75	50.7
1054.806	3255.1841	929.5	52.85
1054.9061	3256.0838	928.05	50.15
1055.0061	3256.9829	928.65	52.85
1055.1062	3257.8814	928.85	50.45
1055.2061	3258.7792	929.1	51.25
1055.306	3259.6765	923.25	46
1055.4059	3260.5731	926.65	50.4
1055.5057	3261.4692	923.4	45.25
1055.6055	3262.3647	924.55	47.8
1055.7052	3263.2595	923.7	48.35
1055.8049	3264.1538	922.2	44.4
1055.9045	3265.0474	922.65	42.55
1056.0041	3265.9404	923.7	46.1
1056.1036	3266.8329	920.2	43.85
1056.2031	3267.7247	927.5	42.55
1056.3025	3268.616	917.75	42.3
1056.4019	3269.5066	918.95	42.95
1056.5013	3270.3966	917.7	40.55
1056.6005	3271.286	914.65	38.65
