Software Version:	3.9.2.0
Unit SN:	10000200
Spectrometer SN:	6960
Date:	3/6/2024 9:53:03 AM
Data Line Index:	25
Spectral Points:	2048
Integration time (ms):	125
Averages:	20
Delay (ms):	30
Sequence Number:	1
Processing:	dark subtract
Laser Power (mW):	300
Laser Current (mA):	825
Laser Diode Temp (C):	25.1
Laser Case Temp (C):	24.4
System Temp (C):	24.2
Spectrometer Temp (C):	21.8
CCD Temp (C):	0.008
Secondary Temp (C):	20.003
Heatsink Temp (C):	18.297
CCDPCB Temp (C):	30.649
SecondaryPCB Temp (C):	26.225

Wavelength	RamanShift	Raw Counts	Dark Subtracted
787.061	30.1047	440.4	34.25
787.2016	32.3739	437.5	32.55
787.3422	34.6426	442.1	36.05
787.4828	36.9109	446	37.9
787.6235	39.1787	452.8	39.95
787.7642	41.4461	459.05	43.6
787.9049	43.7131	461.05	39.5
788.0456	45.9796	468.1	46.7
788.1863	48.2456	475.8	48.65
788.3271	50.5112	486.6	57.6
788.4679	52.7764	489.05	56.2
788.6087	55.0411	496.8	58.2
788.7496	57.3054	505.5	61.45
788.8904	59.5692	508.9	63.85
789.0313	61.8326	516.15	69
789.1722	64.0955	523.55	73.65
789.3132	66.3579	534.45	78.85
789.4541	68.6199	548.4	89.7
789.5951	70.8815	566.55	102
789.7361	73.1426	606.3	138.05
789.8771	75.4032	694.4	223.7
790.0181	77.6634	914.3	438.95
790.1592	79.9231	1449.25	969.95
790.3003	82.1824	2538.05	2047.35
790.4414	84.4412	4451.45	3949.2
790.5825	86.6995	7051.5	6528.25
790.7237	88.9574	9624.9	9089.65
790.8648	91.2148	11560.65	11014.1
791.006	93.4717	12641.85	12088
791.1472	95.7282	13106.4	12545.65
791.2885	97.9842	13353.55	12793.65
791.4297	100.2398	13409.05	12845.05
791.571	102.4949	13463.6	12898.45
791.7123	104.7495	13462.45	12892.25
791.8536	107.0036	13460	12889.3
791.9949	109.2573	13445.65	12879.05
792.1363	111.5105	13446.1	12869.75
792.2777	113.7632	13412.1	12838.3
792.4191	116.0154	13439.5	12853.25
792.5605	118.2672	13471.5	12889.55
792.7019	120.5185	13467.65	12885.2
792.8434	122.7693	13481.55	12895.9
792.9849	125.0197	13503.85	12910.8
793.1264	127.2696	13490.5	12898.45
793.2679	129.519	13558.45	12962.2
793.4094	131.7679	13547.9	12947.55
793.551	134.0163	13583.3	12982
793.6926	136.2642	13641.65	13035.95
793.8342	138.5117	13616.75	13005.35
793.9758	140.7587	13615.65	13007.4
794.1175	143.0052	13653.75	13043.45
794.2591	145.2512	13634.5	13021.7
794.4008	147.4967	13577.6	12965.55
794.5425	149.7417	13585.1	12967.35
794.6842	151.9863	13574.25	12952.55
794.826	154.2304	13596	12968.45
794.9677	156.4739	13563.4	12930
795.1095	158.717	13561.7	12930.3
795.2513	160.9596	13612	12975.6
795.3931	163.2017	13596.95	12958.3
795.535	165.4433	13597.85	12956.6
795.6768	167.6844	13589.2	12949.1
795.8187	169.925	13613.95	12968.25
795.9606	172.1651	13591.6	12943.5
796.1025	174.4047	13566.5	12916.5
796.2445	176.6439	13597.3	12945.75
796.3864	178.8825	13586	12931.9
796.5284	181.1206	13595.6	12933.4
796.6704	183.3582	13600.65	12935.5
796.8124	185.5954	13603.35	12939.85
796.9544	187.832	13628.05	12959.7
797.0965	190.0681	13663.9	12993.75
797.2386	192.3037	13673.3	12996.35
797.3806	194.5388	13672.45	12993
797.5228	196.7734	13719.95	13040.25
797.6649	199.0075	13775.6	13095.55
797.807	201.2411	13819.2	13137.25
797.9492	203.4742	13817.2	13134.15
798.0914	205.7068	13870.35	13180.35
798.2336	207.9389	13890.6	13201.55
798.3758	210.1704	13931.85	13246.05
798.518	212.4015	13883.8	13208.05
798.6603	214.632	13908.15	13239.7
798.8025	216.862	13954.9	13286.1
798.9448	219.0915	13961.9	13294.35
799.0871	221.3205	13992.9	13322.55
799.2294	223.549	14021.85	13357.95
799.3718	225.777	14029.7	13363.55
799.5141	228.0044	14019.25	13344.05
799.6565	230.2314	14076.15	13399.8
799.7989	232.4578	14072.45	13390.35
799.9413	234.6837	14062.7	13374.3
800.0837	236.909	14103.1	13410.95
800.2262	239.1339	14118.6	13403
800.3687	241.3582	14108.95	13406
800.5111	243.582	14147.75	13413.5
800.6536	245.8053	14162.75	13444.35
800.7961	248.0281	14140.6	13427.05
800.9387	250.2503	14168.95	13450
801.0812	252.472	14187.35	13468.6
801.2238	254.6932	14225.5	13509.45
801.3664	256.9139	14186.3	13465.1
801.509	259.134	14204.25	13477.1
801.6516	261.3536	14203.7	13481.65
801.7942	263.5727	14239.65	13515.75
801.9369	265.7912	14237.9	13515.35
802.0795	268.0092	14277.5	13551.4
802.2222	270.2267	14278.45	13553.25
802.3649	272.4436	14292.6	13566.1
802.5076	274.6601	14305.05	13569.95
802.6504	276.8759	14293.15	13558.1
802.7931	279.0913	14330.3	13595.05
802.9359	281.3061	14327.35	13592.35
803.0787	283.5204	14357.4	13617.6
803.2215	285.7341	14372.7	13629.9
803.3643	287.9473	14418.45	13667.55
803.5071	290.16	14405.15	13662.6
803.6499	292.3721	14364.45	13627.5
803.7928	294.5837	14362.55	13623.15
803.9357	296.7947	14351.4	13608.35
804.0786	299.0052	14381.4	13639.25
804.2215	301.2152	14333.1	13586.1
804.3644	303.4246	14344.9	13604.8
804.5074	305.6334	14298.35	13557.7
804.6503	307.8418	14313.45	13568.6
804.7933	310.0495	14320.35	13570.65
804.9363	312.2568	14280.35	13536.2
805.0793	314.4635	14195	13444.7
805.2223	316.6696	14173.55	13419
805.3653	318.8752	14154.55	13394.8
805.5084	321.0802	14076.95	13322.7
805.6514	323.2847	14116.5	13358.85
805.7945	325.4887	14105.45	13349.9
805.9376	327.692	14090.9	13331.8
806.0807	329.8949	14156.15	13398.25
806.2238	332.0972	14156.6	13396.15
806.367	334.2989	14183.75	13417.8
806.5101	336.5001	14131.1	13364.1
806.6533	338.7007	14157.35	13393.05
806.7965	340.9008	14137	13366.5
806.9397	343.1003	14102.4	13331.05
807.0829	345.2992	14077.7	13305.8
807.2261	347.4976	14082.9	13308.7
807.3693	349.6955	14031	13253.85
807.5126	351.8927	14092.5	13318.1
807.6559	354.0895	14048.3	13262.55
807.7991	356.2856	14070.5	13291.65
807.9424	358.4812	14000.95	13222.7
808.0857	360.6763	14049.3	13266.7
808.2291	362.8707	14026.15	13245.1
808.3724	365.0646	14044.15	13257.15
808.5158	367.258	14009.45	13220.8
808.6591	369.4508	14015.9	13229
808.8025	371.643	14036.45	13244.55
808.9459	373.8346	13976.9	13183.7
809.0893	376.0257	13964.95	13169.7
809.2327	378.2162	13983.85	13192.65
809.3762	380.4062	13973.85	13181.85
809.5196	382.5956	13936.45	13150.4
809.6631	384.7844	13900.2	13114
809.8066	386.9726	13848.9	13062.8
809.9501	389.1603	13803.2	13018.3
810.0936	391.3474	13843.2	13025.15
810.2371	393.5339	13821.8	13031.85
810.3806	395.7199	13747.25	12960.9
810.5241	397.9052	13787.1	12999.8
810.6677	400.09	13752.65	12966.55
810.8113	402.2743	13753.35	12964.8
810.9548	404.4579	13768.5	12978.8
811.0984	406.641	13804.7	13012.15
811.2421	408.8235	13849.55	13055.4
811.3857	411.0054	13857.35	13060.3
811.5293	413.1868	13949.25	13150.8
811.673	415.3675	13981.9	13177.05
811.8166	417.5477	13976.9	13172.4
811.9603	419.7273	13954.15	13147.35
812.104	421.9064	13806.4	12994.85
812.2477	424.0848	13714.6	12906.65
812.3914	426.2627	13691.95	12887.15
812.5351	428.4399	13639	12828.65
812.6788	430.6166	13595.5	12783.1
812.8226	432.7928	13547	12733.7
812.9663	434.9683	13500.15	12686.7
813.1101	437.1432	13471.3	12660.55
813.2539	439.3176	13410.25	12601.05
813.3977	441.4914	13392.2	12585.35
813.5415	443.6645	13397.35	12583.35
813.6853	445.8371	13330.15	12515.05
813.8291	448.0091	13266.3	12452.85
813.973	450.1806	13247.15	12434.95
814.1168	452.3514	13202.7	12383.45
814.2607	454.5216	13208.35	12384.3
814.4046	456.6913	13144.15	12327.25
814.5485	458.8603	13171.5	12357.05
814.6924	461.0288	13179.85	12365.95
814.8363	463.1967	13124.65	12312.2
814.9802	465.3639	13131.4	12316.5
815.1241	467.5306	13094.45	12277.75
815.2681	469.6967	13050.9	12237.65
815.412	471.8622	13035.65	12221
815.556	474.0271	13017.85	12201.25
815.7	476.1914	13003.95	12182.3
815.844	478.3551	12999.3	12179.35
815.988	480.5182	13029.05	12208.55
816.132	482.6807	13023.55	12205.85
816.276	484.8426	13040.95	12227.6
816.4201	487.0039	13039.35	12222.45
816.5641	489.1647	13048.4	12226.55
816.7082	491.3248	13103.3	12279.65
816.8522	493.4843	13049.2	12229.05
816.9963	495.6432	13077.6	12258.4
817.1404	497.8015	13039.1	12210.1
817.2845	499.9592	13027.4	12198.45
817.4286	502.1163	13013.35	12183.25
817.5727	504.2728	12958.95	12131.15
817.7168	506.4287	12970	12147.7
817.861	508.5839	12950.95	12127.9
818.0051	510.7386	12908.1	12082.75
818.1493	512.8927	12898.9	12069.4
818.2935	515.0461	12900.35	12069.45
818.4377	517.199	12913.5	12080.55
818.5818	519.3512	12908.1	12074.4
818.726	521.5029	12934.05	12096.3
818.8703	523.6539	12923.7	12088.65
819.0145	525.8043	12933.8	12101.3
819.1587	527.9541	12891.3	12054.3
819.303	530.1033	12833.6	12001.95
819.4472	532.2519	12833.8	11997.75
819.5915	534.3999	12806.45	11969.9
819.7357	536.5472	12788.9	11952.55
819.88	538.694	12797.9	11964.7
820.0243	540.8401	12802.05	11968.3
820.1686	542.9856	12812.25	11972.3
820.3129	545.1305	12789.35	11945.1
820.4572	547.2748	12801.2	11955.1
820.6016	549.4185	12787.05	11941.45
820.7459	551.5615	12794.85	11948.6
820.8902	553.704	12754.9	11908.7
821.0346	555.8458	12722.95	11881.75
821.1789	557.987	12734.65	11890.9
821.3233	560.1276	12756.05	11913.7
821.4677	562.2675	12789.15	11948.2
821.6121	564.4069	12763.5	11918.55
821.7565	566.5456	12746.1	11901.1
821.9009	568.6837	12781.5	11938
822.0453	570.8212	12696.7	11853.2
822.1897	572.958	12674.4	11826.5
822.3342	575.0942	12620.5	11775.85
822.4786	577.2299	12561.85	11721.65
822.6231	579.3648	12533.4	11696.3
822.7675	581.4992	12476.2	11640.85
822.912	583.6329	12396.45	11564.95
823.0565	585.766	12430.65	11592.3
823.201	587.8985	12369.5	11531.2
823.3454	590.0304	12363.35	11506.4
823.4899	592.1616	12364.65	11513.85
823.6345	594.2922	12332.65	11481.4
823.779	596.4222	12291.15	11439.65
823.9235	598.5515	12265.4	11416.85
824.068	600.6802	12189.95	11337.25
824.2126	602.8083	12132	11280.7
824.3571	604.9358	12140.95	11289.4
824.5017	607.0626	12092.1	11236.9
824.6462	609.1888	12112.35	11256.05
824.7908	611.3144	12095.6	11242.1
824.9354	613.4393	12054.6	11198.55
825.08	615.5636	12100.55	11244.1
825.2246	617.6873	12107.9	11252.5
825.3692	619.8103	12135.8	11275.75
825.5138	621.9327	12087.65	11229.8
825.6584	624.0544	12075.85	11222.45
825.803	626.1756	12043.15	11191.35
825.9477	628.2961	12041.6	11184.1
826.0923	630.4159	11974.65	11117.3
826.237	632.5351	11976.95	11118.15
826.3816	634.6537	11955.6	11096.55
826.5263	636.7716	11936.8	11075.25
826.6709	638.8889	11927.55	11064.45
826.8156	641.0056	11935.7	11071.45
826.9603	643.1216	11921.35	11059.85
827.105	645.237	11947.85	11084
827.2497	647.3518	11890.35	11031.4
827.3944	649.4659	11885.1	11026.5
827.5391	651.5793	11842.15	10982.9
827.6838	653.6922	11846.15	10986.5
827.8285	655.8043	11807.4	10948.9
827.9733	657.9159	11823	10961.7
828.118	660.0268	11773.4	10911.6
828.2627	662.137	11759.7	10896.4
828.4075	664.2466	11776.55	10910
828.5522	666.3556	11761.75	10895.4
828.697	668.4639	11735	10865.8
828.8418	670.5716	11712.25	10851.6
828.9865	672.6786	11711.65	10847.8
829.1313	674.785	11685.5	10818.85
829.2761	676.8907	11622.15	10758.6
829.4209	678.9958	11637.8	10776.4
829.5657	681.1002	11584	10718
829.7105	683.204	11556.35	10686.25
829.8553	685.3072	11576.7	10707.05
830.0001	687.4097	11530.65	10660.9
830.1449	689.5115	11564.15	10694.6
830.2898	691.6127	11559.75	10692.9
830.4346	693.7132	11497.25	10629.65
830.5794	695.8131	11496	10620.7
830.7243	697.9123	11512.75	10641.3
830.8691	700.0109	11502.05	10629.1
831.014	702.1089	11505	10637.7
831.1588	704.2061	11486.85	10619.6
831.3037	706.3028	11482.8	10610.9
831.4486	708.3987	11455.65	10583
831.5935	710.4941	11447.25	10576.45
831.7383	712.5887	11468.35	10597.5
831.8832	714.6827	11468.55	10595.25
832.0281	716.7761	11423.7	10552.1
832.173	718.8688	11412.5	10538.65
832.3179	720.9608	11387.25	10508.85
832.4628	723.0522	11417.7	10537.85
832.6077	725.1429	11388.2	10513.55
832.7527	727.233	11380.25	10505.25
832.8976	729.3224	11411.3	10537.2
833.0425	731.4112	11415.75	10537.3
833.1874	733.4993	11389.45	10513.95
833.3324	735.5867	11354.45	10478.65
833.4773	737.6735	11318.7	10440.05
833.6222	739.7596	11276.45	10402
833.7672	741.845	11249	10372.75
833.9122	743.9298	11209.65	10333.05
834.0571	746.014	11241.05	10365.9
834.2021	748.0974	11224.8	10345.4
834.347	750.1802	11195.65	10316.2
834.492	752.2624	11166	10287.2
834.637	754.3439	11101.05	10220.55
834.782	756.4247	11087	10201
834.9269	758.5048	11017.2	10138.5
835.0719	760.5843	11022.95	10140.8
835.2169	762.6631	11011.55	10129.1
835.3619	764.7413	10973.55	10094.05
835.5069	766.8188	11025.6	10144.6
835.6519	768.8956	11003.3	10119.95
835.7969	770.9718	11030.45	10152.45
835.9419	773.0473	11002.3	10121.8
836.0869	775.1221	10976.55	10096.85
836.232	777.1962	10913.05	10030.35
836.377	779.2697	10908.65	10023.35
836.522	781.3426	10963.6	10062.2
836.667	783.4147	10947.35	10063.1
836.8121	785.4862	10907.9	10028.45
836.9571	787.557	10863.6	9981.9
837.1021	789.6271	10814.8	9930.6
837.2472	791.6966	10730.95	9848
837.3922	793.7654	10685.3	9801.95
837.5373	795.8335	10669.2	9789.9
837.6823	797.901	10615.4	9731.4
837.8274	799.9678	10596.3	9709.9
837.9724	802.0339	10572.6	9688.95
838.1175	804.0993	10605.45	9712.05
838.2626	806.1641	10540	9653.9
838.4076	808.2282	10523.9	9639.7
838.5527	810.2916	10520.9	9631.8
838.6978	812.3544	10501.85	9618.7
838.8428	814.4164	10459.55	9574.85
838.9879	816.4778	10493.95	9607.05
839.133	818.5385	10453.35	9569.65
839.2781	820.5986	10418.35	9528.95
839.4232	822.658	10459.45	9571.65
839.5682	824.7166	10430.6	9543.6
839.7133	826.7747	10490.15	9604.1
839.8584	828.832	10483.4	9597.1
840.0035	830.8886	10473.05	9580.15
840.1486	832.9446	10489	9601.5
840.2937	834.9999	10439.85	9552.45
840.4388	837.0545	10419.2	9526.9
840.5839	839.1085	10364.8	9476.3
840.729	841.1618	10335.6	9441.35
840.8741	843.2143	10276.45	9390.6
841.0192	845.2662	10239.95	9351.9
841.1643	847.3175	10259.2	9371.05
841.3095	849.368	10211.05	9323.55
841.4546	851.4179	10193.1	9303.55
841.5997	853.467	10149.7	9261.6
841.7448	855.5155	10142.95	9254.55
841.8899	857.5633	10145.35	9255.35
842.0351	859.6105	10103.3	9216.1
842.1802	861.6569	10096	9206.25
842.3253	863.7027	10083.75	9193.15
842.4704	865.7478	10089.05	9195.55
842.6156	867.7922	10057.35	9166.9
842.7607	869.8359	10011.75	9121.05
842.9058	871.8789	10017.1	9120.55
843.0509	873.9212	10022.1	9096.95
843.1961	875.9629	9987.85	9097.95
843.3412	878.0039	9983.25	9089.85
843.4863	880.0441	9980.25	9091.05
843.6315	882.0837	9982.15	9092.1
843.7766	884.1226	9977.35	9082.25
843.9218	886.1609	9981.05	9090.85
844.0669	888.1984	9979.85	9088.6
844.212	890.2352	9988.3	9095.55
844.3572	892.2714	9996.95	9100.65
844.5023	894.3069	9995.95	9103.2
844.6475	896.3416	9921.2	9028.05
844.7926	898.3757	9918.05	9026.3
844.9377	900.4091	9879.15	8983.15
845.0829	902.4418	9847.85	8951.75
845.228	904.4739	9851.4	8956.15
845.3732	906.5052	9846.7	8949.45
845.5183	908.5358	9823.4	8930.9
845.6635	910.5658	9789.85	8892.65
845.8086	912.595	9767.85	8872.65
845.9538	914.6236	9746.5	8853.1
846.0989	916.6515	9727.35	8832.3
846.2441	918.6786	9702.15	8805.8
846.3892	920.7051	9694.95	8797.25
846.5344	922.7309	9711.5	8817
846.6795	924.756	9655.65	8760.25
846.8246	926.7804	9642.6	8743.8
846.9698	928.8041	9587.95	8690.9
847.1149	930.8272	9590.25	8695.7
847.2601	932.8495	9523.35	8627.45
847.4052	934.8711	9547.9	8652.75
847.5504	936.892	9517.1	8619.9
847.6955	938.9123	9474.4	8577.1
847.8407	940.9318	9506.65	8611.1
847.9858	942.9506	9456.35	8559.65
848.131	944.9688	9425.85	8531.55
848.2761	946.9862	9408.75	8511.85
848.4213	949.003	9352.55	8456
848.5664	951.019	9326.35	8427.9
848.7115	953.0344	9294.65	8399.4
848.8567	955.0491	9286.3	8387.85
849.0018	957.063	9279.65	8384.45
849.147	959.0763	9296.1	8400.8
849.2921	961.0888	9238.3	8340.6
849.4373	963.1007	9239.7	8343.2
849.5824	965.1119	9224.55	8330.75
849.7275	967.1223	9223.35	8331.1
849.8727	969.1321	9193.45	8304.2
850.0178	971.1412	9190.85	8296.8
850.1629	973.1495	9159.5	8266.15
850.3081	975.1572	9184.35	8256.7
850.4532	977.1641	9147.05	8247.95
850.5983	979.1704	9116.05	8218.8
850.7435	981.1759	9077.25	8174.75
850.8886	983.1808	9087.1	8189.7
851.0337	985.1849	9078.2	8171.2
851.1788	987.1884	9050.3	8152.1
851.324	989.1911	9036.2	8139.4
851.4691	991.1932	9021	8122.65
851.6142	993.1945	8973.55	8074.8
851.7593	995.1951	8939.35	8043
851.9045	997.1951	8918.6	8015.95
852.0496	999.1943	8894.25	7996.2
852.1947	1001.1928	8867	7966.5
852.3398	1003.1906	8844.55	7946.2
852.4849	1005.1877	8832.45	7934.25
852.63	1007.1841	8789.9	7892.3
852.7751	1009.1798	8777.45	7880.25
852.9202	1011.1748	8751.15	7854.3
853.0653	1013.1691	8717.5	7817
853.2104	1015.1627	8685.1	7788.9
853.3555	1017.1556	8609.65	7711.45
853.5006	1019.1477	8593.85	7695.85
853.6457	1021.1392	8543.3	7649.9
853.7908	1023.1299	8504.65	7611.5
853.9359	1025.12	8503.65	7610.7
854.081	1027.1093	8477.85	7589.15
854.2261	1029.0979	8449.65	7563.5
854.3712	1031.0859	8422.3	7530.5
854.5163	1033.0731	8427.8	7537.3
854.6613	1035.0596	8377.55	7483.5
854.8064	1037.0454	8339	7442.95
854.9515	1039.0304	8319.65	7419.75
855.0965	1041.0148	8294.85	7397.75
855.2416	1042.9985	8270.35	7370.35
855.3867	1044.9814	8259.25	7362.15
855.5317	1046.9636	8215.7	7312.55
855.6768	1048.9452	8169.15	7273.2
855.8219	1050.926	8204.7	7305.35
855.9669	1052.9061	8178.7	7281.55
856.112	1054.8855	8148.3	7247.7
856.257	1056.8642	8147.35	7245.85
856.4021	1058.8421	8131.2	7231.4
856.5471	1060.8194	8098.85	7198.25
856.6921	1062.7959	8077.05	7178.05
856.8372	1064.7717	8086.3	7186.85
856.9822	1066.7469	8049.15	7147.7
857.1272	1068.7213	8044.1	7142.85
857.2723	1070.695	8062.4	7161.3
857.4173	1072.6679	8016.1	7114.85
857.5623	1074.6402	8011.45	7112.6
857.7073	1076.6117	8036.7	7132.4
857.8523	1078.5826	7994.25	7095.95
857.9973	1080.5527	7967.7	7067.4
858.1423	1082.5221	7928.35	7028
858.2873	1084.4908	7914.1	7015.7
858.4323	1086.4587	7868.1	6967.45
858.5773	1088.426	7849.6	6948.3
858.7223	1090.3925	7852	6946.4
858.8673	1092.3584	7836.1	6937.55
859.0123	1094.3235	7787.75	6889.7
859.1573	1096.2879	7782.85	6883.15
859.3022	1098.2515	7790.25	6891.15
859.4472	1100.2145	7798.55	6896.55
859.5922	1102.1767	7772.7	6870.6
859.7371	1104.1382	7753.55	6852.05
859.8821	1106.099	7806.1	6907.35
860.027	1108.0591	7787	6887.45
860.172	1110.0185	7756.1	6855.45
860.3169	1111.9771	7786.45	6886.4
860.4619	1113.9351	7757.3	6856.3
860.6068	1115.8923	7769.5	6867.9
860.7517	1117.8488	7762.95	6859.95
860.8967	1119.8045	7701.95	6800.35
861.0416	1121.7596	7677.5	6777.6
861.1865	1123.7139	7612.85	6711.75
861.3314	1125.6675	7578.2	6676.15
861.4763	1127.6204	7574.4	6673.85
861.6212	1129.5726	7554.4	6652.4
861.7661	1131.524	7560.95	6659.8
861.911	1133.4748	7512.05	6612.1
862.0559	1135.4248	7489.6	6585.55
862.2008	1137.3741	7466.9	6566.2
862.3457	1139.3226	7440.05	6538.4
862.4905	1141.2705	7437.05	6534.9
862.6354	1143.2176	7403.15	6497.6
862.7803	1145.164	7392.35	6491.4
862.9251	1147.1097	7369.05	6468
863.07	1149.0546	7358.8	6458.25
863.2148	1150.9989	7352.25	6452.65
863.3597	1152.9424	7334.05	6433.05
863.5045	1154.8852	7305.6	6404.55
863.6493	1156.8272	7314.35	6414.1
863.7942	1158.7686	7306.65	6397.5
863.939	1160.7092	7281.6	6377.7
864.0838	1162.6491	7245.5	6343.9
864.2286	1164.5883	7240.1	6339.2
864.3734	1166.5267	7245.05	6341.1
864.5182	1168.4644	7246.95	6348.6
864.663	1170.4014	7234.1	6330.55
864.8078	1172.3377	7271.65	6372.65
864.9526	1174.2732	7282	6381.45
865.0974	1176.2081	7302.9	6401.9
865.2421	1178.1421	7340.4	6435.75
865.3869	1180.0755	7385.35	6486.1
865.5317	1182.0082	7376.4	6475.9
865.6764	1183.9401	7317.4	6417.6
865.8212	1185.8713	7268.95	6371
865.9659	1187.8017	7211.6	6317.05
866.1106	1189.7315	7188.6	6295.35
866.2554	1191.6605	7128.95	6235.35
866.4001	1193.5888	7065.6	6168.95
866.5448	1195.5163	7048.05	6149.4
866.6895	1197.4432	7005.25	6105.45
866.8342	1199.3693	6994.55	6096.6
866.9789	1201.2947	6972.6	6066.95
867.1236	1203.2193	6941.1	6041.9
867.2683	1205.1432	6925.55	6025.65
867.413	1207.0664	6927.45	6027.1
867.5576	1208.9889	6898.6	5994.85
867.7023	1210.9106	6864.35	5963.7
867.847	1212.8316	6848.65	5948.45
867.9916	1214.7519	6849.3	5938.1
868.1363	1216.6715	6810.3	5912.05
868.2809	1218.5903	6821.3	5920.15
868.4255	1220.5084	6804.75	5905.9
868.5701	1222.4257	6815.75	5915.55
868.7148	1224.3424	6756.35	5856.35
868.8594	1226.2583	6773.65	5869.25
869.004	1228.1735	6773.2	5868.75
869.1486	1230.0879	6743.65	5843.95
869.2932	1232.0016	6751.05	5853.35
869.4377	1233.9146	6768.65	5867.6
869.5823	1235.8269	6753.9	5852.1
869.7269	1237.7384	6765.15	5862.6
869.8715	1239.6492	6748.45	5848.85
870.016	1241.5592	6731.8	5832.8
870.1606	1243.4686	6719.15	5815.15
870.3051	1245.3772	6760.75	5858.7
870.4496	1247.285	6771.1	5867.8
870.5941	1249.1922	6777.05	5876.15
870.7387	1251.0986	6792.75	5892.85
870.8832	1253.0042	6800.9	5898.9
871.0277	1254.9092	6825.2	5925.55
871.1722	1256.8134	6849.5	5950.2
871.3167	1258.7169	6876.1	5974.55
871.4611	1260.6196	6874.6	5975.65
871.6056	1262.5216	6869.3	5966.1
871.7501	1264.4229	6846.3	5948.6
871.8945	1266.3234	6818.9	5918.65
872.039	1268.2232	6791.1	5887.2
872.1834	1270.1223	6777.7	5874.45
872.3278	1272.0207	6743.8	5842.5
872.4723	1273.9183	6746.75	5840.6
872.6167	1275.8151	6708.95	5808.65
872.7611	1277.7113	6747.1	5844.5
872.9055	1279.6067	6752	5852.4
873.0499	1281.5014	6776.05	5871.65
873.1943	1283.3953	6835.95	5932.5
873.3386	1285.2885	6929.9	6029.05
873.483	1287.181	6956.75	6054.75
873.6274	1289.0727	6990.05	6088.9
873.7717	1290.9637	6945.55	6045.65
873.9161	1292.854	6919.3	6019.8
874.0604	1294.7435	6870.25	5969.5
874.2047	1296.6323	6803.6	5902.5
874.349	1298.5204	6767.6	5864.1
874.4933	1300.4077	6751.4	5846.9
874.6376	1302.2943	6713.25	5810.65
874.7819	1304.1802	6695.7	5793.9
874.9262	1306.0653	6661.55	5756.6
875.0705	1307.9497	6648.45	5745.65
875.2147	1309.8333	6619.4	5718.05
875.359	1311.7162	6597.55	5698.25
875.5032	1313.5984	6579.1	5675.4
875.6475	1315.4798	6541.9	5637.85
875.7917	1317.3605	6548.95	5632.45
875.9359	1319.2405	6538.65	5634.4
876.0801	1321.1197	6501.45	5597.7
876.2243	1322.9982	6448.5	5544.4
876.3685	1324.876	6449.4	5549
876.5127	1326.753	6384.4	5483.7
876.6569	1328.6293	6357.8	5454.25
876.801	1330.5048	6343.55	5437.8
876.9452	1332.3796	6283.8	5381.45
877.0893	1334.2537	6282.35	5355.8
877.2335	1336.127	6249.9	5348.25
877.3776	1337.9996	6212.05	5308.45
877.5217	1339.8714	6202.6	5302.35
877.6658	1341.7426	6190.1	5244.1
877.8099	1343.6129	6167.9	5267.8
877.954	1345.4826	6152.05	5251.65
878.0981	1347.3515	6137.75	5233
878.2422	1349.2196	6130.7	5227.85
878.3862	1351.087	6115.65	5211.4
878.5303	1352.9537	6110.2	5206.5
878.6743	1354.8197	6133.05	5231.25
878.8184	1356.6849	6110.8	5208.05
878.9624	1358.5493	6111.3	5208.5
879.1064	1360.4131	6107.55	5208.45
879.2504	1362.276	6116.7	5215.7
879.3944	1364.1383	6103.8	5202.75
879.5384	1365.9998	6097.7	5191.1
879.6823	1367.8606	6087.8	5186.25
879.8263	1369.7206	6085	5183.6
879.9702	1371.5799	6070.6	5166.35
880.1142	1373.4384	6040.3	5138.4
880.2581	1375.2962	6023.65	5118.95
880.402	1377.1533	5963.55	5060.9
880.5459	1379.0096	5939.15	5036.95
880.6898	1380.8652	5901.2	4999.55
880.8337	1382.7201	5898.15	4997.5
880.9776	1384.5742	5847.5	4946.3
881.1215	1386.4275	5827.15	4923.35
881.2653	1388.2802	5797.75	4898
881.4092	1390.132	5760.2	4858.2
881.553	1391.9832	5758.8	4853.85
881.6968	1393.8336	5745.1	4840.5
881.8406	1395.6832	5721.65	4817.8
881.9844	1397.5322	5696.1	4795.95
882.1282	1399.3803	5671.15	4764.05
882.272	1401.2278	5652.55	4749.35
882.4158	1403.0745	5627.7	4727.4
882.5595	1404.9204	5609.9	4708.8
882.7033	1406.7656	5589.6	4687.3
882.847	1408.6101	5588.25	4686.05
882.9908	1410.4538	5552.2	4651.45
883.1345	1412.2968	5547.9	4647.95
883.2782	1414.139	5532.85	4630.05
883.4219	1415.9805	5524.05	4624.35
883.5656	1417.8213	5507.05	4599.2
883.7092	1419.6613	5508.9	4606.65
883.8529	1421.5006	5503.55	4604.25
883.9965	1423.3391	5509.3	4608.3
884.1402	1425.1769	5490.1	4589.5
884.2838	1427.0139	5514.35	4612.5
884.4274	1428.8502	5545.65	4644.8
884.571	1430.6858	5561.05	4659.7
884.7146	1432.5206	5573.3	4673.25
884.8582	1434.3547	5546.1	4645.05
885.0018	1436.188	5543.9	4642.55
885.1453	1438.0206	5524.05	4621.2
885.2889	1439.8524	5515.05	4615.55
885.4324	1441.6835	5501.1	4598.25
885.5759	1443.5139	5496.65	4593.35
885.7194	1445.3435	5475.2	4574.15
885.8629	1447.1724	5454.65	4553.65
886.0064	1449.0005	5465.35	4567
886.1499	1450.8279	5451.35	4548.85
886.2933	1452.6545	5451.25	4552.6
886.4368	1454.4804	5460.95	4562.5
886.5802	1456.3056	5436.6	4529.8
886.7237	1458.13	5410.5	4509.3
886.8671	1459.9536	5408	4507.7
887.0105	1461.7766	5385.05	4485.15
887.1539	1463.5987	5359.5	4456.85
887.2972	1465.4202	5322.85	4422.8
887.4406	1467.2409	5277.3	4375.1
887.584	1469.0608	5276.15	4375
887.7273	1470.88	5259.25	4358.6
887.8706	1472.6984	5237.4	4337.5
888.0139	1474.5161	5199.85	4296.05
888.1572	1476.3331	5178.5	4280
888.3005	1478.1493	5179.65	4280.55
888.4438	1479.9648	5179.9	4279.1
888.5871	1481.7795	5165.25	4265.5
888.7303	1483.5935	5141.9	4243.25
888.8736	1485.4067	5145.75	4246.35
889.0168	1487.2192	5130.45	4229.1
889.16	1489.031	5144.75	4243.65
889.3032	1490.842	5123.1	4222.7
889.4464	1492.6522	5124.65	4224
889.5896	1494.4618	5097.05	4194.35
889.7327	1496.2705	5093.55	4194.2
889.8759	1498.0785	5081.35	4181.35
890.019	1499.8858	5070.55	4170.95
890.1622	1501.6924	5049.4	4150.4
890.3053	1503.4981	5045.6	4147.85
890.4484	1505.3032	5032.3	4133.25
890.5914	1507.1075	5024.95	4124.1
890.7345	1508.911	5005.6	4103.65
890.8776	1510.7138	4990.2	4090.2
891.0206	1512.5159	4972.75	4074.95
891.1637	1514.3172	4962.85	4061.5
891.3067	1516.1178	4941.6	4044.15
891.4497	1517.9176	4940.9	4037.3
891.5927	1519.7166	4912.85	4016.35
891.7357	1521.515	4909.7	4005.05
891.8786	1523.3126	4889.1	3991.65
892.0216	1525.1094	4864.55	3963.75
892.1645	1526.9055	4845.2	3947.05
892.3074	1528.7008	4828.75	3931.6
892.4503	1530.4954	4811.3	3911.4
892.5932	1532.2893	4805.65	3907.95
892.7361	1534.0824	4787.5	3887.25
892.879	1535.8747	4787.75	3892.15
893.0218	1537.6663	4765.65	3867.4
893.1647	1539.4572	4736.6	3837.15
893.3075	1541.2473	4734	3836.15
893.4503	1543.0367	4725.35	3828.65
893.5931	1544.8253	4711	3805.35
893.7359	1546.6132	4699.2	3798.3
893.8787	1548.4003	4694.5	3786.35
894.0214	1550.1867	4689.85	3784.7
894.1642	1551.9723	4680.7	3780.95
894.3069	1553.7572	4664.05	3767.8
894.4496	1555.5414	4663.8	3766.75
894.5923	1557.3247	4656.7	3761.7
894.735	1559.1074	4650.85	3756.8
894.8777	1560.8893	4657.8	3762.85
895.0204	1562.6705	4674.75	3780.95
895.163	1564.4509	4663.6	3771.15
895.3056	1566.2305	4641.6	3746.85
895.4482	1568.0094	4656	3764.95
895.5908	1569.7876	4633.3	3739.25
895.7334	1571.565	4615.9	3718.65
895.876	1573.3417	4622.25	3725.25
896.0186	1575.1176	4602.5	3707.65
896.1611	1576.8928	4599.15	3705.75
896.3036	1578.6672	4585.5	3695
896.4461	1580.4409	4581.95	3692.45
896.5886	1582.2138	4588.7	3696.1
896.7311	1583.986	4565.1	3673.55
896.8736	1585.7575	4569.35	3677.3
897.0161	1587.5282	4587.2	3699.2
897.1585	1589.2981	4591.55	3700.95
897.3009	1591.0673	4586.5	3696.7
897.4433	1592.8358	4578.3	3689.25
897.5857	1594.6035	4583.05	3689.45
897.7281	1596.3704	4543	3648.75
897.8705	1598.1366	4541.45	3648.65
898.0128	1599.9021	4519.75	3627.75
898.1551	1601.6668	4490.7	3599.4
898.2975	1603.4308	4478.45	3583.8
898.4398	1605.194	4466	3567.5
898.5821	1606.9564	4466.35	3575
898.7243	1608.7182	4482.45	3588.55
898.8666	1610.4791	4503.85	3617.8
899.0088	1612.2394	4527.8	3645
899.1511	1613.9988	4557.7	3670.5
899.2933	1615.7576	4600.05	3711.4
899.4355	1617.5156	4578.3	3678.5
899.5776	1619.2728	4568.25	3674.65
899.7198	1621.0293	4528.05	3637.25
899.862	1622.785	4461.85	3570.55
900.0041	1624.54	4393.5	3499.55
900.1462	1626.2942	4347.3	3458.8
900.2883	1628.0477	4278.05	3387.8
900.4304	1629.8005	4241.2	3346.05
900.5725	1631.5525	4184.4	3296.8
900.7145	1633.3037	4140.65	3252.05
900.8566	1635.0542	4117.85	3228.95
900.9986	1636.804	4107.3	3218.45
901.1406	1638.553	4144.3	3173.95
901.2826	1640.3013	4063.2	3172.55
901.4245	1642.0488	4036.3	3145.8
901.5665	1643.7955	4021.75	3134.7
901.7085	1645.5416	4005.7	3119.45
901.8504	1647.2868	3983.85	3096.1
901.9923	1649.0313	3978.6	3087.95
902.1342	1650.7751	3974.85	3082
902.2761	1652.5181	3962.2	3073.55
902.4179	1654.2604	3928.85	3038.65
902.5598	1656.0019	3933.4	3044.4
902.7016	1657.7427	3919.6	3030.85
902.8434	1659.4828	3936.45	3047.5
902.9852	1661.222	3935.5	3044.1
903.127	1662.9606	3938.75	3049.4
903.2687	1664.6984	3937.25	3046.5
903.4105	1666.4354	3925.25	3033.75
903.5522	1668.1717	3901.95	3009.5
903.6939	1669.9072	3881.9	2987.5
903.8356	1671.642	3851.35	2958.9
903.9773	1673.3761	3833.4	2943.2
904.119	1675.1094	3793.15	2902.45
904.2606	1676.8419	3763.05	2874.1
904.4022	1678.5737	3752.95	2863.2
904.5439	1680.3048	3744.05	2853.05
904.6855	1682.0351	3718.35	2830
904.827	1683.7646	3700.8	2806.05
904.9686	1685.4934	3687.75	2798.25
905.1101	1687.2215	3681.75	2791.1
905.2517	1688.9488	3638.25	2750
905.3932	1690.6754	3644	2752.15
905.5347	1692.4012	3626.85	2736.5
905.6761	1694.1263	3628	2737.45
905.8176	1695.8506	3617.65	2726.05
905.9591	1697.5742	3602.45	2712.9
906.1005	1699.297	3592.15	2703.75
906.2419	1701.0191	3573.85	2689.05
906.3833	1702.7404	3548.2	2660.8
906.5246	1704.461	3527.95	2637.1
906.666	1706.1808	3536.75	2647.75
906.8073	1707.8999	3526.35	2636.4
906.9487	1709.6182	3509.65	2623.35
907.09	1711.3358	3503.75	2617.55
907.2313	1713.0527	3488	2604.4
907.3725	1714.7688	3481.8	2589.6
907.5138	1716.4841	3466.15	2577.85
907.655	1718.1987	3476.7	2583.75
907.7962	1719.9126	3457.5	2572.55
907.9374	1721.6257	3453.75	2567.1
908.0786	1723.338	3440.75	2555.15
908.2198	1725.0496	3432	2544
908.3609	1726.7605	3427.8	2538.55
908.502	1728.4706	3429.25	2541.55
908.6431	1730.18	3414.6	2526.05
908.7842	1731.8886	3412.15	2524.25
908.9253	1733.5964	3413.5	2521.15
909.0664	1735.3036	3397.5	2508.8
909.2074	1737.0099	3387.3	2500.35
909.3484	1738.7156	3386.65	2499.8
909.4894	1740.4204	3389.3	2500.7
909.6304	1742.1246	3380.05	2492.3
909.7714	1743.8279	3368.9	2481
909.9123	1745.5306	3370.65	2483.1
910.0532	1747.2325	3359.9	2474.95
910.1941	1748.9336	3354.4	2468.5
910.335	1750.634	3351.6	2461.85
910.4759	1752.3336	3339.6	2452.9
910.6168	1754.0325	3328	2443.6
910.7576	1755.7307	3328.85	2444
910.8984	1757.4281	3338.7	2449.75
911.0392	1759.1247	3321.55	2425.45
911.18	1760.8206	3329.45	2435.45
911.3208	1762.5158	3327.95	2436.3
911.4615	1764.2102	3309.6	2420.7
911.6022	1765.9039	3312.35	2426.5
911.7429	1767.5968	3291.9	2405.75
911.8836	1769.289	3287.1	2400.65
912.0243	1770.9804	3295.45	2405.75
912.1649	1772.6711	3294	2403.55
912.3056	1774.361	3273.5	2382.9
912.4462	1776.0502	3271.7	2382.75
912.5868	1777.7386	3271.1	2380.7
912.7274	1779.4263	3267.35	2382.7
912.8679	1781.1132	3253.5	2366.55
913.0084	1782.7994	3236.8	2349
913.149	1784.4849	3240.1	2354.5
913.2895	1786.1696	3261.6	2356.45
913.4299	1787.8535	3228.65	2343.45
913.5704	1789.5367	3232.9	2347.4
913.7108	1791.2192	3216.6	2331.9
913.8513	1792.9009	3231.15	2316.95
913.9917	1794.5818	3202.75	2313.35
914.132	1796.2621	3207.55	2321.3
914.2724	1797.9415	3197.3	2309.05
914.4128	1799.6202	3196.8	2309.5
914.5531	1801.2982	3170.35	2283.6
914.6934	1802.9755	3168.2	2278.25
914.8337	1804.6519	3163.6	2275.4
914.9739	1806.3277	3159.8	2273
915.1142	1808.0027	3153.05	2269.9
915.2544	1809.6769	3145.9	2260.5
915.3946	1811.3504	3134.15	2249.75
915.5348	1813.0231	3126.15	2240.85
915.675	1814.6951	3135.45	2248.5
915.8151	1816.3664	3136.8	2247.1
915.9553	1818.0369	3130.4	2240.1
916.0954	1819.7067	3105.2	2218.65
916.2355	1821.3757	3108.5	2219.95
916.3755	1823.044	3106.55	2220.15
916.5156	1824.7115	3096.2	2208.95
916.6556	1826.3783	3089.1	2203.6
916.7956	1828.0443	3084.45	2201.35
916.9356	1829.7096	3084.15	2196.9
917.0756	1831.3741	3089.15	2198.9
917.2155	1833.0379	3070.35	2185.85
917.3555	1834.701	3057	2170.05
917.4954	1836.3633	3055.15	2169.85
917.6353	1838.0248	3057.8	2171.4
917.7751	1839.6856	3045.2	2159.45
917.915	1841.3457	3043.15	2156.05
918.0548	1843.005	3043.65	2155.15
918.1946	1844.6636	3040.75	2155
918.3344	1846.3214	3024.9	2138.55
918.4742	1847.9785	3030.6	2144.8
918.6139	1849.6349	3018.45	2130.2
918.7537	1851.2904	3021.5	2124.05
918.8934	1852.9453	3008.65	2120.6
919.0331	1854.5994	2997.3	2109
919.1727	1856.2528	3000.2	2108.05
919.3124	1857.9054	3001.7	2114.4
919.452	1859.5572	2998.15	2111.5
919.5916	1861.2083	2978.2	2090.65
919.7312	1862.8587	2993.95	2105.4
919.8708	1864.5084	2990.95	2102.15
920.0103	1866.1572	2976.8	2088.95
920.1498	1867.8054	2968.25	2079.05
920.2893	1869.4528	2962.7	2072.75
920.4288	1871.0994	2941.5	2052.35
920.5683	1872.7453	2946.4	2058.75
920.7077	1874.3905	2947.75	2052.7
920.8471	1876.0349	2938.3	2049.65
920.9865	1877.6786	2934.2	2044.5
921.1259	1879.3215	2933.35	2046.05
921.2653	1880.9637	2930.3	2042.85
921.4046	1882.6051	2913.5	2026.1
921.5439	1884.2458	2914.65	2026.8
921.6832	1885.8858	2908.25	2019.05
921.8225	1887.525	2891.65	2005.1
921.9617	1889.1634	2892.6	2004.6
922.101	1890.8011	2903.1	2013.2
922.2402	1892.4381	2886.7	1999.5
922.3794	1894.0743	2894.85	2008.95
922.5185	1895.7098	2883.8	1993.5
922.6577	1897.3446	2878.9	1990.8
922.7968	1898.9786	2870.15	1978.1
922.9359	1900.6118	2860.9	1973.1
923.075	1902.2443	2873.75	1985.95
923.214	1903.8761	2845.95	1959.35
923.3531	1905.5071	2842.25	1953.5
923.4921	1907.1374	2827.95	1941.05
923.6311	1908.7669	2821.85	1936.3
923.77	1910.3957	2826.45	1939.1
923.909	1912.0237	2830.7	1946.1
924.0479	1913.651	2826.1	1936.85
924.1868	1915.2776	2818.3	1933.1
924.3257	1916.9034	2814.25	1929.05
924.4646	1918.5285	2803.7	1919.65
924.6034	1920.1528	2796.9	1912.75
924.7422	1921.7764	2787.45	1901.8
924.881	1923.3992	2789.8	1904.25
925.0198	1925.0213	2767.05	1880.15
925.1586	1926.6427	2757.15	1872.25
925.2973	1928.2633	2965.75	1828.8
925.436	1929.8832	2797.05	1904.25
925.5747	1931.5023	2769.95	1882.6
925.7134	1933.1207	2752.9	1865.95
925.852	1934.7383	2742.7	1856.9
925.9906	1936.3552	2727.6	1845.55
926.1292	1937.9714	2736.15	1849.5
926.2678	1939.5868	2727.2	1838.75
926.4064	1941.2015	2721.95	1836
926.5449	1942.8154	2710.4	1823.8
926.6834	1944.4286	2709.6	1821.1
926.8219	1946.041	2709.85	1803.5
926.9604	1947.6528	2686.05	1795.5
927.0988	1949.2637	2682.85	1797.35
927.2372	1950.8739	2677.65	1791.3
927.3756	1952.4834	2670.5	1783.2
927.514	1954.0921	2673.8	1786.75
927.6523	1955.7001	2667.85	1779.15
927.7907	1957.3074	2669.8	1784.25
927.929	1958.9139	2654.75	1771.05
928.0673	1960.5197	2648.25	1759.6
928.2055	1962.1247	2637.95	1752.1
928.3438	1963.729	2640.1	1756
928.482	1965.3325	2651.95	1745.55
928.6202	1966.9353	2621.5	1738.4
928.7584	1968.5374	2621.1	1736.15
928.8965	1970.1387	2614.9	1729.7
929.0346	1971.7393	2603.65	1718.05
929.1727	1973.3392	2603.1	1718.5
929.3108	1974.9383	2601.5	1717.35
929.4489	1976.5366	2590.1	1706.6
929.5869	1978.1342	2596.35	1713.65
929.7249	1979.7311	2586.25	1701.65
929.8629	1981.3273	2583.3	1698.35
930.0009	1982.9227	2580.65	1697.1
930.1388	1984.5173	2565.5	1683.4
930.2767	1986.1112	2565	1681.3
930.4146	1987.7044	2562.95	1679.45
930.5525	1989.2968	2566.25	1680.85
930.6904	1990.8885	2569.6	1683.1
930.8282	1992.4795	2545.05	1662
930.966	1994.0697	2535.5	1655.8
931.1038	1995.6592	2536.7	1653
931.2415	1997.2479	2536.75	1653.85
931.3793	1998.8359	2535.75	1652.35
931.517	2000.4232	2519.05	1638.1
931.6547	2002.0097	2516.35	1636.2
931.7923	2003.5955	2518.2	1635.3
931.93	2005.1805	2510.6	1626.2
932.0676	2006.7648	2514.55	1633.1
932.2052	2008.3484	2513.65	1627.6
932.3427	2009.9312	2508.95	1627.4
932.4803	2011.5133	2508.35	1629.8
932.6178	2013.0946	2509.45	1627
932.7553	2014.6752	2496.55	1614.2
932.8928	2016.2551	2497.85	1613.35
933.0302	2017.8342	2486.65	1605.1
933.1676	2019.4126	2471.9	1591.15
933.305	2020.9902	2474.65	1594.3
933.4424	2022.5672	2468.1	1584
933.5798	2024.1433	2475.85	1588.55
933.7171	2025.7188	2459	1580.3
933.8544	2027.2935	2467.35	1586.85
933.9917	2028.8674	2459.75	1580.35
934.129	2030.4406	2461.8	1582.45
934.2662	2032.0131	2446.1	1565.6
934.4034	2033.5849	2446.45	1560.55
934.5406	2035.1559	2440.45	1561.2
934.6778	2036.7261	2433	1551
934.8149	2038.2957	2431.05	1550.4
934.952	2039.8645	2435.35	1552.95
935.0891	2041.4325	2447.15	1561.75
935.2262	2042.9998	2427.8	1546.1
935.3632	2044.5664	2427.2	1543.1
935.5002	2046.1323	2423.85	1544.2
935.6372	2047.6974	2417.9	1536.85
935.7742	2049.2617	2425.1	1544.8
935.9111	2050.8254	2421.4	1534.45
936.048	2052.3883	2420.45	1537.55
936.1849	2053.9504	2402.1	1519.35
936.3218	2055.5118	2407.85	1525.8
936.4586	2057.0725	2398.75	1513.45
936.5955	2058.6325	2403.9	1522.5
936.7323	2060.1917	2398.2	1518
936.869	2061.7502	2401.4	1515.8
937.0058	2063.3079	2389.3	1508.75
937.1425	2064.8649	2387.25	1502.1
937.2792	2066.4212	2387.25	1503.7
937.4159	2067.9767	2378.95	1497.15
937.5525	2069.5315	2374.65	1491.6
937.6891	2071.0856	2369.3	1488
937.8257	2072.6389	2365.1	1483.3
937.9623	2074.1915	2351.7	1473.45
938.0989	2075.7433	2346.05	1462.25
938.2354	2077.2945	2349.4	1468.25
938.3719	2078.8448	2353.15	1469.6
938.5084	2080.3945	2349.05	1466.4
938.6448	2081.9434	2354.8	1474.5
938.7812	2083.4916	2342.6	1457.9
938.9176	2085.039	2342.7	1457.45
939.054	2086.5857	2342.85	1458.3
939.1903	2088.1317	2334.15	1450.2
939.3267	2089.677	2338.5	1455.45
939.463	2091.2215	2322.2	1439.3
939.5992	2092.7652	2323.75	1437.65
939.7355	2094.3083	2327.75	1442.1
939.8717	2095.8506	2312.5	1429.35
940.0079	2097.3921	2313.5	1432.45
940.1441	2098.933	2316.35	1432.8
940.2802	2100.4731	2304.8	1422.4
940.4163	2102.0124	2326.5	1426.45
940.5524	2103.5511	2306.95	1424.2
940.6885	2105.089	2313.9	1430.5
940.8245	2106.6261	2306.1	1423.4
940.9606	2108.1626	2303.9	1419.05
941.0965	2109.6983	2327.75	1416.75
941.2325	2111.2332	2296.6	1413.8
941.3684	2112.7675	2298.6	1414.55
941.5044	2114.301	2288.95	1405.4
941.6403	2115.8337	2293.4	1410.7
941.7761	2117.3657	2282.95	1400.15
941.912	2118.897	2289.2	1402.9
942.0478	2120.4276	2283.1	1394.75
942.1835	2121.9575	2278.85	1393.2
942.3193	2123.4866	2295.15	1397.75
942.455	2125.0149	2283.55	1396.85
942.5907	2126.5426	2261.45	1380.8
942.7264	2128.0695	2267.4	1380.25
942.8621	2129.5956	2260.05	1380.2
942.9977	2131.1211	2267.35	1381.3
943.1333	2132.6458	2263.95	1381.45
943.2689	2134.1698	2255.1	1372.55
943.4044	2135.693	2253	1368.75
943.54	2137.2155	2257.2	1371.65
943.6755	2138.7373	2249.55	1368.35
943.8109	2140.2584	2245.4	1362.2
943.9464	2141.7787	2238.65	1353.45
944.0818	2143.2983	2225.25	1347.8
944.2172	2144.8171	2227.75	1347.05
944.3526	2146.3353	2225.9	1342.25
944.4879	2147.8527	2225.85	1344.75
944.6232	2149.3693	2227.95	1345.05
944.7585	2150.8853	2225.4	1340.15
944.8938	2152.4005	2211.55	1329.6
945.029	2153.9149	2219.2	1334.7
945.1642	2155.4287	2207	1323.7
945.2994	2156.9417	2203.65	1318.45
945.4346	2158.454	2194.95	1310.5
945.5697	2159.9655	2194.5	1312.95
945.7048	2161.4764	2185.65	1304.35
945.8399	2162.9865	2181.6	1298.4
945.9749	2164.4958	2188.55	1307.5
946.1099	2166.0045	2181.05	1296.7
946.2449	2167.5124	2170.7	1288.9
946.3799	2169.0195	2177.8	1295.9
946.5148	2170.526	2175.1	1291.9
946.6498	2172.0317	2173.55	1289.1
946.7846	2173.5367	2161.25	1277.7
946.9195	2175.0409	2161.7	1279.9
947.0543	2176.5445	2168.3	1287.1
947.1891	2178.0473	2154.95	1271.85
947.3239	2179.5494	2170.75	1283.7
947.4587	2181.0507	2159.75	1275.3
947.5934	2182.5513	2149.45	1266.05
947.7281	2184.0512	2154.9	1272
947.8628	2185.5504	2145	1262.3
947.9974	2187.0488	2133.45	1250.65
948.132	2188.5465	2134.15	1253.25
948.2666	2190.0435	2131.55	1248.55
948.4012	2191.5397	2125.8	1244.9
948.5357	2193.0353	2127.75	1243.95
948.6702	2194.5301	2121.75	1237.7
948.8047	2196.0241	2113.25	1230.65
948.9392	2197.5175	2119.2	1235.85
949.0736	2199.0101	2113.1	1224.4
949.208	2200.502	2100.8	1221.25
949.3424	2201.9931	2093.45	1209.45
949.4767	2203.4835	2096.15	1213.8
949.611	2204.9733	2096.3	1206.1
949.7453	2206.4622	2090.75	1208.4
949.8796	2207.9505	2089.5	1207.9
950.0138	2209.438	2082.65	1204.05
950.148	2210.9248	2075.15	1191.25
950.2822	2212.4109	2071.85	1190.8
950.4164	2213.8962	2065.55	1180
950.5505	2215.3809	2071.8	1188.2
950.6846	2216.8648	2069.25	1183.95
950.8186	2218.3479	2062.95	1173.75
950.9527	2219.8304	2059.45	1171.6
951.0867	2221.3121	2055.95	1167.55
951.2207	2222.7931	2042.35	1158.45
951.3546	2224.2733	2052.6	1167.75
951.4886	2225.7529	2034.9	1152.85
951.6225	2227.2317	2034.3	1148.5
951.7563	2228.7098	2040.85	1159.65
951.8902	2230.1872	2027.45	1146
952.024	2231.6638	2026.65	1146.45
952.1578	2233.1397	2025.85	1139.95
952.2916	2234.6149	2015.9	1133.45
952.4253	2236.0894	2019.65	1136.45
952.559	2237.5632	2026.75	1133.95
952.6927	2239.0362	2009.35	1126.7
952.8263	2240.5085	2005.15	1123.7
952.9599	2241.9801	2002	1118.15
953.0935	2243.4509	2009.55	1125.55
953.2271	2244.921	1999.9	1115.3
953.3606	2246.3904	1999.7	1113.55
953.4941	2247.8591	1987.55	1106.7
953.6276	2249.3271	1984.25	1102.3
953.7611	2250.7943	1987.45	1102.3
953.8945	2252.2608	1979	1095
954.0279	2253.7266	1978.55	1094.8
954.1612	2255.1917	1974.75	1091.4
954.2946	2256.656	1968.95	1085.25
954.4279	2258.1197	1956.9	1073.1
954.5612	2259.5826	1959.2	1076.1
954.6944	2261.0447	1957.85	1073.2
954.8276	2262.5062	1960.4	1074
954.9608	2263.9669	1945.55	1063
955.094	2265.4269	1961.75	1077.25
955.2271	2266.8862	1946.3	1063.6
955.3602	2268.3448	1938.75	1056.35
955.4933	2269.8026	1939.65	1055.1
955.6264	2271.2598	1940.35	1058.35
955.7594	2272.7162	1935.55	1054.55
955.8924	2274.1719	1928.55	1044.75
956.0253	2275.6268	1927.55	1044.05
956.1583	2277.0811	1936.25	1054.15
956.2912	2278.5346	1925.5	1042.8
956.4241	2279.9874	1926.35	1043.45
956.5569	2281.4395	1920.75	1040.1
956.6897	2282.8908	1913.9	1023.45
956.8225	2284.3414	1919.45	1037.95
956.9553	2285.7914	1909.4	1027
957.088	2287.2406	1913.4	1028
957.2207	2288.689	1905.75	1022.6
957.3534	2290.1368	1907.6	1021.15
957.486	2291.5838	1900.55	1012.35
957.6186	2293.0302	1889.4	1002.95
957.7512	2294.4758	1884.3	1000.35
957.8838	2295.9206	1886.4	997.4
958.0163	2297.3648	1884.7	1002.05
958.1488	2298.8082	1887.7	1004.1
958.2813	2300.251	1883.4	1000.85
958.4137	2301.693	1877.2	990.5
958.5461	2303.1343	1875	990.1
958.6785	2304.5748	1860.6	977.75
958.8108	2306.0147	1859.95	975.05
958.9432	2307.4538	1865.4	980.6
959.0754	2308.8922	1859.3	979.05
959.2077	2310.3299	1857.9	977.2
959.3399	2311.7669	1852.6	970.75
959.4721	2313.2031	1856.75	972.9
959.6043	2314.6387	1846.3	964.75
959.7365	2316.0735	1849.3	963.95
959.8686	2317.5076	1841.85	959.5
960.0006	2318.941	1848.3	964.75
960.1327	2320.3737	1845.6	960.65
960.2647	2321.8056	1839.05	952.3
960.3967	2323.2369	1823.65	938.1
960.5287	2324.6674	1835.7	950.1
960.6606	2326.0972	1833.4	947.4
960.7925	2327.5263	1829.25	944.55
960.9244	2328.9547	1830.1	945.5
961.0562	2330.3823	1824.5	939.6
961.1881	2331.8092	1823.05	934.55
961.3198	2333.2355	1809.75	926.05
961.4516	2334.661	1813.45	929.45
961.5833	2336.0858	1812.45	926.4
961.715	2337.5098	1802.9	918.05
961.8467	2338.9332	1803.05	918.75
961.9783	2340.3558	1791.7	905.3
962.1099	2341.7778	1790.75	905.7
962.2415	2343.199	1799.3	915.35
962.373	2344.6195	1784.25	899.6
962.5045	2346.0393	1778.75	895.45
962.636	2347.4583	1784.6	900.55
962.7675	2348.8767	1780.55	894
962.8989	2350.2943	1780.1	896.35
963.0303	2351.7113	1772.95	884.1
963.1617	2353.1275	1775.8	890.65
963.293	2354.543	1783	887.05
963.4243	2355.9578	1772.75	886.9
963.5556	2357.3718	1757.95	874.6
963.6868	2358.7852	1753.2	865.2
963.818	2360.1978	1756.05	871.2
963.9492	2361.6098	1749	866.95
964.0803	2363.021	1752.2	862.6
964.2114	2364.4315	1744.1	858.65
964.3425	2365.8413	1736.4	849.3
964.4736	2367.2504	1733.55	849.35
964.6046	2368.6587	1728.1	844.65
964.7356	2370.0664	1725	843
964.8666	2371.4733	1723.25	838.65
964.9975	2372.8795	1729.3	842.95
965.1284	2374.285	1721.55	836.6
965.2593	2375.6899	1716.45	831.05
965.3901	2377.0939	1705.8	819.45
965.5209	2378.4973	1708.7	823.9
965.6517	2379.9	1709.2	824.75
965.7825	2381.3019	1690.65	806.45
965.9132	2382.7032	1696.05	814.6
966.0439	2384.1037	1694.25	811.75
966.1745	2385.5035	1691.7	809.15
966.3051	2386.9027	1688	805.55
966.4357	2388.3011	1696.85	812.75
966.5663	2389.6987	1686.5	803
966.6968	2391.0957	1671.25	786.65
966.8273	2392.492	1676.95	792.35
966.9578	2393.8876	1672.65	789.95
967.0882	2395.2824	1665.5	779.45
967.2186	2396.6765	1665.95	783.35
967.349	2398.07	1658.15	770.4
967.4793	2399.4627	1664.15	777.15
967.6097	2400.8547	1656.75	769.7
967.7399	2402.246	1654.7	762.45
967.8702	2403.6366	1643.8	755.8
968.0004	2405.0265	1635	750.35
968.1306	2406.4156	1647.7	758.7
968.2607	2407.8041	1644.05	756.4
968.3909	2409.1918	1643.15	758.3
968.521	2410.5789	1637.8	752.55
968.651	2411.9652	1633.3	744.8
968.781	2413.3508	1623.8	739.5
968.911	2414.7358	1624.2	737.65
969.041	2416.12	1617.7	732.1
969.1709	2417.5035	1621.7	737.1
969.3008	2418.8863	1617.4	730.8
969.4307	2420.2684	1609.1	723.25
969.5606	2421.6497	1611.3	723.85
969.6904	2423.0304	1593.75	707.3
969.8201	2424.4104	1607	722.15
969.9499	2425.7896	1596.2	709.45
970.0796	2427.1682	1596.8	710.65
970.2093	2428.546	1592.15	706.2
970.3389	2429.9232	1600.3	712.65
970.4685	2431.2996	1602.15	717.7
970.5981	2432.6753	1590.85	703.75
970.7277	2434.0503	1591.5	706.2
970.8572	2435.4246	1588.15	703.95
970.9867	2436.7982	1587.65	699.4
971.1161	2438.1711	1581.85	697.75
971.2456	2439.5433	1584.6	697.35
971.375	2440.9148	1585.45	693.6
971.5043	2442.2856	1572.05	686.2
971.6336	2443.6557	1572.8	685.85
971.7629	2445.025	1570.65	686.55
971.8922	2446.3937	1569.55	682.8
972.0214	2447.7617	1570.95	683.1
972.1506	2449.1289	1562.5	679.7
972.2798	2450.4955	1560.75	671.3
972.4089	2451.8613	1560.45	676.1
972.538	2453.2265	1565.35	680.8
972.6671	2454.5909	1554.9	667.7
972.7961	2455.9546	1553.25	668.35
972.9251	2457.3177	1547.6	664.65
973.0541	2458.68	1557.8	671.3
973.1831	2460.0416	1549.85	666.05
973.312	2461.4025	1548.55	660.95
973.4408	2462.7627	1554.25	661.25
973.5697	2464.1222	1545.65	661.9
973.6985	2465.4811	1539.7	655
973.8273	2466.8392	1533.1	649.7
973.956	2468.1966	1537.6	649.5
974.0847	2469.5533	1540.7	653.35
974.2134	2470.9093	1535.25	648.15
974.3421	2472.2645	1533.9	646.65
974.4707	2473.6191	1526.8	644.15
974.5993	2474.973	1527.6	640.45
974.7278	2476.3262	1525	638.35
974.8563	2477.6787	1522.1	638.35
974.9848	2479.0305	1514.4	628.85
975.1132	2480.3816	1522.35	636.85
975.2417	2481.7319	1504.45	619
975.37	2483.0816	1512.55	627.6
975.4984	2484.4306	1503.25	618.65
975.6267	2485.7789	1498.95	615.85
975.755	2487.1264	1501.95	615.85
975.8833	2488.4733	1509.45	625.65
976.0115	2489.8195	1506.8	615.6
976.1397	2491.165	1495.35	608.2
976.2678	2492.5097	1496.65	609.5
976.3959	2493.8538	1493.35	609.45
976.524	2495.1972	1490.25	605.35
976.6521	2496.5398	1489.35	603
976.7801	2497.8818	1483.1	596.35
976.9081	2499.2231	1480.15	593.95
977.036	2500.5637	1484.4	596.3
977.164	2501.9035	1484.4	598
977.2918	2503.2427	1477.35	587.35
977.4197	2504.5812	1470.3	584.9
977.5475	2505.919	1476.95	587.85
977.6753	2507.256	1472.55	590.2
977.8031	2508.5924	1463.55	578.9
977.9308	2509.9281	1470.45	580.25
978.0585	2511.2631	1465.6	581.3
978.1861	2512.5974	1463	576.55
978.3137	2513.9309	1463.45	578.4
978.4413	2515.2638	1486.6	570.85
978.5689	2516.596	1461.3	574.9
978.6964	2517.9275	1449.65	565.55
978.8239	2519.2583	1452.75	567.7
978.9513	2520.5884	1457.65	571.4
979.0788	2521.9178	1444.7	559.2
979.2062	2523.2465	1440.85	557.9
979.3335	2524.5745	1434.65	550.8
979.4608	2525.9018	1442.4	557.75
979.5881	2527.2284	1436.1	554.05
979.7154	2528.5543	1431.25	546.3
979.8426	2529.8796	1433.1	547.35
979.9698	2531.2041	1435.2	551.45
980.0969	2532.5279	1438.8	554.75
980.224	2533.851	1425.75	541.95
980.3511	2535.1735	1430.6	544.8
980.4781	2536.4952	1423.05	537.7
980.6052	2537.8163	1424.9	540.55
980.7321	2539.1366	1424.05	537.85
980.8591	2540.4562	1422	535.1
980.986	2541.7752	1424.1	539.65
981.1129	2543.0935	1413.4	526.75
981.2397	2544.411	1417.6	532.1
981.3665	2545.7279	1418.45	533.45
981.4933	2547.0441	1418.45	531.7
981.62	2548.3596	1420.4	533.8
981.7467	2549.6744	1419.15	533.9
981.8734	2550.9885	1420.05	527.8
982.0001	2552.3019	1409.4	524.25
982.1267	2553.6146	1403.6	517.5
982.2532	2554.9266	1404.15	519.15
982.3798	2556.2379	1406.05	519.65
982.5063	2557.5485	1394.15	512.2
982.6327	2558.8585	1406.45	513.95
982.7592	2560.1677	1403.05	514.05
982.8856	2561.4762	1397.45	512.7
983.0119	2562.7841	1393.65	503.6
983.1383	2564.0913	1396.7	510.8
983.2646	2565.3977	1394.15	510.25
983.3908	2566.7035	1390.2	504.15
983.517	2568.0086	1391.4	505.1
983.6432	2569.313	1391.8	504.7
983.7694	2570.6167	1392.9	503.8
983.8955	2571.9197	1393.05	509.45
984.0216	2573.222	1391.2	503.6
984.1476	2574.5236	1383.95	499.35
984.2737	2575.8246	1386.05	499
984.3996	2577.1248	1383.9	495.95
984.5256	2578.4244	1380.6	494.95
984.6515	2579.7232	1374.25	490.2
984.7774	2581.0214	1402.4	492.75
984.9032	2582.3189	1379.35	493.35
985.029	2583.6157	1385.9	496.6
985.1548	2584.9118	1365.7	479.95
985.2806	2586.2072	1378.4	493.6
985.4063	2587.5019	1370.15	486.6
985.5319	2588.7959	1369	482
985.6576	2590.0893	1373	488.55
985.7832	2591.3819	1362.6	477.95
985.9087	2592.6739	1364.4	478.65
986.0343	2593.9652	1359.9	471.25
986.1597	2595.2557	1360.05	477.15
986.2852	2596.5456	1358.8	470.9
986.4106	2597.8348	1355.15	471
986.536	2599.1234	1350.15	465.5
986.6614	2600.4112	1356.7	470.55
986.7867	2601.6983	1352.95	464.6
986.912	2602.9848	1352.85	467
987.0372	2604.2705	1348.2	457.1
987.1624	2605.5556	1342.65	457.15
987.2876	2606.84	1339.95	455.7
987.4128	2608.1237	1343.5	455.85
987.5379	2609.4067	1342.65	457.25
987.6629	2610.689	1345.3	452.25
987.788	2611.9707	1338.3	449.4
987.913	2613.2516	1332.7	443.45
988.0379	2614.5319	1325.15	439.25
988.1629	2615.8115	1322.9	435.65
988.2878	2617.0903	1320.65	433.85
988.4126	2618.3685	1320.95	436.05
988.5375	2619.6461	1320.5	434.8
988.6622	2620.9229	1323.75	440.25
988.787	2622.199	1320.9	434.65
988.9117	2623.4745	1315.4	432.5
989.0364	2624.7493	1316.75	432.6
989.161	2626.0234	1308.65	425.6
989.2857	2627.2968	1314.25	429.3
989.4102	2628.5695	1307.1	421.4
989.5348	2629.8415	1299.55	416.1
989.6593	2631.1128	1300.25	414.25
989.7837	2632.3835	1303.15	418.5
989.9082	2633.6535	1300.05	416.1
990.0326	2634.9228	1294.65	411.4
990.1569	2636.1914	1294.3	410.25
990.2812	2637.4593	1304.5	414.35
990.4055	2638.7265	1292.15	408.05
990.5298	2639.9931	1290.9	405.35
990.654	2641.259	1289.05	402.4
990.7782	2642.5242	1285.45	400.4
990.9023	2643.7887	1293.7	410.9
991.0264	2645.0525	1291.4	408.3
991.1505	2646.3156	1282.1	397.6
991.2745	2647.5781	1283.85	401.6
991.3985	2648.8398	1282.1	398.6
991.5225	2650.1009	1288.35	395.35
991.6464	2651.3613	1276.8	389.65
991.7703	2652.6211	1272.55	387.2
991.8942	2653.8801	1274.45	390.65
992.018	2655.1385	1276.7	389.45
992.1418	2656.3961	1271.7	386.95
992.2655	2657.6531	1271.1	387.1
992.3892	2658.9094	1267.9	381.9
992.5129	2660.1651	1270.2	384.55
992.6366	2661.42	1267.1	382.85
992.7602	2662.6743	1272.65	386.8
992.8837	2663.9279	1264.5	380.7
993.0073	2665.1808	1268	382.7
993.1307	2666.433	1265.8	379.75
993.2542	2667.6846	1257.45	374.7
993.3776	2668.9354	1263.3	374.8
993.501	2670.1856	1259.45	376.1
993.6244	2671.4351	1258.8	376.6
993.7477	2672.6839	1260.05	373.5
993.8709	2673.9321	1254.65	369.65
993.9942	2675.1795	1256.05	372.25
994.1174	2676.4263	1250.5	367
994.2405	2677.6724	1253.4	369.4
994.3637	2678.9179	1253.55	368.85
994.4868	2680.1626	1248.4	364.85
994.6098	2681.4067	1249.45	365.85
994.7328	2682.6501	1243.75	359.45
994.8558	2683.8928	1242.05	356.75
994.9788	2685.1348	1242.2	357.35
995.1017	2686.3761	1235.65	352.2
995.2245	2687.6168	1243.35	361
995.3474	2688.8568	1239.15	355.5
995.4702	2690.0961	1234.8	353.1
995.5929	2691.3348	1233.75	348.75
995.7156	2692.5727	1234.2	349.5
995.8383	2693.81	1236.95	352.9
995.961	2695.0466	1230.05	347.6
996.0836	2696.2826	1233.85	349.05
996.2062	2697.5178	1236.25	348.5
996.3287	2698.7524	1230.4	345.8
996.4512	2699.9863	1225.4	339.7
996.5737	2701.2195	1222.35	339.1
996.6961	2702.452	1224	339.4
996.8185	2703.6839	1227.9	341.95
996.9408	2704.9151	1222.85	339.3
997.0631	2706.1456	1219.55	333.45
997.1854	2707.3755	1226.4	344.1
997.3077	2708.6046	1219.1	332.9
997.4299	2709.8331	1216.25	330.9
997.552	2711.0609	1212.75	328.4
997.6742	2712.2881	1211.7	328.4
997.7963	2713.5145	1212.25	325.25
997.9183	2714.7403	1214.35	331.8
998.0403	2715.9654	1215.35	330.1
998.1623	2717.1899	1220.7	321.1
998.2842	2718.4136	1210.05	327.9
998.4062	2719.6367	1208.1	324.85
998.528	2720.8591	1212.3	322.5
998.6498	2722.0809	1202.5	317.8
998.7716	2723.3019	1207.2	320.4
998.8934	2724.5223	1202.25	317.75
999.0151	2725.7421	1204.85	319.4
999.1368	2726.9611	1197.35	313.05
999.2584	2728.1795	1205.6	316.9
999.38	2729.3972	1189.65	308
999.5016	2730.6142	1203.6	309.15
999.6231	2731.8306	1189.95	303.55
999.7446	2733.0462	1196.35	310.75
999.8661	2734.2612	1200.7	309.5
999.9875	2735.4756	1190.95	305.2
1000.1089	2736.6892	1191.55	306.25
1000.2302	2737.9022	1186.4	303
1000.3515	2739.1145	1184.8	301.8
1000.4728	2740.3262	1191.6	300.45
1000.594	2741.5372	1180.9	297.3
1000.7152	2742.7475	1175.95	293.75
1000.8363	2743.9571	1179.05	295.1
1000.9575	2745.1661	1180.45	291.25
1001.0785	2746.3744	1177.3	292.85
1001.1996	2747.582	1169.55	287.05
1001.3206	2748.7889	1173.7	288.55
1001.4415	2749.9952	1173.4	289.9
1001.5625	2751.2008	1170.8	286.25
1001.6833	2752.4057	1165.4	282.35
1001.8042	2753.61	1165.5	281.4
1001.925	2754.8136	1170.7	286.45
1002.0458	2756.0165	1169.05	285.95
1002.1665	2757.2188	1161.75	279.55
1002.2872	2758.4204	1158.5	275.2
1002.4078	2759.6213	1160.3	276.3
1002.5285	2760.8215	1165.75	280.05
1002.649	2762.0211	1163.5	278.3
1002.7696	2763.22	1169.5	283.7
1002.8901	2764.4182	1161.95	277.85
1003.0106	2765.6158	1158.3	276
1003.131	2766.8127	1152.3	269.55
1003.2514	2768.009	1149.95	267
1003.3717	2769.2045	1151.25	267.75
1003.492	2770.3994	1153.15	268.35
1003.6123	2771.5936	1157.9	274.3
1003.7325	2772.7872	1148.6	265.55
1003.8527	2773.9801	1147.6	263.3
1003.9729	2775.1723	1163.75	265.8
1004.093	2776.3639	1142.15	259.45
1004.2131	2777.5548	1144.25	256.6
1004.3331	2778.745	1147.55	264.05
1004.4531	2779.9346	1139.95	256.3
1004.5731	2781.1235	1144.3	260.25
1004.693	2782.3117	1136.4	254.85
1004.8129	2783.4992	1141.25	260
1004.9328	2784.6861	1138.35	257.45
1005.0526	2785.8723	1133.85	250.1
1005.1723	2787.0579	1139.25	255.65
1005.2921	2788.2428	1134.65	252.2
1005.4118	2789.427	1132.05	250.6
1005.5314	2790.6106	1137.95	254.75
1005.651	2791.7935	1131.25	248.2
1005.7706	2792.9757	1132.65	251.7
1005.8902	2794.1573	1131.8	245.85
1006.0097	2795.3382	1129.55	246.9
1006.1291	2796.5184	1130.5	247.6
1006.2485	2797.698	1135.7	251.05
1006.3679	2798.8769	1125.4	242.45
1006.4873	2800.0551	1124.65	242
1006.6066	2801.2327	1128.15	241.95
1006.7258	2802.4096	1124.85	242.85
1006.8451	2803.5859	1119.15	236.5
1006.9642	2804.7615	1120	234.75
1007.0834	2805.9364	1123.65	243.1
1007.2025	2807.1106	1120.15	237.65
1007.3216	2808.2842	1118.45	233.85
1007.4406	2809.4572	1119.1	236.25
1007.5596	2810.6294	1118.75	235.3
1007.6785	2811.801	1115.8	233.85
1007.7975	2812.972	1116.25	234.75
1007.9163	2814.1423	1120.15	237.7
1008.0352	2815.3119	1117.1	234.6
1008.154	2816.4808	1116.75	235.05
1008.2727	2817.6491	1119.2	236.05
1008.3914	2818.8167	1120.45	240.2
1008.5101	2819.9837	1121.75	233.55
1008.6288	2821.15	1120.75	238.45
1008.7474	2822.3157	1126.5	244.55
1008.8659	2823.4807	1125.85	242.45
1008.9844	2824.645	1131.7	247.25
1009.1029	2825.8086	1132.05	251.85
1009.2214	2826.9716	1134.95	253.3
1009.3398	2828.134	1142.9	262.5
1009.4581	2829.2957	1143.8	260.75
1009.5764	2830.4567	1137.65	256.8
1009.6947	2831.617	1149.65	266.9
1009.813	2832.7767	1148.15	265.75
1009.9312	2833.9358	1149.2	268
1010.0493	2835.0941	1143.4	260.65
1010.1675	2836.2519	1141.25	259.9
1010.2855	2837.4089	1136.45	252.1
1010.4036	2838.5653	1139.1	258.75
1010.5216	2839.7211	1137.35	255.35
1010.6396	2840.8761	1134.6	248.05
1010.7575	2842.0306	1130.5	251.55
1010.8754	2843.1843	1132	248.85
1010.9932	2844.3374	1133.8	251.85
1011.111	2845.4899	1130.7	248.55
1011.2288	2846.6417	1130.35	249.35
1011.3465	2847.7928	1128.7	247.1
1011.4642	2848.9433	1133.25	250.1
1011.5818	2850.0931	1135.2	253.45
1011.6995	2851.2422	1136.85	252.05
1011.817	2852.3907	1136.2	252.85
1011.9345	2853.5385	1134.75	251.45
1012.052	2854.6857	1136.4	244.05
1012.1695	2855.8323	1135.35	254.25
1012.2869	2856.9781	1127.3	244.2
1012.4042	2858.1233	1132.7	252.6
1012.5216	2859.2679	1139.05	258.5
1012.6389	2860.4118	1135.9	251.9
1012.7561	2861.555	1137.25	247.55
1012.8733	2862.6976	1139.85	256.65
1012.9905	2863.8395	1140.15	258.2
1013.1076	2864.9808	1134.85	251.85
1013.2247	2866.1214	1134.95	252.95
1013.3417	2867.2614	1136.55	253.7
1013.4587	2868.4007	1138.75	257.5
1013.5757	2869.5393	1141.8	256.1
1013.6926	2870.6773	1143.15	259.85
1013.8095	2871.8146	1140.65	257.7
1013.9263	2872.9513	1142.9	259.6
1014.0431	2874.0874	1134.95	254.4
1014.1599	2875.2227	1137	253.95
1014.2766	2876.3574	1136.9	253.65
1014.3933	2877.4915	1137.85	254.6
1014.51	2878.6249	1138.85	257.8
1014.6266	2879.7577	1139.65	257.6
1014.7431	2880.8898	1150.1	258.6
1014.8596	2882.0212	1134.8	255.9
1014.9761	2883.152	1142.25	260.3
1015.0925	2884.2821	1136.25	253.75
1015.2089	2885.4116	1133.55	253.15
1015.3253	2886.5405	1139.35	255.2
1015.4416	2887.6686	1142.65	256.8
1015.5579	2888.7962	1136.1	255.2
1015.6741	2889.923	1131.55	250.9
1015.7903	2891.0493	1130.35	249
1015.9065	2892.1748	1134.45	252.05
1016.0226	2893.2997	1129	246.95
1016.1387	2894.424	1133	253.7
1016.2547	2895.5476	1135.2	251.8
1016.3707	2896.6706	1132.35	253.7
1016.4866	2897.7929	1130.85	247.85
1016.6025	2898.9145	1128.25	246.15
1016.7184	2900.0355	1129.65	249.15
1016.8342	2901.1559	1133.6	252.05
1016.95	2902.2756	1125.6	247.05
1017.0658	2903.3946	1131	249.4
1017.1815	2904.513	1132.45	249.1
1017.2971	2905.6308	1123.6	243.25
1017.4127	2906.7479	1127.4	242.45
1017.5283	2907.8643	1125.75	243.55
1017.6439	2908.9801	1124.95	246.05
1017.7594	2910.0953	1121.25	238.55
1017.8748	2911.2098	1125.8	242.95
1017.9902	2912.3236	1132.85	241.15
1018.1056	2913.4368	1120.35	237.5
1018.2209	2914.5494	1118.75	237.65
1018.3362	2915.6613	1122.5	234.55
1018.4515	2916.7725	1123.05	238.8
1018.5667	2917.8831	1120.2	238.05
1018.6819	2918.9931	1113.85	230.9
1018.797	2920.1024	1110.55	226.25
1018.9121	2921.211	1104.65	223.25
1019.0271	2922.319	1106.3	223.45
1019.1421	2923.4264	1102.55	220.45
1019.2571	2924.5331	1107.55	226
1019.372	2925.6391	1106.3	225.8
1019.4869	2926.7445	1101.25	222.4
1019.6017	2927.8493	1102.65	221.9
1019.7165	2928.9534	1101.8	220.35
1019.8313	2930.0569	1103.35	220.2
1019.946	2931.1597	1107.3	224.1
1020.0606	2932.2619	1100.3	219.9
1020.1753	2933.3634	1099.8	218.3
1020.2899	2934.4643	1114.15	226.75
1020.4044	2935.5645	1113.05	226.3
1020.5189	2936.6641	1110.85	225.45
1020.6334	2937.763	1102.2	222.45
1020.7478	2938.8613	1099.95	216.9
1020.8622	2939.959	1106.05	218.95
1020.9765	2941.056	1098.2	218.2
1021.0908	2942.1523	1096.4	214.1
1021.2051	2943.248	1087.25	206.75
1021.3193	2944.3431	1085.3	203.3
1021.4334	2945.4375	1079.8	199.95
1021.5476	2946.5313	1074.25	191.75
1021.6617	2947.6244	1069.4	186.95
1021.7757	2948.7169	1070.6	188.85
1021.8897	2949.8087	1063.55	181.5
1022.0037	2950.8999	1058.9	176.35
1022.1176	2951.9904	1058.25	178.35
1022.2315	2953.0803	1055.95	175.65
1022.3453	2954.1696	1051.5	170.6
1022.4591	2955.2582	1047.75	168.9
1022.5728	2956.3462	1051.75	169.6
1022.6865	2957.4335	1049.9	167.8
1022.8002	2958.5202	1045.6	163.45
1022.9138	2959.6062	1043.7	162.95
1023.0274	2960.6916	1043.75	164
1023.141	2961.7764	1038.4	156.55
1023.2545	2962.8605	1042.7	161.4
1023.3679	2963.9439	1042.75	161.7
1023.4813	2965.0267	1040.4	157.6
1023.5947	2966.1089	1062.4	157.4
1023.708	2967.1905	1039.7	161.3
1023.8213	2968.2714	1038.95	158.7
1023.9346	2969.3516	1038.3	157.55
1024.0478	2970.4312	1043.9	155.7
1024.1609	2971.5102	1035.55	155.75
1024.274	2972.5885	1037.1	157.85
1024.3871	2973.6662	1038.4	153.45
1024.5002	2974.7432	1035.75	154.5
1024.6132	2975.8196	1033.9	151
1024.7261	2976.8954	1030.65	150.35
1024.839	2977.9705	1033.7	150.1
1024.9519	2979.045	1032.6	153.45
1025.0647	2980.1188	1031.3	152.05
1025.1775	2981.192	1030.9	152.05
1025.2902	2982.2645	1029.4	148.2
1025.4029	2983.3364	1028.25	148.05
1025.5156	2984.4077	1024.75	143.7
1025.6282	2985.4783	1032.05	147
1025.7407	2986.5483	1024.6	145.35
1025.8532	2987.6177	1023.5	143.6
1025.9657	2988.6864	1015.75	135
1026.0782	2989.7545	1018.75	136.35
1026.1906	2990.8219	1016.2	133.75
1026.3029	2991.8887	1020.9	135.75
1026.4152	2992.9548	1013.9	133
1026.5275	2994.0204	1009.1	129.05
1026.6397	2995.0852	1009.25	129.55
1026.7519	2996.1495	1012.7	132.55
1026.864	2997.2131	1004.85	124.25
1026.9761	2998.276	1010.5	127.5
1027.0882	2999.3383	1003.75	123.05
1027.2002	3000.4	1002.9	120.6
1027.3122	3001.4611	998.35	116.75
1027.4241	3002.5215	1003.15	122.1
1027.536	3003.5812	998.55	118.1
1027.6478	3004.6404	998.15	117.6
1027.7596	3005.6989	1000.4	116.65
1027.8714	3006.7567	996.15	115.45
1027.9831	3007.8139	1020.2	116.75
1028.0947	3008.8705	993.3	112.65
1028.2064	3009.9264	1002.3	120.2
1028.3179	3010.9818	991.2	110
1028.4295	3012.0364	995.15	114.95
1028.541	3013.0905	992.55	112.45
1028.6524	3014.1439	990	108.4
1028.7638	3015.1966	991.3	113.25
1028.8752	3016.2487	992.5	113.35
1028.9865	3017.3002	994.35	105.9
1029.0978	3018.3511	986.65	107.4
1029.209	3019.4013	986.35	105.3
1029.3202	3020.4509	987.7	107.95
1029.4314	3021.4998	986.55	106.75
1029.5425	3022.5481	985.6	106.2
1029.6535	3023.5958	986.3	108.55
1029.7645	3024.6428	989.8	107.4
1029.8755	3025.6892	987.25	108.05
1029.9864	3026.735	986.65	105.75
1030.0973	3027.7802	985.3	103.9
1030.2082	3028.8247	984.2	103.4
1030.319	3029.8685	985.75	104.45
1030.4297	3030.9118	984.35	101.85
1030.5404	3031.9544	982.2	102.5
1030.6511	3032.9963	982.4	102.5
1030.7617	3034.0376	980.25	100.9
1030.8723	3035.0783	982.95	100.05
1030.9829	3036.1184	985.4	103.25
1031.0934	3037.1578	978.2	98.95
1031.2038	3038.1966	982.05	99.7
1031.3142	3039.2348	978.9	98.5
1031.4246	3040.2723	988.3	99.6
1031.5349	3041.3092	978.2	100.65
1031.6452	3042.3455	978.2	98.85
1031.7554	3043.3811	978	98.65
1031.8656	3044.4161	978.35	95.65
1031.9758	3045.4505	975	95.8
1032.0859	3046.4842	977.9	96.85
1032.1959	3047.5173	976.2	97
1032.3059	3048.5498	978	97.3
1032.4159	3049.5816	979.35	98.5
1032.5258	3050.6128	977.95	96.9
1032.6357	3051.6434	975.8	92.3
1032.7455	3052.6734	977.95	100.2
1032.8553	3053.7027	974.05	94.35
1032.9651	3054.7314	971.65	92.5
1033.0748	3055.7594	970.55	89.9
1033.1845	3056.7868	974.9	92.35
1033.2941	3057.8136	973	93.3
1033.4037	3058.8398	973.4	93.8
1033.5132	3059.8653	973.9	93.7
1033.6227	3060.8902	972.3	92.7
1033.7321	3061.9145	972.9	94.8
1033.8415	3062.9381	976.1	96.05
1033.9509	3063.9612	989.5	91.7
1034.0602	3064.9835	972.85	94.55
1034.1694	3066.0053	974.35	90.45
1034.2787	3067.0264	971.5	90.65
1034.3878	3068.0469	974.05	91.15
1034.497	3069.0668	972.1	89.5
1034.6061	3070.086	970.6	91.65
1034.7151	3071.1046	971.05	89.95
1034.8241	3072.1226	974.9	94.55
1034.9331	3073.1399	968.85	89.2
1035.042	3074.1567	968.25	87.25
1035.1508	3075.1727	967.35	84.95
1035.2597	3076.1882	968.7	89
1035.3684	3077.203	966.9	86.1
1035.4772	3078.2173	969.2	89.5
1035.5859	3079.2308	967.95	83.75
1035.6945	3080.2438	968.65	86.65
1035.8031	3081.2561	962.95	82.65
1035.9117	3082.2678	964.8	84.6
1036.0202	3083.2789	960.75	82
1036.1286	3084.2893	962.55	82
1036.2371	3085.2991	959.45	77.95
1036.3454	3086.3083	967.3	81.9
1036.4538	3087.3169	961.05	79.4
1036.562	3088.3248	963.45	82.2
1036.6703	3089.3321	964.05	81.35
1036.7785	3090.3388	957.45	79.85
1036.8866	3091.3449	957.2	77.5
1036.9948	3092.3503	962.85	78.8
1037.1028	3093.3551	957.25	78.65
1037.2108	3094.3593	960.15	81.65
1037.3188	3095.3629	954.65	75.85
1037.4267	3096.3658	957	76
1037.5346	3097.3681	956.45	78.4
1037.6425	3098.3698	958.5	78.65
1037.7503	3099.3708	963	79.6
1037.858	3100.3713	954.8	75.55
1037.9657	3101.3711	954.6	75.75
1038.0734	3102.3702	1086.9	72.45
1038.181	3103.3688	957.5	74
1038.2886	3104.3667	954.8	75.55
1038.3961	3105.364	955.55	73.95
1038.5036	3106.3607	950.9	69.8
1038.611	3107.3568	951.6	70.5
1038.7184	3108.3522	950.4	72.75
1038.8257	3109.347	950	68.8
1038.933	3110.3412	957.5	70.65
1039.0403	3111.3348	950.25	71.1
1039.1475	3112.3277	948.75	69.3
1039.2547	3113.32	949.95	72.1
1039.3618	3114.3117	949.25	68.35
1039.4689	3115.3028	951.4	70.9
1039.5759	3116.2932	951.9	70.35
1039.6829	3117.2831	954.75	68.85
1039.7898	3118.2723	945	66.85
1039.8967	3119.2608	948.4	68
1040.0035	3120.2488	947.3	68.15
1040.1103	3121.2361	945.25	66.25
1040.2171	3122.2229	948.35	68.25
1040.3238	3123.209	947.85	67.55
1040.4305	3124.1944	946.2	67.2
1040.5371	3125.1793	946.45	65.55
1040.6437	3126.1635	942.65	62.6
1040.7502	3127.1471	944.1	63.6
1040.8567	3128.1301	940.9	61.15
1040.9631	3129.1125	942.95	61.05
1041.0695	3130.0942	942.1	60.45
1041.1759	3131.0753	949.2	60.9
1041.2822	3132.0558	943.6	63.1
1041.3884	3133.0357	944.65	63.55
1041.4946	3134.015	943.2	62.8
1041.6008	3134.9936	944.3	62.3
1041.7069	3135.9716	962.3	63.75
1041.813	3136.949	941.8	61.65
1041.919	3137.9258	945.55	60.4
1042.025	3138.902	946.2	61.1
1042.1309	3139.8775	938.45	58.15
1042.2368	3140.8524	936.95	57.2
1042.3427	3141.8267	941.6	59.55
1042.4485	3142.8004	940.05	58.95
1042.5542	3143.7735	948.3	63.85
1042.6599	3144.7459	941.3	60.3
1042.7656	3145.7178	940.6	59.65
1042.8712	3146.689	937.85	58.35
1042.9768	3147.6596	940.35	58.5
1043.0823	3148.6295	938.35	57.9
1043.1878	3149.5989	939.05	56.85
1043.2932	3150.5676	936.3	58.25
1043.3986	3151.5357	933.9	54.45
1043.5039	3152.5032	935.3	56.05
1043.6092	3153.4701	932.8	55.9
1043.7145	3154.4364	937.75	55.4
1043.8197	3155.402	933.65	55.35
1043.9248	3156.367	935.45	53.35
1044.03	3157.3315	971.3	55.4
1044.135	3158.2952	936	55.2
1044.24	3159.2584	932.7	53.4
1044.345	3160.221	934.8	53.8
1044.4499	3161.1829	933.2	54
1044.5548	3162.1442	930.55	52
1044.6596	3163.105	935.4	56.65
1044.7644	3164.065	931.7	51.3
1044.8692	3165.0245	936.45	55.35
1044.9739	3165.9834	932.2	52.7
1045.0785	3166.9416	929.8	50.35
1045.1831	3167.8993	932.5	53.35
1045.2877	3168.8563	932.75	50.55
1045.3922	3169.8127	928.2	48.85
1045.4966	3170.7684	931.1	52.65
1045.6011	3171.7236	929.25	48.7
1045.7054	3172.6782	929.9	49.4
1045.8098	3173.6321	931.15	51.6
1045.914	3174.5854	934.6	51.05
1046.0183	3175.5381	931.4	53.5
1046.1224	3176.4902	930.4	50.05
1046.2266	3177.4417	931.15	50.2
1046.3307	3178.3926	929.15	49.25
1046.4347	3179.3428	925.7	45.6
1046.5387	3180.2924	924.8	45.3
1046.6427	3181.2415	925.5	46.1
1046.7466	3182.1899	929.05	50.25
1046.8504	3183.1377	925.2	46.55
1046.9542	3184.0848	931.3	49.85
1047.058	3185.0314	926.7	47.55
1047.1617	3185.9773	924.55	41.75
1047.2654	3186.9227	926.55	44.8
1047.369	3187.8674	923.5	42.2
1047.4726	3188.8115	928.4	44.45
1047.5761	3189.755	924.15	45
1047.6796	3190.6979	926.35	46.7
1047.783	3191.6402	924.6	48.3
1047.8864	3192.5818	923.35	42.3
1047.9898	3193.5229	940.15	44.5
1048.0931	3194.4633	921.75	41.85
1048.1963	3195.4031	924.75	43.75
1048.2995	3196.3423	921.4	41.15
1048.4027	3197.2809	924.1	42.95
1048.5058	3198.2189	924.5	45
1048.6089	3199.1563	942	46.35
1048.7119	3200.0931	922.4	44.35
1048.8148	3201.0292	922.25	43.75
1048.9178	3201.9648	920.85	40.9
1049.0206	3202.8997	925.15	43.15
1049.1235	3203.834	923.1	42.55
1049.2262	3204.7677	918.25	41
1049.329	3205.7008	920.7	36.55
1049.4317	3206.6333	920.25	41.45
1049.5343	3207.5652	921.65	39.45
1049.6369	3208.4964	921.3	42.35
1049.7394	3209.4271	919.55	37.85
1049.8419	3210.3571	921.4	40.7
1049.9444	3211.2865	922.6	43.2
1050.0468	3212.2154	921.3	39
1050.1491	3213.1436	923.1	42.1
1050.2514	3214.0712	924.8	38.15
1050.3537	3214.9982	920.05	39.55
1050.4559	3215.9246	918.45	38.5
1050.5581	3216.8503	918.75	38.95
1050.6602	3217.7755	918.6	38.45
1050.7623	3218.7001	916.55	36.65
1050.8643	3219.624	920.4	40.05
1050.9663	3220.5473	916.75	38.8
1051.0682	3221.4701	921.4	38.7
1051.1701	3222.3922	922.8	41.95
1051.2719	3223.3137	914.4	34.5
1051.3737	3224.2346	917.3	37.5
1051.4754	3225.1549	915.45	36.5
1051.5771	3226.0746	915.75	38.15
1051.6788	3226.9937	916.95	37.15
1051.7804	3227.9121	914.3	34.35
1051.8819	3228.83	916.7	42.4
1051.9834	3229.7473	916.25	35.7
1052.0849	3230.6639	916.05	34.8
1052.1863	3231.5799	914.25	34.55
1052.2876	3232.4954	916.2	36.65
1052.3889	3233.4102	915.25	36.5
1052.4902	3234.3244	914.05	33.7
1052.5914	3235.238	913.35	35.4
1052.6926	3236.151	940.05	39.2
1052.7937	3237.0634	914	34.6
1052.8948	3237.9752	913.3	32.95
1052.9958	3238.8864	915.2	35.25
1053.0968	3239.797	912.75	33.15
1053.1977	3240.7069	915.6	35.9
1053.2986	3241.6163	915.15	33.3
1053.3994	3242.5251	910.45	32.2
1053.5002	3243.4332	911.65	34.3
1053.6009	3244.3408	913.6	33.55
1053.7016	3245.2477	911.6	33.45
1053.8022	3246.154	912.6	31.3
1053.9028	3247.0598	914.6	34.5
1054.0034	3247.9649	911.35	31.6
1054.1039	3248.8694	910.9	31.4
1054.2043	3249.7733	911.9	30.15
1054.3047	3250.6766	910.85	29.85
1054.4051	3251.5793	909.8	27.6
1054.5054	3252.4814	909.8	32
1054.6056	3253.3829	909.6	31.5
1054.7058	3254.2838	910.15	31.8
1054.806	3255.1841	910.2	32.05
1054.9061	3256.0838	910.75	31.8
1055.0061	3256.9829	908.45	28.05
1055.1062	3257.8814	913.05	33.35
1055.2061	3258.7792	909.45	27.85
1055.306	3259.6765	911.3	29
1055.4059	3260.5731	907.25	27.4
1055.5057	3261.4692	907.3	26.5
1055.6055	3262.3647	908.3	30.3
1055.7052	3263.2595	907.7	28.8
1055.8049	3264.1538	908.7	29.75
1055.9045	3265.0474	906.3	26.4
1056.0041	3265.9404	908.5	28.15
1056.1036	3266.8329	903.8	25.85
1056.2031	3267.7247	915.4	24.4
1056.3025	3268.616	903.5	25.45
1056.4019	3269.5066	903.35	22.4
1056.5013	3270.3966	905.75	25.15
1056.6005	3271.286	902.4	22.5
