Software Version:	3.9.2.0
Unit SN:	10000200
Spectrometer SN:	6960
Date:	3/6/2024 10:14:34 AM
Data Line Index:	25
Spectral Points:	2048
Integration time (ms):	125
Averages:	20
Delay (ms):	30
Sequence Number:	1
Processing:	dark subtract
Laser Power (mW):	300
Laser Current (mA):	824
Laser Diode Temp (C):	25
Laser Case Temp (C):	25
System Temp (C):	24.8
Spectrometer Temp (C):	22.4
CCD Temp (C):	-0.002
Secondary Temp (C):	20.003
Heatsink Temp (C):	19.022
CCDPCB Temp (C):	32.427
SecondaryPCB Temp (C):	26.336

Wavelength	RamanShift	Raw Counts	Dark Subtracted
787.061	30.1047	1025.65	619.25
787.2016	32.3739	1050.95	645.25
787.3422	34.6426	1085.1	676.1
787.4828	36.9109	1124.8	716.2
787.6235	39.1787	1168.4	755
787.7642	41.4461	1226.2	808.9
787.9049	43.7131	1281.45	861.5
788.0456	45.9796	1337.8	911.65
788.1863	48.2456	1392.35	962.55
788.3271	50.5112	1447.5	1013.3
788.4679	52.7764	1512.25	1079.75
788.6087	55.0411	1578.3	1140.15
788.7496	57.3054	1654.8	1211.65
788.8904	59.5692	1728.1	1282.35
789.0313	61.8326	1807.85	1357.05
789.1722	64.0955	1896.1	1444.35
789.3132	66.3579	2005.85	1550.05
789.4541	68.6199	2137.3	1678.15
789.5951	70.8815	2368.65	1904.05
789.7361	73.1426	2847.2	2377.8
789.8771	75.4032	4120.95	3646.75
790.0181	77.6634	7365.05	6889.05
790.1592	79.9231	15699.95	15218.55
790.3003	82.1824	48777	48284.65
790.4414	84.4412	65535	65025.3
790.5825	86.6995	65535	65002
790.7237	88.9574	65535	64982.5
790.8648	91.2148	65535	64969.8
791.006	93.4717	65535	64957.55
791.1472	95.7282	65535	64957.65
791.2885	97.9842	65535	64959.85
791.4297	100.2398	65535	64955.85
791.571	102.4949	65535	64950.3
791.7123	104.7495	65535	64945.3
791.8536	107.0036	65535	64944
791.9949	109.2573	65535	64943.4
792.1363	111.5105	65535	64942.15
792.2777	113.7632	65535	64943.3
792.4191	116.0154	65535	64929.35
792.5605	118.2672	65535	64935.55
792.7019	120.5185	65535	64938.25
792.8434	122.7693	65535	64930.75
792.9849	125.0197	65535	64927.8
793.1264	127.2696	65535	64925.5
793.2679	129.519	65535	64921.95
793.4094	131.7679	65535	64918.15
793.551	134.0163	65535	64915.45
793.6926	136.2642	65535	64907.8
793.8342	138.5117	65535	64908.85
793.9758	140.7587	65535	64909.95
794.1175	143.0052	65535	64903.45
794.2591	145.2512	65535	64906.65
794.4008	147.4967	65535	64903.2
794.5425	149.7417	65535	64903.75
794.6842	151.9863	65535	64897.5
794.826	154.2304	65535	64895.2
794.9677	156.4739	65535	64885.85
795.1095	158.717	65535	64886.9
795.2513	160.9596	65535	64882.95
795.3931	163.2017	65535	64880.65
795.535	165.4433	65535	64880.8
795.6768	167.6844	65535	64876.25
795.8187	169.925	65535	64871.55
795.9606	172.1651	65535	64870.65
796.1025	174.4047	65535	64866.35
796.2445	176.6439	65535	64864.6
796.3864	178.8825	65535	64862.15
796.5284	181.1206	65535	64858.7
796.6704	183.3582	65535	64855.8
796.8124	185.5954	65535	64856.15
796.9544	187.832	65535	64848.8
797.0965	190.0681	65535	64845.15
797.2386	192.3037	65535	64844.1
797.3806	194.5388	65535	64841
797.5228	196.7734	65535	64843.25
797.6649	199.0075	65535	64837.9
797.807	201.2411	65535	64838.9
797.9492	203.4742	65535	64836.3
798.0914	205.7068	65535	64830.65
798.2336	207.9389	65535	64830.8
798.3758	210.1704	65535	64832.05
798.518	212.4015	65535	64842.35
798.6603	214.632	65535	64851.1
798.8025	216.862	65535	64852.6
798.9448	219.0915	65535	64848.65
799.0871	221.3205	65535	64849.2
799.2294	223.549	65535	64852.35
799.3718	225.777	65535	64857.9
799.5141	228.0044	65535	64848.2
799.6565	230.2314	65535	64844.35
799.7989	232.4578	65535	64839.35
799.9413	234.6837	65535	64831.25
800.0837	236.909	65535	64830.65
800.2262	239.1339	65535	64801.6
800.3687	241.3582	65535	64820.65
800.5111	243.582	65535	64788.2
800.6536	245.8053	65535	64801.05
800.7961	248.0281	65535	64808.8
800.9387	250.2503	65535	64804
801.0812	252.472	65535	64804.15
801.2238	254.6932	65535	64802.35
801.3664	256.9139	65535	64801.55
801.509	259.134	65535	64796.45
801.6516	261.3536	65535	64800.25
801.7942	263.5727	65535	64799.85
801.9369	265.7912	65535	64797.4
802.0795	268.0092	65535	64798
802.2222	270.2267	65535	64799.65
802.3649	272.4436	65535	64796.85
802.5076	274.6601	65535	64785.05
802.6504	276.8759	65535	64787.4
802.7931	279.0913	65535	64788.95
802.9359	281.3061	65535	64787.4
803.0787	283.5204	65535	64785.55
803.2215	285.7341	65535	64782.8
803.3643	287.9473	65535	64770.8
803.5071	290.16	65535	64775.65
803.6499	292.3721	65535	64785.25
803.7928	294.5837	65535	64779.75
803.9357	296.7947	65535	64782.6
804.0786	299.0052	65535	64781.4
804.2215	301.2152	65535	64779.85
804.3644	303.4246	65535	64784.15
804.5074	305.6334	65535	64781.65
804.6503	307.8418	65535	64777.8
804.7933	310.0495	65535	64776.25
804.9363	312.2568	65535	64777.95
805.0793	314.4635	65535	64775.75
805.2223	316.6696	65535	64770.75
805.3653	318.8752	65535	64761.9
805.5084	321.0802	65535	64773.5
805.6514	323.2847	65535	64770.8
805.7945	325.4887	65535	64771.7
805.9376	327.692	65535	64766
806.0807	329.8949	65535	64765.55
806.2238	332.0972	65535	64767.25
806.367	334.2989	65535	64760.4
806.5101	336.5001	65535	64759.75
806.6533	338.7007	65535	64758.5
806.7965	340.9008	65535	64758.75
806.9397	343.1003	65535	64757.3
807.0829	345.2992	65535	64755.55
807.2261	347.4976	65535	64753.75
807.3693	349.6955	65535	64750.9
807.5126	351.8927	65535	64749.4
807.6559	354.0895	65535	64741.65
807.7991	356.2856	65535	64748.4
807.9424	358.4812	65535	64750.05
808.0857	360.6763	65535	64748.2
808.2291	362.8707	65535	64745.25
808.3724	365.0646	65535	64744.55
808.5158	367.258	65535	64741.05
808.6591	369.4508	65535	64734.55
808.8025	371.643	65535	64737.35
808.9459	373.8346	65535	64733.05
809.0893	376.0257	65535	64733.4
809.2327	378.2162	65535	64730.9
809.3762	380.4062	65535	64733.45
809.5196	382.5956	65535	64735.85
809.6631	384.7844	65535	64738.1
809.8066	386.9726	65535	64736.35
809.9501	389.1603	65535	64741.5
810.0936	391.3474	65535	64693.4
810.2371	393.5339	65535	64737.45
810.3806	395.7199	65535	64741.5
810.5241	397.9052	65535	64745.7
810.6677	400.09	65535	64739.3
810.8113	402.2743	65535	64737.35
810.9548	404.4579	65535	64740.4
811.0984	406.641	65535	64736.25
811.2421	408.8235	65535	64733.75
811.3857	411.0054	65535	64729.65
811.5293	413.1868	65535	64728.15
811.673	415.3675	65535	64724.25
811.8166	417.5477	65535	64726.15
811.9603	419.7273	65535	64721.4
812.104	421.9064	65535	64716.3
812.2477	424.0848	65535	64721.25
812.3914	426.2627	65535	64721.5
812.5351	428.4399	65535	64718
812.6788	430.6166	65535	64716.25
812.8226	432.7928	65535	64713.35
812.9663	434.9683	65535	64715.55
813.1101	437.1432	65535	64715
813.2539	439.3176	65535	64712.65
813.3977	441.4914	65535	64716.5
813.5415	443.6645	65535	64714.35
813.6853	445.8371	65535	64713.75
813.8291	448.0091	65535	64715.1
813.973	450.1806	65535	64710.9
814.1168	452.3514	65535	64710.45
814.2607	454.5216	65535	64702.15
814.4046	456.6913	65535	64704.95
814.5485	458.8603	65535	64709.6
814.6924	461.0288	65535	64710
814.8363	463.1967	65535	64712.1
814.9802	465.3639	65535	64709.1
815.1241	467.5306	65535	64708.35
815.2681	469.6967	65535	64709.65
815.412	471.8622	65535	64711.1
815.556	474.0271	65535	64707.1
815.7	476.1914	65535	64705.5
815.844	478.3551	65535	64709
815.988	480.5182	65535	64707.5
816.132	482.6807	65535	64707.1
816.276	484.8426	65535	64706
816.4201	487.0039	65535	64705.95
816.5641	489.1647	65535	64705.4
816.7082	491.3248	65535	64706.15
816.8522	493.4843	65535	64706
816.9963	495.6432	65535	64702.5
817.1404	497.8015	65535	64700.05
817.2845	499.9592	65535	64702.4
817.4286	502.1163	65535	64701.8
817.5727	504.2728	65535	64700.75
817.7168	506.4287	65535	64699.8
817.861	508.5839	65535	64700.35
818.0051	510.7386	65535	64700.05
818.1493	512.8927	65535	64694.9
818.2935	515.0461	65535	64696.4
818.4377	517.199	65535	64698.9
818.5818	519.3512	65535	64695.35
818.726	521.5029	65535	64690.05
818.8703	523.6539	65535	64692.85
819.0145	525.8043	65535	64691.75
819.1587	527.9541	65535	64689.1
819.303	530.1033	65535	64691.4
819.4472	532.2519	65535	64693
819.5915	534.3999	65535	64688.8
819.7357	536.5472	65535	64691.75
819.88	538.694	65535	64687.45
820.0243	540.8401	65535	64692.85
820.1686	542.9856	65535	64690.45
820.3129	545.1305	65535	64690.7
820.4572	547.2748	65535	64687.5
820.6016	549.4185	65535	64690.55
820.7459	551.5615	65535	64688.85
820.8902	553.704	65535	64689.3
821.0346	555.8458	65535	64688.3
821.1789	557.987	65535	64687.95
821.3233	560.1276	65535	64688.25
821.4677	562.2675	65535	64689.7
821.6121	564.4069	65535	64687.75
821.7565	566.5456	65535	64687.65
821.9009	568.6837	65535	64687.85
822.0453	570.8212	65535	64688.15
822.1897	572.958	65535	64686.45
822.3342	575.0942	65535	64686.1
822.4786	577.2299	65535	64686.4
822.6231	579.3648	65535	64684.95
822.7675	581.4992	65535	64687.35
822.912	583.6329	65535	64690.55
823.0565	585.766	65535	64686.85
823.201	587.8985	65535	64688.85
823.3454	590.0304	65535	64661.6
823.4899	592.1616	65535	64679.3
823.6345	594.2922	65535	64680.7
823.779	596.4222	65535	64681.55
823.9235	598.5515	65535	64682.65
824.068	600.6802	65535	64683.55
824.2126	602.8083	65535	64683.35
824.3571	604.9358	65535	64679.8
824.5017	607.0626	65535	64678.75
824.6462	609.1888	65535	64677.6
824.7908	611.3144	65535	64675.5
824.9354	613.4393	65535	64676.75
825.08	615.5636	65535	64679.2
825.2246	617.6873	65535	64678.1
825.3692	619.8103	65535	64676.35
825.5138	621.9327	65535	64673.95
825.6584	624.0544	65535	64679.85
825.803	626.1756	65535	64681.1
825.9477	628.2961	65535	64679.15
826.0923	630.4159	65535	64676.2
826.237	632.5351	65535	64676.35
826.3816	634.6537	65535	64672.95
826.5263	636.7716	65535	64674.5
826.6709	638.8889	65535	64674.75
826.8156	641.0056	65535	64674.2
826.9603	643.1216	65535	64675.35
827.105	645.237	65535	64671.85
827.2497	647.3518	65535	64673.4
827.3944	649.4659	65535	64673.7
827.5391	651.5793	65535	64673.55
827.6838	653.6922	65535	64675.4
827.8285	655.8043	65535	64674.25
827.9733	657.9159	65535	64672.65
828.118	660.0268	65535	64670.8
828.2627	662.137	65535	64669.95
828.4075	664.2466	65535	64669.5
828.5522	666.3556	65535	64671.1
828.697	668.4639	65535	64668.5
828.8418	670.5716	65535	64671.3
828.9865	672.6786	65535	64669.1
829.1313	674.785	65535	64668.55
829.2761	676.8907	65535	64670.75
829.4209	678.9958	65535	64671.7
829.5657	681.1002	65535	64672.7
829.7105	683.204	65535	64664.45
829.8553	685.3072	65535	64668.45
830.0001	687.4097	65535	64667.9
830.1449	689.5115	65535	64664.3
830.2898	691.6127	65535	64668.15
830.4346	693.7132	65535	64669.2
830.5794	695.8131	65535	64647.6
830.7243	697.9123	65535	64664.9
830.8691	700.0109	65535	64664.95
831.014	702.1089	65535	64668.3
831.1588	704.2061	65535	64667.85
831.3037	706.3028	65535	64664.8
831.4486	708.3987	65535	64664.9
831.5935	710.4941	65535	64665.75
831.7383	712.5887	65535	64667
831.8832	714.6827	65535	64661.25
832.0281	716.7761	65535	64668.25
832.173	718.8688	65535	64665
832.3179	720.9608	65535	64660.35
832.4628	723.0522	65535	64658.55
832.6077	725.1429	65535	64665
832.7527	727.233	65535	64661.65
832.8976	729.3224	65535	64663
833.0425	731.4112	65535	64660.2
833.1874	733.4993	65535	64659.65
833.3324	735.5867	65535	64662.55
833.4773	737.6735	65535	64660.75
833.6222	739.7596	65535	64660.45
833.7672	741.845	65535	64658.15
833.9122	743.9298	65535	64659.5
834.0571	746.014	65535	64663.25
834.2021	748.0974	65535	64658.85
834.347	750.1802	65535	64661.55
834.492	752.2624	65535	64657.6
834.637	754.3439	65535	64659.95
834.782	756.4247	65535	64650.1
834.9269	758.5048	65535	64660.7
835.0719	760.5843	65535	64660.85
835.2169	762.6631	65535	64657.65
835.3619	764.7413	65535	64661.95
835.5069	766.8188	65535	64656.65
835.6519	768.8956	65535	64656.65
835.7969	770.9718	65535	64659.65
835.9419	773.0473	65535	64659.6
836.0869	775.1221	65535	64660.5
836.232	777.1962	65535	64658.5
836.377	779.2697	65535	64657.65
836.522	781.3426	65535	64641.9
836.667	783.4147	65535	64657.5
836.8121	785.4862	65535	64660.9
836.9571	787.557	65535	64656.9
837.1021	789.6271	65535	64657.7
837.2472	791.6966	65535	64658.45
837.3922	793.7654	65535	64658.15
837.5373	795.8335	65535	64659.4
837.6823	797.901	65535	64659.85
837.8274	799.9678	65535	64655.15
837.9724	802.0339	65535	64657.8
838.1175	804.0993	65535	64648.4
838.2626	806.1641	65535	64654.2
838.4076	808.2282	65535	64659.05
838.5527	810.2916	65535	64655.5
838.6978	812.3544	65535	64656.95
838.8428	814.4164	65535	64658.6
838.9879	816.4778	65535	64655.4
839.133	818.5385	65535	64657.35
839.2781	820.5986	65535	64655.3
839.4232	822.658	65535	64653.25
839.5682	824.7166	65535	64656.5
839.7133	826.7747	65535	64656.15
839.8584	828.832	65535	64655.65
840.0035	830.8886	65535	64653.7
840.1486	832.9446	65535	64653.4
840.2937	834.9999	65535	64655
840.4388	837.0545	65535	64654.2
840.5839	839.1085	65535	64654.75
840.729	841.1618	65535	64649.15
840.8741	843.2143	65535	64655.2
841.0192	845.2662	65535	64655.8
841.1643	847.3175	65535	64655.45
841.3095	849.368	65535	64655
841.4546	851.4179	65535	64655.45
841.5997	853.467	65535	64654.8
841.7448	855.5155	65535	64654.9
841.8899	857.5633	65535	64656.05
842.0351	859.6105	65535	64654.8
842.1802	861.6569	65535	64655
842.3253	863.7027	65535	64652.2
842.4704	865.7478	65535	64651.05
842.6156	867.7922	65535	64652.9
842.7607	869.8359	65535	64651.5
842.9058	871.8789	65535	64650.6
843.0509	873.9212	65535	64623.4
843.1961	875.9629	65535	64652
843.3412	878.0039	65535	64650.15
843.4863	880.0441	65535	64653.95
843.6315	882.0837	65535	64653.55
843.7766	884.1226	65535	64649.55
843.9218	886.1609	65535	64654.55
844.0669	888.1984	65535	64652.95
844.212	890.2352	65535	64653.6
844.3572	892.2714	65535	64648.25
844.5023	894.3069	65535	64652.05
844.6475	896.3416	65535	64650
844.7926	898.3757	65535	64653.7
844.9377	900.4091	65535	64649.2
845.0829	902.4418	65535	64647.85
845.228	904.4739	65535	64644.65
845.3732	906.5052	65535	64649
845.5183	908.5358	65535	64652.3
845.6635	910.5658	65535	64649.2
845.8086	912.595	65535	64651.25
845.9538	914.6236	65535	64650.55
846.0989	916.6515	65535	64649.75
846.2441	918.6786	65535	64649.5
846.3892	920.7051	65535	64649.6
846.5344	922.7309	65535	64651.45
846.6795	924.756	65535	64651.3
846.8246	926.7804	65535	64650.4
846.9698	928.8041	65535	64647.85
847.1149	930.8272	65535	64649.95
847.2601	932.8495	65535	64649.65
847.4052	934.8711	65535	64646.95
847.5504	936.892	65535	64649.3
847.6955	938.9123	65535	64645.8
847.8407	940.9318	65535	64648.6
847.9858	942.9506	65535	64648.85
848.131	944.9688	65535	64650.3
848.2761	946.9862	65535	64649.95
848.4213	949.003	65535	64648.95
848.5664	951.019	65535	64648.75
848.7115	953.0344	65535	64648.25
848.8567	955.0491	65535	64649.4
849.0018	957.063	65535	64650.65
849.147	959.0763	65535	64648.85
849.2921	961.0888	65535	64647.5
849.4373	963.1007	65535	64647.95
849.5824	965.1119	65535	64653.6
849.7275	967.1223	65535	64650.1
849.8727	969.1321	65535	64650.45
850.0178	971.1412	65535	64648.25
850.1629	973.1495	65535	64648.5
850.3081	975.1572	65535	64619
850.4532	977.1641	65535	64646.4
850.5983	979.1704	65535	64647.55
850.7435	981.1759	65535	64645.1
850.8886	983.1808	65535	64648.8
851.0337	985.1849	65535	64639.1
851.1788	987.1884	65535	64643.85
851.324	989.1911	65535	64648.55
851.4691	991.1932	65535	64647.65
851.6142	993.1945	65535	64650.6
851.7593	995.1951	65535	64646.75
851.9045	997.1951	65535	64642.9
852.0496	999.1943	65535	64649.6
852.1947	1001.1928	65535	64647.75
852.3398	1003.1906	65535	64649.35
852.4849	1005.1877	65535	64647.45
852.63	1007.1841	65535	64647.4
852.7751	1009.1798	65535	64648.55
852.9202	1011.1748	65535	64646.9
853.0653	1013.1691	65535	64648.3
853.2104	1015.1627	65535	64648.75
853.3555	1017.1556	65535	64647.25
853.5006	1019.1477	65535	64648.85
853.6457	1021.1392	65535	64651.2
853.7908	1023.1299	65535	64648.65
853.9359	1025.12	65535	64645.55
854.081	1027.1093	65535	64651.85
854.2261	1029.0979	65535	64651
854.3712	1031.0859	65535	64649.2
854.5163	1033.0731	65535	64650.3
854.6613	1035.0596	65535	64652.3
854.8064	1037.0454	65535	64651.75
854.9515	1039.0304	65535	64648.05
855.0965	1041.0148	65535	64650.3
855.2416	1042.9985	65535	64648.25
855.3867	1044.9814	65535	64650
855.5317	1046.9636	65535	64648.9
855.6768	1048.9452	65535	64651.75
855.8219	1050.926	65535	64649.7
855.9669	1052.9061	65535	64650.85
856.112	1054.8855	65535	64647.1
856.257	1056.8642	65535	64649.2
856.4021	1058.8421	65535	64645.45
856.5471	1060.8194	65535	64647.7
856.6921	1062.7959	65535	64649.35
856.8372	1064.7717	65535	64648.15
856.9822	1066.7469	65535	64645.8
857.1272	1068.7213	65535	64641.55
857.2723	1070.695	65535	64649.05
857.4173	1072.6679	65535	64647.15
857.5623	1074.6402	65535	64646.6
857.7073	1076.6117	65535	64642.55
857.8523	1078.5826	65535	64647.35
857.9973	1080.5527	65535	64646.3
858.1423	1082.5221	65535	64648.35
858.2873	1084.4908	65535	64645.9
858.4323	1086.4587	65535	64644.95
858.5773	1088.426	65535	64647
858.7223	1090.3925	65535	64641.75
858.8673	1092.3584	65535	64648.15
859.0123	1094.3235	65535	64649.05
859.1573	1096.2879	65535	64646.65
859.3022	1098.2515	65535	64647.7
859.4472	1100.2145	65535	64648.45
859.5922	1102.1767	65535	64644.8
859.7371	1104.1382	65535	64645
859.8821	1106.099	65535	64648.4
860.027	1108.0591	65535	64648.5
860.172	1110.0185	65535	64647.05
860.3169	1111.9771	65535	64649.1
860.4619	1113.9351	65535	64648.15
860.6068	1115.8923	65535	64648.4
860.7517	1117.8488	65535	64645.15
860.8967	1119.8045	65535	64645.55
861.0416	1121.7596	65535	64645.45
861.1865	1123.7139	65535	64648.45
861.3314	1125.6675	65535	64648.7
861.4763	1127.6204	65535	64648.55
861.6212	1129.5726	65535	64646.6
861.7661	1131.524	65535	64646.85
861.911	1133.4748	65535	64649.5
862.0559	1135.4248	65535	64646
862.2008	1137.3741	65535	64647.6
862.3457	1139.3226	65535	64644.8
862.4905	1141.2705	65535	64644.95
862.6354	1143.2176	65535	64642.15
862.7803	1145.164	65535	64646.25
862.9251	1147.1097	65535	64645.6
863.07	1149.0546	65535	64644.05
863.2148	1150.9989	65535	64646.25
863.3597	1152.9424	65535	64646.75
863.5045	1154.8852	65535	64647.7
863.6493	1156.8272	65535	64647.95
863.7942	1158.7686	65535	64640.9
863.939	1160.7092	65535	64645.75
864.0838	1162.6491	65535	64645.05
864.2286	1164.5883	65535	64646.65
864.3734	1166.5267	65535	64646.7
864.5182	1168.4644	65535	64645.35
864.663	1170.4014	65535	64642.35
864.8078	1172.3377	65535	64649.25
864.9526	1174.2732	65535	64647.1
865.0974	1176.2081	65535	64647.25
865.2421	1178.1421	65535	64644.85
865.3869	1180.0755	65535	64647.8
865.5317	1182.0082	65535	64650
865.6764	1183.9401	65535	64645.15
865.8212	1185.8713	65535	64647.95
865.9659	1187.8017	65535	64649.6
866.1106	1189.7315	65535	64648.1
866.2554	1191.6605	65535	64622.05
866.4001	1193.5888	65535	64648.05
866.5448	1195.5163	65535	64647.3
866.6895	1197.4432	65535	64648.2
866.8342	1199.3693	65535	64646.95
866.9789	1201.2947	65535	64643.7
867.1236	1203.2193	65535	64644.85
867.2683	1205.1432	65535	64646.1
867.413	1207.0664	65535	64647
867.5576	1208.9889	65535	64644.65
867.7023	1210.9106	65535	64648.25
867.847	1212.8316	65535	64648.9
867.9916	1214.7519	65535	64637.65
868.1363	1216.6715	65535	64646.9
868.2809	1218.5903	65535	64646.2
868.4255	1220.5084	65535	64649.15
868.5701	1222.4257	65535	64646.3
868.7148	1224.3424	65535	64650.85
868.8594	1226.2583	65535	64644.1
869.004	1228.1735	65535	64646.2
869.1486	1230.0879	65535	64646.5
869.2932	1232.0016	65535	64649.45
869.4377	1233.9146	65535	64643.55
869.5823	1235.8269	65535	64645.95
869.7269	1237.7384	65535	64646.5
869.8715	1239.6492	65535	64648.6
870.016	1241.5592	65535	64647
870.1606	1243.4686	65535	64645.75
870.3051	1245.3772	65535	64647.2
870.4496	1247.285	65535	64649.25
870.5941	1249.1922	65535	64645.6
870.7387	1251.0986	65535	64649.65
870.8832	1253.0042	65535	64646.95
871.0277	1254.9092	65535	64648.5
871.1722	1256.8134	65535	64650.2
871.3167	1258.7169	65535	64644.8
871.4611	1260.6196	65535	64651.25
871.6056	1262.5216	65535	64646.2
871.7501	1264.4229	65535	64648.5
871.8945	1266.3234	65535	64648.4
872.039	1268.2232	65535	64646
872.1834	1270.1223	65535	64647.95
872.3278	1272.0207	65535	64645.75
872.4723	1273.9183	65535	64641.9
872.6167	1275.8151	65535	64648.5
872.7611	1277.7113	65535	64649.2
872.9055	1279.6067	65535	64648.6
873.0499	1281.5014	65535	64647.95
873.1943	1283.3953	65535	64646.7
873.3386	1285.2885	65535	64648.55
873.483	1287.181	65535	64645.5
873.6274	1289.0727	65535	64649.1
873.7717	1290.9637	65535	64646
873.9161	1292.854	65535	64649.9
874.0604	1294.7435	65535	64646
874.2047	1296.6323	65535	64646
874.349	1298.5204	65535	64642.8
874.4933	1300.4077	65535	64646.4
874.6376	1302.2943	65535	64647.6
874.7819	1304.1802	65535	64650.35
874.9262	1306.0653	65535	64641.1
875.0705	1307.9497	65535	64648.35
875.2147	1309.8333	65535	64647.55
875.359	1311.7162	65535	64647.7
875.5032	1313.5984	65535	64644
875.6475	1315.4798	65535	64630.15
875.7917	1317.3605	65535	64633.1
875.9359	1319.2405	65535	64647.6
876.0801	1321.1197	65535	64644.75
876.2243	1322.9982	65535	64642.5
876.3685	1324.876	65535	64649.05
876.5127	1326.753	65535	64650.4
876.6569	1328.6293	65535	64644.2
876.801	1330.5048	65535	64645.9
876.9452	1332.3796	65535	64646
877.0893	1334.2537	65535	64622.5
877.2335	1336.127	65535	64647.45
877.3776	1337.9996	65535	64646.9
877.5217	1339.8714	65535	64646.8
877.6658	1341.7426	65535	64604.25
877.8099	1343.6129	65535	64646.4
877.954	1345.4826	65535	64645.25
878.0981	1347.3515	65535	64643.75
878.2422	1349.2196	65535	64646.3
878.3862	1351.087	65535	64645.95
878.5303	1352.9537	65535	64645.8
878.6743	1354.8197	65535	64647.95
878.8184	1356.6849	65535	64646.75
878.9624	1358.5493	65535	64646.55
879.1064	1360.4131	65535	64647.1
879.2504	1362.276	65535	64648.85
879.3944	1364.1383	65535	64647.4
879.5384	1365.9998	65535	64640.15
879.6823	1367.8606	65535	64645
879.8263	1369.7206	65535	64645.85
879.9702	1371.5799	65535	64644.55
880.1142	1373.4384	65535	64646.4
880.2581	1375.2962	65535	64646.7
880.402	1377.1533	65535	64649.45
880.5459	1379.0096	65535	64646.25
880.6898	1380.8652	65535	64647.1
880.8337	1382.7201	65535	64645.95
880.9776	1384.5742	65535	64647.4
881.1215	1386.4275	65535	64644.6
881.2653	1388.2802	65535	64646.9
881.4092	1390.132	65535	64646.8
881.553	1391.9832	65535	64646.65
881.6968	1393.8336	65535	64645.9
881.8406	1395.6832	65535	64644.15
881.9844	1397.5322	65535	64648
882.1282	1399.3803	65535	64640.25
882.272	1401.2278	65535	64644.7
882.4158	1403.0745	65535	64647.3
882.5595	1404.9204	65535	64649.15
882.7033	1406.7656	65535	64646.3
882.847	1408.6101	65535	64646.6
882.9908	1410.4538	65535	64644.05
883.1345	1412.2968	65535	64647.4
883.2782	1414.139	65535	64646.35
883.4219	1415.9805	65535	64649.25
883.5656	1417.8213	65535	64640.05
883.7092	1419.6613	65535	64648.25
883.8529	1421.5006	65535	64646.4
883.9965	1423.3391	65535	64645.9
884.1402	1425.1769	65535	64647.1
884.2838	1427.0139	65535	64645.8
884.4274	1428.8502	65535	64646.55
884.571	1430.6858	65535	64646.3
884.7146	1432.5206	65535	64646.3
884.8582	1434.3547	65535	64647.7
885.0018	1436.188	65535	64647.65
885.1453	1438.0206	65535	64647.2
885.2889	1439.8524	65535	64646.8
885.4324	1441.6835	65535	64646.3
885.5759	1443.5139	65535	64640.9
885.7194	1445.3435	65535	64647.5
885.8629	1447.1724	65535	64646.8
886.0064	1449.0005	65535	64646.7
886.1499	1450.8279	65535	64642.65
886.2933	1452.6545	65535	64647.2
886.4368	1454.4804	65535	64649.05
886.5802	1456.3056	65535	64639.6
886.7237	1458.13	65535	64648.65
886.8671	1459.9536	65535	64645.15
887.0105	1461.7766	65535	64648.75
887.1539	1463.5987	65535	64646.1
887.2972	1465.4202	65535	64648.35
887.4406	1467.2409	65535	64644.9
887.584	1469.0608	65535	64648.3
887.7273	1470.88	65535	64647
887.8706	1472.6984	65535	64648.35
888.0139	1474.5161	65535	64644.15
888.1572	1476.3331	65535	64647.5
888.3005	1478.1493	65535	64648.75
888.4438	1479.9648	65531.7	64644.25
888.5871	1481.7795	65535	64647.5
888.7303	1483.5935	65535	64650.15
888.8736	1485.4067	65525.4	64637
889.0168	1487.2192	65534.05	64645.9
889.16	1489.031	65521.35	64633.1
889.3032	1490.842	65530.4	64645.05
889.4464	1492.6522	65529.75	64642.45
889.5896	1494.4618	65521.5	64634.8
889.7327	1496.2705	65526.15	64637.65
889.8759	1498.0785	65467.05	64580.15
890.019	1499.8858	65524.2	64635.4
890.1622	1501.6924	65534.1	64647.8
890.3053	1503.4981	65501	64612.35
890.4484	1505.3032	65519.75	64632.4
890.5914	1507.1075	65492.6	64604.95
890.7345	1508.911	65489.65	64602.1
890.8776	1510.7138	65483	64595.8
891.0206	1512.5159	65511.05	64625.65
891.1637	1514.3172	65415.05	64529.55
891.3067	1516.1178	65442.35	64556.75
891.4497	1517.9176	65474.65	64584.6
891.5927	1519.7166	65436.65	64548.75
891.7357	1521.515	65419.65	64527.1
891.8786	1523.3126	65368.3	64479.9
892.0216	1525.1094	65425.45	64536.55
892.1645	1526.9055	65392.15	64504.95
892.3074	1528.7008	65408.25	64521.25
892.4503	1530.4954	65352.3	64463.4
892.5932	1532.2893	65407.9	64522.85
892.7361	1534.0824	65347	64454.5
892.879	1535.8747	65318.7	64433.9
893.0218	1537.6663	65403.95	64516.95
893.1647	1539.4572	65260.85	64373.9
893.3075	1541.2473	65320.8	64434.45
893.4503	1543.0367	65300.4	64415.5
893.5931	1544.8253	65293.65	64401.4
893.7359	1546.6132	65315.7	64423.85
893.8787	1548.4003	65283.3	64386.95
894.0214	1550.1867	65271.85	64377.7
894.1642	1551.9723	65258.35	64365.95
894.3069	1553.7572	65268.25	64381.65
894.4496	1555.5414	65279.4	64393.6
894.5923	1557.3247	65204.5	64318.25
894.735	1559.1074	65273.7	64388.4
894.8777	1560.8893	65231.05	64346.8
895.0204	1562.6705	65250.1	64364.25
895.163	1564.4509	65211.55	64325.65
895.3056	1566.2305	65224.15	64338.2
895.4482	1568.0094	65247.5	64364.75
895.5908	1569.7876	65227.05	64341.75
895.7334	1571.565	65200.45	64313.6
895.876	1573.3417	65209.8	64325.05
896.0186	1575.1176	65198.9	64314.75
896.1611	1576.8928	65178.15	64293.95
896.3036	1578.6672	65157.9	64273.65
896.4461	1580.4409	65178.05	64296.85
896.5886	1582.2138	65149.65	64263.3
896.7311	1583.986	65170.25	64284.45
896.8736	1585.7575	65143.95	64259.8
897.0161	1587.5282	65139.35	64256.15
897.1585	1589.2981	65129.7	64246.95
897.3009	1591.0673	65106.15	64221
897.4433	1592.8358	65100.35	64219.2
897.5857	1594.6035	65113.3	64226.75
897.7281	1596.3704	65116.45	64232.5
897.8705	1598.1366	65079.25	64195.6
898.0128	1599.9021	65060.15	64175.65
898.1551	1601.6668	65085.9	64199.25
898.2975	1603.4308	65073.4	64188.35
898.4398	1605.194	65100.4	64211.2
898.5821	1606.9564	65034.7	64152.55
898.7243	1608.7182	65064.35	64176.85
898.8666	1610.4791	65039.05	64155.65
899.0088	1612.2394	65052.6	64168.75
899.1511	1613.9988	65035.3	64149.5
899.2933	1615.7576	65050.7	64166.55
899.4355	1617.5156	65053.7	64165.45
899.5776	1619.2728	65086.35	64203.2
899.7198	1621.0293	65036.1	64152.7
899.862	1622.785	65018	64131.35
900.0041	1624.54	65022.35	64137.5
900.1462	1626.2942	65018.35	64133.55
900.2883	1628.0477	64980.95	64095.95
900.4304	1629.8005	64957.65	64071.7
900.5725	1631.5525	64980.05	64097.2
900.7145	1633.3037	64944	64062.4
900.8566	1635.0542	64919.25	64036.1
900.9986	1636.804	64951	64066
901.1406	1638.553	64908.1	63941.55
901.2826	1640.3013	64909.3	64026.05
901.4245	1642.0488	64876.8	63990.75
901.5665	1643.7955	64906.2	64025.35
901.7085	1645.5416	64874.05	63989.25
901.8504	1647.2868	64843.8	63963.3
901.9923	1649.0313	64882.95	63999.15
902.1342	1650.7751	64856.35	63970.7
902.2761	1652.5181	64820.55	63937.45
902.4179	1654.2604	64821.1	63937.15
902.5598	1656.0019	64832.05	63949.1
902.7016	1657.7427	64799.65	63918.4
902.8434	1659.4828	64855.55	63970.4
902.9852	1661.222	64769	63885.35
903.127	1662.9606	64852.2	63968.6
903.2687	1664.6984	64727.15	63845
903.4105	1666.4354	64786.6	63902.85
903.5522	1668.1717	64646	63764.35
903.6939	1669.9072	64419.55	63535.9
903.8356	1671.642	64455.7	63571.7
903.9773	1673.3761	64398.15	63518.35
904.119	1675.1094	64363.25	63478.75
904.2606	1676.8419	64141	63260.25
904.4022	1678.5737	64223.65	63338.9
904.5439	1680.3048	64136.45	63252.4
904.6855	1682.0351	64036.75	63155.55
904.827	1683.7646	63949.3	63064.3
904.9686	1685.4934	64044.5	63163.05
905.1101	1687.2215	63613.5	62730.9
905.2517	1688.9488	63901.5	63020.45
905.3932	1690.6754	63190.75	62310.3
905.5347	1692.4012	63585.95	62701.2
905.6761	1694.1263	63649.6	62766.35
905.8176	1695.8506	63296.1	62413.65
905.9591	1697.5742	63384.35	62503.45
906.1005	1699.297	63292.35	62409.55
906.2419	1701.0191	63344.55	62462.7
906.3833	1702.7404	62905.35	62025.8
906.5246	1704.461	62767.5	61883.55
906.666	1706.1808	63083.2	62199.3
906.8073	1707.8999	62880.7	61996.4
906.9487	1709.6182	62735.1	61852.1
907.09	1711.3358	62657.4	61776.05
907.2313	1713.0527	62596.75	61716.75
907.3725	1714.7688	62634.8	61745.55
907.5138	1716.4841	62062.75	61179.6
907.655	1718.1987	62229.75	61342.85
907.7962	1719.9126	62104	61222.85
907.9374	1721.6257	62232.8	61348.45
908.0786	1723.338	62247	61363.65
908.2198	1725.0496	61589.55	60707
908.3609	1726.7605	61678	60795.55
908.502	1728.4706	61453.55	60571.4
908.6431	1730.18	61709.8	60824.35
908.7842	1731.8886	61345.45	60463.4
908.9253	1733.5964	61189.95	60303.9
909.0664	1735.3036	61556.8	60671.5
909.2074	1737.0099	61273.8	60390.7
909.3484	1738.7156	60964	60084.95
909.4894	1740.4204	60847.05	59963.5
909.6304	1742.1246	60997.3	60114
909.7714	1743.8279	61039.7	60157.1
909.9123	1745.5306	60953.2	60071.15
910.0532	1747.2325	60077.2	59197.2
910.1941	1748.9336	60122.55	59239.6
910.335	1750.634	60342.85	59459.35
910.4759	1752.3336	60592.65	59712.75
910.6168	1754.0325	59940.55	59059.45
910.7576	1755.7307	60494.1	59614.85
910.8984	1757.4281	59682.85	58799.95
911.0392	1759.1247	60296.15	59405.15
911.18	1760.8206	59383.35	58497.9
911.3208	1762.5158	59479.15	58595.1
911.4615	1764.2102	59651.35	58770
911.6022	1765.9039	59430.45	58547.45
911.7429	1767.5968	59246.9	58364.55
911.8836	1769.289	59100.8	58219.15
912.0243	1770.9804	59203.7	58322.05
912.1649	1772.6711	59003.05	58121.35
912.3056	1774.361	58868.4	57985.6
912.4462	1776.0502	58853.55	57972.2
912.5868	1777.7386	58187.4	57304.75
912.7274	1779.4263	58481.4	57599.65
912.8679	1781.1132	58522.25	57640.65
913.0084	1782.7994	58358.15	57476.2
913.149	1784.4849	58355.2	57475.25
913.2895	1786.1696	57551.15	56665.3
913.4299	1787.8535	58040.2	57160.5
913.5704	1789.5367	58077	57196.55
913.7108	1791.2192	57562.5	56681.55
913.8513	1792.9009	57272.05	56361.35
913.9917	1794.5818	57602.45	56719.7
914.132	1796.2621	57109.75	56228.2
914.2724	1797.9415	57128.65	56246.75
914.4128	1799.6202	56983.95	56103.75
914.5531	1801.2982	57038.9	56157.15
914.6934	1802.9755	56576.7	55694.85
914.8337	1804.6519	56452.3	55571.35
914.9739	1806.3277	56983.75	56103.25
915.1142	1808.0027	55987.7	55106.4
915.2544	1809.6769	56299.95	55418.35
915.3946	1811.3504	56367.65	55484.75
915.5348	1813.0231	55632.95	54749.65
915.675	1814.6951	56100.45	55216.85
915.8151	1816.3664	55733.75	54849.2
915.9553	1818.0369	55739.15	54856.8
916.0954	1819.7067	55588.65	54709.2
916.2355	1821.3757	55930.15	55047.25
916.3755	1823.044	55307.4	54427.25
916.5156	1824.7115	55002.75	54122.65
916.6556	1826.3783	55110	54228.5
916.7956	1828.0443	55086.45	54206.05
916.9356	1829.7096	54837.75	53955.75
917.0756	1831.3741	54428.6	53543.7
917.2155	1833.0379	54603.75	53723.85
917.3555	1834.701	54528.45	53642.85
917.4954	1836.3633	54165.1	53283
917.6353	1838.0248	54337.95	53454.4
917.7751	1839.6856	54173.15	53291.45
917.915	1841.3457	53825.1	52945.65
918.0548	1843.005	54204.2	53322.15
918.1946	1844.6636	53880.8	53001.4
918.3344	1846.3214	53389.2	52507.75
918.4742	1847.9785	53502.7	52621.7
918.6139	1849.6349	53446.05	52563.1
918.7537	1851.2904	53714.9	52823.3
918.8934	1852.9453	53085.15	52203.3
919.0331	1854.5994	53231.4	52347.15
919.1727	1856.2528	53291.8	52405.4
919.3124	1857.9054	52852.65	51970.95
919.452	1859.5572	52698.95	51818.05
919.5916	1861.2083	52789.65	51907.85
919.7312	1862.8587	53161	52280.65
919.8708	1864.5084	52178.6	51298.05
920.0103	1866.1572	52545.65	51666
920.1498	1867.8054	51934.4	51054.05
920.2893	1869.4528	52219.75	51338.5
920.4288	1871.0994	51807.75	50926.9
920.5683	1872.7453	51719.75	50835.5
920.7077	1874.3905	51864.65	50979.15
920.8471	1876.0349	51477.05	50592.25
920.9865	1877.6786	51661.35	50779.75
921.1259	1879.3215	51377.1	50495.25
921.2653	1880.9637	51571	50686.55
921.4046	1882.6051	51209.3	50327.65
921.5439	1884.2458	51044.95	50161.05
921.6832	1885.8858	50763.45	49882.95
921.8225	1887.525	50839.85	49959.45
921.9617	1889.1634	50631.75	49751.5
922.101	1890.8011	50488.4	49607.1
922.2402	1892.4381	50127.1	49246.5
922.3794	1894.0743	50473.85	49591.3
922.5185	1895.7098	50190.5	49308.8
922.6577	1897.3446	49893.4	49009.95
922.7968	1898.9786	49904.6	49020.1
922.9359	1900.6118	49680.95	48801.2
923.075	1902.2443	49350.75	48467.6
923.214	1903.8761	49481.8	48600.5
923.3531	1905.5071	49175.1	48291.25
923.4921	1907.1374	48799.75	47918.4
923.6311	1908.7669	48920.35	48036.85
923.77	1910.3957	49001	48119.3
923.909	1912.0237	48516.1	47635.95
924.0479	1913.651	48380	47498.1
924.1868	1915.2776	48215.7	47336.65
924.3257	1916.9034	48189.05	47309.2
924.4646	1918.5285	47971.15	47092
924.6034	1920.1528	47800.1	46918.8
924.7422	1921.7764	47697.85	46818.05
924.881	1923.3992	47494.4	46614.55
925.0198	1925.0213	47244.85	46363.1
925.1586	1926.6427	46953.75	46073.05
925.2973	1928.2633	47032.45	46067.15
925.436	1929.8832	46832.25	45949.45
925.5747	1931.5023	46670.9	45788.3
925.7134	1933.1207	46411.85	45531.45
925.852	1934.7383	46485.5	45604.85
925.9906	1936.3552	46162.55	45281.1
926.1292	1937.9714	46093.05	45211.95
926.2678	1939.5868	45953.15	45069.65
926.4064	1941.2015	45621.95	44742.85
926.5449	1942.8154	45479	44598.15
926.6834	1944.4286	45373.75	44494.45
926.8219	1946.041	45168.3	44268.4
926.9604	1947.6528	44942.3	44056.1
927.0988	1949.2637	44854.8	43976.75
927.2372	1950.8739	44659.15	43777.7
927.3756	1952.4834	44597.2	43716.8
927.514	1954.0921	44504.35	43623.1
927.6523	1955.7001	44322.45	43439.5
927.7907	1957.3074	44270.75	43390.9
927.929	1958.9139	43990.85	43112.05
928.0673	1960.5197	43895.9	43015.2
928.2055	1962.1247	43758.5	42875.25
928.3438	1963.729	43496.95	42618.3
928.482	1965.3325	43354.75	42449
928.6202	1966.9353	43224.25	42346.35
928.7584	1968.5374	43044.3	42163
928.8965	1970.1387	42888.4	42007.45
929.0346	1971.7393	42816	41934.85
929.1727	1973.3392	42646.05	41766.75
929.3108	1974.9383	42525.2	41645.55
929.4489	1976.5366	42236.2	41355.7
929.5869	1978.1342	42205.95	41325.8
929.7249	1979.7311	42083.9	41204.3
929.8629	1981.3273	42003.9	41122.7
930.0009	1982.9227	41847.05	40963.85
930.1388	1984.5173	41666.65	40785
930.2767	1986.1112	41483.75	40603.6
930.4146	1987.7044	41488.7	40610.3
930.5525	1989.2968	41275.35	40393.6
930.6904	1990.8885	41239.4	40357.4
930.8282	1992.4795	41094.45	40213
930.966	1994.0697	40972.15	40092.05
931.1038	1995.6592	40810.65	39928.55
931.2415	1997.2479	40670.4	39791.05
931.3793	1998.8359	40573.65	39692.35
931.517	2000.4232	40391.15	39511.15
931.6547	2002.0097	40307.85	39429.45
931.7923	2003.5955	40128.1	39249
931.93	2005.1805	40079.55	39196.7
932.0676	2006.7648	39931.9	39051.3
932.2052	2008.3484	39840.15	38960.25
932.3427	2009.9312	39899.85	39016.2
932.4803	2011.5133	39592.2	38715.5
932.6178	2013.0946	39532.95	38652.4
932.7553	2014.6752	39407.4	38529.35
932.8928	2016.2551	39323.65	38441
933.0302	2017.8342	39215.4	38334.95
933.1676	2019.4126	39026.9	38148.25
933.305	2020.9902	38813.85	37934.1
933.4424	2022.5672	38768.7	37887.6
933.5798	2024.1433	38670.65	37786.3
933.7171	2025.7188	38523.75	37644.7
933.8544	2027.2935	38406.95	37524.3
933.9917	2028.8674	38262.45	37383.1
934.129	2030.4406	38131.85	37253.05
934.2662	2032.0131	37914.1	37035.65
934.4034	2033.5849	37882.6	36998.35
934.5406	2035.1559	37832.05	36952.35
934.6778	2036.7261	37746.85	36871.05
934.8149	2038.2957	37523.6	36644.2
934.952	2039.8645	37494.85	36614.85
935.0891	2041.4325	37521.65	36638.5
935.2262	2042.9998	37310.45	36430.7
935.3632	2044.5664	37256.8	36374.5
935.5002	2046.1323	37127.55	36248.4
935.6372	2047.6974	37010.8	36131.2
935.7742	2049.2617	36917.95	36037.2
935.9111	2050.8254	36848.3	35963.15
936.048	2052.3883	36775.5	35893.15
936.1849	2053.9504	36603.5	35723.45
936.3218	2055.5118	36575.55	35694.85
936.4586	2057.0725	36330.6	35447.3
936.5955	2058.6325	36304.7	35424.9
936.7323	2060.1917	36141.45	35264
936.869	2061.7502	36077.05	35193.75
937.0058	2063.3079	35905.55	35024.65
937.1425	2064.8649	35793.85	34910.55
937.2792	2066.4212	35702.25	34819.9
937.4159	2067.9767	35645.95	34764.9
937.5525	2069.5315	35450.05	34568.7
937.6891	2071.0856	35328.85	34449.2
937.8257	2072.6389	35196.15	34316.55
937.9623	2074.1915	34995.95	34119.55
938.0989	2075.7433	34849.7	33968.8
938.2354	2077.2945	34787.65	33908.2
938.3719	2078.8448	34704.4	33824.55
938.5084	2080.3945	34493.75	33615
938.6448	2081.9434	34510.5	33630.15
938.7812	2083.4916	34390.45	33509.8
938.9176	2085.039	34213.95	33333.65
939.054	2086.5857	34176.65	33295.25
939.1903	2088.1317	34082.85	33204.15
939.3267	2089.677	33994	33111.85
939.463	2091.2215	33877.05	32996.5
939.5992	2092.7652	33744.5	32862.4
939.7355	2094.3083	33672.8	32792.45
939.8717	2095.8506	33639.9	32761.75
940.0079	2097.3921	33637.6	32758.2
940.1441	2098.933	33518.75	32639.2
940.2802	2100.4731	33392	32512.4
940.4163	2102.0124	33349.6	32450.6
940.5524	2103.5511	33258	32379.2
940.6885	2105.089	33182.15	32302.3
940.8245	2106.6261	33101.95	32220.35
940.9606	2108.1626	32993.8	32111.35
941.0965	2109.6983	32970.85	32059.95
941.2325	2111.2332	32786.2	31905.25
941.3684	2112.7675	32725.2	31843.7
941.5044	2114.301	32644.2	31761.7
941.6403	2115.8337	32600.65	31721.3
941.7761	2117.3657	32495.25	31614.45
941.912	2118.897	32405.4	31524.2
942.0478	2120.4276	32266.45	31379.9
942.1835	2121.9575	32152.15	31272.7
942.3193	2123.4866	32127.3	31233.6
942.455	2125.0149	32020.75	31138.1
942.5907	2126.5426	31837.1	30955.55
942.7264	2128.0695	31761.9	30877.05
942.8621	2129.5956	31727.55	30847.4
942.9977	2131.1211	31627.95	30745.3
943.1333	2132.6458	31555.45	30678.3
943.2689	2134.1698	31476.1	30594.4
943.4044	2135.693	31378.7	30495.65
943.54	2137.2155	31315.85	30431.85
943.6755	2138.7373	31237.6	30358.15
943.8109	2140.2584	31146.95	30267.15
943.9464	2141.7787	31020.4	30135.65
944.0818	2143.2983	30902	30023.35
944.2172	2144.8171	30705.95	29827.15
944.3526	2146.3353	30666.2	29785.3
944.4879	2147.8527	30491.95	29612.2
944.6232	2149.3693	30472.55	29593.9
944.7585	2150.8853	30368.5	29489.35
944.8938	2152.4005	30210.5	29331.35
945.029	2153.9149	30200.9	29321.15
945.1642	2155.4287	30081.7	29201.95
945.2994	2156.9417	30025.65	29144.55
945.4346	2158.454	29964.65	29081.7
945.5697	2159.9655	29877.95	28997.3
945.7048	2161.4764	29795.65	28915.2
945.8399	2162.9865	29687.85	28805.8
945.9749	2164.4958	29574.65	28693.2
946.1099	2166.0045	29441.15	28560.25
946.2449	2167.5124	29494.75	28616.4
946.3799	2169.0195	29379.3	28499.1
946.5148	2170.526	29334.7	28452.35
946.6498	2172.0317	29144.05	28262.15
946.7846	2173.5367	29122.45	28241.2
946.9195	2175.0409	29001.25	28121.35
947.0543	2176.5445	29045.4	28167.8
947.1891	2178.0473	28890.35	28008.65
947.3239	2179.5494	28779.2	27897.35
947.4587	2181.0507	28635.8	27756
947.5934	2182.5513	28636.8	27757.25
947.7281	2184.0512	28527.5	27650.25
947.8628	2185.5504	28435.9	27555.85
947.9974	2187.0488	28266.35	27386.6
948.132	2188.5465	28177.55	27298.55
948.2666	2190.0435	28050.3	27168.05
948.4012	2191.5397	27937.9	27058.55
948.5357	2193.0353	27888.15	27009.15
948.6702	2194.5301	27753.85	26871.45
948.8047	2196.0241	27633.2	26753.55
948.9392	2197.5175	27572.8	26692.7
949.0736	2199.0101	27468.8	26586.75
949.208	2200.502	27350.85	26473.6
949.3424	2201.9931	27255.6	26372.15
949.4767	2203.4835	27159.35	26279.8
949.611	2204.9733	27119.05	26232.85
949.7453	2206.4622	27033.45	26155.9
949.8796	2207.9505	26904	26020.7
950.0138	2209.438	26812.2	25933.25
950.148	2210.9248	26762.8	25880
950.2822	2212.4109	26646.05	25767.4
950.4164	2213.8962	26541.6	25658.9
950.5505	2215.3809	26452.65	25570.05
950.6846	2216.8648	26392.4	25509.5
950.8186	2218.3479	26342.5	25459.15
950.9527	2219.8304	26174.7	25292.5
951.0867	2221.3121	26088.35	25205.15
951.2207	2222.7931	26004.2	25125.75
951.3546	2224.2733	25914.65	25034.75
951.4886	2225.7529	25868.25	24987.3
951.6225	2227.2317	25799.2	24915.6
951.7563	2228.7098	25753.3	24873.65
951.8902	2230.1872	25560.05	24679.35
952.024	2231.6638	25531.25	24650.55
952.1578	2233.1397	25418.6	24533.95
952.2916	2234.6149	25331.95	24451
952.4253	2236.0894	25278.85	24398.8
952.559	2237.5632	25203.15	24322.1
952.6927	2239.0362	25081.4	24201.25
952.8263	2240.5085	25012.5	24132.3
952.9599	2241.9801	24919.05	24039.3
953.0935	2243.4509	24858.3	23978.35
953.2271	2244.921	24790.55	23910
953.3606	2246.3904	24683.75	23800
953.4941	2247.8591	24598.4	23719.2
953.6276	2249.3271	24513.95	23632.55
953.7611	2250.7943	24442.05	23562.25
953.8945	2252.2608	24357	23478.65
954.0279	2253.7266	24283.75	23402.9
954.1612	2255.1917	24192.6	23312.35
954.2946	2256.656	24093.8	23212.2
954.4279	2258.1197	24051.95	23171.5
954.5612	2259.5826	24005.55	23123.1
954.6944	2261.0447	23938.65	23056.95
954.8276	2262.5062	23814.4	22933.55
954.9608	2263.9669	23798.85	22917.95
955.094	2265.4269	23718.8	22840.3
955.2271	2266.8862	23633.3	22753.4
955.3602	2268.3448	23606.35	22726.85
955.4933	2269.8026	23552.2	22671.8
955.6264	2271.2598	23440.65	22562
955.7594	2272.7162	23365.15	22485.15
955.8924	2274.1719	23323.4	22444.35
956.0253	2275.6268	23263.2	22383.8
956.1583	2277.0811	23193.45	22313.5
956.2912	2278.5346	23135.3	22256.1
956.4241	2279.9874	23041.15	22161.35
956.5569	2281.4395	22971.55	22093.6
956.6897	2282.8908	22883.3	21998.4
956.8225	2284.3414	22847.55	21966.25
956.9553	2285.7914	22747.95	21869.3
957.088	2287.2406	22694.5	21814.25
957.2207	2288.689	22664.8	21783.3
957.3534	2290.1368	22567.8	21687.05
957.486	2291.5838	22506.55	21624.05
957.6186	2293.0302	22420.1	21538.15
957.7512	2294.4758	22293.55	21412.95
957.8838	2295.9206	22231.25	21348.55
958.0163	2297.3648	22192.3	21313.2
958.1488	2298.8082	22153.9	21274.35
958.2813	2300.251	22071.9	21194.45
958.4137	2301.693	21997.3	21114.7
958.5461	2303.1343	21991.65	21111.9
958.6785	2304.5748	21881.55	21001.7
958.8108	2306.0147	21818.65	20938.5
958.9432	2307.4538	21725.35	20842.9
959.0754	2308.8922	21673.3	20794.85
959.2077	2310.3299	21608.7	20730.1
959.3399	2311.7669	21507.7	20629.75
959.4721	2313.2031	21448.2	20565.45
959.6043	2314.6387	21354.9	20473.55
959.7365	2316.0735	21287.9	20408.8
959.8686	2317.5076	21268	20388.45
960.0006	2318.941	21241.2	20361.4
960.1327	2320.3737	21159.7	20277.1
960.2647	2321.8056	21070.85	20189.2
960.3967	2323.2369	21007.5	20127.35
960.5287	2324.6674	20966.6	20085.35
960.6606	2326.0972	20875.6	19995.25
960.7925	2327.5263	20759.8	19879.2
960.9244	2328.9547	20709.45	19829.95
961.0562	2330.3823	20644.7	19762.6
961.1881	2331.8092	20654.4	19772.2
961.3198	2333.2355	20508.25	19627.85
961.4516	2334.661	20480.2	19598.7
961.5833	2336.0858	20454.05	19572.45
961.715	2337.5098	20395.05	19515.55
961.8467	2338.9332	20373.5	19489.95
961.9783	2340.3558	20262.55	19380.75
962.1099	2341.7778	20194.45	19315.7
962.2415	2343.199	20118	19233.75
962.373	2344.6195	20053.5	19174.45
962.5045	2346.0393	20007.45	19129
962.636	2347.4583	19937.6	19056
962.7675	2348.8767	19875.95	18996.85
962.8989	2350.2943	19816.9	18936.85
963.0303	2351.7113	19802.35	18922.5
963.1617	2353.1275	19704.85	18824.75
963.293	2354.543	19652.7	18763.65
963.4243	2355.9578	19595.4	18714.55
963.5556	2357.3718	19477.85	18597.6
963.6868	2358.7852	19396.15	18512.9
963.818	2360.1978	19343.4	18462.6
963.9492	2361.6098	19301.65	18422.4
964.0803	2363.021	19199.25	18315.45
964.2114	2364.4315	19174.45	18295.8
964.3425	2365.8413	19084.4	18202.65
964.4736	2367.2504	18993.15	18111.95
964.6046	2368.6587	18927.55	18047.45
964.7356	2370.0664	18837.65	17958.1
964.8666	2371.4733	18809.25	17927.6
964.9975	2372.8795	18758.15	17878.5
965.1284	2374.285	18686.55	17805.35
965.2593	2375.6899	18605.6	17726.75
965.3901	2377.0939	18505.9	17625.8
965.5209	2378.4973	18465.95	17586.65
965.6517	2379.9	18423.6	17544.35
965.7825	2381.3019	18356.4	17476.3
965.9132	2382.7032	18263.6	17384.55
966.0439	2384.1037	18216	17339
966.1745	2385.5035	18152.8	17273.7
966.3051	2386.9027	18059.65	17182.05
966.4357	2388.3011	18034.15	17149.5
966.5663	2389.6987	17960.15	17082.95
966.6968	2391.0957	17947.4	17067.4
966.8273	2392.492	17860.55	16983.4
966.9578	2393.8876	17763.85	16882.8
967.0882	2395.2824	17719.3	16838.95
967.2186	2396.6765	17644.75	16767.55
967.349	2398.07	17598.05	16719.45
967.4793	2399.4627	17557.9	16676.8
967.6097	2400.8547	17477.8	16596.95
967.7399	2402.246	17400.75	16515.95
967.8702	2403.6366	17285.45	16405.95
968.0004	2405.0265	17218.6	16339.8
968.1306	2406.4156	17168	16285.1
968.2607	2407.8041	17080.5	16198.6
968.3909	2409.1918	16997.6	16114.7
968.521	2410.5789	16974.8	16096.75
968.651	2411.9652	16917.85	16034.4
968.781	2413.3508	16833.1	15951.25
968.911	2414.7358	16761.95	15880.1
969.041	2416.12	16705.3	15824.15
969.1709	2417.5035	16676.45	15797.25
969.3008	2418.8863	16623.95	15744.45
969.4307	2420.2684	16552.1	15674.05
969.5606	2421.6497	16451.15	15571.1
969.6904	2423.0304	16372.55	15494.8
969.8201	2424.4104	16351.1	15469.9
969.9499	2425.7896	16306.65	15423.6
970.0796	2427.1682	16285.2	15405.9
970.2093	2428.546	16204.2	15323.5
970.3389	2429.9232	16155.45	15274.6
970.4685	2431.2996	16133.65	15252.4
970.5981	2432.6753	16083.35	15205.8
970.7277	2434.0503	16008.8	15131.65
970.8572	2435.4246	15915.1	15037.05
970.9867	2436.7982	15863.65	14981.9
971.1161	2438.1711	15851.2	14972.65
971.2456	2439.5433	15779.6	14897.55
971.375	2440.9148	15697.9	14818
971.5043	2442.2856	15622.95	14743.15
971.6336	2443.6557	15563.25	14682.55
971.7629	2445.025	15542.7	14661.9
971.8922	2446.3937	15505.5	14625.7
972.0214	2447.7617	15441.2	14561.15
972.1506	2449.1289	15421.7	14544.7
972.2798	2450.4955	15381.55	14501.65
972.4089	2451.8613	15336.45	14457.15
972.538	2453.2265	15274.1	14394.05
972.6671	2454.5909	15236.5	14356.75
972.7961	2455.9546	15215.9	14337.65
972.9251	2457.3177	15137.1	14256.45
973.0541	2458.68	15101.05	14219.95
973.1831	2460.0416	15071.35	14194.6
973.312	2461.4025	15029	14147.95
973.4408	2462.7627	14966.05	14075.05
973.5697	2464.1222	14920.1	14041.95
973.6985	2465.4811	14890.85	14008.85
973.8273	2466.8392	14841	13960.85
973.956	2468.1966	14814.3	13930.35
974.0847	2469.5533	14782.35	13899.2
974.2134	2470.9093	14713.35	13833
974.3421	2472.2645	14674.8	13794.25
974.4707	2473.6191	14611.4	13733.4
974.5993	2474.973	14540.35	13660.15
974.7278	2476.3262	14502.25	13622
974.8563	2477.6787	14478.2	13601.25
974.9848	2479.0305	14357.4	13477.45
975.1132	2480.3816	14319.85	13438.7
975.2417	2481.7319	14284.1	13403.7
975.37	2483.0816	14214.8	13331.55
975.4984	2484.4306	14160.8	13281
975.6267	2485.7789	14116.5	13239
975.755	2487.1264	14072.3	13193.3
975.8833	2488.4733	13990.9	13112.95
976.0115	2489.8195	13963.75	13076.8
976.1397	2491.165	13889.85	13006.95
976.2678	2492.5097	13843.5	12963.85
976.3959	2493.8538	13797.15	12917.55
976.524	2495.1972	13741.15	12860.7
976.6521	2496.5398	13687.6	12804.1
976.7801	2497.8818	13642.9	12761.35
976.9081	2499.2231	13600.7	12721.15
977.036	2500.5637	13541.85	12661.2
977.164	2501.9035	13522.35	12639.35
977.2918	2503.2427	13472.35	12588.65
977.4197	2504.5812	13393.8	12514.25
977.5475	2505.919	13413	12529.3
977.6753	2507.256	13351.6	12473.7
977.8031	2508.5924	13274.1	12394.9
977.9308	2509.9281	13217.4	12330.8
978.0585	2511.2631	13154.75	12275.15
978.1861	2512.5974	13143.2	12264.4
978.3137	2513.9309	13064.7	12186.3
978.4413	2515.2638	13046.15	12136.9
978.5689	2516.596	13030.35	12153.25
978.6964	2517.9275	12942.3	12061.45
978.8239	2519.2583	12918.55	12037.7
978.9513	2520.5884	12867.7	11987.9
979.0788	2521.9178	12798.35	11917.55
979.2062	2523.2465	12780.2	11900.75
979.3335	2524.5745	12713.55	11833.55
979.4608	2525.9018	12678.05	11798.9
979.5881	2527.2284	12639.85	11762.15
979.7154	2528.5543	12595.8	11714.95
979.8426	2529.8796	12555.35	11672.8
979.9698	2531.2041	12552.15	11671.45
980.0969	2532.5279	12492.3	11612.25
980.224	2533.851	12477.9	11596.85
980.3511	2535.1735	12433.95	11555.4
980.4781	2536.4952	12388.65	11509.7
980.6052	2537.8163	12396.8	11517.2
980.7321	2539.1366	12354.25	11476.2
980.8591	2540.4562	12293.35	11411.35
980.986	2541.7752	12256.85	11377.4
981.1129	2543.0935	12240.9	11360.45
981.2397	2544.411	12226	11345.55
981.3665	2545.7279	12185.45	11309.2
981.4933	2547.0441	12148.35	11269.6
981.62	2548.3596	12160.4	11278.7
981.7467	2549.6744	12110.35	11230.05
981.8734	2550.9885	12088.75	11201.65
982.0001	2552.3019	12047.35	11168.6
982.1267	2553.6146	12013.2	11132.35
982.2532	2554.9266	11970.45	11089.75
982.3798	2556.2379	11937.75	11054.75
982.5063	2557.5485	11894.75	11016.6
982.6327	2558.8585	11862.85	10974.95
982.7592	2560.1677	11829.95	10947
982.8856	2561.4762	11820.45	10940.9
983.0119	2562.7841	11809.6	10927.6
983.1383	2564.0913	11777.4	10899.75
983.2646	2565.3977	11745.35	10865.75
983.3908	2566.7035	11714.2	10835.7
983.517	2568.0086	11692.8	10813.6
983.6432	2569.313	11674.25	10792.75
983.7694	2570.6167	11649.3	10766.2
983.8955	2571.9197	11593.4	10714.8
984.0216	2573.222	11601.45	10718.75
984.1476	2574.5236	11559.7	10679.85
984.2737	2575.8246	11530.8	10650
984.3996	2577.1248	11472.9	10589.45
984.5256	2578.4244	11442.9	10563.4
984.6515	2579.7232	11463	10582.05
984.7774	2581.0214	11420.1	10516.8
984.9032	2582.3189	11400.2	10520.3
985.029	2583.6157	11363.8	10478.8
985.1548	2584.9118	11324.35	10444.4
985.2806	2586.2072	11307.2	10428.15
985.4063	2587.5019	11252.8	10374.3
985.5319	2588.7959	11211.95	10330.2
985.6576	2590.0893	11202.45	10319.7
985.7832	2591.3819	11184.1	10305.35
985.9087	2592.6739	11129.8	10250.55
986.0343	2593.9652	11090.55	10210.2
986.1597	2595.2557	11071.05	10191.1
986.2852	2596.5456	10984.25	10103.25
986.4106	2597.8348	10961.25	10083.4
986.536	2599.1234	10919.75	10037.95
986.6614	2600.4112	10892.05	10013.7
986.7867	2601.6983	10849.25	9966.8
986.912	2602.9848	10805.4	9925
987.0372	2604.2705	10769.95	9883.5
987.1624	2605.5556	10733.95	9853
987.2876	2606.84	10686.2	9806.15
987.4128	2608.1237	10642.95	9762
987.5379	2609.4067	10595.9	9716.1
987.6629	2610.689	10584.5	9696.75
987.788	2611.9707	10529	9647.2
987.913	2613.2516	10514.7	9630.1
988.0379	2614.5319	10434.1	9554.1
988.1629	2615.8115	10413.05	9530.8
988.2878	2617.0903	10371.6	9490.25
988.4126	2618.3685	10346.6	9467.3
988.5375	2619.6461	10282.55	9404.6
988.6622	2620.9229	10275	9397.35
988.787	2622.199	10231.15	9351.15
988.9117	2623.4745	10207	9327.45
989.0364	2624.7493	10159.65	9280.95
989.161	2626.0234	10125.75	9247.4
989.2857	2627.2968	10089.1	9209.7
989.4102	2628.5695	10034.2	9151.8
989.5348	2629.8415	10014.55	9136.15
989.6593	2631.1128	9975.8	9094.9
989.7837	2632.3835	9911.85	9035.65
989.9082	2633.6535	9873	8993.5
990.0326	2634.9228	9839.85	8962.4
990.1569	2636.1914	9800.7	8922.55
990.2812	2637.4593	9771	8885.7
990.4055	2638.7265	9755.35	8874.35
990.5298	2639.9931	9687.05	8806.55
990.654	2641.259	9694.8	8814
990.7782	2642.5242	9672.95	8793.2
990.9023	2643.7887	9638.25	8757.55
991.0264	2645.0525	9615.35	8737.2
991.1505	2646.3156	9554.6	8674.85
991.2745	2647.5781	9548.15	8668.35
991.3985	2648.8398	9508	8630.2
991.5225	2650.1009	9499.65	8583.7
991.6464	2651.3613	9447.05	8568
991.7703	2652.6211	9408.5	8528.85
991.8942	2653.8801	9359.25	8481.25
992.018	2655.1385	9364.1	8483.4
992.1418	2656.3961	9343.75	8465.05
992.2655	2657.6531	9328.05	8446.9
992.3892	2658.9094	9276.45	8397.95
992.5129	2660.1651	9264.2	8385
992.6366	2661.42	9251.25	8372.3
992.7602	2662.6743	9215.05	8333.6
992.8837	2663.9279	9192.35	8314.5
993.0073	2665.1808	9147.75	8269.5
993.1307	2666.433	9121	8239.45
993.2542	2667.6846	9099.1	8220.05
993.3776	2668.9354	9097.85	8214.25
993.501	2670.1856	9031.2	8151.1
993.6244	2671.4351	9021.6	8142.9
993.7477	2672.6839	9018.7	8138.5
993.8709	2673.9321	8976.5	8098.25
993.9942	2675.1795	8956.65	8077.45
994.1174	2676.4263	8904.35	8026.15
994.2405	2677.6724	8876.85	7999.85
994.3637	2678.9179	8884.25	8003.7
994.4868	2680.1626	8849.85	7971.25
994.6098	2681.4067	8820.3	7942.65
994.7328	2682.6501	8762.95	7883.2
994.8558	2683.8928	8756.7	7877.95
994.9788	2685.1348	8712.5	7834.2
995.1017	2686.3761	8662.85	7784.4
995.2245	2687.6168	8658.4	7778.45
995.3474	2688.8568	8636.05	7756.2
995.4702	2690.0961	8589.35	7710.45
995.5929	2691.3348	8582.8	7703.8
995.7156	2692.5727	8565.5	7685.5
995.8383	2693.81	8519.35	7640.9
995.961	2695.0466	8499.15	7619
996.0836	2696.2826	8446.1	7565.6
996.2062	2697.5178	8441.75	7561.05
996.3287	2698.7524	8414.7	7535.1
996.4512	2699.9863	8405.15	7524.45
996.5737	2701.2195	8349.7	7470.5
996.6961	2702.452	8333.15	7454.35
996.8185	2703.6839	8316.25	7434.3
996.9408	2704.9151	8294.65	7418.05
997.0631	2706.1456	8270	7388.8
997.1854	2707.3755	8233.95	7354.45
997.3077	2708.6046	8213.75	7333.15
997.4299	2709.8331	8193.75	7315.3
997.552	2711.0609	8150.05	7269.7
997.6742	2712.2881	8140.4	7261.4
997.7963	2713.5145	8095.25	7213.75
997.9183	2714.7403	8073.25	7195.7
998.0403	2715.9654	8073.1	7192.9
998.1623	2717.1899	8025.8	7145.55
998.2842	2718.4136	8026.9	7146.85
998.4062	2719.6367	8015.25	7135.55
998.528	2720.8591	7946.2	7061.45
998.6498	2722.0809	7955.4	7075
998.7716	2723.3019	7944.05	7061.65
998.8934	2724.5223	7897.8	7019.2
999.0151	2725.7421	7873.65	6993.6
999.1368	2726.9611	7857.4	6976.7
999.2584	2728.1795	7818.2	6935.85
999.38	2729.3972	7785	6905.75
999.5016	2730.6142	7753.4	6866.7
999.6231	2731.8306	7691.35	6810.1
999.7446	2733.0462	7667.65	6784.45
999.8661	2734.2612	7655	6771.7
999.9875	2735.4756	7590.55	6706.5
1000.1089	2736.6892	7553.45	6674.2
1000.2302	2737.9022	7527.8	6649.6
1000.3515	2739.1145	7490.05	6610.6
1000.4728	2740.3262	7460.05	6573.65
1000.594	2741.5372	7420.4	6541
1000.7152	2742.7475	7371.5	6490.5
1000.8363	2743.9571	7365.3	6484.5
1000.9575	2745.1661	7328.85	6444.4
1001.0785	2746.3744	7303.35	6423.6
1001.1996	2747.582	7274.95	6393.9
1001.3206	2748.7889	7255.15	6374
1001.4415	2749.9952	7228.4	6350.4
1001.5625	2751.2008	7201	6319.35
1001.6833	2752.4057	7174.5	6293.15
1001.8042	2753.61	7127.05	6247.35
1001.925	2754.8136	7137.45	6257.05
1002.0458	2756.0165	7105.75	6228.25
1002.1665	2757.2188	7072.65	6193.7
1002.2872	2758.4204	7019.1	6138
1002.4078	2759.6213	7015.55	6134
1002.5285	2760.8215	7017.15	6133.05
1002.649	2762.0211	6985.7	6103.8
1002.7696	2763.22	6947.5	6065
1002.8901	2764.4182	6939.35	6059.1
1003.0106	2765.6158	6901.6	6021.6
1003.131	2766.8127	6885.1	6004.5
1003.2514	2768.009	6857.9	5978.7
1003.3717	2769.2045	6854.15	5971.5
1003.492	2770.3994	6829.9	5950.1
1003.6123	2771.5936	6803.1	5922.9
1003.7325	2772.7872	6754.35	5879.2
1003.8527	2773.9801	6715.4	5835.9
1003.9729	2775.1723	6724.25	5826.5
1004.093	2776.3639	6697.65	5819.9
1004.2131	2777.5548	6664.5	5782.65
1004.3331	2778.745	6648.9	5769.3
1004.4531	2779.9346	6620	5738.7
1004.5731	2781.1235	6595.7	5715.35
1004.693	2782.3117	6608.1	5729.3
1004.8129	2783.4992	6567.85	5689.2
1004.9328	2784.6861	6524.4	5644.75
1005.0526	2785.8723	6525.6	5643.75
1005.1723	2787.0579	6498.2	5619.65
1005.2921	2788.2428	6503.7	5624.95
1005.4118	2789.427	6469.5	5589.8
1005.5314	2790.6106	6456.9	5578.85
1005.651	2791.7935	6438.05	5557.35
1005.7706	2792.9757	6412.65	5534.7
1005.8902	2794.1573	6388.75	5506.1
1006.0097	2795.3382	6380.35	5501.8
1006.1291	2796.5184	6346.85	5468.15
1006.2485	2797.698	6333.2	5452.75
1006.3679	2798.8769	6343.85	5463.65
1006.4873	2800.0551	6335.55	5456.8
1006.6066	2801.2327	6320.7	5438.05
1006.7258	2802.4096	6310.6	5432.2
1006.8451	2803.5859	6265.85	5387.4
1006.9642	2804.7615	6277.15	5397.15
1007.0834	2805.9364	6268.05	5389.4
1007.2025	2807.1106	6259.75	5381.6
1007.3216	2808.2842	6257.85	5377.5
1007.4406	2809.4572	6249.9	5370.3
1007.5596	2810.6294	6242.5	5361.1
1007.6785	2811.801	6267.55	5390.65
1007.7975	2812.972	6274	5397.05
1007.9163	2814.1423	6275.65	5395.35
1008.0352	2815.3119	6295.3	5416.3
1008.154	2816.4808	6314.25	5434.8
1008.2727	2817.6491	6355.25	5474.8
1008.3914	2818.8167	6367.75	5491.05
1008.5101	2819.9837	6403.7	5519.25
1008.6288	2821.15	6395.3	5517.25
1008.7474	2822.3157	6436.8	5559.9
1008.8659	2823.4807	6448.65	5569.2
1008.9844	2824.645	6492.75	5612.6
1009.1029	2825.8086	6520.45	5642
1009.2214	2826.9716	6552.65	5674.9
1009.3398	2828.134	6557.45	5678.2
1009.4581	2829.2957	6570.5	5690.1
1009.5764	2830.4567	6589	5710.2
1009.6947	2831.617	6607.2	5727.85
1009.813	2832.7767	6602.7	5724
1009.9312	2833.9358	6580.45	5701.6
1010.0493	2835.0941	6574.95	5692.85
1010.1675	2836.2519	6541.35	5664.55
1010.2855	2837.4089	6494.1	5613.95
1010.4036	2838.5653	6493.65	5616.3
1010.5216	2839.7211	6459.2	5582.6
1010.6396	2840.8761	6461.3	5579.25
1010.7575	2842.0306	6450.75	5572.1
1010.8754	2843.1843	6468.5	5588.65
1010.9932	2844.3374	6475.9	5597.85
1011.111	2845.4899	6493.3	5613.1
1011.2288	2846.6417	6516.85	5638.5
1011.3465	2847.7928	6544.05	5667.6
1011.4642	2848.9433	6588.8	5708.75
1011.5818	2850.0931	6627.1	5748.55
1011.6995	2851.2422	6665.4	5784.6
1011.817	2852.3907	6684.25	5803.7
1011.9345	2853.5385	6712.35	5831.25
1012.052	2854.6857	6754.2	5866.25
1012.1695	2855.8323	6756.25	5880.5
1012.2869	2856.9781	6771.3	5892.5
1012.4042	2858.1233	6784.25	5903.75
1012.5216	2859.2679	6789.65	5910.55
1012.6389	2860.4118	6848.15	5969
1012.7561	2861.555	6858.7	5975.85
1012.8733	2862.6976	6876.25	5996.95
1012.9905	2863.8395	6879.65	6000
1013.1076	2864.9808	6877.6	5999.5
1013.2247	2866.1214	6892.25	6015.9
1013.3417	2867.2614	6871.8	5992.85
1013.4587	2868.4007	6873.5	5992.85
1013.5757	2869.5393	6863.9	5982.55
1013.6926	2870.6773	6845	5964.15
1013.8095	2871.8146	6852.05	5969.2
1013.9263	2872.9513	6815.15	5932.85
1014.0431	2874.0874	6788.25	5910.45
1014.1599	2875.2227	6779.3	5899.3
1014.2766	2876.3574	6723	5844.4
1014.3933	2877.4915	6696.75	5818.7
1014.51	2878.6249	6653.1	5775.4
1014.6266	2879.7577	6637.3	5757.55
1014.7431	2880.8898	6598.1	5709.05
1014.8596	2882.0212	6561.6	5684.2
1014.9761	2883.152	6531.05	5653.5
1015.0925	2884.2821	6501.7	5624.35
1015.2089	2885.4116	6496.2	5620.15
1015.3253	2886.5405	6469.4	5590.9
1015.4416	2887.6686	6466.25	5585.45
1015.5579	2888.7962	6450.45	5573.5
1015.6741	2889.923	6423.55	5546.25
1015.7903	2891.0493	6432.5	5554.6
1015.9065	2892.1748	6416.8	5537.8
1016.0226	2893.2997	6385.85	5506.5
1016.1387	2894.424	6392.35	5514.4
1016.2547	2895.5476	6388.6	5509.35
1016.3707	2896.6706	6378.95	5503.05
1016.4866	2897.7929	6391.25	5512.85
1016.6025	2898.9145	6373.55	5496.15
1016.7184	2900.0355	6413.2	5533.4
1016.8342	2901.1559	6398	5518.5
1016.95	2902.2756	6411.8	5533.05
1017.0658	2903.3946	6405.6	5525.7
1017.1815	2904.513	6415.05	5533.2
1017.2971	2905.6308	6419.2	5540.9
1017.4127	2906.7479	6418.95	5540.3
1017.5283	2907.8643	6423.4	5543.95
1017.6439	2908.9801	6433.5	5553.75
1017.7594	2910.0953	6416.6	5539.85
1017.8748	2911.2098	6390.4	5507.55
1017.9902	2912.3236	6368.4	5480.9
1018.1056	2913.4368	6351.85	5472.35
1018.2209	2914.5494	6315.95	5435.6
1018.3362	2915.6613	6278.5	5392.8
1018.4515	2916.7725	6235.7	5355
1018.5667	2917.8831	6216.2	5335.95
1018.6819	2918.9931	6173.2	5290.9
1018.797	2920.1024	6129.15	5248.05
1018.9121	2921.211	6126.45	5248.15
1019.0271	2922.319	6100.15	5220.95
1019.1421	2923.4264	6065.35	5188.2
1019.2571	2924.5331	6047.85	5171.4
1019.372	2925.6391	6026.3	5149.8
1019.4869	2926.7445	6006.95	5129.8
1019.6017	2927.8493	6007.05	5126.7
1019.7165	2928.9534	5980.55	5101.05
1019.8313	2930.0569	5974.05	5091.6
1019.946	2931.1597	5965.8	5086.1
1020.0606	2932.2619	5934.35	5056.7
1020.1753	2933.3634	5944.25	5065.35
1020.2899	2934.4643	5937.9	5052.3
1020.4044	2935.5645	5901.35	5018.75
1020.5189	2936.6641	5873.05	4989.15
1020.6334	2937.763	5817.2	4942.05
1020.7478	2938.8613	5789.4	4909
1020.8622	2939.959	5739.35	4855.85
1020.9765	2941.056	5684.1	4803.7
1021.0908	2942.1523	5614.05	4734.15
1021.2051	2943.248	5540	4661.35
1021.3193	2944.3431	5456	4578.85
1021.4334	2945.4375	5361.95	4481.55
1021.5476	2946.5313	5264.1	4388.7
1021.6617	2947.6244	5179.5	4300.4
1021.7757	2948.7169	5081.35	4201.5
1021.8897	2949.8087	5015.35	4135.15
1022.0037	2950.8999	4915	4033.9
1022.1176	2951.9904	4854.5	3977.35
1022.2315	2953.0803	4790.25	3911.25
1022.3453	2954.1696	4733.45	3856.7
1022.4591	2955.2582	4683.2	3805.35
1022.5728	2956.3462	4626.05	3746.35
1022.6865	2957.4335	4577.95	3697.9
1022.8002	2958.5202	4550.65	3671.7
1022.9138	2959.6062	4508.2	3630.5
1023.0274	2960.6916	4490.55	3611.75
1023.141	2961.7764	4444.85	3565.4
1023.2545	2962.8605	4428	3548.65
1023.3679	2963.9439	4399.6	3521.25
1023.4813	2965.0267	4382.2	3503.15
1023.5947	2966.1089	4389.7	3488.15
1023.708	2967.1905	4343.5	3463.85
1023.8213	2968.2714	4314.35	3436.45
1023.9346	2969.3516	4305.65	3426
1024.0478	2970.4312	4307.2	3422.05
1024.1609	2971.5102	4305.85	3426.5
1024.274	2972.5885	4289.9	3411.55
1024.3871	2973.6662	4284.55	3402
1024.5002	2974.7432	4257.25	3378.55
1024.6132	2975.8196	4245.2	3366.5
1024.7261	2976.8954	4229.95	3352.35
1024.839	2977.9705	4206.6	3328.25
1024.9519	2979.045	4183.75	3306.5
1025.0647	2980.1188	4179.95	3302.1
1025.1775	2981.192	4133.65	3254.95
1025.2902	2982.2645	4114.6	3236
1025.4029	2983.3364	4084.9	3207.1
1025.5156	2984.4077	4050.1	3173.3
1025.6282	2985.4783	4037	3154.55
1025.7407	2986.5483	4007.9	3129.45
1025.8532	2987.6177	3977.15	3098.75
1025.9657	2988.6864	3932.7	3053.2
1026.0782	2989.7545	3885.25	3003.3
1026.1906	2990.8219	3856.95	2977.8
1026.3029	2991.8887	3827.4	2946.6
1026.4152	2992.9548	3795.15	2915.1
1026.5275	2994.0204	3764.85	2887.5
1026.6397	2995.0852	3729.3	2852.1
1026.7519	2996.1495	3693.95	2816.7
1026.864	2997.2131	3672.55	2792.25
1026.9761	2998.276	3631.5	2752.3
1027.0882	2999.3383	3627.3	2747.4
1027.2002	3000.4	3597.65	2719.05
1027.3122	3001.4611	3575.1	2695.45
1027.4241	3002.5215	3553.7	2675.05
1027.536	3003.5812	3517.15	2637.9
1027.6478	3004.6404	3498.05	2617.7
1027.7596	3005.6989	3487.1	2605.9
1027.8714	3006.7567	3474.45	2596.3
1027.9831	3007.8139	3476.2	2565.7
1028.0947	3008.8705	3436.35	2556.9
1028.2064	3009.9264	3428.2	2547.95
1028.3179	3010.9818	3401.15	2523.75
1028.4295	3012.0364	3395.7	2516.4
1028.541	3013.0905	3371.05	2492.65
1028.6524	3014.1439	3378.5	2499.55
1028.7638	3015.1966	3346.55	2469
1028.8752	3016.2487	3340.4	2461.5
1028.9865	3017.3002	3331.55	2450.05
1029.0978	3018.3511	3321	2442.55
1029.209	3019.4013	3309.45	2432.05
1029.3202	3020.4509	3307.35	2429.9
1029.4314	3021.4998	3306.6	2428.85
1029.5425	3022.5481	3284.65	2406
1029.6535	3023.5958	3274.25	2394.95
1029.7645	3024.6428	3257.3	2378.8
1029.8755	3025.6892	3258.8	2382.2
1029.9864	3026.735	3247.7	2369.25
1030.0973	3027.7802	3235.45	2355.8
1030.2082	3028.8247	3212.9	2336.85
1030.319	3029.8685	3206.25	2326.55
1030.4297	3030.9118	3199	2320.75
1030.5404	3031.9544	3179.5	2301.05
1030.6511	3032.9963	3185.95	2307.55
1030.7617	3034.0376	3171.2	2293.1
1030.8723	3035.0783	3187.55	2306.95
1030.9829	3036.1184	3184.05	2304.65
1031.0934	3037.1578	3172.6	2294
1031.2038	3038.1966	3153.25	2271.75
1031.3142	3039.2348	3154.5	2277.5
1031.4246	3040.2723	3146.2	2259.25
1031.5349	3041.3092	3134.65	2259.8
1031.6452	3042.3455	3127.45	2249.9
1031.7554	3043.3811	3112.95	2233.8
1031.8656	3044.4161	3095.45	2216.9
1031.9758	3045.4505	3087.7	2210.45
1032.0859	3046.4842	3074.75	2195
1032.1959	3047.5173	3066.3	2188.55
1032.3059	3048.5498	3054.35	2176.8
1032.4159	3049.5816	3044.5	2167.2
1032.5258	3050.6128	3034.05	2153.2
1032.6357	3051.6434	3037.1	2157.4
1032.7455	3052.6734	3008.8	2130.45
1032.8553	3053.7027	3013.7	2135.35
1032.9651	3054.7314	3000.05	2120.7
1033.0748	3055.7594	2982.35	2105.2
1033.1845	3056.7868	2976.45	2097.45
1033.2941	3057.8136	2968.8	2092.45
1033.4037	3058.8398	2952.05	2071.65
1033.5132	3059.8653	2953.4	2072.9
1033.6227	3060.8902	2935.65	2056.05
1033.7321	3061.9145	2922.15	2043.6
1033.8415	3062.9381	2912.3	2034.3
1033.9509	3063.9612	2906.15	2010.9
1034.0602	3064.9835	2889.8	2012.15
1034.1694	3066.0053	2887.8	2007.9
1034.2787	3067.0264	2885.35	2005.85
1034.3878	3068.0469	2866.95	1987.9
1034.497	3069.0668	2861.35	1979.5
1034.6061	3070.086	2841.35	1964.9
1034.7151	3071.1046	2835.1	1956.15
1034.8241	3072.1226	2830	1950.15
1034.9331	3073.1399	2809.55	1930.25
1035.042	3074.1567	2793.7	1916.1
1035.1508	3075.1727	2791.95	1911.85
1035.2597	3076.1882	2770.25	1891.8
1035.3684	3077.203	2759.1	1881.3
1035.4772	3078.2173	2738.3	1856.7
1035.5859	3079.2308	2720	1839.45
1035.6945	3080.2438	2719.35	1837.65
1035.8031	3081.2561	2706.6	1828.5
1035.9117	3082.2678	2700.6	1819.9
1036.0202	3083.2789	2691.85	1813.05
1036.1286	3084.2893	2678.25	1800.6
1036.2371	3085.2991	2669	1791.15
1036.3454	3086.3083	2652.8	1769.75
1036.4538	3087.3169	2642.6	1764.6
1036.562	3088.3248	2627.65	1748.25
1036.6703	3089.3321	2622.15	1740.5
1036.7785	3090.3388	2603.35	1727.05
1036.8866	3091.3449	2595.15	1717.35
1036.9948	3092.3503	2590	1709.6
1037.1028	3093.3551	2584.2	1706.35
1037.2108	3094.3593	2582.55	1704.85
1037.3188	3095.3629	2561.1	1683
1037.4267	3096.3658	2550.5	1674
1037.5346	3097.3681	2553.5	1673.2
1037.6425	3098.3698	2540.2	1660.05
1037.7503	3099.3708	2531.6	1645.45
1037.858	3100.3713	2519.95	1642.25
1037.9657	3101.3711	2510	1631
1038.0734	3102.3702	2605.5	1590.65
1038.181	3103.3688	2501.9	1623.7
1038.2886	3104.3667	2467.9	1592.35
1038.3961	3105.364	2464.05	1586.55
1038.5036	3106.3607	2452.25	1573.15
1038.611	3107.3568	2442.75	1563
1038.7184	3108.3522	2434.2	1557.05
1038.8257	3109.347	2430.05	1552.4
1038.933	3110.3412	2425.05	1542.95
1039.0403	3111.3348	2408.45	1531.45
1039.1475	3112.3277	2398.25	1519.9
1039.2547	3113.32	2396.25	1518.4
1039.3618	3114.3117	2384.55	1505.8
1039.4689	3115.3028	2377.85	1500.5
1039.5759	3116.2932	2358.7	1478
1039.6829	3117.2831	2355.15	1469.7
1039.7898	3118.2723	2353.55	1473.35
1039.8967	3119.2608	2333.25	1457.4
1040.0035	3120.2488	2343.15	1463.1
1040.1103	3121.2361	2333.5	1453.8
1040.2171	3122.2229	2318.05	1439.85
1040.3238	3123.209	2312.85	1433.8
1040.4305	3124.1944	2307.25	1431.25
1040.5371	3125.1793	2300.55	1420.8
1040.6437	3126.1635	2287	1408.65
1040.7502	3127.1471	2272.95	1396.05
1040.8567	3128.1301	2278.85	1401.5
1040.9631	3129.1125	2270.6	1394.4
1041.0695	3130.0942	2258.55	1381.35
1041.1759	3131.0753	2256.2	1370.05
1041.2822	3132.0558	2253.4	1373.6
1041.3884	3133.0357	2234.75	1354.5
1041.4946	3134.015	2238.75	1360.05
1041.6008	3134.9936	2240.35	1358.75
1041.7069	3135.9716	2237.15	1338.4
1041.813	3136.949	2214.45	1335.35
1041.919	3137.9258	2206	1322.35
1042.025	3138.902	2207.55	1325.05
1042.1309	3139.8775	2199.95	1322.95
1042.2368	3140.8524	2190.95	1312.5
1042.3427	3141.8267	2187.3	1305.85
1042.4485	3142.8004	2181.8	1301.55
1042.5542	3143.7735	2182.45	1298.55
1042.6599	3144.7459	2168.85	1287.85
1042.7656	3145.7178	2168.7	1291.35
1042.8712	3146.689	2160.1	1282.8
1042.9768	3147.6596	2145.7	1267.05
1043.0823	3148.6295	2144.05	1266.4
1043.1878	3149.5989	2132.85	1255.75
1043.2932	3150.5676	2119.8	1242.85
1043.3986	3151.5357	2110.35	1233.95
1043.5039	3152.5032	2116	1237.45
1043.6092	3153.4701	2098.65	1220.8
1043.7145	3154.4364	2090.9	1210.9
1043.8197	3155.402	2095.65	1219.55
1043.9248	3156.367	2084.3	1206.2
1044.03	3157.3315	2112.8	1195.1
1044.135	3158.2952	2079.55	1201.45
1044.24	3159.2584	2066.3	1190.05
1044.345	3160.221	2069.1	1189.4
1044.4499	3161.1829	2049.45	1169.9
1044.5548	3162.1442	2042.35	1164.9
1044.6596	3163.105	2043.55	1166.5
1044.7644	3164.065	2029.1	1149.1
1044.8692	3165.0245	2031.5	1151.7
1044.9739	3165.9834	2019.3	1142.55
1045.0785	3166.9416	2017.8	1140.2
1045.1831	3167.8993	2012.75	1135.2
1045.2877	3168.8563	2001.55	1122.6
1045.3922	3169.8127	2001.3	1123.45
1045.4966	3170.7684	1990.5	1114.3
1045.6011	3171.7236	1986.85	1106.45
1045.7054	3172.6782	1973.65	1096.3
1045.8098	3173.6321	1974.8	1094.5
1045.914	3174.5854	1960.05	1077.15
1046.0183	3175.5381	1963.95	1086.45
1046.1224	3176.4902	1954.65	1076.35
1046.2266	3177.4417	1951.5	1073.15
1046.3307	3178.3926	1941.4	1063.15
1046.4347	3179.3428	1928.9	1052.05
1046.5387	3180.2924	1927.05	1049.05
1046.6427	3181.2415	1918.5	1041.4
1046.7466	3182.1899	1920.95	1041.15
1046.8504	3183.1377	1921.15	1045.6
1046.9542	3184.0848	1911.8	1030
1047.058	3185.0314	1900.45	1021.2
1047.1617	3185.9773	1888.55	1010.85
1047.2654	3186.9227	1880.35	1002.35
1047.369	3187.8674	1879	1000.65
1047.4726	3188.8115	1883.4	1001.25
1047.5761	3189.755	1881.45	1004.65
1047.6796	3190.6979	1865.95	986.95
1047.783	3191.6402	1862.3	984.6
1047.8864	3192.5818	1869.2	991.75
1047.9898	3193.5229	1869.8	973.7
1048.0931	3194.4633	1850.2	972.4
1048.1963	3195.4031	1843.75	963.65
1048.2995	3196.3423	1841.75	965
1048.4027	3197.2809	1832.8	955.3
1048.5058	3198.2189	1830.1	950.9
1048.6089	3199.1563	1844.45	945.25
1048.7119	3200.0931	1816.15	939.9
1048.8148	3201.0292	1803.85	927.75
1048.9178	3201.9648	1808	930.75
1049.0206	3202.8997	1813.05	930.25
1049.1235	3203.834	1801.85	923.95
1049.2262	3204.7677	1790.85	912.9
1049.329	3205.7008	1791.85	910.25
1049.4317	3206.6333	1784.5	908.7
1049.5343	3207.5652	1788.65	908.05
1049.6369	3208.4964	1782.15	903.3
1049.7394	3209.4271	1776.1	898.9
1049.8419	3210.3571	1768.1	890.7
1049.9444	3211.2865	1764.05	886.25
1050.0468	3212.2154	1766.9	888.9
1050.1491	3213.1436	1756.3	874.7
1050.2514	3214.0712	1756.45	873.7
1050.3537	3214.9982	1741.5	864.35
1050.4559	3215.9246	1739.85	861.2
1050.5581	3216.8503	1741.7	864.15
1050.6602	3217.7755	1735.65	857.6
1050.7623	3218.7001	1729.45	852.4
1050.8643	3219.624	1725.55	846.45
1050.9663	3220.5473	1717.2	840.2
1051.0682	3221.4701	1716.05	837.6
1051.1701	3222.3922	1712.95	834.7
1051.2719	3223.3137	1699.05	821.6
1051.3737	3224.2346	1694.9	817.35
1051.4754	3225.1549	1695.2	818.05
1051.5771	3226.0746	1698.85	821.55
1051.6788	3226.9937	1687.9	809.2
1051.7804	3227.9121	1683.3	807.65
1051.8819	3228.83	1691.15	813
1051.9834	3229.7473	1680.45	802.35
1052.0849	3230.6639	1671.25	792
1052.1863	3231.5799	1665	786.2
1052.2876	3232.4954	1661.1	784
1052.3889	3233.4102	1639.95	761.4
1052.4902	3234.3244	1650.9	772.35
1052.5914	3235.238	1646.7	768.65
1052.6926	3236.151	1672.55	769.4
1052.7937	3237.0634	1638.15	761.55
1052.8948	3237.9752	1630.45	752.1
1052.9958	3238.8864	1627.1	749.55
1053.0968	3239.797	1623.35	746.25
1053.1977	3240.7069	1624.85	747.05
1053.2986	3241.6163	1610.85	731.4
1053.3994	3242.5251	1605.15	728.45
1053.5002	3243.4332	1606.4	727.9
1053.6009	3244.3408	1601.75	724.35
1053.7016	3245.2477	1586.3	707.8
1053.8022	3246.154	1595.4	717.3
1053.9028	3247.0598	1597.05	718.35
1054.0034	3247.9649	1588.45	712.35
1054.1039	3248.8694	1587.5	709.1
1054.2043	3249.7733	1568.1	690
1054.3047	3250.6766	1572.75	694.4
1054.4051	3251.5793	1572.5	693.2
1054.5054	3252.4814	1553.85	674.4
1054.6056	3253.3829	1561.2	683.4
1054.7058	3254.2838	1562.95	685.15
1054.806	3255.1841	1549.4	670.75
1054.9061	3256.0838	1545.95	671.4
1055.0061	3256.9829	1546.2	668.85
1055.1062	3257.8814	1538	657.45
1055.2061	3258.7792	1533.15	652.55
1055.306	3259.6765	1520.55	641.3
1055.4059	3260.5731	1513.15	634.25
1055.5057	3261.4692	1504.55	626.5
1055.6055	3262.3647	1501.95	622.9
1055.7052	3263.2595	1488.6	610.85
1055.8049	3264.1538	1490.05	614.25
1055.9045	3265.0474	1476.65	596.7
1056.0041	3265.9404	1462.5	584.55
1056.1036	3266.8329	1454.6	578.5
1056.2031	3267.7247	1456.65	567.4
1056.3025	3268.616	1424.7	546.7
1056.4019	3269.5066	1410.3	532.8
1056.5013	3270.3966	1404.6	523.95
1056.6005	3271.286	1385.55	507.15
