Software Version:	3.9.2.0
Unit SN:	10000200
Spectrometer SN:	6960
Date:	3/6/2024 9:41:34 AM
Data Line Index:	25
Spectral Points:	2048
Integration time (ms):	125
Averages:	20
Delay (ms):	30
Sequence Number:	1
Processing:	dark subtract
Laser Power (mW):	305
Laser Current (mA):	825
Laser Diode Temp (C):	25
Laser Case Temp (C):	24
System Temp (C):	23.8
Spectrometer Temp (C):	21.4
CCD Temp (C):	-0.024
Secondary Temp (C):	20.007
Heatsink Temp (C):	17.366
CCDPCB Temp (C):	30.538
SecondaryPCB Temp (C):	25.413

Wavelength	RamanShift	Raw Counts	Dark Subtracted
787.061	30.1047	465.4	59.15
787.2016	32.3739	464.35	57.95
787.3422	34.6426	468.6	61.25
787.4828	36.9109	474.1	65.75
787.6235	39.1787	481.7	70.4
787.7642	41.4461	488.6	72.65
787.9049	43.7131	498.8	78.9
788.0456	45.9796	505.25	84.6
788.1863	48.2456	516.1	89.05
788.3271	50.5112	522.2	91
788.4679	52.7764	529.45	96.5
788.6087	55.0411	542.7	106.85
788.7496	57.3054	554.45	112.55
788.8904	59.5692	558.45	114.55
789.0313	61.8326	569.5	123.2
789.1722	64.0955	582.4	134.9
789.3132	66.3579	599.45	145.05
789.4541	68.6199	613.5	155.85
789.5951	70.8815	645.25	183.05
789.7361	73.1426	709.45	244.1
789.8771	75.4032	857.4	387.45
790.0181	77.6634	1240.15	767.85
790.1592	79.9231	2142.7	1670.35
790.3003	82.1824	4048	3568.35
790.4414	84.4412	7439.1	6951.9
790.5825	86.6995	11996.2	11499.8
790.7237	88.9574	16495.65	15992.05
790.8648	91.2148	19751	19246.25
791.006	93.4717	21570.05	21058.35
791.1472	95.7282	22348.45	21835.1
791.2885	97.9842	22745.45	22233.4
791.4297	100.2398	22886.25	22368.3
791.571	102.4949	22961.55	22440.15
791.7123	104.7495	22968.55	22444.85
791.8536	107.0036	22967.85	22442.75
791.9949	109.2573	22969.05	22445.15
792.1363	111.5105	23018.25	22490.7
792.2777	113.7632	22973.3	22442.65
792.4191	116.0154	23005.5	22466.15
792.5605	118.2672	23113.45	22579.25
792.7019	120.5185	23104.75	22571.4
792.8434	122.7693	23131.65	22591.05
792.9849	125.0197	23190.3	22646.35
793.1264	127.2696	23178.15	22630.7
793.2679	129.519	23302.8	22753.9
793.4094	131.7679	23326.85	22774.55
793.551	134.0163	23429.95	22875.65
793.6926	136.2642	23440.95	22884.05
793.8342	138.5117	23452	22890.3
793.9758	140.7587	23493.6	22932.35
794.1175	143.0052	23499.5	22935.45
794.2591	145.2512	23462.25	22896.8
794.4008	147.4967	23478.65	22910.9
794.5425	149.7417	23449.15	22878.2
794.6842	151.9863	23467.65	22893.2
794.826	154.2304	23491.95	22914.65
794.9677	156.4739	23464.85	22881.15
795.1095	158.717	23473.85	22891.4
795.2513	160.9596	23499.95	22911.7
795.3931	163.2017	23547.3	22957
795.535	165.4433	23564.8	22972.85
795.6768	167.6844	23536.6	22943.05
795.8187	169.925	23568.15	22970.85
795.9606	172.1651	23530.3	22928.7
796.1025	174.4047	23587.5	22982.7
796.2445	176.6439	23554.5	22946.1
796.3864	178.8825	23521.25	22910.4
796.5284	181.1206	23617.65	23002.8
796.6704	183.3582	23639.8	23022.5
796.8124	185.5954	23652	23033.9
796.9544	187.832	23658.5	23034.2
797.0965	190.0681	23719.8	23094.4
797.2386	192.3037	23796.95	23166.35
797.3806	194.5388	23813.3	23182
797.5228	196.7734	23882.9	23250.4
797.6649	199.0075	23967.5	23336.55
797.807	201.2411	24046.5	23411.05
797.9492	203.4742	24135.95	23497.15
798.0914	205.7068	24198.05	23554.5
798.2336	207.9389	24216	23573.65
798.3758	210.1704	24295	23663.15
798.518	212.4015	24238.05	23616.1
798.6603	214.632	24358.6	23737.75
798.8025	216.862	24361.65	23743.3
798.9448	219.0915	24396	23773.3
799.0871	221.3205	24498.45	23874.3
799.2294	223.549	24488.85	23869.75
799.3718	225.777	24538.65	23917.3
799.5141	228.0044	24590.5	23959
799.6565	230.2314	24643.65	24013.35
799.7989	232.4578	24646.65	24007.5
799.9413	234.6837	24659.75	24013.6
800.0837	236.909	24734.9	24087.15
800.2262	239.1339	24723.8	24050.7
800.3687	241.3582	24764.75	24109.6
800.5111	243.582	24760.6	24073.9
800.6536	245.8053	24832.75	24161
800.7961	248.0281	24829.65	24162.15
800.9387	250.2503	24843.85	24172.3
801.0812	252.472	24895.4	24222.4
801.2238	254.6932	24949.5	24276
801.3664	256.9139	24888.7	24214.3
801.509	259.134	24935.2	24259.15
801.6516	261.3536	24927.35	24253.5
801.7942	263.5727	25035.6	24359.5
801.9369	265.7912	25002.7	24323.6
802.0795	268.0092	25043.45	24368
802.2222	270.2267	25050.65	24372
802.3649	272.4436	25159.15	24476.85
802.5076	274.6601	25172.75	24480.35
802.6504	276.8759	25135.4	24448
802.7931	279.0913	25220.9	24534.85
802.9359	281.3061	25217.25	24527.4
803.0787	283.5204	25282.95	24589.4
803.2215	285.7341	25322.3	24629.8
803.3643	287.9473	25349.4	24643.35
803.5071	290.16	25352.05	24653.8
803.6499	292.3721	25339.9	24647.6
803.7928	294.5837	25357.9	24665.95
803.9357	296.7947	25318.85	24626
804.0786	299.0052	25283.65	24589.45
804.2215	301.2152	25195.55	24498.9
804.3644	303.4246	25298.75	24604.3
804.5074	305.6334	25251	24554.3
804.6503	307.8418	25271.95	24570.9
804.7933	310.0495	25232.55	24529.1
804.9363	312.2568	25220.5	24519.8
805.0793	314.4635	25106.6	24403.5
805.2223	316.6696	25071.35	24365.1
805.3653	318.8752	24954.8	24240.45
805.5084	321.0802	24956.55	24248.15
805.6514	323.2847	24981.9	24270.55
805.7945	325.4887	24940.5	24230.2
805.9376	327.692	24928.25	24214.9
806.0807	329.8949	24998	24284.05
806.2238	332.0972	25011.75	24295.65
806.367	334.2989	25071.35	24352.2
806.5101	336.5001	25050.3	24332.45
806.6533	338.7007	25059.95	24339.15
806.7965	340.9008	25061.85	24340
806.9397	343.1003	24999.95	24275.2
807.0829	345.2992	24994.25	24270.8
807.2261	347.4976	24933.9	24206.8
807.3693	349.6955	24909.5	24178.2
807.5126	351.8927	24982.5	24252.95
807.6559	354.0895	24912.55	24171.85
807.7991	356.2856	24916.4	24183.3
807.9424	358.4812	24882.7	24150.65
808.0857	360.6763	24906.85	24171.05
808.2291	362.8707	24842.3	24104.65
808.3724	365.0646	24948.15	24207.35
808.5158	367.258	24850.9	24109.95
808.6591	369.4508	24884.15	24137.5
808.8025	371.643	24883.7	24140.9
808.9459	373.8346	24837.55	24090.95
809.0893	376.0257	24813.65	24067.25
809.2327	378.2162	24836.15	24088.1
809.3762	380.4062	24837.95	24089.6
809.5196	382.5956	24750.4	24003.15
809.6631	384.7844	24716.6	23974.7
809.8066	386.9726	24635	23892.5
809.9501	389.1603	24583.05	23842.45
810.0936	391.3474	24586.05	23805.95
810.2371	393.5339	24550.65	23810.6
810.3806	395.7199	24483.45	23742.15
810.5241	397.9052	24506.75	23765.15
810.6677	400.09	24491.45	23749.7
810.8113	402.2743	24538.7	23792.75
810.9548	404.4579	24508.2	23762.1
811.0984	406.641	24597.9	23849.95
811.2421	408.8235	24610.05	23859.25
811.3857	411.0054	24664.3	23911.5
811.5293	413.1868	24739.1	23984.4
811.673	415.3675	24729.95	23971.85
811.8166	417.5477	24759.5	23999.5
811.9603	419.7273	24703.95	23942.55
812.104	421.9064	24569.95	23797.9
812.2477	424.0848	24448.5	23684.8
812.3914	426.2627	24376.75	23613
812.5351	428.4399	24283	23519.9
812.6788	430.6166	24228.2	23458.8
812.8226	432.7928	24194.7	23422.6
812.9663	434.9683	24070.45	23299.5
813.1101	437.1432	24032.45	23257.8
813.2539	439.3176	23973.45	23202.65
813.3977	441.4914	23839	23071.4
813.5415	443.6645	23842.25	23070.4
813.6853	445.8371	23790.65	23019.1
813.8291	448.0091	23691.45	22919.15
813.973	450.1806	23629.85	22854.25
814.1168	452.3514	23545.95	22769.95
814.2607	454.5216	23599.35	22813.2
814.4046	456.6913	23454.05	22676.9
814.5485	458.8603	23467.4	22689.25
814.6924	461.0288	23491.4	22715.85
814.8363	463.1967	23412.95	22634.85
814.9802	465.3639	23473.65	22695.05
815.1241	467.5306	23412.25	22632.65
815.2681	469.6967	23332.6	22555.85
815.412	471.8622	23276.75	22498.8
815.556	474.0271	23261.05	22481.5
815.7	476.1914	23224.75	22443.35
815.844	478.3551	23217.4	22435
815.988	480.5182	23273.25	22489.8
816.132	482.6807	23303	22520.6
816.276	484.8426	23280.15	22499
816.4201	487.0039	23338.4	22555.75
816.5641	489.1647	23366.65	22581.2
816.7082	491.3248	23439.5	22654.5
816.8522	493.4843	23407.95	22622.6
816.9963	495.6432	23378	22594.45
817.1404	497.8015	23261.15	22471.15
817.2845	499.9592	23302.7	22514.3
817.4286	502.1163	23268.75	22479.05
817.5727	504.2728	23144.45	22354.15
817.7168	506.4287	23198.25	22407.9
817.861	508.5839	23115.25	22324.9
818.0051	510.7386	23067.15	22276.75
818.1493	512.8927	23068.4	22272.45
818.2935	515.0461	23080.95	22289.9
818.4377	517.199	23066.75	22272.05
818.5818	519.3512	23089.65	22297
818.726	521.5029	23140.9	22341.5
818.8703	523.6539	23131.85	22335.45
819.0145	525.8043	23142.2	22345.6
819.1587	527.9541	23082.1	22285.3
819.303	530.1033	22961.55	22161.45
819.4472	532.2519	22917.1	22117.9
819.5915	534.3999	22902.45	22102.55
819.7357	536.5472	22871.2	22072.8
819.88	538.694	22856.55	22057.5
820.0243	540.8401	22903.2	22101.75
820.1686	542.9856	22897.75	22096.6
820.3129	545.1305	22865	22060.55
820.4572	547.2748	22883.25	22079.65
820.6016	549.4185	22893.8	22089.7
820.7459	551.5615	22789.25	21985.2
820.8902	553.704	22830.7	22026
821.0346	555.8458	22747	21945.85
821.1789	557.987	22808.4	22006.45
821.3233	560.1276	22764.05	21960.75
821.4677	562.2675	22804.85	22003.05
821.6121	564.4069	22807.85	22003.3
821.7565	566.5456	22792.1	21987.15
821.9009	568.6837	22764.05	21958.9
822.0453	570.8212	22660.75	21856.8
822.1897	572.958	22605.2	21796.7
822.3342	575.0942	22529.9	21725.25
822.4786	577.2299	22474.6	21668
822.6231	579.3648	22377.5	21570.5
822.7675	581.4992	22257.35	21451.6
822.912	583.6329	22166.05	21358.25
823.0565	585.766	22194.75	21386.05
823.201	587.8985	22142.1	21335.45
823.3454	590.0304	22118.65	21296.35
823.4899	592.1616	22101.45	21287
823.6345	594.2922	22104.75	21290.7
823.779	596.4222	22029.35	21215
823.9235	598.5515	21921.4	21107.4
824.068	600.6802	21860.95	21048.65
824.2126	602.8083	21721.3	20909.6
824.3571	604.9358	21721.2	20906.95
824.5017	607.0626	21649	20835.75
824.6462	609.1888	21643.9	20827.4
824.7908	611.3144	21633.35	20816.65
824.9354	613.4393	21607.65	20790.7
825.08	615.5636	21605.15	20789.7
825.2246	617.6873	21622.1	20806
825.3692	619.8103	21671	20853.2
825.5138	621.9327	21621.75	20800.7
825.6584	624.0544	21597.65	20779.5
825.803	626.1756	21511.5	20693.15
825.9477	628.2961	21468.35	20648.25
826.0923	630.4159	21384.15	20563.95
826.237	632.5351	21412.7	20592.75
826.3816	634.6537	21341.1	20519.9
826.5263	636.7716	21343.7	20523.45
826.6709	638.8889	21328.65	20506.3
826.8156	641.0056	21360.95	20539.1
826.9603	643.1216	21282.45	20457
827.105	645.237	21327.55	20503.15
827.2497	647.3518	21231.8	20408.25
827.3944	649.4659	21249.4	20426.05
827.5391	651.5793	21180.25	20357.75
827.6838	653.6922	21128.65	20306.35
827.8285	655.8043	21112.5	20288.15
827.9733	657.9159	21098.35	20273.7
828.118	660.0268	21060.45	20234.15
828.2627	662.137	21009.9	20183.75
828.4075	664.2466	20987.45	20159.7
828.5522	666.3556	20984.55	20158.85
828.697	668.4639	20957.05	20126.45
828.8418	670.5716	20967.45	20137.95
828.9865	672.6786	20924.95	20095.2
829.1313	674.785	20824.5	19994.7
829.2761	676.8907	20763.4	19935.1
829.4209	678.9958	20762.15	19933.55
829.5657	681.1002	20693.15	19863.75
829.7105	683.204	20690	19854.95
829.8553	685.3072	20648.4	19815.5
830.0001	687.4097	20614.1	19783.95
830.1449	689.5115	20625.9	19795.6
830.2898	691.6127	20642.25	19812.2
830.4346	693.7132	20593.75	19763.05
830.5794	695.8131	20569.2	19729.2
830.7243	697.9123	20608.8	19775.05
830.8691	700.0109	20538.95	19705
831.014	702.1089	20506.9	19674.05
831.1588	704.2061	20494.7	19660.2
831.3037	706.3028	20462.1	19625.7
831.4486	708.3987	20459.05	19624.15
831.5935	710.4941	20436.45	19602.55
831.7383	712.5887	20457.1	19621
831.8832	714.6827	20453.75	19616.7
832.0281	716.7761	20412.75	19578.2
832.173	718.8688	20405.8	19569.25
832.3179	720.9608	20362.05	19521.65
832.4628	723.0522	20398.9	19557.25
832.6077	725.1429	20318	19478.8
832.7527	727.233	20342.3	19505.55
832.8976	729.3224	20393.25	19555.15
833.0425	731.4112	20335.5	19495.75
833.1874	733.4993	20293.85	19455.45
833.3324	735.5867	20237.85	19395.1
833.4773	737.6735	20188.9	19347.6
833.6222	739.7596	20115.65	19275.6
833.7672	741.845	20070.2	19228.8
833.9122	743.9298	19994.45	19152.05
834.0571	746.014	19967.55	19126.65
834.2021	748.0974	19973.9	19134.3
834.347	750.1802	19919.1	19077.2
834.492	752.2624	19842.85	19002.95
834.637	754.3439	19767.05	18926
834.782	756.4247	19704.45	18854.95
834.9269	758.5048	19652.15	18809.65
835.0719	760.5843	19624.6	18779.15
835.2169	762.6631	19580.95	18739.1
835.3619	764.7413	19569	18728.1
835.5069	766.8188	19615	18770.65
835.6519	768.8956	19605.7	18760.95
835.7969	770.9718	19634.3	18788.7
835.9419	773.0473	19546.85	18703.9
836.0869	775.1221	19530.4	18687.75
836.232	777.1962	19472.55	18628.1
836.377	779.2697	19449.85	18603.4
836.522	781.3426	19440.7	18578.1
836.667	783.4147	19443.25	18595.7
836.8121	785.4862	19462.05	18617.1
836.9571	787.557	19333.95	18489.05
837.1021	789.6271	19221.65	18377.2
837.2472	791.6966	19117.65	18272.35
837.3922	793.7654	19022.7	18175.15
837.5373	795.8335	19000.5	18154
837.6823	797.901	18940.15	18094.35
837.8274	799.9678	18913.35	18064.7
837.9724	802.0339	18881.95	18033.5
838.1175	804.0993	18874.15	18018.4
838.2626	806.1641	18774.8	17926.1
838.4076	808.2282	18717.95	17869
838.5527	810.2916	18709.95	17860.95
838.6978	812.3544	18711.85	17866.15
838.8428	814.4164	18663.05	17817.65
838.9879	816.4778	18657.85	17809.25
839.133	818.5385	18619.9	17771.05
839.2781	820.5986	18624.1	17775.05
839.4232	822.658	18648.85	17801.15
839.5682	824.7166	18635.55	17787.7
839.7133	826.7747	18723.35	17875.35
839.8584	828.832	18731.9	17882.05
840.0035	830.8886	18672.7	17820.3
840.1486	832.9446	18667.15	17815.7
840.2937	834.9999	18618.95	17769.2
840.4388	837.0545	18549.15	17697.5
840.5839	839.1085	18509.25	17657.75
840.729	841.1618	18404.65	17547.4
840.8741	843.2143	18337.95	17488
841.0192	845.2662	18240.85	17388.3
841.1643	847.3175	18248.2	17397.95
841.3095	849.368	18197.9	17348.5
841.4546	851.4179	18189.7	17338.3
841.5997	853.467	18113.4	17262.15
841.7448	855.5155	18096.8	17244.55
841.8899	857.5633	18073.65	17221.95
842.0351	859.6105	18007.15	17154.05
842.1802	861.6569	17998.5	17144.55
842.3253	863.7027	17943.5	17088.9
842.4704	865.7478	17912.2	17057.65
842.6156	867.7922	17888.35	17035.05
842.7607	869.8359	17876.25	17021.7
842.9058	871.8789	17857.45	17004.45
843.0509	873.9212	17876.25	16990.35
843.1961	875.9629	17768.55	16915.95
843.3412	878.0039	17835.35	16981.15
843.4863	880.0441	17775.65	16921.8
843.6315	882.0837	17784.1	16928.1
843.7766	884.1226	17769	16911.6
843.9218	886.1609	17775.9	16922.9
844.0669	888.1984	17845.3	16990.65
844.212	890.2352	17904.3	17050.5
844.3572	892.2714	17842.35	16983.45
844.5023	894.3069	17826.55	16970.25
844.6475	896.3416	17704.35	16850.35
844.7926	898.3757	17698.25	16842.75
844.9377	900.4091	17641.8	16786.05
845.0829	902.4418	17613.4	16752.4
845.228	904.4739	17562.75	16705.1
845.3732	906.5052	17600.05	16744.6
845.5183	908.5358	17515	16658.85
845.6635	910.5658	17493.95	16635.05
845.8086	912.595	17396.85	16540.2
845.9538	914.6236	17374.7	16517.85
846.0989	916.6515	17341.05	16485.4
846.2441	918.6786	17273.2	16415
846.3892	920.7051	17260.8	16402.25
846.5344	922.7309	17273.95	16415.95
846.6795	924.756	17210.9	16351.65
846.8246	926.7804	17210.15	16349.3
846.9698	928.8041	17100.55	16240.4
847.1149	930.8272	17127.25	16267.6
847.2601	932.8495	17034.35	16173.95
847.4052	934.8711	17012.95	16154.4
847.5504	936.892	16988.45	16128.9
847.6955	938.9123	16918.3	16055.45
847.8407	940.9318	16903.7	16045.65
847.9858	942.9506	16874.9	16013.55
848.131	944.9688	16817.5	15959.05
848.2761	946.9862	16805.25	15945.45
848.4213	949.003	16660.85	15798.6
848.5664	951.019	16639.55	15779.8
848.7115	953.0344	16569.75	15708.6
848.8567	955.0491	16546.9	15685
849.0018	957.063	16551.6	15692.1
849.147	959.0763	16535.65	15675.25
849.2921	961.0888	16466.5	15604.1
849.4373	963.1007	16507.05	15647.5
849.5824	965.1119	16476.1	15614.55
849.7275	967.1223	16456.05	15595.55
849.8727	969.1321	16417.95	15557.1
850.0178	971.1412	16393	15533.8
850.1629	973.1495	16352.75	15492.9
850.3081	975.1572	16352.55	15445.75
850.4532	977.1641	16328.3	15469.05
850.5983	979.1704	16286.3	15423.5
850.7435	981.1759	16245.2	15381.8
850.8886	983.1808	16217.15	15352.65
851.0337	985.1849	16164.8	15289.4
851.1788	987.1884	16154.5	15290.15
851.324	989.1911	16101.05	15233.5
851.4691	991.1932	16087.95	15223.4
851.6142	993.1945	16021.2	15159.4
851.7593	995.1951	15929.3	15063.95
851.9045	997.1951	15937.25	15069.5
852.0496	999.1943	15873.85	15012.85
852.1947	1001.1928	15826.05	14962.7
852.3398	1003.1906	15722	14856.8
852.4849	1005.1877	15762.4	14898.65
852.63	1007.1841	15716.95	14852.8
852.7751	1009.1798	15655.65	14791.15
852.9202	1011.1748	15613.75	14751.5
853.0653	1013.1691	15569.65	14704.7
853.2104	1015.1627	15473.3	14606.85
853.3555	1017.1556	15391.7	14528.55
853.5006	1019.1477	15364.55	14498.7
853.6457	1021.1392	15252.85	14390.35
853.7908	1023.1299	15202.2	14337.2
853.9359	1025.12	15159.7	14295.25
854.081	1027.1093	15102.65	14242
854.2261	1029.0979	15075.6	14212.55
854.3712	1031.0859	15017.55	14155.45
854.5163	1033.0731	14970.35	14106.1
854.6613	1035.0596	14976.8	14111.8
854.8064	1037.0454	14881.4	14017.85
854.9515	1039.0304	14870.15	14001
855.0965	1041.0148	14765.85	13900.6
855.2416	1042.9985	14745.7	13878.4
855.3867	1044.9814	14723.55	13859.9
855.5317	1046.9636	14690.45	13822.75
855.6768	1048.9452	14646.9	13782.1
855.8219	1050.926	14602.45	13737.6
855.9669	1052.9061	14570.1	13706.4
856.112	1054.8855	14537	13671.05
856.257	1056.8642	14511.3	13645.15
856.4021	1058.8421	14495.65	13624
856.5471	1060.8194	14447.95	13579.3
856.6921	1062.7959	14428.75	13563.45
856.8372	1064.7717	14399	13531.65
856.9822	1066.7469	14391.2	13524.25
857.1272	1068.7213	14392.75	13525.05
857.2723	1070.695	14338.25	13473.15
857.4173	1072.6679	14267.1	13398.4
857.5623	1074.6402	14306.8	13441.3
857.7073	1076.6117	14278.2	13406
857.8523	1078.5826	14267.8	13399.6
857.9973	1080.5527	14213.55	13343.35
858.1423	1082.5221	14126.6	13259.4
858.2873	1084.4908	14088.05	13221.05
858.4323	1086.4587	14066.05	13196.1
858.5773	1088.426	14026	13157.25
858.7223	1090.3925	13976.65	13102.55
858.8673	1092.3584	14002.9	13135.85
859.0123	1094.3235	13930.4	13063.75
859.1573	1096.2879	13877.65	13008.3
859.3022	1098.2515	13914.45	13046.85
859.4472	1100.2145	13904.65	13035.65
859.5922	1102.1767	13873.3	13002.5
859.7371	1104.1382	13909.75	13038.55
859.8821	1106.099	13893.35	13023.7
860.027	1108.0591	13886.1	13018
860.172	1110.0185	13880.5	13010.35
860.3169	1111.9771	13893.1	13026.55
860.4619	1113.9351	13848.85	12979.75
860.6068	1115.8923	13878.45	13011.55
860.7517	1117.8488	13855.8	12985.05
860.8967	1119.8045	13777.95	12907.55
861.0416	1121.7596	13718.9	12851.25
861.1865	1123.7139	13586.65	12719.8
861.3314	1125.6675	13537.65	12670.05
861.4763	1127.6204	13546.55	12678.85
861.6212	1129.5726	13494.6	12623.65
861.7661	1131.524	13496.2	12626.7
861.911	1133.4748	13455.1	12586.35
862.0559	1135.4248	13400.65	12530.3
862.2008	1137.3741	13312.35	12443.6
862.3457	1139.3226	13274	12402.35
862.4905	1141.2705	13269.85	12400.2
862.6354	1143.2176	13193.85	12319.65
862.7803	1145.164	13205.3	12333.25
862.9251	1147.1097	13171.65	12300.35
863.07	1149.0546	13145.6	12272.35
863.2148	1150.9989	13129.05	12258.7
863.3597	1152.9424	13113.5	12241.9
863.5045	1154.8852	13069.3	12197.85
863.6493	1156.8272	13067.1	12199.75
863.7942	1158.7686	13060.85	12183.55
863.939	1160.7092	13018.5	12149.3
864.0838	1162.6491	12969.75	12097.4
864.2286	1164.5883	12983.8	12112
864.3734	1166.5267	12969	12097.45
864.5182	1168.4644	12944.2	12073.05
864.663	1170.4014	12977.35	12101.15
864.8078	1172.3377	12964.55	12095.75
864.9526	1174.2732	12965.5	12092.95
865.0974	1176.2081	13020.65	12148.75
865.2421	1178.1421	13115.5	12243.3
865.3869	1180.0755	13171.35	12302.1
865.5317	1182.0082	13183.1	12313.25
865.6764	1183.9401	13153.35	12281.85
865.8212	1185.8713	13033.95	12164.3
865.9659	1187.8017	12940.15	12069.55
866.1106	1189.7315	12853.9	11985.45
866.2554	1191.6605	12706.85	11836.65
866.4001	1193.5888	12656.6	11785.65
866.5448	1195.5163	12627.75	11757.7
866.6895	1197.4432	12566.45	11696.35
866.8342	1199.3693	12509.5	11638.85
866.9789	1201.2947	12457.35	11577.5
867.1236	1203.2193	12414.5	11541.05
867.2683	1205.1432	12385	11513.7
867.413	1207.0664	12376.6	11503.8
867.5576	1208.9889	12336.5	11461.25
867.7023	1210.9106	12288.95	11416.6
867.847	1212.8316	12254.4	11383.5
867.9916	1214.7519	12224.95	11343.5
868.1363	1216.6715	12174.85	11304.2
868.2809	1218.5903	12202.05	11330.05
868.4255	1220.5084	12177	11306.05
868.5701	1222.4257	12210.7	11337.45
868.7148	1224.3424	12115.1	11242.85
868.8594	1226.2583	12133	11258.25
869.004	1228.1735	12137.85	11264.4
869.1486	1230.0879	12109.2	11236.3
869.2932	1232.0016	12104.25	11232.25
869.4377	1233.9146	12088.45	11214.2
869.5823	1235.8269	12058.75	11186.75
869.7269	1237.7384	12074.45	11201.05
869.8715	1239.6492	12013.05	11142.75
870.016	1241.5592	12020.35	11146.4
870.1606	1243.4686	12012.25	11139.85
870.3051	1245.3772	12050.75	11178.7
870.4496	1247.285	12088.2	11214.45
870.5941	1249.1922	12112.9	11239.6
870.7387	1251.0986	12153.55	11280.55
870.8832	1253.0042	12163.2	11290.4
871.0277	1254.9092	12220.3	11346.25
871.1722	1256.8134	12226.75	11354.25
871.3167	1258.7169	12275.7	11401.75
871.4611	1260.6196	12286.75	11415
871.6056	1262.5216	12276.15	11402.9
871.7501	1264.4229	12220.75	11349.35
871.8945	1266.3234	12226.7	11353.45
872.039	1268.2232	12167.2	11290.65
872.1834	1270.1223	12114.95	11238.7
872.3278	1272.0207	12071.2	11195.25
872.4723	1273.9183	12047.2	11166.85
872.6167	1275.8151	12031.1	11154.8
872.7611	1277.7113	12028.55	11154.25
872.9055	1279.6067	12052.6	11178.8
873.0499	1281.5014	12144.7	11267.7
873.1943	1283.3953	12248.05	11373.2
873.3386	1285.2885	12369.55	11497.75
873.483	1287.181	12478	11604.95
873.6274	1289.0727	12534.5	11660.05
873.7717	1290.9637	12493.55	11616.65
873.9161	1292.854	12379.7	11504.8
874.0604	1294.7435	12302.25	11424.9
874.2047	1296.6323	12205.55	11331.2
874.349	1298.5204	12121.65	11243.25
874.4933	1300.4077	12059.15	11184.95
874.6376	1302.2943	12035.45	11162.35
874.7819	1304.1802	12002.9	11128.45
874.9262	1306.0653	11959.35	11083.2
875.0705	1307.9497	11903.35	11028.15
875.2147	1309.8333	11867.55	10993.1
875.359	1311.7162	11822.5	10948
875.5032	1313.5984	11813.7	10934.7
875.6475	1315.4798	11746.6	10861.75
875.7917	1317.3605	11737.9	10847.9
875.9359	1319.2405	11741.5	10865.6
876.0801	1321.1197	11690.65	10815.35
876.2243	1322.9982	11608.65	10728.5
876.3685	1324.876	11605.2	10728.6
876.5127	1326.753	11494.25	10620.9
876.6569	1328.6293	11438.7	10564.9
876.801	1330.5048	11376.9	10500.15
876.9452	1332.3796	11273.15	10398.7
877.0893	1334.2537	11269.2	10370.6
877.2335	1336.127	11193.4	10317.6
877.3776	1337.9996	11160.65	10283.1
877.5217	1339.8714	11135.25	10259.3
877.6658	1341.7426	11136.5	10217.8
877.8099	1343.6129	11066.55	10192.15
877.954	1345.4826	11006.55	10131.2
878.0981	1347.3515	11009	10132.25
878.2422	1349.2196	11000.55	10126.25
878.3862	1351.087	10995.9	10118.6
878.5303	1352.9537	10989.9	10114.75
878.6743	1354.8197	10946.35	10070.75
878.8184	1356.6849	10975.6	10098.25
878.9624	1358.5493	10940.85	10066.35
879.1064	1360.4131	10953.25	10078.25
879.2504	1362.276	10953.4	10079.15
879.3944	1364.1383	10969.8	10096.85
879.5384	1365.9998	10931.05	10049.9
879.6823	1367.8606	10895.65	10022
879.8263	1369.7206	10870.45	9994.7
879.9702	1371.5799	10846.05	9967.3
880.1142	1373.4384	10813.05	9938.5
880.2581	1375.2962	10799	9921.75
880.402	1377.1533	10728	9852.85
880.5459	1379.0096	10646.5	9769.55
880.6898	1380.8652	10599.65	9723.85
880.8337	1382.7201	10577.65	9704.45
880.9776	1384.5742	10486.05	9608.4
881.1215	1386.4275	10469.25	9594.75
881.2653	1388.2802	10410	9537.75
881.4092	1390.132	10357.5	9481.7
881.553	1391.9832	10343.8	9467.4
881.6968	1393.8336	10306.95	9430.65
881.8406	1395.6832	10250.9	9375.2
881.9844	1397.5322	10246.75	9371.9
882.1282	1399.3803	10198.75	9316.5
882.272	1401.2278	10148.7	9273.8
882.4158	1403.0745	10113.3	9238.8
882.5595	1404.9204	10062.6	9187.3
882.7033	1406.7656	10055.85	9179.85
882.847	1408.6101	10010.35	9133
882.9908	1410.4538	9978.05	9102.5
883.1345	1412.2968	9951.3	9073.7
883.2782	1414.139	9897.05	9021.65
883.4219	1415.9805	9903.4	9028.45
883.5656	1417.8213	9884.2	8988.9
883.7092	1419.6613	9843.6	8968.5
883.8529	1421.5006	9847.35	8969.15
883.9965	1423.3391	9863.65	8987.4
884.1402	1425.1769	9862.5	8985.4
884.2838	1427.0139	9886.7	9010.65
884.4274	1428.8502	9942.5	9065.4
884.571	1430.6858	9965.6	9089.2
884.7146	1432.5206	9947.15	9070.7
884.8582	1434.3547	9963.25	9087.1
885.0018	1436.188	9931	9053.85
885.1453	1438.0206	9901.5	9025.15
885.2889	1439.8524	9871.55	8993.35
885.4324	1441.6835	9863.3	8985.95
885.5759	1443.5139	9836.55	8958.5
885.7194	1445.3435	9818.4	8940.9
885.8629	1447.1724	9802.15	8926.8
886.0064	1449.0005	9809.6	8932.55
886.1499	1450.8279	9758.8	8879.85
886.2933	1452.6545	9775.55	8900.7
886.4368	1454.4804	9744.05	8866.8
886.5802	1456.3056	9731.35	8848.2
886.7237	1458.13	9707.3	8832.55
886.8671	1459.9536	9686.45	8809.3
887.0105	1461.7766	9640.4	8766
887.1539	1463.5987	9587.4	8708.45
887.2972	1465.4202	9541.8	8666.55
887.4406	1467.2409	9462.4	8586.45
887.584	1469.0608	9465.85	8590
887.7273	1470.88	9403.9	8526.3
887.8706	1472.6984	9365.1	8488.3
888.0139	1474.5161	9332.95	8454.5
888.1572	1476.3331	9304.35	8429.6
888.3005	1478.1493	9280.25	8403.75
888.4438	1479.9648	9299.45	8424.55
888.5871	1481.7795	9245.9	8369
888.7303	1483.5935	9234.3	8357.85
888.8736	1485.4067	9225.85	8350
889.0168	1487.2192	9224.3	8345.85
889.16	1489.031	9207.5	8329.25
889.3032	1490.842	9179.45	8302.55
889.4464	1492.6522	9196.25	8317.75
889.5896	1494.4618	9147.1	8271.9
889.7327	1496.2705	9131.65	8256.9
889.8759	1498.0785	9121.25	8245.1
890.019	1499.8858	9085.1	8208.15
890.1622	1501.6924	9051.45	8176.2
890.3053	1503.4981	9039.4	8162.75
890.4484	1505.3032	9031.55	8153.95
890.5914	1507.1075	9001.5	8124.3
890.7345	1508.911	8991.75	8115.15
890.8776	1510.7138	8972.25	8096.5
891.0206	1512.5159	8923.75	8048.25
891.1637	1514.3172	8898.2	8019.5
891.3067	1516.1178	8827.55	7952.6
891.4497	1517.9176	8852.75	7972.5
891.5927	1519.7166	8805.65	7930.5
891.7357	1521.515	8795.85	7915.35
891.8786	1523.3126	8769.25	7891.85
892.0216	1525.1094	8744.7	7863.65
892.1645	1526.9055	8693.1	7816.45
892.3074	1528.7008	8670.8	7795.05
892.4503	1530.4954	8614.65	7736.75
892.5932	1532.2893	8613.8	7738.55
892.7361	1534.0824	8552.05	7670
892.879	1535.8747	8551.8	7674.2
893.0218	1537.6663	8507.25	7628.35
893.1647	1539.4572	8495.75	7617.15
893.3075	1541.2473	8448.3	7571
893.4503	1543.0367	8434.55	7558
893.5931	1544.8253	8403.3	7522.7
893.7359	1546.6132	8413.6	7535.25
893.8787	1548.4003	8379.65	7494.35
894.0214	1550.1867	8367.7	7481.7
894.1642	1551.9723	8350.5	7470.15
894.3069	1553.7572	8340.4	7463.2
894.4496	1555.5414	8316.6	7437.15
894.5923	1557.3247	8332.55	7454.8
894.735	1559.1074	8322.1	7446.25
894.8777	1560.8893	8324.7	7447.55
895.0204	1562.6705	8324	7446.7
895.163	1564.4509	8309.15	7432.9
895.3056	1566.2305	8290.75	7416.55
895.4482	1568.0094	8301.4	7425.8
895.5908	1569.7876	8302.3	7427.2
895.7334	1571.565	8257.3	7379.95
895.876	1573.3417	8262.25	7386.15
896.0186	1575.1176	8233.25	7355.85
896.1611	1576.8928	8203.7	7327.6
896.3036	1578.6672	8188.55	7313.3
896.4461	1580.4409	8169.15	7295.15
896.5886	1582.2138	8176.45	7297.8
896.7311	1583.986	8176.05	7301.45
896.8736	1585.7575	8199.95	7324.15
897.0161	1587.5282	8208.7	7332.85
897.1585	1589.2981	8226.1	7350.15
897.3009	1591.0673	8192.85	7317.65
897.4433	1592.8358	8193.3	7316.95
897.5857	1594.6035	8178.95	7301.8
897.7281	1596.3704	8114.9	7236.35
897.8705	1598.1366	8076.4	7200.45
898.0128	1599.9021	8036.3	7160.3
898.1551	1601.6668	7994.75	7117.1
898.2975	1603.4308	7968.8	7092.25
898.4398	1605.194	7955.7	7074.5
898.5821	1606.9564	7923.55	7049.15
898.7243	1608.7182	7963.75	7082.8
898.8666	1610.4791	8002.75	7128.05
899.0088	1612.2394	8035.35	7158.35
899.1511	1613.9988	8092.45	7217
899.2933	1615.7576	8121.95	7247.25
899.4355	1617.5156	8162.8	7279.9
899.5776	1619.2728	8134.55	7258.65
899.7198	1621.0293	8038.05	7163.3
899.862	1622.785	7921.6	7042.7
900.0041	1624.54	7813.55	6935
900.1462	1626.2942	7708.35	6831.75
900.2883	1628.0477	7583.25	6706.6
900.4304	1629.8005	7503.7	6623.45
900.5725	1631.5525	7445.65	6569.85
900.7145	1633.3037	7361.4	6486.1
900.8566	1635.0542	7308.15	6431.5
900.9986	1636.804	7261.1	6385.2
901.1406	1638.553	7320.5	6362.05
901.2826	1640.3013	7194.35	6318.25
901.4245	1642.0488	7164.2	6288.65
901.5665	1643.7955	7123.85	6247.2
901.7085	1645.5416	7084.2	6205.8
901.8504	1647.2868	7081.85	6207.7
901.9923	1649.0313	7035.65	6158.6
902.1342	1650.7751	7033.5	6155.1
902.2761	1652.5181	7001.55	6125.6
902.4179	1654.2604	6959.05	6081.55
902.5598	1656.0019	6960.55	6085.6
902.7016	1657.7427	6930	6052.4
902.8434	1659.4828	6944.25	6066.95
902.9852	1661.222	6960.1	6083.45
903.127	1662.9606	6946	6068.25
903.2687	1664.6984	6954.3	6077.9
903.4105	1666.4354	6957.3	6077.85
903.5522	1668.1717	6928.5	6051.65
903.6939	1669.9072	6867.1	5990.6
903.8356	1671.642	6823.2	5943.65
903.9773	1673.3761	6774.9	5899.65
904.119	1675.1094	6726.95	5851.8
904.2606	1676.8419	6689.6	5813.8
904.4022	1678.5737	6650.1	5774.1
904.5439	1680.3048	6624.3	5746.35
904.6855	1682.0351	6580.65	5705.1
904.827	1683.7646	6531.85	5651.65
904.9686	1685.4934	6529.5	5654.5
905.1101	1687.2215	6485.7	5606.9
905.2517	1688.9488	6452.1	5577.3
905.3932	1690.6754	6429.35	5552.95
905.5347	1692.4012	6391.3	5514.9
905.6761	1694.1263	6390.95	5514.65
905.8176	1695.8506	6367.6	5490.05
905.9591	1697.5742	6351.55	5475.65
906.1005	1699.297	6300.05	5424.95
906.2419	1701.0191	6268.8	5394.05
906.3833	1702.7404	6269.75	5393.6
906.5246	1704.461	6226.6	5347.45
906.666	1706.1808	6206.05	5326.95
906.8073	1707.8999	6200.95	5321.95
906.9487	1709.6182	6162.55	5286.5
907.09	1711.3358	6147.55	5273.5
907.2313	1713.0527	6138.45	5264.1
907.3725	1714.7688	6133.1	5252.25
907.5138	1716.4841	6109.7	5231.85
907.655	1718.1987	6085.7	5203.8
907.7962	1719.9126	6093.7	5216.75
907.9374	1721.6257	6062.95	5183.5
908.0786	1723.338	6057.15	5179.4
908.2198	1725.0496	6017.6	5138.6
908.3609	1726.7605	6020.3	5144.4
908.502	1728.4706	6010.45	5133.85
908.6431	1730.18	5977.05	5096.4
908.7842	1731.8886	5983.5	5106.1
908.9253	1733.5964	5980.65	5100.1
909.0664	1735.3036	5956.05	5077.5
909.2074	1737.0099	5935.05	5057.25
909.3484	1738.7156	5914.15	5037.65
909.4894	1740.4204	5893.5	5012.75
909.6304	1742.1246	5903.7	5027.2
909.7714	1743.8279	5910.25	5033.4
909.9123	1745.5306	5896	5020.7
910.0532	1747.2325	5890.45	5016.55
910.1941	1748.9336	5874.35	4997.2
910.335	1750.634	5848.35	4971.65
910.4759	1752.3336	5840.15	4963.05
910.6168	1754.0325	5831.95	4955.95
910.7576	1755.7307	5824.65	4948.8
910.8984	1757.4281	5834.7	4958.35
911.0392	1759.1247	5844.55	4960
911.18	1760.8206	5822.55	4938.9
911.3208	1762.5158	5804.1	4923.75
911.4615	1764.2102	5785.75	4910.15
911.6022	1765.9039	5787.25	4909.6
911.7429	1767.5968	5752.2	4876.25
911.8836	1769.289	5756.6	4880.2
912.0243	1770.9804	5732.1	4855.65
912.1649	1772.6711	5728.45	4854.3
912.3056	1774.361	5714.3	4836.1
912.4462	1776.0502	5727	4851.25
912.5868	1777.7386	5679.95	4800.85
912.7274	1779.4263	5658.65	4783
912.8679	1781.1132	5693.75	4818.5
913.0084	1782.7994	5647.55	4770
913.149	1784.4849	5657.25	4782.45
913.2895	1786.1696	5646.6	4749.3
913.4299	1787.8535	5625.45	4749.2
913.5704	1789.5367	5602.1	4725.2
913.7108	1791.2192	5591.15	4715.6
913.8513	1792.9009	5588.75	4683.95
913.9917	1794.5818	5562.05	4684.6
914.132	1796.2621	5559.95	4684.9
914.2724	1797.9415	5544.95	4668.85
914.4128	1799.6202	5529.05	4652.45
914.5531	1801.2982	5531.7	4655.6
914.6934	1802.9755	5517.9	4641.85
914.8337	1804.6519	5505.3	4628.55
914.9739	1806.3277	5474.85	4597.9
915.1142	1808.0027	5472.2	4597.45
915.2544	1809.6769	5471.7	4595.05
915.3946	1811.3504	5430.15	4554.05
915.5348	1813.0231	5430.5	4553.7
915.675	1814.6951	5420.4	4544.95
915.8151	1816.3664	5424.2	4544.35
915.9553	1818.0369	5415.4	4538.9
916.0954	1819.7067	5382.95	4506.35
916.2355	1821.3757	5395.3	4518.65
916.3755	1823.044	5380.85	4503.2
916.5156	1824.7115	5376.05	4497.45
916.6556	1826.3783	5349.3	4474
916.7956	1828.0443	5327.45	4454.2
916.9356	1829.7096	5330.2	4452
917.0756	1831.3741	5332.6	4452.75
917.2155	1833.0379	5310.45	4433.85
917.3555	1834.701	5298.55	4421.15
917.4954	1836.3633	5293.15	4415.95
917.6353	1838.0248	5264.75	4386.7
917.7751	1839.6856	5264.9	4389.75
917.915	1841.3457	5259.75	4385.35
918.0548	1843.005	5263.7	4389
918.1946	1844.6636	5226.3	4352.55
918.3344	1846.3214	5234.3	4358.05
918.4742	1847.9785	5214.75	4338.95
918.6139	1849.6349	5227	4349.7
918.7537	1851.2904	5206.15	4318.5
918.8934	1852.9453	5184.85	4310.45
919.0331	1854.5994	5163.4	4285.15
919.1727	1856.2528	5176.45	4295.15
919.3124	1857.9054	5154.45	4278.5
919.452	1859.5572	5155.75	4279.25
919.5916	1861.2083	5151.25	4273.95
919.7312	1862.8587	5158.3	4281.2
919.8708	1864.5084	5136.4	4260
920.0103	1866.1572	5099.3	4224.4
920.1498	1867.8054	5097.7	4221.1
920.2893	1869.4528	5078.05	4203
920.4288	1871.0994	5082.35	4204.2
920.5683	1872.7453	5076.05	4199
920.7077	1874.3905	5065.9	4183.95
920.8471	1876.0349	5052.4	4173.45
920.9865	1877.6786	5042.2	4164.15
921.1259	1879.3215	5038.75	4161.4
921.2653	1880.9637	5033.35	4157.1
921.4046	1882.6051	5027.1	4150.65
921.5439	1884.2458	5021.35	4143.8
921.6832	1885.8858	5007.75	4129.7
921.8225	1887.525	4981.45	4104.8
921.9617	1889.1634	4973.35	4096
922.101	1890.8011	4967.9	4092.05
922.2402	1892.4381	4945.95	4069.35
922.3794	1894.0743	4946.6	4070.15
922.5185	1895.7098	4949.55	4072.8
922.6577	1897.3446	4937.65	4061.6
922.7968	1898.9786	4942.25	4061.75
922.9359	1900.6118	4916.45	4041.1
923.075	1902.2443	4898.25	4017.8
923.214	1903.8761	4878.35	4001.2
923.3531	1905.5071	4871.95	3993.4
923.4921	1907.1374	4867.6	3990.1
923.6311	1908.7669	4864.6	3987.15
923.77	1910.3957	4847.7	3972.1
923.909	1912.0237	4812.5	3934.85
924.0479	1913.651	4819.15	3941.9
924.1868	1915.2776	4799.1	3922.75
924.3257	1916.9034	4790.35	3914.7
924.4646	1918.5285	4762.7	3887.9
924.6034	1920.1528	4759.65	3882.5
924.7422	1921.7764	4758.65	3882
924.881	1923.3992	4731.7	3857.65
925.0198	1925.0213	4719.3	3842.95
925.1586	1926.6427	4705.6	3830.35
925.2973	1928.2633	4873.9	3779.9
925.436	1929.8832	4723.75	3844.1
925.5747	1931.5023	4673.1	3796.75
925.7134	1933.1207	4672.7	3793.4
925.852	1934.7383	4652.2	3774.25
925.9906	1936.3552	4648.1	3772.95
926.1292	1937.9714	4633.1	3755.75
926.2678	1939.5868	4606.55	3728.95
926.4064	1941.2015	4592.7	3716.5
926.5449	1942.8154	4587.65	3710.25
926.6834	1944.4286	4571.55	3693.5
926.8219	1946.041	4583.35	3685.55
926.9604	1947.6528	4550.2	3669.45
927.0988	1949.2637	4535.25	3657.15
927.2372	1950.8739	4523.15	3646.3
927.3756	1952.4834	4523	3645.3
927.514	1954.0921	4515.9	3639.6
927.6523	1955.7001	4501.15	3620.65
927.7907	1957.3074	4496.6	3620.65
927.929	1958.9139	4485.45	3610.8
928.0673	1960.5197	4471.75	3595.95
928.2055	1962.1247	4445.15	3567.75
928.3438	1963.729	4439.8	3563.55
928.482	1965.3325	4445.25	3546.6
928.6202	1966.9353	4413.55	3537.85
928.7584	1968.5374	4414.9	3537.05
928.8965	1970.1387	4390.35	3513.25
929.0346	1971.7393	4395.15	3517.75
929.1727	1973.3392	4376.45	3498.9
929.3108	1974.9383	4369.75	3493.9
929.4489	1976.5366	4360.1	3485.85
929.5869	1978.1342	4347.6	3469.8
929.7249	1979.7311	4348.25	3469.95
929.8629	1981.3273	4330.2	3455.2
930.0009	1982.9227	4339.15	3461.95
930.1388	1984.5173	4295.35	3419.65
930.2767	1986.1112	4305.1	3428.75
930.4146	1987.7044	4294.5	3418.8
930.5525	1989.2968	4288.7	3412.05
930.6904	1990.8885	4281.5	3401.6
930.8282	1992.4795	4266.35	3388.15
930.966	1994.0697	4250.6	3374.25
931.1038	1995.6592	4253.8	3378.1
931.2415	1997.2479	4239.75	3364.6
931.3793	1998.8359	4228	3352.6
931.517	2000.4232	4225.15	3349.3
931.6547	2002.0097	4235.05	3361.35
931.7923	2003.5955	4213.8	3337.25
931.93	2005.1805	4200.1	3325.95
932.0676	2006.7648	4188.85	3312.95
932.2052	2008.3484	4191.05	3313.95
932.3427	2009.9312	4174.75	3297.1
932.4803	2011.5133	4186.95	3310.8
932.6178	2013.0946	4166.25	3291.9
932.7553	2014.6752	4154.1	3279.45
932.8928	2016.2551	4155.45	3279.45
933.0302	2017.8342	4114.85	3239.6
933.1676	2019.4126	4126.85	3250.9
933.305	2020.9902	4090.75	3214.15
933.4424	2022.5672	4115.3	3236.8
933.5798	2024.1433	4099.55	3221
933.7171	2025.7188	4098.5	3224.05
933.8544	2027.2935	4081.8	3205.45
933.9917	2028.8674	4077.4	3201.1
934.129	2030.4406	4064.8	3189.65
934.2662	2032.0131	4045.05	3170.85
934.4034	2033.5849	4042.8	3163.9
934.5406	2035.1559	4043.5	3166.55
934.6778	2036.7261	4041.8	3166.85
934.8149	2038.2957	4028.45	3153.75
934.952	2039.8645	4022.6	3148.95
935.0891	2041.4325	4036.1	3157.6
935.2262	2042.9998	4015.6	3140.95
935.3632	2044.5664	4013.95	3135.65
935.5002	2046.1323	4008.3	3132.05
935.6372	2047.6974	3990.95	3117.65
935.7742	2049.2617	3985.45	3110.9
935.9111	2050.8254	4001.55	3119
936.048	2052.3883	3988.5	3111.55
936.1849	2053.9504	3977.8	3101.7
936.3218	2055.5118	3975.95	3100.4
936.4586	2057.0725	3954.85	3075.25
936.5955	2058.6325	3952.3	3076.15
936.7323	2060.1917	3950.65	3076.3
936.869	2061.7502	3946.3	3067.55
937.0058	2063.3079	3918.85	3044.65
937.1425	2064.8649	3928.2	3050.6
937.2792	2066.4212	3923.55	3046.95
937.4159	2067.9767	3910	3036.25
937.5525	2069.5315	3905.35	3032
937.6891	2071.0856	3892.45	3017.75
937.8257	2072.6389	3885.5	3005.75
937.9623	2074.1915	3860.7	2988.7
938.0989	2075.7433	3852.25	2974.8
938.2354	2077.2945	3856.1	2980.45
938.3719	2078.8448	3849.4	2973.85
938.5084	2080.3945	3849.85	2975.85
938.6448	2081.9434	3853	2979.75
938.7812	2083.4916	3838.7	2962.45
938.9176	2085.039	3837.2	2960.05
939.054	2086.5857	3804.95	2927.5
939.1903	2088.1317	3813.75	2938.6
939.3267	2089.677	3810.6	2933.45
939.463	2091.2215	3798.2	2923.3
939.5992	2092.7652	3803.7	2926.95
939.7355	2094.3083	3791	2912.75
939.8717	2095.8506	3781.25	2905.3
940.0079	2097.3921	3786.1	2910.8
940.1441	2098.933	3783.15	2908.05
940.2802	2100.4731	3781.15	2906.35
940.4163	2102.0124	3797.2	2902.9
940.5524	2103.5511	3772.85	2897.95
940.6885	2105.089	3771.6	2896.1
940.8245	2106.6261	3757.9	2882.25
940.9606	2108.1626	3761.65	2884.4
941.0965	2109.6983	3776.5	2871.7
941.2325	2111.2332	3732.95	2857.7
941.3684	2112.7675	3732.2	2854.65
941.5044	2114.301	3739.95	2863.75
941.6403	2115.8337	3733.3	2857.05
941.7761	2117.3657	3714.15	2839.5
941.912	2118.897	3730.7	2855.05
942.0478	2120.4276	3707.15	2824.45
942.1835	2121.9575	3696.1	2818.85
942.3193	2123.4866	3689.4	2809.45
942.455	2125.0149	3704.9	2823.95
942.5907	2126.5426	3682.35	2808.1
942.7264	2128.0695	3679.3	2799.95
942.8621	2129.5956	3664.6	2789.85
942.9977	2131.1211	3670.35	2791.15
943.1333	2132.6458	3671.85	2798
943.2689	2134.1698	3655.5	2779.05
943.4044	2135.693	3660.45	2780
943.54	2137.2155	3647.2	2768.2
943.6755	2138.7373	3641.35	2764.2
943.8109	2140.2584	3619.5	2743.65
943.9464	2141.7787	3628.45	2746.9
944.0818	2143.2983	3621.85	2748.3
944.2172	2144.8171	3583.65	2711.35
944.3526	2146.3353	3594.8	2718.55
944.4879	2147.8527	3573.2	2700.15
944.6232	2149.3693	3574.35	2698.95
944.7585	2150.8853	3573.8	2696.75
944.8938	2152.4005	3554.95	2680.35
945.029	2153.9149	3560.15	2684.1
945.1642	2155.4287	3551.55	2677.1
945.2994	2156.9417	3538.25	2662.2
945.4346	2158.454	3535.45	2657.15
945.5697	2159.9655	3521.1	2644.75
945.7048	2161.4764	3535.85	2661
945.8399	2162.9865	3523	2647.5
945.9749	2164.4958	3520.35	2645.7
946.1099	2166.0045	3510.6	2632.05
946.2449	2167.5124	3502.1	2627.55
946.3799	2169.0195	3503.45	2629.15
946.5148	2170.526	3482.95	2607.7
946.6498	2172.0317	3491.35	2617.1
946.7846	2173.5367	3484.2	2606.35
946.9195	2175.0409	3475.35	2599.9
947.0543	2176.5445	3472.1	2596.75
947.1891	2178.0473	3466.15	2591.45
947.3239	2179.5494	3457.85	2577.9
947.4587	2181.0507	3442.2	2567.1
947.5934	2182.5513	3441.45	2565.45
947.7281	2184.0512	3433.1	2558.4
947.8628	2185.5504	3431.85	2555.45
947.9974	2187.0488	3408.85	2532.6
948.132	2188.5465	3410.8	2534.65
948.2666	2190.0435	3398.9	2521.3
948.4012	2191.5397	3400.1	2524.4
948.5357	2193.0353	3376.3	2502.5
948.6702	2194.5301	3366.35	2490.15
948.8047	2196.0241	3374.9	2498.45
948.9392	2197.5175	3354.15	2477.1
949.0736	2199.0101	3364.7	2487.1
949.208	2200.502	3339.15	2465.15
949.3424	2201.9931	3318.15	2442.85
949.4767	2203.4835	3317.8	2441.5
949.611	2204.9733	3333.6	2451
949.7453	2206.4622	3330	2456.7
949.8796	2207.9505	3302.4	2424.65
950.0138	2209.438	3280.5	2406.15
950.148	2210.9248	3288.15	2409.65
950.2822	2212.4109	3281.7	2408.2
950.4164	2213.8962	3281.6	2404.5
950.5505	2215.3809	3269.7	2392.5
950.6846	2216.8648	3263.25	2387.6
950.8186	2218.3479	3259.1	2379.05
950.9527	2219.8304	3247.6	2368.9
951.0867	2221.3121	3243.1	2364.45
951.2207	2222.7931	3227.4	2352.45
951.3546	2224.2733	3212.75	2334.2
951.4886	2225.7529	3215.4	2339.05
951.6225	2227.2317	3205.35	2329.1
951.7563	2228.7098	3201	2326.75
951.8902	2230.1872	3196.5	2321.7
952.024	2231.6638	3187.2	2311.35
952.1578	2233.1397	3176.8	2296.05
952.2916	2234.6149	3169.75	2294.35
952.4253	2236.0894	3164.6	2288.05
952.559	2237.5632	3167.45	2281.95
952.6927	2239.0362	3156.9	2282.85
952.8263	2240.5085	3142.75	2267.35
952.9599	2241.9801	3137.6	2262.75
953.0935	2243.4509	3128.9	2253.3
953.2271	2244.921	3111.55	2234.8
953.3606	2246.3904	3109.9	2231
953.4941	2247.8591	3114.95	2239.25
953.6276	2249.3271	3101.35	2226.4
953.7611	2250.7943	3090.5	2213.45
953.8945	2252.2608	3087.6	2212.3
954.0279	2253.7266	3080.55	2205.8
954.1612	2255.1917	3067.5	2191.9
954.2946	2256.656	3064.5	2188.25
954.4279	2258.1197	3064.55	2191.1
954.5612	2259.5826	3049.3	2171.3
954.6944	2261.0447	3059.65	2182.3
954.8276	2262.5062	3039.25	2161.65
954.9608	2263.9669	3040.6	2162.85
955.094	2265.4269	3029.9	2152.35
955.2271	2266.8862	3029	2153.4
955.3602	2268.3448	3016.4	2140.6
955.4933	2269.8026	3011.15	2133.15
955.6264	2271.2598	3002.15	2127.05
955.7594	2272.7162	3001.3	2127.45
955.8924	2274.1719	2988.8	2112.15
956.0253	2275.6268	2988.85	2114.05
956.1583	2277.0811	2982.6	2105.7
956.2912	2278.5346	2974.85	2100.8
956.4241	2279.9874	2975.75	2099.75
956.5569	2281.4395	2963.7	2088.75
956.6897	2282.8908	2967.2	2086.05
956.8225	2284.3414	2968.1	2092.15
956.9553	2285.7914	2966.6	2091.95
957.088	2287.2406	2941.75	2064.15
957.2207	2288.689	2927.5	2051.65
957.3534	2290.1368	2938.75	2061.5
957.486	2291.5838	2926.85	2049.45
957.6186	2293.0302	2933.5	2056.55
957.7512	2294.4758	2911.3	2033.9
957.8838	2295.9206	2907.15	2029.1
958.0163	2297.3648	2889.55	2013.6
958.1488	2298.8082	2916.65	2037.55
958.2813	2300.251	2896.1	2021.45
958.4137	2301.693	2884.15	2005.05
958.5461	2303.1343	2896.95	2021.8
958.6785	2304.5748	2873.25	1998.85
958.8108	2306.0147	2861.1	1984.55
958.9432	2307.4538	2860.1	1982.55
959.0754	2308.8922	2850.1	1975.35
959.2077	2310.3299	2844.05	1967.7
959.3399	2311.7669	2844.2	1970
959.4721	2313.2031	2838.5	1960.95
959.6043	2314.6387	2821.55	1945.6
959.7365	2316.0735	2814.3	1937.35
959.8686	2317.5076	2818.25	1941.85
960.0006	2318.941	2821.1	1944.7
960.1327	2320.3737	2798.45	1924.15
960.2647	2321.8056	2799.25	1921.2
960.3967	2323.2369	2792.1	1915.95
960.5287	2324.6674	2793.25	1915.15
960.6606	2326.0972	2783.35	1907.45
960.7925	2327.5263	2775.5	1899.4
960.9244	2328.9547	2777.85	1903.05
961.0562	2330.3823	2765.45	1888.4
961.1881	2331.8092	2761.8	1882.3
961.3198	2333.2355	2751.6	1875.9
961.4516	2334.661	2748.7	1872.8
961.5833	2336.0858	2746.35	1869.2
961.715	2337.5098	2735.4	1858.6
961.8467	2338.9332	2738.3	1862.5
961.9783	2340.3558	2724.7	1846
962.1099	2341.7778	2720.85	1844.75
962.2415	2343.199	2711.35	1833.65
962.373	2344.6195	2715.55	1840.1
962.5045	2346.0393	2692.7	1819.3
962.636	2347.4583	2700.85	1824.1
962.7675	2348.8767	2694.65	1819.4
962.8989	2350.2943	2685.3	1810.6
963.0303	2351.7113	2675.8	1798.05
963.1617	2353.1275	2678.2	1799.95
963.293	2354.543	2679.2	1795.1
963.4243	2355.9578	2661.95	1786
963.5556	2357.3718	2648	1772.25
963.6868	2358.7852	2646.05	1765.7
963.818	2360.1978	2645.1	1767.1
963.9492	2361.6098	2631.55	1755
964.0803	2363.021	2628.5	1748.2
964.2114	2364.4315	2623.7	1749.25
964.3425	2365.8413	2615.8	1731.85
964.4736	2367.2504	2608.15	1732.25
964.6046	2368.6587	2602.5	1725
964.7356	2370.0664	2592.9	1715.95
964.8666	2371.4733	2585.55	1708.3
964.9975	2372.8795	2582.45	1707.95
965.1284	2374.285	2569.5	1690.2
965.2593	2375.6899	2573.45	1697
965.3901	2377.0939	2540.55	1663.2
965.5209	2378.4973	2556.75	1681.85
965.6517	2379.9	2545.5	1670.55
965.7825	2381.3019	2560.85	1684.1
965.9132	2382.7032	2540.9	1665.95
966.0439	2384.1037	2543.7	1669.15
966.1745	2385.5035	2522.75	1645.35
966.3051	2386.9027	2514.55	1640
966.4357	2388.3011	2516.7	1636.95
966.5663	2389.6987	2502.4	1626.9
966.6968	2391.0957	2483.9	1606.6
966.8273	2392.492	2492.95	1617.65
966.9578	2393.8876	2481.65	1604
967.0882	2395.2824	2475.85	1599.3
967.2186	2396.6765	2462.8	1586.5
967.349	2398.07	2461.35	1586.55
967.4793	2399.4627	2450.3	1573.4
967.6097	2400.8547	2458.2	1581.7
967.7399	2402.246	2455.2	1571.75
967.8702	2403.6366	2436.35	1560.4
968.0004	2405.0265	2436.75	1559.25
968.1306	2406.4156	2422.85	1542.2
968.2607	2407.8041	2410.7	1531.7
968.3909	2409.1918	2408.55	1529.3
968.521	2410.5789	2394.15	1515.15
968.651	2411.9652	2412	1532.05
968.781	2413.3508	2391.65	1512.8
968.911	2414.7358	2380.8	1502.7
969.041	2416.12	2391.85	1516.85
969.1709	2417.5035	2370.6	1493.1
969.3008	2418.8863	2373.25	1496.65
969.4307	2420.2684	2364.6	1488.35
969.5606	2421.6497	2351	1473.45
969.6904	2423.0304	2346	1469.6
969.8201	2424.4104	2356.4	1479.2
969.9499	2425.7896	2342.4	1462.85
970.0796	2427.1682	2332.2	1455.35
970.2093	2428.546	2330.8	1449.65
970.3389	2429.9232	2329.65	1449.7
970.4685	2431.2996	2326.6	1448.65
970.5981	2432.6753	2311.75	1436.6
970.7277	2434.0503	2318.55	1440.85
970.8572	2435.4246	2305.2	1429.55
970.9867	2436.7982	2314.9	1437.35
971.1161	2438.1711	2293.95	1419
971.2456	2439.5433	2296.6	1420.2
971.375	2440.9148	2301.4	1417.95
971.5043	2442.2856	2288.4	1411.55
971.6336	2443.6557	2279.1	1401.6
971.7629	2445.025	2273.75	1395.05
971.8922	2446.3937	2269.4	1392
972.0214	2447.7617	2279.4	1401.55
972.1506	2449.1289	2266.3	1390.35
972.2798	2450.4955	2265.2	1384.45
972.4089	2451.8613	2259.4	1385.1
972.538	2453.2265	2234.9	1356.8
972.6671	2454.5909	2239.65	1362
972.7961	2455.9546	2239.3	1364.35
972.9251	2457.3177	2237.4	1362
973.0541	2458.68	2232.4	1354.85
973.1831	2460.0416	2226	1348.75
973.312	2461.4025	2236	1358.4
973.4408	2462.7627	2238	1349
973.5697	2464.1222	2217.4	1342.4
973.6985	2465.4811	2206.75	1329.15
973.8273	2466.8392	2196.1	1319.05
973.956	2468.1966	2208.25	1327.5
974.0847	2469.5533	2207.75	1328.85
974.2134	2470.9093	2193.5	1317.9
974.3421	2472.2645	2191.1	1312.5
974.4707	2473.6191	2186.9	1310.6
974.5993	2474.973	2174.95	1297.4
974.7278	2476.3262	2179.35	1301.85
974.8563	2477.6787	2171.7	1296.6
974.9848	2479.0305	2166.5	1289.7
975.1132	2480.3816	2153.65	1275.5
975.2417	2481.7319	2159.8	1282.9
975.37	2483.0816	2152.1	1273.55
975.4984	2484.4306	2147.15	1268.65
975.6267	2485.7789	2133.35	1256.9
975.755	2487.1264	2143.1	1263.4
975.8833	2488.4733	2130.7	1255.7
976.0115	2489.8195	2130.3	1246.55
976.1397	2491.165	2117.3	1239
976.2678	2492.5097	2116.05	1238.85
976.3959	2493.8538	2102.55	1226.95
976.524	2495.1972	2104.5	1227.9
976.6521	2496.5398	2101.2	1221.35
976.7801	2497.8818	2106.25	1228.25
976.9081	2499.2231	2085.25	1208.95
977.036	2500.5637	2084.6	1207.3
977.164	2501.9035	2091.3	1214.9
977.2918	2503.2427	2075.45	1197.85
977.4197	2504.5812	2076.95	1201.35
977.5475	2505.919	2071.9	1191.25
977.6753	2507.256	2069.9	1191.8
977.8031	2508.5924	2070.55	1192.85
977.9308	2509.9281	2060.5	1179
978.0585	2511.2631	2046.9	1170.6
978.1861	2512.5974	2062.1	1185.75
978.3137	2513.9309	2047.9	1172
978.4413	2515.2638	2061.45	1158.5
978.5689	2516.596	2032.95	1158.65
978.6964	2517.9275	2030.85	1154.55
978.8239	2519.2583	2023.1	1146.4
978.9513	2520.5884	2027.75	1149.15
979.0788	2521.9178	2025.25	1148.85
979.2062	2523.2465	2015.95	1138.8
979.3335	2524.5745	2006.95	1131.1
979.4608	2525.9018	2012.65	1134.2
979.5881	2527.2284	2011.8	1136.8
979.7154	2528.5543	1989.75	1116.65
979.8426	2529.8796	1989.4	1113.15
979.9698	2531.2041	1981.2	1105.5
980.0969	2532.5279	1983.3	1106.95
980.224	2533.851	1993.9	1116.65
980.3511	2535.1735	1980.85	1102.95
980.4781	2536.4952	1983.95	1106.7
980.6052	2537.8163	1976.65	1100.65
980.7321	2539.1366	1973.15	1097.6
980.8591	2540.4562	1973.25	1093.7
980.986	2541.7752	1960.25	1083.2
981.1129	2543.0935	1967.95	1091.05
981.2397	2544.411	1952.3	1074.05
981.3665	2545.7279	1958.85	1085.1
981.4933	2547.0441	1954.8	1078.4
981.62	2548.3596	1963.15	1083.2
981.7467	2549.6744	1967.4	1090.2
981.8734	2550.9885	1949.15	1065.6
982.0001	2552.3019	1950.65	1075.35
982.1267	2553.6146	1937.1	1061.3
982.2532	2554.9266	1933.35	1056.2
982.3798	2556.2379	1919.8	1042.4
982.5063	2557.5485	1933.35	1057.75
982.6327	2558.8585	1933.45	1051.05
982.7592	2560.1677	1918.85	1037.8
982.8856	2561.4762	1923.25	1048.8
983.0119	2562.7841	1916.15	1037.9
983.1383	2564.0913	1914.15	1037.8
983.2646	2565.3977	1914.75	1039.35
983.3908	2566.7035	1907.7	1031.1
983.517	2568.0086	1915.8	1037.85
983.6432	2569.313	1898.95	1022.6
983.7694	2570.6167	1913.15	1032.75
983.8955	2571.9197	1903.15	1028.7
984.0216	2573.222	1903.7	1026.6
984.1476	2574.5236	1892.3	1015.15
984.2737	2575.8246	1892.9	1013.8
984.3996	2577.1248	1887.1	1007.85
984.5256	2578.4244	1884.25	1008.6
984.6515	2579.7232	1885.75	1009.3
984.7774	2581.0214	1903.15	1004.25
984.9032	2582.3189	1874.95	1000.15
985.029	2583.6157	1877.45	996.45
985.1548	2584.9118	1864.9	986.7
985.2806	2586.2072	1857.5	982.1
985.4063	2587.5019	1870	993.4
985.5319	2588.7959	1864.75	989.35
985.6576	2590.0893	1857.45	981.3
985.7832	2591.3819	1856	982.15
985.9087	2592.6739	1847.35	973.1
986.0343	2593.9652	1851.2	973.3
986.1597	2595.2557	1851.1	975.95
986.2852	2596.5456	1835.9	956.25
986.4106	2597.8348	1835.35	960.8
986.536	2599.1234	1823	945.55
986.6614	2600.4112	1843.15	967.2
986.7867	2601.6983	1829.3	948.2
986.912	2602.9848	1824.05	948.6
987.0372	2604.2705	1825.1	942.9
987.1624	2605.5556	1818.05	941.35
987.2876	2606.84	1805.4	928.95
987.4128	2608.1237	1794.9	917.9
987.5379	2609.4067	1798.75	922.1
987.6629	2610.689	1805.25	921.15
987.788	2611.9707	1798.25	917.95
987.913	2613.2516	1794.9	913.9
988.0379	2614.5319	1780.75	904.3
988.1629	2615.8115	1776.8	897
988.2878	2617.0903	1779.1	901.8
988.4126	2618.3685	1771.65	896.65
988.5375	2619.6461	1771	895.7
988.6622	2620.9229	1757	880.05
988.787	2622.199	1761.7	884.55
988.9117	2623.4745	1760.35	880.15
989.0364	2624.7493	1749.85	873.35
989.161	2626.0234	1755.15	878.2
989.2857	2627.2968	1746.25	869.7
989.4102	2628.5695	1748.45	870.2
989.5348	2629.8415	1744.15	869.25
989.6593	2631.1128	1742.8	866.35
989.7837	2632.3835	1727.2	850.5
989.9082	2633.6535	1715.95	839.85
990.0326	2634.9228	1723.05	846.6
990.1569	2636.1914	1712.8	838.15
990.2812	2637.4593	1713.85	832.1
990.4055	2638.7265	1718.7	840.85
990.5298	2639.9931	1708.8	833.1
990.654	2641.259	1701.85	825.85
990.7782	2642.5242	1706.1	828.8
990.9023	2643.7887	1701.15	826.05
991.0264	2645.0525	1700.55	824.7
991.1505	2646.3156	1689.45	810.3
991.2745	2647.5781	1689.65	812.65
991.3985	2648.8398	1689.75	813.3
991.5225	2650.1009	1687.3	803.15
991.6464	2651.3613	1675.6	801.2
991.7703	2652.6211	1679.35	802.6
991.8942	2653.8801	1671.3	794.95
992.018	2655.1385	1675.7	797.1
992.1418	2656.3961	1666.65	791.3
992.2655	2657.6531	1671.35	796
992.3892	2658.9094	1663.15	787.9
992.5129	2660.1651	1667.1	792
992.6366	2661.42	1660.15	783.95
992.7602	2662.6743	1662.25	784.2
992.8837	2663.9279	1659.6	783.1
993.0073	2665.1808	1657.55	781.8
993.1307	2666.433	1652.4	774.75
993.2542	2667.6846	1645.15	768.6
993.3776	2668.9354	1648.35	770.05
993.501	2670.1856	1641.15	765.6
993.6244	2671.4351	1638.7	763.8
993.7477	2672.6839	1638	759.3
993.8709	2673.9321	1630.5	754.65
993.9942	2675.1795	1633.55	757.1
994.1174	2676.4263	1630.95	755.45
994.2405	2677.6724	1628.45	752.5
994.3637	2678.9179	1621.5	744.2
994.4868	2680.1626	1620.1	744.35
994.6098	2681.4067	1619.55	742.1
994.7328	2682.6501	1617.5	742.65
994.8558	2683.8928	1613.45	738.9
994.9788	2685.1348	1606.7	732.8
995.1017	2686.3761	1609.65	734.8
995.2245	2687.6168	1597.7	721.8
995.3474	2688.8568	1603.05	726.2
995.4702	2690.0961	1598.35	722.45
995.5929	2691.3348	1601.55	723.7
995.7156	2692.5727	1596.65	721.4
995.8383	2693.81	1590.5	714.3
995.961	2695.0466	1589.95	715.95
996.0836	2696.2826	1582.55	706.1
996.2062	2697.5178	1603.6	708.05
996.3287	2698.7524	1580.25	704.65
996.4512	2699.9863	1579.55	699.75
996.5737	2701.2195	1566.8	691.5
996.6961	2702.452	1567.2	689.3
996.8185	2703.6839	1577.45	700.5
996.9408	2704.9151	1569.8	694.4
997.0631	2706.1456	1555.95	679.1
997.1854	2707.3755	1560.9	684.35
997.3077	2708.6046	1553.75	676.5
997.4299	2709.8331	1557.95	681.8
997.552	2711.0609	1550.3	675.35
997.6742	2712.2881	1546.55	668.6
997.7963	2713.5145	1552.05	674.05
997.9183	2714.7403	1541.5	666
998.0403	2715.9654	1546.4	669.85
998.1623	2717.1899	1556.3	666.1
998.2842	2718.4136	1543.45	667.8
998.4062	2719.6367	1531.3	655.35
998.528	2720.8591	1539.6	656.65
998.6498	2722.0809	1536.15	659.8
998.7716	2723.3019	1533.25	651.75
998.8934	2724.5223	1532.55	654.2
999.0151	2725.7421	1527.7	650.5
999.1368	2726.9611	1526.6	648.8
999.2584	2728.1795	1527.85	647.25
999.38	2729.3972	1518.35	642.4
999.5016	2730.6142	1523.7	633.7
999.6231	2731.8306	1507.35	630.7
999.7446	2733.0462	1505.8	628
999.8661	2734.2612	1504.85	623.4
999.9875	2735.4756	1495.85	618.55
1000.1089	2736.6892	1496.3	620.1
1000.2302	2737.9022	1485.8	610.4
1000.3515	2739.1145	1482.75	607.95
1000.4728	2740.3262	1489.8	605.9
1000.594	2741.5372	1482.9	608.45
1000.7152	2742.7475	1483.6	605.7
1000.8363	2743.9571	1477.1	600
1000.9575	2745.1661	1475.9	594.15
1001.0785	2746.3744	1476.95	602.25
1001.1996	2747.582	1465.05	588.55
1001.3206	2748.7889	1461.35	583.2
1001.4415	2749.9952	1461.6	583.7
1001.5625	2751.2008	1461.05	584.05
1001.6833	2752.4057	1464.85	584.4
1001.8042	2753.61	1457.8	581.6
1001.925	2754.8136	1456.65	578.45
1002.0458	2756.0165	1450.2	574.95
1002.1665	2757.2188	1451.65	577.6
1002.2872	2758.4204	1452.65	576.55
1002.4078	2759.6213	1446.4	569.45
1002.5285	2760.8215	1449.85	569.4
1002.649	2762.0211	1443.85	564.3
1002.7696	2763.22	1441.05	560.7
1002.8901	2764.4182	1434.25	556.45
1003.0106	2765.6158	1437.85	560.85
1003.131	2766.8127	1435.65	560
1003.2514	2768.009	1420.55	545
1003.3717	2769.2045	1432.3	556.8
1003.492	2770.3994	1424.85	547.05
1003.6123	2771.5936	1424.65	546.45
1003.7325	2772.7872	1419.05	545.45
1003.8527	2773.9801	1414.3	534.15
1003.9729	2775.1723	1436.2	544.6
1004.093	2776.3639	1412.65	539.1
1004.2131	2777.5548	1408.15	528.7
1004.3331	2778.745	1405.25	528.55
1004.4531	2779.9346	1405.8	528.95
1004.5731	2781.1235	1404.85	526.15
1004.693	2782.3117	1397.25	522.65
1004.8129	2783.4992	1395.1	521.05
1004.9328	2784.6861	1396.35	520.55
1005.0526	2785.8723	1392.55	513.85
1005.1723	2787.0579	1393.55	517.15
1005.2921	2788.2428	1390.25	512.8
1005.4118	2789.427	1385.1	510.8
1005.5314	2790.6106	1384.85	508.2
1005.651	2791.7935	1384.05	506.45
1005.7706	2792.9757	1378.9	503.15
1005.8902	2794.1573	1384.3	507.4
1006.0097	2795.3382	1377.65	502.05
1006.1291	2796.5184	1367.1	493.05
1006.2485	2797.698	1372.9	497
1006.3679	2798.8769	1368	491
1006.4873	2800.0551	1366.8	489.95
1006.6066	2801.2327	1372.75	494.4
1006.7258	2802.4096	1358.45	481.75
1006.8451	2803.5859	1363.4	487.55
1006.9642	2804.7615	1359.55	480.8
1007.0834	2805.9364	1361.8	487.6
1007.2025	2807.1106	1361.7	485.8
1007.3216	2808.2842	1358.25	481.95
1007.4406	2809.4572	1358.45	480.6
1007.5596	2810.6294	1354.75	479.2
1007.6785	2811.801	1354.45	480.45
1007.7975	2812.972	1352.5	476.6
1007.9163	2814.1423	1350.05	474.4
1008.0352	2815.3119	1350.05	473.55
1008.154	2816.4808	1352.2	477.6
1008.2727	2817.6491	1360.35	486.15
1008.3914	2818.8167	1356	479.65
1008.5101	2819.9837	1362.95	484.6
1008.6288	2821.15	1367.6	491.25
1008.7474	2822.3157	1360.5	486.25
1008.8659	2823.4807	1369.85	495.8
1008.9844	2824.645	1375.4	496.5
1009.1029	2825.8086	1371.8	496.65
1009.2214	2826.9716	1380.35	505.45
1009.3398	2828.134	1386.5	511.3
1009.4581	2829.2957	1390.7	516.9
1009.5764	2830.4567	1396.35	521.3
1009.6947	2831.617	1400.55	523.7
1009.813	2832.7767	1397.65	522.3
1009.9312	2833.9358	1398.55	523.9
1010.0493	2835.0941	1394.25	516.55
1010.1675	2836.2519	1391.95	518.1
1010.2855	2837.4089	1388.55	510.9
1010.4036	2838.5653	1375.95	499.7
1010.5216	2839.7211	1375.4	500.55
1010.6396	2840.8761	1374.15	495.6
1010.7575	2842.0306	1375.15	498.25
1010.8754	2843.1843	1377.3	502.35
1010.9932	2844.3374	1371.3	495.5
1011.111	2845.4899	1372.95	496.8
1011.2288	2846.6417	1372.45	496.2
1011.3465	2847.7928	1373	498.85
1011.4642	2848.9433	1373.8	497.65
1011.5818	2850.0931	1376.35	500.5
1011.6995	2851.2422	1373.3	494.7
1011.817	2852.3907	1365.5	490.25
1011.9345	2853.5385	1371.7	493.45
1012.052	2854.6857	1381.4	494.7
1012.1695	2855.8323	1371.85	498.9
1012.2869	2856.9781	1374	499.55
1012.4042	2858.1233	1371.35	495.45
1012.5216	2859.2679	1371.5	495.55
1012.6389	2860.4118	1372.35	497.45
1012.7561	2861.555	1381.05	500
1012.8733	2862.6976	1379.4	503.45
1012.9905	2863.8395	1373.15	496.85
1013.1076	2864.9808	1377.7	502.4
1013.2247	2866.1214	1379.2	504.45
1013.3417	2867.2614	1374.4	498.5
1013.4587	2868.4007	1379.2	501.25
1013.5757	2869.5393	1374.7	497.5
1013.6926	2870.6773	1377.75	497.85
1013.8095	2871.8146	1385.4	505.1
1013.9263	2872.9513	1374.5	496.9
1014.0431	2874.0874	1376.95	501.35
1014.1599	2875.2227	1377.75	500.45
1014.2766	2876.3574	1374.75	501.15
1014.3933	2877.4915	1373.5	498.35
1014.51	2878.6249	1371.35	496.95
1014.6266	2879.7577	1373.6	495.1
1014.7431	2880.8898	1384.3	500.3
1014.8596	2882.0212	1378.65	503.25
1014.9761	2883.152	1371.25	494.15
1015.0925	2884.2821	1369.65	494.05
1015.2089	2885.4116	1368.9	495.75
1015.3253	2886.5405	1373.9	498.6
1015.4416	2887.6686	1380.3	500.1
1015.5579	2888.7962	1367.6	494.65
1015.6741	2889.923	1367.7	493.2
1015.7903	2891.0493	1369.35	494.45
1015.9065	2892.1748	1365	488.15
1016.0226	2893.2997	1362.55	487.6
1016.1387	2894.424	1361.25	486.75
1016.2547	2895.5476	1363.05	489.25
1016.3707	2896.6706	1361	487.85
1016.4866	2897.7929	1363.2	487.4
1016.6025	2898.9145	1364	487.25
1016.7184	2900.0355	1353.2	476.3
1016.8342	2901.1559	1358.5	482.9
1016.95	2902.2756	1350.6	475.65
1017.0658	2903.3946	1350.15	473.25
1017.1815	2904.513	1345.3	469.35
1017.2971	2905.6308	1350.3	474.3
1017.4127	2906.7479	1344.25	470.75
1017.5283	2907.8643	1348.3	471.05
1017.6439	2908.9801	1340.95	465.2
1017.7594	2910.0953	1336.8	461.45
1017.8748	2911.2098	1341.4	462.45
1017.9902	2912.3236	1343.75	458.55
1018.1056	2913.4368	1342.9	464.3
1018.2209	2914.5494	1333.15	457.4
1018.3362	2915.6613	1335.4	452
1018.4515	2916.7725	1324.3	448.65
1018.5667	2917.8831	1323.85	445.8
1018.6819	2918.9931	1318.1	440.75
1018.797	2920.1024	1320.2	443.2
1018.9121	2921.211	1317.55	442.75
1019.0271	2922.319	1319.55	441.45
1019.1421	2923.4264	1303.15	427.05
1019.2571	2924.5331	1311.45	438.15
1019.372	2925.6391	1295.85	418.35
1019.4869	2926.7445	1306.45	431.85
1019.6017	2927.8493	1306.45	430.5
1019.7165	2928.9534	1305.8	430.65
1019.8313	2930.0569	1303.1	424.45
1019.946	2931.1597	1307.7	429.55
1020.0606	2932.2619	1302.75	426.9
1020.1753	2933.3634	1305.35	429.55
1020.2899	2934.4643	1315.9	432.95
1020.4044	2935.5645	1310.8	429.5
1020.5189	2936.6641	1305.85	426.4
1020.6334	2937.763	1302.4	427.25
1020.7478	2938.8613	1300.9	424.95
1020.8622	2939.959	1307	424.15
1020.9765	2941.056	1287.9	413.9
1021.0908	2942.1523	1292.4	416.15
1021.2051	2943.248	1284.55	408.55
1021.3193	2944.3431	1278.45	402.9
1021.4334	2945.4375	1264.35	389.85
1021.5476	2946.5313	1254.65	380.15
1021.6617	2947.6244	1250.15	373.05
1021.7757	2948.7169	1239.4	363.2
1021.8897	2949.8087	1230.9	357
1022.0037	2950.8999	1230.65	353.15
1022.1176	2951.9904	1219	343.5
1022.2315	2953.0803	1212.2	336.25
1022.3453	2954.1696	1209.9	334.5
1022.4591	2955.2582	1209.7	334.3
1022.5728	2956.3462	1206.9	331.05
1022.6865	2957.4335	1205.05	327.9
1022.8002	2958.5202	1200.6	324.05
1022.9138	2959.6062	1197.25	321.75
1023.0274	2960.6916	1195.3	318.5
1023.141	2961.7764	1200.5	323.6
1023.2545	2962.8605	1197.7	322.95
1023.3679	2963.9439	1191.25	315.15
1023.4813	2965.0267	1191.4	316.65
1023.5947	2966.1089	1212.05	317.15
1023.708	2967.1905	1189.95	316.5
1023.8213	2968.2714	1189.6	316
1023.9346	2969.3516	1180.25	304.35
1024.0478	2970.4312	1194.4	312
1024.1609	2971.5102	1185.3	308.6
1024.274	2972.5885	1176.95	302.7
1024.3871	2973.6662	1188.5	307.75
1024.5002	2974.7432	1175.2	299.95
1024.6132	2975.8196	1178.75	303.05
1024.7261	2976.8954	1175.45	301.25
1024.839	2977.9705	1175.8	299.95
1024.9519	2979.045	1176.5	301.95
1025.0647	2980.1188	1164.85	288.75
1025.1775	2981.192	1169.35	295.1
1025.2902	2982.2645	1169.6	292.35
1025.4029	2983.3364	1164.55	288.65
1025.5156	2984.4077	1169.25	294.8
1025.6282	2985.4783	1167.65	287.4
1025.7407	2986.5483	1157	283.1
1025.8532	2987.6177	1151.4	275.35
1025.9657	2988.6864	1148.15	271.2
1026.0782	2989.7545	1151.3	274.85
1026.1906	2990.8219	1148.5	273
1026.3029	2991.8887	1143.1	265.45
1026.4152	2992.9548	1140.7	264.55
1026.5275	2994.0204	1138.85	264.15
1026.6397	2995.0852	1136.3	262.75
1026.7519	2996.1495	1134.8	259.4
1026.864	2997.2131	1131.95	256.25
1026.9761	2998.276	1124.8	247.7
1027.0882	2999.3383	1125	248.15
1027.2002	3000.4	1117.75	241.65
1027.3122	3001.4611	1117.8	241.7
1027.4241	3002.5215	1112.95	237.05
1027.536	3003.5812	1114.25	240.85
1027.6478	3004.6404	1106.85	231.9
1027.7596	3005.6989	1109	233
1027.8714	3006.7567	1105.2	230.25
1027.9831	3007.8139	1125.35	228.95
1028.0947	3008.8705	1104.05	228.6
1028.2064	3009.9264	1106.6	227.85
1028.3179	3010.9818	1101.85	227.15
1028.4295	3012.0364	1102.55	225.05
1028.541	3013.0905	1098.5	222.95
1028.6524	3014.1439	1098.7	224.3
1028.7638	3015.1966	1094.8	220.55
1028.8752	3016.2487	1099.25	223.4
1028.9865	3017.3002	1096.95	213.85
1029.0978	3018.3511	1095.9	222.25
1029.209	3019.4013	1097.25	222.6
1029.3202	3020.4509	1089	212.7
1029.4314	3021.4998	1090.8	215.45
1029.5425	3022.5481	1085.75	210.4
1029.6535	3023.5958	1088.75	214.5
1029.7645	3024.6428	1090.05	213.95
1029.8755	3025.6892	1084.3	208.55
1029.9864	3026.735	1080.1	206.4
1030.0973	3027.7802	1089.35	214.55
1030.2082	3028.8247	1080.1	204.7
1030.319	3029.8685	1082.9	208.85
1030.4297	3030.9118	1080.7	204.5
1030.5404	3031.9544	1080.7	205
1030.6511	3032.9963	1080.55	205.2
1030.7617	3034.0376	1075.45	199.35
1030.8723	3035.0783	1080.45	202.85
1030.9829	3036.1184	1076.15	198.25
1031.0934	3037.1578	1076.95	202.85
1031.2038	3038.1966	1073.45	198.5
1031.3142	3039.2348	1075.1	202
1031.4246	3040.2723	1083.4	201.65
1031.5349	3041.3092	1069.75	195.55
1031.6452	3042.3455	1077.45	201.55
1031.7554	3043.3811	1075.25	199.05
1031.8656	3044.4161	1073.15	197.05
1031.9758	3045.4505	1069.45	195.55
1032.0859	3046.4842	1070.05	193.75
1032.1959	3047.5173	1072.45	199.35
1032.3059	3048.5498	1068.75	194
1032.4159	3049.5816	1073.4	197
1032.5258	3050.6128	1069.95	194.05
1032.6357	3051.6434	1073.45	196.5
1032.7455	3052.6734	1067.9	191.8
1032.8553	3053.7027	1066.5	192.95
1032.9651	3054.7314	1060.6	185.7
1033.0748	3055.7594	1062.6	188.1
1033.1845	3056.7868	1066.15	188.45
1033.2941	3057.8136	1066.65	190.8
1033.4037	3058.8398	1058.8	184
1033.5132	3059.8653	1061.9	186.1
1033.6227	3060.8902	1061	186.05
1033.7321	3061.9145	1057.75	181
1033.8415	3062.9381	1062.1	188.25
1033.9509	3063.9612	1072.3	180.6
1034.0602	3064.9835	1059.2	182.95
1034.1694	3066.0053	1062	185.2
1034.2787	3067.0264	1060.75	183.35
1034.3878	3068.0469	1057.35	182.4
1034.497	3069.0668	1060.5	181.95
1034.6061	3070.086	1057.45	182.2
1034.7151	3071.1046	1059	186.1
1034.8241	3072.1226	1057.55	181.4
1034.9331	3073.1399	1052.1	176.55
1035.042	3074.1567	1048.65	172.7
1035.1508	3075.1727	1050.65	173.95
1035.2597	3076.1882	1046.75	170.2
1035.3684	3077.203	1049.95	172.2
1035.4772	3078.2173	1049.25	171.8
1035.5859	3079.2308	1050.4	173.05
1035.6945	3080.2438	1046.95	169.7
1035.8031	3081.2561	1048.8	173.6
1035.9117	3082.2678	1037.85	164.9
1036.0202	3083.2789	1046.85	171.5
1036.1286	3084.2893	1044.05	170.2
1036.2371	3085.2991	1042.35	165.4
1036.3454	3086.3083	1045.55	165.2
1036.4538	3087.3169	1041.6	165.6
1036.562	3088.3248	1041.85	165.9
1036.6703	3089.3321	1037.75	162.7
1036.7785	3090.3388	1039.75	165.75
1036.8866	3091.3449	1034.35	161.25
1036.9948	3092.3503	1036.15	158.35
1037.1028	3093.3551	1031.55	157.05
1037.2108	3094.3593	1036.1	162.3
1037.3188	3095.3629	1030.2	155.6
1037.4267	3096.3658	1034.45	156.95
1037.5346	3097.3681	1032.85	158.5
1037.6425	3098.3698	1035.95	158.55
1037.7503	3099.3708	1033.15	150.7
1037.858	3100.3713	1027.2	153.1
1037.9657	3101.3711	1029.95	153.95
1038.0734	3102.3702	1165.7	155.8
1038.181	3103.3688	1028.9	152.85
1038.2886	3104.3667	1020.65	146.25
1038.3961	3105.364	1024.7	147.25
1038.5036	3106.3607	1024.15	148.15
1038.611	3107.3568	1021.3	145.15
1038.7184	3108.3522	1019.75	145.85
1038.8257	3109.347	1020.7	144.05
1038.933	3110.3412	1024.75	144.8
1039.0403	3111.3348	1018.95	144.55
1039.1475	3112.3277	1012.1	136.1
1039.2547	3113.32	1016.9	143.35
1039.3618	3114.3117	1016.9	141.4
1039.4689	3115.3028	1014.85	139.7
1039.5759	3116.2932	1016.6	137.65
1039.6829	3117.2831	1022.75	142.5
1039.7898	3118.2723	1014	138.75
1039.8967	3119.2608	1012.1	136.4
1040.0035	3120.2488	1008.55	134.9
1040.1103	3121.2361	1005.65	130.1
1040.2171	3122.2229	1007.35	131.6
1040.3238	3123.209	1011.05	134.6
1040.4305	3124.1944	1006.95	133.15
1040.5371	3125.1793	1007.45	131.6
1040.6437	3126.1635	1006.95	132.65
1040.7502	3127.1471	1003	127.7
1040.8567	3128.1301	1005.2	130.75
1040.9631	3129.1125	1001.65	126.55
1041.0695	3130.0942	1000.55	126.1
1041.1759	3131.0753	1007.6	124.2
1041.2822	3132.0558	1008.65	129.85
1041.3884	3133.0357	1004.1	128.35
1041.4946	3134.015	1003.35	128.5
1041.6008	3134.9936	1003.55	128.45
1041.7069	3135.9716	1022.6	125.05
1041.813	3136.949	996.95	124.45
1041.919	3137.9258	1005.85	123.85
1042.025	3138.902	1006.35	126.45
1042.1309	3139.8775	995.4	119.25
1042.2368	3140.8524	999.35	123.3
1042.3427	3141.8267	999.8	123.25
1042.4485	3142.8004	997	122.15
1042.5542	3143.7735	1002.45	121.4
1042.6599	3144.7459	998	122.15
1042.7656	3145.7178	995.85	118.75
1042.8712	3146.689	996.6	122.25
1042.9768	3147.6596	990.2	111.75
1043.0823	3148.6295	992.9	115.9
1043.1878	3149.5989	991.15	116.1
1043.2932	3150.5676	990.4	115.9
1043.3986	3151.5357	987.6	113.7
1043.5039	3152.5032	985.6	112.85
1043.6092	3153.4701	994.5	120.75
1043.7145	3154.4364	992.8	114.7
1043.8197	3155.402	988.55	113.7
1043.9248	3156.367	988.5	109.85
1044.03	3157.3315	1021.5	107.75
1044.135	3158.2952	985.15	110
1044.24	3159.2584	982.75	106.6
1044.345	3160.221	987.6	113.65
1044.4499	3161.1829	985.6	109.45
1044.5548	3162.1442	982.2	107.6
1044.6596	3163.105	984.5	109.5
1044.7644	3164.065	982.15	107.3
1044.8692	3165.0245	986.35	108.25
1044.9739	3165.9834	981	106.2
1045.0785	3166.9416	981.1	105.8
1045.1831	3167.8993	985	108.8
1045.2877	3168.8563	981.35	105.1
1045.3922	3169.8127	976.85	101.35
1045.4966	3170.7684	979	103.95
1045.6011	3171.7236	978.45	102.85
1045.7054	3172.6782	976.5	100.25
1045.8098	3173.6321	977.2	99.75
1045.914	3174.5854	980.55	100.35
1046.0183	3175.5381	976.05	99.2
1046.1224	3176.4902	976.9	101.5
1046.2266	3177.4417	968.4	93.55
1046.3307	3178.3926	973.3	98.75
1046.4347	3179.3428	971.7	96.4
1046.5387	3180.2924	971.75	96.6
1046.6427	3181.2415	972.75	97.35
1046.7466	3182.1899	973.8	98.6
1046.8504	3183.1377	971.7	97.1
1046.9542	3184.0848	977.7	99.2
1047.058	3185.0314	968.6	93.35
1047.1617	3185.9773	969.7	93.6
1047.2654	3186.9227	970.35	94.35
1047.369	3187.8674	968.8	94.4
1047.4726	3188.8115	971.35	91.8
1047.5761	3189.755	967.75	91.65
1047.6796	3190.6979	964.9	89.3
1047.783	3191.6402	967.55	92.65
1047.8864	3192.5818	964.45	88.85
1047.9898	3193.5229	968	86.3
1048.0931	3194.4633	964.85	88.85
1048.1963	3195.4031	965.85	87.75
1048.2995	3196.3423	964.75	89.95
1048.4027	3197.2809	964.8	90
1048.5058	3198.2189	963.45	87.4
1048.6089	3199.1563	969.5	85.25
1048.7119	3200.0931	964.1	90.8
1048.8148	3201.0292	958.5	83.9
1048.9178	3201.9648	960.15	85.1
1049.0206	3202.8997	963.45	86.25
1049.1235	3203.834	959.25	83.45
1049.2262	3204.7677	962.4	87.65
1049.329	3205.7008	960.9	83.55
1049.4317	3206.6333	959.05	86.65
1049.5343	3207.5652	959.4	82.05
1049.6369	3208.4964	961.6	85.65
1049.7394	3209.4271	957.4	83.1
1049.8419	3210.3571	957.55	84.75
1049.9444	3211.2865	956.65	81.7
1050.0468	3212.2154	954.6	77.65
1050.1491	3213.1436	962	83.2
1050.2514	3214.0712	963.7	82.35
1050.3537	3214.9982	953.45	77.8
1050.4559	3215.9246	956.1	80.75
1050.5581	3216.8503	950.9	76.45
1050.6602	3217.7755	957.65	82.05
1050.7623	3218.7001	953.55	80.2
1050.8643	3219.624	954.8	77.1
1050.9663	3220.5473	956.05	78.6
1051.0682	3221.4701	954.4	76.6
1051.1701	3222.3922	954.15	75.85
1051.2719	3223.3137	952.95	77.75
1051.3737	3224.2346	952.5	76.45
1051.4754	3225.1549	951.9	78.35
1051.5771	3226.0746	951.1	77.05
1051.6788	3226.9937	953.15	79.75
1051.7804	3227.9121	947.55	73.8
1051.8819	3228.83	948.45	71.95
1051.9834	3229.7473	949.4	73.1
1052.0849	3230.6639	946.4	69.25
1052.1863	3231.5799	947.3	71
1052.2876	3232.4954	949.4	71.95
1052.3889	3233.4102	947.8	72.45
1052.4902	3234.3244	947.85	71.5
1052.5914	3235.238	943.6	69.4
1052.6926	3236.151	967.1	71.25
1052.7937	3237.0634	946.45	73.85
1052.8948	3237.9752	946.7	71.25
1052.9958	3238.8864	943.05	66.15
1053.0968	3239.797	943.75	68.65
1053.1977	3240.7069	945	67.9
1053.2986	3241.6163	947	71.75
1053.3994	3242.5251	940.25	65.4
1053.5002	3243.4332	942.9	67.6
1053.6009	3244.3408	940.75	63.5
1053.7016	3245.2477	940.5	66.05
1053.8022	3246.154	943.3	67.1
1053.9028	3247.0598	945.55	69.05
1054.0034	3247.9649	941.35	66.25
1054.1039	3248.8694	938.55	63.7
1054.2043	3249.7733	939.9	64.7
1054.3047	3250.6766	940.9	66.4
1054.4051	3251.5793	938.35	61.05
1054.5054	3252.4814	937.75	61.1
1054.6056	3253.3829	939.15	63.35
1054.7058	3254.2838	938.3	64.2
1054.806	3255.1841	936.6	62.2
1054.9061	3256.0838	937.1	61.35
1055.0061	3256.9829	938.05	62.25
1055.1062	3257.8814	939.05	64.45
1055.2061	3258.7792	937.1	60.25
1055.306	3259.6765	934.65	57.85
1055.4059	3260.5731	934.05	58.25
1055.5057	3261.4692	934.3	56.8
1055.6055	3262.3647	932.05	57.3
1055.7052	3263.2595	930.85	55.15
1055.8049	3264.1538	930.55	55.4
1055.9045	3265.0474	930.55	54.15
1056.0041	3265.9404	930.65	55.1
1056.1036	3266.8329	928.45	54.7
1056.2031	3267.7247	938.2	52
1056.3025	3268.616	925.75	51.9
1056.4019	3269.5066	922.9	48.15
1056.5013	3270.3966	925.85	50.15
1056.6005	3271.286	922.6	49
