Software Version:	3.9.2.0
Unit SN:	10000200
Spectrometer SN:	6960
Date:	3/6/2024 9:38:38 AM
Data Line Index:	25
Spectral Points:	2048
Integration time (ms):	125
Averages:	20
Delay (ms):	30
Sequence Number:	1
Processing:	dark subtract
Laser Power (mW):	300
Laser Current (mA):	824
Laser Diode Temp (C):	25.1
Laser Case Temp (C):	23.9
System Temp (C):	23.7
Spectrometer Temp (C):	21.2
CCD Temp (C):	-0.031
Secondary Temp (C):	20.007
Heatsink Temp (C):	17.201
CCDPCB Temp (C):	30.705
SecondaryPCB Temp (C):	25.702

Wavelength	RamanShift	Raw Counts	Dark Subtracted
787.061	30.1047	514.45	104.85
787.2016	32.3739	518.35	114.15
787.3422	34.6426	525.25	116.9
787.4828	36.9109	534.9	125.65
787.6235	39.1787	547.5	134.45
787.7642	41.4461	555.7	139.8
787.9049	43.7131	569.75	151.4
788.0456	45.9796	578.7	157.95
788.1863	48.2456	590.2	164.65
788.3271	50.5112	605.3	175.25
788.4679	52.7764	621.95	188.15
788.6087	55.0411	637.7	198.95
788.7496	57.3054	653.05	208
788.8904	59.5692	664.8	220
789.0313	61.8326	681.1	235.05
789.1722	64.0955	698.65	247.65
789.3132	66.3579	721.3	266.3
789.4541	68.6199	749.3	291.9
789.5951	70.8815	804.1	342.95
789.7361	73.1426	913.8	449.4
789.8771	75.4032	1180.65	712.15
790.0181	77.6634	1861.05	1388.95
790.1592	79.9231	3482	3006.25
790.3003	82.1824	7018.85	6539.4
790.4414	84.4412	13254.05	12766
790.5825	86.6995	21624.05	21128.05
790.7237	88.9574	29695.85	29193.95
790.8648	91.2148	35364.35	34856.5
791.006	93.4717	38314.4	37803.15
791.1472	95.7282	39571.35	39057.3
791.2885	97.9842	40245.15	39728.15
791.4297	100.2398	40538.45	40020.8
791.571	102.4949	40537.3	40019.55
791.7123	104.7495	40689.95	40164.2
791.8536	107.0036	40584.2	40059.85
791.9949	109.2573	40883.45	40358.45
792.1363	111.5105	40681.75	40152.7
792.2777	113.7632	40869	40340
792.4191	116.0154	40942.9	40401.3
792.5605	118.2672	41124.35	40589.15
792.7019	120.5185	41129.75	40592.9
792.8434	122.7693	41216.2	40675.2
792.9849	125.0197	41234	40689.6
793.1264	127.2696	41402.25	40854
793.2679	129.519	41682.9	41130.45
793.4094	131.7679	41931.35	41378.9
793.551	134.0163	41513.55	40958.6
793.6926	136.2642	41795.2	41238
793.8342	138.5117	42032.55	41471.25
793.9758	140.7587	42079.7	41518.9
794.1175	143.0052	42167.5	41602.45
794.2591	145.2512	41983.45	41418.9
794.4008	147.4967	42198.25	41629.2
794.5425	149.7417	42133.05	41563.7
794.6842	151.9863	42233.15	41660.4
794.826	154.2304	42038.4	41459.8
794.9677	156.4739	42194.75	41609.3
795.1095	158.717	42381.95	41799.7
795.2513	160.9596	42386.05	41794.4
795.3931	163.2017	42237.4	41645.9
795.535	165.4433	42504.35	41913.05
795.6768	167.6844	42444.45	41847.95
795.8187	169.925	42581.85	41983.75
795.9606	172.1651	42526.75	41922.45
796.1025	174.4047	42461.7	41854.25
796.2445	176.6439	42567.75	41958.55
796.3864	178.8825	42652.85	42040
796.5284	181.1206	42762.05	42146.25
796.6704	183.3582	42879.7	42259.25
796.8124	185.5954	42715.95	42096.4
796.9544	187.832	42881.4	42256.6
797.0965	190.0681	42926.1	42299.6
797.2386	192.3037	43151.5	42519.6
797.3806	194.5388	43478.05	42845.35
797.5228	196.7734	43095.2	42461.65
797.6649	199.0075	43493.7	42861.05
797.807	201.2411	43694.9	43058.35
797.9492	203.4742	43914.6	43277.25
798.0914	205.7068	44028.45	43385.95
798.2336	207.9389	44092.45	43450.25
798.3758	210.1704	44186.75	43553.15
798.518	212.4015	44427.75	43803.7
798.6603	214.632	44116.9	43497.25
798.8025	216.862	44482	43860.3
798.9448	219.0915	44567.4	43945.8
799.0871	221.3205	44524.25	43899
799.2294	223.549	44780.35	44160.3
799.3718	225.777	44900.8	44277.45
799.5141	228.0044	44934.5	44302.7
799.6565	230.2314	45030.6	44398.3
799.7989	232.4578	45054.4	44418.9
799.9413	234.6837	45098.05	44454.8
800.0837	236.909	45561.1	44916.75
800.2262	239.1339	45084.1	44413
800.3687	241.3582	45362.55	44707.05
800.5111	243.582	45366.45	44681.35
800.6536	245.8053	45547.85	44872.85
800.7961	248.0281	45505.65	44839.45
800.9387	250.2503	45626.25	44955.35
801.0812	252.472	45614.15	44940.35
801.2238	254.6932	45714.25	45042.6
801.3664	256.9139	45669.75	44997.2
801.509	259.134	46137	45456.75
801.6516	261.3536	45598.35	44920.85
801.7942	263.5727	46116.45	45437.5
801.9369	265.7912	45966.5	45288.15
802.0795	268.0092	46152.65	45474.2
802.2222	270.2267	46216.05	45536
802.3649	272.4436	46186.15	45504.55
802.5076	274.6601	46316	45623.25
802.6504	276.8759	46388.95	45699.9
802.7931	279.0913	46552.4	45863.7
802.9359	281.3061	46423.9	45732.75
803.0787	283.5204	46622.65	45931.8
803.2215	285.7341	46652.9	45957.05
803.3643	287.9473	46942.45	46237.75
803.5071	290.16	46739	46039.75
803.6499	292.3721	47111.85	46419.55
803.7928	294.5837	46547.75	45853.25
803.9357	296.7947	46496.9	45802.05
804.0786	299.0052	46726.3	46031.75
804.2215	301.2152	46586.85	45888.1
804.3644	303.4246	46881.25	46186.1
804.5074	305.6334	46848.15	46151.5
804.6503	307.8418	46558	45853.9
804.7933	310.0495	46732.15	46027.3
804.9363	312.2568	46652.35	45951.25
805.0793	314.4635	46499.8	45794.7
805.2223	316.6696	46500.5	45791.5
805.3653	318.8752	46599.55	45880.2
805.5084	321.0802	46105.85	45397.1
805.6514	323.2847	46325	45616.15
805.7945	325.4887	46310.55	45597.9
805.9376	327.692	46254.1	45539.65
806.0807	329.8949	46440.6	45726.75
806.2238	332.0972	46422.45	45705.7
806.367	334.2989	46585.35	45866.65
806.5101	336.5001	46783.35	46064.1
806.6533	338.7007	46473.9	45755.85
806.7965	340.9008	46628.45	45907.95
806.9397	343.1003	46552.8	45828.55
807.0829	345.2992	46704.25	45978.1
807.2261	347.4976	46452	45727.15
807.3693	349.6955	46448.95	45718.25
807.5126	351.8927	46482.9	45751.35
807.6559	354.0895	46509.05	45766.05
807.7991	356.2856	46519.4	45785.85
807.9424	358.4812	46645	45912.05
808.0857	360.6763	46465.45	45730.05
808.2291	362.8707	46449.7	45709.2
808.3724	365.0646	46472.35	45731.25
808.5158	367.258	46450.85	45708.3
808.6591	369.4508	46320.15	45574.6
808.8025	371.643	46512	45766.15
808.9459	373.8346	46405.7	45658.05
809.0893	376.0257	46371.55	45620.6
809.2327	378.2162	46343.55	45594.1
809.3762	380.4062	46333.55	45584.5
809.5196	382.5956	46240.8	45492.15
809.6631	384.7844	46301.3	45558
809.8066	386.9726	46174.15	45429.2
809.9501	389.1603	46204.9	45465.2
810.0936	391.3474	45977.95	45189.75
810.2371	393.5339	46164.6	45420.55
810.3806	395.7199	45857.45	45115.55
810.5241	397.9052	45919	45175.4
810.6677	400.09	46007.8	45262.15
810.8113	402.2743	46051	45304.85
810.9548	404.4579	46010	45264.15
811.0984	406.641	46006.65	45260.25
811.2421	408.8235	46131.15	45380.15
811.3857	411.0054	46151.5	45398.85
811.5293	413.1868	46225	45468.85
811.673	415.3675	46230.6	45471.75
811.8166	417.5477	46244.05	45481.7
811.9603	419.7273	46136.25	45371.95
812.104	421.9064	45992.75	45224
812.2477	424.0848	45935.8	45170.6
812.3914	426.2627	45852.75	45087.2
812.5351	428.4399	45650.4	44881.6
812.6788	430.6166	45492.85	44721.85
812.8226	432.7928	45431.75	44660.6
812.9663	434.9683	45273.55	44499.8
813.1101	437.1432	45263.15	44488.9
813.2539	439.3176	45147.75	44375.3
813.3977	441.4914	44856.2	44084.8
813.5415	443.6645	44919.3	44147.15
813.6853	445.8371	44724.9	43952.25
813.8291	448.0091	44576.8	43803.35
813.973	450.1806	44481.7	43706.75
814.1168	452.3514	44392.55	43613.45
814.2607	454.5216	44432.25	43644.85
814.4046	456.6913	44206.8	43426.85
814.5485	458.8603	44235.4	43458.25
814.6924	461.0288	44308.85	43531.85
814.8363	463.1967	44171.2	43394.1
814.9802	465.3639	44225.5	43446.2
815.1241	467.5306	44089.1	43306.6
815.2681	469.6967	44035.5	43255.85
815.412	471.8622	43957.3	43177.5
815.556	474.0271	43902.15	43121.7
815.7	476.1914	43896.95	43112.25
815.844	478.3551	43844.5	43060.85
815.988	480.5182	43921.75	43140.45
816.132	482.6807	43909.75	43124.7
816.276	484.8426	43946.95	43164.8
816.4201	487.0039	44051.35	43267.15
816.5641	489.1647	44122.1	43337.95
816.7082	491.3248	44095.1	43309.3
816.8522	493.4843	44083.4	43297.75
816.9963	495.6432	44122.35	43337.6
817.1404	497.8015	43911.45	43121.5
817.2845	499.9592	43967.55	43177.8
817.4286	502.1163	43864.8	43076.3
817.5727	504.2728	43711.15	42918.9
817.7168	506.4287	43821.75	43032.1
817.861	508.5839	43646.9	42855.35
818.0051	510.7386	43617.9	42827.6
818.1493	512.8927	43634.45	42834.95
818.2935	515.0461	43627.15	42832.55
818.4377	517.199	43654.3	42859.15
818.5818	519.3512	43675.35	42879.35
818.726	521.5029	43632.75	42831
818.8703	523.6539	43705	42907.95
819.0145	525.8043	43611.9	42812.65
819.1587	527.9541	43566.15	42765.1
819.303	530.1033	43390.25	42591.35
819.4472	532.2519	43340.3	42541.4
819.5915	534.3999	43274.35	42473.25
819.7357	536.5472	43295.5	42492.55
819.88	538.694	43157.55	42357.5
820.0243	540.8401	43255.8	42456.25
820.1686	542.9856	43253.75	42449.65
820.3129	545.1305	43201.35	42395.5
820.4572	547.2748	43289.8	42484.3
820.6016	549.4185	43242.5	42433.85
820.7459	551.5615	43141.1	42333.95
820.8902	553.704	43149.75	42343.1
821.0346	555.8458	43084.65	42282.1
821.1789	557.987	43146.6	42340.4
821.3233	560.1276	43088.15	42283.35
821.4677	562.2675	43143.95	42340.05
821.6121	564.4069	43094.95	42292.25
821.7565	566.5456	43040.05	42236.4
821.9009	568.6837	42994.75	42190.15
822.0453	570.8212	42803.05	41996
822.1897	572.958	42672.65	41863.65
822.3342	575.0942	42559.85	41753.75
822.4786	577.2299	42390.15	41581.35
822.6231	579.3648	42355.45	41546
822.7675	581.4992	42128.4	41319.45
822.912	583.6329	42019.6	41211.65
823.0565	585.766	41957.55	41151.1
823.201	587.8985	41958.15	41150.95
823.3454	590.0304	41808.65	40983.15
823.4899	592.1616	41772.95	40958.65
823.6345	594.2922	41727.4	40914.6
823.779	596.4222	41526.55	40710.9
823.9235	598.5515	41438.15	40622.85
824.068	600.6802	41356.15	40541.95
824.2126	602.8083	41123.5	40306.5
824.3571	604.9358	41081.35	40265.3
824.5017	607.0626	40993.75	40177.7
824.6462	609.1888	40915.5	40098.6
824.7908	611.3144	40952.35	40132.9
824.9354	613.4393	40870.4	40053.65
825.08	615.5636	40846.9	40028.1
825.2246	617.6873	40919.15	40101.1
825.3692	619.8103	40920.3	40103.4
825.5138	621.9327	40810.2	39990.7
825.6584	624.0544	40748	39930.65
825.803	626.1756	40694.8	39877.9
825.9477	628.2961	40630.05	39808.4
826.0923	630.4159	40517.75	39696.05
826.237	632.5351	40460.8	39637.1
826.3816	634.6537	40398.05	39576.3
826.5263	636.7716	40345.1	39521.3
826.6709	638.8889	40321.6	39498.35
826.8156	641.0056	40395.75	39573.5
826.9603	643.1216	40299.7	39476
827.105	645.237	40325.55	39498.95
827.2497	647.3518	40203	39381.5
827.3944	649.4659	40165.65	39342.95
827.5391	651.5793	40117.5	39292.45
827.6838	653.6922	39981.8	39156.35
827.8285	655.8043	39952.75	39127.85
827.9733	657.9159	39968.9	39142.75
828.118	660.0268	39818.45	38990
828.2627	662.137	39780.45	38952.85
828.4075	664.2466	39714.7	38885.95
828.5522	666.3556	39664.35	38836.1
828.697	668.4639	39523.25	38693.3
828.8418	670.5716	39615.9	38789.55
828.9865	672.6786	39552.85	38722.55
829.1313	674.785	39423.25	38592.45
829.2761	676.8907	39303.3	38471.45
829.4209	678.9958	39282.2	38452.1
829.5657	681.1002	39166.05	38334.75
829.7105	683.204	39096.1	38261.2
829.8553	685.3072	39090.05	38256.7
830.0001	687.4097	38958.65	38128.25
830.1449	689.5115	38962.9	38129.6
830.2898	691.6127	38966.75	38136.1
830.4346	693.7132	38857.5	38026.15
830.5794	695.8131	38902.65	38062.2
830.7243	697.9123	38850.6	38014.4
830.8691	700.0109	38824.25	37988
831.014	702.1089	38801.8	37965.7
831.1588	704.2061	38704.6	37868.3
831.3037	706.3028	38702.6	37865.75
831.4486	708.3987	38734.15	37898.2
831.5935	710.4941	38602.5	37767.3
831.7383	712.5887	38601.75	37763.8
831.8832	714.6827	38549.75	37709.4
832.0281	716.7761	38495.85	37660.6
832.173	718.8688	38485	37646.25
832.3179	720.9608	38404.2	37565.35
832.4628	723.0522	38427.35	37586.35
832.6077	725.1429	38336.5	37497.85
832.7527	727.233	38349.95	37509.25
832.8976	729.3224	38451.35	37611.75
833.0425	731.4112	38313.55	37473.2
833.1874	733.4993	38222.8	37381.1
833.3324	735.5867	38082.75	37241.2
833.4773	737.6735	38044.9	37203.8
833.6222	739.7596	37901.7	37062.35
833.7672	741.845	37821.65	36981.7
833.9122	743.9298	37702.2	36859.6
834.0571	746.014	37615.85	36776.8
834.2021	748.0974	37568.6	36724.6
834.347	750.1802	37482.7	36640.9
834.492	752.2624	37339.1	36497.4
834.637	754.3439	37233.85	36389.5
834.782	756.4247	37112.65	36260.65
834.9269	758.5048	37009.55	36165.65
835.0719	760.5843	36986	36142.4
835.2169	762.6631	36915.1	36071
835.3619	764.7413	36864.15	36021.7
835.5069	766.8188	36930.55	36083.75
835.6519	768.8956	36890.6	36043.3
835.7969	770.9718	36983.55	36138.65
835.9419	773.0473	36776.25	35932.05
836.0869	775.1221	36723.1	35878.25
836.232	777.1962	36588.4	35741.9
836.377	779.2697	36576.8	35730.2
836.522	781.3426	36594.8	35728.2
836.667	783.4147	36584.55	35737.55
836.8121	785.4862	36595.8	35750.6
836.9571	787.557	36430.15	35584.55
837.1021	789.6271	36258.9	35413.85
837.2472	791.6966	36044.55	35199.25
837.3922	793.7654	35840.6	34993.25
837.5373	795.8335	35822.6	34974.55
837.6823	797.901	35659.5	34812.9
837.8274	799.9678	35607.25	34757.85
837.9724	802.0339	35523.2	34676.35
838.1175	804.0993	35555.1	34697.45
838.2626	806.1641	35391.55	34542.6
838.4076	808.2282	35331.4	34482.5
838.5527	810.2916	35295.05	34445.15
838.6978	812.3544	35230	34382.9
838.8428	814.4164	35102.4	34254.35
838.9879	816.4778	35245.4	34394.15
839.133	818.5385	35030.8	34182.4
839.2781	820.5986	35060.1	34210.6
839.4232	822.658	35100.2	34249.15
839.5682	824.7166	35066.1	34217.15
839.7133	826.7747	35163.5	34314.7
839.8584	828.832	35181.8	34332.35
840.0035	830.8886	35079.55	34227.9
840.1486	832.9446	35078.95	34227.6
840.2937	834.9999	35002.55	34153.15
840.4388	837.0545	34846.9	33990.15
840.5839	839.1085	34740.85	33887.25
840.729	841.1618	34617.5	33762.9
840.8741	843.2143	34525.35	33672.7
841.0192	845.2662	34299.6	33447.9
841.1643	847.3175	34336.95	33484.9
841.3095	849.368	34249.75	33398.8
841.4546	851.4179	34199.15	33345.3
841.5997	853.467	34081.1	33227.95
841.7448	855.5155	34073.1	33218.7
841.8899	857.5633	33950.1	33096.05
842.0351	859.6105	33854	32998.65
842.1802	861.6569	33907.3	33053.2
842.3253	863.7027	33811.3	32955.75
842.4704	865.7478	33781.5	32925.85
842.6156	867.7922	33711.9	32857.05
842.7607	869.8359	33583.2	32726.4
842.9058	871.8789	33598	32741.45
843.0509	873.9212	33562.3	32677.25
843.1961	875.9629	33467.15	32612
843.3412	878.0039	33483.35	32625.35
843.4863	880.0441	33429.4	32573.85
843.6315	882.0837	33465.45	32609.3
843.7766	884.1226	33454.35	32597.35
843.9218	886.1609	33439.35	32585.3
844.0669	888.1984	33522.35	32668.55
844.212	890.2352	33573.35	32719
844.3572	892.2714	33517.1	32657.2
844.5023	894.3069	33476.6	32621.1
844.6475	896.3416	33306.45	32450.65
844.7926	898.3757	33276.8	32420
844.9377	900.4091	33173.15	32314.9
845.0829	902.4418	33088.25	32226.6
845.228	904.4739	33025.95	32167.25
845.3732	906.5052	33015.3	32157.45
845.5183	908.5358	32958.55	32101.25
845.6635	910.5658	32935.6	32077.95
845.8086	912.595	32823.75	31965.85
845.9538	914.6236	32676.05	31820.35
846.0989	916.6515	32643.9	31786.1
846.2441	918.6786	32524.25	31664.25
846.3892	920.7051	32478.3	31615.9
846.5344	922.7309	32509.65	31652.4
846.6795	924.756	32350.45	31490.9
846.8246	926.7804	32334.6	31473.35
846.9698	928.8041	32146.7	31283.15
847.1149	930.8272	32229.9	31368.95
847.2601	932.8495	32094.7	31231.45
847.4052	934.8711	32085.45	31227.25
847.5504	936.892	31926.25	31065.25
847.6955	938.9123	31904.95	31043.25
847.8407	940.9318	31817.3	30958.2
847.9858	942.9506	31712.45	30851.95
848.131	944.9688	31627.5	30768.75
848.2761	946.9862	31580.4	30716.15
848.4213	949.003	31359.05	30497.4
848.5664	951.019	31310.15	30448.55
848.7115	953.0344	31203.8	30341
848.8567	955.0491	31114.15	30250.5
849.0018	957.063	31097.05	30236.2
849.147	959.0763	31149.4	30288.65
849.2921	961.0888	31055.15	30191.6
849.4373	963.1007	31052.5	30190.6
849.5824	965.1119	30951.5	30089.6
849.7275	967.1223	30943.05	30083.4
849.8727	969.1321	30908.9	30046.9
850.0178	971.1412	30851.05	29989.6
850.1629	973.1495	30793.6	29929
850.3081	975.1572	30771.15	29861.85
850.4532	977.1641	30735.35	29872.9
850.5983	979.1704	30604.65	29739.7
850.7435	981.1759	30511.65	29644.5
850.8886	983.1808	30512.95	29650.65
851.0337	985.1849	30430.35	29560.15
851.1788	987.1884	30440.05	29573.2
851.324	989.1911	30327.95	29459.6
851.4691	991.1932	30290.35	29425.6
851.6142	993.1945	30172	29308.1
851.7593	995.1951	30039.5	29175.75
851.9045	997.1951	30011.25	29140.75
852.0496	999.1943	29824.25	28961
852.1947	1001.1928	29779.75	28913.55
852.3398	1003.1906	29655.55	28792.5
852.4849	1005.1877	29655.4	28789
852.63	1007.1841	29546.5	28681.5
852.7751	1009.1798	29516.35	28652.5
852.9202	1011.1748	29372.3	28508.15
853.0653	1013.1691	29286.7	28421.5
853.2104	1015.1627	29204.5	28338.95
853.3555	1017.1556	28989.95	28126.1
853.5006	1019.1477	28928.35	28062.05
853.6457	1021.1392	28714.3	27850
853.7908	1023.1299	28606.3	27738.4
853.9359	1025.12	28532	27666.45
854.081	1027.1093	28460.8	27597.2
854.2261	1029.0979	28385.1	27521.5
854.3712	1031.0859	28299.1	27436.3
854.5163	1033.0731	28306.05	27441.45
854.6613	1035.0596	28162.75	27297.55
854.8064	1037.0454	27999.25	27131.9
854.9515	1039.0304	27958.1	27089.55
855.0965	1041.0148	27845.7	26976.65
855.2416	1042.9985	27768.45	26898.6
855.3867	1044.9814	27760.65	26895.8
855.5317	1046.9636	27624	26757.1
855.6768	1048.9452	27509.2	26644.25
855.8219	1050.926	27510.15	26644.7
855.9669	1052.9061	27471.15	26605.2
856.112	1054.8855	27375.4	26507.35
856.257	1056.8642	27344.15	26479.7
856.4021	1058.8421	27362.2	26487.9
856.5471	1060.8194	27267.15	26398.3
856.6921	1062.7959	27238.35	26371.25
856.8372	1064.7717	27202.75	26333.85
856.9822	1066.7469	27141.9	26273.55
857.1272	1068.7213	27064.15	26195.25
857.2723	1070.695	27024.1	26155.4
857.4173	1072.6679	26911.75	26043.5
857.5623	1074.6402	26958.4	26090.45
857.7073	1076.6117	26960.25	26088.1
857.8523	1078.5826	26933.55	26063.75
857.9973	1080.5527	26805.9	25936.3
858.1423	1082.5221	26665.4	25795.95
858.2873	1084.4908	26581.05	25712.25
858.4323	1086.4587	26536.8	25667.1
858.5773	1088.426	26504.4	25631.75
858.7223	1090.3925	26410.05	25536.7
858.8673	1092.3584	26393.95	25524.2
859.0123	1094.3235	26290.05	25423.8
859.1573	1096.2879	26244.7	25375.75
859.3022	1098.2515	26214.5	25346.55
859.4472	1100.2145	26248.9	25378.95
859.5922	1102.1767	26201.95	25331.2
859.7371	1104.1382	26202.05	25330.9
859.8821	1106.099	26212.85	25342.95
860.027	1108.0591	26184.2	25314.55
860.172	1110.0185	26176.4	25304.4
860.3169	1111.9771	26180.95	25311.65
860.4619	1113.9351	26161.6	25292.2
860.6068	1115.8923	26146.3	25276.65
860.7517	1117.8488	26143.65	25272
860.8967	1119.8045	25962.3	25094.1
861.0416	1121.7596	25890.25	25020.2
861.1865	1123.7139	25643.1	24774.4
861.3314	1125.6675	25560.3	24689.55
861.4763	1127.6204	25585.9	24715.25
861.6212	1129.5726	25501.05	24628.7
861.7661	1131.524	25500.45	24631.4
861.911	1133.4748	25407	24535
862.0559	1135.4248	25280.35	24405.85
862.2008	1137.3741	25146.3	24277.65
862.3457	1139.3226	25118.8	24246.05
862.4905	1141.2705	25143.7	24273.8
862.6354	1143.2176	24991.55	24116.45
862.7803	1145.164	25006.2	24133.6
862.9251	1147.1097	24979.45	24107.95
863.07	1149.0546	24926.35	24053.45
863.2148	1150.9989	24881.85	24011.5
863.3597	1152.9424	24838.4	23966.25
863.5045	1154.8852	24779.25	23908.6
863.6493	1156.8272	24757.1	23887.85
863.7942	1158.7686	24738	23858.1
863.939	1160.7092	24663.4	23792.7
864.0838	1162.6491	24579.35	23703.5
864.2286	1164.5883	24615.85	23744.15
864.3734	1166.5267	24556.75	23683.35
864.5182	1168.4644	24589.7	23717.7
864.663	1170.4014	24587.35	23711.85
864.8078	1172.3377	24573.65	23699.7
864.9526	1174.2732	24642.25	23771.35
865.0974	1176.2081	24691.45	23819.2
865.2421	1178.1421	24814.15	23937.35
865.3869	1180.0755	24922.25	24050.7
865.5317	1182.0082	24891.4	24020.6
865.6764	1183.9401	24906	24033.45
865.8212	1185.8713	24708.1	23836.1
865.9659	1187.8017	24531.3	23660.15
866.1106	1189.7315	24382.5	23512.95
866.2554	1191.6605	24162.85	23289.2
866.4001	1193.5888	24004.9	23132.45
866.5448	1195.5163	23986.35	23115.2
866.6895	1197.4432	23886.7	23014.1
866.8342	1199.3693	23776.45	22905.45
866.9789	1201.2947	23635.75	22760.1
867.1236	1203.2193	23580.05	22707.1
867.2683	1205.1432	23570.05	22700.5
867.413	1207.0664	23494.2	22620.55
867.5576	1208.9889	23461.55	22584.25
867.7023	1210.9106	23359.05	22485.6
867.847	1212.8316	23276.45	22401.8
867.9916	1214.7519	23256.3	22373
868.1363	1216.6715	23195.05	22321.45
868.2809	1218.5903	23205.6	22333.8
868.4255	1220.5084	23149.6	22276.6
868.5701	1222.4257	23164.85	22290.45
868.7148	1224.3424	23075.9	22204.45
868.8594	1226.2583	23039.85	22163.9
869.004	1228.1735	23034.9	22158.75
869.1486	1230.0879	22973.95	22099.4
869.2932	1232.0016	22958.65	22085.8
869.4377	1233.9146	22921.95	22045.9
869.5823	1235.8269	22906.5	22033.45
869.7269	1237.7384	22958.35	22083.6
869.8715	1239.6492	22839.55	21967.5
870.016	1241.5592	22840.15	21965.6
870.1606	1243.4686	22824.2	21951.05
870.3051	1245.3772	22859.7	21982.35
870.4496	1247.285	22910.3	22036.75
870.5941	1249.1922	22938.5	22063.55
870.7387	1251.0986	22996.95	22122.8
870.8832	1253.0042	23033.35	22159.1
871.0277	1254.9092	23105.75	22231.9
871.1722	1256.8134	23175.35	22303
871.3167	1258.7169	23260.9	22384.7
871.4611	1260.6196	23256.45	22382
871.6056	1262.5216	23283.4	22408.8
871.7501	1264.4229	23209.6	22335.15
871.8945	1266.3234	23164.4	22290.75
872.039	1268.2232	23057.5	22182.25
872.1834	1270.1223	22926.1	22050.35
872.3278	1272.0207	22874.45	22000.2
872.4723	1273.9183	22818.3	21936.6
872.6167	1275.8151	22765.5	21893.8
872.7611	1277.7113	22769.05	21893.35
872.9055	1279.6067	22822.95	21948.3
873.0499	1281.5014	22945.4	22068.9
873.1943	1283.3953	23092.25	22214.55
873.3386	1285.2885	23334.4	22460.6
873.483	1287.181	23509.95	22635.35
873.6274	1289.0727	23632.55	22757.55
873.7717	1290.9637	23501.15	22626.25
873.9161	1292.854	23401.1	22525.25
874.0604	1294.7435	23187.35	22312.05
874.2047	1296.6323	23011.85	22136.05
874.349	1298.5204	22868.85	21988.55
874.4933	1300.4077	22766.15	21890.05
874.6376	1302.2943	22685.7	21810.5
874.7819	1304.1802	22646.45	21773.05
874.9262	1306.0653	22544.4	21666.65
875.0705	1307.9497	22550	21673.7
875.2147	1309.8333	22452.25	21579.15
875.359	1311.7162	22412.75	21538.7
875.5032	1313.5984	22376	21497.4
875.6475	1315.4798	22264.1	21385.65
875.7917	1317.3605	22180.75	21300.5
875.9359	1319.2405	22210.05	21331.75
876.0801	1321.1197	22137.7	21260.35
876.2243	1322.9982	22043.15	21162.35
876.3685	1324.876	21973.75	21098.15
876.5127	1326.753	21832.5	20955.55
876.6569	1328.6293	21728.85	20850.7
876.801	1330.5048	21616.7	20739.9
876.9452	1332.3796	21451.45	20575.8
877.0893	1334.2537	21409.7	20509.4
877.2335	1336.127	21280.35	20405.05
877.3776	1337.9996	21237.8	20363
877.5217	1339.8714	21173.25	20295.85
877.6658	1341.7426	21169	20249.65
877.8099	1343.6129	21110.05	20234.95
877.954	1345.4826	21038.35	20163.5
878.0981	1347.3515	20994.25	20115.6
878.2422	1349.2196	20906	20027.95
878.3862	1351.087	20961.1	20084.25
878.5303	1352.9537	20886.2	20008.55
878.6743	1354.8197	20933.05	20057.7
878.8184	1356.6849	20912.15	20033.75
878.9624	1358.5493	20831.45	19957.55
879.1064	1360.4131	20853.5	19978.6
879.2504	1362.276	20842.4	19969.25
879.3944	1364.1383	20843.15	19968
879.5384	1365.9998	20848.75	19965.85
879.6823	1367.8606	20793	19915.6
879.8263	1369.7206	20746.05	19869.25
879.9702	1371.5799	20690.15	19810.1
880.1142	1373.4384	20663.25	19786.65
880.2581	1375.2962	20600.95	19722.35
880.402	1377.1533	20439.6	19565.9
880.5459	1379.0096	20285.2	19405.7
880.6898	1380.8652	20250.1	19374.15
880.8337	1382.7201	20155.05	19281.3
880.9776	1384.5742	20009.7	19132.35
881.1215	1386.4275	19914.25	19036.2
881.2653	1388.2802	19854.8	18978.95
881.4092	1390.132	19782.95	18906.5
881.553	1391.9832	19763.75	18885.45
881.6968	1393.8336	19621.55	18743.3
881.8406	1395.6832	19607.8	18727.9
881.9844	1397.5322	19523.4	18647.6
882.1282	1399.3803	19434.85	18552.8
882.272	1401.2278	19366.7	18489.1
882.4158	1403.0745	19301.75	18424.75
882.5595	1404.9204	19230.6	18353.3
882.7033	1406.7656	19200.55	18322.55
882.847	1408.6101	19112.05	18235.3
882.9908	1410.4538	19063.55	18187.4
883.1345	1412.2968	19010.95	18134.15
883.2782	1414.139	18984.9	18109.2
883.4219	1415.9805	18936.85	18060.85
883.5656	1417.8213	18870.3	17974.6
883.7092	1419.6613	18862	17984.8
883.8529	1421.5006	18852.25	17974.4
883.9965	1423.3391	18859.7	17982.6
884.1402	1425.1769	18838.75	17961.45
884.2838	1427.0139	18882.45	18005.9
884.4274	1428.8502	18959.65	18081.3
884.571	1430.6858	19023.4	18145.2
884.7146	1432.5206	18951.6	18076.55
884.8582	1434.3547	18945.75	18069.1
885.0018	1436.188	18896.45	18018.85
885.1453	1438.0206	18864.55	17987.6
885.2889	1439.8524	18800.45	17922.2
885.4324	1441.6835	18795.4	17915.95
885.5759	1443.5139	18737.15	17856.45
885.7194	1445.3435	18652.5	17775.75
885.8629	1447.1724	18729.2	17851.2
886.0064	1449.0005	18646.25	17768.5
886.1499	1450.8279	18612.4	17734.85
886.2933	1452.6545	18597.5	17718.9
886.4368	1454.4804	18607.3	17729.75
886.5802	1456.3056	18581.35	17695.95
886.7237	1458.13	18479.7	17602.85
886.8671	1459.9536	18495.15	17614.6
887.0105	1461.7766	18392.1	17515.9
887.1539	1463.5987	18322.8	17443.6
887.2972	1465.4202	18253.15	17375.9
887.4406	1467.2409	18126.95	17248.1
887.584	1469.0608	18120.6	17243.3
887.7273	1470.88	18043.95	17163.95
887.8706	1472.6984	17986.3	17109.55
888.0139	1474.5161	17866.1	16984.55
888.1572	1476.3331	17823.8	16945.75
888.3005	1478.1493	17765.45	16887.7
888.4438	1479.9648	17759.05	16884.05
888.5871	1481.7795	17710.95	16831.7
888.7303	1483.5935	17733.3	16856
888.8736	1485.4067	17719.9	16841.45
889.0168	1487.2192	17694.5	16818.05
889.16	1489.031	17687.1	16808.7
889.3032	1490.842	17622.25	16743.6
889.4464	1492.6522	17624	16745.1
889.5896	1494.4618	17563	16685
889.7327	1496.2705	17538.05	16660.45
889.8759	1498.0785	17481.1	16602.85
890.019	1499.8858	17457.3	16579.65
890.1622	1501.6924	17418.45	16541.85
890.3053	1503.4981	17379.5	16502.55
890.4484	1505.3032	17353.7	16473.7
890.5914	1507.1075	17300.1	16423
890.7345	1508.911	17283.25	16406.75
890.8776	1510.7138	17224.55	16344.5
891.0206	1512.5159	17153.2	16275.65
891.1637	1514.3172	17091.7	16215.65
891.3067	1516.1178	17010.4	16133.65
891.4497	1517.9176	17030.4	16150.3
891.5927	1519.7166	16977.55	16101.35
891.7357	1521.515	16928.65	16043.6
891.8786	1523.3126	16893.25	16015.4
892.0216	1525.1094	16819.3	15940.8
892.1645	1526.9055	16765.4	15889.15
892.3074	1528.7008	16692.2	15814.3
892.4503	1530.4954	16607.05	15728.7
892.5932	1532.2893	16587.15	15710.75
892.7361	1534.0824	16496.15	15612.45
892.879	1535.8747	16499.75	15621.25
893.0218	1537.6663	16429.35	15549.75
893.1647	1539.4572	16373.15	15492.75
893.3075	1541.2473	16355.9	15476.2
893.4503	1543.0367	16306.1	15430.65
893.5931	1544.8253	16256.5	15374.9
893.7359	1546.6132	16205.75	15327.65
893.8787	1548.4003	16159.85	15271.75
894.0214	1550.1867	16162.65	15276.85
894.1642	1551.9723	16121.3	15238.1
894.3069	1553.7572	16089.6	15209.7
894.4496	1555.5414	16061.05	15181.35
894.5923	1557.3247	16047.3	15167.65
894.735	1559.1074	16025.55	15147.55
894.8777	1560.8893	16032.65	15156.4
895.0204	1562.6705	16038.95	15162.05
895.163	1564.4509	16009.8	15133.4
895.3056	1566.2305	15969.5	15093.75
895.4482	1568.0094	16012.95	15136.25
895.5908	1569.7876	15991.05	15114.15
895.7334	1571.565	15938.1	15060
895.876	1573.3417	15908.7	15031
896.0186	1575.1176	15868.85	14991
896.1611	1576.8928	15879.7	15000.9
896.3036	1578.6672	15795	14918.15
896.4461	1580.4409	15789.95	14915.05
896.5886	1582.2138	15778.8	14899.95
896.7311	1583.986	15801.45	14925.2
896.8736	1585.7575	15814.2	14938.9
897.0161	1587.5282	15811.15	14936
897.1585	1589.2981	15846.1	14971.4
897.3009	1591.0673	15791.75	14913.3
897.4433	1592.8358	15814.1	14937.85
897.5857	1594.6035	15773.6	14892.75
897.7281	1596.3704	15742.1	14865.05
897.8705	1598.1366	15626	14749
898.0128	1599.9021	15536.6	14658.75
898.1551	1601.6668	15432.6	14552.5
898.2975	1603.4308	15359.95	14481.05
898.4398	1605.194	15352.3	14469.65
898.5821	1606.9564	15316.4	14442.35
898.7243	1608.7182	15381.1	14499.85
898.8666	1610.4791	15429.7	14554.05
899.0088	1612.2394	15505.5	14630.15
899.1511	1613.9988	15580	14704.95
899.2933	1615.7576	15665.75	14788.35
899.4355	1617.5156	15710.1	14826.85
899.5776	1619.2728	15620.65	14743.8
899.7198	1621.0293	15492.3	14616.6
899.862	1622.785	15314.9	14434.4
900.0041	1624.54	15113	14233.25
900.1462	1626.2942	14923.6	14045.05
900.2883	1628.0477	14725.1	13845.7
900.4304	1629.8005	14578	13696.75
900.5725	1631.5525	14451.75	13573.75
900.7145	1633.3037	14328.6	13450.55
900.8566	1635.0542	14262.85	13385.35
900.9986	1636.804	14160.25	13282
901.1406	1638.553	14182.65	13217.85
901.2826	1640.3013	14059.7	13183.6
901.4245	1642.0488	13976.4	13100.5
901.5665	1643.7955	13915.7	13039.45
901.7085	1645.5416	13843.9	12966.25
901.8504	1647.2868	13846.95	12969.05
901.9923	1649.0313	13740.1	12864.95
902.1342	1650.7751	13728.95	12847.5
902.2761	1652.5181	13699.2	12822.1
902.4179	1654.2604	13628.65	12749.5
902.5598	1656.0019	13622.4	12745.65
902.7016	1657.7427	13605.7	12729.05
902.8434	1659.4828	13596.05	12721.3
902.9852	1661.222	13590.35	12712.9
903.127	1662.9606	13567.75	12691.3
903.2687	1664.6984	13613.1	12735.8
903.4105	1666.4354	13593.95	12715.6
903.5522	1668.1717	13522.25	12646.2
903.6939	1669.9072	13397.55	12520.05
903.8356	1671.642	13344.5	12465
903.9773	1673.3761	13243.7	12365.85
904.119	1675.1094	13182.8	12304.5
904.2606	1676.8419	13108.25	12229.7
904.4022	1678.5737	13018.9	12139.9
904.5439	1680.3048	12991.1	12113.85
904.6855	1682.0351	12892.7	12016.15
904.827	1683.7646	12838.85	11957.55
904.9686	1685.4934	12792.65	11915.5
905.1101	1687.2215	12712.25	11832.3
905.2517	1688.9488	12670.1	11793.2
905.3932	1690.6754	12641.25	11765.7
905.5347	1692.4012	12599.45	11721.15
905.6761	1694.1263	12533.25	11654.35
905.8176	1695.8506	12523.75	11647.15
905.9591	1697.5742	12480.45	11602.95
906.1005	1699.297	12431.25	11554.05
906.2419	1701.0191	12375.35	11496.65
906.3833	1702.7404	12329.65	11454.45
906.5246	1704.461	12237.65	11357.15
906.666	1706.1808	12206.2	11328.15
906.8073	1707.8999	12170.8	11293.05
906.9487	1709.6182	12134.9	11254.75
907.09	1711.3358	12113.8	11235.6
907.2313	1713.0527	12099.3	11221.2
907.3725	1714.7688	12014	11130.85
907.5138	1716.4841	11986.2	11106.25
907.655	1718.1987	11949.95	11065.55
907.7962	1719.9126	11931.8	11055.3
907.9374	1721.6257	11898.6	11017.8
908.0786	1723.338	11897.55	11019.7
908.2198	1725.0496	11816.35	10937.2
908.3609	1726.7605	11804.45	10925.2
908.502	1728.4706	11804.25	10927
908.6431	1730.18	11747.2	10866.55
908.7842	1731.8886	11734.9	10856.5
908.9253	1733.5964	11716.45	10818.7
909.0664	1735.3036	11672.45	10791.25
909.2074	1737.0099	11650.9	10773.9
909.3484	1738.7156	11635.25	10760.3
909.4894	1740.4204	11556.05	10676.05
909.6304	1742.1246	11556.05	10675.4
909.7714	1743.8279	11522.85	10646.2
909.9123	1745.5306	11525.3	10647.35
910.0532	1747.2325	11525.2	10647.55
910.1941	1748.9336	11499.5	10620.45
910.335	1750.634	11428.3	10552.45
910.4759	1752.3336	11462	10584.3
910.6168	1754.0325	11417.55	10542.1
910.7576	1755.7307	11391.75	10514.05
910.8984	1757.4281	11384.05	10505.8
911.0392	1759.1247	11365.3	10480.15
911.18	1760.8206	11369.75	10485.85
911.3208	1762.5158	11371.45	10488.6
911.4615	1764.2102	11295.15	10418.7
911.6022	1765.9039	11254.3	10375.75
911.7429	1767.5968	11234.95	10355.55
911.8836	1769.289	11225.5	10346.4
912.0243	1770.9804	11193.55	10316.65
912.1649	1772.6711	11170.15	10292.15
912.3056	1774.361	11161.95	10286.8
912.4462	1776.0502	11152.6	10273.25
912.5868	1777.7386	11127	10246.3
912.7274	1779.4263	11064.7	10184.7
912.8679	1781.1132	11072.7	10195.35
913.0084	1782.7994	11034.35	10154.5
913.149	1784.4849	11003.15	10126.6
913.2895	1786.1696	10995.9	10100.95
913.4299	1787.8535	10970.2	10093.6
913.5704	1789.5367	10912.35	10034.6
913.7108	1791.2192	10908	10031.2
913.8513	1792.9009	10895.85	9999.6
913.9917	1794.5818	10853.7	9976.1
914.132	1796.2621	10820.8	9942.25
914.2724	1797.9415	10800.2	9921.7
914.4128	1799.6202	10763.1	9884.8
914.5531	1801.2982	10727.45	9848.75
914.6934	1802.9755	10703.4	9825.15
914.8337	1804.6519	10739.25	9863.05
914.9739	1806.3277	10649.35	9773.1
915.1142	1808.0027	10624.35	9746.55
915.2544	1809.6769	10624.85	9748.3
915.3946	1811.3504	10577.3	9698.9
915.5348	1813.0231	10547.9	9670.35
915.675	1814.6951	10546.15	9665.75
915.8151	1816.3664	10565.95	9687.6
915.9553	1818.0369	10525.7	9649.15
916.0954	1819.7067	10494.55	9617.85
916.2355	1821.3757	10496.9	9617.1
916.3755	1823.044	10470.4	9593.35
916.5156	1824.7115	10448.05	9570.6
916.6556	1826.3783	10369.45	9494.55
916.7956	1828.0443	10367.05	9491.2
916.9356	1829.7096	10369.4	9490.75
917.0756	1831.3741	10358.25	9477.05
917.2155	1833.0379	10317.5	9441.05
917.3555	1834.701	10285.55	9405.25
917.4954	1836.3633	10272.6	9394.75
917.6353	1838.0248	10242.2	9363.4
917.7751	1839.6856	10233.45	9356.45
917.915	1841.3457	10231.15	9354.45
918.0548	1843.005	10198.75	9322.9
918.1946	1844.6636	10190.45	9313.6
918.3344	1846.3214	10171	9293.7
918.4742	1847.9785	10124.4	9245.75
918.6139	1849.6349	10081.7	9203.55
918.7537	1851.2904	10087.7	9201.05
918.8934	1852.9453	10057.75	9179.75
919.0331	1854.5994	10025.75	9144.75
919.1727	1856.2528	10048.85	9166.4
919.3124	1857.9054	10000.2	9122.25
919.452	1859.5572	9976.7	9100.7
919.5916	1861.2083	9968.75	9091.3
919.7312	1862.8587	9977.65	9099.55
919.8708	1864.5084	9955.2	9075.25
920.0103	1866.1572	9904.25	9028.25
920.1498	1867.8054	9862.75	8984.6
920.2893	1869.4528	9858.2	8979.25
920.4288	1871.0994	9846.55	8968.05
920.5683	1872.7453	9829.65	8950.9
920.7077	1874.3905	9815.65	8931.1
920.8471	1876.0349	9795.45	8916.45
920.9865	1877.6786	9770.85	8893.25
921.1259	1879.3215	9770.9	8893.1
921.2653	1880.9637	9765.9	8886.95
921.4046	1882.6051	9746.5	8870.9
921.5439	1884.2458	9715.9	8835.45
921.6832	1885.8858	9682.65	8805.4
921.8225	1887.525	9673	8794.85
921.9617	1889.1634	9624.4	8747.55
922.101	1890.8011	9576.45	8696.1
922.2402	1892.4381	9573.65	8697.05
922.3794	1894.0743	9570.5	8693.55
922.5185	1895.7098	9562.3	8684.05
922.6577	1897.3446	9537.8	8658.95
922.7968	1898.9786	9513.3	8629.9
922.9359	1900.6118	9476.7	8599.35
923.075	1902.2443	9461.7	8581.45
923.214	1903.8761	9444.05	8566.7
923.3531	1905.5071	9385.55	8506.1
923.4921	1907.1374	9372.25	8493.85
923.6311	1908.7669	9358.95	8480.1
923.77	1910.3957	9325.8	8449.15
923.909	1912.0237	9290.3	8412.65
924.0479	1913.651	9277.8	8399.65
924.1868	1915.2776	9255	8377.65
924.3257	1916.9034	9220.95	8348.15
924.4646	1918.5285	9160.6	8285.75
924.6034	1920.1528	9137.7	8259.65
924.7422	1921.7764	9158.2	8279.4
924.881	1923.3992	9113.2	8237.3
925.0198	1925.0213	9043.8	8165.6
925.1586	1926.6427	8997	8118.95
925.2973	1928.2633	9159.7	8070.8
925.436	1929.8832	9021.4	8140.8
925.5747	1931.5023	8967.55	8090.25
925.7134	1933.1207	8934.35	8055.55
925.852	1934.7383	8937.25	8058.35
925.9906	1936.3552	8904.45	8027.95
926.1292	1937.9714	8901.05	8022.95
926.2678	1939.5868	8862.75	7986.15
926.4064	1941.2015	8819.7	7941.6
926.5449	1942.8154	8792.45	7915.45
926.6834	1944.4286	8754.25	7875.85
926.8219	1946.041	8733.6	7834.8
926.9604	1947.6528	8677.45	7796
927.0988	1949.2637	8664.6	7788.3
927.2372	1950.8739	8667.1	7788
927.3756	1952.4834	8630	7752.6
927.514	1954.0921	8607.05	7727.15
927.6523	1955.7001	8573.05	7691.05
927.7907	1957.3074	8563.35	7688
927.929	1958.9139	8546.4	7670
928.0673	1960.5197	8511.2	7632.75
928.2055	1962.1247	8470.05	7592.8
928.3438	1963.729	8421.05	7543.55
928.482	1965.3325	8450.25	7549.2
928.6202	1966.9353	8404.85	7528.75
928.7584	1968.5374	8387.75	7508.05
928.8965	1970.1387	8358.8	7480.55
929.0346	1971.7393	8333.8	7455.8
929.1727	1973.3392	8308.55	7429.85
929.3108	1974.9383	8298.25	7420.55
929.4489	1976.5366	8264.45	7388.85
929.5869	1978.1342	8253.65	7377.55
929.7249	1979.7311	8262.6	7384.15
929.8629	1981.3273	8207.45	7330.35
930.0009	1982.9227	8176.1	7298
930.1388	1984.5173	8149.25	7272.7
930.2767	1986.1112	8131.7	7254.15
930.4146	1987.7044	8130.9	7257.15
930.5525	1989.2968	8111.85	7231.9
930.6904	1990.8885	8105.95	7224.3
930.8282	1992.4795	8082.55	7202.45
930.966	1994.0697	8047	7169.1
931.1038	1995.6592	8051.5	7174.6
931.2415	1997.2479	8032.05	7153.15
931.3793	1998.8359	8018.8	7143.25
931.517	2000.4232	7967.95	7090.85
931.6547	2002.0097	7953.05	7077.85
931.7923	2003.5955	7934.15	7058.7
931.93	2005.1805	7929.95	7050.85
932.0676	2006.7648	7900.65	7024.4
932.2052	2008.3484	7863.15	6986.6
932.3427	2009.9312	7875.05	6996.35
932.4803	2011.5133	7850.25	6973.9
932.6178	2013.0946	7840.9	6964.15
932.7553	2014.6752	7804.15	6928.7
932.8928	2016.2551	7798.1	6919.05
933.0302	2017.8342	7772.35	6896.2
933.1676	2019.4126	7744.55	6869.8
933.305	2020.9902	7726.45	6849.6
933.4424	2022.5672	7706.95	6826.75
933.5798	2024.1433	7694.65	6813.5
933.7171	2025.7188	7661	6785.7
933.8544	2027.2935	7648.9	6770.9
933.9917	2028.8674	7615.2	6738.45
934.129	2030.4406	7604.95	6728.7
934.2662	2032.0131	7566.95	6691.5
934.4034	2033.5849	7567.15	6686.2
934.5406	2035.1559	7542.25	6667.35
934.6778	2036.7261	7525.4	6649.3
934.8149	2038.2957	7523.85	6646.45
934.952	2039.8645	7529.35	6653
935.0891	2041.4325	7527.15	6646.85
935.2262	2042.9998	7471.05	6594.65
935.3632	2044.5664	7476.35	6597.05
935.5002	2046.1323	7461.85	6586.2
935.6372	2047.6974	7418.7	6542.65
935.7742	2049.2617	7433.4	6558.65
935.9111	2050.8254	7443.85	6546.2
936.048	2052.3883	7416.85	6541.5
936.1849	2053.9504	7400.4	6523.25
936.3218	2055.5118	7381.05	6502.5
936.4586	2057.0725	7353.3	6471.4
936.5955	2058.6325	7342.45	6466.15
936.7323	2060.1917	7323.45	6448.5
936.869	2061.7502	7309.3	6429.4
937.0058	2063.3079	7269.8	6393.5
937.1425	2064.8649	7263	6383.5
937.2792	2066.4212	7269.7	6391.65
937.4159	2067.9767	7244.85	6369.25
937.5525	2069.5315	7202.6	6327.3
937.6891	2071.0856	7190.65	6313.85
937.8257	2072.6389	7185.45	6308.25
937.9623	2074.1915	7128.45	6251.7
938.0989	2075.7433	7124.4	6244.6
938.2354	2077.2945	7111.6	6236.6
938.3719	2078.8448	7084.25	6207.75
938.5084	2080.3945	7078.7	6203.35
938.6448	2081.9434	7071.55	6195.6
938.7812	2083.4916	7049.75	6173.05
938.9176	2085.039	7030.55	6150.7
939.054	2086.5857	7018.95	6141.1
939.1903	2088.1317	7017.95	6141.15
939.3267	2089.677	6998.45	6121.3
939.463	2091.2215	6988.2	6111.5
939.5992	2092.7652	6972.5	6091.9
939.7355	2094.3083	6948.7	6071.3
939.8717	2095.8506	6963.5	6087.3
940.0079	2097.3921	6955.8	6079
940.1441	2098.933	6917.6	6039.9
940.2802	2100.4731	6889.45	6014.85
940.4163	2102.0124	6930.6	6035.8
940.5524	2103.5511	6895.1	6019.7
940.6885	2105.089	6887.35	6010.5
940.8245	2106.6261	6874.05	5997.05
940.9606	2108.1626	6866.1	5986.8
941.0965	2109.6983	6864.95	5956.7
941.2325	2111.2332	6849.75	5973.75
941.3684	2112.7675	6822.15	5945.1
941.5044	2114.301	6804.8	5925.85
941.6403	2115.8337	6793.9	5917.25
941.7761	2117.3657	6799	5922.3
941.912	2118.897	6762.6	5885.9
942.0478	2120.4276	6760.95	5876.5
942.1835	2121.9575	6740.6	5863.9
942.3193	2123.4866	6736.65	5857.8
942.455	2125.0149	6704.45	5824.35
942.5907	2126.5426	6675.7	5800.05
942.7264	2128.0695	6675.45	5794.3
942.8621	2129.5956	6671.7	5795.8
942.9977	2131.1211	6668.25	5788.75
943.1333	2132.6458	6642.75	5766.1
943.2689	2134.1698	6620.8	5744.4
943.4044	2135.693	6611.8	5731.3
943.54	2137.2155	6594.45	5713.85
943.6755	2138.7373	6584.3	5708.45
943.8109	2140.2584	6558.5	5682.6
943.9464	2141.7787	6542.5	5659.7
944.0818	2143.2983	6513.45	5637.95
944.2172	2144.8171	6500.75	5624.65
944.3526	2146.3353	6485.2	5605.6
944.4879	2147.8527	6459.05	5583.4
944.6232	2149.3693	6464.15	5584.75
944.7585	2150.8853	6423.45	5545.45
944.8938	2152.4005	6418.6	5542.2
945.029	2153.9149	6411.35	5535.45
945.1642	2155.4287	6399.3	5521.1
945.2994	2156.9417	6387.15	5510.55
945.4346	2158.454	6377.15	5499.2
945.5697	2159.9655	6366.6	5489.75
945.7048	2161.4764	6346.15	5469.65
945.8399	2162.9865	6330.3	5451.75
945.9749	2164.4958	6311.5	5434.3
946.1099	2166.0045	6291.9	5411.6
946.2449	2167.5124	6307.5	5431.55
946.3799	2169.0195	6275.55	5400.85
946.5148	2170.526	6267.1	5390.2
946.6498	2172.0317	6252.1	5377.45
946.7846	2173.5367	6232.35	5356.7
946.9195	2175.0409	6226.65	5351.8
947.0543	2176.5445	6214.8	5339.25
947.1891	2178.0473	6194.95	5319.15
947.3239	2179.5494	6162.5	5282.05
947.4587	2181.0507	6164.1	5287.25
947.5934	2182.5513	6142.5	5263.9
947.7281	2184.0512	6128.9	5251.65
947.8628	2185.5504	6096.95	5221.1
947.9974	2187.0488	6068.6	5190.9
948.132	2188.5465	6084	5207.55
948.2666	2190.0435	6064.85	5188
948.4012	2191.5397	6047.15	5171.25
948.5357	2193.0353	6022.75	5146.9
948.6702	2194.5301	6000	5123.2
948.8047	2196.0241	5980.85	5103.9
948.9392	2197.5175	5987.15	5109.9
949.0736	2199.0101	5935.25	5054.4
949.208	2200.502	5920.7	5045.3
949.3424	2201.9931	5903.85	5026.3
949.4767	2203.4835	5897.2	5019.45
949.611	2204.9733	5885.7	5004.45
949.7453	2206.4622	5872.8	4997.65
949.8796	2207.9505	5841.1	4962.8
950.0138	2209.438	5843.7	4968.2
950.148	2210.9248	5828.35	4949.25
950.2822	2212.4109	5792.6	4917.45
950.4164	2213.8962	5789.1	4910.55
950.5505	2215.3809	5794.85	4916.6
950.6846	2216.8648	5783.85	4907.85
950.8186	2218.3479	5765.3	4882.85
950.9527	2219.8304	5710.35	4830.55
951.0867	2221.3121	5721.5	4843.3
951.2207	2222.7931	5687.25	4811.65
951.3546	2224.2733	5685.25	4806.8
951.4886	2225.7529	5668.45	4789.8
951.6225	2227.2317	5630.4	4750.75
951.7563	2228.7098	5647.9	4771.5
951.8902	2230.1872	5620.35	4745.2
952.024	2231.6638	5609.55	4732.8
952.1578	2233.1397	5592.25	4709.5
952.2916	2234.6149	5591.8	4714.55
952.4253	2236.0894	5542.4	4665.5
952.559	2237.5632	5562.3	4676.9
952.6927	2239.0362	5530.1	4653.35
952.8263	2240.5085	5509.55	4633.65
952.9599	2241.9801	5488.6	4610.65
953.0935	2243.4509	5490.85	4614.55
953.2271	2244.921	5467.9	4591.85
953.3606	2246.3904	5452.15	4574.7
953.4941	2247.8591	5429.4	4554.05
953.6276	2249.3271	5428.75	4550.1
953.7611	2250.7943	5414.25	4537.75
953.8945	2252.2608	5385.75	4509.3
954.0279	2253.7266	5368.3	4492.95
954.1612	2255.1917	5360	4482.65
954.2946	2256.656	5361.75	4484.1
954.4279	2258.1197	5334.7	4457.85
954.5612	2259.5826	5319.95	4440.25
954.6944	2261.0447	5320.7	4443.9
954.8276	2262.5062	5296.9	4419.65
954.9608	2263.9669	5306.4	4426.5
955.094	2265.4269	5288.6	4412.1
955.2271	2266.8862	5266.95	4391.9
955.3602	2268.3448	5265	4387.9
955.4933	2269.8026	5256.25	4378.85
955.6264	2271.2598	5235.95	4359.05
955.7594	2272.7162	5219.8	4342.55
955.8924	2274.1719	5199.15	4321.2
956.0253	2275.6268	5181.3	4305.45
956.1583	2277.0811	5194.8	4317.15
956.2912	2278.5346	5169.9	4294.65
956.4241	2279.9874	5160.35	4284.55
956.5569	2281.4395	5151.6	4277.05
956.6897	2282.8908	5135.05	4253.9
956.8225	2284.3414	5126.4	4249.35
956.9553	2285.7914	5096.25	4219.75
957.088	2287.2406	5091	4212.85
957.2207	2288.689	5088.45	4211.3
957.3534	2290.1368	5075.7	4198.25
957.486	2291.5838	5059.8	4180.25
957.6186	2293.0302	5054.5	4175.75
957.7512	2294.4758	5031.8	4156.05
957.8838	2295.9206	5021.85	4142.7
958.0163	2297.3648	5002.15	4123.9
958.1488	2298.8082	5001.6	4124.35
958.2813	2300.251	4977.8	4101.9
958.4137	2301.693	4964.6	4085.3
958.5461	2303.1343	4981.1	4104.45
958.6785	2304.5748	4939.1	4061.75
958.8108	2306.0147	4928.5	4051.95
958.9432	2307.4538	4914.3	4035.35
959.0754	2308.8922	4896.25	4022.3
959.2077	2310.3299	4891.25	4015.35
959.3399	2311.7669	4872.95	3996.65
959.4721	2313.2031	4849.45	3973.05
959.6043	2314.6387	4829.7	3953
959.7365	2316.0735	4847.9	3970.65
959.8686	2317.5076	4833.4	3958.8
960.0006	2318.941	4825.95	3949.8
960.1327	2320.3737	4808.8	3932.15
960.2647	2321.8056	4802.05	3923.8
960.3967	2323.2369	4784.25	3906.55
960.5287	2324.6674	4761.3	3880.85
960.6606	2326.0972	4767.45	3889.45
960.7925	2327.5263	4739.45	3863.6
960.9244	2328.9547	4746.95	3868.95
961.0562	2330.3823	4720.1	3842.25
961.1881	2331.8092	4715.45	3835.1
961.3198	2333.2355	4689.5	3811.45
961.4516	2334.661	4697.55	3820.55
961.5833	2336.0858	4675	3794.5
961.715	2337.5098	4673.3	3794.85
961.8467	2338.9332	4657.35	3779.7
961.9783	2340.3558	4645.3	3767.4
962.1099	2341.7778	4635.25	3758.15
962.2415	2343.199	4609.95	3731.25
962.373	2344.6195	4599.5	3721.95
962.5045	2346.0393	4593.35	3716.9
962.636	2347.4583	4598.65	3719.5
962.7675	2348.8767	4588.1	3709.2
962.8989	2350.2943	4550.7	3674.6
963.0303	2351.7113	4546.85	3668.75
963.1617	2353.1275	4532.5	3655.3
963.293	2354.543	4531.25	3645.65
963.4243	2355.9578	4520.25	3643.6
963.5556	2357.3718	4495.65	3619.15
963.6868	2358.7852	4488.65	3606.65
963.818	2360.1978	4457.9	3579.45
963.9492	2361.6098	4455.65	3578.9
964.0803	2363.021	4444.9	3563.55
964.2114	2364.4315	4430.7	3554.55
964.3425	2365.8413	4430.7	3547.45
964.4736	2367.2504	4420.05	3544
964.6046	2368.6587	4389.85	3510.4
964.7356	2370.0664	4386.5	3507.8
964.8666	2371.4733	4363.55	3485.95
964.9975	2372.8795	4360.3	3482.2
965.1284	2374.285	4326.45	3448.55
965.2593	2375.6899	4309.3	3434
965.3901	2377.0939	4296.35	3420.6
965.5209	2378.4973	4305.55	3429.6
965.6517	2379.9	4289.9	3411.55
965.7825	2381.3019	4261.65	3385.55
965.9132	2382.7032	4260.85	3384.25
966.0439	2384.1037	4257	3380.5
966.1745	2385.5035	4232.6	3355.75
966.3051	2386.9027	4239.9	3362.7
966.4357	2388.3011	4215	3335.7
966.5663	2389.6987	4215.95	3338.6
966.6968	2391.0957	4204.75	3327.95
966.8273	2392.492	4171.75	3296.2
966.9578	2393.8876	4166.5	3289.5
967.0882	2395.2824	4139	3261.2
967.2186	2396.6765	4130.55	3254.65
967.349	2398.07	4118	3240.4
967.4793	2399.4627	4105.9	3228.15
967.6097	2400.8547	4099.75	3222.95
967.7399	2402.246	4091.9	3208.75
967.8702	2403.6366	4069.3	3193.65
968.0004	2405.0265	4050.6	3173.7
968.1306	2406.4156	4041.55	3159.05
968.2607	2407.8041	4040.6	3159.1
968.3909	2409.1918	4023.4	3142.65
968.521	2410.5789	4006.65	3125.8
968.651	2411.9652	4004.3	3124.35
968.781	2413.3508	3975.35	3097.4
968.911	2414.7358	3969.4	3091.75
969.041	2416.12	3947.5	3070.6
969.1709	2417.5035	3946.55	3069
969.3008	2418.8863	3935.35	3054.95
969.4307	2420.2684	3924.3	3046.75
969.5606	2421.6497	3916.4	3037.55
969.6904	2423.0304	3890.05	3012
969.8201	2424.4104	3879.15	2999.55
969.9499	2425.7896	3879.5	2999.6
970.0796	2427.1682	3865.2	2985.7
970.2093	2428.546	3868.25	2991.1
970.3389	2429.9232	3845.15	2965.55
970.4685	2431.2996	3849.65	2972.55
970.5981	2432.6753	3831.55	2953.6
970.7277	2434.0503	3808.1	2929.6
970.8572	2435.4246	3794.2	2918.4
970.9867	2436.7982	3780	2900.95
971.1161	2438.1711	3785.15	2908.8
971.2456	2439.5433	3781.95	2902.65
971.375	2440.9148	3773.5	2890.35
971.5043	2442.2856	3776.65	2899.9
971.6336	2443.6557	3742.1	2861.65
971.7629	2445.025	3724.3	2846.85
971.8922	2446.3937	3730.75	2850.85
972.0214	2447.7617	3715.15	2838.2
972.1506	2449.1289	3706.4	2829.3
972.2798	2450.4955	3705.4	2825.25
972.4089	2451.8613	3685.4	2811.2
972.538	2453.2265	3679.3	2800
972.6671	2454.5909	3668.9	2791.55
972.7961	2455.9546	3664.8	2785.55
972.9251	2457.3177	3655.9	2777.75
973.0541	2458.68	3641.8	2764.45
973.1831	2460.0416	3649.95	2772.35
973.312	2461.4025	3635	2756.3
973.4408	2462.7627	3644.35	2757.45
973.5697	2464.1222	3609.3	2733.75
973.6985	2465.4811	3613.8	2736.2
973.8273	2466.8392	3597.85	2718.9
973.956	2468.1966	3591.5	2713.1
974.0847	2469.5533	3584.75	2704.5
974.2134	2470.9093	3573.6	2695.55
974.3421	2472.2645	3568.65	2689.3
974.4707	2473.6191	3567.2	2688.6
974.5993	2474.973	3555.2	2678
974.7278	2476.3262	3534.5	2655.6
974.8563	2477.6787	3519.05	2641.9
974.9848	2479.0305	3527.8	2651.6
975.1132	2480.3816	3499.45	2619.95
975.2417	2481.7319	3489.9	2612.5
975.37	2483.0816	3473.35	2595.25
975.4984	2484.4306	3485.25	2606
975.6267	2485.7789	3460.45	2585.05
975.755	2487.1264	3445.6	2567.15
975.8833	2488.4733	3439.9	2564.3
976.0115	2489.8195	3437.05	2552.85
976.1397	2491.165	3426.6	2546.75
976.2678	2492.5097	3411.5	2533.45
976.3959	2493.8538	3414.85	2536.8
976.524	2495.1972	3389.25	2511.9
976.6521	2496.5398	3384.5	2506.35
976.7801	2497.8818	3382.2	2502.95
976.9081	2499.2231	3367.85	2491.95
977.036	2500.5637	3353.5	2473.9
977.164	2501.9035	3345.75	2467.7
977.2918	2503.2427	3334.75	2453.9
977.4197	2504.5812	3327.85	2449.6
977.5475	2505.919	3313.9	2435.05
977.6753	2507.256	3311.35	2433.05
977.8031	2508.5924	3295.95	2419.4
977.9308	2509.9281	3303.7	2420.55
978.0585	2511.2631	3289.6	2413.95
978.1861	2512.5974	3273.15	2395.3
978.3137	2513.9309	3263.9	2386.45
978.4413	2515.2638	3299.05	2391.4
978.5689	2516.596	3256.2	2380.6
978.6964	2517.9275	3232.05	2353
978.8239	2519.2583	3228.65	2349.75
978.9513	2520.5884	3225.2	2344.55
979.0788	2521.9178	3211.9	2334.1
979.2062	2523.2465	3212.5	2336.05
979.3335	2524.5745	3189.75	2312.25
979.4608	2525.9018	3180.3	2303.95
979.5881	2527.2284	3169.1	2292.6
979.7154	2528.5543	3169.25	2293
979.8426	2529.8796	3162.8	2285.55
979.9698	2531.2041	3166	2288.85
980.0969	2532.5279	3148.05	2272.4
980.224	2533.851	3144.55	2266.25
980.3511	2535.1735	3131	2254.95
980.4781	2536.4952	3138.25	2261.35
980.6052	2537.8163	3120.6	2242.8
980.7321	2539.1366	3101.6	2225.9
980.8591	2540.4562	3105.35	2229.25
980.986	2541.7752	3103.7	2226.3
981.1129	2543.0935	3093.35	2217.35
981.2397	2544.411	3087.95	2209.75
981.3665	2545.7279	3077.85	2201.4
981.4933	2547.0441	3084.6	2206.95
981.62	2548.3596	3078.9	2198.95
981.7467	2549.6744	3078.3	2200.9
981.8734	2550.9885	3064.3	2178.55
982.0001	2552.3019	3049.2	2171.45
982.1267	2553.6146	3044.75	2166
982.2532	2554.9266	3036.4	2159.6
982.3798	2556.2379	3029.6	2149.65
982.5063	2557.5485	3029.05	2152.2
982.6327	2558.8585	3022.4	2138.15
982.7592	2560.1677	3022.25	2142.7
982.8856	2561.4762	3016.4	2137
983.0119	2562.7841	3023.3	2143
983.1383	2564.0913	3006.75	2131.45
983.2646	2565.3977	3004.6	2126.6
983.3908	2566.7035	2995.65	2119.25
983.517	2568.0086	2998.75	2117.85
983.6432	2569.313	2989.7	2114.15
983.7694	2570.6167	2979.45	2099.3
983.8955	2571.9197	2973.2	2095.95
984.0216	2573.222	2969.05	2089.75
984.1476	2574.5236	2956.85	2078.25
984.2737	2575.8246	2962.05	2081.95
984.3996	2577.1248	2955.9	2077.1
984.5256	2578.4244	2944.85	2066.15
984.6515	2579.7232	2941.45	2064.95
984.7774	2581.0214	2954.6	2052.9
984.9032	2582.3189	2930.65	2055.2
985.029	2583.6157	2922.65	2040.6
985.1548	2584.9118	2916.55	2037.9
985.2806	2586.2072	2918.55	2042.35
985.4063	2587.5019	2909.8	2032.8
985.5319	2588.7959	2903	2022.35
985.6576	2590.0893	2902.35	2024.25
985.7832	2591.3819	2882	2003.65
985.9087	2592.6739	2876.3	2000.1
986.0343	2593.9652	2868.65	1990
986.1597	2595.2557	2856.25	1976.1
986.2852	2596.5456	2841.4	1961.2
986.4106	2597.8348	2843.45	1966.3
986.536	2599.1234	2829.05	1953.05
986.6614	2600.4112	2820.2	1942.55
986.7867	2601.6983	2828.65	1947.2
986.912	2602.9848	2814.5	1938.15
987.0372	2604.2705	2822.85	1938.2
987.1624	2605.5556	2808.95	1933
987.2876	2606.84	2788.45	1910.05
987.4128	2608.1237	2777.2	1897.05
987.5379	2609.4067	2775.9	1899.15
987.6629	2610.689	2778.15	1893.2
987.788	2611.9707	2767.65	1888.8
987.913	2613.2516	2756.1	1875.05
988.0379	2614.5319	2738.45	1860.8
988.1629	2615.8115	2741.9	1864.95
988.2878	2617.0903	2724.4	1844.7
988.4126	2618.3685	2719.7	1842.65
988.5375	2619.6461	2709.65	1833.15
988.6622	2620.9229	2696	1819.05
988.787	2622.199	2702.65	1823.2
988.9117	2623.4745	2688.7	1811.05
989.0364	2624.7493	2684.9	1807.45
989.161	2626.0234	2672.85	1798.2
989.2857	2627.2968	2657.2	1779.75
989.4102	2628.5695	2657.7	1779.25
989.5348	2629.8415	2641	1762.15
989.6593	2631.1128	2640.8	1762.55
989.7837	2632.3835	2634.75	1758.6
989.9082	2633.6535	2624.25	1747.4
990.0326	2634.9228	2616.05	1739.65
990.1569	2636.1914	2614.6	1736.75
990.2812	2637.4593	2613.6	1730.1
990.4055	2638.7265	2609.6	1733.55
990.5298	2639.9931	2596.5	1719.6
990.654	2641.259	2591.7	1713.95
990.7782	2642.5242	2587.65	1708.35
990.9023	2643.7887	2576.2	1696.8
991.0264	2645.0525	2563.25	1686.5
991.1505	2646.3156	2566.3	1686.95
991.2745	2647.5781	2549.1	1672.8
991.3985	2648.8398	2542.35	1666.15
991.5225	2650.1009	2543.65	1657.6
991.6464	2651.3613	2540.7	1664.3
991.7703	2652.6211	2530.9	1652.65
991.8942	2653.8801	2520.85	1645.2
992.018	2655.1385	2524.4	1646.85
992.1418	2656.3961	2515.65	1638.2
992.2655	2657.6531	2505.15	1629.1
992.3892	2658.9094	2495.25	1616.1
992.5129	2660.1651	2483.75	1608.75
992.6366	2661.42	2493	1615.05
992.7602	2662.6743	2498.5	1618.25
992.8837	2663.9279	2485.55	1607.2
993.0073	2665.1808	2475.7	1596.8
993.1307	2666.433	2472.75	1593.5
993.2542	2667.6846	2467.75	1590.5
993.3776	2668.9354	2464.5	1582.75
993.501	2670.1856	2460.2	1583.25
993.6244	2671.4351	2452.6	1576.7
993.7477	2672.6839	2463.95	1584.9
993.8709	2673.9321	2450.4	1573.75
993.9942	2675.1795	2443.55	1566.05
994.1174	2676.4263	2428.65	1550.4
994.2405	2677.6724	2428.8	1551.6
994.3637	2678.9179	2416.9	1538.9
994.4868	2680.1626	2424.75	1548.6
994.6098	2681.4067	2418	1538.9
994.7328	2682.6501	2387.85	1513.4
994.8558	2683.8928	2396.45	1518.5
994.9788	2685.1348	2387.85	1513.7
995.1017	2686.3761	2379.25	1502.6
995.2245	2687.6168	2377.05	1497.65
995.3474	2688.8568	2365.45	1486.55
995.4702	2690.0961	2363.6	1488
995.5929	2691.3348	2369.65	1491.2
995.7156	2692.5727	2350.3	1472.7
995.8383	2693.81	2341.65	1465
995.961	2695.0466	2338	1461.2
996.0836	2696.2826	2334.3	1456.8
996.2062	2697.5178	2344.4	1450.6
996.3287	2698.7524	2331.15	1454.45
996.4512	2699.9863	2341.75	1462.55
996.5737	2701.2195	2311.9	1435.2
996.6961	2702.452	2312.4	1433.3
996.8185	2703.6839	2315.65	1437.65
996.9408	2704.9151	2297.6	1421.5
997.0631	2706.1456	2299.7	1422.65
997.1854	2707.3755	2288.95	1411.25
997.3077	2708.6046	2285.25	1407.25
997.4299	2709.8331	2277.55	1400.05
997.552	2711.0609	2274.1	1396.35
997.6742	2712.2881	2265	1388.15
997.7963	2713.5145	2269.95	1391.8
997.9183	2714.7403	2268.9	1392.3
998.0403	2715.9654	2255.15	1376.85
998.1623	2717.1899	2265.65	1374.5
998.2842	2718.4136	2251.75	1376.9
998.4062	2719.6367	2240.75	1362.4
998.528	2720.8591	2231.6	1348.95
998.6498	2722.0809	2236.85	1359.85
998.7716	2723.3019	2227.5	1347.25
998.8934	2724.5223	2221.15	1342.75
999.0151	2725.7421	2220.7	1343.15
999.1368	2726.9611	2211.4	1331.3
999.2584	2728.1795	2207.65	1325.65
999.38	2729.3972	2193.2	1315.35
999.5016	2730.6142	2205.95	1314.6
999.6231	2731.8306	2180.5	1302.65
999.7446	2733.0462	2176.2	1299
999.8661	2734.2612	2177.05	1294.25
999.9875	2735.4756	2164.1	1286.45
1000.1089	2736.6892	2156.65	1278.05
1000.2302	2737.9022	2143.05	1268.5
1000.3515	2739.1145	2131.45	1255.95
1000.4728	2740.3262	2153.05	1268.55
1000.594	2741.5372	2136.5	1260.35
1000.7152	2742.7475	2122.7	1244.8
1000.8363	2743.9571	2119.45	1238.85
1000.9575	2745.1661	2124.25	1242.85
1001.0785	2746.3744	2111.35	1234.4
1001.1996	2747.582	2109.9	1231.5
1001.3206	2748.7889	2103.35	1225.85
1001.4415	2749.9952	2097.1	1220.95
1001.5625	2751.2008	2098.25	1222.35
1001.6833	2752.4057	2084.95	1205.7
1001.8042	2753.61	2071.45	1192.8
1001.925	2754.8136	2071.85	1191.1
1002.0458	2756.0165	2065.45	1189.95
1002.1665	2757.2188	2064.1	1187.35
1002.2872	2758.4204	2056.6	1179.85
1002.4078	2759.6213	2053.85	1174.45
1002.5285	2760.8215	2058.05	1177.2
1002.649	2762.0211	2047.45	1168.6
1002.7696	2763.22	2043.1	1162
1002.8901	2764.4182	2046	1167.05
1003.0106	2765.6158	2048.5	1173.15
1003.131	2766.8127	2021.45	1143.35
1003.2514	2768.009	2023.35	1146.05
1003.3717	2769.2045	2020.1	1142.45
1003.492	2770.3994	2022.9	1141.25
1003.6123	2771.5936	2023.15	1144.45
1003.7325	2772.7872	2006.5	1129.9
1003.8527	2773.9801	2005.9	1126.65
1003.9729	2775.1723	2005.65	1114.3
1004.093	2776.3639	1992.05	1117.2
1004.2131	2777.5548	1987.8	1107.35
1004.3331	2778.745	1977.65	1099.55
1004.4531	2779.9346	1984.1	1105.95
1004.5731	2781.1235	1969.7	1091
1004.693	2782.3117	1967.25	1089.6
1004.8129	2783.4992	1966.4	1089.55
1004.9328	2784.6861	1955	1074.8
1005.0526	2785.8723	1959.35	1082.2
1005.1723	2787.0579	1952.25	1075.15
1005.2921	2788.2428	1943.1	1065.8
1005.4118	2789.427	1942.85	1066.2
1005.5314	2790.6106	1938.7	1060.7
1005.651	2791.7935	1934.6	1056.4
1005.7706	2792.9757	1924.75	1049
1005.8902	2794.1573	1927.75	1046.25
1006.0097	2795.3382	1907.7	1030.5
1006.1291	2796.5184	1921.4	1045.95
1006.2485	2797.698	1919.45	1041.95
1006.3679	2798.8769	1907.4	1031.55
1006.4873	2800.0551	1908.9	1031.65
1006.6066	2801.2327	1896	1018.45
1006.7258	2802.4096	1894.25	1015.9
1006.8451	2803.5859	1896.4	1017.2
1006.9642	2804.7615	1890.85	1013.95
1007.0834	2805.9364	1884.25	1008.7
1007.2025	2807.1106	1876.2	1001.15
1007.3216	2808.2842	1883.5	1006
1007.4406	2809.4572	1875.05	997.75
1007.5596	2810.6294	1876.55	998.15
1007.6785	2811.801	1869.5	992.5
1007.7975	2812.972	1872.65	995.55
1007.9163	2814.1423	1870.15	994.6
1008.0352	2815.3119	1872.15	994
1008.154	2816.4808	1863.35	985.65
1008.2727	2817.6491	1870.8	991.55
1008.3914	2818.8167	1875.9	1000.05
1008.5101	2819.9837	1882.95	1002.25
1008.6288	2821.15	1884.7	1008.25
1008.7474	2822.3157	1882.3	1007.15
1008.8659	2823.4807	1893.2	1016.8
1008.9844	2824.645	1895.75	1016.05
1009.1029	2825.8086	1892.4	1015.55
1009.2214	2826.9716	1913.2	1036.55
1009.3398	2828.134	1923.05	1048
1009.4581	2829.2957	1929.4	1051.85
1009.5764	2830.4567	1932.9	1056.05
1009.6947	2831.617	1944.15	1066.45
1009.813	2832.7767	1942.3	1066.4
1009.9312	2833.9358	1937.8	1062.2
1010.0493	2835.0941	1937.95	1058.8
1010.1675	2836.2519	1924.6	1046
1010.2855	2837.4089	1917.5	1039.25
1010.4036	2838.5653	1907.3	1031.05
1010.5216	2839.7211	1902.45	1028.05
1010.6396	2840.8761	1896.45	1019.6
1010.7575	2842.0306	1890.75	1014.25
1010.8754	2843.1843	1890.65	1014.55
1010.9932	2844.3374	1889.35	1012.5
1011.111	2845.4899	1888	1010.3
1011.2288	2846.6417	1881.9	1005.4
1011.3465	2847.7928	1887.95	1009.4
1011.4642	2848.9433	1889.05	1011.8
1011.5818	2850.0931	1885.3	1008.55
1011.6995	2851.2422	1885.65	1008.2
1011.817	2852.3907	1884.85	1008.95
1011.9345	2853.5385	1880.95	1000.4
1012.052	2854.6857	1881.9	996.15
1012.1695	2855.8323	1890.9	1014
1012.2869	2856.9781	1880.85	1004.95
1012.4042	2858.1233	1876.85	998.65
1012.5216	2859.2679	1885.15	1008.25
1012.6389	2860.4118	1894.15	1017.75
1012.7561	2861.555	1893.2	1012.25
1012.8733	2862.6976	1880.9	1001.65
1012.9905	2863.8395	1883.1	1006.4
1013.1076	2864.9808	1889.5	1013.05
1013.2247	2866.1214	1883.15	1006
1013.3417	2867.2614	1879.35	1003.85
1013.4587	2868.4007	1888.65	1009.75
1013.5757	2869.5393	1883.5	1006.75
1013.6926	2870.6773	1880.6	999.35
1013.8095	2871.8146	1877.45	997.45
1013.9263	2872.9513	1882.35	1005.25
1014.0431	2874.0874	1874.75	996.75
1014.1599	2875.2227	1874.8	996.75
1014.2766	2876.3574	1879	1003.85
1014.3933	2877.4915	1866.5	992.55
1014.51	2878.6249	1873.4	996.75
1014.6266	2879.7577	1870	991.4
1014.7431	2880.8898	1888.15	1001.3
1014.8596	2882.0212	1874.5	997.3
1014.9761	2883.152	1866.15	988.75
1015.0925	2884.2821	1868.45	991.65
1015.2089	2885.4116	1873.55	1000.3
1015.3253	2886.5405	1867.35	991.5
1015.4416	2887.6686	1870.9	991.7
1015.5579	2888.7962	1860.15	985.7
1015.6741	2889.923	1859.2	985.05
1015.7903	2891.0493	1860.05	983.15
1015.9065	2892.1748	1854.05	977.5
1016.0226	2893.2997	1855.55	976.6
1016.1387	2894.424	1848.85	971.85
1016.2547	2895.5476	1844.05	967.65
1016.3707	2896.6706	1834.05	958.05
1016.4866	2897.7929	1837.05	960.35
1016.6025	2898.9145	1839.75	964.05
1016.7184	2900.0355	1832.55	955.2
1016.8342	2901.1559	1826.45	950.75
1016.95	2902.2756	1816	939.15
1017.0658	2903.3946	1823.25	945.7
1017.1815	2904.513	1821.35	941.85
1017.2971	2905.6308	1811.15	934.3
1017.4127	2906.7479	1802.25	923
1017.5283	2907.8643	1808.05	931.35
1017.6439	2908.9801	1804.1	928.3
1017.7594	2910.0953	1800.9	925.85
1017.8748	2911.2098	1799.3	919.2
1017.9902	2912.3236	1793.75	907.5
1018.1056	2913.4368	1790.15	910.6
1018.2209	2914.5494	1788.5	912.8
1018.3362	2915.6613	1782	898.85
1018.4515	2916.7725	1777.2	897.75
1018.5667	2917.8831	1773.05	895.9
1018.6819	2918.9931	1757.2	875.6
1018.797	2920.1024	1751.45	874.75
1018.9121	2921.211	1746.8	871.05
1019.0271	2922.319	1744.7	870.05
1019.1421	2923.4264	1736.7	860.35
1019.2571	2924.5331	1740.9	864.6
1019.372	2925.6391	1728.35	851.15
1019.4869	2926.7445	1729.95	855.85
1019.6017	2927.8493	1735.25	857.25
1019.7165	2928.9534	1732.05	855
1019.8313	2930.0569	1738.75	858.95
1019.946	2931.1597	1728.3	849.75
1020.0606	2932.2619	1727.4	851.95
1020.1753	2933.3634	1725.2	850.5
1020.2899	2934.4643	1730.4	847.4
1020.4044	2935.5645	1731.45	848.15
1020.5189	2936.6641	1727.5	847.45
1020.6334	2937.763	1723	846
1020.7478	2938.8613	1727.7	850.55
1020.8622	2939.959	1710.85	828
1020.9765	2941.056	1700.6	826.35
1021.0908	2942.1523	1694.6	816.35
1021.2051	2943.248	1681.45	805.4
1021.3193	2944.3431	1664.1	787.7
1021.4334	2945.4375	1649.65	772.95
1021.5476	2946.5313	1640.55	767.5
1021.6617	2947.6244	1620.35	744.2
1021.7757	2948.7169	1612.95	735.9
1021.8897	2949.8087	1599.95	722.5
1022.0037	2950.8999	1578.25	701
1022.1176	2951.9904	1578.9	702.95
1022.2315	2953.0803	1570.7	693.5
1022.3453	2954.1696	1558.75	680.4
1022.4591	2955.2582	1549.65	674.9
1022.5728	2956.3462	1544.9	667.5
1022.6865	2957.4335	1537.7	661.15
1022.8002	2958.5202	1533.65	655.5
1022.9138	2959.6062	1532.45	656.45
1023.0274	2960.6916	1532.25	656.15
1023.141	2961.7764	1523.95	646.45
1023.2545	2962.8605	1531.2	655.45
1023.3679	2963.9439	1525.65	649
1023.4813	2965.0267	1517.85	640.05
1023.5947	2966.1089	1532.2	631.55
1023.708	2967.1905	1512.2	636.25
1023.8213	2968.2714	1501.35	624.7
1023.9346	2969.3516	1499.05	621.3
1024.0478	2970.4312	1505.75	620
1024.1609	2971.5102	1497.7	622.35
1024.274	2972.5885	1496.45	619.6
1024.3871	2973.6662	1500.85	618.55
1024.5002	2974.7432	1494.25	616.05
1024.6132	2975.8196	1486.9	609
1024.7261	2976.8954	1484.95	608.4
1024.839	2977.9705	1483.4	606.65
1024.9519	2979.045	1484.4	606.85
1025.0647	2980.1188	1479.15	603.35
1025.1775	2981.192	1472.6	597.35
1025.2902	2982.2645	1468.95	592.65
1025.4029	2983.3364	1468.85	592.3
1025.5156	2984.4077	1458.3	582.2
1025.6282	2985.4783	1458.4	577.6
1025.7407	2986.5483	1458.9	582
1025.8532	2987.6177	1442.85	566
1025.9657	2988.6864	1437.6	561.05
1026.0782	2989.7545	1444.6	566.7
1026.1906	2990.8219	1426.9	551.05
1026.3029	2991.8887	1426.45	547.85
1026.4152	2992.9548	1424.25	547.35
1026.5275	2994.0204	1414.55	538.25
1026.6397	2995.0852	1410	534.45
1026.7519	2996.1495	1408.9	531.6
1026.864	2997.2131	1397.1	520.2
1026.9761	2998.276	1391.1	514.75
1027.0882	2999.3383	1384	505.25
1027.2002	3000.4	1386.55	509.8
1027.3122	3001.4611	1379.45	501.95
1027.4241	3002.5215	1371.45	493.8
1027.536	3003.5812	1364.35	488.15
1027.6478	3004.6404	1367.65	491.55
1027.7596	3005.6989	1363.95	485.25
1027.8714	3006.7567	1363.05	485.95
1027.9831	3007.8139	1384	484.7
1028.0947	3008.8705	1346.45	469.35
1028.2064	3009.9264	1351.65	471.4
1028.3179	3010.9818	1347.4	471.7
1028.4295	3012.0364	1348.85	471.65
1028.541	3013.0905	1346.3	469.5
1028.6524	3014.1439	1345.3	470.05
1028.7638	3015.1966	1340.05	464.6
1028.8752	3016.2487	1333.2	454.9
1028.9865	3017.3002	1333.7	453.4
1029.0978	3018.3511	1331.95	456.9
1029.209	3019.4013	1330.95	454.25
1029.3202	3020.4509	1325.85	451.25
1029.4314	3021.4998	1326.15	449.4
1029.5425	3022.5481	1316.75	440.65
1029.6535	3023.5958	1322.4	446.95
1029.7645	3024.6428	1317.5	440
1029.8755	3025.6892	1314.6	439.1
1029.9864	3026.735	1319.4	440.6
1030.0973	3027.7802	1310.45	434.75
1030.2082	3028.8247	1314.25	437.95
1030.319	3029.8685	1306.95	429.55
1030.4297	3030.9118	1312.95	436.4
1030.5404	3031.9544	1306.45	430.7
1030.6511	3032.9963	1306.65	430
1030.7617	3034.0376	1301.9	428.15
1030.8723	3035.0783	1297.5	418.8
1030.9829	3036.1184	1302.75	426.15
1031.0934	3037.1578	1298.4	421.9
1031.2038	3038.1966	1301.85	424.1
1031.3142	3039.2348	1294.4	419.6
1031.4246	3040.2723	1303.25	417.7
1031.5349	3041.3092	1287.3	411.35
1031.6452	3042.3455	1283.8	405.75
1031.7554	3043.3811	1286.85	410.85
1031.8656	3044.4161	1290.05	411.95
1031.9758	3045.4505	1279.4	403.9
1032.0859	3046.4842	1279.35	402.75
1032.1959	3047.5173	1283.75	407.2
1032.3059	3048.5498	1278.4	402.45
1032.4159	3049.5816	1285.35	410.05
1032.5258	3050.6128	1279.5	401.5
1032.6357	3051.6434	1282.05	404.35
1032.7455	3052.6734	1274.5	398.75
1032.8553	3053.7027	1268.8	393.4
1032.9651	3054.7314	1276.05	399.8
1033.0748	3055.7594	1270.65	395.25
1033.1845	3056.7868	1267.2	389.35
1033.2941	3057.8136	1261.25	385.6
1033.4037	3058.8398	1265.65	388.2
1033.5132	3059.8653	1258.6	382.9
1033.6227	3060.8902	1259.25	384.9
1033.7321	3061.9145	1258.4	383.6
1033.8415	3062.9381	1256.85	381.2
1033.9509	3063.9612	1269.45	379.2
1034.0602	3064.9835	1260.05	383.65
1034.1694	3066.0053	1257.75	378.7
1034.2787	3067.0264	1253.7	378.25
1034.3878	3068.0469	1255.5	375.95
1034.497	3069.0668	1250.8	371.7
1034.6061	3070.086	1254.1	377.55
1034.7151	3071.1046	1244.3	369.15
1034.8241	3072.1226	1249.95	374.25
1034.9331	3073.1399	1241.65	365.8
1035.042	3074.1567	1242.05	365.75
1035.1508	3075.1727	1247.3	369.35
1035.2597	3076.1882	1243	365.75
1035.3684	3077.203	1232.15	356.45
1035.4772	3078.2173	1235.95	358.45
1035.5859	3079.2308	1235.05	357.25
1035.6945	3080.2438	1228.3	350.6
1035.8031	3081.2561	1225.2	347.8
1035.9117	3082.2678	1230.7	352.4
1036.0202	3083.2789	1218.75	341.8
1036.1286	3084.2893	1221.2	345.4
1036.2371	3085.2991	1218.5	341.2
1036.3454	3086.3083	1221.1	342.3
1036.4538	3087.3169	1218.55	340.8
1036.562	3088.3248	1217.85	340.6
1036.6703	3089.3321	1217.05	339.6
1036.7785	3090.3388	1210.1	335.2
1036.8866	3091.3449	1207.9	330.75
1036.9948	3092.3503	1211.35	331.9
1037.1028	3093.3551	1207.1	331.9
1037.2108	3094.3593	1200.4	325.05
1037.3188	3095.3629	1206.3	332.3
1037.4267	3096.3658	1204.55	328.6
1037.5346	3097.3681	1195.45	320.15
1037.6425	3098.3698	1202.6	324.45
1037.7503	3099.3708	1204.65	321.05
1037.858	3100.3713	1189.3	315.35
1037.9657	3101.3711	1196.5	318.65
1038.0734	3102.3702	1327.9	315.9
1038.181	3103.3688	1189.25	310.85
1038.2886	3104.3667	1188.25	313.15
1038.3961	3105.364	1184.3	307.2
1038.5036	3106.3607	1179.8	302.4
1038.611	3107.3568	1184.25	308
1038.7184	3108.3522	1179.85	304.45
1038.8257	3109.347	1179.55	302.15
1038.933	3110.3412	1182.9	302.8
1039.0403	3111.3348	1169	292.85
1039.1475	3112.3277	1168.25	292.95
1039.2547	3113.32	1168.55	292.65
1039.3618	3114.3117	1168.6	290.6
1039.4689	3115.3028	1169.7	293.4
1039.5759	3116.2932	1162.2	283.8
1039.6829	3117.2831	1167.25	286.9
1039.7898	3118.2723	1161.6	285.75
1039.8967	3119.2608	1155.15	278.95
1040.0035	3120.2488	1153.25	275.85
1040.1103	3121.2361	1157.25	279.4
1040.2171	3122.2229	1157.9	283.05
1040.3238	3123.209	1154.25	277
1040.4305	3124.1944	1150.55	275.35
1040.5371	3125.1793	1151.45	275
1040.6437	3126.1635	1145.15	267.9
1040.7502	3127.1471	1145.1	269.2
1040.8567	3128.1301	1143.85	268.5
1040.9631	3129.1125	1140.55	263.45
1041.0695	3130.0942	1143.85	267.65
1041.1759	3131.0753	1149.55	264.75
1041.2822	3132.0558	1142.7	262.85
1041.3884	3133.0357	1138.7	260.55
1041.4946	3134.015	1140.05	263.4
1041.6008	3134.9936	1142.85	266.2
1041.7069	3135.9716	1154.55	258.25
1041.813	3136.949	1134.9	260.35
1041.919	3137.9258	1136.8	254.3
1042.025	3138.902	1139.45	258
1042.1309	3139.8775	1127.35	249.3
1042.2368	3140.8524	1124.7	249.15
1042.3427	3141.8267	1132.45	253.65
1042.4485	3142.8004	1126.5	249.3
1042.5542	3143.7735	1135.45	254.85
1042.6599	3144.7459	1122.75	245.45
1042.7656	3145.7178	1118.55	240.25
1042.8712	3146.689	1117.75	244.2
1042.9768	3147.6596	1119.45	243.5
1043.0823	3148.6295	1118.1	241.7
1043.1878	3149.5989	1120.95	244.7
1043.2932	3150.5676	1118.8	242.75
1043.3986	3151.5357	1114.6	239.6
1043.5039	3152.5032	1109.25	235.3
1043.6092	3153.4701	1116.75	241.25
1043.7145	3154.4364	1118.9	241.1
1043.8197	3155.402	1109	234.9
1043.9248	3156.367	1109.8	231.5
1044.03	3157.3315	1143.25	230.2
1044.135	3158.2952	1111.6	236.1
1044.24	3159.2584	1103.95	228.2
1044.345	3160.221	1103.15	226.85
1044.4499	3161.1829	1102.55	226.95
1044.5548	3162.1442	1102.35	225.6
1044.6596	3163.105	1098.5	221.6
1044.7644	3164.065	1100.15	221.8
1044.8692	3165.0245	1099.95	220.65
1044.9739	3165.9834	1098.4	223.85
1045.0785	3166.9416	1094.3	218.3
1045.1831	3167.8993	1094.25	217.75
1045.2877	3168.8563	1088.9	211.35
1045.3922	3169.8127	1090.45	214.15
1045.4966	3170.7684	1086.85	209.85
1045.6011	3171.7236	1088.85	213.05
1045.7054	3172.6782	1092.3	217.25
1045.8098	3173.6321	1088.8	212.15
1045.914	3174.5854	1091	210.9
1046.0183	3175.5381	1083.1	206.25
1046.1224	3176.4902	1082	207.05
1046.2266	3177.4417	1082.75	207
1046.3307	3178.3926	1083.45	207.95
1046.4347	3179.3428	1079.95	203.25
1046.5387	3180.2924	1079.7	204.05
1046.6427	3181.2415	1081.8	205.05
1046.7466	3182.1899	1072.1	193.55
1046.8504	3183.1377	1075.3	199.9
1046.9542	3184.0848	1075.3	194.6
1047.058	3185.0314	1072.7	195.85
1047.1617	3185.9773	1073.95	197.1
1047.2654	3186.9227	1075.3	197.5
1047.369	3187.8674	1070.95	195.25
1047.4726	3188.8115	1076.95	197.55
1047.5761	3189.755	1071.2	197
1047.6796	3190.6979	1069.3	194.1
1047.783	3191.6402	1065.6	190.3
1047.8864	3192.5818	1064.4	186.55
1047.9898	3193.5229	1070.05	187.95
1048.0931	3194.4633	1067.85	190.9
1048.1963	3195.4031	1060.9	183.75
1048.2995	3196.3423	1064.05	187
1048.4027	3197.2809	1058.1	182.25
1048.5058	3198.2189	1059.8	181.05
1048.6089	3199.1563	1068.4	186.2
1048.7119	3200.0931	1061.35	185.5
1048.8148	3201.0292	1055.4	181.4
1048.9178	3201.9648	1055.75	179.75
1049.0206	3202.8997	1059.1	178
1049.1235	3203.834	1050.1	174.3
1049.2262	3204.7677	1054.8	178.4
1049.329	3205.7008	1056.6	180.15
1049.4317	3206.6333	1042.8	166.55
1049.5343	3207.5652	1050.35	172.45
1049.6369	3208.4964	1048.15	171.95
1049.7394	3209.4271	1047.45	172.1
1049.8419	3210.3571	1046.55	171.55
1049.9444	3211.2865	1050.65	172.25
1050.0468	3212.2154	1052.05	175.65
1050.1491	3213.1436	1049.45	169.5
1050.2514	3214.0712	1054.2	169.7
1050.3537	3214.9982	1043.35	168.1
1050.4559	3215.9246	1045.4	169.4
1050.5581	3216.8503	1040.65	165.75
1050.6602	3217.7755	1039.25	162
1050.7623	3218.7001	1041.4	164.75
1050.8643	3219.624	1041.25	164.2
1050.9663	3220.5473	1040.35	164.15
1051.0682	3221.4701	1037.9	160.15
1051.1701	3222.3922	1039.35	163.15
1051.2719	3223.3137	1033.65	156.2
1051.3737	3224.2346	1036.7	160.95
1051.4754	3225.1549	1033.65	158.4
1051.5771	3226.0746	1032.35	156.65
1051.6788	3226.9937	1034.85	159.55
1051.7804	3227.9121	1035.25	158.8
1051.8819	3228.83	1029.65	154.5
1051.9834	3229.7473	1033.75	158.15
1052.0849	3230.6639	1032.2	154.45
1052.1863	3231.5799	1029.15	153.2
1052.2876	3232.4954	1026	149.45
1052.3889	3233.4102	1028.25	151.75
1052.4902	3234.3244	1026.75	148.85
1052.5914	3235.238	1024.1	146.15
1052.6926	3236.151	1047.35	145.3
1052.7937	3237.0634	1021.6	145.8
1052.8948	3237.9752	1023.6	147.35
1052.9958	3238.8864	1023.35	147.35
1053.0968	3239.797	1018.95	141.9
1053.1977	3240.7069	1017.35	139
1053.2986	3241.6163	1019	141.05
1053.3994	3242.5251	1021.95	147.7
1053.5002	3243.4332	1017.1	141.75
1053.6009	3244.3408	1013.25	134.4
1053.7016	3245.2477	1016.2	139.1
1053.8022	3246.154	1014.8	137.7
1053.9028	3247.0598	1016.15	137.5
1054.0034	3247.9649	1015.45	138.75
1054.1039	3248.8694	1012.5	137.75
1054.2043	3249.7733	1010.15	134.7
1054.3047	3250.6766	1007.6	131.55
1054.4051	3251.5793	1012.95	135.4
1054.5054	3252.4814	1006.45	131
1054.6056	3253.3829	1008.2	132.15
1054.7058	3254.2838	1007.8	133.1
1054.806	3255.1841	1005.35	128.9
1054.9061	3256.0838	1005.2	130.5
1055.0061	3256.9829	998.25	122.65
1055.1062	3257.8814	1002.95	121.9
1055.2061	3258.7792	1004.1	123.4
1055.306	3259.6765	1003.85	126.7
1055.4059	3260.5731	998.75	122.8
1055.5057	3261.4692	999.25	122.85
1055.6055	3262.3647	994.3	116.7
1055.7052	3263.2595	991.5	116.6
1055.8049	3264.1538	992.9	115.8
1055.9045	3265.0474	988.9	113.45
1056.0041	3265.9404	989.5	115.2
1056.1036	3266.8329	986	111.65
1056.2031	3267.7247	993.2	107.45
1056.3025	3268.616	984.45	107.8
1056.4019	3269.5066	978.3	100.65
1056.5013	3270.3966	980.15	101.2
1056.6005	3271.286	975.25	99.7
