Software Version:	3.9.2.0
Unit SN:	10000200
Spectrometer SN:	6960
Date:	3/6/2024 9:48:54 AM
Data Line Index:	25
Spectral Points:	2048
Integration time (ms):	125
Averages:	20
Delay (ms):	30
Sequence Number:	1
Processing:	dark subtract
Laser Power (mW):	305
Laser Current (mA):	823
Laser Diode Temp (C):	25.1
Laser Case Temp (C):	24.2
System Temp (C):	24.1
Spectrometer Temp (C):	21.7
CCD Temp (C):	0
Secondary Temp (C):	20.007
Heatsink Temp (C):	18.043
CCDPCB Temp (C):	31.06
SecondaryPCB Temp (C):	25.991

Wavelength	RamanShift	Raw Counts	Dark Subtracted
787.061	30.1047	448.95	42.2
787.2016	32.3739	449	43.65
787.3422	34.6426	453.25	45.4
787.4828	36.9109	456.5	48.5
787.6235	39.1787	464.5	53.55
787.7642	41.4461	473.55	56.5
787.9049	43.7131	476.85	57.95
788.0456	45.9796	484.3	62.95
788.1863	48.2456	491.4	65.25
788.3271	50.5112	499.3	68.55
788.4679	52.7764	506.2	73.3
788.6087	55.0411	513.9	76.15
788.7496	57.3054	522.55	80.65
788.8904	59.5692	531	86.5
789.0313	61.8326	536.35	89.45
789.1722	64.0955	549.1	100.6
789.3132	66.3579	562.85	110.05
789.4541	68.6199	575.3	116.85
789.5951	70.8815	599.9	136.05
789.7361	73.1426	644.65	177.65
789.8771	75.4032	771.3	300.7
790.0181	77.6634	1057.7	584.05
790.1592	79.9231	1750.85	1274.65
790.3003	82.1824	3201.55	2718.35
790.4414	84.4412	5747.85	5251.7
790.5825	86.6995	9197.15	8689.6
790.7237	88.9574	12609.55	12088.25
790.8648	91.2148	15105.1	14578.35
791.006	93.4717	16534.7	16002.25
791.1472	95.7282	17146.7	16612.15
791.2885	97.9842	17481.4	16946
791.4297	100.2398	17558.35	17019.85
791.571	102.4949	17645.25	17105.4
791.7123	104.7495	17628.95	17085.3
791.8536	107.0036	17638.9	17092.05
791.9949	109.2573	17622.45	17075.4
792.1363	111.5105	17655.05	17105.55
792.2777	113.7632	17594.55	17045.2
792.4191	116.0154	17610.75	17049.9
792.5605	118.2672	17701.55	17146.75
792.7019	120.5185	17690.1	17131.75
792.8434	122.7693	17718.5	17158.8
792.9849	125.0197	17754.45	17191.6
793.1264	127.2696	17762.5	17193.85
793.2679	129.519	17837.95	17263.5
793.4094	131.7679	17857.2	17283.7
793.551	134.0163	17900.4	17326.4
793.6926	136.2642	17907.45	17324.35
793.8342	138.5117	17936.2	17350.95
793.9758	140.7587	17911.7	17327.9
794.1175	143.0052	17949.25	17361.9
794.2591	145.2512	17946.2	17360.45
794.4008	147.4967	17911	17321.05
794.5425	149.7417	17905.45	17311.85
794.6842	151.9863	17913.6	17316.15
794.826	154.2304	17929.25	17329.25
794.9677	156.4739	17908.15	17300.35
795.1095	158.717	17905.15	17302.5
795.2513	160.9596	17944.6	17334.4
795.3931	163.2017	17942.7	17332.05
795.535	165.4433	17975.55	17360.05
795.6768	167.6844	17969.25	17353.15
795.8187	169.925	17988.9	17371.1
795.9606	172.1651	17935.7	17314.25
796.1025	174.4047	17937	17309.45
796.2445	176.6439	17942.2	17313.75
796.3864	178.8825	17942.4	17312.55
796.5284	181.1206	17962.15	17326.2
796.6704	183.3582	17975.5	17335.85
796.8124	185.5954	17992.55	17354.25
796.9544	187.832	18028.1	17383.95
797.0965	190.0681	18053.1	17404.3
797.2386	192.3037	18089.1	17437.6
797.3806	194.5388	18119.85	17464.25
797.5228	196.7734	18155.45	17500.7
797.6649	199.0075	18187.3	17533.7
797.807	201.2411	18299.95	17640.65
797.9492	203.4742	18351.9	17693.35
798.0914	205.7068	18404.1	17740.9
798.2336	207.9389	18392.7	17728.7
798.3758	210.1704	18461.85	17805.6
798.518	212.4015	18413.1	17764.15
798.6603	214.632	18436.1	17795.8
798.8025	216.862	18453.2	17813.9
798.9448	219.0915	18466.55	17823.15
799.0871	221.3205	18530.05	17885.3
799.2294	223.549	18567.85	17924.2
799.3718	225.777	18623.2	17979.35
799.5141	228.0044	18604.7	17953.45
799.6565	230.2314	18684.75	18030.95
799.7989	232.4578	18643.65	17987.05
799.9413	234.6837	18658	17991.25
800.0837	236.909	18683.1	18017.15
800.2262	239.1339	18732.6	18044.6
800.3687	241.3582	18731.65	18055.1
800.5111	243.582	18738.95	18032.05
800.6536	245.8053	18768.5	18077.85
800.7961	248.0281	18775.2	18086.3
800.9387	250.2503	18782.4	18087.45
801.0812	252.472	18786.5	18092.95
801.2238	254.6932	18836.5	18144.5
801.3664	256.9139	18779.05	18085.8
801.509	259.134	18847.75	18147.95
801.6516	261.3536	18826.6	18127.8
801.7942	263.5727	18890.7	18193.35
801.9369	265.7912	18857.4	18155.4
802.0795	268.0092	18953.2	18254.2
802.2222	270.2267	18953.1	18250.8
802.3649	272.4436	18962.45	18260.05
802.5076	274.6601	18989.25	18275.85
802.6504	276.8759	18953.5	18246.25
802.7931	279.0913	19014.2	18305.3
802.9359	281.3061	19017.05	18306.05
803.0787	283.5204	19073.9	18357.15
803.2215	285.7341	19070.95	18356.3
803.3643	287.9473	19100.75	18374.9
803.5071	290.16	19093.4	18374.8
803.6499	292.3721	19063.45	18350.25
803.7928	294.5837	19081.6	18365.6
803.9357	296.7947	19032.5	18317.65
804.0786	299.0052	19055.2	18340.95
804.2215	301.2152	19030	18313
804.3644	303.4246	19024.2	18306.65
804.5074	305.6334	19022.45	18306.55
804.6503	307.8418	18995.6	18275.6
804.7933	310.0495	18968.1	18246.35
804.9363	312.2568	18941.75	18219.65
805.0793	314.4635	18896	18169.7
805.2223	316.6696	18841.55	18112.5
805.3653	318.8752	18768.7	18033.2
805.5084	321.0802	18755.55	18027.5
805.6514	323.2847	18771.2	18039.65
805.7945	325.4887	18716.05	17985.75
805.9376	327.692	18720.8	17986.15
806.0807	329.8949	18772.75	18035.75
806.2238	332.0972	18771.7	18035
806.367	334.2989	18839.2	18100.9
806.5101	336.5001	18800.3	18059.65
806.6533	338.7007	18809.55	18070.55
806.7965	340.9008	18825.25	18081.2
806.9397	343.1003	18765.65	18020.95
807.0829	345.2992	18745.9	18001.6
807.2261	347.4976	18714.3	17967.75
807.3693	349.6955	18697.9	17945.8
807.5126	351.8927	18744.35	17991.7
807.6559	354.0895	18697	17936.95
807.7991	356.2856	18723.4	17970
807.9424	358.4812	18628.3	17874.1
808.0857	360.6763	18705.1	17947.4
808.2291	362.8707	18660.15	17902.3
808.3724	365.0646	18675.8	17914.95
808.5158	367.258	18648.35	17885.2
808.6591	369.4508	18618.05	17850.4
808.8025	371.643	18652.4	17887.55
808.9459	373.8346	18580.75	17812.75
809.0893	376.0257	18594.45	17825.15
809.2327	378.2162	18586.25	17817.15
809.3762	380.4062	18568.7	17798.55
809.5196	382.5956	18558.15	17789.1
809.6631	384.7844	18501.4	17736.75
809.8066	386.9726	18456.25	17694.55
809.9501	389.1603	18424.35	17662.2
810.0936	391.3474	18439.35	17642.65
810.2371	393.5339	18398.95	17634.95
810.3806	395.7199	18344.05	17579.85
810.5241	397.9052	18369.1	17606.05
810.6677	400.09	18341.1	17576.85
810.8113	402.2743	18358.75	17595
810.9548	404.4579	18313.15	17547.25
811.0984	406.641	18408.95	17641.6
811.2421	408.8235	18404.9	17636.25
811.3857	411.0054	18450.95	17678.6
811.5293	413.1868	18540.95	17765.4
811.673	415.3675	18533.05	17754.05
811.8166	417.5477	18545.95	17768.25
811.9603	419.7273	18516.25	17732.55
812.104	421.9064	18366.15	17578.6
812.2477	424.0848	18292	17512.6
812.3914	426.2627	18232.2	17448.75
812.5351	428.4399	18201.2	17417.75
812.6788	430.6166	18114.45	17321.55
812.8226	432.7928	18057.85	17268.35
812.9663	434.9683	17996.6	17205.2
813.1101	437.1432	17953.15	17161.95
813.2539	439.3176	17884.35	17096.7
813.3977	441.4914	17817.65	17030.15
813.5415	443.6645	17822.2	17032.15
813.6853	445.8371	17763.6	16971.6
813.8291	448.0091	17727.05	16936.05
813.973	450.1806	17682.85	16889.05
814.1168	452.3514	17587.7	16794.85
814.2607	454.5216	17623.95	16823.7
814.4046	456.6913	17496.15	16699.95
814.5485	458.8603	17519.65	16725.6
814.6924	461.0288	17554.1	16761.8
814.8363	463.1967	17490.15	16696.95
814.9802	465.3639	17522.85	16727.2
815.1241	467.5306	17446.9	16648.4
815.2681	469.6967	17430.7	16634.25
815.412	471.8622	17365	16567.75
815.556	474.0271	17367.25	16571.4
815.7	476.1914	17341.2	16541.8
815.844	478.3551	17316	16516
815.988	480.5182	17362.4	16563.45
816.132	482.6807	17363.6	16561.2
816.276	484.8426	17352.35	16554.9
816.4201	487.0039	17394.85	16593.85
816.5641	489.1647	17468.2	16664.05
816.7082	491.3248	17482.85	16680.1
816.8522	493.4843	17407.9	16607.65
816.9963	495.6432	17434.15	16632.65
817.1404	497.8015	17347.75	16538.6
817.2845	499.9592	17383.3	16576.1
817.4286	502.1163	17338.35	16530.75
817.5727	504.2728	17269.85	16460.95
817.7168	506.4287	17311.2	16507.8
817.861	508.5839	17234.35	16429.6
818.0051	510.7386	17220.8	16414.25
818.1493	512.8927	17256.3	16443.75
818.2935	515.0461	17281.3	16471.2
818.4377	517.199	17238.3	16427.15
818.5818	519.3512	17212.35	16402.1
818.726	521.5029	17256.4	16438.95
818.8703	523.6539	17250.6	16437
819.0145	525.8043	17255.9	16440.9
819.1587	527.9541	17232.05	16416.05
819.303	530.1033	17142.7	16326.1
819.4472	532.2519	17075.8	16257.8
819.5915	534.3999	17077.15	16256.45
819.7357	536.5472	17053.8	16236.7
819.88	538.694	17050.75	16235.6
820.0243	540.8401	17036.05	16218.8
820.1686	542.9856	17063.3	16240.95
820.3129	545.1305	17039.25	16215.1
820.4572	547.2748	17108.7	16285.15
820.6016	549.4185	17069.6	16246.7
820.7459	551.5615	17037	16214.5
820.8902	553.704	17021.8	16199
821.0346	555.8458	16989.1	16171.3
821.1789	557.987	16997.35	16176.45
821.3233	560.1276	16986.1	16164.35
821.4677	562.2675	17032.25	16210.5
821.6121	564.4069	17036.45	16215.25
821.7565	566.5456	17017.45	16196.35
821.9009	568.6837	17010.3	16186.85
822.0453	570.8212	16935.65	16112.15
822.1897	572.958	16866.6	16039.7
822.3342	575.0942	16817.15	15993.1
822.4786	577.2299	16778.45	15954.5
822.6231	579.3648	16703.7	15882.65
822.7675	581.4992	16627.85	15807.75
822.912	583.6329	16559.7	15735.45
823.0565	585.766	16580.35	15757.95
823.201	587.8985	16532.1	15707.5
823.3454	590.0304	16508.4	15671.6
823.4899	592.1616	16506.75	15676.35
823.6345	594.2922	16486.75	15659
823.779	596.4222	16426.4	15597.9
823.9235	598.5515	16329.65	15497.5
824.068	600.6802	16308.45	15476
824.2126	602.8083	16191.7	15359.8
824.3571	604.9358	16195.45	15366.6
824.5017	607.0626	16190.3	15355.55
824.6462	609.1888	16182.95	15349.65
824.7908	611.3144	16167.15	15331.6
824.9354	613.4393	16113	15280.65
825.08	615.5636	16112.55	15278.4
825.2246	617.6873	16144.25	15311.55
825.3692	619.8103	16147	15311
825.5138	621.9327	16100.45	15262.6
825.6584	624.0544	16096.5	15262.65
825.803	626.1756	16040.5	15204.2
825.9477	628.2961	16021.15	15184.1
826.0923	630.4159	15966.6	15129.15
826.237	632.5351	15960.45	15120.9
826.3816	634.6537	15932	15094.55
826.5263	636.7716	15934.65	15093.85
826.6709	638.8889	15916.25	15077.25
826.8156	641.0056	15948.75	15107.6
826.9603	643.1216	15903.85	15063.4
827.105	645.237	15936.85	15094.7
827.2497	647.3518	15890.8	15052.95
827.3944	649.4659	15859.2	15020.7
827.5391	651.5793	15826.95	14988.4
827.6838	653.6922	15784.6	14947.2
827.8285	655.8043	15769	14929.7
827.9733	657.9159	15768	14928.45
828.118	660.0268	15708.55	14866.75
828.2627	662.137	15699.9	14858.5
828.4075	664.2466	15659.7	14812.15
828.5522	666.3556	15669.4	14824.95
828.697	668.4639	15615.15	14765.85
828.8418	670.5716	15624.7	14782.8
828.9865	672.6786	15635.9	14791.1
829.1313	674.785	15551.65	14704.55
829.2761	676.8907	15537.15	14689.4
829.4209	678.9958	15543.5	14699.95
829.5657	681.1002	15492.1	14646.25
829.7105	683.204	15461.45	14609.2
829.8553	685.3072	15419.95	14570.55
830.0001	687.4097	15371.75	14523.85
830.1449	689.5115	15401.4	14550.8
830.2898	691.6127	15392.95	14544.35
830.4346	693.7132	15367	14519.05
830.5794	695.8131	15354.6	14491.1
830.7243	697.9123	15362.55	14509.25
830.8691	700.0109	15342.25	14491.3
831.014	702.1089	15324.9	14477.5
831.1588	704.2061	15314.3	14465.65
831.3037	706.3028	15287.45	14435.6
831.4486	708.3987	15291.6	14439.05
831.5935	710.4941	15271.7	14422
831.7383	712.5887	15274	14421.65
831.8832	714.6827	15272.95	14418.25
832.0281	716.7761	15248.85	14396.1
832.173	718.8688	15213.3	14362.3
832.3179	720.9608	15197.55	14339.25
832.4628	723.0522	15216.25	14358.6
832.6077	725.1429	15186.5	14334.05
832.7527	727.233	15174.35	14319
832.8976	729.3224	15228.8	14374.75
833.0425	731.4112	15196.75	14340.75
833.1874	733.4993	15182.7	14324.6
833.3324	735.5867	15121.4	14264
833.4773	737.6735	15070.6	14215.9
833.6222	739.7596	15059.35	14201.9
833.7672	741.845	15012.55	14157.5
833.9122	743.9298	14989.8	14129.4
834.0571	746.014	14992.5	14137
834.2021	748.0974	14957.2	14097.95
834.347	750.1802	14931.35	14071.35
834.492	752.2624	14865.4	14007.35
834.637	754.3439	14804.05	13942.8
834.782	756.4247	14743.55	13875.5
834.9269	758.5048	14722.35	13863
835.0719	760.5843	14712.6	13852.85
835.2169	762.6631	14661.45	13802.9
835.3619	764.7413	14623	13764.85
835.5069	766.8188	14685.3	13822.75
835.6519	768.8956	14687.1	13824
835.7969	770.9718	14707.15	13846.35
835.9419	773.0473	14622.25	13763.7
836.0869	775.1221	14579.25	13716.9
836.232	777.1962	14519.8	13658.85
836.377	779.2697	14517	13654.75
836.522	781.3426	14575.05	13691.65
836.667	783.4147	14545.2	13681.9
836.8121	785.4862	14537.15	13677.15
836.9571	787.557	14477.55	13613.4
837.1021	789.6271	14388.6	13524.7
837.2472	791.6966	14329.85	13469.15
837.3922	793.7654	14242.15	13378.65
837.5373	795.8335	14220.15	13354.2
837.6823	797.901	14173.75	13309.7
837.8274	799.9678	14158	13294.35
837.9724	802.0339	14121.5	13255.85
838.1175	804.0993	14089.75	13216.45
838.2626	806.1641	14034.1	13170.4
838.4076	808.2282	14024.75	13159.15
838.5527	810.2916	14006.7	13141.2
838.6978	812.3544	13995.85	13134.3
838.8428	814.4164	13958.15	13094.95
838.9879	816.4778	13999.55	13135.7
839.133	818.5385	13940.25	13074.95
839.2781	820.5986	13956.55	13090.9
839.4232	822.658	13977.5	13108.9
839.5682	824.7166	13943.6	13079.05
839.7133	826.7747	13983.95	13119.55
839.8584	828.832	14004.55	13137.2
840.0035	830.8886	13962.1	13092.75
840.1486	832.9446	13978.6	13109.55
840.2937	834.9999	13922.1	13057.05
840.4388	837.0545	13890.35	13019.85
840.5839	839.1085	13836.4	12971.1
840.729	841.1618	13779.05	12909.15
840.8741	843.2143	13738.55	12869.5
841.0192	845.2662	13650	12782.35
841.1643	847.3175	13676.65	12809.45
841.3095	849.368	13635.6	12766.2
841.4546	851.4179	13599.95	12730.65
841.5997	853.467	13544.65	12676.65
841.7448	855.5155	13549.65	12679.95
841.8899	857.5633	13509.25	12641.55
842.0351	859.6105	13494.6	12625.9
842.1802	861.6569	13473	12603.05
842.3253	863.7027	13451.2	12580.25
842.4704	865.7478	13429.2	12557.8
842.6156	867.7922	13440.5	12570.9
842.7607	869.8359	13385.65	12515.45
842.9058	871.8789	13359.85	12487.85
843.0509	873.9212	13361.85	12457.8
843.1961	875.9629	13287	12416.9
843.3412	878.0039	13316.5	12446
843.4863	880.0441	13317	12447.45
843.6315	882.0837	13302.85	12431.2
843.7766	884.1226	13297.85	12425.75
843.9218	886.1609	13290.65	12421.65
844.0669	888.1984	13333.15	12463.55
844.212	890.2352	13346.85	12477.9
844.3572	892.2714	13301.45	12425.55
844.5023	894.3069	13311.1	12438.8
844.6475	896.3416	13256.5	12382.65
844.7926	898.3757	13223.3	12349.5
844.9377	900.4091	13182.4	12310.1
845.0829	902.4418	13162.9	12287.25
845.228	904.4739	13118.05	12241.75
845.3732	906.5052	13133.9	12258.95
845.5183	908.5358	13099.55	12226.95
845.6635	910.5658	13060.2	12187.45
845.8086	912.595	13037.1	12163.7
845.9538	914.6236	13003.3	12129.2
846.0989	916.6515	13000.9	12129.9
846.2441	918.6786	12957.55	12080.5
846.3892	920.7051	12917.5	12044.65
846.5344	922.7309	12934.7	12061.45
846.6795	924.756	12846.45	11970.8
846.8246	926.7804	12863.3	11987.35
846.9698	928.8041	12770.7	11894.3
847.1149	930.8272	12781.7	11906.2
847.2601	932.8495	12719.5	11843.55
847.4052	934.8711	12732.35	11853.75
847.5504	936.892	12700.7	11828.1
847.6955	938.9123	12649.2	11770.7
847.8407	940.9318	12648.5	11773.25
847.9858	942.9506	12599.5	11722.6
848.131	944.9688	12599	11721.75
848.2761	946.9862	12571.15	11695.1
848.4213	949.003	12501.6	11624
848.5664	951.019	12461.75	11585.1
848.7115	953.0344	12402.3	11525.6
848.8567	955.0491	12354.1	11473.9
849.0018	957.063	12365.3	11491.4
849.147	959.0763	12383.4	11507.5
849.2921	961.0888	12345.25	11471.55
849.4373	963.1007	12323.9	11447.35
849.5824	965.1119	12258.2	11380.75
849.7275	967.1223	12282.05	11407.1
849.8727	969.1321	12257.9	11383.6
850.0178	971.1412	12250.45	11374.05
850.1629	973.1495	12220.7	11344.05
850.3081	975.1572	12227.4	11302.45
850.4532	977.1641	12193.1	11315.45
850.5983	979.1704	12140.85	11261.95
850.7435	981.1759	12116.8	11237.05
850.8886	983.1808	12095.65	11215.05
851.0337	985.1849	12058.3	11169.25
851.1788	987.1884	12024.95	11143.7
851.324	989.1911	12019.85	11139.95
851.4691	991.1932	12001.8	11123.1
851.6142	993.1945	11962.15	11082.65
851.7593	995.1951	11880.7	11000.45
851.9045	997.1951	11880.7	10994
852.0496	999.1943	11828	10950.75
852.1947	1001.1928	11805.85	10927.75
852.3398	1003.1906	11764.6	10887.45
852.4849	1005.1877	11731.1	10850.8
852.63	1007.1841	11725.25	10847.5
852.7751	1009.1798	11683.75	10808.1
852.9202	1011.1748	11654.45	10775.9
853.0653	1013.1691	11615.4	10736.1
853.2104	1015.1627	11566.65	10685.75
853.3555	1017.1556	11492.45	10611.5
853.5006	1019.1477	11470.5	10591.55
853.6457	1021.1392	11364.85	10488.55
853.7908	1023.1299	11347.6	10468.65
853.9359	1025.12	11303.3	10425.25
854.081	1027.1093	11246.75	10372.45
854.2261	1029.0979	11223.85	10351.65
854.3712	1031.0859	11194.1	10317.35
854.5163	1033.0731	11181.1	10302.2
854.6613	1035.0596	11140.2	10263.75
854.8064	1037.0454	11095.6	10217.65
854.9515	1039.0304	11074.95	10195.6
855.0965	1041.0148	11036.45	10156.95
855.2416	1042.9985	10992.85	10110.05
855.3867	1044.9814	10974.05	10093.65
855.5317	1046.9636	10932.35	10049.3
855.6768	1048.9452	10883.7	10003.95
855.8219	1050.926	10894.4	10014.8
855.9669	1052.9061	10864.35	9983.15
856.112	1054.8855	10827.1	9947.05
856.257	1056.8642	10806.35	9923.5
856.4021	1058.8421	10810.6	9926.05
856.5471	1060.8194	10753.5	9873.45
856.6921	1062.7959	10711.55	9831.65
856.8372	1064.7717	10718.55	9837.7
856.9822	1066.7469	10691.65	9808.3
857.1272	1068.7213	10717.1	9833.3
857.2723	1070.695	10678.55	9798.9
857.4173	1072.6679	10661	9778.95
857.5623	1074.6402	10621.35	9738.1
857.7073	1076.6117	10650.5	9765.15
857.8523	1078.5826	10618.65	9736
857.9973	1080.5527	10557.25	9672.4
858.1423	1082.5221	10516.4	9634.1
858.2873	1084.4908	10513.5	9631.8
858.4323	1086.4587	10460	9577.85
858.5773	1088.426	10426.8	9543.85
858.7223	1090.3925	10407.7	9521.15
858.8673	1092.3584	10374.45	9492.35
859.0123	1094.3235	10337.6	9456.55
859.1573	1096.2879	10332.65	9449.85
859.3022	1098.2515	10333.1	9451.2
859.4472	1100.2145	10336.95	9455.35
859.5922	1102.1767	10327.25	9443.3
859.7371	1104.1382	10323.35	9440.75
859.8821	1106.099	10335.1	9449.25
860.027	1108.0591	10285	9402.5
860.172	1110.0185	10305.6	9420.6
860.3169	1111.9771	10333.2	9448.6
860.4619	1113.9351	10276.65	9395.75
860.6068	1115.8923	10285.4	9402.25
860.7517	1117.8488	10286.3	9399.85
860.8967	1119.8045	10200.8	9318.45
861.0416	1121.7596	10173.5	9290.1
861.1865	1123.7139	10113.85	9230.45
861.3314	1125.6675	10051.85	9169.2
861.4763	1127.6204	10051.8	9168.3
861.6212	1129.5726	10013.1	9129.3
861.7661	1131.524	9991.05	9108.3
861.911	1133.4748	9988.15	9104.1
862.0559	1135.4248	9939.4	9056.6
862.2008	1137.3741	9867.9	8985.15
862.3457	1139.3226	9838.1	8953.65
862.4905	1141.2705	9828.4	8943.55
862.6354	1143.2176	9793.45	8904.2
862.7803	1145.164	9804.95	8918.8
862.9251	1147.1097	9752.55	8868.75
863.07	1149.0546	9730.35	8845.35
863.2148	1150.9989	9709.45	8823.25
863.3597	1152.9424	9713.6	8829.8
863.5045	1154.8852	9696	8811.1
863.6493	1156.8272	9652.7	8769.8
863.7942	1158.7686	9663.9	8773.5
863.939	1160.7092	9634.2	8748.85
864.0838	1162.6491	9590.65	8705.2
864.2286	1164.5883	9639.1	8755.05
864.3734	1166.5267	9601.5	8717.95
864.5182	1168.4644	9605.9	8723.45
864.663	1170.4014	9592.05	8703.9
864.8078	1172.3377	9595.6	8714.05
864.9526	1174.2732	9626.25	8742.05
865.0974	1176.2081	9648.7	8761.95
865.2421	1178.1421	9680.9	8794.25
865.3869	1180.0755	9733.8	8850.55
865.5317	1182.0082	9721.45	8836.25
865.6764	1183.9401	9704.25	8819.75
865.8212	1185.8713	9613.35	8730.5
865.9659	1187.8017	9545.95	8664.15
866.1106	1189.7315	9493.5	8612.4
866.2554	1191.6605	9376.1	8494.65
866.4001	1193.5888	9318.35	8435.8
866.5448	1195.5163	9301.9	8418.85
866.6895	1197.4432	9261.45	8378.25
866.8342	1199.3693	9256.35	8373.8
866.9789	1201.2947	9196.05	8305.3
867.1236	1203.2193	9145.9	8261.2
867.2683	1205.1432	9133.15	8247.55
867.413	1207.0664	9116.45	8231.9
867.5576	1208.9889	9081.5	8192.6
867.7023	1210.9106	9073.3	8188.85
867.847	1212.8316	9047.1	8164
867.9916	1214.7519	9044.7	8150
868.1363	1216.6715	8989.05	8105.35
868.2809	1218.5903	8990.8	8107.15
868.4255	1220.5084	8971.95	8086.25
868.5701	1222.4257	8976.25	8092.3
868.7148	1224.3424	8960.65	8077.5
868.8594	1226.2583	8946.7	8056.35
869.004	1228.1735	8910.65	8023.55
869.1486	1230.0879	8927.3	8038.85
869.2932	1232.0016	8918.95	8034.95
869.4377	1233.9146	8911.7	8024.85
869.5823	1235.8269	8890.15	8003.15
869.7269	1237.7384	8889.05	8002.65
869.8715	1239.6492	8866.65	7981.8
870.016	1241.5592	8843.3	7955.7
870.1606	1243.4686	8847.35	7962.3
870.3051	1245.3772	8875.45	7991.1
870.4496	1247.285	8900.45	8014.7
870.5941	1249.1922	8915.7	8032.65
870.7387	1251.0986	8928	8042.95
870.8832	1253.0042	8928.65	8041.6
871.0277	1254.9092	8972.55	8088.2
871.1722	1256.8134	9002.1	8117.05
871.3167	1258.7169	9030.75	8149.15
871.4611	1260.6196	9048	8162.25
871.6056	1262.5216	9040.75	8153.9
871.7501	1264.4229	8986.35	8100.75
871.8945	1266.3234	8966.55	8081.3
872.039	1268.2232	8929.2	8043.4
872.1834	1270.1223	8899.7	8012.25
872.3278	1272.0207	8869.25	7980.75
872.4723	1273.9183	8839	7947.1
872.6167	1275.8151	8833.85	7949.15
872.7611	1277.7113	8824.45	7938.05
872.9055	1279.6067	8861.3	7975.55
873.0499	1281.5014	8909.8	8023.1
873.1943	1283.3953	8996.85	8108.1
873.3386	1285.2885	9080.55	8196.65
873.483	1287.181	9128.55	8244.8
873.6274	1289.0727	9159.9	8274.1
873.7717	1290.9637	9125.3	8240
873.9161	1292.854	9103.6	8217.5
874.0604	1294.7435	9020.8	8135.65
874.2047	1296.6323	8951.55	8067.1
874.349	1298.5204	8882.9	7994.5
874.4933	1300.4077	8857.75	7970.55
874.6376	1302.2943	8827.3	7940.85
874.7819	1304.1802	8784.35	7898.75
874.9262	1306.0653	8775.05	7885.7
875.0705	1307.9497	8731.85	7846.05
875.2147	1309.8333	8702.8	7817.6
875.359	1311.7162	8688.3	7801.8
875.5032	1313.5984	8651.6	7762.15
875.6475	1315.4798	8614.05	7717.45
875.7917	1317.3605	8603.25	7702.35
875.9359	1319.2405	8576.1	7687.35
876.0801	1321.1197	8558.35	7669.35
876.2243	1322.9982	8512.55	7621.2
876.3685	1324.876	8489.2	7602.95
876.5127	1326.753	8419.7	7534.3
876.6569	1328.6293	8373.85	7484.65
876.801	1330.5048	8334.55	7446.35
876.9452	1332.3796	8264.45	7378.4
877.0893	1334.2537	8270.9	7359.25
877.2335	1336.127	8215.95	7328.65
877.3776	1337.9996	8173.2	7285.35
877.5217	1339.8714	8148.55	7262.75
877.6658	1341.7426	8155.5	7228.55
877.8099	1343.6129	8133.95	7245.7
877.954	1345.4826	8072.95	7185.95
878.0981	1347.3515	8051.85	7162.25
878.2422	1349.2196	8039.85	7153.05
878.3862	1351.087	8045.8	7159.1
878.5303	1352.9537	8035.6	7146.95
878.6743	1354.8197	8044.7	7156.55
878.8184	1356.6849	8028.85	7142.65
878.9624	1358.5493	8032.65	7147.5
879.1064	1360.4131	8030.95	7144.8
879.2504	1362.276	8015.7	7130.55
879.3944	1364.1383	8029.4	7142.85
879.5384	1365.9998	8009.1	7116.1
879.6823	1367.8606	7990.55	7102.05
879.8263	1369.7206	7957.9	7069.55
879.9702	1371.5799	7952.8	7063.35
880.1142	1373.4384	7938.05	7050.75
880.2581	1375.2962	7914.5	7027.1
880.402	1377.1533	7836.35	6949.5
880.5459	1379.0096	7798.2	6912
880.6898	1380.8652	7769.6	6881.95
880.8337	1382.7201	7739.3	6852.65
880.9776	1384.5742	7680.85	6792.85
881.1215	1386.4275	7627.15	6737.95
881.2653	1388.2802	7606.45	6720.4
881.4092	1390.132	7581.25	6695.85
881.553	1391.9832	7575.6	6685.65
881.6968	1393.8336	7535.55	6649.5
881.8406	1395.6832	7498.75	6608.95
881.9844	1397.5322	7470.95	6584.95
882.1282	1399.3803	7452.35	6560.9
882.272	1401.2278	7390.5	6504.05
882.4158	1403.0745	7392.5	6502.9
882.5595	1404.9204	7350.05	6462.95
882.7033	1406.7656	7344.3	6460.35
882.847	1408.6101	7297.6	6409.3
882.9908	1410.4538	7283.6	6396.6
883.1345	1412.2968	7285.45	6397.75
883.2782	1414.139	7263.2	6377.15
883.4219	1415.9805	7261.75	6374.25
883.5656	1417.8213	7223.35	6327.35
883.7092	1419.6613	7193.3	6308.95
883.8529	1421.5006	7205.4	6315.75
883.9965	1423.3391	7217.55	6329.85
884.1402	1425.1769	7213.05	6325.25
884.2838	1427.0139	7245.45	6359.5
884.4274	1428.8502	7293.1	6405.45
884.571	1430.6858	7282.25	6396.2
884.7146	1432.5206	7280.2	6392.55
884.8582	1434.3547	7277.3	6389.55
885.0018	1436.188	7268.05	6384
885.1453	1438.0206	7247.7	6359.25
885.2889	1439.8524	7213.65	6327.35
885.4324	1441.6835	7225.35	6336.2
885.5759	1443.5139	7193.15	6301.2
885.7194	1445.3435	7161.95	6272.85
885.8629	1447.1724	7158.4	6272.5
886.0064	1449.0005	7148.95	6261.3
886.1499	1450.8279	7129.8	6239.4
886.2933	1452.6545	7093.95	6205.5
886.4368	1454.4804	7115.1	6229.5
886.5802	1456.3056	7092.95	6199.15
886.7237	1458.13	7091.2	6206.45
886.8671	1459.9536	7063.25	6176.05
887.0105	1461.7766	7042.3	6156.2
887.1539	1463.5987	6989.4	6101.95
887.2972	1465.4202	6952.2	6065.6
887.4406	1467.2409	6900.45	6012.8
887.584	1469.0608	6894.35	6006.75
887.7273	1470.88	6870.5	5983.6
887.8706	1472.6984	6856.6	5971.6
888.0139	1474.5161	6798.65	5908.2
888.1572	1476.3331	6768.85	5884.2
888.3005	1478.1493	6748.65	5860.4
888.4438	1479.9648	6753.85	5867.9
888.5871	1481.7795	6736.65	5847.9
888.7303	1483.5935	6734.25	5849.55
888.8736	1485.4067	6727.7	5842.2
889.0168	1487.2192	6723.45	5834.15
889.16	1489.031	6730.4	5841.55
889.3032	1490.842	6681.6	5794.8
889.4464	1492.6522	6668.75	5782
889.5896	1494.4618	6642.75	5753.1
889.7327	1496.2705	6660.2	5772.65
889.8759	1498.0785	6608.95	5721.3
890.019	1499.8858	6618	5729.55
890.1622	1501.6924	6583.5	5695.3
890.3053	1503.4981	6573.55	5688.35
890.4484	1505.3032	6551.95	5662.55
890.5914	1507.1075	6537.65	5649.7
890.7345	1508.911	6527.15	5639.45
890.8776	1510.7138	6508.55	5620.35
891.0206	1512.5159	6476.25	5589.4
891.1637	1514.3172	6478.4	5594.3
891.3067	1516.1178	6428.35	5541.75
891.4497	1517.9176	6418.95	5531.05
891.5927	1519.7166	6415.1	5529.1
891.7357	1521.515	6387.1	5494
891.8786	1523.3126	6356.8	5469.95
892.0216	1525.1094	6331.15	5442.75
892.1645	1526.9055	6298.35	5414.7
892.3074	1528.7008	6292.7	5404.55
892.4503	1530.4954	6258.7	5371.75
892.5932	1532.2893	6253.2	5370.1
892.7361	1534.0824	6220.15	5328.6
892.879	1535.8747	6222.3	5337.1
893.0218	1537.6663	6177.35	5290.85
893.1647	1539.4572	6139.15	5251.6
893.3075	1541.2473	6154.1	5268.5
893.4503	1543.0367	6120.95	5235.55
893.5931	1544.8253	6101.55	5209.8
893.7359	1546.6132	6085.15	5195.95
893.8787	1548.4003	6076.7	5179.1
894.0214	1550.1867	6068.75	5173.1
894.1642	1551.9723	6044.65	5154
894.3069	1553.7572	6048.9	5164.35
894.4496	1555.5414	6015.1	5127.75
894.5923	1557.3247	6027.6	5143
894.735	1559.1074	6037.25	5153.45
894.8777	1560.8893	6029.4	5146.55
895.0204	1562.6705	6025.65	5141.3
895.163	1564.4509	6003.6	5118.1
895.3056	1566.2305	5976.55	5091.7
895.4482	1568.0094	6001.55	5118
895.5908	1569.7876	5980.75	5095.25
895.7334	1571.565	5953.55	5066.75
895.876	1573.3417	5952.2	5068.15
896.0186	1575.1176	5952.25	5068.4
896.1611	1576.8928	5929.4	5044.6
896.3036	1578.6672	5903.75	5021
896.4461	1580.4409	5889.65	5006.25
896.5886	1582.2138	5894.95	5009.55
896.7311	1583.986	5890	5006.2
896.8736	1585.7575	5918.1	5036.65
897.0161	1587.5282	5915.7	5034.15
897.1585	1589.2981	5919.5	5037.3
897.3009	1591.0673	5904.7	5021.4
897.4433	1592.8358	5879.45	4996.2
897.5857	1594.6035	5880.95	4996.9
897.7281	1596.3704	5851.8	4966.9
897.8705	1598.1366	5818.1	4934.05
898.0128	1599.9021	5815.15	4932.85
898.1551	1601.6668	5750.7	4864.35
898.2975	1603.4308	5731.3	4845.45
898.4398	1605.194	5724.55	4833.8
898.5821	1606.9564	5724.2	4841.95
898.7243	1608.7182	5729.1	4844.1
898.8666	1610.4791	5739.2	4858.6
899.0088	1612.2394	5780.45	4902.25
899.1511	1613.9988	5825.55	4942.5
899.2933	1615.7576	5842.2	4960.05
899.4355	1617.5156	5845	4955.75
899.5776	1619.2728	5834	4950.7
899.7198	1621.0293	5766.55	4882.65
899.862	1622.785	5690	4804.65
900.0041	1624.54	5608.95	4722.8
900.1462	1626.2942	5532.7	4650.05
900.2883	1628.0477	5432.9	4548.1
900.4304	1629.8005	5361.5	4474
900.5725	1631.5525	5349.9	4468.55
900.7145	1633.3037	5292.95	4409.05
900.8566	1635.0542	5245.05	4363.4
900.9986	1636.804	5210.3	4326.35
901.1406	1638.553	5245.05	4270.85
901.2826	1640.3013	5167.4	4284.25
901.4245	1642.0488	5129.85	4246.5
901.5665	1643.7955	5112.65	4231.8
901.7085	1645.5416	5070.4	4188.15
901.8504	1647.2868	5043.8	4161.75
901.9923	1649.0313	5039.15	4157.45
902.1342	1650.7751	5045.1	4159.55
902.2761	1652.5181	5006.85	4124.8
902.4179	1654.2604	4988	4105.35
902.5598	1656.0019	4994	4113.1
902.7016	1657.7427	4974.15	4092.35
902.8434	1659.4828	4972.8	4086.7
902.9852	1661.222	4971.9	4087.35
903.127	1662.9606	4970.05	4087.65
903.2687	1664.6984	4973.05	4089.35
903.4105	1666.4354	4978.25	4095.25
903.5522	1668.1717	4952.25	4068.75
903.6939	1669.9072	4891.65	4006.25
903.8356	1671.642	4867.4	3981.05
903.9773	1673.3761	4826.6	3943.65
904.119	1675.1094	4785.85	3904
904.2606	1676.8419	4757.65	3874.45
904.4022	1678.5737	4737.1	3850.5
904.5439	1680.3048	4719.5	3835.9
904.6855	1682.0351	4688.15	3805.25
904.827	1683.7646	4658.85	3771.6
904.9686	1685.4934	4659.8	3775.9
905.1101	1687.2215	4640	3755.1
905.2517	1688.9488	4603.5	3723.3
905.3932	1690.6754	4584.75	3701.2
905.5347	1692.4012	4580.7	3698.75
905.6761	1694.1263	4564.25	3681.15
905.8176	1695.8506	4544.45	3661.35
905.9591	1697.5742	4510.35	3627.7
906.1005	1699.297	4508.9	3627.65
906.2419	1701.0191	4487.6	3605.2
906.3833	1702.7404	4478.5	3596.25
906.5246	1704.461	4445.05	3562.35
906.666	1706.1808	4444.3	3559.65
906.8073	1707.8999	4416.85	3532.9
906.9487	1709.6182	4402.75	3523
907.09	1711.3358	4385.9	3501.65
907.2313	1713.0527	4372.85	3493.05
907.3725	1714.7688	4362.9	3475.75
907.5138	1716.4841	4362.15	3477.75
907.655	1718.1987	4376	3489.4
907.7962	1719.9126	4324.9	3444.3
907.9374	1721.6257	4316.9	3433.15
908.0786	1723.338	4317.25	3437.1
908.2198	1725.0496	4291.2	3409.15
908.3609	1726.7605	4289.25	3406.35
908.502	1728.4706	4276.1	3392.95
908.6431	1730.18	4270.05	3385.5
908.7842	1731.8886	4267.7	3388.3
908.9253	1733.5964	4264.6	3375
909.0664	1735.3036	4249.05	3367.2
909.2074	1737.0099	4251.15	3367.95
909.3484	1738.7156	4241.5	3360.15
909.4894	1740.4204	4241.45	3356.35
909.6304	1742.1246	4233.65	3349.55
909.7714	1743.8279	4235.7	3354.85
909.9123	1745.5306	4221.85	3339.65
910.0532	1747.2325	4217.6	3335.05
910.1941	1748.9336	4185.9	3305.15
910.335	1750.634	4186.15	3300.75
910.4759	1752.3336	4192.85	3311.65
910.6168	1754.0325	4178.15	3296.7
910.7576	1755.7307	4169.85	3288.2
910.8984	1757.4281	4186.35	3302.8
911.0392	1759.1247	4186.5	3295.9
911.18	1760.8206	4172.95	3286.3
911.3208	1762.5158	4170.2	3284.45
911.4615	1764.2102	4150	3269
911.6022	1765.9039	4124.8	3244.25
911.7429	1767.5968	4124.7	3241.55
911.8836	1769.289	4110.25	3229.2
912.0243	1770.9804	4109.8	3228.95
912.1649	1772.6711	4094.95	3211.1
912.3056	1774.361	4096.1	3213.05
912.4462	1776.0502	4091.95	3208.95
912.5868	1777.7386	4079.8	3195.05
912.7274	1779.4263	4067.25	3185.55
912.8679	1781.1132	4074.95	3193.5
913.0084	1782.7994	4053.6	3170.6
913.149	1784.4849	4070.3	3190.25
913.2895	1786.1696	4063.8	3163.3
913.4299	1787.8535	4030	3147.5
913.5704	1789.5367	4014.15	3133.35
913.7108	1791.2192	4018.55	3136
913.8513	1792.9009	4027.75	3115.35
913.9917	1794.5818	4018.35	3136.05
914.132	1796.2621	4003.2	3122.5
914.2724	1797.9415	3976.3	3095.45
914.4128	1799.6202	3969	3087.6
914.5531	1801.2982	3969.2	3086.25
914.6934	1802.9755	3958.95	3073.7
914.8337	1804.6519	3956.7	3073.75
914.9739	1806.3277	3940.9	3059.55
915.1142	1808.0027	3918.15	3037.45
915.2544	1809.6769	3917.95	3036.9
915.3946	1811.3504	3903.25	3022.1
915.5348	1813.0231	3906.45	3025.75
915.675	1814.6951	3891.8	3009.8
915.8151	1816.3664	3897.75	3015.9
915.9553	1818.0369	3872.5	2988.95
916.0954	1819.7067	3873.35	2991.25
916.2355	1821.3757	3879.15	2995.1
916.3755	1823.044	3865.15	2982.65
916.5156	1824.7115	3866.15	2984.2
916.6556	1826.3783	3855.05	2973.35
916.7956	1828.0443	3827.8	2947.5
916.9356	1829.7096	3828.25	2944.5
917.0756	1831.3741	3820.6	2934.55
917.2155	1833.0379	3816	2935.5
917.3555	1834.701	3813.35	2931.65
917.4954	1836.3633	3805.1	2923.85
917.6353	1838.0248	3805.15	2920.35
917.7751	1839.6856	3794.85	2913.45
917.915	1841.3457	3784	2902.4
918.0548	1843.005	3789.55	2907.2
918.1946	1844.6636	3777.75	2895.65
918.3344	1846.3214	3766.1	2885
918.4742	1847.9785	3770.2	2889.75
918.6139	1849.6349	3760.85	2878.65
918.7537	1851.2904	3757.5	2865.95
918.8934	1852.9453	3728.1	2845.6
919.0331	1854.5994	3717.85	2833.45
919.1727	1856.2528	3728.5	2842.9
919.3124	1857.9054	3709.95	2829.25
919.452	1859.5572	3697.15	2817.95
919.5916	1861.2083	3721.5	2837.45
919.7312	1862.8587	3714.45	2832.6
919.8708	1864.5084	3703.15	2819.05
920.0103	1866.1572	3700.75	2817.75
920.1498	1867.8054	3676.95	2793.8
920.2893	1869.4528	3671.65	2788.45
920.4288	1871.0994	3657.05	2775.1
920.5683	1872.7453	3651.3	2768.45
920.7077	1874.3905	3657	2769.45
920.8471	1876.0349	3628	2746.05
920.9865	1877.6786	3655.15	2769.55
921.1259	1879.3215	3644.9	2765.05
921.2653	1880.9637	3629.25	2743.7
921.4046	1882.6051	3625.6	2743.15
921.5439	1884.2458	3617.4	2731.05
921.6832	1885.8858	3604.95	2721.15
921.8225	1887.525	3606.05	2721.15
921.9617	1889.1634	3591.35	2707.8
922.101	1890.8011	3568.7	2685.2
922.2402	1892.4381	3592.15	2709.85
922.3794	1894.0743	3582.95	2701.45
922.5185	1895.7098	3572.4	2690.55
922.6577	1897.3446	3546.75	2665.3
922.7968	1898.9786	3528.95	2641.45
922.9359	1900.6118	3543.7	2663.7
923.075	1902.2443	3531.5	2646.35
923.214	1903.8761	3540.45	2661.15
923.3531	1905.5071	3523.05	2638.55
923.4921	1907.1374	3514.25	2632.3
923.6311	1908.7669	3509.1	2626.85
923.77	1910.3957	3492.05	2609.45
923.909	1912.0237	3488.4	2607.8
924.0479	1913.651	3474.7	2590.5
924.1868	1915.2776	3468.95	2590.8
924.3257	1916.9034	3451.6	2571
924.4646	1918.5285	3443.5	2562.3
924.6034	1920.1528	3444.95	2562.15
924.7422	1921.7764	3440.85	2557.2
924.881	1923.3992	3422.45	2540.05
925.0198	1925.0213	3411.35	2528.2
925.1586	1926.6427	3387.2	2506.25
925.2973	1928.2633	3580.95	2488.65
925.436	1929.8832	3430.95	2545.3
925.5747	1931.5023	3391.55	2507.9
925.7134	1933.1207	3370.55	2488.15
925.852	1934.7383	3376.65	2495.35
925.9906	1936.3552	3373.95	2492.25
926.1292	1937.9714	3349.25	2466.65
926.2678	1939.5868	3354.9	2471.3
926.4064	1941.2015	3336	2454.1
926.5449	1942.8154	3338.9	2456.2
926.6834	1944.4286	3316.6	2434.4
926.8219	1946.041	3333	2428.3
926.9604	1947.6528	3309.15	2421.3
927.0988	1949.2637	3297.85	2415.05
927.2372	1950.8739	3299.5	2415.6
927.3756	1952.4834	3297.05	2416.05
927.514	1954.0921	3283.05	2401.35
927.6523	1955.7001	3278.95	2392.35
927.7907	1957.3074	3268.95	2389.05
927.929	1958.9139	3271.05	2389.55
928.0673	1960.5197	3258.55	2374.45
928.2055	1962.1247	3235	2354.25
928.3438	1963.729	3238.3	2357.8
928.482	1965.3325	3255.65	2350.25
928.6202	1966.9353	3223.4	2343.2
928.7584	1968.5374	3219.3	2336.85
928.8965	1970.1387	3222.75	2341.7
929.0346	1971.7393	3204.5	2323.2
929.1727	1973.3392	3206.1	2323.8
929.3108	1974.9383	3185.7	2307.2
929.4489	1976.5366	3174.25	2293.1
929.5869	1978.1342	3197.05	2315.25
929.7249	1979.7311	3171.55	2288.25
929.8629	1981.3273	3166.2	2284.7
930.0009	1982.9227	3166.55	2285.75
930.1388	1984.5173	3157.15	2276.95
930.2767	1986.1112	3147.8	2269.05
930.4146	1987.7044	3150.4	2269.05
930.5525	1989.2968	3141.65	2261.3
930.6904	1990.8885	3140.2	2255.55
930.8282	1992.4795	3137.75	2258.15
930.966	1994.0697	3110.6	2229.5
931.1038	1995.6592	3119.3	2239.7
931.2415	1997.2479	3112.55	2232.75
931.3793	1998.8359	3108.05	2230.1
931.517	2000.4232	3095.65	2217
931.6547	2002.0097	3105.9	2229.05
931.7923	2003.5955	3091.85	2212.7
931.93	2005.1805	3080.1	2199.95
932.0676	2006.7648	3083.7	2204
932.2052	2008.3484	3072.35	2192.2
932.3427	2009.9312	3076.1	2195.95
932.4803	2011.5133	3062.25	2184.2
932.6178	2013.0946	3077.1	2199.25
932.7553	2014.6752	3053.75	2174
932.8928	2016.2551	3057.25	2178.65
933.0302	2017.8342	3043.05	2162.5
933.1676	2019.4126	3027.25	2150.05
933.305	2020.9902	3035.35	2156.35
933.4424	2022.5672	3028.35	2146.6
933.5798	2024.1433	3033.4	2147.8
933.7171	2025.7188	3026	2147.55
933.8544	2027.2935	3020.35	2138.6
933.9917	2028.8674	3003.1	2123.95
934.129	2030.4406	3006.4	2128.5
934.2662	2032.0131	2991.95	2113
934.4034	2033.5849	2984.9	2101.45
934.5406	2035.1559	2998.45	2121.5
934.6778	2036.7261	2985.85	2105.8
934.8149	2038.2957	2981.9	2103.35
934.952	2039.8645	2974.05	2094.15
935.0891	2041.4325	2977.75	2095.6
935.2262	2042.9998	2984.65	2106.25
935.3632	2044.5664	2985.15	2103.55
935.5002	2046.1323	2972.05	2093.2
935.6372	2047.6974	2962.65	2083.2
935.7742	2049.2617	2965	2084.8
935.9111	2050.8254	2970	2087.85
936.048	2052.3883	2969.8	2090.35
936.1849	2053.9504	2948.55	2069.6
936.3218	2055.5118	2942.75	2062.05
936.4586	2057.0725	2948.45	2064.9
936.5955	2058.6325	2940.1	2059.65
936.7323	2060.1917	2937.15	2056.75
936.869	2061.7502	2936.1	2054.55
937.0058	2063.3079	2924.75	2046.55
937.1425	2064.8649	2921.6	2039.15
937.2792	2066.4212	2922.95	2044.5
937.4159	2067.9767	2911.7	2034
937.5525	2069.5315	2921.8	2042.25
937.6891	2071.0856	2894.6	2014.2
937.8257	2072.6389	2897.15	2019.25
937.9623	2074.1915	2892.35	2015.65
938.0989	2075.7433	2875.7	1993.2
938.2354	2077.2945	2875.4	1997.6
938.3719	2078.8448	2870.35	1991.45
938.5084	2080.3945	2861.75	1983.95
938.6448	2081.9434	2859.9	1980.25
938.7812	2083.4916	2861	1980.7
938.9176	2085.039	2863.65	1981.9
939.054	2086.5857	2850.85	1967.45
939.1903	2088.1317	2859.55	1978.8
939.3267	2089.677	2863	1980.4
939.463	2091.2215	2852.65	1971.8
939.5992	2092.7652	2850.65	1966.75
939.7355	2094.3083	2841.2	1960.9
939.8717	2095.8506	2828.65	1950.05
940.0079	2097.3921	2833.65	1953
940.1441	2098.933	2825.3	1945.75
940.2802	2100.4731	2842.15	1963.5
940.4163	2102.0124	2842.3	1945.05
940.5524	2103.5511	2838.8	1959.6
940.6885	2105.089	2823.4	1941.65
940.8245	2106.6261	2815.65	1935.45
940.9606	2108.1626	2830.65	1950
941.0965	2109.6983	2837.85	1930.8
941.2325	2111.2332	2812.95	1931.45
941.3684	2112.7675	2814.05	1934.1
941.5044	2114.301	2811.2	1929.95
941.6403	2115.8337	2808.5	1927.35
941.7761	2117.3657	2794.9	1918.05
941.912	2118.897	2801.9	1921.75
942.0478	2120.4276	2792.45	1906.55
942.1835	2121.9575	2796.75	1916.55
942.3193	2123.4866	2804.5	1908.1
942.455	2125.0149	2791.4	1910.1
942.5907	2126.5426	2773.25	1894.1
942.7264	2128.0695	2767.8	1884.6
942.8621	2129.5956	2764.05	1887.8
942.9977	2131.1211	2782.8	1898.3
943.1333	2132.6458	2760.35	1882.65
943.2689	2134.1698	2761.75	1880.45
943.4044	2135.693	2740.95	1860.45
943.54	2137.2155	2753.65	1870.45
943.6755	2138.7373	2741.6	1861.9
943.8109	2140.2584	2749.65	1869.15
943.9464	2141.7787	2744.15	1859.35
944.0818	2143.2983	2731.35	1855.4
944.2172	2144.8171	2720.6	1843.35
944.3526	2146.3353	2714.3	1833.1
944.4879	2147.8527	2718.95	1840.65
944.6232	2149.3693	2732.55	1852.9
944.7585	2150.8853	2703.05	1819.55
944.8938	2152.4005	2699.7	1819.2
945.029	2153.9149	2700	1818.35
945.1642	2155.4287	2692.75	1813.05
945.2994	2156.9417	2700.45	1819.25
945.4346	2158.454	2685.2	1803.15
945.5697	2159.9655	2689.2	1810.7
945.7048	2161.4764	2693.35	1816.25
945.8399	2162.9865	2675.05	1795.05
945.9749	2164.4958	2674.9	1792.6
946.1099	2166.0045	2684.05	1801.4
946.2449	2167.5124	2671.05	1793.3
946.3799	2169.0195	2665.4	1784.6
946.5148	2170.526	2666.45	1785.7
946.6498	2172.0317	2648.25	1768.2
946.7846	2173.5367	2661.05	1781.35
946.9195	2175.0409	2651.3	1772.75
947.0543	2176.5445	2649.7	1769.3
947.1891	2178.0473	2644.4	1764.15
947.3239	2179.5494	2633.65	1749.6
947.4587	2181.0507	2621.4	1741.6
947.5934	2182.5513	2627.05	1749.2
947.7281	2184.0512	2614.9	1735.05
947.8628	2185.5504	2614.75	1733.25
947.9974	2187.0488	2607.4	1728.45
948.132	2188.5465	2602.45	1724.35
948.2666	2190.0435	2593.75	1713.65
948.4012	2191.5397	2597.55	1717.85
948.5357	2193.0353	2594.15	1714.6
948.6702	2194.5301	2587.8	1705.7
948.8047	2196.0241	2579.9	1701.35
948.9392	2197.5175	2568.35	1688.3
949.0736	2199.0101	2569.4	1686
949.208	2200.502	2559.85	1679.85
949.3424	2201.9931	2557.35	1679.75
949.4767	2203.4835	2543.95	1662.9
949.611	2204.9733	2557.2	1671.4
949.7453	2206.4622	2550.9	1671.1
949.8796	2207.9505	2531.65	1647.85
950.0138	2209.438	2527.1	1649.05
950.148	2210.9248	2515.7	1634.55
950.2822	2212.4109	2513.8	1635.05
950.4164	2213.8962	2516.35	1634.35
950.5505	2215.3809	2511.7	1631.9
950.6846	2216.8648	2512.45	1630.55
950.8186	2218.3479	2505	1619.65
950.9527	2219.8304	2497.9	1615
951.0867	2221.3121	2493	1610.45
951.2207	2222.7931	2474.5	1594.5
951.3546	2224.2733	2496.05	1616.4
951.4886	2225.7529	2473.65	1593.2
951.6225	2227.2317	2473.75	1590.6
951.7563	2228.7098	2468.85	1589.9
951.8902	2230.1872	2454.65	1573.35
952.024	2231.6638	2455.05	1577.8
952.1578	2233.1397	2441.9	1555.95
952.2916	2234.6149	2454.05	1575.55
952.4253	2236.0894	2443.9	1563.25
952.559	2237.5632	2448.2	1557.7
952.6927	2239.0362	2434	1554.7
952.8263	2240.5085	2429.25	1549.4
952.9599	2241.9801	2425.6	1544.05
953.0935	2243.4509	2415	1533.9
953.2271	2244.921	2426.1	1544.15
953.3606	2246.3904	2408.8	1527
953.4941	2247.8591	2406.5	1526.2
953.6276	2249.3271	2400.2	1520
953.7611	2250.7943	2401.75	1521.8
953.8945	2252.2608	2385.4	1504.95
954.0279	2253.7266	2380.6	1500.95
954.1612	2255.1917	2381.8	1502.15
954.2946	2256.656	2376.95	1496.9
954.4279	2258.1197	2375.9	1497.3
954.5612	2259.5826	2361.55	1481.3
954.6944	2261.0447	2360.55	1478.95
954.8276	2262.5062	2361.35	1478.25
954.9608	2263.9669	2367.05	1487.45
955.094	2265.4269	2355.65	1475.3
955.2271	2266.8862	2346.85	1468.05
955.3602	2268.3448	2344.3	1462.8
955.4933	2269.8026	2346	1465.25
955.6264	2271.2598	2348.7	1468.5
955.7594	2272.7162	2332.05	1452.95
955.8924	2274.1719	2330.65	1449.55
956.0253	2275.6268	2328.6	1448.6
956.1583	2277.0811	2323.6	1443.6
956.2912	2278.5346	2313.15	1434
956.4241	2279.9874	2315.85	1437.35
956.5569	2281.4395	2304.1	1424.9
956.6897	2282.8908	2297.75	1411.5
956.8225	2284.3414	2304.9	1423.95
956.9553	2285.7914	2296.9	1417.75
957.088	2287.2406	2296.35	1413.65
957.2207	2288.689	2300.85	1419.9
957.3534	2290.1368	2283.45	1402.7
957.486	2291.5838	2278.65	1397.85
957.6186	2293.0302	2271.05	1390.85
957.7512	2294.4758	2260.4	1381.05
957.8838	2295.9206	2267	1385.75
958.0163	2297.3648	2260.55	1381
958.1488	2298.8082	2269.2	1387.1
958.2813	2300.251	2267.75	1387.3
958.4137	2301.693	2266.05	1382.05
958.5461	2303.1343	2255.4	1375.1
958.6785	2304.5748	2240.05	1360.3
958.8108	2306.0147	2243.1	1364.2
958.9432	2307.4538	2231.9	1349.8
959.0754	2308.8922	2235.45	1357.9
959.2077	2310.3299	2224.15	1344.85
959.3399	2311.7669	2227.4	1347.55
959.4721	2313.2031	2220.75	1341.4
959.6043	2314.6387	2225.8	1345.8
959.7365	2316.0735	2204.85	1323
959.8686	2317.5076	2213.7	1333.55
960.0006	2318.941	2207.15	1327.2
960.1327	2320.3737	2211.9	1332.5
960.2647	2321.8056	2210.5	1329.35
960.3967	2323.2369	2193.05	1312.15
960.5287	2324.6674	2191.25	1309.1
960.6606	2326.0972	2183.2	1300.65
960.7925	2327.5263	2185.8	1307.85
960.9244	2328.9547	2181	1299.5
961.0562	2330.3823	2175.8	1292.1
961.1881	2331.8092	2180.5	1295.9
961.3198	2333.2355	2170.05	1289.8
961.4516	2334.661	2156.45	1275.15
961.5833	2336.0858	2163.85	1280.45
961.715	2337.5098	2158.3	1276.85
961.8467	2338.9332	2153.5	1269.75
961.9783	2340.3558	2146.15	1263.35
962.1099	2341.7778	2147.1	1267.55
962.2415	2343.199	2131.45	1248.85
962.373	2344.6195	2129.65	1248.7
962.5045	2346.0393	2122	1241.85
962.636	2347.4583	2131.65	1252.1
962.7675	2348.8767	2125.2	1243.95
962.8989	2350.2943	2122.2	1240.4
963.0303	2351.7113	2117.9	1233.8
963.1617	2353.1275	2109.75	1228.8
963.293	2354.543	2122.9	1229.8
963.4243	2355.9578	2110.6	1231.6
963.5556	2357.3718	2088	1207.7
963.6868	2358.7852	2091.7	1207.95
963.818	2360.1978	2080.3	1200.4
963.9492	2361.6098	2078.05	1200.1
964.0803	2363.021	2084.7	1198.5
964.2114	2364.4315	2079	1198
964.3425	2365.8413	2070.05	1186.65
964.4736	2367.2504	2064.95	1183.9
964.6046	2368.6587	2056.8	1175.5
964.7356	2370.0664	2044.8	1164
964.8666	2371.4733	2048	1165.95
964.9975	2372.8795	2038.4	1157.85
965.1284	2374.285	2030.45	1149.05
965.2593	2375.6899	2035.1	1155.1
965.3901	2377.0939	2021.3	1141.15
965.5209	2378.4973	2030.1	1150.55
965.6517	2379.9	2013.3	1131.6
965.7825	2381.3019	2019.35	1136.35
965.9132	2382.7032	2007.9	1127.1
966.0439	2384.1037	2000.35	1122.25
966.1745	2385.5035	2003.05	1123.25
966.3051	2386.9027	1991.15	1112.5
966.4357	2388.3011	1995.85	1111.85
966.5663	2389.6987	1995.55	1115
966.6968	2391.0957	1977.65	1096.65
966.8273	2392.492	1980.75	1099.15
966.9578	2393.8876	1975.45	1096
967.0882	2395.2824	1967.1	1085.1
967.2186	2396.6765	1964.5	1083.55
967.349	2398.07	1950.7	1068.8
967.4793	2399.4627	1964.6	1084.2
967.6097	2400.8547	1952.9	1070.55
967.7399	2402.246	1952.15	1065.4
967.8702	2403.6366	1940.4	1060
968.0004	2405.0265	1926.2	1044.05
968.1306	2406.4156	1928.6	1043
968.2607	2407.8041	1928.1	1043
968.3909	2409.1918	1915.5	1031.95
968.521	2410.5789	1916.45	1036.55
968.651	2411.9652	1917.15	1032
968.781	2413.3508	1912.8	1030
968.911	2414.7358	1899.85	1018.1
969.041	2416.12	1898.8	1018.3
969.1709	2417.5035	1884.2	1003.8
969.3008	2418.8863	1893.7	1011.45
969.4307	2420.2684	1898.75	1017.35
969.5606	2421.6497	1881	998.35
969.6904	2423.0304	1878.65	997.65
969.8201	2424.4104	1878.65	996.45
969.9499	2425.7896	1871.45	989
970.0796	2427.1682	1875.8	993.65
970.2093	2428.546	1864.55	983.25
970.3389	2429.9232	1857.4	973.65
970.4685	2431.2996	1860.3	978.1
970.5981	2432.6753	1857.25	977.15
970.7277	2434.0503	1859.05	976.8
970.8572	2435.4246	1851.9	971.1
970.9867	2436.7982	1847.7	967.15
971.1161	2438.1711	1842.1	962
971.2456	2439.5433	1848.4	967.2
971.375	2440.9148	1845.85	958.35
971.5043	2442.2856	1837.35	956.45
971.6336	2443.6557	1834.4	951.05
971.7629	2445.025	1827.2	945.75
971.8922	2446.3937	1824.8	943.15
972.0214	2447.7617	1813.6	931.75
972.1506	2449.1289	1811.7	929.75
972.2798	2450.4955	1819.35	935.3
972.4089	2451.8613	1809.15	927.9
972.538	2453.2265	1810.2	929.7
972.6671	2454.5909	1815.15	933.5
972.7961	2455.9546	1803.4	921.15
972.9251	2457.3177	1801.2	920.2
973.0541	2458.68	1793.55	910.85
973.1831	2460.0416	1793.7	912.35
973.312	2461.4025	1800.3	917.2
973.4408	2462.7627	1810.15	918.15
973.5697	2464.1222	1787.45	906.15
973.6985	2465.4811	1782.85	900.65
973.8273	2466.8392	1785.95	906.65
973.956	2468.1966	1783.1	899.55
974.0847	2469.5533	1783.85	900.15
974.2134	2470.9093	1769.15	888.15
974.3421	2472.2645	1776.5	894.5
974.4707	2473.6191	1772.3	890.5
974.5993	2474.973	1762.05	880.3
974.7278	2476.3262	1769.1	887.25
974.8563	2477.6787	1759.25	878
974.9848	2479.0305	1753.3	874.1
975.1132	2480.3816	1753.8	871.3
975.2417	2481.7319	1740.05	859.95
975.37	2483.0816	1747.25	865.45
975.4984	2484.4306	1737.8	856.75
975.6267	2485.7789	1730.1	849.95
975.755	2487.1264	1735.7	853.6
975.8833	2488.4733	1735.65	854.25
976.0115	2489.8195	1740.7	852.5
976.1397	2491.165	1725.35	840.95
976.2678	2492.5097	1719.45	836.6
976.3959	2493.8538	1717.1	837.25
976.524	2495.1972	1722.1	841.15
976.6521	2496.5398	1714.3	829.55
976.7801	2497.8818	1712.9	829.25
976.9081	2499.2231	1710.85	830.6
977.036	2500.5637	1714.55	828.9
977.164	2501.9035	1702.15	821.65
977.2918	2503.2427	1699.95	814.75
977.4197	2504.5812	1694.2	813.3
977.5475	2505.919	1698.7	817.3
977.6753	2507.256	1696.05	814.35
977.8031	2508.5924	1690.15	809.65
977.9308	2509.9281	1689.4	801
978.0585	2511.2631	1671.2	791.1
978.1861	2512.5974	1679.4	798.4
978.3137	2513.9309	1676.85	796.3
978.4413	2515.2638	1704	790.95
978.5689	2516.596	1672.95	793
978.6964	2517.9275	1663.05	779.45
978.8239	2519.2583	1661.7	780.35
978.9513	2520.5884	1655.45	771.75
979.0788	2521.9178	1653.05	770.75
979.2062	2523.2465	1650.2	769.45
979.3335	2524.5745	1647.35	765.95
979.4608	2525.9018	1645.35	762.75
979.5881	2527.2284	1653.4	773.85
979.7154	2528.5543	1645.6	766.65
979.8426	2529.8796	1635.05	755.7
979.9698	2531.2041	1640.55	756.85
980.0969	2532.5279	1632.95	753.75
980.224	2533.851	1642.5	759.65
980.3511	2535.1735	1634.6	753.75
980.4781	2536.4952	1631.3	752.05
980.6052	2537.8163	1627.2	745.45
980.7321	2539.1366	1622.75	741.85
980.8591	2540.4562	1625.25	742.3
980.986	2541.7752	1615.3	733.3
981.1129	2543.0935	1618.65	737.65
981.2397	2544.411	1615.15	732.3
981.3665	2545.7279	1608.95	728.4
981.4933	2547.0441	1606.4	725.15
981.62	2548.3596	1613.65	729.15
981.7467	2549.6744	1608.4	728.85
981.8734	2550.9885	1621.6	731.2
982.0001	2552.3019	1600.25	719.7
982.1267	2553.6146	1600.95	717.55
982.2532	2554.9266	1597.25	716.75
982.3798	2556.2379	1598.2	716.35
982.5063	2557.5485	1595.35	716.65
982.6327	2558.8585	1593.6	704.55
982.7592	2560.1677	1599.3	713.65
982.8856	2561.4762	1585.35	703.25
983.0119	2562.7841	1592.1	707.35
983.1383	2564.0913	1586.8	706.7
983.2646	2565.3977	1582	700.95
983.3908	2566.7035	1572.4	692.05
983.517	2568.0086	1577.6	695.6
983.6432	2569.313	1567.4	685
983.7694	2570.6167	1578.65	696.15
983.8955	2571.9197	1565.7	685.65
984.0216	2573.222	1575.3	691.4
984.1476	2574.5236	1563.75	681.35
984.2737	2575.8246	1567.45	682.5
984.3996	2577.1248	1571.95	689.1
984.5256	2578.4244	1553.95	671.9
984.6515	2579.7232	1557.8	675.45
984.7774	2581.0214	1577.8	672.4
984.9032	2582.3189	1554.35	675.9
985.029	2583.6157	1550.5	665.6
985.1548	2584.9118	1550.35	669.3
985.2806	2586.2072	1555.75	675.45
985.4063	2587.5019	1552.9	670.85
985.5319	2588.7959	1547.95	667.55
985.6576	2590.0893	1551.55	665.7
985.7832	2591.3819	1544.75	661.9
985.9087	2592.6739	1546.1	665.75
986.0343	2593.9652	1543.65	660.4
986.1597	2595.2557	1533.15	653
986.2852	2596.5456	1532.45	647
986.4106	2597.8348	1523.95	644.4
986.536	2599.1234	1523.6	644.15
986.6614	2600.4112	1526.3	645.75
986.7867	2601.6983	1518.75	633.3
986.912	2602.9848	1523.4	643.4
987.0372	2604.2705	1515.95	627
987.1624	2605.5556	1506.5	625.9
987.2876	2606.84	1509.8	628.65
987.4128	2608.1237	1495.7	613.95
987.5379	2609.4067	1503.9	622.3
987.6629	2610.689	1513.6	623
987.788	2611.9707	1502.7	618
987.913	2613.2516	1498.7	613.05
988.0379	2614.5319	1484.15	603.9
988.1629	2615.8115	1491.55	610.05
988.2878	2617.0903	1484.65	603.15
988.4126	2618.3685	1481.1	599.25
988.5375	2619.6461	1482	600.75
988.6622	2620.9229	1477.95	595.15
988.787	2622.199	1484.05	603.45
988.9117	2623.4745	1478.55	594.4
989.0364	2624.7493	1470.65	588.45
989.161	2626.0234	1469.75	589.2
989.2857	2627.2968	1466.15	585.7
989.4102	2628.5695	1461.95	579.5
989.5348	2629.8415	1455.05	574.75
989.6593	2631.1128	1460.8	578
989.7837	2632.3835	1453.25	571.65
989.9082	2633.6535	1450.5	568.35
990.0326	2634.9228	1452.45	574.3
990.1569	2636.1914	1445.75	566.1
990.2812	2637.4593	1451.75	564.55
990.4055	2638.7265	1439.8	559
990.5298	2639.9931	1439.3	558
990.654	2641.259	1438.4	555.55
990.7782	2642.5242	1443.1	560.1
990.9023	2643.7887	1438.05	555.3
991.0264	2645.0525	1424.6	541.95
991.1505	2646.3156	1427.9	546.05
991.2745	2647.5781	1425.7	546.5
991.3985	2648.8398	1419.3	538.7
991.5225	2650.1009	1431.05	540.35
991.6464	2651.3613	1426.45	545.75
991.7703	2652.6211	1420.4	542.1
991.8942	2653.8801	1414.95	535.25
992.018	2655.1385	1417.2	534.85
992.1418	2656.3961	1409.05	528.45
992.2655	2657.6531	1416.1	535.9
992.3892	2658.9094	1398.85	517
992.5129	2660.1651	1401.6	521.25
992.6366	2661.42	1405.5	526.4
992.7602	2662.6743	1405.5	523.9
992.8837	2663.9279	1406.25	526.9
993.0073	2665.1808	1398.2	519.15
993.1307	2666.433	1400.95	520.85
993.2542	2667.6846	1394.25	513.45
993.3776	2668.9354	1406.7	522.8
993.501	2670.1856	1390.5	510.3
993.6244	2671.4351	1392.55	510.45
993.7477	2672.6839	1394.65	513.1
993.8709	2673.9321	1386.3	503.7
993.9942	2675.1795	1385.95	505.75
994.1174	2676.4263	1393.85	512.7
994.2405	2677.6724	1377.1	496.75
994.3637	2678.9179	1381.5	498.55
994.4868	2680.1626	1379.4	500.35
994.6098	2681.4067	1383.45	501.15
994.7328	2682.6501	1375.6	495.1
994.8558	2683.8928	1373.1	491.75
994.9788	2685.1348	1374.6	494.65
995.1017	2686.3761	1367.05	487.9
995.2245	2687.6168	1373.65	493.45
995.3474	2688.8568	1364.4	485.05
995.4702	2690.0961	1365.25	486.75
995.5929	2691.3348	1361.35	478.95
995.7156	2692.5727	1357.8	479.35
995.8383	2693.81	1356.2	473.25
995.961	2695.0466	1360.95	481.2
996.0836	2696.2826	1359.6	477.95
996.2062	2697.5178	1353.85	472.65
996.3287	2698.7524	1349.7	470.55
996.4512	2699.9863	1357.1	473.15
996.5737	2701.2195	1346.7	468.05
996.6961	2702.452	1345.95	464
996.8185	2703.6839	1340.75	458.65
996.9408	2704.9151	1336.9	457.15
997.0631	2706.1456	1336.15	453.4
997.1854	2707.3755	1337.35	457.2
997.3077	2708.6046	1339.1	455.85
997.4299	2709.8331	1342.8	462.6
997.552	2711.0609	1334.6	454
997.6742	2712.2881	1331.65	451
997.7963	2713.5145	1327.65	444.45
997.9183	2714.7403	1327.2	451.05
998.0403	2715.9654	1330.7	449.55
998.1623	2717.1899	1339.65	446.05
998.2842	2718.4136	1320.7	440.5
998.4062	2719.6367	1316.75	436.45
998.528	2720.8591	1324.4	435.15
998.6498	2722.0809	1319.9	438.95
998.7716	2723.3019	1315.2	429.9
998.8934	2724.5223	1316.95	434.15
999.0151	2725.7421	1316.5	436.1
999.1368	2726.9611	1308	424.1
999.2584	2728.1795	1319.15	433.85
999.38	2729.3972	1312.35	433.4
999.5016	2730.6142	1311.8	416.8
999.6231	2731.8306	1301.05	419.25
999.7446	2733.0462	1307.25	426.15
999.8661	2734.2612	1299.55	412.65
999.9875	2735.4756	1294.1	412.35
1000.1089	2736.6892	1286.15	405.9
1000.2302	2737.9022	1291.35	410.2
1000.3515	2739.1145	1288.5	408.6
1000.4728	2740.3262	1293.95	405.3
1000.594	2741.5372	1284	405.25
1000.7152	2742.7475	1283.8	403.05
1000.8363	2743.9571	1283.6	401.7
1000.9575	2745.1661	1283.6	398.85
1001.0785	2746.3744	1277.75	397.15
1001.1996	2747.582	1273.8	393.75
1001.3206	2748.7889	1270.55	388.4
1001.4415	2749.9952	1269.1	387.7
1001.5625	2751.2008	1273.6	392.55
1001.6833	2752.4057	1270.35	385.25
1001.8042	2753.61	1274.55	393.7
1001.925	2754.8136	1266.65	383.45
1002.0458	2756.0165	1265.7	385.5
1002.1665	2757.2188	1261.1	382.3
1002.2872	2758.4204	1260.5	380.55
1002.4078	2759.6213	1262.75	381.05
1002.5285	2760.8215	1259.75	376.05
1002.649	2762.0211	1259.8	377.95
1002.7696	2763.22	1260.8	377
1002.8901	2764.4182	1249.8	369.95
1003.0106	2765.6158	1252.15	371.15
1003.131	2766.8127	1246.35	367.25
1003.2514	2768.009	1248.95	368.15
1003.3717	2769.2045	1244.3	361.9
1003.492	2770.3994	1242.25	359
1003.6123	2771.5936	1243.6	362.4
1003.7325	2772.7872	1242.3	363.7
1003.8527	2773.9801	1243.4	361.65
1003.9729	2775.1723	1250.85	354.9
1004.093	2776.3639	1231.65	352.15
1004.2131	2777.5548	1230.7	347.75
1004.3331	2778.745	1235.75	355.35
1004.4531	2779.9346	1229.6	350.85
1004.5731	2781.1235	1232.7	351.15
1004.693	2782.3117	1225.95	348.05
1004.8129	2783.4992	1226.9	345.4
1004.9328	2784.6861	1226.15	344.85
1005.0526	2785.8723	1225	341.55
1005.1723	2787.0579	1225.95	345.8
1005.2921	2788.2428	1213.6	332.15
1005.4118	2789.427	1219.4	340.15
1005.5314	2790.6106	1215.3	336
1005.651	2791.7935	1219.05	337.15
1005.7706	2792.9757	1214.65	335.2
1005.8902	2794.1573	1216.15	334.95
1006.0097	2795.3382	1214.45	332
1006.1291	2796.5184	1209.5	328.75
1006.2485	2797.698	1211.15	329.25
1006.3679	2798.8769	1211.3	330.9
1006.4873	2800.0551	1208.9	328.65
1006.6066	2801.2327	1209.6	324.9
1006.7258	2802.4096	1202.5	324.65
1006.8451	2803.5859	1203	322.3
1006.9642	2804.7615	1201.85	320.05
1007.0834	2805.9364	1198.7	318.1
1007.2025	2807.1106	1195.9	316.1
1007.3216	2808.2842	1202.1	321.1
1007.4406	2809.4572	1195.95	317.75
1007.5596	2810.6294	1195.9	315
1007.6785	2811.801	1195.6	316.1
1007.7975	2812.972	1190.45	311
1007.9163	2814.1423	1197.65	318.65
1008.0352	2815.3119	1199.55	318.45
1008.154	2816.4808	1193.5	314.8
1008.2727	2817.6491	1205.9	323.6
1008.3914	2818.8167	1198.2	318
1008.5101	2819.9837	1212	327.75
1008.6288	2821.15	1198.6	319.15
1008.7474	2822.3157	1204.35	325
1008.8659	2823.4807	1206.85	327.3
1008.9844	2824.645	1212.8	332.25
1009.1029	2825.8086	1212.95	333.1
1009.2214	2826.9716	1223.8	345.25
1009.3398	2828.134	1220.6	340.7
1009.4581	2829.2957	1228.35	349.1
1009.5764	2830.4567	1231.55	352.65
1009.6947	2831.617	1223.35	341.9
1009.813	2832.7767	1231	352.7
1009.9312	2833.9358	1224.8	346.2
1010.0493	2835.0941	1228.1	347.65
1010.1675	2836.2519	1231.35	351.95
1010.2855	2837.4089	1220.5	341
1010.4036	2838.5653	1221.75	341.55
1010.5216	2839.7211	1216.4	338.4
1010.6396	2840.8761	1213	332.9
1010.7575	2842.0306	1210.5	330.65
1010.8754	2843.1843	1208.4	328.65
1010.9932	2844.3374	1211.65	330.8
1011.111	2845.4899	1213.95	334.1
1011.2288	2846.6417	1215.4	337.75
1011.3465	2847.7928	1207.75	328.95
1011.4642	2848.9433	1209.3	331.2
1011.5818	2850.0931	1205.45	327.5
1011.6995	2851.2422	1215.1	332.75
1011.817	2852.3907	1208.8	328.3
1011.9345	2853.5385	1212.55	330.7
1012.052	2854.6857	1220	332.7
1012.1695	2855.8323	1210.45	331.65
1012.2869	2856.9781	1211.8	331.95
1012.4042	2858.1233	1214.9	335.2
1012.5216	2859.2679	1212.95	336
1012.6389	2860.4118	1218.1	339.5
1012.7561	2861.555	1215.4	334.1
1012.8733	2862.6976	1218.25	335.95
1012.9905	2863.8395	1220.15	342.1
1013.1076	2864.9808	1220.75	341.55
1013.2247	2866.1214	1214.75	334.5
1013.3417	2867.2614	1219.15	338
1013.4587	2868.4007	1217.7	336.2
1013.5757	2869.5393	1215.7	334.05
1013.6926	2870.6773	1216.9	334.75
1013.8095	2871.8146	1214.45	332.2
1013.9263	2872.9513	1217.85	336.4
1014.0431	2874.0874	1215.75	334.35
1014.1599	2875.2227	1215.25	334.8
1014.2766	2876.3574	1207.45	329.75
1014.3933	2877.4915	1216.2	336.15
1014.51	2878.6249	1218.05	335.7
1014.6266	2879.7577	1216.95	336.35
1014.7431	2880.8898	1226.9	337.4
1014.8596	2882.0212	1212.45	336.05
1014.9761	2883.152	1216.15	333.9
1015.0925	2884.2821	1220.4	341.5
1015.2089	2885.4116	1211.2	331.45
1015.3253	2886.5405	1212.45	330.75
1015.4416	2887.6686	1218.55	336.25
1015.5579	2888.7962	1208.45	329.85
1015.6741	2889.923	1215.6	338.6
1015.7903	2891.0493	1215.95	337.2
1015.9065	2892.1748	1207.25	326.2
1016.0226	2893.2997	1209.1	328.1
1016.1387	2894.424	1208.65	329.8
1016.2547	2895.5476	1208.9	331.35
1016.3707	2896.6706	1205.4	327.1
1016.4866	2897.7929	1203.1	323.15
1016.6025	2898.9145	1201.45	320.9
1016.7184	2900.0355	1201.75	320.35
1016.8342	2901.1559	1202	322.1
1016.95	2902.2756	1205.45	325.7
1017.0658	2903.3946	1201.25	321.05
1017.1815	2904.513	1199.5	316.95
1017.2971	2905.6308	1194	316.7
1017.4127	2906.7479	1193.1	312.45
1017.5283	2907.8643	1193.9	312.25
1017.6439	2908.9801	1201.8	321.95
1017.7594	2910.0953	1195.55	315.35
1017.8748	2911.2098	1201.4	319.35
1017.9902	2912.3236	1200.55	312.95
1018.1056	2913.4368	1192.35	308.8
1018.2209	2914.5494	1190.25	313.5
1018.3362	2915.6613	1191	306.15
1018.4515	2916.7725	1187.2	304.2
1018.5667	2917.8831	1184.5	302.65
1018.6819	2918.9931	1180.6	299.05
1018.797	2920.1024	1178.75	297.05
1018.9121	2921.211	1179.55	301.3
1019.0271	2922.319	1174.4	293.95
1019.1421	2923.4264	1175	295.9
1019.2571	2924.5331	1172.9	295.35
1019.372	2925.6391	1172.95	292.3
1019.4869	2926.7445	1169.7	291.55
1019.6017	2927.8493	1172.85	293.25
1019.7165	2928.9534	1171.3	292
1019.8313	2930.0569	1169.95	287.35
1019.946	2931.1597	1177.15	297.3
1020.0606	2932.2619	1171.05	293.5
1020.1753	2933.3634	1169.9	291.2
1020.2899	2934.4643	1173.5	286.75
1020.4044	2935.5645	1177.05	291.55
1020.5189	2936.6641	1167.65	283
1020.6334	2937.763	1169.9	290.75
1020.7478	2938.8613	1164.9	286.3
1020.8622	2939.959	1173.35	287.65
1020.9765	2941.056	1160.4	280.35
1021.0908	2942.1523	1158	277.2
1021.2051	2943.248	1149.1	270.85
1021.3193	2944.3431	1140.15	261.35
1021.4334	2945.4375	1139.45	259.8
1021.5476	2946.5313	1134.9	255.85
1021.6617	2947.6244	1134.65	255.65
1021.7757	2948.7169	1128.4	249.85
1021.8897	2949.8087	1114.8	237
1022.0037	2950.8999	1113.55	234.5
1022.1176	2951.9904	1112.1	233.25
1022.2315	2953.0803	1105.25	224.2
1022.3453	2954.1696	1104.45	224.65
1022.4591	2955.2582	1098.5	220.75
1022.5728	2956.3462	1102.7	221.9
1022.6865	2957.4335	1100.9	221.4
1022.8002	2958.5202	1101.3	218.85
1022.9138	2959.6062	1096.1	216.75
1023.0274	2960.6916	1091.1	213.45
1023.141	2961.7764	1092.75	213.3
1023.2545	2962.8605	1097.2	217
1023.3679	2963.9439	1088.45	211.4
1023.4813	2965.0267	1093.35	212.65
1023.5947	2966.1089	1110.9	209
1023.708	2967.1905	1088.3	209.85
1023.8213	2968.2714	1086.25	206.85
1023.9346	2969.3516	1085.6	206.75
1024.0478	2970.4312	1092.5	204.1
1024.1609	2971.5102	1085.6	207.3
1024.274	2972.5885	1083.85	204.9
1024.3871	2973.6662	1087.85	203.4
1024.5002	2974.7432	1079.8	202.5
1024.6132	2975.8196	1084.6	206.05
1024.7261	2976.8954	1076.85	197.1
1024.839	2977.9705	1078.45	199.1
1024.9519	2979.045	1077.55	197.8
1025.0647	2980.1188	1082.25	202.65
1025.1775	2981.192	1077.15	199.55
1025.2902	2982.2645	1075.45	195.55
1025.4029	2983.3364	1074.95	196.8
1025.5156	2984.4077	1073.5	195
1025.6282	2985.4783	1076.55	192.25
1025.7407	2986.5483	1068.75	191.4
1025.8532	2987.6177	1064.95	185.3
1025.9657	2988.6864	1060	180.75
1026.0782	2989.7545	1066.7	186.25
1026.1906	2990.8219	1061.15	182.7
1026.3029	2991.8887	1057.65	176.6
1026.4152	2992.9548	1058.45	178.45
1026.5275	2994.0204	1056.2	178.3
1026.6397	2995.0852	1046.2	168.15
1026.7519	2996.1495	1047	166.05
1026.864	2997.2131	1050.45	172.7
1026.9761	2998.276	1045.3	165.55
1027.0882	2999.3383	1039.55	159
1027.2002	3000.4	1039.35	159.75
1027.3122	3001.4611	1040.55	161.65
1027.4241	3002.5215	1037.55	159.25
1027.536	3003.5812	1036.3	156.3
1027.6478	3004.6404	1034.75	156.25
1027.7596	3005.6989	1034.2	153.35
1027.8714	3006.7567	1034.65	157.6
1027.9831	3007.8139	1054.75	152.95
1028.0947	3008.8705	1034.35	156.5
1028.2064	3009.9264	1031.35	149.65
1028.3179	3010.9818	1030	149.05
1028.4295	3012.0364	1027.9	148.65
1028.541	3013.0905	1028.5	148.85
1028.6524	3014.1439	1028.75	150.1
1028.7638	3015.1966	1026.25	146.6
1028.8752	3016.2487	1025.55	146.85
1028.9865	3017.3002	1032.25	145.2
1029.0978	3018.3511	1024.6	146.75
1029.209	3019.4013	1022.45	144.35
1029.3202	3020.4509	1025.35	146.55
1029.4314	3021.4998	1023.2	144.85
1029.5425	3022.5481	1015.6	136.45
1029.6535	3023.5958	1026.15	147.7
1029.7645	3024.6428	1018.75	138.2
1029.8755	3025.6892	1015.35	138.5
1029.9864	3026.735	1015.1	135.6
1030.0973	3027.7802	1021.95	143.3
1030.2082	3028.8247	1014.7	136.4
1030.319	3029.8685	1014.7	135.15
1030.4297	3030.9118	1017.6	138.25
1030.5404	3031.9544	1012	132
1030.6511	3032.9963	1014.35	136
1030.7617	3034.0376	1013.95	135.4
1030.8723	3035.0783	1017.05	135.9
1030.9829	3036.1184	1015.6	137.2
1031.0934	3037.1578	1005.95	129.95
1031.2038	3038.1966	1013.05	133.7
1031.3142	3039.2348	1011.9	132.3
1031.4246	3040.2723	1016.2	126.2
1031.5349	3041.3092	1008.6	129.55
1031.6452	3042.3455	1008.6	129.55
1031.7554	3043.3811	1010.4	133.1
1031.8656	3044.4161	1012.15	130.25
1031.9758	3045.4505	1007.45	131.2
1032.0859	3046.4842	1010.25	130.3
1032.1959	3047.5173	1003.5	126.3
1032.3059	3048.5498	1009.1	131.1
1032.4159	3049.5816	1006.2	126.45
1032.5258	3050.6128	1007.85	127.35
1032.6357	3051.6434	1007.15	125.45
1032.7455	3052.6734	1008.1	126.15
1032.8553	3053.7027	1007.75	129.15
1032.9651	3054.7314	1004.3	126.1
1033.0748	3055.7594	1005.3	128.35
1033.1845	3056.7868	1005.6	124.45
1033.2941	3057.8136	1006	128.1
1033.4037	3058.8398	998.1	118.25
1033.5132	3059.8653	997.9	120
1033.6227	3060.8902	1000.4	122.1
1033.7321	3061.9145	1000.6	123
1033.8415	3062.9381	999.95	121.9
1033.9509	3063.9612	1016.8	121.75
1034.0602	3064.9835	1001.65	122.15
1034.1694	3066.0053	1001.9	120.6
1034.2787	3067.0264	1001.4	121.3
1034.3878	3068.0469	1005.45	125.2
1034.497	3069.0668	1001.1	117.5
1034.6061	3070.086	996.25	118.85
1034.7151	3071.1046	997.1	118.95
1034.8241	3072.1226	999.15	120.7
1034.9331	3073.1399	994.3	118.35
1035.042	3074.1567	995.2	116.75
1035.1508	3075.1727	1000.6	120.6
1035.2597	3076.1882	995.1	115
1035.3684	3077.203	992.2	114.95
1035.4772	3078.2173	994.35	115.3
1035.5859	3079.2308	995.8	112.9
1035.6945	3080.2438	993.5	112.1
1035.8031	3081.2561	994.15	113.45
1035.9117	3082.2678	986.7	108.55
1036.0202	3083.2789	986.9	108.45
1036.1286	3084.2893	986.9	108.85
1036.2371	3085.2991	990.15	111.35
1036.3454	3086.3083	994.15	109.9
1036.4538	3087.3169	986.2	107.55
1036.562	3088.3248	990.75	110.8
1036.6703	3089.3321	988.2	108.9
1036.7785	3090.3388	985.7	107.7
1036.8866	3091.3449	983.4	104.6
1036.9948	3092.3503	988.7	107.05
1037.1028	3093.3551	984.7	106.55
1037.2108	3094.3593	982.6	104.4
1037.3188	3095.3629	983.5	106.4
1037.4267	3096.3658	980.4	101.25
1037.5346	3097.3681	977.6	99.25
1037.6425	3098.3698	981	101.95
1037.7503	3099.3708	987.4	102.55
1037.858	3100.3713	979.65	101.35
1037.9657	3101.3711	980.7	100.2
1038.0734	3102.3702	1113.9	104.3
1038.181	3103.3688	981.9	100.7
1038.2886	3104.3667	976.05	99.35
1038.3961	3105.364	972.65	93.3
1038.5036	3106.3607	977.4	95.15
1038.611	3107.3568	978.6	97.55
1038.7184	3108.3522	972.65	94.45
1038.8257	3109.347	975.05	96.8
1038.933	3110.3412	977.7	96.9
1039.0403	3111.3348	974.75	95.6
1039.1475	3112.3277	972.1	94.1
1039.2547	3113.32	968.9	91.65
1039.3618	3114.3117	970.35	93.6
1039.4689	3115.3028	967.15	88.3
1039.5759	3116.2932	970.7	92.35
1039.6829	3117.2831	977.3	92.65
1039.7898	3118.2723	970.25	93.65
1039.8967	3119.2608	969.4	89.5
1040.0035	3120.2488	972.6	96.65
1040.1103	3121.2361	969.8	90
1040.2171	3122.2229	966.4	84.9
1040.3238	3123.209	965.4	87
1040.4305	3124.1944	966.25	85.75
1040.5371	3125.1793	968.75	87.45
1040.6437	3126.1635	962.45	85
1040.7502	3127.1471	965.2	87.4
1040.8567	3128.1301	962.95	85
1040.9631	3129.1125	963.1	85
1041.0695	3130.0942	962	82.2
1041.1759	3131.0753	970.15	82.65
1041.2822	3132.0558	967	86
1041.3884	3133.0357	961.05	81.65
1041.4946	3134.015	961.15	83.25
1041.6008	3134.9936	962.9	81.3
1041.7069	3135.9716	981	81
1041.813	3136.949	961	84.4
1041.919	3137.9258	967.65	82.25
1042.025	3138.902	965.75	81
1042.1309	3139.8775	961.25	83
1042.2368	3140.8524	959.4	80.4
1042.3427	3141.8267	960.5	78.25
1042.4485	3142.8004	957	78.95
1042.5542	3143.7735	961.55	75
1042.6599	3144.7459	959.95	77.55
1042.7656	3145.7178	957.5	78.7
1042.8712	3146.689	957.7	80.2
1042.9768	3147.6596	956.5	77.7
1043.0823	3148.6295	954.5	76.4
1043.1878	3149.5989	956.6	77.4
1043.2932	3150.5676	956.1	79.6
1043.3986	3151.5357	953.6	76.15
1043.5039	3152.5032	953.7	76.15
1043.6092	3153.4701	954.3	76.05
1043.7145	3154.4364	955.75	74.4
1043.8197	3155.402	950.4	74.45
1043.9248	3156.367	956.6	75.8
1044.03	3157.3315	988.9	73.25
1044.135	3158.2952	951.25	73.25
1044.24	3159.2584	949.5	69.2
1044.345	3160.221	947.5	68.2
1044.4499	3161.1829	949.1	70.1
1044.5548	3162.1442	949.55	71.55
1044.6596	3163.105	949.2	69.7
1044.7644	3164.065	947.3	67.45
1044.8692	3165.0245	953	69.95
1044.9739	3165.9834	947	67.75
1045.0785	3166.9416	943.95	67.05
1045.1831	3167.8993	949.95	70.3
1045.2877	3168.8563	946.85	66.7
1045.3922	3169.8127	946.15	69.65
1045.4966	3170.7684	945.7	67.9
1045.6011	3171.7236	944.5	64.7
1045.7054	3172.6782	946.15	66.9
1045.8098	3173.6321	947.05	68.7
1045.914	3174.5854	951.45	66.1
1046.0183	3175.5381	946.2	66.9
1046.1224	3176.4902	945.25	67.3
1046.2266	3177.4417	939.75	62.7
1046.3307	3178.3926	943.3	64.15
1046.4347	3179.3428	943.75	66.85
1046.5387	3180.2924	943.8	64.45
1046.6427	3181.2415	943.45	64.35
1046.7466	3182.1899	941.5	62.85
1046.8504	3183.1377	939.45	61.35
1046.9542	3184.0848	949.35	67
1047.058	3185.0314	941.8	63.05
1047.1617	3185.9773	943.1	63.2
1047.2654	3186.9227	941	62.8
1047.369	3187.8674	941.25	62.5
1047.4726	3188.8115	944.9	63.1
1047.5761	3189.755	941.4	62.75
1047.6796	3190.6979	939.4	60.5
1047.783	3191.6402	935.85	59.2
1047.8864	3192.5818	939.05	61.15
1047.9898	3193.5229	956.9	61.65
1048.0931	3194.4633	939.45	61.75
1048.1963	3195.4031	938.4	59.5
1048.2995	3196.3423	935.65	59.25
1048.4027	3197.2809	937.95	58
1048.5058	3198.2189	936.7	57.75
1048.6089	3199.1563	951.05	55
1048.7119	3200.0931	937.65	59.4
1048.8148	3201.0292	934.75	58.25
1048.9178	3201.9648	935.9	58.75
1049.0206	3202.8997	937.85	55.5
1049.1235	3203.834	939.6	63.6
1049.2262	3204.7677	936.25	58.4
1049.329	3205.7008	935.85	57.15
1049.4317	3206.6333	932.7	55.65
1049.5343	3207.5652	935.3	53.85
1049.6369	3208.4964	933.15	54.9
1049.7394	3209.4271	933.15	54.3
1049.8419	3210.3571	935	57.75
1049.9444	3211.2865	934.85	54.4
1050.0468	3212.2154	933.15	54.15
1050.1491	3213.1436	934.65	53.65
1050.2514	3214.0712	940.85	54.4
1050.3537	3214.9982	934.35	56.5
1050.4559	3215.9246	934.45	55.1
1050.5581	3216.8503	929.5	52.3
1050.6602	3217.7755	930.4	52.25
1050.7623	3218.7001	930.1	52.6
1050.8643	3219.624	928.5	50.6
1050.9663	3220.5473	928.45	50.2
1051.0682	3221.4701	930.65	49.85
1051.1701	3222.3922	930.35	50
1051.2719	3223.3137	928.8	49.7
1051.3737	3224.2346	929.85	52.15
1051.4754	3225.1549	929.95	52.95
1051.5771	3226.0746	926.85	48.35
1051.6788	3226.9937	926	46.55
1051.7804	3227.9121	924.85	48
1051.8819	3228.83	928.75	50.25
1051.9834	3229.7473	924.4	46.7
1052.0849	3230.6639	927.25	48.25
1052.1863	3231.5799	926.85	49.25
1052.2876	3232.4954	927.4	45.55
1052.3889	3233.4102	924.95	47.35
1052.4902	3234.3244	926.8	47.35
1052.5914	3235.238	921.3	41.65
1052.6926	3236.151	947.3	47.85
1052.7937	3237.0634	926	48.85
1052.8948	3237.9752	926.2	47.8
1052.9958	3238.8864	923.2	43.95
1053.0968	3239.797	923.1	44.9
1053.1977	3240.7069	923.6	44.2
1053.2986	3241.6163	927.45	47.3
1053.3994	3242.5251	921.75	47.2
1053.5002	3243.4332	922.1	45.55
1053.6009	3244.3408	922.65	43.8
1053.7016	3245.2477	920.25	40.65
1053.8022	3246.154	923.2	42.75
1053.9028	3247.0598	924.4	43
1054.0034	3247.9649	921.45	44.6
1054.1039	3248.8694	921.85	42.35
1054.2043	3249.7733	921.5	43.55
1054.3047	3250.6766	922	44.55
1054.4051	3251.5793	918.5	40.9
1054.5054	3252.4814	920.55	43.95
1054.6056	3253.3829	917.2	39.5
1054.7058	3254.2838	917.55	39.4
1054.806	3255.1841	919.35	38.65
1054.9061	3256.0838	920.8	40.6
1055.0061	3256.9829	916	38.65
1055.1062	3257.8814	921.4	42.65
1055.2061	3258.7792	919.7	40.6
1055.306	3259.6765	919.5	39.9
1055.4059	3260.5731	920.9	43.5
1055.5057	3261.4692	918.65	40.05
1055.6055	3262.3647	916.9	37.3
1055.7052	3263.2595	915.7	36.75
1055.8049	3264.1538	915.15	36.25
1055.9045	3265.0474	916.15	37.35
1056.0041	3265.9404	912.8	36.2
1056.1036	3266.8329	913.55	36.85
1056.2031	3267.7247	921.4	34
1056.3025	3268.616	909.3	32.25
1056.4019	3269.5066	909.4	29.85
1056.5013	3270.3966	911.7	28.4
1056.6005	3271.286	909.2	31.05
