Software Version:	3.9.2.0
Unit SN:	10000200
Spectrometer SN:	6960
Date:	3/6/2024 9:46:49 AM
Data Line Index:	25
Spectral Points:	2048
Integration time (ms):	125
Averages:	20
Delay (ms):	30
Sequence Number:	1
Processing:	dark subtract
Laser Power (mW):	300
Laser Current (mA):	824
Laser Diode Temp (C):	25.1
Laser Case Temp (C):	24.2
System Temp (C):	24
Spectrometer Temp (C):	21.6
CCD Temp (C):	-0.011
Secondary Temp (C):	20.011
Heatsink Temp (C):	18.091
CCDPCB Temp (C):	31.005
SecondaryPCB Temp (C):	25.814

Wavelength	RamanShift	Raw Counts	Dark Subtracted
787.061	30.1047	450.6	43.15
787.2016	32.3739	454.1	49.2
787.3422	34.6426	457.5	52.05
787.4828	36.9109	461.2	51.3
787.6235	39.1787	468.3	57.05
787.7642	41.4461	477.2	57.15
787.9049	43.7131	483.85	65.25
788.0456	45.9796	492.05	68.1
788.1863	48.2456	496.75	69.2
788.3271	50.5112	504.85	75.55
788.4679	52.7764	512.55	79.3
788.6087	55.0411	517.45	80.4
788.7496	57.3054	529.4	84.7
788.8904	59.5692	538.6	93.4
789.0313	61.8326	544.8	98.5
789.1722	64.0955	557.25	106.1
789.3132	66.3579	570	113.85
789.4541	68.6199	586.05	125.8
789.5951	70.8815	611.05	147.65
789.7361	73.1426	661.5	195.25
789.8771	75.4032	786.95	316.25
790.0181	77.6634	1096.7	623.8
790.1592	79.9231	1837.55	1362.2
790.3003	82.1824	3399.8	2915.1
790.4414	84.4412	6131.9	5637.45
790.5825	86.6995	9843.8	9335
790.7237	88.9574	13482.6	12966.35
790.8648	91.2148	16201.15	15678.75
791.006	93.4717	17670.6	17143.45
791.1472	95.7282	18325.8	17794.7
791.2885	97.9842	18656.3	18123.15
791.4297	100.2398	18764	18226.25
791.571	102.4949	18850.7	18311.65
791.7123	104.7495	18827.55	18281.7
791.8536	107.0036	18800.15	18258.2
791.9949	109.2573	18836.05	18291.05
792.1363	111.5105	18857.45	18313.05
792.2777	113.7632	18836.95	18289.4
792.4191	116.0154	18855.9	18296.7
792.5605	118.2672	18944.6	18393.1
792.7019	120.5185	18937.4	18385.5
792.8434	122.7693	18968	18409.9
792.9849	125.0197	19002.7	18439.65
793.1264	127.2696	19005.8	18440.15
793.2679	129.519	19062.85	18492.4
793.4094	131.7679	19126.2	18554.65
793.551	134.0163	19146.7	18572.8
793.6926	136.2642	19188.2	18611.9
793.8342	138.5117	19203.3	18621.75
793.9758	140.7587	19204.6	18626.35
794.1175	143.0052	19218.55	18634.25
794.2591	145.2512	19190.45	18604.2
794.4008	147.4967	19162.1	18575.75
794.5425	149.7417	19195.25	18605.3
794.6842	151.9863	19186.45	18592.9
794.826	154.2304	19205.5	18607.9
794.9677	156.4739	19172.3	18568.5
795.1095	158.717	19209.4	18606.35
795.2513	160.9596	19225.35	18615.7
795.3931	163.2017	19233.9	18624.55
795.535	165.4433	19249.15	18638.75
795.6768	167.6844	19249.85	18635.3
795.8187	169.925	19276.25	18660
795.9606	172.1651	19210.4	18591.25
796.1025	174.4047	19226.95	18603.1
796.2445	176.6439	19222.7	18597.8
796.3864	178.8825	19232.1	18600.75
796.5284	181.1206	19266.2	18633.4
796.6704	183.3582	19292.45	18654.75
796.8124	185.5954	19291.8	18654.25
796.9544	187.832	19311.85	18669.45
797.0965	190.0681	19321.75	18676.35
797.2386	192.3037	19386.3	18738.8
797.3806	194.5388	19408.9	18757.25
797.5228	196.7734	19455.2	18802.4
797.6649	199.0075	19525.8	18874.4
797.807	201.2411	19623.9	18970.3
797.9492	203.4742	19638.35	18979.05
798.0914	205.7068	19696.75	19035.2
798.2336	207.9389	19742.2	19082.55
798.3758	210.1704	19806.95	19155.05
798.518	212.4015	19772.35	19129.3
798.6603	214.632	19804.3	19167.3
798.8025	216.862	19858.9	19219.05
798.9448	219.0915	19855.25	19215.6
799.0871	221.3205	19853.7	19209.75
799.2294	223.549	19900.8	19260
799.3718	225.777	19984.45	19344.5
799.5141	228.0044	19992.9	19343.85
799.6565	230.2314	20034.85	19385.5
799.7989	232.4578	20044.75	19390.75
799.9413	234.6837	20052.35	19386.95
800.0837	236.909	20095	19431.5
800.2262	239.1339	20099.85	19411.4
800.3687	241.3582	20124.15	19450.85
800.5111	243.582	20157	19451.7
800.6536	245.8053	20168.65	19478.25
800.7961	248.0281	20158.7	19471.7
800.9387	250.2503	20173.35	19483.3
801.0812	252.472	20187.45	19495.85
801.2238	254.6932	20270.7	19580.4
801.3664	256.9139	20190.6	19496.95
801.509	259.134	20216.7	19521.2
801.6516	261.3536	20222.2	19529.4
801.7942	263.5727	20332.95	19636.65
801.9369	265.7912	20287.7	19593
802.0795	268.0092	20328.95	19631.7
802.2222	270.2267	20347.25	19647.4
802.3649	272.4436	20387.3	19687.45
802.5076	274.6601	20403.7	19692.95
802.6504	276.8759	20385.35	19677.75
802.7931	279.0913	20406.35	19698.1
802.9359	281.3061	20435.45	19727.45
803.0787	283.5204	20480.05	19770.35
803.2215	285.7341	20502.85	19792.6
803.3643	287.9473	20561.8	19838.4
803.5071	290.16	20548.7	19832.45
803.6499	292.3721	20512.1	19802.3
803.7928	294.5837	20530.7	19817.2
803.9357	296.7947	20468.25	19755.1
804.0786	299.0052	20497.45	19783.3
804.2215	301.2152	20453.45	19735.6
804.3644	303.4246	20468.2	19755.1
804.5074	305.6334	20456.8	19744.6
804.6503	307.8418	20418.4	19696.2
804.7933	310.0495	20423.95	19705.25
804.9363	312.2568	20390.75	19670.4
805.0793	314.4635	20304.95	19580.2
805.2223	316.6696	20278.3	19553.55
805.3653	318.8752	20219.8	19486.95
805.5084	321.0802	20189.55	19462.45
805.6514	323.2847	20172.55	19442.4
805.7945	325.4887	20149.15	19419.15
805.9376	327.692	20136.15	19405.55
806.0807	329.8949	20224.6	19490.75
806.2238	332.0972	20221.2	19486.5
806.367	334.2989	20259.1	19520.9
806.5101	336.5001	20233.45	19494.2
806.6533	338.7007	20209.65	19472.35
806.7965	340.9008	20208.15	19469.35
806.9397	343.1003	20204.35	19463.4
807.0829	345.2992	20198.75	19457.2
807.2261	347.4976	20161.65	19418
807.3693	349.6955	20140.95	19393
807.5126	351.8927	20160.35	19408.05
807.6559	354.0895	20099	19338.45
807.7991	356.2856	20156.5	19405.75
807.9424	358.4812	20105.4	19352.65
808.0857	360.6763	20142.3	19388.75
808.2291	362.8707	20087.3	19330.85
808.3724	365.0646	20085.15	19325
808.5158	367.258	20079.45	19319
808.6591	369.4508	20059.5	19296.25
808.8025	371.643	20043.45	19279.2
808.9459	373.8346	20010.85	19244.6
809.0893	376.0257	20029.8	19260.15
809.2327	378.2162	19980.7	19210.65
809.3762	380.4062	20006	19239
809.5196	382.5956	19938.5	19174.6
809.6631	384.7844	19906.85	19146.7
809.8066	386.9726	19862.25	19102.65
809.9501	389.1603	19830.2	19070.75
810.0936	391.3474	19851.45	19050.6
810.2371	393.5339	19816.25	19052.65
810.3806	395.7199	19749.95	18990.15
810.5241	397.9052	19748.6	18987.3
810.6677	400.09	19786.45	19025
810.8113	402.2743	19757.65	18995.9
810.9548	404.4579	19739.5	18977.85
811.0984	406.641	19831.1	19065.85
811.2421	408.8235	19814.5	19046.3
811.3857	411.0054	19866.8	19095.5
811.5293	413.1868	19977.8	19205.3
811.673	415.3675	19964.55	19188.4
811.8166	417.5477	19968.4	19192.55
811.9603	419.7273	19942.85	19160.05
812.104	421.9064	19772.35	18985.4
812.2477	424.0848	19694.95	18912.45
812.3914	426.2627	19606.55	18824.4
812.5351	428.4399	19557.5	18776.6
812.6788	430.6166	19506.25	18718.8
812.8226	432.7928	19429.85	18641.25
812.9663	434.9683	19372.5	18583.85
813.1101	437.1432	19325.6	18537.2
813.2539	439.3176	19297	18510.4
813.3977	441.4914	19161.85	18374.3
813.5415	443.6645	19204.55	18415.25
813.6853	445.8371	19114.45	18324.8
813.8291	448.0091	19061.25	18270.15
813.973	450.1806	18998.3	18206.85
814.1168	452.3514	18933.7	18143.25
814.2607	454.5216	18981.9	18180.55
814.4046	456.6913	18868.05	18072.35
814.5485	458.8603	18866.3	18072.3
814.6924	461.0288	18918.45	18126.1
814.8363	463.1967	18818.15	18027.15
814.9802	465.3639	18859.8	18065.75
815.1241	467.5306	18834.1	18041.65
815.2681	469.6967	18790.6	17996.4
815.412	471.8622	18742.45	17949.6
815.556	474.0271	18729.35	17932.9
815.7	476.1914	18703.4	17905
815.844	478.3551	18727.05	17927.75
815.988	480.5182	18740.9	17943.4
816.132	482.6807	18727.4	17929.1
816.276	484.8426	18725.85	17931.15
816.4201	487.0039	18769.15	17973.4
816.5641	489.1647	18773.95	17974.9
816.7082	491.3248	18809.25	18009.45
816.8522	493.4843	18784.85	17983.25
816.9963	495.6432	18765.55	17965.85
817.1404	497.8015	18695.35	17886.55
817.2845	499.9592	18718.75	17913.15
817.4286	502.1163	18686.8	17879.8
817.5727	504.2728	18590.3	17783.9
817.7168	506.4287	18655.05	17853.55
817.861	508.5839	18569.8	17762.9
818.0051	510.7386	18546.85	17739.3
818.1493	512.8927	18553.5	17739.8
818.2935	515.0461	18558.45	17749.55
818.4377	517.199	18545.95	17736.9
818.5818	519.3512	18528.95	17719.05
818.726	521.5029	18534.7	17715.85
818.8703	523.6539	18603.35	17791.75
819.0145	525.8043	18581.45	17769.35
819.1587	527.9541	18546.3	17731.8
819.303	530.1033	18472.7	17656.35
819.4472	532.2519	18425.1	17611.85
819.5915	534.3999	18380.3	17561.75
819.7357	536.5472	18404.65	17589.25
819.88	538.694	18365.7	17550.1
820.0243	540.8401	18387.3	17570.95
820.1686	542.9856	18382.2	17565.7
820.3129	545.1305	18369.2	17546.45
820.4572	547.2748	18413.6	17593.3
820.6016	549.4185	18395.5	17571.4
820.7459	551.5615	18380.5	17556.5
820.8902	553.704	18347.15	17525.9
821.0346	555.8458	18335.3	17512.45
821.1789	557.987	18330.2	17509.55
821.3233	560.1276	18314.45	17493.4
821.4677	562.2675	18341.3	17523
821.6121	564.4069	18344.5	17522.05
821.7565	566.5456	18298.3	17479.2
821.9009	568.6837	18296.1	17476.8
822.0453	570.8212	18235.85	17415.75
822.1897	572.958	18182	17357.35
822.3342	575.0942	18098.2	17279.05
822.4786	577.2299	18053.75	17232.8
822.6231	579.3648	17992	17174.4
822.7675	581.4992	17872.9	17052.3
822.912	583.6329	17828.7	17010.4
823.0565	585.766	17812.25	16993.65
823.201	587.8985	17767.2	16945.1
823.3454	590.0304	17761.15	16926.85
823.4899	592.1616	17766	16936.55
823.6345	594.2922	17762.15	16935.05
823.779	596.4222	17671.6	16842.1
823.9235	598.5515	17593.05	16763.95
824.068	600.6802	17564.7	16737.3
824.2126	602.8083	17462.95	16635.05
824.3571	604.9358	17470.1	16639.05
824.5017	607.0626	17412.5	16581.2
824.6462	609.1888	17394.5	16560.25
824.7908	611.3144	17386.7	16553.85
824.9354	613.4393	17371.7	16541.35
825.08	615.5636	17370.65	16534.75
825.2246	617.6873	17393.9	16563.15
825.3692	619.8103	17404.05	16570.5
825.5138	621.9327	17326.2	16488.9
825.6584	624.0544	17341.3	16508.2
825.803	626.1756	17295.5	16461.1
825.9477	628.2961	17251.4	16416.5
826.0923	630.4159	17215.8	16377.15
826.237	632.5351	17221.8	16386.15
826.3816	634.6537	17159.8	16323.2
826.5263	636.7716	17139.75	16301.65
826.6709	638.8889	17122.5	16282.6
826.8156	641.0056	17181.4	16342.35
826.9603	643.1216	17155.4	16315.05
827.105	645.237	17175.25	16333.9
827.2497	647.3518	17100.65	16262.8
827.3944	649.4659	17073.1	16238.8
827.5391	651.5793	17046.6	16207
827.6838	653.6922	17074.35	16236.45
827.8285	655.8043	16988.55	16151.05
827.9733	657.9159	16977.95	16137.35
828.118	660.0268	16936.55	16094.85
828.2627	662.137	16900.55	16058.9
828.4075	664.2466	16927.15	16081.95
828.5522	666.3556	16894.8	16051.8
828.697	668.4639	16793.55	15948.3
828.8418	670.5716	16837.6	15995.5
828.9865	672.6786	16816.1	15973.65
829.1313	674.785	16786.85	15940.65
829.2761	676.8907	16734.3	15889.95
829.4209	678.9958	16697.15	15854.1
829.5657	681.1002	16644.95	15800.05
829.7105	683.204	16607.45	15756.25
829.8553	685.3072	16620	15772
830.0001	687.4097	16558.05	15711.6
830.1449	689.5115	16568.3	15718.35
830.2898	691.6127	16579.8	15736.55
830.4346	693.7132	16530.3	15683.8
830.5794	695.8131	16574.05	15703.7
830.7243	697.9123	16558.55	15709.6
830.8691	700.0109	16518.9	15669
831.014	702.1089	16502	15653.85
831.1588	704.2061	16473.15	15623.1
831.3037	706.3028	16489.7	15637.7
831.4486	708.3987	16449.05	15598.1
831.5935	710.4941	16472.3	15621.1
831.7383	712.5887	16444.15	15591.6
831.8832	714.6827	16417.5	15563.45
832.0281	716.7761	16416.75	15567
832.173	718.8688	16397.2	15545.3
832.3179	720.9608	16338.35	15481.3
832.4628	723.0522	16365.2	15508.65
832.6077	725.1429	16356.55	15504.85
832.7527	727.233	16340.25	15485.9
832.8976	729.3224	16399.25	15544.9
833.0425	731.4112	16366.35	15511.65
833.1874	733.4993	16329.45	15470.4
833.3324	735.5867	16278.75	15425.4
833.4773	737.6735	16245.6	15389.85
833.6222	739.7596	16209.6	15351.55
833.7672	741.845	16144.75	15288.95
833.9122	743.9298	16100.35	15241.95
834.0571	746.014	16067.05	15209.8
834.2021	748.0974	16075.55	15213.85
834.347	750.1802	16027	15169.2
834.492	752.2624	15993.6	15135.4
834.637	754.3439	15946.75	15085.05
834.782	756.4247	15898.7	15031.55
834.9269	758.5048	15819.9	14958.5
835.0719	760.5843	15792.35	14932.95
835.2169	762.6631	15777.25	14917.05
835.3619	764.7413	15725.85	14868.6
835.5069	766.8188	15791.25	14931.55
835.6519	768.8956	15761.35	14898.15
835.7969	770.9718	15769.4	14909.45
835.9419	773.0473	15734.5	14875
836.0869	775.1221	15715.15	14856.8
836.232	777.1962	15653.35	14793.5
836.377	779.2697	15659.55	14796.55
836.522	781.3426	15670.25	14788.6
836.667	783.4147	15673.3	14812.4
836.8121	785.4862	15639.35	14780.25
836.9571	787.557	15581.25	14718.15
837.1021	789.6271	15487.05	14625.85
837.2472	791.6966	15413.5	14550.3
837.3922	793.7654	15301.2	14438.35
837.5373	795.8335	15322.4	14461.65
837.6823	797.901	15265.5	14403.3
837.8274	799.9678	15250.05	14386.1
837.9724	802.0339	15227.8	14365.45
838.1175	804.0993	15226.6	14354.9
838.2626	806.1641	15137.8	14271.55
838.4076	808.2282	15076.65	14212.85
838.5527	810.2916	15072.65	14208.45
838.6978	812.3544	15057.3	14195
838.8428	814.4164	15023.8	14161.8
838.9879	816.4778	15023.85	14157.8
839.133	818.5385	14989.55	14125.35
839.2781	820.5986	14986.55	14122.6
839.4232	822.658	15022.5	14155.05
839.5682	824.7166	14982.1	14116.75
839.7133	826.7747	15026.4	14159.45
839.8584	828.832	15040.85	14173
840.0035	830.8886	15002.45	14134.65
840.1486	832.9446	15023.45	14155.65
840.2937	834.9999	14988.45	14124.6
840.4388	837.0545	14960.9	14093.4
840.5839	839.1085	14894.1	14027.75
840.729	841.1618	14862.25	13992.6
840.8741	843.2143	14788.85	13921.25
841.0192	845.2662	14731.95	13864.5
841.1643	847.3175	14719.9	13853.1
841.3095	849.368	14683.65	13814.25
841.4546	851.4179	14645.75	13777.2
841.5997	853.467	14607.35	13738.65
841.7448	855.5155	14597.75	13730.15
841.8899	857.5633	14551.6	13680.85
842.0351	859.6105	14501.65	13632.35
842.1802	861.6569	14468.9	13602.8
842.3253	863.7027	14460.45	13590.2
842.4704	865.7478	14450.7	13580.8
842.6156	867.7922	14419.6	13549.55
842.7607	869.8359	14414	13543.45
842.9058	871.8789	14387.55	13515.65
843.0509	873.9212	14382.75	13481.95
843.1961	875.9629	14329.95	13461
843.3412	878.0039	14331.4	13460.4
843.4863	880.0441	14332.4	13461.8
843.6315	882.0837	14328.95	13455.45
843.7766	884.1226	14328.1	13456.9
843.9218	886.1609	14315.6	13445.4
844.0669	888.1984	14336.55	13467.6
844.212	890.2352	14396.2	13525.45
844.3572	892.2714	14362.7	13486.7
844.5023	894.3069	14307.2	13434.35
844.6475	896.3416	14267.7	13392.5
844.7926	898.3757	14255.6	13385.2
844.9377	900.4091	14201.2	13327.85
845.0829	902.4418	14187.95	13309.5
845.228	904.4739	14118.6	13244.3
845.3732	906.5052	14135.65	13260.1
845.5183	908.5358	14093.05	13220.6
845.6635	910.5658	14071.25	13194.05
845.8086	912.595	14026.4	13152.85
845.9538	914.6236	13978.1	13105.35
846.0989	916.6515	13958.7	13085.85
846.2441	918.6786	13926.55	13050.3
846.3892	920.7051	13905.85	13030.1
846.5344	922.7309	13921.65	13045.85
846.6795	924.756	13851.35	12977.45
846.8246	926.7804	13837.6	12960.95
846.9698	928.8041	13740.35	12865.05
847.1149	930.8272	13756.95	12882.5
847.2601	932.8495	13709.1	12833.95
847.4052	934.8711	13701.7	12824.4
847.5504	936.892	13635.7	12760.75
847.6955	938.9123	13632.45	12754.5
847.8407	940.9318	13619.15	12743.4
847.9858	942.9506	13567.9	12689.8
848.131	944.9688	13524.7	12649.25
848.2761	946.9862	13500.45	12626
848.4213	949.003	13415.75	12539.75
848.5664	951.019	13410.55	12534.2
848.7115	953.0344	13361.2	12483.8
848.8567	955.0491	13324.85	12447.55
849.0018	957.063	13318.45	12443.25
849.147	959.0763	13338.15	12462.95
849.2921	961.0888	13251.4	12373.05
849.4373	963.1007	13254.45	12377.8
849.5824	965.1119	13230.55	12357.15
849.7275	967.1223	13217.55	12344.6
849.8727	969.1321	13214.5	12339.5
850.0178	971.1412	13176.65	12300.85
850.1629	973.1495	13148.95	12272.5
850.3081	975.1572	13164.9	12241.1
850.4532	977.1641	13144.7	12266.95
850.5983	979.1704	13060.6	12182.6
850.7435	981.1759	13034.55	12153.25
850.8886	983.1808	13053.15	12172
851.0337	985.1849	13008.6	12118.25
851.1788	987.1884	12964.9	12082.65
851.324	989.1911	12948.7	12068.9
851.4691	991.1932	12917.05	12037.55
851.6142	993.1945	12883.45	12006.75
851.7593	995.1951	12820.2	11942.55
851.9045	997.1951	12819.65	11935.75
852.0496	999.1943	12752.45	11873.75
852.1947	1001.1928	12729.3	11849.45
852.3398	1003.1906	12660.15	11782.2
852.4849	1005.1877	12647	11766.75
852.63	1007.1841	12617.85	11739.15
852.7751	1009.1798	12583.8	11705.05
852.9202	1011.1748	12563	11683.95
853.0653	1013.1691	12498.65	11618.85
853.2104	1015.1627	12454.25	11574.7
853.3555	1017.1556	12362.7	11482.7
853.5006	1019.1477	12320.25	11438.55
853.6457	1021.1392	12220	11343.9
853.7908	1023.1299	12205.6	11327.7
853.9359	1025.12	12177.4	11300.3
854.081	1027.1093	12132.4	11256.45
854.2261	1029.0979	12069.25	11193.7
854.3712	1031.0859	12067.5	11193.35
854.5163	1033.0731	12040.45	11159.75
854.6613	1035.0596	12003.4	11128.6
854.8064	1037.0454	11933.95	11054.85
854.9515	1039.0304	11899.6	11020.4
855.0965	1041.0148	11865.85	10986.6
855.2416	1042.9985	11828.8	10946.1
855.3867	1044.9814	11824.25	10944.35
855.5317	1046.9636	11784.3	10899.6
855.6768	1048.9452	11733.5	10854.85
855.8219	1050.926	11703.85	10826.3
855.9669	1052.9061	11695.85	10817.1
856.112	1054.8855	11657.55	10775.5
856.257	1056.8642	11638.35	10758.85
856.4021	1058.8421	11642.7	10758.15
856.5471	1060.8194	11578.25	10695.3
856.6921	1062.7959	11571.65	10692.75
856.8372	1064.7717	11528.35	10644.1
856.9822	1066.7469	11540.9	10656.45
857.1272	1068.7213	11521.75	10637.6
857.2723	1070.695	11512.3	10630.8
857.4173	1072.6679	11472.9	10589.65
857.5623	1074.6402	11452	10572.1
857.7073	1076.6117	11463.85	10577
857.8523	1078.5826	11444.85	10564.65
857.9973	1080.5527	11385.7	10500.85
858.1423	1082.5221	11328.1	10446.65
858.2873	1084.4908	11303.25	10420.5
858.4323	1086.4587	11243.45	10358.15
858.5773	1088.426	11258.25	10373.45
858.7223	1090.3925	11215.2	10327.2
858.8673	1092.3584	11182.6	10301.35
859.0123	1094.3235	11115.55	10236.75
859.1573	1096.2879	11123.45	10242.55
859.3022	1098.2515	11123.1	10241.15
859.4472	1100.2145	11128.25	10245.65
859.5922	1102.1767	11116.35	10229.65
859.7371	1104.1382	11094.25	10211.8
859.8821	1106.099	11069.45	10186.15
860.027	1108.0591	11083	10201
860.172	1110.0185	11083.65	10198.5
860.3169	1111.9771	11103.45	10220.05
860.4619	1113.9351	11062.35	10181.05
860.6068	1115.8923	11070.1	10187
860.7517	1117.8488	11068.2	10182.6
860.8967	1119.8045	10982.55	10098.8
861.0416	1121.7596	10967.85	10084.65
861.1865	1123.7139	10853.6	9971.35
861.3314	1125.6675	10773.05	9889.15
861.4763	1127.6204	10808.2	9924.4
861.6212	1129.5726	10765.9	9880.05
861.7661	1131.524	10766.8	9882.05
861.911	1133.4748	10747.5	9863.45
862.0559	1135.4248	10662.6	9776.35
862.2008	1137.3741	10645.35	9762.75
862.3457	1139.3226	10586.45	9703.6
862.4905	1141.2705	10606	9722.25
862.6354	1143.2176	10546.65	9657.25
862.7803	1145.164	10538.7	9652.3
862.9251	1147.1097	10516.75	9631.45
863.07	1149.0546	10477.15	9593.95
863.2148	1150.9989	10461.6	9577.75
863.3597	1152.9424	10452.8	9569.15
863.5045	1154.8852	10423.7	9538.7
863.6493	1156.8272	10394.9	9513
863.7942	1158.7686	10414.5	9523.4
863.939	1160.7092	10373.05	9486
864.0838	1162.6491	10338.85	9450.2
864.2286	1164.5883	10352.15	9468.85
864.3734	1166.5267	10302.9	9415.5
864.5182	1168.4644	10335.05	9449.85
864.663	1170.4014	10320.5	9430.65
864.8078	1172.3377	10344.25	9458.95
864.9526	1174.2732	10333	9450.25
865.0974	1176.2081	10395.9	9512.3
865.2421	1178.1421	10417.9	9530.4
865.3869	1180.0755	10468.05	9583.75
865.5317	1182.0082	10446.8	9562.25
865.6764	1183.9401	10461.5	9576.25
865.8212	1185.8713	10388.25	9502.2
865.9659	1187.8017	10303.6	9419.95
866.1106	1189.7315	10244.7	9363.1
866.2554	1191.6605	10145	9263.45
866.4001	1193.5888	10063.85	9183.3
866.5448	1195.5163	10010.8	9129.3
866.6895	1197.4432	9970.05	9084.75
866.8342	1199.3693	9947.35	9061.85
866.9789	1201.2947	9909	9016
867.1236	1203.2193	9859.75	8974.95
867.2683	1205.1432	9862.15	8976.25
867.413	1207.0664	9818.7	8934.3
867.5576	1208.9889	9785.65	8898.7
867.7023	1210.9106	9754	8868.45
867.847	1212.8316	9710.65	8829.15
867.9916	1214.7519	9732.95	8839.4
868.1363	1216.6715	9688.85	8803.3
868.2809	1218.5903	9670.1	8787
868.4255	1220.5084	9663.65	8776.65
868.5701	1222.4257	9650.75	8766.5
868.7148	1224.3424	9628.5	8741.75
868.8594	1226.2583	9638.2	8749.05
869.004	1228.1735	9603	8713.65
869.1486	1230.0879	9579.15	8692.15
869.2932	1232.0016	9583.7	8696.45
869.4377	1233.9146	9573.2	8685.35
869.5823	1235.8269	9540.75	8654.95
869.7269	1237.7384	9568.95	8683.75
869.8715	1239.6492	9512.45	8626.75
870.016	1241.5592	9522.1	8636.35
870.1606	1243.4686	9523.3	8636.8
870.3051	1245.3772	9555.95	8673.05
870.4496	1247.285	9562.15	8673.05
870.5941	1249.1922	9566.35	8679.2
870.7387	1251.0986	9618.6	8731.65
870.8832	1253.0042	9618.35	8729.85
871.0277	1254.9092	9670.9	8785.7
871.1722	1256.8134	9684	8799.05
871.3167	1258.7169	9701.85	8814.35
871.4611	1260.6196	9706.3	8821.85
871.6056	1262.5216	9715.9	8830.45
871.7501	1264.4229	9686.85	8801.55
871.8945	1266.3234	9641.2	8755.5
872.039	1268.2232	9636.85	8748.3
872.1834	1270.1223	9581.5	8693.7
872.3278	1272.0207	9563.7	8676.1
872.4723	1273.9183	9536.95	8644.2
872.6167	1275.8151	9498.9	8614.45
872.7611	1277.7113	9518.55	8632.55
872.9055	1279.6067	9529.7	8643.9
873.0499	1281.5014	9589.45	8699.85
873.1943	1283.3953	9680.3	8792.6
873.3386	1285.2885	9770.1	8883.75
873.483	1287.181	9842.5	8956.2
873.6274	1289.0727	9881.55	8996.6
873.7717	1290.9637	9833	8946.25
873.9161	1292.854	9783.15	8897.7
874.0604	1294.7435	9683.45	8797.85
874.2047	1296.6323	9619.8	8731.8
874.349	1298.5204	9574	8684.55
874.4933	1300.4077	9517.9	8631.2
874.6376	1302.2943	9485.35	8597.6
874.7819	1304.1802	9461.4	8573.9
874.9262	1306.0653	9412	8522.55
875.0705	1307.9497	9404.8	8518.8
875.2147	1309.8333	9376.7	8491
875.359	1311.7162	9350.35	8464.05
875.5032	1313.5984	9307.7	8416.9
875.6475	1315.4798	9259.15	8361.15
875.7917	1317.3605	9255.3	8351.35
875.9359	1319.2405	9273.2	8384.5
876.0801	1321.1197	9210.45	8318.05
876.2243	1322.9982	9189.2	8297.25
876.3685	1324.876	9140.85	8254.9
876.5127	1326.753	9062.4	8175
876.6569	1328.6293	9018.25	8129.15
876.801	1330.5048	8974.35	8086.2
876.9452	1332.3796	8897.35	8009.75
877.0893	1334.2537	8888.95	7977.1
877.2335	1336.127	8863.5	7973.35
877.3776	1337.9996	8827.35	7939.1
877.5217	1339.8714	8771.95	7882.45
877.6658	1341.7426	8801.3	7871.7
877.8099	1343.6129	8740.65	7852.85
877.954	1345.4826	8712.05	7826.9
878.0981	1347.3515	8689.4	7798.9
878.2422	1349.2196	8668.25	7778.05
878.3862	1351.087	8697.25	7811.6
878.5303	1352.9537	8669.55	7779.95
878.6743	1354.8197	8675	7785.9
878.8184	1356.6849	8671.55	7782.45
878.9624	1358.5493	8669.6	7780.9
879.1064	1360.4131	8660.25	7771.5
879.2504	1362.276	8632.45	7743.1
879.3944	1364.1383	8662.65	7775.4
879.5384	1365.9998	8625.7	7733
879.6823	1367.8606	8603.7	7716.9
879.8263	1369.7206	8574.45	7685.45
879.9702	1371.5799	8555.15	7664.2
880.1142	1373.4384	8562.8	7675.3
880.2581	1375.2962	8525.75	7637.95
880.402	1377.1533	8442.4	7554.7
880.5459	1379.0096	8409.3	7521.1
880.6898	1380.8652	8363.6	7476.15
880.8337	1382.7201	8329.9	7444.05
880.9776	1384.5742	8278.2	7390.35
881.1215	1386.4275	8246.75	7357.65
881.2653	1388.2802	8198.15	7309.85
881.4092	1390.132	8154.75	7265.7
881.553	1391.9832	8174.25	7284.5
881.6968	1393.8336	8107.75	7219.85
881.8406	1395.6832	8080.95	7190.6
881.9844	1397.5322	8053.5	7166.4
882.1282	1399.3803	8015.2	7124.55
882.272	1401.2278	7991.8	7101.25
882.4158	1403.0745	7972.65	7084.65
882.5595	1404.9204	7924.1	7035.95
882.7033	1406.7656	7911.75	7024.95
882.847	1408.6101	7892	7003.35
882.9908	1410.4538	7852.45	6965.3
883.1345	1412.2968	7860	6971.5
883.2782	1414.139	7822.1	6934.75
883.4219	1415.9805	7822.05	6933.75
883.5656	1417.8213	7796.05	6902.7
883.7092	1419.6613	7766.2	6878.85
883.8529	1421.5006	7763.3	6873.3
883.9965	1423.3391	7755.35	6868.7
884.1402	1425.1769	7763.3	6872.9
884.2838	1427.0139	7778.65	6889.85
884.4274	1428.8502	7831	6943.5
884.571	1430.6858	7857.95	6969.1
884.7146	1432.5206	7854.05	6963.9
884.8582	1434.3547	7831.35	6942.4
885.0018	1436.188	7824.2	6937.5
885.1453	1438.0206	7797	6908.85
885.2889	1439.8524	7738.2	6848.9
885.4324	1441.6835	7775.55	6886.05
885.5759	1443.5139	7743.6	6852.75
885.7194	1445.3435	7723.45	6835.65
885.8629	1447.1724	7732.25	6845.95
886.0064	1449.0005	7716.1	6828.35
886.1499	1450.8279	7695.45	6805.3
886.2933	1452.6545	7662.3	6773.45
886.4368	1454.4804	7647.5	6760.75
886.5802	1456.3056	7657.05	6761.8
886.7237	1458.13	7626.7	6737.8
886.8671	1459.9536	7615.05	6726.2
887.0105	1461.7766	7572.5	6685.95
887.1539	1463.5987	7520.35	6629.4
887.2972	1465.4202	7497.95	6608.75
887.4406	1467.2409	7441.55	6552.85
887.584	1469.0608	7433.6	6547.85
887.7273	1470.88	7401.5	6512
887.8706	1472.6984	7389	6502.15
888.0139	1474.5161	7338.3	6449.05
888.1572	1476.3331	7299.8	6411.9
888.3005	1478.1493	7308.05	6417.5
888.4438	1479.9648	7284.3	6396.65
888.5871	1481.7795	7269.85	6382.45
888.7303	1483.5935	7264.55	6377.35
888.8736	1485.4067	7237.85	6349.6
889.0168	1487.2192	7231.15	6341.1
889.16	1489.031	7230.7	6339.7
889.3032	1490.842	7213.1	6325.2
889.4464	1492.6522	7194.65	6307.95
889.5896	1494.4618	7177.55	6288.45
889.7327	1496.2705	7157	6268.15
889.8759	1498.0785	7133.9	6244.95
890.019	1499.8858	7104.7	6214.2
890.1622	1501.6924	7092.75	6204.9
890.3053	1503.4981	7084.3	6196.65
890.4484	1505.3032	7046.6	6157.35
890.5914	1507.1075	7040.3	6152.45
890.7345	1508.911	7021.25	6133.75
890.8776	1510.7138	7011.3	6122
891.0206	1512.5159	6973.25	6086.2
891.1637	1514.3172	6978.1	6089
891.3067	1516.1178	6925.75	6038.85
891.4497	1517.9176	6915.6	6026.65
891.5927	1519.7166	6906.7	6018.55
891.7357	1521.515	6874.05	5981.75
891.8786	1523.3126	6852.55	5965.55
892.0216	1525.1094	6827.15	5939.55
892.1645	1526.9055	6793.15	5905.1
892.3074	1528.7008	6749.95	5862.4
892.4503	1530.4954	6747.55	5857.8
892.5932	1532.2893	6731.65	5845.6
892.7361	1534.0824	6672.4	5782.55
892.879	1535.8747	6670.6	5784
893.0218	1537.6663	6654.55	5768.95
893.1647	1539.4572	6656.7	5767.45
893.3075	1541.2473	6618.55	5729.5
893.4503	1543.0367	6612.8	5727.05
893.5931	1544.8253	6562.85	5670.25
893.7359	1546.6132	6558.3	5669
893.8787	1548.4003	6534.85	5639.35
894.0214	1550.1867	6519.3	5623.45
894.1642	1551.9723	6517.45	5625.45
894.3069	1553.7572	6499.05	5611.1
894.4496	1555.5414	6504.9	5616.4
894.5923	1557.3247	6491.45	5604.85
894.735	1559.1074	6458.35	5572.65
894.8777	1560.8893	6488.15	5603.05
895.0204	1562.6705	6460.4	5573.65
895.163	1564.4509	6482.7	5598.3
895.3056	1566.2305	6434.4	5548.6
895.4482	1568.0094	6464.85	5580.45
895.5908	1569.7876	6451	5564.75
895.7334	1571.565	6424.2	5538.35
895.876	1573.3417	6395.9	5511.45
896.0186	1575.1176	6372.6	5486.95
896.1611	1576.8928	6370.55	5483.75
896.3036	1578.6672	6385.85	5501.3
896.4461	1580.4409	6343.45	5461.85
896.5886	1582.2138	6345.2	5457.05
896.7311	1583.986	6331.25	5444.8
896.8736	1585.7575	6337.65	5454.2
897.0161	1587.5282	6336.35	5454.45
897.1585	1589.2981	6365.45	5482.95
897.3009	1591.0673	6339.45	5456
897.4433	1592.8358	6331.25	5448.55
897.5857	1594.6035	6317.05	5429.15
897.7281	1596.3704	6290.35	5406.95
897.8705	1598.1366	6250	5364.6
898.0128	1599.9021	6226.8	5342.2
898.1551	1601.6668	6198.85	5311.45
898.2975	1603.4308	6149.75	5262.55
898.4398	1605.194	6146.9	5255.9
898.5821	1606.9564	6122.35	5238.7
898.7243	1608.7182	6151.9	5265
898.8666	1610.4791	6177.8	5296.4
899.0088	1612.2394	6209.55	5328.5
899.1511	1613.9988	6263.25	5379.65
899.2933	1615.7576	6286.1	5403.35
899.4355	1617.5156	6280.05	5389.7
899.5776	1619.2728	6262.4	5376.9
899.7198	1621.0293	6186.6	5305.6
899.862	1622.785	6134.2	5246.5
900.0041	1624.54	6014.8	5128.35
900.1462	1626.2942	5934.5	5049.45
900.2883	1628.0477	5846.8	4960
900.4304	1629.8005	5796.95	4909.95
900.5725	1631.5525	5725.95	4841
900.7145	1633.3037	5692.9	4808.95
900.8566	1635.0542	5655.2	4771.6
900.9986	1636.804	5611.5	4727.7
901.1406	1638.553	5656.05	4685.4
901.2826	1640.3013	5539.3	4654.95
901.4245	1642.0488	5516.95	4630.65
901.5665	1643.7955	5506.45	4623.5
901.7085	1645.5416	5459.55	4577.75
901.8504	1647.2868	5450.1	4568.7
901.9923	1649.0313	5430.65	4545.7
902.1342	1650.7751	5412.05	4524.5
902.2761	1652.5181	5401.5	4519.5
902.4179	1654.2604	5374.5	4489.85
902.5598	1656.0019	5351.8	4469.05
902.7016	1657.7427	5342.1	4457.5
902.8434	1659.4828	5346.25	4461.4
902.9852	1661.222	5329.15	4444.2
903.127	1662.9606	5337.3	4456.25
903.2687	1664.6984	5352.95	4468.7
903.4105	1666.4354	5358.65	4471.9
903.5522	1668.1717	5315.5	4430.35
903.6939	1669.9072	5264.55	4380.6
903.8356	1671.642	5232.55	4346.25
903.9773	1673.3761	5189.8	4305.55
904.119	1675.1094	5153.6	4269.55
904.2606	1676.8419	5124	4241.6
904.4022	1678.5737	5100.65	4213.05
904.5439	1680.3048	5063.35	4178.2
904.6855	1682.0351	5042.6	4156.75
904.827	1683.7646	5024.3	4135.85
904.9686	1685.4934	4991.6	4108.05
905.1101	1687.2215	4977.05	4090.95
905.2517	1688.9488	4947.4	4062.35
905.3932	1690.6754	4921.65	4039.1
905.5347	1692.4012	4902.65	4017.15
905.6761	1694.1263	4878.55	3994.15
905.8176	1695.8506	4876.2	3992.1
905.9591	1697.5742	4841.75	3959.85
906.1005	1699.297	4842.7	3958
906.2419	1701.0191	4826.45	3941.85
906.3833	1702.7404	4808.35	3924.55
906.5246	1704.461	4773	3887.15
906.666	1706.1808	4756	3872.7
906.8073	1707.8999	4738.55	3854.95
906.9487	1709.6182	4733.75	3851.45
907.09	1711.3358	4720.55	3838.25
907.2313	1713.0527	4698	3817.55
907.3725	1714.7688	4696.75	3807.45
907.5138	1716.4841	4674.7	3788.5
907.655	1718.1987	4664.05	3776.25
907.7962	1719.9126	4658.3	3775.95
907.9374	1721.6257	4651	3763.25
908.0786	1723.338	4622.3	3739.35
908.2198	1725.0496	4603.9	3719.6
908.3609	1726.7605	4616.25	3731.7
908.502	1728.4706	4603.2	3720.7
908.6431	1730.18	4593.6	3706.35
908.7842	1731.8886	4570.35	3687.85
908.9253	1733.5964	4562.15	3674.55
909.0664	1735.3036	4555.7	3671.05
909.2074	1737.0099	4561.1	3678.55
909.3484	1738.7156	4557.3	3673.45
909.4894	1740.4204	4550.15	3664.3
909.6304	1742.1246	4533.7	3648.5
909.7714	1743.8279	4530.05	3648.4
909.9123	1745.5306	4531.35	3646.55
910.0532	1747.2325	4517.8	3634.65
910.1941	1748.9336	4501.75	3617.5
910.335	1750.634	4498.85	3614.2
910.4759	1752.3336	4490.5	3609.25
910.6168	1754.0325	4481.4	3599.4
910.7576	1755.7307	4477.6	3594.5
910.8984	1757.4281	4481.7	3598.8
911.0392	1759.1247	4485.55	3592.8
911.18	1760.8206	4460.35	3572.4
911.3208	1762.5158	4481.4	3592
911.4615	1764.2102	4458.4	3574.25
911.6022	1765.9039	4423.55	3539.3
911.7429	1767.5968	4431.3	3547.7
911.8836	1769.289	4410.35	3529.25
912.0243	1770.9804	4390.6	3505.15
912.1649	1772.6711	4407.6	3525.1
912.3056	1774.361	4388.15	3503.5
912.4462	1776.0502	4387.6	3503.1
912.5868	1777.7386	4391.95	3506.55
912.7274	1779.4263	4366.55	3483.75
912.8679	1781.1132	4367.55	3486.15
913.0084	1782.7994	4347.15	3462.75
913.149	1784.4849	4338.45	3456.7
913.2895	1786.1696	4336.8	3435.75
913.4299	1787.8535	4320.25	3437.25
913.5704	1789.5367	4312.65	3429.55
913.7108	1791.2192	4300.75	3417
913.8513	1792.9009	4325.4	3411.6
913.9917	1794.5818	4294.55	3410.5
914.132	1796.2621	4284.25	3403.1
914.2724	1797.9415	4270.7	3385.5
914.4128	1799.6202	4255.75	3370.15
914.5531	1801.2982	4248.9	3364.2
914.6934	1802.9755	4239.45	3354.4
914.8337	1804.6519	4230.05	3344.55
914.9739	1806.3277	4213.75	3331.85
915.1142	1808.0027	4213.8	3332.35
915.2544	1809.6769	4209.8	3326.4
915.3946	1811.3504	4179.35	3295.1
915.5348	1813.0231	4184.25	3300.65
915.675	1814.6951	4194.75	3314.2
915.8151	1816.3664	4189.4	3302.8
915.9553	1818.0369	4174.55	3293.1
916.0954	1819.7067	4159	3275.65
916.2355	1821.3757	4142.35	3254.55
916.3755	1823.044	4136.45	3252.4
916.5156	1824.7115	4144.4	3261.3
916.6556	1826.3783	4120.6	3238.65
916.7956	1828.0443	4113.05	3229.5
916.9356	1829.7096	4104.45	3218.75
917.0756	1831.3741	4109.05	3222.85
917.2155	1833.0379	4089.25	3205.6
917.3555	1834.701	4083.2	3198.05
917.4954	1836.3633	4073.05	3188.5
917.6353	1838.0248	4063.45	3178.65
917.7751	1839.6856	4051.5	3166.85
917.915	1841.3457	4059.4	3178.75
918.0548	1843.005	4060.9	3178.5
918.1946	1844.6636	4048.75	3168.85
918.3344	1846.3214	4035.1	3151.4
918.4742	1847.9785	4031.45	3149.85
918.6139	1849.6349	4012.9	3128.35
918.7537	1851.2904	3997.9	3104.9
918.8934	1852.9453	3999.45	3115.35
919.0331	1854.5994	4000.95	3113.45
919.1727	1856.2528	3995.35	3104.95
919.3124	1857.9054	3971.6	3086.55
919.452	1859.5572	3964.8	3081.2
919.5916	1861.2083	3966.5	3080.95
919.7312	1862.8587	3963.7	3079.7
919.8708	1864.5084	3952.1	3068.7
920.0103	1866.1572	3944.4	3059.05
920.1498	1867.8054	3938.65	3053.1
920.2893	1869.4528	3925.25	3041.1
920.4288	1871.0994	3911.5	3027
920.5683	1872.7453	3912.4	3028.05
920.7077	1874.3905	3911.85	3019.95
920.8471	1876.0349	3908.2	3022.9
920.9865	1877.6786	3902.9	3017
921.1259	1879.3215	3896.5	3013.5
921.2653	1880.9637	3888.4	3003.4
921.4046	1882.6051	3873.25	2990
921.5439	1884.2458	3877.15	2991.9
921.6832	1885.8858	3863.75	2978.9
921.8225	1887.525	3865.1	2980.4
921.9617	1889.1634	3851.05	2968.15
922.101	1890.8011	3825.45	2941.15
922.2402	1892.4381	3814.25	2930.45
922.3794	1894.0743	3814.8	2932.5
922.5185	1895.7098	3812.15	2925.95
922.6577	1897.3446	3803.55	2917.25
922.7968	1898.9786	3805.15	2916.45
922.9359	1900.6118	3797	2914.3
923.075	1902.2443	3796.1	2909.45
923.214	1903.8761	3776.6	2894.35
923.3531	1905.5071	3759.45	2874.95
923.4921	1907.1374	3750.55	2867.85
923.6311	1908.7669	3750.45	2866.65
923.77	1910.3957	3745.15	2861.65
923.909	1912.0237	3725.15	2840.3
924.0479	1913.651	3721.6	2837.4
924.1868	1915.2776	3729.9	2847.2
924.3257	1916.9034	3718.5	2838.95
924.4646	1918.5285	3682.25	2799.55
924.6034	1920.1528	3682.2	2800.35
924.7422	1921.7764	3683.6	2801.3
924.881	1923.3992	3661.9	2779.85
925.0198	1925.0213	3663.35	2776.7
925.1586	1926.6427	3644.25	2762.7
925.2973	1928.2633	3815.5	2722.3
925.436	1929.8832	3665.35	2777.35
925.5747	1931.5023	3619.7	2736.7
925.7134	1933.1207	3603.7	2719.55
925.852	1934.7383	3608.2	2726.2
925.9906	1936.3552	3598.3	2714.95
926.1292	1937.9714	3591.05	2707.75
926.2678	1939.5868	3584.6	2699.85
926.4064	1941.2015	3570.8	2686.95
926.5449	1942.8154	3562.35	2676.5
926.6834	1944.4286	3552.2	2667
926.8219	1946.041	3566.25	2659.8
926.9604	1947.6528	3545.1	2656.4
927.0988	1949.2637	3531.3	2649.8
927.2372	1950.8739	3521.2	2638.55
927.3756	1952.4834	3518.2	2633.45
927.514	1954.0921	3524.2	2638.9
927.6523	1955.7001	3504.05	2615.6
927.7907	1957.3074	3495.35	2613.2
927.929	1958.9139	3479.15	2594.7
928.0673	1960.5197	3480.3	2595.9
928.2055	1962.1247	3466.45	2582.25
928.3438	1963.729	3462.15	2582.85
928.482	1965.3325	3481.65	2575.2
928.6202	1966.9353	3454.4	2572.8
928.7584	1968.5374	3429.9	2549.3
928.8965	1970.1387	3429.8	2546.35
929.0346	1971.7393	3432.3	2549.4
929.1727	1973.3392	3412.2	2529
929.3108	1974.9383	3391.95	2511.65
929.4489	1976.5366	3393.85	2511.65
929.5869	1978.1342	3392.3	2509.35
929.7249	1979.7311	3397.15	2515.3
929.8629	1981.3273	3382.9	2501.35
930.0009	1982.9227	3372.5	2489.75
930.1388	1984.5173	3368.3	2486.65
930.2767	1986.1112	3356	2474.35
930.4146	1987.7044	3353.35	2471.25
930.5525	1989.2968	3349.75	2467.85
930.6904	1990.8885	3350.1	2463.85
930.8282	1992.4795	3340.3	2457.6
930.966	1994.0697	3331.1	2451.6
931.1038	1995.6592	3334.65	2452.4
931.2415	1997.2479	3325.35	2445
931.3793	1998.8359	3316.15	2434.1
931.517	2000.4232	3305.65	2426.35
931.6547	2002.0097	3314.8	2432.75
931.7923	2003.5955	3291	2411.4
931.93	2005.1805	3278.95	2398.1
932.0676	2006.7648	3281.05	2399.8
932.2052	2008.3484	3272.9	2390.45
932.3427	2009.9312	3285.35	2401.75
932.4803	2011.5133	3264.85	2384.6
932.6178	2013.0946	3266.4	2386.15
932.7553	2014.6752	3263.95	2384.15
932.8928	2016.2551	3249.8	2368.3
933.0302	2017.8342	3233.15	2354.45
933.1676	2019.4126	3238.2	2358.7
933.305	2020.9902	3239	2357.5
933.4424	2022.5672	3226	2344.45
933.5798	2024.1433	3230.3	2343.6
933.7171	2025.7188	3219.4	2340.6
933.8544	2027.2935	3215.05	2335.05
933.9917	2028.8674	3202.3	2323.25
934.129	2030.4406	3206.75	2327.45
934.2662	2032.0131	3187.25	2308.95
934.4034	2033.5849	3192.35	2309.35
934.5406	2035.1559	3180.05	2299.95
934.6778	2036.7261	3185.65	2306.4
934.8149	2038.2957	3176.15	2293.5
934.952	2039.8645	3171.75	2288.45
935.0891	2041.4325	3181	2297.1
935.2262	2042.9998	3170.1	2288.65
935.3632	2044.5664	3166.9	2285.65
935.5002	2046.1323	3160.25	2280.15
935.6372	2047.6974	3141.65	2261.1
935.7742	2049.2617	3153.6	2275.4
935.9111	2050.8254	3158.85	2274.05
936.048	2052.3883	3143.9	2261.4
936.1849	2053.9504	3150.2	2270.25
936.3218	2055.5118	3144.55	2262.55
936.4586	2057.0725	3141.2	2257.4
936.5955	2058.6325	3130.05	2249
936.7323	2060.1917	3118.95	2239.6
936.869	2061.7502	3132.75	2251.5
937.0058	2063.3079	3115.2	2235.95
937.1425	2064.8649	3109.95	2228.6
937.2792	2066.4212	3111.55	2230.2
937.4159	2067.9767	3116.25	2237.5
937.5525	2069.5315	3105.45	2224.95
937.6891	2071.0856	3093.65	2214.05
937.8257	2072.6389	3083.3	2202.65
937.9623	2074.1915	3067.65	2187.7
938.0989	2075.7433	3072.05	2189.9
938.2354	2077.2945	3080.3	2200.85
938.3719	2078.8448	3062.75	2181.55
938.5084	2080.3945	3052	2171.3
938.6448	2081.9434	3064.5	2184.6
938.7812	2083.4916	3043.4	2161.8
938.9176	2085.039	3042.35	2159.1
939.054	2086.5857	3039.05	2155.85
939.1903	2088.1317	3037.3	2156.75
939.3267	2089.677	3038	2154.5
939.463	2091.2215	3025.05	2143.55
939.5992	2092.7652	3023.25	2139.85
939.7355	2094.3083	3025	2143.8
939.8717	2095.8506	3037.6	2158.25
940.0079	2097.3921	3014.9	2132.6
940.1441	2098.933	3014.4	2134
940.2802	2100.4731	3023.25	2143.75
940.4163	2102.0124	3031.15	2133.75
940.5524	2103.5511	3015.55	2135.2
940.6885	2105.089	3021.05	2138.95
940.8245	2106.6261	3000.9	2121.7
940.9606	2108.1626	3005.25	2124.1
941.0965	2109.6983	3013.45	2102.8
941.2325	2111.2332	2996.4	2115.95
941.3684	2112.7675	2984.9	2102.85
941.5044	2114.301	2986.25	2103.45
941.6403	2115.8337	2985.55	2104.85
941.7761	2117.3657	2985.25	2103.9
941.912	2118.897	2978.2	2097.15
942.0478	2120.4276	2974.35	2085.7
942.1835	2121.9575	2952.4	2070.5
942.3193	2123.4866	2959.75	2075.4
942.455	2125.0149	2962.45	2077.4
942.5907	2126.5426	2952	2072.1
942.7264	2128.0695	2956.9	2073.85
942.8621	2129.5956	2944.45	2066.15
942.9977	2131.1211	2938.8	2054.4
943.1333	2132.6458	2936.25	2056
943.2689	2134.1698	2942.6	2062
943.4044	2135.693	2930.7	2046.15
943.54	2137.2155	2929.9	2046.25
943.6755	2138.7373	2924.5	2043.6
943.8109	2140.2584	2917.4	2036.95
943.9464	2141.7787	2912.8	2027.55
944.0818	2143.2983	2895.3	2015.9
944.2172	2144.8171	2898.6	2020.2
944.3526	2146.3353	2891.85	2010.8
944.4879	2147.8527	2884.6	2004.4
944.6232	2149.3693	2885.15	2003.75
944.7585	2150.8853	2884.15	2003.95
944.8938	2152.4005	2867.3	1988.5
945.029	2153.9149	2871.45	1989.1
945.1642	2155.4287	2860.75	1979.75
945.2994	2156.9417	2874.55	1991.55
945.4346	2158.454	2858.35	1973.85
945.5697	2159.9655	2855.35	1974.95
945.7048	2161.4764	2857.25	1976
945.8399	2162.9865	2841.75	1960
945.9749	2164.4958	2845.15	1965.55
946.1099	2166.0045	2834.7	1953.05
946.2449	2167.5124	2832.25	1952.5
946.3799	2169.0195	2828.25	1949.7
946.5148	2170.526	2826.55	1944.1
946.6498	2172.0317	2820.65	1938.45
946.7846	2173.5367	2807.45	1926.55
946.9195	2175.0409	2810.45	1929.75
947.0543	2176.5445	2811.75	1931.25
947.1891	2178.0473	2795.05	1915.65
947.3239	2179.5494	2802.95	1918.95
947.4587	2181.0507	2811.35	1932.05
947.5934	2182.5513	2795.3	1914.3
947.7281	2184.0512	2776.15	1894.65
947.8628	2185.5504	2774.5	1894.05
947.9974	2187.0488	2767.65	1887.35
948.132	2188.5465	2765.2	1884.05
948.2666	2190.0435	2760.55	1878.75
948.4012	2191.5397	2755.65	1874.6
948.5357	2193.0353	2748.9	1867.8
948.6702	2194.5301	2741.85	1860.75
948.8047	2196.0241	2739.05	1857.55
948.9392	2197.5175	2733.35	1848.8
949.0736	2199.0101	2724.6	1840.35
949.208	2200.502	2722.15	1840.55
949.3424	2201.9931	2720.1	1839
949.4767	2203.4835	2700.8	1818.25
949.611	2204.9733	2708.4	1822.55
949.7453	2206.4622	2700.9	1822.3
949.8796	2207.9505	2693.15	1813.55
950.0138	2209.438	2681.85	1803.15
950.148	2210.9248	2684.3	1800.95
950.2822	2212.4109	2669.7	1788.6
950.4164	2213.8962	2672.65	1789.25
950.5505	2215.3809	2660.35	1776.65
950.6846	2216.8648	2664.8	1783.75
950.8186	2218.3479	2661.1	1773.2
950.9527	2219.8304	2653.45	1770.05
951.0867	2221.3121	2646.75	1761.85
951.2207	2222.7931	2638.3	1758.75
951.3546	2224.2733	2627.8	1745.5
951.4886	2225.7529	2631.55	1749.4
951.6225	2227.2317	2611.45	1727.8
951.7563	2228.7098	2619.95	1738.7
951.8902	2230.1872	2602.5	1724.1
952.024	2231.6638	2612.2	1733.2
952.1578	2233.1397	2607.65	1721.4
952.2916	2234.6149	2586.3	1706.95
952.4253	2236.0894	2584.5	1703.45
952.559	2237.5632	2595.15	1706.65
952.6927	2239.0362	2577.2	1696.3
952.8263	2240.5085	2564.7	1683.35
952.9599	2241.9801	2552	1669.4
953.0935	2243.4509	2571.5	1689
953.2271	2244.921	2559.65	1680.15
953.3606	2246.3904	2551.3	1667.55
953.4941	2247.8591	2544.55	1663.95
953.6276	2249.3271	2537.8	1656.65
953.7611	2250.7943	2538	1655.95
953.8945	2252.2608	2534.9	1654.25
954.0279	2253.7266	2520.1	1640.05
954.1612	2255.1917	2518	1636.1
954.2946	2256.656	2517.2	1636.1
954.4279	2258.1197	2506.35	1627.65
954.5612	2259.5826	2511.15	1629.55
954.6944	2261.0447	2511.35	1628.75
954.8276	2262.5062	2498.95	1615.75
954.9608	2263.9669	2495.05	1612.5
955.094	2265.4269	2493.05	1611.55
955.2271	2266.8862	2482.05	1601.6
955.3602	2268.3448	2487.9	1608.8
955.4933	2269.8026	2475.4	1593.85
955.6264	2271.2598	2455.5	1575.05
955.7594	2272.7162	2467.8	1586.65
955.8924	2274.1719	2457.15	1575.8
956.0253	2275.6268	2456.3	1576.35
956.1583	2277.0811	2450.9	1568.75
956.2912	2278.5346	2447.3	1566.35
956.4241	2279.9874	2450.65	1569
956.5569	2281.4395	2444.05	1563.7
956.6897	2282.8908	2436.05	1552.15
956.8225	2284.3414	2441	1558.75
956.9553	2285.7914	2436.9	1556.15
957.088	2287.2406	2447.2	1566.4
957.2207	2288.689	2431.8	1549.2
957.3534	2290.1368	2410.75	1530.15
957.486	2291.5838	2415.2	1528.95
957.6186	2293.0302	2410.7	1526.35
957.7512	2294.4758	2403.8	1521.3
957.8838	2295.9206	2402.5	1517.8
958.0163	2297.3648	2398.8	1517.6
958.1488	2298.8082	2396.35	1515.7
958.2813	2300.251	2381.75	1500.4
958.4137	2301.693	2377.2	1494.1
958.5461	2303.1343	2380.15	1497.75
958.6785	2304.5748	2375.35	1495.75
958.8108	2306.0147	2370.3	1487.05
958.9432	2307.4538	2361.75	1478.45
959.0754	2308.8922	2360.6	1479.9
959.2077	2310.3299	2351.55	1470.5
959.3399	2311.7669	2360.85	1478.9
959.4721	2313.2031	2351.05	1470
959.6043	2314.6387	2331.95	1451.1
959.7365	2316.0735	2329.55	1449.05
959.8686	2317.5076	2330.35	1447.45
960.0006	2318.941	2326.25	1447.25
960.1327	2320.3737	2326.9	1445.65
960.2647	2321.8056	2329.7	1445.35
960.3967	2323.2369	2310.4	1428.7
960.5287	2324.6674	2312.55	1430.05
960.6606	2326.0972	2317.15	1434.8
960.7925	2327.5263	2311.8	1429.9
960.9244	2328.9547	2300.9	1418.5
961.0562	2330.3823	2302.5	1419.55
961.1881	2331.8092	2290.45	1405
961.3198	2333.2355	2279.6	1398.2
961.4516	2334.661	2282.8	1401.75
961.5833	2336.0858	2287.8	1405.1
961.715	2337.5098	2269.05	1388.3
961.8467	2338.9332	2269.6	1388.7
961.9783	2340.3558	2276.95	1392.6
962.1099	2341.7778	2274.6	1394.75
962.2415	2343.199	2260.65	1376.85
962.373	2344.6195	2246.9	1366.85
962.5045	2346.0393	2243.15	1360.7
962.636	2347.4583	2251.6	1369.6
962.7675	2348.8767	2234.15	1350.55
962.8989	2350.2943	2229.4	1346.85
963.0303	2351.7113	2238.2	1356.5
963.1617	2353.1275	2227	1344.15
963.293	2354.543	2229.05	1337.45
963.4243	2355.9578	2214.05	1333.45
963.5556	2357.3718	2211.15	1328.65
963.6868	2358.7852	2208.7	1323.45
963.818	2360.1978	2200.85	1317.3
963.9492	2361.6098	2185.95	1304.95
964.0803	2363.021	2189.45	1301.6
964.2114	2364.4315	2177.45	1295.8
964.3425	2365.8413	2173.35	1290.2
964.4736	2367.2504	2181.45	1299.95
964.6046	2368.6587	2155.1	1275.05
964.7356	2370.0664	2156.8	1274.05
964.8666	2371.4733	2158.8	1276.25
964.9975	2372.8795	2157.3	1276.75
965.1284	2374.285	2156.35	1275.05
965.2593	2375.6899	2136.15	1256.75
965.3901	2377.0939	2140.95	1259.85
965.5209	2378.4973	2130.7	1247.45
965.6517	2379.9	2128.7	1246.15
965.7825	2381.3019	2121.35	1237.8
965.9132	2382.7032	2113.55	1233.7
966.0439	2384.1037	2106.95	1224.8
966.1745	2385.5035	2101.05	1217.8
966.3051	2386.9027	2099.8	1218.2
966.4357	2388.3011	2105.55	1220.7
966.5663	2389.6987	2094.45	1212.5
966.6968	2391.0957	2082.65	1200.9
966.8273	2392.492	2075.1	1194.6
966.9578	2393.8876	2065.55	1182
967.0882	2395.2824	2064.05	1181.05
967.2186	2396.6765	2051.7	1168.75
967.349	2398.07	2062.45	1181
967.4793	2399.4627	2063.65	1178.15
967.6097	2400.8547	2050.95	1166.35
967.7399	2402.246	2049.25	1161.1
967.8702	2403.6366	2039.95	1155.7
968.0004	2405.0265	2041.55	1158
968.1306	2406.4156	2037.15	1150.75
968.2607	2407.8041	2020.3	1132.95
968.3909	2409.1918	2022.25	1136.95
968.521	2410.5789	2014.25	1132.15
968.651	2411.9652	2020.35	1135.8
968.781	2413.3508	2007	1124.9
968.911	2414.7358	2009.8	1126.7
969.041	2416.12	2004.2	1121.4
969.1709	2417.5035	1996.05	1113.8
969.3008	2418.8863	1981.4	1099.6
969.4307	2420.2684	1981.85	1097.85
969.5606	2421.6497	1984.15	1100.35
969.6904	2423.0304	1979	1096.55
969.8201	2424.4104	1973.2	1091.35
969.9499	2425.7896	1978.9	1095.3
970.0796	2427.1682	1968	1086
970.2093	2428.546	1969.95	1087.2
970.3389	2429.9232	1960.45	1076.25
970.4685	2431.2996	1954.6	1071.8
970.5981	2432.6753	1944.3	1062
970.7277	2434.0503	1945.7	1061.7
970.8572	2435.4246	1954.85	1074.5
970.9867	2436.7982	1946	1061.1
971.1161	2438.1711	1933.9	1052.6
971.2456	2439.5433	1936.6	1053
971.375	2440.9148	1937.3	1049
971.5043	2442.2856	1932.8	1050.35
971.6336	2443.6557	1927.45	1044.15
971.7629	2445.025	1923.9	1042.3
971.8922	2446.3937	1927.95	1045.65
972.0214	2447.7617	1915.25	1032.15
972.1506	2449.1289	1909.4	1026.95
972.2798	2450.4955	1904.7	1019.15
972.4089	2451.8613	1893.4	1012.6
972.538	2453.2265	1907.2	1024.7
972.6671	2454.5909	1894.75	1010.3
972.7961	2455.9546	1890	1008.2
972.9251	2457.3177	1890.35	1008.75
973.0541	2458.68	1885.5	1001.45
973.1831	2460.0416	1885.25	1003.25
973.312	2461.4025	1889.45	1004.4
973.4408	2462.7627	1890.65	998
973.5697	2464.1222	1874.2	993.3
973.6985	2465.4811	1872.7	990.3
973.8273	2466.8392	1873.95	994.35
973.956	2468.1966	1874.15	988.5
974.0847	2469.5533	1862.05	979.1
974.2134	2470.9093	1866.7	984.45
974.3421	2472.2645	1855.55	969.45
974.4707	2473.6191	1851.7	969.25
974.5993	2474.973	1846.7	964.5
974.7278	2476.3262	1845.35	961.55
974.8563	2477.6787	1847.5	967.85
974.9848	2479.0305	1841.85	959.45
975.1132	2480.3816	1840.5	958.05
975.2417	2481.7319	1833.75	951.25
975.37	2483.0816	1816.3	932.8
975.4984	2484.4306	1819.4	936.35
975.6267	2485.7789	1820.25	938.4
975.755	2487.1264	1818.3	937.35
975.8833	2488.4733	1806.05	924.25
976.0115	2489.8195	1818.25	927.95
976.1397	2491.165	1810.8	925.05
976.2678	2492.5097	1795.75	911.95
976.3959	2493.8538	1800.9	921.05
976.524	2495.1972	1791.2	907.6
976.6521	2496.5398	1789	906.2
976.7801	2497.8818	1787.5	902.45
976.9081	2499.2231	1792.7	910.6
977.036	2500.5637	1784.6	898.95
977.164	2501.9035	1781.8	897.35
977.2918	2503.2427	1778.15	890.8
977.4197	2504.5812	1763.2	882.95
977.5475	2505.919	1769.5	884.25
977.6753	2507.256	1766.85	883.35
977.8031	2508.5924	1766.5	883
977.9308	2509.9281	1765.6	877.05
978.0585	2511.2631	1747.55	867
978.1861	2512.5974	1754.65	870.6
978.3137	2513.9309	1748.75	868.15
978.4413	2515.2638	1773.05	857.4
978.5689	2516.596	1747.45	864.4
978.6964	2517.9275	1747.8	862
978.8239	2519.2583	1744.6	862.7
978.9513	2520.5884	1730.25	846.7
979.0788	2521.9178	1730.15	848.6
979.2062	2523.2465	1726.55	844.6
979.3335	2524.5745	1718	837.9
979.4608	2525.9018	1719.6	837
979.5881	2527.2284	1716.1	835.85
979.7154	2528.5543	1711.95	830
979.8426	2529.8796	1715.35	831
979.9698	2531.2041	1709.8	828
980.0969	2532.5279	1698.1	816.45
980.224	2533.851	1703.35	822.25
980.3511	2535.1735	1691	809.8
980.4781	2536.4952	1695.15	813
980.6052	2537.8163	1692.45	810.35
980.7321	2539.1366	1692.5	811.4
980.8591	2540.4562	1688.5	803.55
980.986	2541.7752	1690	807.95
981.1129	2543.0935	1691.1	807.45
981.2397	2544.411	1678.5	794.6
981.3665	2545.7279	1683.15	801.1
981.4933	2547.0441	1677	794.55
981.62	2548.3596	1686.55	803.35
981.7467	2549.6744	1681.1	797.7
981.8734	2550.9885	1676.3	784.95
982.0001	2552.3019	1676	794.3
982.1267	2553.6146	1673.05	789.4
982.2532	2554.9266	1668	784.85
982.3798	2556.2379	1662.15	778.4
982.5063	2557.5485	1652.8	770.75
982.6327	2558.8585	1667.15	778.15
982.7592	2560.1677	1659.1	771.05
982.8856	2561.4762	1651.25	770.05
983.0119	2562.7841	1656.45	771.5
983.1383	2564.0913	1642.9	762.2
983.2646	2565.3977	1645	762.8
983.3908	2566.7035	1645.25	762.75
983.517	2568.0086	1642.65	760.15
983.6432	2569.313	1643.55	761.1
983.7694	2570.6167	1640.15	754.95
983.8955	2571.9197	1640.45	759.65
984.0216	2573.222	1643.55	756.9
984.1476	2574.5236	1634.15	751.6
984.2737	2575.8246	1628.85	744.55
984.3996	2577.1248	1639.35	753.45
984.5256	2578.4244	1628.65	747.55
984.6515	2579.7232	1629.4	746.85
984.7774	2581.0214	1648.3	740.9
984.9032	2582.3189	1627.85	745.25
985.029	2583.6157	1617.3	729.65
985.1548	2584.9118	1614.55	732.5
985.2806	2586.2072	1615.4	732.7
985.4063	2587.5019	1615.55	734.55
985.5319	2588.7959	1613.9	730.5
985.6576	2590.0893	1612.7	728.25
985.7832	2591.3819	1606.65	725.45
985.9087	2592.6739	1604.15	723.35
986.0343	2593.9652	1592	706.8
986.1597	2595.2557	1607.55	725.35
986.2852	2596.5456	1595.15	713
986.4106	2597.8348	1596.05	714.65
986.536	2599.1234	1590.05	708.7
986.6614	2600.4112	1583.65	702
986.7867	2601.6983	1579.45	693.1
986.912	2602.9848	1575.3	693.5
987.0372	2604.2705	1578.6	689.2
987.1624	2605.5556	1576.95	693.3
987.2876	2606.84	1571.8	689.3
987.4128	2608.1237	1562.3	678.15
987.5379	2609.4067	1562.2	679.9
987.6629	2610.689	1569.5	677.9
987.788	2611.9707	1562.3	677.8
987.913	2613.2516	1560.25	672.4
988.0379	2614.5319	1554.35	671.95
988.1629	2615.8115	1543.2	661.45
988.2878	2617.0903	1538.75	654.85
988.4126	2618.3685	1543.25	659.15
988.5375	2619.6461	1533.5	650.25
988.6622	2620.9229	1535.8	655.9
988.787	2622.199	1526.25	641.7
988.9117	2623.4745	1528.35	645.3
989.0364	2624.7493	1533.35	652.5
989.161	2626.0234	1518.9	637.35
989.2857	2627.2968	1516.75	636.65
989.4102	2628.5695	1519.85	635.6
989.5348	2629.8415	1516.35	636.6
989.6593	2631.1128	1509	625.25
989.7837	2632.3835	1499.7	618.65
989.9082	2633.6535	1503	621.1
990.0326	2634.9228	1496.45	614.95
990.1569	2636.1914	1502	621.4
990.2812	2637.4593	1504.95	616.45
990.4055	2638.7265	1499.7	617
990.5298	2639.9931	1494.7	612.4
990.654	2641.259	1497.6	615.4
990.7782	2642.5242	1494.45	613.1
990.9023	2643.7887	1491.3	609.4
991.0264	2645.0525	1484.3	600.05
991.1505	2646.3156	1488.1	604.95
991.2745	2647.5781	1476.4	595.7
991.3985	2648.8398	1471.5	591.15
991.5225	2650.1009	1481.7	591
991.6464	2651.3613	1472.65	588.15
991.7703	2652.6211	1469.15	586.05
991.8942	2653.8801	1457.4	575.9
992.018	2655.1385	1468.5	583.2
992.1418	2656.3961	1467.5	585.5
992.2655	2657.6531	1459.85	577.45
992.3892	2658.9094	1465.1	583.85
992.5129	2660.1651	1453.65	572
992.6366	2661.42	1455.55	573.45
992.7602	2662.6743	1457	573.35
992.8837	2663.9279	1454.3	573.6
993.0073	2665.1808	1452.8	569.3
993.1307	2666.433	1447.6	563.65
993.2542	2667.6846	1444.1	561.85
993.3776	2668.9354	1448.6	563.65
993.501	2670.1856	1446.4	562.95
993.6244	2671.4351	1439.95	556.7
993.7477	2672.6839	1439.5	557.35
993.8709	2673.9321	1440.65	559.55
993.9942	2675.1795	1439.15	557.4
994.1174	2676.4263	1440.15	557.7
994.2405	2677.6724	1433.3	551.9
994.3637	2678.9179	1433.8	551.25
994.4868	2680.1626	1427.7	547.65
994.6098	2681.4067	1427.05	545.6
994.7328	2682.6501	1422.45	541.85
994.8558	2683.8928	1420.6	537.6
994.9788	2685.1348	1412.85	533.05
995.1017	2686.3761	1411.75	527.75
995.2245	2687.6168	1411.25	530.4
995.3474	2688.8568	1422.55	539.9
995.4702	2690.0961	1404.25	522.75
995.5929	2691.3348	1405.35	523.95
995.7156	2692.5727	1405	521.9
995.8383	2693.81	1407.5	525.7
995.961	2695.0466	1397.75	518.8
996.0836	2696.2826	1402.4	520.65
996.2062	2697.5178	1418.7	518.3
996.3287	2698.7524	1400.45	519.2
996.4512	2699.9863	1397.1	515.3
996.5737	2701.2195	1381.35	502.6
996.6961	2702.452	1391.7	505.85
996.8185	2703.6839	1388.25	508
996.9408	2704.9151	1386.15	506.3
997.0631	2706.1456	1382.15	501.6
997.1854	2707.3755	1382	500.05
997.3077	2708.6046	1378.65	494.55
997.4299	2709.8331	1375.2	492.5
997.552	2711.0609	1372.25	490.35
997.6742	2712.2881	1365.2	482.65
997.7963	2713.5145	1374.05	490.3
997.9183	2714.7403	1368.05	486.3
998.0403	2715.9654	1376.65	493.65
998.1623	2717.1899	1384.55	489.2
998.2842	2718.4136	1366.4	485.45
998.4062	2719.6367	1367	485.1
998.528	2720.8591	1372.7	484.05
998.6498	2722.0809	1358.35	476
998.7716	2723.3019	1364.25	478.5
998.8934	2724.5223	1358.95	478
999.0151	2725.7421	1361.95	479
999.1368	2726.9611	1362.55	478.95
999.2584	2728.1795	1352.7	466.7
999.38	2729.3972	1349.05	467.95
999.5016	2730.6142	1355.6	459.75
999.6231	2731.8306	1339.25	454.7
999.7446	2733.0462	1344.85	462.8
999.8661	2734.2612	1338.05	450.1
999.9875	2735.4756	1333.65	449.8
1000.1089	2736.6892	1336.6	455.35
1000.2302	2737.9022	1335.2	454.05
1000.3515	2739.1145	1327.95	447
1000.4728	2740.3262	1335.4	444.8
1000.594	2741.5372	1318.65	437.85
1000.7152	2742.7475	1321.35	439.4
1000.8363	2743.9571	1319.6	436.35
1000.9575	2745.1661	1317.55	432.15
1001.0785	2746.3744	1316.65	434.75
1001.1996	2747.582	1316.55	434.05
1001.3206	2748.7889	1312.35	428.5
1001.4415	2749.9952	1306.5	426.45
1001.5625	2751.2008	1306.95	424.65
1001.6833	2752.4057	1315.15	432.1
1001.8042	2753.61	1298.95	416.4
1001.925	2754.8136	1305.45	423.55
1002.0458	2756.0165	1302.6	420.05
1002.1665	2757.2188	1296	415.45
1002.2872	2758.4204	1294.45	414.6
1002.4078	2759.6213	1293.1	411.1
1002.5285	2760.8215	1304.25	421.05
1002.649	2762.0211	1296.85	415
1002.7696	2763.22	1290.8	405.5
1002.8901	2764.4182	1290.55	407.65
1003.0106	2765.6158	1283.6	400.55
1003.131	2766.8127	1280.7	399.75
1003.2514	2768.009	1282.8	400.3
1003.3717	2769.2045	1278.1	395.6
1003.492	2770.3994	1287.95	405.25
1003.6123	2771.5936	1271.45	391.4
1003.7325	2772.7872	1278.45	399.95
1003.8527	2773.9801	1269.4	388.3
1003.9729	2775.1723	1287.35	388.85
1004.093	2776.3639	1269.75	390.3
1004.2131	2777.5548	1271.45	388.25
1004.3331	2778.745	1267.6	383.9
1004.4531	2779.9346	1265.7	382.95
1004.5731	2781.1235	1265.35	383.45
1004.693	2782.3117	1257.25	375.65
1004.8129	2783.4992	1258.95	377.3
1004.9328	2784.6861	1253.6	373.2
1005.0526	2785.8723	1259.25	376.95
1005.1723	2787.0579	1257.65	377.6
1005.2921	2788.2428	1255.9	375.05
1005.4118	2789.427	1251.95	373.85
1005.5314	2790.6106	1247.15	366.5
1005.651	2791.7935	1254.8	372.7
1005.7706	2792.9757	1248.05	367.85
1005.8902	2794.1573	1248.05	363.5
1006.0097	2795.3382	1236.65	355.45
1006.1291	2796.5184	1238.55	358.15
1006.2485	2797.698	1242.7	359.55
1006.3679	2798.8769	1239.75	359
1006.4873	2800.0551	1237.45	356.35
1006.6066	2801.2327	1239.8	354.85
1006.7258	2802.4096	1235.1	353.7
1006.8451	2803.5859	1235.8	354.8
1006.9642	2804.7615	1235.6	354.45
1007.0834	2805.9364	1232	351.35
1007.2025	2807.1106	1230.45	350.2
1007.3216	2808.2842	1225.4	343.9
1007.4406	2809.4572	1224.7	344.85
1007.5596	2810.6294	1225.7	345.1
1007.6785	2811.801	1230.2	352.3
1007.7975	2812.972	1227.4	346.5
1007.9163	2814.1423	1224.75	341.9
1008.0352	2815.3119	1226.15	344.95
1008.154	2816.4808	1228.4	349.15
1008.2727	2817.6491	1229.5	347.85
1008.3914	2818.8167	1224.3	344.1
1008.5101	2819.9837	1232.15	346.3
1008.6288	2821.15	1233.05	352.05
1008.7474	2822.3157	1240.35	362.4
1008.8659	2823.4807	1242.9	360.7
1008.9844	2824.645	1240.5	359.9
1009.1029	2825.8086	1244.35	361.3
1009.2214	2826.9716	1246.55	366.8
1009.3398	2828.134	1251.95	372.1
1009.4581	2829.2957	1258.8	377.1
1009.5764	2830.4567	1265.55	385.25
1009.6947	2831.617	1263.35	383.85
1009.813	2832.7767	1262.5	381.15
1009.9312	2833.9358	1260.8	381.1
1010.0493	2835.0941	1260.8	376.3
1010.1675	2836.2519	1257.9	377.9
1010.2855	2837.4089	1250.85	369.25
1010.4036	2838.5653	1251.45	371.7
1010.5216	2839.7211	1251.1	372.05
1010.6396	2840.8761	1239.3	356.45
1010.7575	2842.0306	1246.1	367.85
1010.8754	2843.1843	1236.15	356.1
1010.9932	2844.3374	1238.85	357.45
1011.111	2845.4899	1239.15	358.15
1011.2288	2846.6417	1238.85	359
1011.3465	2847.7928	1242.75	362.8
1011.4642	2848.9433	1244.8	363
1011.5818	2850.0931	1238.2	358.05
1011.6995	2851.2422	1243.4	360.6
1011.817	2852.3907	1242.95	358.2
1011.9345	2853.5385	1246.45	364.25
1012.052	2854.6857	1248.8	358.3
1012.1695	2855.8323	1239.5	360.2
1012.2869	2856.9781	1241.8	361.15
1012.4042	2858.1233	1241.45	359.9
1012.5216	2859.2679	1245.1	364.8
1012.6389	2860.4118	1245.2	365.45
1012.7561	2861.555	1255.15	370.95
1012.8733	2862.6976	1253.15	371.45
1012.9905	2863.8395	1243.2	364.35
1013.1076	2864.9808	1245.3	364.2
1013.2247	2866.1214	1246.75	368.5
1013.3417	2867.2614	1249.55	369.55
1013.4587	2868.4007	1243.15	361.05
1013.5757	2869.5393	1237.1	353.8
1013.6926	2870.6773	1246.75	362.4
1013.8095	2871.8146	1248.55	365.75
1013.9263	2872.9513	1252.4	369.1
1014.0431	2874.0874	1247.15	368
1014.1599	2875.2227	1247	365.75
1014.2766	2876.3574	1245.7	366.35
1014.3933	2877.4915	1247.15	365.7
1014.51	2878.6249	1240.6	361
1014.6266	2879.7577	1244.4	361.9
1014.7431	2880.8898	1251.6	361.65
1014.8596	2882.0212	1244.55	364.35
1014.9761	2883.152	1244.2	360.8
1015.0925	2884.2821	1242.35	360.35
1015.2089	2885.4116	1243.05	362.75
1015.3253	2886.5405	1240.55	358.55
1015.4416	2887.6686	1244.2	358.7
1015.5579	2888.7962	1241.75	362.75
1015.6741	2889.923	1246.3	364.5
1015.7903	2891.0493	1236.25	357.2
1015.9065	2892.1748	1238.95	358.05
1016.0226	2893.2997	1233.65	352.15
1016.1387	2894.424	1234.2	354.9
1016.2547	2895.5476	1237.15	354.8
1016.3707	2896.6706	1234.4	355.35
1016.4866	2897.7929	1236.55	355.25
1016.6025	2898.9145	1235.2	351
1016.7184	2900.0355	1229.7	350.8
1016.8342	2901.1559	1228.95	346.35
1016.95	2902.2756	1228.6	347.9
1017.0658	2903.3946	1226.7	347
1017.1815	2904.513	1228.95	344.25
1017.2971	2905.6308	1225.9	345.75
1017.4127	2906.7479	1225.9	342.4
1017.5283	2907.8643	1227.65	346.95
1017.6439	2908.9801	1225.4	343.85
1017.7594	2910.0953	1213.9	333.45
1017.8748	2911.2098	1227.3	345.25
1017.9902	2912.3236	1227.95	340.05
1018.1056	2913.4368	1221.9	340.5
1018.2209	2914.5494	1216	333.6
1018.3362	2915.6613	1217	330.4
1018.4515	2916.7725	1217.75	334.1
1018.5667	2917.8831	1208.6	328.2
1018.6819	2918.9931	1209.05	324.25
1018.797	2920.1024	1200.7	318.95
1018.9121	2921.211	1199.1	318.55
1019.0271	2922.319	1202	319.9
1019.1421	2923.4264	1192.7	313.5
1019.2571	2924.5331	1194.95	315.35
1019.372	2925.6391	1195.5	314.35
1019.4869	2926.7445	1189	310.3
1019.6017	2927.8493	1192.5	313.35
1019.7165	2928.9534	1193	311.1
1019.8313	2930.0569	1192.7	309.95
1019.946	2931.1597	1195.65	314.5
1020.0606	2932.2619	1190.55	308.9
1020.1753	2933.3634	1193.6	314
1020.2899	2934.4643	1197.7	309.45
1020.4044	2935.5645	1200.35	313.9
1020.5189	2936.6641	1199.6	314.15
1020.6334	2937.763	1198.3	318.5
1020.7478	2938.8613	1192.35	312.45
1020.8622	2939.959	1198.95	312.9
1020.9765	2941.056	1184.95	307.2
1021.0908	2942.1523	1186.55	303.6
1021.2051	2943.248	1177.3	296.3
1021.3193	2944.3431	1170.2	289.9
1021.4334	2945.4375	1163.95	285.15
1021.5476	2946.5313	1152.6	273.35
1021.6617	2947.6244	1150.05	269.05
1021.7757	2948.7169	1142.45	260.6
1021.8897	2949.8087	1142.15	261.75
1022.0037	2950.8999	1135.95	255.8
1022.1176	2951.9904	1135.05	255.45
1022.2315	2953.0803	1127.15	246.75
1022.3453	2954.1696	1125.7	242.65
1022.4591	2955.2582	1123.5	245.3
1022.5728	2956.3462	1120.45	238.4
1022.6865	2957.4335	1114.6	231.85
1022.8002	2958.5202	1115.95	233.35
1022.9138	2959.6062	1110.85	230.2
1023.0274	2960.6916	1112.9	234.4
1023.141	2961.7764	1113.85	233.75
1023.2545	2962.8605	1108.05	226.1
1023.3679	2963.9439	1109.05	228.25
1023.4813	2965.0267	1110.1	229.85
1023.5947	2966.1089	1135.85	232.5
1023.708	2967.1905	1104.25	226.6
1023.8213	2968.2714	1106.8	227.1
1023.9346	2969.3516	1099.95	221.3
1024.0478	2970.4312	1115.15	227.4
1024.1609	2971.5102	1102.65	222.35
1024.274	2972.5885	1101.75	221.4
1024.3871	2973.6662	1103.2	218.3
1024.5002	2974.7432	1105.65	225.9
1024.6132	2975.8196	1100	218.95
1024.7261	2976.8954	1101.05	223.3
1024.839	2977.9705	1098.9	218.05
1024.9519	2979.045	1100.6	220.3
1025.0647	2980.1188	1096.45	219.3
1025.1775	2981.192	1089.7	209.7
1025.2902	2982.2645	1095	214
1025.4029	2983.3364	1093.15	212.95
1025.5156	2984.4077	1088.95	209.8
1025.6282	2985.4783	1089.9	202.4
1025.7407	2986.5483	1090.05	209.85
1025.8532	2987.6177	1080.65	200.65
1025.9657	2988.6864	1083.1	202.6
1026.0782	2989.7545	1081.7	201.1
1026.1906	2990.8219	1074.7	194.65
1026.3029	2991.8887	1076.4	194.45
1026.4152	2992.9548	1071.45	189.15
1026.5275	2994.0204	1067.75	187.2
1026.6397	2995.0852	1065.5	186.25
1026.7519	2996.1495	1064.15	183
1026.864	2997.2131	1063.9	183.15
1026.9761	2998.276	1060.1	181.95
1027.0882	2999.3383	1061.6	180.1
1027.2002	3000.4	1057.75	176.7
1027.3122	3001.4611	1053.9	172.4
1027.4241	3002.5215	1053.8	173.7
1027.536	3003.5812	1052	171.35
1027.6478	3004.6404	1052.35	173.3
1027.7596	3005.6989	1048.1	166.35
1027.8714	3006.7567	1048.65	169.4
1027.9831	3007.8139	1072.5	170.85
1028.0947	3008.8705	1042.7	162.1
1028.2064	3009.9264	1049.25	165.15
1028.3179	3010.9818	1044.95	165.5
1028.4295	3012.0364	1042.5	160.55
1028.541	3013.0905	1040.2	159.7
1028.6524	3014.1439	1038.25	158.2
1028.7638	3015.1966	1039.5	159.15
1028.8752	3016.2487	1039.95	158.45
1028.9865	3017.3002	1044.35	157.75
1029.0978	3018.3511	1038.4	160.15
1029.209	3019.4013	1035.8	157.15
1029.3202	3020.4509	1035.6	156.85
1029.4314	3021.4998	1036	155.5
1029.5425	3022.5481	1034.9	155.55
1029.6535	3023.5958	1031.85	151.75
1029.7645	3024.6428	1038.35	156.1
1029.8755	3025.6892	1034.55	156.65
1029.9864	3026.735	1035.35	156.4
1030.0973	3027.7802	1034.45	153.9
1030.2082	3028.8247	1030.95	151.5
1030.319	3029.8685	1033.25	152.15
1030.4297	3030.9118	1031.75	149.15
1030.5404	3031.9544	1026.9	147.65
1030.6511	3032.9963	1026.5	146.15
1030.7617	3034.0376	1028.7	148.1
1030.8723	3035.0783	1030.5	147.35
1030.9829	3036.1184	1025.75	144.45
1031.0934	3037.1578	1023	144.1
1031.2038	3038.1966	1026.55	145
1031.3142	3039.2348	1022.45	143.15
1031.4246	3040.2723	1033.95	144.8
1031.5349	3041.3092	1023.2	142.55
1031.6452	3042.3455	1023.8	143.7
1031.7554	3043.3811	1020.25	139.55
1031.8656	3044.4161	1021.55	140.3
1031.9758	3045.4505	1019.25	139.7
1032.0859	3046.4842	1021.25	141.3
1032.1959	3047.5173	1017.9	140.4
1032.3059	3048.5498	1019.25	139.2
1032.4159	3049.5816	1019.25	137.15
1032.5258	3050.6128	1018.15	139
1032.6357	3051.6434	1020.25	139.55
1032.7455	3052.6734	1016.8	135.95
1032.8553	3053.7027	1017.65	138.5
1032.9651	3054.7314	1015.7	134.55
1033.0748	3055.7594	1019.95	140.5
1033.1845	3056.7868	1016.85	136.15
1033.2941	3057.8136	1018.45	139.35
1033.4037	3058.8398	1011.65	132.5
1033.5132	3059.8653	1013.45	134.55
1033.6227	3060.8902	1011.5	132.05
1033.7321	3061.9145	1015.6	134.25
1033.8415	3062.9381	1015.75	134.8
1033.9509	3063.9612	1028.5	134.35
1034.0602	3064.9835	1012.4	133.45
1034.1694	3066.0053	1019.4	137.7
1034.2787	3067.0264	1008	129.8
1034.3878	3068.0469	1011.9	130.9
1034.497	3069.0668	1015.65	132.95
1034.6061	3070.086	1010.15	130.4
1034.7151	3071.1046	1012.25	131.75
1034.8241	3072.1226	1014.05	132.95
1034.9331	3073.1399	1006.35	127.4
1035.042	3074.1567	1005.65	125
1035.1508	3075.1727	1007.75	125.9
1035.2597	3076.1882	1005.4	125.05
1035.3684	3077.203	1005.35	124.65
1035.4772	3078.2173	1004.95	122.65
1035.5859	3079.2308	1003.1	119.15
1035.6945	3080.2438	1008.4	127.1
1035.8031	3081.2561	1003.55	125.65
1035.9117	3082.2678	1002.2	124.05
1036.0202	3083.2789	1000.25	120.5
1036.1286	3084.2893	1002.2	122.55
1036.2371	3085.2991	1000.65	120.65
1036.3454	3086.3083	1005.55	121.1
1036.4538	3087.3169	1000.25	119.75
1036.562	3088.3248	996.9	115.65
1036.6703	3089.3321	994.65	113.8
1036.7785	3090.3388	997	118.95
1036.8866	3091.3449	993.75	114.25
1036.9948	3092.3503	996.9	116.8
1037.1028	3093.3551	993.15	117.3
1037.2108	3094.3593	990.65	112.65
1037.3188	3095.3629	990.65	112.3
1037.4267	3096.3658	992.95	110.95
1037.5346	3097.3681	993.25	115.6
1037.6425	3098.3698	995.1	113.65
1037.7503	3099.3708	1000.25	114.2
1037.858	3100.3713	987.2	109.9
1037.9657	3101.3711	990.7	109.55
1038.0734	3102.3702	1118.2	102.2
1038.181	3103.3688	991.7	112.2
1038.2886	3104.3667	984.8	107
1038.3961	3105.364	986.5	108.3
1038.5036	3106.3607	987.85	105.45
1038.611	3107.3568	984.9	106.45
1038.7184	3108.3522	987.45	108.3
1038.8257	3109.347	984.8	103.85
1038.933	3110.3412	984.15	100.4
1039.0403	3111.3348	983.7	103.25
1039.1475	3112.3277	979.4	98.75
1039.2547	3113.32	979.9	100.75
1039.3618	3114.3117	980.7	100.75
1039.4689	3115.3028	978.95	99.1
1039.5759	3116.2932	982.55	101.25
1039.6829	3117.2831	988.2	102.8
1039.7898	3118.2723	977.6	99.85
1039.8967	3119.2608	978.95	100.25
1040.0035	3120.2488	980.2	99.7
1040.1103	3121.2361	974	94.1
1040.2171	3122.2229	972.15	91.7
1040.3238	3123.209	973.05	92.85
1040.4305	3124.1944	973.55	93.9
1040.5371	3125.1793	974.9	94.75
1040.6437	3126.1635	975.05	96.4
1040.7502	3127.1471	973.7	94.3
1040.8567	3128.1301	967.8	88.4
1040.9631	3129.1125	974.25	94.25
1041.0695	3130.0942	971.7	93.25
1041.1759	3131.0753	979.05	90.3
1041.2822	3132.0558	976.5	94.45
1041.3884	3133.0357	973.25	92.5
1041.4946	3134.015	968.95	88.3
1041.6008	3134.9936	971.8	91.1
1041.7069	3135.9716	988.5	87.6
1041.813	3136.949	969.45	90.15
1041.919	3137.9258	977.55	91.6
1042.025	3138.902	973.2	89.15
1042.1309	3139.8775	965.85	86.9
1042.2368	3140.8524	968.3	89.05
1042.3427	3141.8267	966.6	86.2
1042.4485	3142.8004	968.7	87.75
1042.5542	3143.7735	972.1	86.5
1042.6599	3144.7459	970.45	89.5
1042.7656	3145.7178	963.3	81.5
1042.8712	3146.689	962.65	83.95
1042.9768	3147.6596	965.75	85.3
1043.0823	3148.6295	961.15	80.5
1043.1878	3149.5989	960.8	80.6
1043.2932	3150.5676	961.6	83.1
1043.3986	3151.5357	961	82.75
1043.5039	3152.5032	963	85.65
1043.6092	3153.4701	960.85	81.9
1043.7145	3154.4364	964.4	81.8
1043.8197	3155.402	961.25	83.5
1043.9248	3156.367	963.3	80.65
1044.03	3157.3315	996.5	79.45
1044.135	3158.2952	959.1	79.25
1044.24	3159.2584	955.9	74.55
1044.345	3160.221	957.35	76.6
1044.4499	3161.1829	958.3	77.3
1044.5548	3162.1442	957.1	78.8
1044.6596	3163.105	958.85	79.9
1044.7644	3164.065	955.15	77.3
1044.8692	3165.0245	956.5	73.55
1044.9739	3165.9834	954.4	76.85
1045.0785	3166.9416	952.75	71.95
1045.1831	3167.8993	959.6	80.15
1045.2877	3168.8563	957.4	76.4
1045.3922	3169.8127	953.85	72.15
1045.4966	3170.7684	953.8	74.95
1045.6011	3171.7236	952.7	71.1
1045.7054	3172.6782	953.7	74.55
1045.8098	3173.6321	951.85	71.65
1045.914	3174.5854	953.8	70.6
1046.0183	3175.5381	952.85	74.1
1046.1224	3176.4902	952.85	72.8
1046.2266	3177.4417	949.75	72.15
1046.3307	3178.3926	949.45	70
1046.4347	3179.3428	950.25	71.65
1046.5387	3180.2924	948.3	68.35
1046.6427	3181.2415	947.3	69.15
1046.7466	3182.1899	951.2	70.75
1046.8504	3183.1377	945.65	66.8
1046.9542	3184.0848	947.4	65.25
1047.058	3185.0314	950.85	71.6
1047.1617	3185.9773	948.4	66.4
1047.2654	3186.9227	948.5	69.2
1047.369	3187.8674	948	68.65
1047.4726	3188.8115	950.3	65.65
1047.5761	3189.755	946.25	68.95
1047.6796	3190.6979	945.9	65
1047.783	3191.6402	945.55	67.5
1047.8864	3192.5818	945.35	65.15
1047.9898	3193.5229	949.45	66.1
1048.0931	3194.4633	944.2	65.65
1048.1963	3195.4031	947.15	66.6
1048.2995	3196.3423	942.75	62.55
1048.4027	3197.2809	944.05	64.05
1048.5058	3198.2189	944.75	65.1
1048.6089	3199.1563	958.3	63.6
1048.7119	3200.0931	940.85	62.4
1048.8148	3201.0292	940.5	61.5
1048.9178	3201.9648	938.7	59.75
1049.0206	3202.8997	943.5	61.65
1049.1235	3203.834	939.7	60.45
1049.2262	3204.7677	940.25	61.6
1049.329	3205.7008	944.35	64.1
1049.4317	3206.6333	942.85	64.15
1049.5343	3207.5652	941.8	59.65
1049.6369	3208.4964	938.2	57.8
1049.7394	3209.4271	940.85	60.55
1049.8419	3210.3571	936.3	57
1049.9444	3211.2865	936.85	57.5
1050.0468	3212.2154	937.45	58.15
1050.1491	3213.1436	941.55	60.15
1050.2514	3214.0712	942.8	55.95
1050.3537	3214.9982	939.75	60.8
1050.4559	3215.9246	937.5	56.1
1050.5581	3216.8503	935.5	54.55
1050.6602	3217.7755	935.95	56.45
1050.7623	3218.7001	936	55.35
1050.8643	3219.624	934.5	54.8
1050.9663	3220.5473	933.2	53
1051.0682	3221.4701	934.9	54.85
1051.1701	3222.3922	938.15	59.5
1051.2719	3223.3137	935.55	57.15
1051.3737	3224.2346	932.3	52.7
1051.4754	3225.1549	931.4	52.45
1051.5771	3226.0746	932.2	53.6
1051.6788	3226.9937	933.2	51.3
1051.7804	3227.9121	934.6	56.35
1051.8819	3228.83	932.15	53.1
1051.9834	3229.7473	932.8	54.1
1052.0849	3230.6639	932.05	52.4
1052.1863	3231.5799	930.9	51.4
1052.2876	3232.4954	933.5	53.35
1052.3889	3233.4102	930.3	51.25
1052.4902	3234.3244	930.05	51.9
1052.5914	3235.238	931.7	52.65
1052.6926	3236.151	952.6	51.55
1052.7937	3237.0634	926.65	50.2
1052.8948	3237.9752	930.95	50.45
1052.9958	3238.8864	930.65	51.7
1053.0968	3239.797	928.2	49.4
1053.1977	3240.7069	929.45	48.6
1053.2986	3241.6163	930.2	49
1053.3994	3242.5251	928.1	51.4
1053.5002	3243.4332	931.6	54.05
1053.6009	3244.3408	928.7	50.65
1053.7016	3245.2477	926.15	45.35
1053.8022	3246.154	931.35	51
1053.9028	3247.0598	928	47.6
1054.0034	3247.9649	925.45	46.95
1054.1039	3248.8694	925.6	46.85
1054.2043	3249.7733	925.5	46.9
1054.3047	3250.6766	921.5	43.05
1054.4051	3251.5793	926.8	46.45
1054.5054	3252.4814	924	45.65
1054.6056	3253.3829	923.35	45.9
1054.7058	3254.2838	923.45	43.7
1054.806	3255.1841	923.4	45.45
1054.9061	3256.0838	923.75	42.9
1055.0061	3256.9829	923.25	43.8
1055.1062	3257.8814	927.7	46.1
1055.2061	3258.7792	922.65	43.15
1055.306	3259.6765	923.2	41.75
1055.4059	3260.5731	921.55	42.55
1055.5057	3261.4692	923.55	45.35
1055.6055	3262.3647	922	41.6
1055.7052	3263.2595	917.55	37
1055.8049	3264.1538	918.3	38.9
1055.9045	3265.0474	917.6	36.75
1056.0041	3265.9404	919.5	41.9
1056.1036	3266.8329	916.3	36.65
1056.2031	3267.7247	926.3	37.45
1056.3025	3268.616	916.3	36.95
1056.4019	3269.5066	917.35	37.6
1056.5013	3270.3966	914.3	32.9
1056.6005	3271.286	911.65	31.55
