Software Version:	3.9.2.0
Unit SN:	10000200
Spectrometer SN:	6960
Date:	3/6/2024 9:30:15 AM
Data Line Index:	25
Spectral Points:	2048
Integration time (ms):	125
Averages:	20
Delay (ms):	30
Sequence Number:	1
Processing:	dark subtract
Laser Power (mW):	300
Laser Current (mA):	822
Laser Diode Temp (C):	25.1
Laser Case Temp (C):	23.4
System Temp (C):	23.2
Spectrometer Temp (C):	20.8
CCD Temp (C):	-0.031
Secondary Temp (C):	20.008
Heatsink Temp (C):	17.677
CCDPCB Temp (C):	30.204
SecondaryPCB Temp (C):	25.236

Wavelength	RamanShift	Raw Counts	Dark Subtracted
787.061	30.1047	514.3	105.65
787.2016	32.3739	514.6	110.4
787.3422	34.6426	523.4	117.25
787.4828	36.9109	527.85	120.65
787.6235	39.1787	547.2	135.75
787.7642	41.4461	557.65	140.55
787.9049	43.7131	568.4	148.95
788.0456	45.9796	577.5	157.15
788.1863	48.2456	586.7	161.4
788.3271	50.5112	604	174.75
788.4679	52.7764	621.15	188.4
788.6087	55.0411	629.55	190.85
788.7496	57.3054	648.25	203.45
788.8904	59.5692	663.9	221.8
789.0313	61.8326	678.75	234.35
789.1722	64.0955	698	249.15
789.3132	66.3579	720.75	265.5
789.4541	68.6199	752.5	295.1
789.5951	70.8815	803.15	340.7
789.7361	73.1426	907.4	440.15
789.8771	75.4032	1183.65	714.8
790.0181	77.6634	1862.8	1391.95
790.1592	79.9231	3480.55	3005.95
790.3003	82.1824	7002.8	6522.5
790.4414	84.4412	13227.55	12737.3
790.5825	86.6995	21638.75	21139.35
790.7237	88.9574	29771.3	29264.05
790.8648	91.2148	35476.7	34964.2
791.006	93.4717	38590.6	38073.85
791.1472	95.7282	39881.8	39363.65
791.2885	97.9842	40593.65	40073.85
791.4297	100.2398	40878.15	40357
791.571	102.4949	40940.05	40411.8
791.7123	104.7495	41066.25	40535.5
791.8536	107.0036	41006.85	40476
791.9949	109.2573	41280.8	40749.3
792.1363	111.5105	41054.15	40520.55
792.2777	113.7632	41253.75	40720.55
792.4191	116.0154	41360.65	40816.45
792.5605	118.2672	41644.65	41103
792.7019	120.5185	41622.5	41081.85
792.8434	122.7693	41724.85	41179.95
792.9849	125.0197	41839.2	41288.6
793.1264	127.2696	41971	41417.65
793.2679	129.519	42179.5	41622.45
793.4094	131.7679	42525.35	41967
793.551	134.0163	42013.3	41455
793.6926	136.2642	42306.55	41740.45
793.8342	138.5117	42535.65	41970.9
793.9758	140.7587	42498.65	41929.2
794.1175	143.0052	42620.85	42050
794.2591	145.2512	42446.25	41875.1
794.4008	147.4967	42647.45	42074
794.5425	149.7417	42581.45	42004.75
794.6842	151.9863	42655.3	42074.25
794.826	154.2304	42500.85	41917.55
794.9677	156.4739	42533.7	41943.35
795.1095	158.717	42661	42072.6
795.2513	160.9596	42679.3	42085.35
795.3931	163.2017	42513.7	41918.25
795.535	165.4433	42737.25	42139.3
795.6768	167.6844	42652.1	42050.45
795.8187	169.925	42835.05	42231.35
795.9606	172.1651	42740.15	42132
796.1025	174.4047	42717.45	42106.55
796.2445	176.6439	42739.55	42125.2
796.3864	178.8825	42826.15	42210
796.5284	181.1206	42952.35	42331.65
796.6704	183.3582	43028.9	42406.2
796.8124	185.5954	42884.8	42260
796.9544	187.832	43000.95	42372.15
797.0965	190.0681	43065.65	42434.25
797.2386	192.3037	43252.75	42616.85
797.3806	194.5388	43521.3	42883.85
797.5228	196.7734	43113.05	42476.85
797.6649	199.0075	43519.75	42877.6
797.807	201.2411	43684.1	43042.15
797.9492	203.4742	43797.6	43154.75
798.0914	205.7068	43947.9	43299.6
798.2336	207.9389	43963.8	43314.7
798.3758	210.1704	44044.2	43401.5
798.518	212.4015	44180	43550.35
798.6603	214.632	43997.05	43370.9
798.8025	216.862	44165.8	43542.8
798.9448	219.0915	44312.25	43685.2
799.0871	221.3205	44258.15	43626.3
799.2294	223.549	44466	43841.75
799.3718	225.777	44546.05	43916.7
799.5141	228.0044	44603.95	43968.75
799.6565	230.2314	44710	44075
799.7989	232.4578	44657.45	44016.7
799.9413	234.6837	44712.15	44063.45
800.0837	236.909	45052.65	44402.45
800.2262	239.1339	44659.85	43985
800.3687	241.3582	44899.55	44239.95
800.5111	243.582	44883.6	44192.3
800.6536	245.8053	44992.7	44316.75
800.7961	248.0281	44938.25	44265.55
800.9387	250.2503	45034.05	44358.75
801.0812	252.472	45029.6	44349.7
801.2238	254.6932	45118.25	44439.55
801.3664	256.9139	45048.65	44370.65
801.509	259.134	45370.95	44688.3
801.6516	261.3536	45017.75	44336.55
801.7942	263.5727	45312.35	44628.75
801.9369	265.7912	45239.25	44555.8
802.0795	268.0092	45307.1	44623.35
802.2222	270.2267	45296.5	44610.85
802.3649	272.4436	45335.5	44647.7
802.5076	274.6601	45368.05	44667.8
802.6504	276.8759	45355.25	44660.25
802.7931	279.0913	45431.4	44737.1
802.9359	281.3061	45378.35	44683.65
803.0787	283.5204	45530.5	44833
803.2215	285.7341	45589.45	44889.1
803.3643	287.9473	45766.75	45058.3
803.5071	290.16	45585.8	44881.95
803.6499	292.3721	45884.3	45189
803.7928	294.5837	45434.85	44733.95
803.9357	296.7947	45409.75	44712.15
804.0786	299.0052	45557.1	44856.25
804.2215	301.2152	45479.8	44776.4
804.3644	303.4246	45603.3	44902.8
804.5074	305.6334	45559	44855.25
804.6503	307.8418	45440	44732.1
804.7933	310.0495	45508.45	44800.85
804.9363	312.2568	45426.8	44719.05
805.0793	314.4635	45311.25	44601.35
805.2223	316.6696	45270.65	44556.7
805.3653	318.8752	45237.25	44515.65
805.5084	321.0802	44941.9	44228.1
805.6514	323.2847	45114.8	44396.5
805.7945	325.4887	45095.45	44379.55
805.9376	327.692	44946	44226.3
806.0807	329.8949	45191.4	44473.5
806.2238	332.0972	45129.3	44411.45
806.367	334.2989	45222.4	44498
806.5101	336.5001	45243.95	44518.05
806.6533	338.7007	45174.25	44446.55
806.7965	340.9008	45259.4	44533.5
806.9397	343.1003	45220.25	44489.1
807.0829	345.2992	45273.85	44542.05
807.2261	347.4976	45113.7	44385
807.3693	349.6955	45163.4	44427.05
807.5126	351.8927	45231.45	44494.9
807.6559	354.0895	45087.25	44339.65
807.7991	356.2856	45136.15	44396.6
807.9424	358.4812	45114.4	44375.6
808.0857	360.6763	45137	44395.05
808.2291	362.8707	45071.25	44327.2
808.3724	365.0646	45112.65	44366.65
808.5158	367.258	45017.85	44269.75
808.6591	369.4508	44912.6	44162.55
808.8025	371.643	45058.65	44307.7
808.9459	373.8346	44932.75	44179
809.0893	376.0257	44833	44075.2
809.2327	378.2162	44795.7	44040.8
809.3762	380.4062	44863.4	44111.85
809.5196	382.5956	44736.35	43984.9
809.6631	384.7844	44765.85	44020.7
809.8066	386.9726	44656.85	43909.3
809.9501	389.1603	44596.25	43850.85
810.0936	391.3474	44527.3	43732.75
810.2371	393.5339	44514.4	43764.9
810.3806	395.7199	44333.3	43586.9
810.5241	397.9052	44355.35	43608.95
810.6677	400.09	44360.7	43606.25
810.8113	402.2743	44353.5	43602.7
810.9548	404.4579	44299.2	43545.8
811.0984	406.641	44407.6	43651.25
811.2421	408.8235	44458	43700.15
811.3857	411.0054	44467.05	43706.5
811.5293	413.1868	44552.5	43788.85
811.673	415.3675	44469.45	43703.75
811.8166	417.5477	44507.6	43739.8
811.9603	419.7273	44496.6	43729.2
812.104	421.9064	44305.9	43530.3
812.2477	424.0848	44165.35	43395.85
812.3914	426.2627	44050.2	43277.5
812.5351	428.4399	43952.25	43182.6
812.6788	430.6166	43869.75	43094.85
812.8226	432.7928	43730.45	42952.45
812.9663	434.9683	43623.35	42845.35
813.1101	437.1432	43545.95	42767.7
813.2539	439.3176	43405.65	42630.1
813.3977	441.4914	43246.1	42469.85
813.5415	443.6645	43221.8	42442.95
813.6853	445.8371	43060.5	42282.1
813.8291	448.0091	42950	42171.55
813.973	450.1806	42875.2	42094.6
814.1168	452.3514	42771.5	41989.4
814.2607	454.5216	42819.1	42027.7
814.4046	456.6913	42535.1	41751.3
814.5485	458.8603	42581.3	41796.65
814.6924	461.0288	42625.9	41843.45
814.8363	463.1967	42513.95	41730.25
814.9802	465.3639	42589.25	41803.1
815.1241	467.5306	42464.25	41678.4
815.2681	469.6967	42381.1	41595.9
815.412	471.8622	42237.8	41451.05
815.556	474.0271	42273.4	41489.7
815.7	476.1914	42169.65	41382.35
815.844	478.3551	42131.1	41345
815.988	480.5182	42241.05	41451.75
816.132	482.6807	42206.25	41416.85
816.276	484.8426	42264.6	41477.5
816.4201	487.0039	42341.55	41551.25
816.5641	489.1647	42379.7	41589.4
816.7082	491.3248	42412.2	41621.7
816.8522	493.4843	42365.9	41574
816.9963	495.6432	42296.15	41505.15
817.1404	497.8015	42199.05	41400.8
817.2845	499.9592	42198.4	41404.75
817.4286	502.1163	42169.4	41372.6
817.5727	504.2728	41963.85	41166.5
817.7168	506.4287	42146.95	41351.05
817.861	508.5839	41973.4	41177.8
818.0051	510.7386	41969.85	41172.2
818.1493	512.8927	41987.7	41181.3
818.2935	515.0461	41987.45	41187.6
818.4377	517.199	41924.9	41128.2
818.5818	519.3512	41875.5	41077.4
818.726	521.5029	41893.75	41089.1
818.8703	523.6539	41873.5	41070.3
819.0145	525.8043	41893.4	41089.25
819.1587	527.9541	41843.5	41039.75
819.303	530.1033	41693.65	40890.75
819.4472	532.2519	41614.4	40810.7
819.5915	534.3999	41643	40837
819.7357	536.5472	41542.85	40738.4
819.88	538.694	41552.25	40748
820.0243	540.8401	41631.9	40824
820.1686	542.9856	41610	40801.25
820.3129	545.1305	41514.4	40702.6
820.4572	547.2748	41608.75	40798.65
820.6016	549.4185	41475.5	40663.4
820.7459	551.5615	41385.45	40576.2
820.8902	553.704	41438.7	40630
821.0346	555.8458	41373.05	40564.15
821.1789	557.987	41372.45	40563.55
821.3233	560.1276	41345.3	40533.55
821.4677	562.2675	41380.55	40571.3
821.6121	564.4069	41363.1	40551.45
821.7565	566.5456	41296.15	40486.55
821.9009	568.6837	41235.3	40422.35
822.0453	570.8212	41061.15	40251.2
822.1897	572.958	40985.85	40171.35
822.3342	575.0942	40868.8	40055.25
822.4786	577.2299	40745.5	39932.45
822.6231	579.3648	40696.4	39884.05
822.7675	581.4992	40445	39634.1
822.912	583.6329	40347.95	39532.4
823.0565	585.766	40289.15	39474.35
823.201	587.8985	40231.1	39415.85
823.3454	590.0304	40119.8	39292.3
823.4899	592.1616	40070.8	39249.15
823.6345	594.2922	40045.65	39226.65
823.779	596.4222	39940.15	39119.7
823.9235	598.5515	39841.3	39021.9
824.068	600.6802	39725.9	38906.6
824.2126	602.8083	39571.5	38750.55
824.3571	604.9358	39557.8	38735.1
824.5017	607.0626	39417.6	38595.4
824.6462	609.1888	39380.1	38555.9
824.7908	611.3144	39370.6	38545.05
824.9354	613.4393	39261	38436.65
825.08	615.5636	39268.85	38444.75
825.2246	617.6873	39266.1	38443.75
825.3692	619.8103	39281.6	38457.85
825.5138	621.9327	39230.4	38402.95
825.6584	624.0544	39169.5	38344.9
825.803	626.1756	39096.3	38272.2
825.9477	628.2961	39086.95	38260.8
826.0923	630.4159	38977.15	38150.55
826.237	632.5351	38978.85	38150.2
826.3816	634.6537	38913.3	38084.2
826.5263	636.7716	38835.9	38006.5
826.6709	638.8889	38852.55	38020
826.8156	641.0056	38858.7	38027.85
826.9603	643.1216	38772.55	37943.6
827.105	645.237	38814.2	37981.15
827.2497	647.3518	38696.8	37866.75
827.3944	649.4659	38737.85	37905.75
827.5391	651.5793	38657.95	37825.4
827.6838	653.6922	38533	37703.1
827.8285	655.8043	38494.3	37664.6
827.9733	657.9159	38473.6	37642.45
828.118	660.0268	38352.05	37518.05
828.2627	662.137	38285.3	37451.6
828.4075	664.2466	38296.15	37460.9
828.5522	666.3556	38268.1	37433.4
828.697	668.4639	38137.75	37300.5
828.8418	670.5716	38140.75	37306.75
828.9865	672.6786	38049	37212.35
829.1313	674.785	37938.3	37102.55
829.2761	676.8907	37861.9	37023.6
829.4209	678.9958	37811.2	36980.4
829.5657	681.1002	37743.9	36907.95
829.7105	683.204	37689.05	36848.1
829.8553	685.3072	37640.75	36801.3
830.0001	687.4097	37569.7	36730.5
830.1449	689.5115	37548.75	36707.9
830.2898	691.6127	37547.25	36708.9
830.4346	693.7132	37471.6	36631.45
830.5794	695.8131	37490.75	36634.9
830.7243	697.9123	37515.3	36675.15
830.8691	700.0109	37417.55	36577.7
831.014	702.1089	37388.15	36545.6
831.1588	704.2061	37323.55	36483.75
831.3037	706.3028	37344.7	36500.5
831.4486	708.3987	37253	36410.25
831.5935	710.4941	37197.95	36355.95
831.7383	712.5887	37177.15	36334.7
831.8832	714.6827	37194.9	36347.45
832.0281	716.7761	37131.7	36290.9
832.173	718.8688	37109.8	36265.45
832.3179	720.9608	37035.6	36189.35
832.4628	723.0522	37035	36186.5
832.6077	725.1429	36866.45	36019.75
832.7527	727.233	36886.3	36042
832.8976	729.3224	36991.85	36146.4
833.0425	731.4112	36881.8	36036.15
833.1874	733.4993	36762.1	35913.25
833.3324	735.5867	36626.85	35778.65
833.4773	737.6735	36596.75	35750.05
833.6222	739.7596	36529.65	35682.15
833.7672	741.845	36450.95	35603.35
833.9122	743.9298	36390.45	35541.7
834.0571	746.014	36299.05	35452.85
834.2021	748.0974	36223.8	35373.85
834.347	750.1802	36086.8	35236.3
834.492	752.2624	36002.55	35154.55
834.637	754.3439	35915.9	35063.35
834.782	756.4247	35801.85	34940.9
834.9269	758.5048	35679.8	34832.25
835.0719	760.5843	35563.05	34712.85
835.2169	762.6631	35504.65	34655.25
835.3619	764.7413	35458.6	34612.4
835.5069	766.8188	35496.25	34644.6
835.6519	768.8956	35398.65	34547.4
835.7969	770.9718	35469.95	34619.1
835.9419	773.0473	35287.05	34435.25
836.0869	775.1221	35244.3	34396.25
836.232	777.1962	35068.8	34217.15
836.377	779.2697	35103.4	34248.95
836.522	781.3426	35051.1	34185.9
836.667	783.4147	35020.9	34166.45
836.8121	785.4862	34979.4	34129.75
836.9571	787.557	34834.85	33982.45
837.1021	789.6271	34778.25	33923.25
837.2472	791.6966	34648.75	33797.2
837.3922	793.7654	34416.6	33561.75
837.5373	795.8335	34407.85	33555.95
837.6823	797.901	34302.45	33448.95
837.8274	799.9678	34238.6	33384.15
837.9724	802.0339	34181.95	33329.55
838.1175	804.0993	34126.1	33261.15
838.2626	806.1641	33987.05	33133
838.4076	808.2282	33946	33089.75
838.5527	810.2916	33952.1	33094
838.6978	812.3544	33924.25	33069.45
838.8428	814.4164	33801.95	32946.2
838.9879	816.4778	33863.55	33005.75
839.133	818.5385	33719.45	32865.35
839.2781	820.5986	33678.1	32822.1
839.4232	822.658	33692.9	32834.9
839.5682	824.7166	33583.05	32725.9
839.7133	826.7747	33710.7	32853
839.8584	828.832	33681.3	32824
840.0035	830.8886	33536.1	32677.85
840.1486	832.9446	33560.55	32701.3
840.2937	834.9999	33477.85	32621.45
840.4388	837.0545	33394.35	32532.5
840.5839	839.1085	33291.9	32431.85
840.729	841.1618	33222.7	32361.35
840.8741	843.2143	33105.8	32248.3
841.0192	845.2662	32998.75	32140.15
841.1643	847.3175	32969.85	32111.8
841.3095	849.368	32845.15	31983.15
841.4546	851.4179	32829.4	31969.4
841.5997	853.467	32670.65	31812.55
841.7448	855.5155	32649.2	31789.6
841.8899	857.5633	32575.9	31717.25
842.0351	859.6105	32463.7	31604.65
842.1802	861.6569	32451.1	31590.7
842.3253	863.7027	32417.5	31556.15
842.4704	865.7478	32337.15	31472.95
842.6156	867.7922	32319.8	31458.65
842.7607	869.8359	32219.35	31356.2
842.9058	871.8789	32198.05	31337.8
843.0509	873.9212	32147.45	31256.2
843.1961	875.9629	32019.15	31159.15
843.3412	878.0039	31969.55	31108.7
843.4863	880.0441	31969	31107.1
843.6315	882.0837	31947.15	31084.95
843.7766	884.1226	31891.4	31026.4
843.9218	886.1609	31862.95	31001.15
844.0669	888.1984	31933.35	31070.15
844.212	890.2352	31990.7	31127.9
844.3572	892.2714	31884.85	31016.3
844.5023	894.3069	31898.1	31035.25
844.6475	896.3416	31709.85	30849.35
844.7926	898.3757	31668.7	30805.1
844.9377	900.4091	31599.35	30734
845.0829	902.4418	31557.7	30687.8
845.228	904.4739	31455.95	30587.8
845.3732	906.5052	31434.1	30568.3
845.5183	908.5358	31327.6	30464.1
845.6635	910.5658	31286.7	30418.5
845.8086	912.595	31204.75	30340.2
845.9538	914.6236	31077.05	30213.5
846.0989	916.6515	31018.7	30155.3
846.2441	918.6786	30944.4	30077.95
846.3892	920.7051	30951.15	30083.05
846.5344	922.7309	30948.6	30083.7
846.6795	924.756	30792.2	29925.25
846.8246	926.7804	30794.95	29926.2
846.9698	928.8041	30573.75	29704.1
847.1149	930.8272	30628.75	29762.4
847.2601	932.8495	30447.7	29579.55
847.4052	934.8711	30436.65	29568.6
847.5504	936.892	30330.2	29463.6
847.6955	938.9123	30212.55	29344.05
847.8407	940.9318	30155.05	29287.75
847.9858	942.9506	30097.95	29230.35
848.131	944.9688	29988.8	29122.7
848.2761	946.9862	29912.8	29046.15
848.4213	949.003	29744.15	28876.9
848.5664	951.019	29658.55	28792.45
848.7115	953.0344	29576.9	28710.7
848.8567	955.0491	29499.5	28631.85
849.0018	957.063	29490.8	28621.2
849.147	959.0763	29530.4	28662
849.2921	961.0888	29378.25	28506.85
849.4373	963.1007	29409.05	28542.35
849.5824	965.1119	29354.4	28487.4
849.7275	967.1223	29302	28434.15
849.8727	969.1321	29227.05	28361.2
850.0178	971.1412	29171.3	28302.5
850.1629	973.1495	29108.1	28238.8
850.3081	975.1572	29051.7	28133.95
850.4532	977.1641	29023.6	28156.9
850.5983	979.1704	28912.5	28041.35
850.7435	981.1759	28830.8	27959.55
850.8886	983.1808	28802.2	27929.95
851.0337	985.1849	28746.05	27868.2
851.1788	987.1884	28636.45	27765
851.324	989.1911	28602.15	27728.2
851.4691	991.1932	28535.55	27666.1
851.6142	993.1945	28382.45	27513.75
851.7593	995.1951	28210.65	27340.65
851.9045	997.1951	28229.05	27353.7
852.0496	999.1943	28146.25	27275.6
852.1947	1001.1928	28009.85	27137.05
852.3398	1003.1906	27854.4	26983.05
852.4849	1005.1877	27864.3	26991.9
852.63	1007.1841	27754.65	26882.65
852.7751	1009.1798	27660.25	26789.7
852.9202	1011.1748	27579.8	26710.05
853.0653	1013.1691	27461.5	26588.6
853.2104	1015.1627	27371.55	26501.2
853.3555	1017.1556	27163.8	26293.8
853.5006	1019.1477	27095.1	26220.65
853.6457	1021.1392	26949.7	26079.65
853.7908	1023.1299	26851.2	25979
853.9359	1025.12	26724.8	25851.25
854.081	1027.1093	26622.5	25753.75
854.2261	1029.0979	26554.65	25687.25
854.3712	1031.0859	26475.45	25605.35
854.5163	1033.0731	26412.6	25539.15
854.6613	1035.0596	26306.55	25435.1
854.8064	1037.0454	26195.35	25323.4
854.9515	1039.0304	26124.3	25252.45
855.0965	1041.0148	25996.75	25123.95
855.2416	1042.9985	25902.1	25025.35
855.3867	1044.9814	25904.25	25031.1
855.5317	1046.9636	25781.6	24907.1
855.6768	1048.9452	25668.55	24796.65
855.8219	1050.926	25645.3	24773.15
855.9669	1052.9061	25520.1	24648.15
856.112	1054.8855	25522.75	24648
856.257	1056.8642	25488.5	24615.4
856.4021	1058.8421	25438.95	24560.65
856.5471	1060.8194	25323.4	24449.5
856.6921	1062.7959	25287.25	24414.25
856.8372	1064.7717	25253	24378.3
856.9822	1066.7469	25134.5	24258.7
857.1272	1068.7213	25088.7	24212.2
857.2723	1070.695	25100.55	24226.95
857.4173	1072.6679	24972.2	24099.05
857.5623	1074.6402	24967.4	24093.35
857.7073	1076.6117	24969.75	24090.4
857.8523	1078.5826	24934.75	24060.35
857.9973	1080.5527	24817	23936.85
858.1423	1082.5221	24693.85	23819.05
858.2873	1084.4908	24659.95	23781.9
858.4323	1086.4587	24572.9	23696.65
858.5773	1088.426	24524.05	23649.4
858.7223	1090.3925	24398.65	23516.45
858.8673	1092.3584	24387.35	23513.4
859.0123	1094.3235	24261.65	23385.9
859.1573	1096.2879	24211.05	23336.35
859.3022	1098.2515	24166.05	23290.2
859.4472	1100.2145	24185.25	23310.55
859.5922	1102.1767	24087.5	23207.6
859.7371	1104.1382	24057.3	23180.9
859.8821	1106.099	24034.25	23156.9
860.027	1108.0591	23983.4	23108.85
860.172	1110.0185	23974.7	23097.75
860.3169	1111.9771	23991.2	23114.25
860.4619	1113.9351	23911.3	23034.6
860.6068	1115.8923	23888.6	23013
860.7517	1117.8488	23818	22940.5
860.8967	1119.8045	23704.6	22828.7
861.0416	1121.7596	23646.25	22769.6
861.1865	1123.7139	23467.1	22588.9
861.3314	1125.6675	23374	22498.1
861.4763	1127.6204	23408.65	22532.05
861.6212	1129.5726	23304.05	22426.3
861.7661	1131.524	23256.4	22381.7
861.911	1133.4748	23233.8	22355.8
862.0559	1135.4248	23100.5	22222.9
862.2008	1137.3741	23061	22185.55
862.3457	1139.3226	22981.25	22104.15
862.4905	1141.2705	22962.45	22084.6
862.6354	1143.2176	22834.45	21951.3
862.7803	1145.164	22822.15	21946.15
862.9251	1147.1097	22773.05	21895.1
863.07	1149.0546	22762.35	21882.4
863.2148	1150.9989	22724.45	21849.5
863.3597	1152.9424	22667.6	21788.65
863.5045	1154.8852	22606.55	21727.95
863.6493	1156.8272	22559.75	21684.8
863.7942	1158.7686	22571.25	21687.9
863.939	1160.7092	22479.8	21602.3
864.0838	1162.6491	22367.75	21487.45
864.2286	1164.5883	22381.75	21504.15
864.3734	1166.5267	22312.9	21433.3
864.5182	1168.4644	22351.05	21474.5
864.663	1170.4014	22300.7	21418.45
864.8078	1172.3377	22340.85	21465
864.9526	1174.2732	22325.9	21448.15
865.0974	1176.2081	22321.9	21447.15
865.2421	1178.1421	22351.05	21468.9
865.3869	1180.0755	22452.7	21576.2
865.5317	1182.0082	22361	21482.5
865.6764	1183.9401	22364	21481.2
865.8212	1185.8713	22192.6	21317.25
865.9659	1187.8017	22092.95	21213.05
866.1106	1189.7315	22008.25	21134.05
866.2554	1191.6605	21803.85	20927.4
866.4001	1193.5888	21679.3	20800.7
866.5448	1195.5163	21637.75	20761.2
866.6895	1197.4432	21547.25	20666.9
866.8342	1199.3693	21449.65	20572.5
866.9789	1201.2947	21354.6	20473.4
867.1236	1203.2193	21288.55	20410.6
867.2683	1205.1432	21226.5	20347.25
867.413	1207.0664	21155.25	20273.9
867.5576	1208.9889	21107.55	20226.5
867.7023	1210.9106	21044.75	20166.75
867.847	1212.8316	20968.7	20088.15
867.9916	1214.7519	20931.75	20041.65
868.1363	1216.6715	20822.9	19944.7
868.2809	1218.5903	20815.3	19937.2
868.4255	1220.5084	20796.95	19917.9
868.5701	1222.4257	20774.25	19895.75
868.7148	1224.3424	20665.8	19786.7
868.8594	1226.2583	20654.4	19770.85
869.004	1228.1735	20620.4	19738.65
869.1486	1230.0879	20526.3	19643.2
869.2932	1232.0016	20512.85	19633.5
869.4377	1233.9146	20491.15	19611
869.5823	1235.8269	20427.25	19547
869.7269	1237.7384	20428.35	19549.45
869.8715	1239.6492	20336.15	19457.95
870.016	1241.5592	20324.95	19445.1
870.1606	1243.4686	20306.95	19428.9
870.3051	1245.3772	20311.4	19431.85
870.4496	1247.285	20299.2	19418.8
870.5941	1249.1922	20294.95	19414.8
870.7387	1251.0986	20343.65	19466.55
870.8832	1253.0042	20285.5	19407.4
871.0277	1254.9092	20303.95	19423.95
871.1722	1256.8134	20324.3	19447.7
871.3167	1258.7169	20410.9	19530.8
871.4611	1260.6196	20379.85	19499.75
871.6056	1262.5216	20420.3	19537.65
871.7501	1264.4229	20387.35	19506.6
871.8945	1266.3234	20308.2	19426.65
872.039	1268.2232	20225.4	19342.4
872.1834	1270.1223	20152.95	19271.8
872.3278	1272.0207	20063.85	19183.4
872.4723	1273.9183	20061.95	19176.9
872.6167	1275.8151	19981.8	19100.25
872.7611	1277.7113	19963.65	19081.85
872.9055	1279.6067	20019.9	19139
873.0499	1281.5014	20051.8	19169.85
873.1943	1283.3953	20142.35	19260.55
873.3386	1285.2885	20313.7	19432
873.483	1287.181	20417.2	19536.65
873.6274	1289.0727	20481.65	19603.8
873.7717	1290.9637	20405.85	19524.45
873.9161	1292.854	20314.45	19433.8
874.0604	1294.7435	20116.15	19232.3
874.2047	1296.6323	20034.4	19153.45
874.349	1298.5204	19909.45	19026.45
874.4933	1300.4077	19834.9	18951.65
874.6376	1302.2943	19804.55	18926.05
874.7819	1304.1802	19750.35	18868.7
874.9262	1306.0653	19625.9	18740.95
875.0705	1307.9497	19572.5	18691.6
875.2147	1309.8333	19556.65	18675.25
875.359	1311.7162	19548.45	18665.95
875.5032	1313.5984	19478.55	18594.75
875.6475	1315.4798	19422.6	18538.25
875.7917	1317.3605	19363.55	18478
875.9359	1319.2405	19398	18513.95
876.0801	1321.1197	19363	18478.05
876.2243	1322.9982	19303.3	18416.7
876.3685	1324.876	19270.25	18386.5
876.5127	1326.753	19170.35	18290.4
876.6569	1328.6293	19087.25	18205.3
876.801	1330.5048	19018.8	18133.35
876.9452	1332.3796	18893.95	18012.4
877.0893	1334.2537	18865.45	17961.95
877.2335	1336.127	18760.25	17877.05
877.3776	1337.9996	18680.2	17796.75
877.5217	1339.8714	18626.45	17744.7
877.6658	1341.7426	18621.5	17694.85
877.8099	1343.6129	18585.15	17704.7
877.954	1345.4826	18504.75	17622.85
878.0981	1347.3515	18495.95	17609.8
878.2422	1349.2196	18447.95	17564.3
878.3862	1351.087	18433	17551.3
878.5303	1352.9537	18392.75	17510.5
878.6743	1354.8197	18396.85	17514.85
878.8184	1356.6849	18402.8	17520.1
878.9624	1358.5493	18337.1	17453.1
879.1064	1360.4131	18351.9	17470.75
879.2504	1362.276	18303.35	17419.75
879.3944	1364.1383	18303.05	17422.35
879.5384	1365.9998	18279.2	17392.05
879.6823	1367.8606	18190.25	17307.65
879.8263	1369.7206	18160.4	17277.7
879.9702	1371.5799	18128.15	17245.35
880.1142	1373.4384	18035.95	17152
880.2581	1375.2962	18073.6	17188.65
880.402	1377.1533	17926.8	17045.15
880.5459	1379.0096	17814.65	16932.1
880.6898	1380.8652	17752.5	16870.35
880.8337	1382.7201	17660.75	16778.85
880.9776	1384.5742	17602.7	16720.1
881.1215	1386.4275	17501.8	16619.45
881.2653	1388.2802	17411.55	16530.1
881.4092	1390.132	17374.55	16494.4
881.553	1391.9832	17363.75	16478.45
881.6968	1393.8336	17252.9	16370.9
881.8406	1395.6832	17192.5	16307.2
881.9844	1397.5322	17147.7	16265.45
882.1282	1399.3803	17084.9	16197.35
882.272	1401.2278	17025.75	16141.8
882.4158	1403.0745	16974.4	16088.75
882.5595	1404.9204	16883.55	16001.45
882.7033	1406.7656	16900.65	16018.65
882.847	1408.6101	16808.8	15924.85
882.9908	1410.4538	16723.2	15841.5
883.1345	1412.2968	16699.6	15816.65
883.2782	1414.139	16617.8	15737.55
883.4219	1415.9805	16644	15761.95
883.5656	1417.8213	16533.55	15628.2
883.7092	1419.6613	16433.75	15550.5
883.8529	1421.5006	16482.15	15597.8
883.9965	1423.3391	16468.5	15585.5
884.1402	1425.1769	16420	15536.1
884.2838	1427.0139	16446.65	15562.35
884.4274	1428.8502	16457	15573.8
884.571	1430.6858	16482.45	15600.65
884.7146	1432.5206	16426.6	15543.65
884.8582	1434.3547	16427.9	15541.8
885.0018	1436.188	16386	15502.4
885.1453	1438.0206	16380.6	15496.85
885.2889	1439.8524	16292.35	15411
885.4324	1441.6835	16275.35	15393.45
885.5759	1443.5139	16217.8	15330.9
885.7194	1445.3435	16189.5	15307.8
885.8629	1447.1724	16210.9	15326.65
886.0064	1449.0005	16170.1	15285.95
886.1499	1450.8279	16129.9	15244.1
886.2933	1452.6545	16119.6	15237.9
886.4368	1454.4804	16095.55	15213.2
886.5802	1456.3056	16045.6	15157.25
886.7237	1458.13	16044.95	15163.6
886.8671	1459.9536	15971.45	15086.85
887.0105	1461.7766	15933.3	15049.7
887.1539	1463.5987	15880.95	14995.25
887.2972	1465.4202	15800.7	14916.55
887.4406	1467.2409	15724.85	14840.55
887.584	1469.0608	15727.75	14846.35
887.7273	1470.88	15629.2	14744.1
887.8706	1472.6984	15576.3	14693.15
888.0139	1474.5161	15488.95	14602.7
888.1572	1476.3331	15462.4	14580.3
888.3005	1478.1493	15466.4	14581.3
888.4438	1479.9648	15441.5	14556
888.5871	1481.7795	15379.5	14496.05
888.7303	1483.5935	15346.45	14463.3
888.8736	1485.4067	15331.8	14447.75
889.0168	1487.2192	15324.7	14441.75
889.16	1489.031	15349.55	14465.6
889.3032	1490.842	15273.8	14390.25
889.4464	1492.6522	15262.25	14379.05
889.5896	1494.4618	15207.2	14322.2
889.7327	1496.2705	15188.05	14304.3
889.8759	1498.0785	15156.35	14271
890.019	1499.8858	15064.65	14179.45
890.1622	1501.6924	15047.25	14165.15
890.3053	1503.4981	15041.6	14155
890.4484	1505.3032	15001.7	14118.6
890.5914	1507.1075	14918.35	14034.05
890.7345	1508.911	14901.05	14017.1
890.8776	1510.7138	14856.1	13971.9
891.0206	1512.5159	14834.8	13952.55
891.1637	1514.3172	14776.8	13894.35
891.3067	1516.1178	14718.25	13836.6
891.4497	1517.9176	14695.3	13806.75
891.5927	1519.7166	14616.7	13732.55
891.7357	1521.515	14590.95	13702.35
891.8786	1523.3126	14550.05	13666.55
892.0216	1525.1094	14517.6	13634.1
892.1645	1526.9055	14464.2	13580.05
892.3074	1528.7008	14398.25	13513.85
892.4503	1530.4954	14324.2	13432.4
892.5932	1532.2893	14284.2	13402.65
892.7361	1534.0824	14183.5	13293.05
892.879	1535.8747	14190.85	13305.9
893.0218	1537.6663	14151.25	13266.9
893.1647	1539.4572	14093.75	13206.55
893.3075	1541.2473	14084	13200.95
893.4503	1543.0367	13978.8	13096.35
893.5931	1544.8253	13933.85	13044.9
893.7359	1546.6132	13916.3	13028.2
893.8787	1548.4003	13846.1	12953.05
894.0214	1550.1867	13841.9	12949.35
894.1642	1551.9723	13785.8	12897.3
894.3069	1553.7572	13783.35	12901.45
894.4496	1555.5414	13729.8	12845.1
894.5923	1557.3247	13699.25	12814.75
894.735	1559.1074	13673.55	12792.95
894.8777	1560.8893	13682.65	12799.75
895.0204	1562.6705	13645.85	12761.05
895.163	1564.4509	13599.6	12717.5
895.3056	1566.2305	13571.5	12690.7
895.4482	1568.0094	13608.1	12726.1
895.5908	1569.7876	13594.75	12712.25
895.7334	1571.565	13530.95	12647.45
895.876	1573.3417	13475	12593.75
896.0186	1575.1176	13476.55	12592.75
896.1611	1576.8928	13412.1	12528.1
896.3036	1578.6672	13366.5	12485
896.4461	1580.4409	13336.8	12454.4
896.5886	1582.2138	13303.7	12418.75
896.7311	1583.986	13312.8	12429.55
896.8736	1585.7575	13307.25	12426.25
897.0161	1587.5282	13297.1	12414.75
897.1585	1589.2981	13312.15	12430.3
897.3009	1591.0673	13259.6	12378.25
897.4433	1592.8358	13238.25	12357.7
897.5857	1594.6035	13204.65	12321.3
897.7281	1596.3704	13136	12253.4
897.8705	1598.1366	13060.7	12177.7
898.0128	1599.9021	13027.2	12144.3
898.1551	1601.6668	12905.45	12020.3
898.2975	1603.4308	12874.15	11990.2
898.4398	1605.194	12828.5	11940.8
898.5821	1606.9564	12792.8	11910.4
898.7243	1608.7182	12796.1	11909.85
898.8666	1610.4791	12821.5	11941.3
899.0088	1612.2394	12843.15	11961.5
899.1511	1613.9988	12868.5	11987.25
899.2933	1615.7576	12894	12011.4
899.4355	1617.5156	12928.4	12040.05
899.5776	1619.2728	12891.65	12009.75
899.7198	1621.0293	12807.2	11923.2
899.862	1622.785	12689.1	11804.45
900.0041	1624.54	12540.8	11654.4
900.1462	1626.2942	12403.35	11519.95
900.2883	1628.0477	12280.15	11394.1
900.4304	1629.8005	12173.75	11288.15
900.5725	1631.5525	12066.25	11185.1
900.7145	1633.3037	11980.3	11097.8
900.8566	1635.0542	11926.75	11044.25
900.9986	1636.804	11857.65	10976.3
901.1406	1638.553	11897.95	10927.65
901.2826	1640.3013	11763.5	10880.6
901.4245	1642.0488	11704.4	10822.25
901.5665	1643.7955	11666.55	10785.8
901.7085	1645.5416	11607.25	10726.1
901.8504	1647.2868	11577.55	10697
901.9923	1649.0313	11511.6	10629.3
902.1342	1650.7751	11490.95	10607
902.2761	1652.5181	11467.7	10585.3
902.4179	1654.2604	11419.1	10536.75
902.5598	1656.0019	11402.9	10521.35
902.7016	1657.7427	11350.1	10467.9
902.8434	1659.4828	11361	10479.05
902.9852	1661.222	11319.6	10438.15
903.127	1662.9606	11305.65	10424.2
903.2687	1664.6984	11327.5	10444.6
903.4105	1666.4354	11318.6	10435.7
903.5522	1668.1717	11269.2	10387.15
903.6939	1669.9072	11194.05	10311.9
903.8356	1671.642	11132.65	10248.15
903.9773	1673.3761	11079.9	10195.95
904.119	1675.1094	11016.8	10133.7
904.2606	1676.8419	10961.65	10079.8
904.4022	1678.5737	10885.7	10004.1
904.5439	1680.3048	10817.8	9936.55
904.6855	1682.0351	10773.2	9892.1
904.827	1683.7646	10711.55	9825.7
904.9686	1685.4934	10696.65	9813.25
905.1101	1687.2215	10632.2	9749.65
905.2517	1688.9488	10583.45	9699.85
905.3932	1690.6754	10535.65	9655.15
905.5347	1692.4012	10497.5	9614.3
905.6761	1694.1263	10425.75	9544.15
905.8176	1695.8506	10436.75	9551.9
905.9591	1697.5742	10414.7	9533.75
906.1005	1699.297	10349.15	9466.95
906.2419	1701.0191	10272.6	9390.65
906.3833	1702.7404	10248.95	9368.8
906.5246	1704.461	10194.4	9309.55
906.666	1706.1808	10164.75	9281.4
906.8073	1707.8999	10121.3	9238.65
906.9487	1709.6182	10075.6	9193.4
907.09	1711.3358	10068.7	9186.9
907.2313	1713.0527	10060.5	9180.5
907.3725	1714.7688	10004.3	9116.3
907.5138	1716.4841	9969.9	9086.15
907.655	1718.1987	9949.55	9062.45
907.7962	1719.9126	9911.9	9031.6
907.9374	1721.6257	9881.6	8996.4
908.0786	1723.338	9869.45	8986.4
908.2198	1725.0496	9816.55	8933.2
908.3609	1726.7605	9810.7	8926.7
908.502	1728.4706	9762.95	8881.05
908.6431	1730.18	9735.1	8850
908.7842	1731.8886	9724.25	8842.4
908.9253	1733.5964	9701.55	8798.7
909.0664	1735.3036	9681.4	8796.5
909.2074	1737.0099	9682.5	8800.75
909.3484	1738.7156	9654.85	8774.4
909.4894	1740.4204	9634.1	8748.35
909.6304	1742.1246	9611	8728.15
909.7714	1743.8279	9573.25	8693.6
909.9123	1745.5306	9550.3	8669.2
910.0532	1747.2325	9550.9	8670.2
910.1941	1748.9336	9517.4	8636.3
910.335	1750.634	9498.05	8615.7
910.4759	1752.3336	9464.45	8582.15
910.6168	1754.0325	9472.3	8591.65
910.7576	1755.7307	9451.4	8567.8
910.8984	1757.4281	9432.25	8548.35
911.0392	1759.1247	9417.7	8527.45
911.18	1760.8206	9389.6	8502.7
911.3208	1762.5158	9405.75	8519
911.4615	1764.2102	9356.85	8474.9
911.6022	1765.9039	9316.35	8431.8
911.7429	1767.5968	9297.2	8416.65
911.8836	1769.289	9285.35	8402.75
912.0243	1770.9804	9256.85	8374.55
912.1649	1772.6711	9251.3	8367.75
912.3056	1774.361	9241.6	8359.4
912.4462	1776.0502	9238.45	8356.35
912.5868	1777.7386	9206.95	8319.75
912.7274	1779.4263	9162.35	8279.25
912.8679	1781.1132	9127.8	8243.85
913.0084	1782.7994	9108.9	8225.5
913.149	1784.4849	9113.5	8232.5
913.2895	1786.1696	9087.8	8186.45
913.4299	1787.8535	9059.85	8177.9
913.5704	1789.5367	9043.55	8162.9
913.7108	1791.2192	9022.35	8140.2
913.8513	1792.9009	8947	8048.7
913.9917	1794.5818	8956.9	8072.8
914.132	1796.2621	8925	8042.85
914.2724	1797.9415	8896.65	8014.8
914.4128	1799.6202	8865.5	7981.95
914.5531	1801.2982	8862.6	7979.15
914.6934	1802.9755	8859.25	7977.3
914.8337	1804.6519	8823.05	7940.2
914.9739	1806.3277	8789.65	7907.7
915.1142	1808.0027	8765.5	7883.95
915.2544	1809.6769	8771.3	7889.05
915.3946	1811.3504	8730.6	7846.45
915.5348	1813.0231	8729.8	7847.1
915.675	1814.6951	8719.15	7838.75
915.8151	1816.3664	8721.35	7836.25
915.9553	1818.0369	8669.15	7787.3
916.0954	1819.7067	8630.2	7748.95
916.2355	1821.3757	8637.8	7754.35
916.3755	1823.044	8597.65	7714.45
916.5156	1824.7115	8596.05	7711.95
916.6556	1826.3783	8540.9	7660.95
916.7956	1828.0443	8535.75	7655.45
916.9356	1829.7096	8515.65	7632.55
917.0756	1831.3741	8518.05	7632.75
917.2155	1833.0379	8477.3	7595.55
917.3555	1834.701	8481.6	7598.2
917.4954	1836.3633	8469	7588.1
917.6353	1838.0248	8435	7549.15
917.7751	1839.6856	8404.75	7523.7
917.915	1841.3457	8405.95	7523.8
918.0548	1843.005	8366.7	7484.25
918.1946	1844.6636	8345.5	7464.55
918.3344	1846.3214	8353.15	7470.95
918.4742	1847.9785	8341.15	7461.65
918.6139	1849.6349	8307.2	7423.8
918.7537	1851.2904	8305.1	7413.65
918.8934	1852.9453	8267.25	7384.25
919.0331	1854.5994	8232.1	7348.35
919.1727	1856.2528	8219.95	7332.35
919.3124	1857.9054	8215.75	7332.25
919.452	1859.5572	8195.2	7313.65
919.5916	1861.2083	8201.6	7315.95
919.7312	1862.8587	8184.2	7301.1
919.8708	1864.5084	8152.05	7270.35
920.0103	1866.1572	8137.95	7255.95
920.1498	1867.8054	8097.7	7214.5
920.2893	1869.4528	8084.65	7200.45
920.4288	1871.0994	8055.85	7172
920.5683	1872.7453	8047.3	7163.85
920.7077	1874.3905	8030.7	7141
920.8471	1876.0349	8014.75	7132.75
920.9865	1877.6786	8018.9	7134.7
921.1259	1879.3215	8012.15	7131.9
921.2653	1880.9637	7978.15	7090.95
921.4046	1882.6051	7960.3	7079.85
921.5439	1884.2458	7940	7054
921.6832	1885.8858	7919.4	7035.85
921.8225	1887.525	7926.75	7040.4
921.9617	1889.1634	7885.1	7003.65
922.101	1890.8011	7858.2	6976.35
922.2402	1892.4381	7835.3	6951.45
922.3794	1894.0743	7844.75	6962.45
922.5185	1895.7098	7809.95	6926.6
922.6577	1897.3446	7792.5	6910.4
922.7968	1898.9786	7782.85	6896.5
922.9359	1900.6118	7760.3	6877.45
923.075	1902.2443	7744.4	6862.1
923.214	1903.8761	7735.25	6854.55
923.3531	1905.5071	7684.85	6800.55
923.4921	1907.1374	7655.4	6772.8
923.6311	1908.7669	7646.65	6762.6
923.77	1910.3957	7631.9	6750.45
923.909	1912.0237	7589.85	6705.9
924.0479	1913.651	7592.25	6709.85
924.1868	1915.2776	7570.35	6688.35
924.3257	1916.9034	7536.1	6655.7
924.4646	1918.5285	7494.85	6613.65
924.6034	1920.1528	7453.2	6571.4
924.7422	1921.7764	7480.1	6597.05
924.881	1923.3992	7440.75	6557.7
925.0198	1925.0213	7395.75	6510.65
925.1586	1926.6427	7363	6482.45
925.2973	1928.2633	7543.1	6452.7
925.436	1929.8832	7366.3	6480.3
925.5747	1931.5023	7341.3	6457.95
925.7134	1933.1207	7307.85	6423.9
925.852	1934.7383	7293.7	6409.5
925.9906	1936.3552	7273	6393.2
926.1292	1937.9714	7252.95	6370.45
926.2678	1939.5868	7214.8	6332.15
926.4064	1941.2015	7197	6314.85
926.5449	1942.8154	7172.1	6288.65
926.6834	1944.4286	7141.95	6259.4
926.8219	1946.041	7140.15	6235.95
926.9604	1947.6528	7082.95	6195.25
927.0988	1949.2637	7077.3	6195.2
927.2372	1950.8739	7049.25	6163.55
927.3756	1952.4834	7045.15	6162.2
927.514	1954.0921	7042.4	6158.5
927.6523	1955.7001	7017.95	6133.05
927.7907	1957.3074	7001.7	6120.75
927.929	1958.9139	6971.95	6091.65
928.0673	1960.5197	6948.4	6064.5
928.2055	1962.1247	6917.35	6036.25
928.3438	1963.729	6908.15	6025.25
928.482	1965.3325	6904.85	5998.8
928.6202	1966.9353	6869.9	5987.75
928.7584	1968.5374	6854.3	5970.6
928.8965	1970.1387	6837.45	5955.5
929.0346	1971.7393	6803.75	5920.6
929.1727	1973.3392	6781.5	5900.3
929.3108	1974.9383	6763.5	5882
929.4489	1976.5366	6744.85	5863.2
929.5869	1978.1342	6740.4	5857.15
929.7249	1979.7311	6730.05	5846.65
929.8629	1981.3273	6688.8	5805.4
930.0009	1982.9227	6671.75	5788.4
930.1388	1984.5173	6665.45	5784
930.2767	1986.1112	6637.4	5756.2
930.4146	1987.7044	6632.75	5752.3
930.5525	1989.2968	6613.45	5728.75
930.6904	1990.8885	6604.75	5721.2
930.8282	1992.4795	6581	5698.95
930.966	1994.0697	6568.15	5686.05
931.1038	1995.6592	6539.25	5657.6
931.2415	1997.2479	6540.4	5658.7
931.3793	1998.8359	6516.2	5633.3
931.517	2000.4232	6500.3	5620.55
931.6547	2002.0097	6472.75	5593.05
931.7923	2003.5955	6462.2	5580.05
931.93	2005.1805	6457.35	5575.05
932.0676	2006.7648	6457.2	5576.35
932.2052	2008.3484	6434.6	5553.15
932.3427	2009.9312	6433.75	5549.65
932.4803	2011.5133	6378.6	5500.3
932.6178	2013.0946	6370.8	5490.7
932.7553	2014.6752	6361.1	5480.55
932.8928	2016.2551	6340.05	5459.55
933.0302	2017.8342	6338.25	5458.75
933.1676	2019.4126	6320.75	5441.2
933.305	2020.9902	6292.3	5412.75
933.4424	2022.5672	6274.9	5392.25
933.5798	2024.1433	6293.4	5406.85
933.7171	2025.7188	6273.1	5394.05
933.8544	2027.2935	6234.15	5353.85
933.9917	2028.8674	6207.7	5327.9
934.129	2030.4406	6205.05	5322.9
934.2662	2032.0131	6189.3	5311.4
934.4034	2033.5849	6167.4	5281.35
934.5406	2035.1559	6136.65	5257.85
934.6778	2036.7261	6155.6	5276.4
934.8149	2038.2957	6126.8	5246.15
934.952	2039.8645	6121.05	5242.1
935.0891	2041.4325	6138.7	5253.85
935.2262	2042.9998	6136.1	5257.5
935.3632	2044.5664	6093.9	5211.15
935.5002	2046.1323	6094.1	5213.35
935.6372	2047.6974	6068.2	5188.35
935.7742	2049.2617	6060.5	5179.85
935.9111	2050.8254	6071.05	5172.35
936.048	2052.3883	6076.25	5194.7
936.1849	2053.9504	6048.85	5168.35
936.3218	2055.5118	5997.7	5115.4
936.4586	2057.0725	5985	5101.9
936.5955	2058.6325	5987.95	5106.05
936.7323	2060.1917	5972.1	5093.95
936.869	2061.7502	5983.95	5100.15
937.0058	2063.3079	5955.2	5076.75
937.1425	2064.8649	5942.95	5058.8
937.2792	2066.4212	5928.65	5048
937.4159	2067.9767	5925.8	5045.75
937.5525	2069.5315	5903.85	5022.25
937.6891	2071.0856	5873.5	4992.7
937.8257	2072.6389	5865.65	4983.75
937.9623	2074.1915	5834.35	4955.5
938.0989	2075.7433	5810.6	4928
938.2354	2077.2945	5817	4936.95
938.3719	2078.8448	5806.6	4927.45
938.5084	2080.3945	5789.75	4907.3
938.6448	2081.9434	5769.05	4888.15
938.7812	2083.4916	5754.6	4872.15
938.9176	2085.039	5770.55	4887.9
939.054	2086.5857	5744.85	4861.9
939.1903	2088.1317	5726.55	4845.4
939.3267	2089.677	5730.15	4847.35
939.463	2091.2215	5711.35	4831.55
939.5992	2092.7652	5703.9	4822.95
939.7355	2094.3083	5679.45	4797.75
939.8717	2095.8506	5686.6	4805.35
940.0079	2097.3921	5684.5	4805.15
940.1441	2098.933	5667.8	4786.45
940.2802	2100.4731	5653.1	4774.2
940.4163	2102.0124	5666.15	4766.85
940.5524	2103.5511	5625.85	4746.9
940.6885	2105.089	5638.45	4754.55
940.8245	2106.6261	5626	4746.7
940.9606	2108.1626	5614.9	4732.8
941.0965	2109.6983	5632.85	4723.65
941.2325	2111.2332	5585.45	4703.8
941.3684	2112.7675	5560.4	4675.3
941.5044	2114.301	5580.35	4697.7
941.6403	2115.8337	5569.05	4689.9
941.7761	2117.3657	5563.7	4683.5
941.912	2118.897	5537.05	4654
942.0478	2120.4276	5541.4	4654.4
942.1835	2121.9575	5520.5	4638.65
942.3193	2123.4866	5516.85	4633.45
942.455	2125.0149	5501.9	4618.95
942.5907	2126.5426	5473.95	4591.4
942.7264	2128.0695	5460.4	4576.9
942.8621	2129.5956	5454.05	4574.1
942.9977	2131.1211	5458	4572.2
943.1333	2132.6458	5427.7	4548.15
943.2689	2134.1698	5420.2	4538.1
943.4044	2135.693	5427.1	4542.6
943.54	2137.2155	5402.45	4520.1
943.6755	2138.7373	5400.25	4518.75
943.8109	2140.2584	5380.5	4498.9
943.9464	2141.7787	5363.6	4477.35
944.0818	2143.2983	5350.5	4472.2
944.2172	2144.8171	5314.95	4436
944.3526	2146.3353	5332.25	4448.6
944.4879	2147.8527	5298.7	4418.15
944.6232	2149.3693	5297.6	4416.6
944.7585	2150.8853	5292.4	4412.2
944.8938	2152.4005	5257.6	4377.2
945.029	2153.9149	5260.35	4376.8
945.1642	2155.4287	5244.05	4364.25
945.2994	2156.9417	5252.55	4372.3
945.4346	2158.454	5252.25	4367.35
945.5697	2159.9655	5238.85	4359.45
945.7048	2161.4764	5213.45	4332.4
945.8399	2162.9865	5197.45	4316.8
945.9749	2164.4958	5196.3	4316.1
946.1099	2166.0045	5170.65	4285.45
946.2449	2167.5124	5179.3	4299.95
946.3799	2169.0195	5144.8	4263.45
946.5148	2170.526	5133.7	4252.3
946.6498	2172.0317	5126.45	4246.95
946.7846	2173.5367	5114.05	4232.05
946.9195	2175.0409	5102.55	4223.15
947.0543	2176.5445	5095.75	4216.35
947.1891	2178.0473	5067.55	4185.25
947.3239	2179.5494	5077.6	4195.95
947.4587	2181.0507	5051.3	4169.3
947.5934	2182.5513	5030.05	4149.8
947.7281	2184.0512	5030	4149.75
947.8628	2185.5504	5013.95	4132.75
947.9974	2187.0488	5003.45	4123.75
948.132	2188.5465	4982.95	4103.3
948.2666	2190.0435	4973.3	4091.35
948.4012	2191.5397	4968	4085.05
948.5357	2193.0353	4955.7	4074.55
948.6702	2194.5301	4923.3	4042.3
948.8047	2196.0241	4922.05	4041
948.9392	2197.5175	4891.3	4011
949.0736	2199.0101	4903.5	4018.6
949.208	2200.502	4871	3993.5
949.3424	2201.9931	4851.1	3970.95
949.4767	2203.4835	4838.25	3957.5
949.611	2204.9733	4833.15	3946.6
949.7453	2206.4622	4834.8	3954.95
949.8796	2207.9505	4805.25	3921.65
950.0138	2209.438	4804.25	3924.65
950.148	2210.9248	4780.35	3898.6
950.2822	2212.4109	4766.5	3886.8
950.4164	2213.8962	4748.65	3865.55
950.5505	2215.3809	4750.1	3867.85
950.6846	2216.8648	4740.1	3859.85
950.8186	2218.3479	4740.15	3856.2
950.9527	2219.8304	4709.45	3825.85
951.0867	2221.3121	4705.8	3823.5
951.2207	2222.7931	4676.25	3795.15
951.3546	2224.2733	4664.25	3781.2
951.4886	2225.7529	4659.7	3777.8
951.6225	2227.2317	4634.85	3751.55
951.7563	2228.7098	4636.7	3758.05
951.8902	2230.1872	4608.6	3727.65
952.024	2231.6638	4608.2	3726.8
952.1578	2233.1397	4606.15	3718.1
952.2916	2234.6149	4587.5	3708.15
952.4253	2236.0894	4551	3668.05
952.559	2237.5632	4557.5	3676.95
952.6927	2239.0362	4537.1	3655.1
952.8263	2240.5085	4532.1	3651.4
952.9599	2241.9801	4517.35	3636.15
953.0935	2243.4509	4516.3	3636.75
953.2271	2244.921	4503.7	3622.25
953.3606	2246.3904	4477.9	3594.7
953.4941	2247.8591	4477.55	3596.95
953.6276	2249.3271	4461.1	3579.85
953.7611	2250.7943	4447.45	3566
953.8945	2252.2608	4434.05	3552.7
954.0279	2253.7266	4428.9	3548.9
954.1612	2255.1917	4412.35	3532.35
954.2946	2256.656	4401.7	3519.7
954.4279	2258.1197	4392.35	3512.5
954.5612	2259.5826	4378.5	3495.95
954.6944	2261.0447	4365.7	3484.2
954.8276	2262.5062	4357	3474.45
954.9608	2263.9669	4349.25	3464.95
955.094	2265.4269	4362.6	3483.3
955.2271	2266.8862	4333.8	3452.65
955.3602	2268.3448	4316.6	3434.55
955.4933	2269.8026	4315.7	3434.65
955.6264	2271.2598	4292.35	3411.6
955.7594	2272.7162	4282.3	3403.85
955.8924	2274.1719	4268.9	3388.25
956.0253	2275.6268	4259.2	3378.65
956.1583	2277.0811	4258.55	3378.35
956.2912	2278.5346	4260.1	3380
956.4241	2279.9874	4241.75	3361.45
956.5569	2281.4395	4235.3	3355.3
956.6897	2282.8908	4217.7	3332.25
956.8225	2284.3414	4225.25	3342.9
956.9553	2285.7914	4204.85	3323.8
957.088	2287.2406	4193.35	3309.95
957.2207	2288.689	4190.1	3307
957.3534	2290.1368	4180.3	3297.6
957.486	2291.5838	4169.9	3286.6
957.6186	2293.0302	4149.2	3266.2
957.7512	2294.4758	4129.2	3250.2
957.8838	2295.9206	4121.9	3240.3
958.0163	2297.3648	4104	3223.85
958.1488	2298.8082	4111.35	3228.8
958.2813	2300.251	4084.4	3204.1
958.4137	2301.693	4093.95	3210.35
958.5461	2303.1343	4093.8	3213.1
958.6785	2304.5748	4078.3	3197.05
958.8108	2306.0147	4066.05	3184.65
958.9432	2307.4538	4050	3167.45
959.0754	2308.8922	4048.9	3168.9
959.2077	2310.3299	4038	3158.15
959.3399	2311.7669	4021.25	3141.05
959.4721	2313.2031	4002.7	3121.05
959.6043	2314.6387	3978.15	3096.95
959.7365	2316.0735	3974.6	3093.65
959.8686	2317.5076	3972.65	3090.1
960.0006	2318.941	3981.2	3100
960.1327	2320.3737	3957.95	3075.85
960.2647	2321.8056	3958.65	3075.1
960.3967	2323.2369	3939.8	3058.75
960.5287	2324.6674	3933.9	3050.05
960.6606	2326.0972	3927.35	3044.7
960.7925	2327.5263	3914.8	3035.7
960.9244	2328.9547	3912.95	3032
961.0562	2330.3823	3890.55	3010.5
961.1881	2331.8092	3878.4	2993.15
961.3198	2333.2355	3861.8	2977.95
961.4516	2334.661	3868.1	2987.45
961.5833	2336.0858	3866.05	2981.85
961.715	2337.5098	3831.05	2949.6
961.8467	2338.9332	3845.05	2962.1
961.9783	2340.3558	3833.25	2948.45
962.1099	2341.7778	3814.35	2934.4
962.2415	2343.199	3801.8	2920.05
962.373	2344.6195	3792.5	2913.85
962.5045	2346.0393	3788.9	2909.4
962.636	2347.4583	3774.5	2892.95
962.7675	2348.8767	3767.5	2885.15
962.8989	2350.2943	3769.65	2888.85
963.0303	2351.7113	3760.15	2875.3
963.1617	2353.1275	3734.7	2852.65
963.293	2354.543	3735.4	2845.35
963.4243	2355.9578	3719.7	2837.45
963.5556	2357.3718	3702.65	2821.15
963.6868	2358.7852	3692.15	2808.45
963.818	2360.1978	3678.1	2796.1
963.9492	2361.6098	3664.05	2781.95
964.0803	2363.021	3661.95	2776.5
964.2114	2364.4315	3667	2785.15
964.3425	2365.8413	3657.75	2769.7
964.4736	2367.2504	3656.95	2777.55
964.6046	2368.6587	3630.8	2748.85
964.7356	2370.0664	3635.2	2754.15
964.8666	2371.4733	3613.95	2732.1
964.9975	2372.8795	3595.5	2714.35
965.1284	2374.285	3592.3	2709.65
965.2593	2375.6899	3573.45	2692.75
965.3901	2377.0939	3566.95	2685.8
965.5209	2378.4973	3551.5	2670.75
965.6517	2379.9	3556.95	2675.65
965.7825	2381.3019	3534.85	2652.35
965.9132	2382.7032	3522.4	2641.55
966.0439	2384.1037	3526.25	2645.6
966.1745	2385.5035	3500.2	2620.5
966.3051	2386.9027	3500.6	2620.2
966.4357	2388.3011	3500.7	2615.95
966.5663	2389.6987	3490.6	2606.95
966.6968	2391.0957	3472.3	2591.2
966.8273	2392.492	3465.15	2585.6
966.9578	2393.8876	3446.2	2564.55
967.0882	2395.2824	3431	2549.15
967.2186	2396.6765	3432.3	2552.15
967.349	2398.07	3413.8	2532.2
967.4793	2399.4627	3410.05	2527.3
967.6097	2400.8547	3392.25	2510.75
967.7399	2402.246	3392.15	2505.05
967.8702	2403.6366	3377.4	2494.45
968.0004	2405.0265	3369.85	2487.55
968.1306	2406.4156	3355.45	2470.3
968.2607	2407.8041	3338.1	2450.9
968.3909	2409.1918	3309.7	2425.65
968.521	2410.5789	3329	2445
968.651	2411.9652	3317.2	2432
968.781	2413.3508	3301.8	2419.8
968.911	2414.7358	3295.05	2411
969.041	2416.12	3266.85	2384.95
969.1709	2417.5035	3271.6	2390.35
969.3008	2418.8863	3276.25	2394.6
969.4307	2420.2684	3260.4	2376.55
969.5606	2421.6497	3237	2353.7
969.6904	2423.0304	3216.5	2333.65
969.8201	2424.4104	3214.55	2331.35
969.9499	2425.7896	3208.85	2325.6
970.0796	2427.1682	3208.4	2326
970.2093	2428.546	3202.4	2316.85
970.3389	2429.9232	3193.4	2309.55
970.4685	2431.2996	3177.35	2294.9
970.5981	2432.6753	3174.35	2294.6
970.7277	2434.0503	3178.35	2296.7
970.8572	2435.4246	3159.95	2279.85
970.9867	2436.7982	3153.25	2269.05
971.1161	2438.1711	3152.65	2271.45
971.2456	2439.5433	3145.15	2262.3
971.375	2440.9148	3146.45	2260.05
971.5043	2442.2856	3113.3	2233.75
971.6336	2443.6557	3101.25	2218.25
971.7629	2445.025	3106.95	2225.65
971.8922	2446.3937	3102.35	2219
972.0214	2447.7617	3081.75	2198.8
972.1506	2449.1289	3082.95	2200.55
972.2798	2450.4955	3085.45	2199.9
972.4089	2451.8613	3060.75	2181.15
972.538	2453.2265	3050.45	2167.9
972.6671	2454.5909	3047.25	2164.5
972.7961	2455.9546	3036	2154.6
972.9251	2457.3177	3036.25	2156.3
973.0541	2458.68	3018.15	2135.6
973.1831	2460.0416	3036.85	2153.2
973.312	2461.4025	3023.7	2141.8
973.4408	2462.7627	3024.45	2129.35
973.5697	2464.1222	3001.25	2120.85
973.6985	2465.4811	2995.7	2114.3
973.8273	2466.8392	2970.3	2089.1
973.956	2468.1966	2976.2	2092.85
974.0847	2469.5533	2987	2103.9
974.2134	2470.9093	2965.05	2082.5
974.3421	2472.2645	2968.05	2084.85
974.4707	2473.6191	2952.4	2070.95
974.5993	2474.973	2944.7	2060.15
974.7278	2476.3262	2939.95	2057.45
974.8563	2477.6787	2938.75	2058
974.9848	2479.0305	2921.5	2039.65
975.1132	2480.3816	2911.2	2027.55
975.2417	2481.7319	2914.6	2034.2
975.37	2483.0816	2884.6	1999.75
975.4984	2484.4306	2883.45	2002.8
975.6267	2485.7789	2885.7	2004.35
975.755	2487.1264	2873.55	1989.4
975.8833	2488.4733	2851.15	1972
976.0115	2489.8195	2859	1970.45
976.1397	2491.165	2844	1959.4
976.2678	2492.5097	2837.5	1954.75
976.3959	2493.8538	2828.9	1948.75
976.524	2495.1972	2812.85	1927.55
976.6521	2496.5398	2806.75	1925.45
976.7801	2497.8818	2806.45	1921.75
976.9081	2499.2231	2800.1	1916.7
977.036	2500.5637	2783.6	1899.75
977.164	2501.9035	2783.95	1901.2
977.2918	2503.2427	2790.35	1906.5
977.4197	2504.5812	2773.95	1894.8
977.5475	2505.919	2770.3	1885.8
977.6753	2507.256	2771.8	1889.9
977.8031	2508.5924	2742.75	1859.65
977.9308	2509.9281	2746.45	1858.85
978.0585	2511.2631	2739.85	1858.4
978.1861	2512.5974	2728.95	1847.65
978.3137	2513.9309	2713.7	1830.6
978.4413	2515.2638	2736.6	1829.7
978.5689	2516.596	2710.7	1829.55
978.6964	2517.9275	2691.7	1807.7
978.8239	2519.2583	2699	1818.05
978.9513	2520.5884	2699.4	1814.2
979.0788	2521.9178	2682.1	1799.8
979.2062	2523.2465	2674.2	1793.5
979.3335	2524.5745	2662.15	1780.1
979.4608	2525.9018	2656.2	1773.15
979.5881	2527.2284	2643.6	1763.6
979.7154	2528.5543	2636.05	1756.6
979.8426	2529.8796	2636.2	1754.3
979.9698	2531.2041	2634.25	1753.7
980.0969	2532.5279	2627.35	1746.05
980.224	2533.851	2634.4	1754
980.3511	2535.1735	2629.05	1745.55
980.4781	2536.4952	2612.2	1733.45
980.6052	2537.8163	2606.95	1723.6
980.7321	2539.1366	2608	1725.5
980.8591	2540.4562	2600.05	1717.75
980.986	2541.7752	2585.6	1703
981.1129	2543.0935	2590.8	1710.45
981.2397	2544.411	2584.75	1701.05
981.3665	2545.7279	2579.05	1698.05
981.4933	2547.0441	2566.8	1685.95
981.62	2548.3596	2563.2	1678.85
981.7467	2549.6744	2559.85	1681.35
981.8734	2550.9885	2567.3	1675.65
982.0001	2552.3019	2541.95	1661.55
982.1267	2553.6146	2549.45	1666.85
982.2532	2554.9266	2556	1673.8
982.3798	2556.2379	2532.2	1648.45
982.5063	2557.5485	2533.5	1653.15
982.6327	2558.8585	2525.35	1634.8
982.7592	2560.1677	2520.1	1636.75
982.8856	2561.4762	2528.95	1646.9
983.0119	2562.7841	2525.5	1640.45
983.1383	2564.0913	2522.05	1640.75
983.2646	2565.3977	2504.1	1623.1
983.3908	2566.7035	2504	1620.85
983.517	2568.0086	2510.05	1628.1
983.6432	2569.313	2496.25	1614.7
983.7694	2570.6167	2491.65	1606.65
983.8955	2571.9197	2485.15	1603.1
984.0216	2573.222	2472.2	1587.85
984.1476	2574.5236	2472.8	1589.75
984.2737	2575.8246	2471.45	1586.55
984.3996	2577.1248	2467.4	1582.8
984.5256	2578.4244	2458.25	1577.25
984.6515	2579.7232	2450.85	1569.15
984.7774	2581.0214	2481.95	1575.85
984.9032	2582.3189	2459.3	1578.35
985.029	2583.6157	2444.35	1557.7
985.1548	2584.9118	2438.8	1554.8
985.2806	2586.2072	2423.5	1541.6
985.4063	2587.5019	2424.05	1541.8
985.5319	2588.7959	2415.6	1532.4
985.6576	2590.0893	2415.65	1531.35
985.7832	2591.3819	2410	1529.55
985.9087	2592.6739	2415.25	1533.95
986.0343	2593.9652	2396.65	1512.95
986.1597	2595.2557	2394.4	1513.55
986.2852	2596.5456	2396.1	1510.55
986.4106	2597.8348	2378.6	1497.2
986.536	2599.1234	2372.8	1492.65
986.6614	2600.4112	2365.25	1483.25
986.7867	2601.6983	2368.1	1482.55
986.912	2602.9848	2357.3	1475.15
987.0372	2604.2705	2349.3	1460.3
987.1624	2605.5556	2347.65	1464.75
987.2876	2606.84	2336.1	1453.45
987.4128	2608.1237	2325.85	1442.1
987.5379	2609.4067	2318.05	1435.7
987.6629	2610.689	2323.75	1433.6
987.788	2611.9707	2301.2	1414.65
987.913	2613.2516	2299	1411.7
988.0379	2614.5319	2292.65	1410.35
988.1629	2615.8115	2281	1398.1
988.2878	2617.0903	2285	1402.15
988.4126	2618.3685	2279	1397
988.5375	2619.6461	2262.8	1380.2
988.6622	2620.9229	2267.35	1385.75
988.787	2622.199	2265.6	1383
988.9117	2623.4745	2258.45	1377.75
989.0364	2624.7493	2253	1371.8
989.161	2626.0234	2240	1359.65
989.2857	2627.2968	2236.1	1355.1
989.4102	2628.5695	2231.95	1349.5
989.5348	2629.8415	2227.65	1347.7
989.6593	2631.1128	2212.9	1330.55
989.7837	2632.3835	2212.6	1331.35
989.9082	2633.6535	2211.15	1329.7
990.0326	2634.9228	2200.8	1319.05
990.1569	2636.1914	2198.4	1316.7
990.2812	2637.4593	2192.2	1304.6
990.4055	2638.7265	2181.7	1297.85
990.5298	2639.9931	2182.6	1301.1
990.654	2641.259	2179.9	1297.85
990.7782	2642.5242	2172.7	1290.15
990.9023	2643.7887	2168.75	1287
991.0264	2645.0525	2153.25	1270
991.1505	2646.3156	2167.7	1285.7
991.2745	2647.5781	2142.5	1263.35
991.3985	2648.8398	2125.9	1244.6
991.5225	2650.1009	2177.25	1257.35
991.6464	2651.3613	2141.65	1260.15
991.7703	2652.6211	2130.3	1248.15
991.8942	2653.8801	2127.5	1247.3
992.018	2655.1385	2123	1238.8
992.1418	2656.3961	2116	1233.75
992.2655	2657.6531	2115.2	1233.6
992.3892	2658.9094	2118.6	1237.55
992.5129	2660.1651	2116.45	1237.25
992.6366	2661.42	2109.75	1229
992.7602	2662.6743	2099.85	1216.4
992.8837	2663.9279	2094	1213.5
993.0073	2665.1808	2097.8	1217.05
993.1307	2666.433	2085.65	1202.25
993.2542	2667.6846	2078.3	1197.25
993.3776	2668.9354	2076.55	1191.3
993.501	2670.1856	2075.2	1192.65
993.6244	2671.4351	2066.35	1185.95
993.7477	2672.6839	2071.45	1189.15
993.8709	2673.9321	2063.25	1182.7
993.9942	2675.1795	2056.5	1173.6
994.1174	2676.4263	2045.05	1163
994.2405	2677.6724	2043.4	1162.45
994.3637	2678.9179	2039.35	1155.6
994.4868	2680.1626	2034	1154
994.6098	2681.4067	2033.45	1151.5
994.7328	2682.6501	2029.65	1146.4
994.8558	2683.8928	2028.95	1148.35
994.9788	2685.1348	2022.05	1140.05
995.1017	2686.3761	2019.15	1138.05
995.2245	2687.6168	2004.75	1124.6
995.3474	2688.8568	2001.85	1121.8
995.4702	2690.0961	1997.35	1118.15
995.5929	2691.3348	1997.2	1117.05
995.7156	2692.5727	1988.95	1106.05
995.8383	2693.81	1983.7	1102.7
995.961	2695.0466	1980.8	1099.2
996.0836	2696.2826	1972.05	1089.55
996.2062	2697.5178	1992.6	1090.7
996.3287	2698.7524	1981.75	1100.75
996.4512	2699.9863	1973.8	1089.75
996.5737	2701.2195	1963.65	1084.6
996.6961	2702.452	1962.55	1078.65
996.8185	2703.6839	1949.35	1068.75
996.9408	2704.9151	1957.15	1077.15
997.0631	2706.1456	1942.85	1061.8
997.1854	2707.3755	1930.75	1047.9
997.3077	2708.6046	1935.2	1052
997.4299	2709.8331	1925.95	1043.65
997.552	2711.0609	1920.8	1039.1
997.6742	2712.2881	1923.45	1040.95
997.7963	2713.5145	1923.15	1038.9
997.9183	2714.7403	1915.8	1034.65
998.0403	2715.9654	1912.45	1029.15
998.1623	2717.1899	1921.2	1026.05
998.2842	2718.4136	1898.7	1017.75
998.4062	2719.6367	1900.1	1018.75
998.528	2720.8591	1905.75	1016.4
998.6498	2722.0809	1880.55	1000.9
998.7716	2723.3019	1894.75	1010.4
998.8934	2724.5223	1882.3	999.9
999.0151	2725.7421	1891.95	1008.25
999.1368	2726.9611	1885.45	1003.45
999.2584	2728.1795	1869.45	984.65
999.38	2729.3972	1868.15	987.4
999.5016	2730.6142	1874.05	978.65
999.6231	2731.8306	1849.6	968.95
999.7446	2733.0462	1848.8	965.6
999.8661	2734.2612	1845.65	959.4
999.9875	2735.4756	1840.05	958.9
1000.1089	2736.6892	1830.8	948.3
1000.2302	2737.9022	1828.25	948.55
1000.3515	2739.1145	1818.45	938.7
1000.4728	2740.3262	1826.6	937.45
1000.594	2741.5372	1815.25	932.95
1000.7152	2742.7475	1807.75	926.9
1000.8363	2743.9571	1812.95	928.6
1000.9575	2745.1661	1810.55	925.55
1001.0785	2746.3744	1795.35	912.3
1001.1996	2747.582	1792.8	912.3
1001.3206	2748.7889	1793.9	911.35
1001.4415	2749.9952	1778.5	898.6
1001.5625	2751.2008	1789.85	906.7
1001.6833	2752.4057	1792.2	908.4
1001.8042	2753.61	1780.4	897.9
1001.925	2754.8136	1771.85	890.5
1002.0458	2756.0165	1770	891.35
1002.1665	2757.2188	1765.4	884.5
1002.2872	2758.4204	1759.9	880.1
1002.4078	2759.6213	1756.6	873.35
1002.5285	2760.8215	1758.65	873.9
1002.649	2762.0211	1745	862.35
1002.7696	2763.22	1748	865.1
1002.8901	2764.4182	1747.1	864.45
1003.0106	2765.6158	1740.05	857.7
1003.131	2766.8127	1741.35	859.45
1003.2514	2768.009	1742.6	860.95
1003.3717	2769.2045	1724.65	841.55
1003.492	2770.3994	1727.55	845.15
1003.6123	2771.5936	1722.75	840.45
1003.7325	2772.7872	1715	833.9
1003.8527	2773.9801	1719.2	836.85
1003.9729	2775.1723	1732.95	837.5
1004.093	2776.3639	1713.15	834.6
1004.2131	2777.5548	1702.1	819.65
1004.3331	2778.745	1699.7	818.1
1004.4531	2779.9346	1695.75	816.4
1004.5731	2781.1235	1698.6	816.1
1004.693	2782.3117	1690.55	810
1004.8129	2783.4992	1680.35	799.2
1004.9328	2784.6861	1681.05	798.9
1005.0526	2785.8723	1680.85	796.5
1005.1723	2787.0579	1670	788.85
1005.2921	2788.2428	1681.2	800.95
1005.4118	2789.427	1665.95	786.4
1005.5314	2790.6106	1662.5	781.6
1005.651	2791.7935	1670.6	786.75
1005.7706	2792.9757	1654.3	776.1
1005.8902	2794.1573	1653.4	769.75
1006.0097	2795.3382	1641.55	760.35
1006.1291	2796.5184	1645.25	763
1006.2485	2797.698	1645.3	762.8
1006.3679	2798.8769	1636.15	754.9
1006.4873	2800.0551	1637.1	756.15
1006.6066	2801.2327	1634.7	748.85
1006.7258	2802.4096	1631.95	752.9
1006.8451	2803.5859	1627.5	744.35
1006.9642	2804.7615	1627.2	745.6
1007.0834	2805.9364	1621.35	739.3
1007.2025	2807.1106	1627.6	746.95
1007.3216	2808.2842	1618.4	737.25
1007.4406	2809.4572	1615.05	735.15
1007.5596	2810.6294	1617.85	734.95
1007.6785	2811.801	1609	731.45
1007.7975	2812.972	1606.15	725.8
1007.9163	2814.1423	1605.85	723.85
1008.0352	2815.3119	1599.05	718.75
1008.154	2816.4808	1604.5	725.05
1008.2727	2817.6491	1607.25	724.6
1008.3914	2818.8167	1604.45	723.4
1008.5101	2819.9837	1610.95	724.75
1008.6288	2821.15	1611.1	732.85
1008.7474	2822.3157	1608.25	726.9
1008.8659	2823.4807	1611.7	732.6
1008.9844	2824.645	1622.5	740.55
1009.1029	2825.8086	1624.1	744.5
1009.2214	2826.9716	1626.75	746
1009.3398	2828.134	1629.85	748.8
1009.4581	2829.2957	1633.8	753.95
1009.5764	2830.4567	1635.55	755.6
1009.6947	2831.617	1633.8	752.25
1009.813	2832.7767	1646.3	766.55
1009.9312	2833.9358	1638.2	758.45
1010.0493	2835.0941	1638.8	757.45
1010.1675	2836.2519	1633	753.2
1010.2855	2837.4089	1618.3	737.75
1010.4036	2838.5653	1614	734.9
1010.5216	2839.7211	1624.05	743.95
1010.6396	2840.8761	1614.1	730.4
1010.7575	2842.0306	1601.45	719.85
1010.8754	2843.1843	1597.15	714.95
1010.9932	2844.3374	1603.15	722.15
1011.111	2845.4899	1606.9	725.9
1011.2288	2846.6417	1595.25	714.75
1011.3465	2847.7928	1600.75	720.3
1011.4642	2848.9433	1603.35	722.05
1011.5818	2850.0931	1604.3	724.65
1011.6995	2851.2422	1601.75	718
1011.817	2852.3907	1598.1	714.4
1011.9345	2853.5385	1596.2	714.55
1012.052	2854.6857	1597.6	707.9
1012.1695	2855.8323	1590.3	710.1
1012.2869	2856.9781	1595.55	713.7
1012.4042	2858.1233	1594.35	714.65
1012.5216	2859.2679	1594.3	713.1
1012.6389	2860.4118	1599.7	719.7
1012.7561	2861.555	1599.4	713.7
1012.8733	2862.6976	1601.55	719.1
1012.9905	2863.8395	1594.35	716.05
1013.1076	2864.9808	1592.5	713.55
1013.2247	2866.1214	1592.75	712.05
1013.3417	2867.2614	1603.2	724.35
1013.4587	2868.4007	1589.6	706.8
1013.5757	2869.5393	1582.8	701.85
1013.6926	2870.6773	1597.7	714.05
1013.8095	2871.8146	1594.9	711.35
1013.9263	2872.9513	1591.75	709.8
1014.0431	2874.0874	1580.85	700.45
1014.1599	2875.2227	1585.05	703.75
1014.2766	2876.3574	1581.6	701.05
1014.3933	2877.4915	1574.65	695.35
1014.51	2878.6249	1577.1	696.5
1014.6266	2879.7577	1575.45	693.95
1014.7431	2880.8898	1585.7	694.95
1014.8596	2882.0212	1574.25	693.85
1014.9761	2883.152	1578.35	698.55
1015.0925	2884.2821	1579.45	700.5
1015.2089	2885.4116	1574.65	694.85
1015.3253	2886.5405	1563	683.05
1015.4416	2887.6686	1575.75	690.9
1015.5579	2888.7962	1568.15	690.4
1015.6741	2889.923	1563.25	682.15
1015.7903	2891.0493	1562.85	683.6
1015.9065	2892.1748	1557.45	677.05
1016.0226	2893.2997	1553.7	672.65
1016.1387	2894.424	1552.95	673.45
1016.2547	2895.5476	1557.75	677.8
1016.3707	2896.6706	1554.85	674.8
1016.4866	2897.7929	1554.2	673.8
1016.6025	2898.9145	1547.6	666.6
1016.7184	2900.0355	1542.45	662.5
1016.8342	2901.1559	1539.85	658.7
1016.95	2902.2756	1529.3	649.35
1017.0658	2903.3946	1526.8	644.85
1017.1815	2904.513	1528.65	642.8
1017.2971	2905.6308	1524.85	644.1
1017.4127	2906.7479	1531.55	649.45
1017.5283	2907.8643	1522.3	642.2
1017.6439	2908.9801	1518.5	636.8
1017.7594	2910.0953	1522.4	641.45
1017.8748	2911.2098	1512.4	629.95
1017.9902	2912.3236	1515.1	625.1
1018.1056	2913.4368	1513.75	631.85
1018.2209	2914.5494	1505.9	624.85
1018.3362	2915.6613	1504.05	617.6
1018.4515	2916.7725	1503	619.35
1018.5667	2917.8831	1492.1	609.95
1018.6819	2918.9931	1493.65	610.6
1018.797	2920.1024	1494.05	610.5
1018.9121	2921.211	1485	602.5
1019.0271	2922.319	1485.9	605.05
1019.1421	2923.4264	1473.85	592.5
1019.2571	2924.5331	1472.9	594.6
1019.372	2925.6391	1474.95	594.9
1019.4869	2926.7445	1464.25	587
1019.6017	2927.8493	1463.5	583.1
1019.7165	2928.9534	1471.6	591.45
1019.8313	2930.0569	1475.1	592.25
1019.946	2931.1597	1465.65	583.8
1020.0606	2932.2619	1461.5	581.4
1020.1753	2933.3634	1464.75	584.05
1020.2899	2934.4643	1480.8	591.05
1020.4044	2935.5645	1473.3	587.05
1020.5189	2936.6641	1464.05	579.5
1020.6334	2937.763	1457.65	578.3
1020.7478	2938.8613	1455.7	573.95
1020.8622	2939.959	1464.45	578.4
1020.9765	2941.056	1449	568.55
1021.0908	2942.1523	1445.65	563.75
1021.2051	2943.248	1428.8	546.4
1021.3193	2944.3431	1425.25	546.15
1021.4334	2945.4375	1414.5	533.8
1021.5476	2946.5313	1411.4	533
1021.6617	2947.6244	1398.55	518.35
1021.7757	2948.7169	1404.25	523.2
1021.8897	2949.8087	1392.65	512.95
1022.0037	2950.8999	1378.8	497.05
1022.1176	2951.9904	1376.35	497.05
1022.2315	2953.0803	1369.45	489.3
1022.3453	2954.1696	1358.95	478.6
1022.4591	2955.2582	1361.1	480.65
1022.5728	2956.3462	1352.25	471.35
1022.6865	2957.4335	1346.5	465.35
1022.8002	2958.5202	1347.85	465.6
1022.9138	2959.6062	1338.05	457.9
1023.0274	2960.6916	1343.95	464.35
1023.141	2961.7764	1343.5	462.05
1023.2545	2962.8605	1344.1	463.85
1023.3679	2963.9439	1337.65	457.05
1023.4813	2965.0267	1333.9	452.7
1023.5947	2966.1089	1355.75	452.25
1023.708	2967.1905	1329.85	450.15
1023.8213	2968.2714	1331.8	452.1
1023.9346	2969.3516	1333.35	451.85
1024.0478	2970.4312	1328.65	441.65
1024.1609	2971.5102	1315.3	436
1024.274	2972.5885	1318.4	437.85
1024.3871	2973.6662	1320.45	433.4
1024.5002	2974.7432	1308.55	430.3
1024.6132	2975.8196	1310.75	429.8
1024.7261	2976.8954	1309.65	432.1
1024.839	2977.9705	1311.4	430.3
1024.9519	2979.045	1316.95	437.4
1025.0647	2980.1188	1307.3	427.15
1025.1775	2981.192	1303.3	424.6
1025.2902	2982.2645	1298.5	416.4
1025.4029	2983.3364	1295.45	416.65
1025.5156	2984.4077	1295.1	416.1
1025.6282	2985.4783	1298.5	411.85
1025.7407	2986.5483	1285.15	405.7
1025.8532	2987.6177	1281.8	401.8
1025.9657	2988.6864	1285	404.05
1026.0782	2989.7545	1273.9	391.1
1026.1906	2990.8219	1279	400.55
1026.3029	2991.8887	1274.15	391.85
1026.4152	2992.9548	1266.75	384.95
1026.5275	2994.0204	1263.55	383.7
1026.6397	2995.0852	1257.8	379.5
1026.7519	2996.1495	1255.7	374.7
1026.864	2997.2131	1251	370.2
1026.9761	2998.276	1247.45	367.75
1027.0882	2999.3383	1248.75	367.5
1027.2002	3000.4	1244.85	363.85
1027.3122	3001.4611	1241.75	361.8
1027.4241	3002.5215	1237.95	356.05
1027.536	3003.5812	1235	355.05
1027.6478	3004.6404	1229.75	349.45
1027.7596	3005.6989	1235.8	353.25
1027.8714	3006.7567	1229.95	350.1
1027.9831	3007.8139	1244.6	339.35
1028.0947	3008.8705	1224.9	342.5
1028.2064	3009.9264	1223.45	341.9
1028.3179	3010.9818	1219.15	337.6
1028.4295	3012.0364	1218.65	337.65
1028.541	3013.0905	1216.25	333.95
1028.6524	3014.1439	1221.85	341.05
1028.7638	3015.1966	1218.3	338.95
1028.8752	3016.2487	1211.5	331.15
1028.9865	3017.3002	1215.15	327.6
1029.0978	3018.3511	1208.2	328.25
1029.209	3019.4013	1206.2	325.25
1029.3202	3020.4509	1206.6	326.25
1029.4314	3021.4998	1212.8	334.05
1029.5425	3022.5481	1200.55	320.7
1029.6535	3023.5958	1201.75	321.95
1029.7645	3024.6428	1205.1	322.95
1029.8755	3025.6892	1197.75	319.5
1029.9864	3026.735	1190	311
1030.0973	3027.7802	1199.05	316.65
1030.2082	3028.8247	1185.65	305.45
1030.319	3029.8685	1195.45	313
1030.4297	3030.9118	1195.25	316.25
1030.5404	3031.9544	1192.85	313.35
1030.6511	3032.9963	1193.65	314.2
1030.7617	3034.0376	1183.75	305.85
1030.8723	3035.0783	1193.3	309.15
1030.9829	3036.1184	1187.65	307.05
1031.0934	3037.1578	1183.45	303.85
1031.2038	3038.1966	1187.75	306.5
1031.3142	3039.2348	1177.35	297.75
1031.4246	3040.2723	1189	301.9
1031.5349	3041.3092	1178.75	300.7
1031.6452	3042.3455	1174.3	294
1031.7554	3043.3811	1183.2	301.4
1031.8656	3044.4161	1176.2	296.1
1031.9758	3045.4505	1174.25	296.05
1032.0859	3046.4842	1174.9	294.95
1032.1959	3047.5173	1165.5	286.65
1032.3059	3048.5498	1169.55	289.55
1032.4159	3049.5816	1167	286.45
1032.5258	3050.6128	1167.6	287.05
1032.6357	3051.6434	1170.1	289.15
1032.7455	3052.6734	1169.65	288.1
1032.8553	3053.7027	1163.65	283.25
1032.9651	3054.7314	1161.4	282.9
1033.0748	3055.7594	1166.25	286.95
1033.1845	3056.7868	1163.8	283.95
1033.2941	3057.8136	1159.2	281.2
1033.4037	3058.8398	1156.9	276
1033.5132	3059.8653	1161.7	282.4
1033.6227	3060.8902	1158.85	279.5
1033.7321	3061.9145	1155.9	276.7
1033.8415	3062.9381	1152.95	273.4
1033.9509	3063.9612	1174.05	279.7
1034.0602	3064.9835	1159	281.85
1034.1694	3066.0053	1153.3	270.95
1034.2787	3067.0264	1150.75	270.7
1034.3878	3068.0469	1154.35	272.9
1034.497	3069.0668	1154.1	271.8
1034.6061	3070.086	1150.2	270.5
1034.7151	3071.1046	1146.45	265.2
1034.8241	3072.1226	1145.1	263.15
1034.9331	3073.1399	1143.5	262.8
1035.042	3074.1567	1139.45	261.4
1035.1508	3075.1727	1145.35	264.15
1035.2597	3076.1882	1142.85	262.35
1035.3684	3077.203	1140.85	261.8
1035.4772	3078.2173	1142.4	259.7
1035.5859	3079.2308	1138.25	256.05
1035.6945	3080.2438	1134.3	251.9
1035.8031	3081.2561	1134.7	254.75
1035.9117	3082.2678	1134.85	254.85
1036.0202	3083.2789	1125.1	245.7
1036.1286	3084.2893	1130.6	251.1
1036.2371	3085.2991	1128.6	249.35
1036.3454	3086.3083	1130.2	245.1
1036.4538	3087.3169	1131.65	248.95
1036.562	3088.3248	1125.1	243.25
1036.6703	3089.3321	1124.95	244.6
1036.7785	3090.3388	1125.95	246.65
1036.8866	3091.3449	1125.65	245
1036.9948	3092.3503	1125.9	244.7
1037.1028	3093.3551	1119.8	241.9
1037.2108	3094.3593	1115	236.95
1037.3188	3095.3629	1117.55	238.1
1037.4267	3096.3658	1117.5	234.3
1037.5346	3097.3681	1111.05	232.6
1037.6425	3098.3698	1111.85	230
1037.7503	3099.3708	1116.95	231.05
1037.858	3100.3713	1107.45	229.3
1037.9657	3101.3711	1105.9	226
1038.0734	3102.3702	1243.55	224.9
1038.181	3103.3688	1112.85	229.25
1038.2886	3104.3667	1101.7	223.9
1038.3961	3105.364	1101.15	221.5
1038.5036	3106.3607	1101.35	219.95
1038.611	3107.3568	1103	221.7
1038.7184	3108.3522	1099.75	220
1038.8257	3109.347	1098.85	216.3
1038.933	3110.3412	1101.6	219.05
1039.0403	3111.3348	1094.7	212.75
1039.1475	3112.3277	1097.65	216.8
1039.2547	3113.32	1090.75	213.15
1039.3618	3114.3117	1093.1	211.75
1039.4689	3115.3028	1088.8	209.25
1039.5759	3116.2932	1089.6	206.75
1039.6829	3117.2831	1091.95	205.4
1039.7898	3118.2723	1089.45	210.4
1039.8967	3119.2608	1088.2	207.5
1040.0035	3120.2488	1086	204
1040.1103	3121.2361	1087.8	206.1
1040.2171	3122.2229	1082.15	202.9
1040.3238	3123.209	1081.25	199.5
1040.4305	3124.1944	1074.05	194
1040.5371	3125.1793	1078.4	197.4
1040.6437	3126.1635	1079.85	199.2
1040.7502	3127.1471	1073.8	193.45
1040.8567	3128.1301	1073.35	195.1
1040.9631	3129.1125	1072.6	194
1041.0695	3130.0942	1072.85	193.75
1041.1759	3131.0753	1080.45	191.85
1041.2822	3132.0558	1075.75	193.55
1041.3884	3133.0357	1073.55	193.2
1041.4946	3134.015	1070.35	188.45
1041.6008	3134.9936	1072.45	189.55
1041.7069	3135.9716	1084.35	184.75
1041.813	3136.949	1069.1	190.05
1041.919	3137.9258	1070.25	183.3
1042.025	3138.902	1069.6	185.1
1042.1309	3139.8775	1064.85	186.25
1042.2368	3140.8524	1068.1	189.15
1042.3427	3141.8267	1066.85	184.1
1042.4485	3142.8004	1060.2	181.7
1042.5542	3143.7735	1068.95	182.05
1042.6599	3144.7459	1061.15	178.35
1042.7656	3145.7178	1060.05	178.35
1042.8712	3146.689	1056.35	175.45
1042.9768	3147.6596	1064	182.7
1043.0823	3148.6295	1054.5	174.25
1043.1878	3149.5989	1052.75	174.15
1043.2932	3150.5676	1058.35	180.05
1043.3986	3151.5357	1053.6	173.65
1043.5039	3152.5032	1048.45	170.3
1043.6092	3153.4701	1049.75	170.95
1043.7145	3154.4364	1052.8	170.05
1043.8197	3155.402	1052.85	175.3
1043.9248	3156.367	1053.45	172.15
1044.03	3157.3315	1087.05	169.75
1044.135	3158.2952	1048	170.75
1044.24	3159.2584	1043.65	163.4
1044.345	3160.221	1046.6	165.5
1044.4499	3161.1829	1049.05	167.05
1044.5548	3162.1442	1043.8	162
1044.6596	3163.105	1040.55	160.2
1044.7644	3164.065	1041.35	163.3
1044.8692	3165.0245	1047.2	164
1044.9739	3165.9834	1038.4	158.85
1045.0785	3166.9416	1040.55	161.05
1045.1831	3167.8993	1040.3	158.3
1045.2877	3168.8563	1039.2	157.45
1045.3922	3169.8127	1036.05	156.2
1045.4966	3170.7684	1040.2	159.5
1045.6011	3171.7236	1037.25	155.95
1045.7054	3172.6782	1032.6	151.8
1045.8098	3173.6321	1036.85	157.85
1045.914	3174.5854	1040.25	157.95
1046.0183	3175.5381	1030.75	151.95
1046.1224	3176.4902	1029.15	150.45
1046.2266	3177.4417	1027.8	148.3
1046.3307	3178.3926	1034.3	155.8
1046.4347	3179.3428	1026.4	147.25
1046.5387	3180.2924	1025.65	146.45
1046.6427	3181.2415	1027.4	147.8
1046.7466	3182.1899	1031.55	149.8
1046.8504	3183.1377	1025.5	146.25
1046.9542	3184.0848	1026	142.75
1047.058	3185.0314	1019.6	139.9
1047.1617	3185.9773	1026.55	145.85
1047.2654	3186.9227	1025	142.7
1047.369	3187.8674	1021.15	140.6
1047.4726	3188.8115	1023.95	140.6
1047.5761	3189.755	1021.6	142.45
1047.6796	3190.6979	1018.45	139
1047.783	3191.6402	1020.8	142.15
1047.8864	3192.5818	1014.3	131.9
1047.9898	3193.5229	1024.55	140.45
1048.0931	3194.4633	1018	138.8
1048.1963	3195.4031	1015.2	136.4
1048.2995	3196.3423	1018.15	138.05
1048.4027	3197.2809	1016.45	135.9
1048.5058	3198.2189	1013.65	133.5
1048.6089	3199.1563	1017.95	132.1
1048.7119	3200.0931	1013.15	135.1
1048.8148	3201.0292	1014.55	136.65
1048.9178	3201.9648	1010.85	131.7
1049.0206	3202.8997	1011.25	128.2
1049.1235	3203.834	1008.25	129.55
1049.2262	3204.7677	1011.5	131
1049.329	3205.7008	1008.2	127.2
1049.4317	3206.6333	1004.4	127
1049.5343	3207.5652	1011.65	129.15
1049.6369	3208.4964	1006.25	127.05
1049.7394	3209.4271	1008.2	126.65
1049.8419	3210.3571	1003.5	123.95
1049.9444	3211.2865	1005	124.85
1050.0468	3212.2154	1008.6	127.8
1050.1491	3213.1436	1006.8	126.85
1050.2514	3214.0712	1009	122.05
1050.3537	3214.9982	1005.45	124.35
1050.4559	3215.9246	1002.85	123.25
1050.5581	3216.8503	1002.4	123.3
1050.6602	3217.7755	1000.95	121.25
1050.7623	3218.7001	998.3	117.7
1050.8643	3219.624	999	119.15
1050.9663	3220.5473	996.7	115.5
1051.0682	3221.4701	997.45	118.9
1051.1701	3222.3922	999.25	115
1051.2719	3223.3137	993.5	115.5
1051.3737	3224.2346	999.25	119.8
1051.4754	3225.1549	995.1	115.75
1051.5771	3226.0746	992.9	113
1051.6788	3226.9937	991.85	112
1051.7804	3227.9121	994.65	116.35
1051.8819	3228.83	993.05	114.4
1051.9834	3229.7473	988.9	109.7
1052.0849	3230.6639	993.1	115.35
1052.1863	3231.5799	991.7	111.8
1052.2876	3232.4954	992.6	111.3
1052.3889	3233.4102	989.85	111
1052.4902	3234.3244	989.6	108.05
1052.5914	3235.238	990.25	110.05
1052.6926	3236.151	1005.85	101.1
1052.7937	3237.0634	984.2	106.05
1052.8948	3237.9752	985.2	105.3
1052.9958	3238.8864	986.8	105.85
1053.0968	3239.797	987	107.9
1053.1977	3240.7069	988.1	108
1053.2986	3241.6163	985.35	102.95
1053.3994	3242.5251	981.55	103.9
1053.5002	3243.4332	979.95	102
1053.6009	3244.3408	983.5	102.35
1053.7016	3245.2477	980.15	100.55
1053.8022	3246.154	979.05	98
1053.9028	3247.0598	979.75	100.35
1054.0034	3247.9649	981.1	100.65
1054.1039	3248.8694	979.6	100.4
1054.2043	3249.7733	975.95	95.9
1054.3047	3250.6766	979.15	98.7
1054.4051	3251.5793	976.65	96.1
1054.5054	3252.4814	976.7	98.9
1054.6056	3253.3829	977.1	98.25
1054.7058	3254.2838	972	94.15
1054.806	3255.1841	975.1	95.8
1054.9061	3256.0838	970.8	92.05
1055.0061	3256.9829	968.2	88.4
1055.1062	3257.8814	974.35	90.85
1055.2061	3258.7792	972.95	92.7
1055.306	3259.6765	976.05	96.25
1055.4059	3260.5731	970.4	91.25
1055.5057	3261.4692	967.55	84.8
1055.6055	3262.3647	968.05	86.6
1055.7052	3263.2595	963.4	85.15
1055.8049	3264.1538	963.15	84.15
1055.9045	3265.0474	961.7	79.6
1056.0041	3265.9404	959.4	79.35
1056.1036	3266.8329	960.9	82.5
1056.2031	3267.7247	970.05	80.2
1056.3025	3268.616	956.15	78.75
1056.4019	3269.5066	958.2	77.25
1056.5013	3270.3966	956.95	73.7
1056.6005	3271.286	950	69.4
