Software Version:	3.9.2.0
Unit SN:	10000200
Spectrometer SN:	6960
Date:	3/6/2024 10:32:53 AM
Data Line Index:	25
Spectral Points:	2048
Integration time (ms):	125
Averages:	20
Delay (ms):	30
Sequence Number:	1
Processing:	dark subtract
Laser Power (mW):	305
Laser Current (mA):	824
Laser Diode Temp (C):	25.1
Laser Case Temp (C):	26.4
System Temp (C):	26.2
Spectrometer Temp (C):	23.6
CCD Temp (C):	0.001
Secondary Temp (C):	20.011
Heatsink Temp (C):	21.792
CCDPCB Temp (C):	36.374
SecondaryPCB Temp (C):	29.293

Wavelength	RamanShift	Raw Counts	Dark Subtracted
787.061	30.1047	1154.05	742.25
787.2016	32.3739	1184.35	776
787.3422	34.6426	1236.2	825.55
787.4828	36.9109	1285.35	872.5
787.6235	39.1787	1342.8	927.15
787.7642	41.4461	1406.55	985.25
787.9049	43.7131	1465.05	1039.8
788.0456	45.9796	1534.65	1106.15
788.1863	48.2456	1600.4	1168.95
788.3271	50.5112	1669.45	1234.1
788.4679	52.7764	1749.1	1311.05
788.6087	55.0411	1827.3	1385
788.7496	57.3054	1909.6	1459.65
788.8904	59.5692	2000.25	1549
789.0313	61.8326	2103.45	1649.65
789.1722	64.0955	2218.05	1760
789.3132	66.3579	2338.1	1875
789.4541	68.6199	2494.4	2028.5
789.5951	70.8815	2755.7	2288.05
789.7361	73.1426	3297.95	2825.1
789.8771	75.4032	4693.35	4215.2
790.0181	77.6634	8250.6	7768.95
790.1592	79.9231	17893.1	17406.35
790.3003	82.1824	57853.05	57353.8
790.4414	84.4412	65535	65012.6
790.5825	86.6995	65535	64982.45
790.7237	88.9574	65535	64959.55
790.8648	91.2148	65535	64941.35
791.006	93.4717	65535	64932.35
791.1472	95.7282	65535	64923.5
791.2885	97.9842	65535	64922.45
791.4297	100.2398	65535	64917.1
791.571	102.4949	65535	64912.95
791.7123	104.7495	65535	64906.6
791.8536	107.0036	65535	64911
791.9949	109.2573	65535	64908.55
792.1363	111.5105	65535	64908.9
792.2777	113.7632	65535	64905.6
792.4191	116.0154	65535	64892.5
792.5605	118.2672	65535	64899.1
792.7019	120.5185	65535	64901.8
792.8434	122.7693	65535	64895.3
792.9849	125.0197	65535	64893.45
793.1264	127.2696	65535	64891.1
793.2679	129.519	65535	64884.85
793.4094	131.7679	65535	64885.4
793.551	134.0163	65535	64880.9
793.6926	136.2642	65535	64874.9
793.8342	138.5117	65535	64867.15
793.9758	140.7587	65535	64873.2
794.1175	143.0052	65535	64872.1
794.2591	145.2512	65535	64872.05
794.4008	147.4967	65535	64867.7
794.5425	149.7417	65535	64867.5
794.6842	151.9863	65535	64867.35
794.826	154.2304	65535	64861.9
794.9677	156.4739	65535	64855.2
795.1095	158.717	65535	64855.25
795.2513	160.9596	65535	64851
795.3931	163.2017	65535	64847.7
795.535	165.4433	65535	64845.45
795.6768	167.6844	65535	64843.65
795.8187	169.925	65535	64840.65
795.9606	172.1651	65535	64841.55
796.1025	174.4047	65535	64839.95
796.2445	176.6439	65535	64834.95
796.3864	178.8825	65535	64831.9
796.5284	181.1206	65535	64826.6
796.6704	183.3582	65535	64824.65
796.8124	185.5954	65535	64824.25
796.9544	187.832	65535	64820.1
797.0965	190.0681	65535	64817.9
797.2386	192.3037	65535	64810.65
797.3806	194.5388	65535	64809.05
797.5228	196.7734	65535	64806.65
797.6649	199.0075	65535	64805.75
797.807	201.2411	65535	64803.8
797.9492	203.4742	65535	64803.25
798.0914	205.7068	65535	64801.9
798.2336	207.9389	65535	64796.75
798.3758	210.1704	65535	64794.65
798.518	212.4015	65535	64796.6
798.6603	214.632	65535	64809.1
798.8025	216.862	65535	64818.15
798.9448	219.0915	65535	64815.9
799.0871	221.3205	65535	64813.9
799.2294	223.549	65535	64818.6
799.3718	225.777	65535	64818.4
799.5141	228.0044	65535	64817.1
799.6565	230.2314	65535	64813.45
799.7989	232.4578	65535	64812.5
799.9413	234.6837	65535	64801.25
800.0837	236.909	65535	64800.9
800.2262	239.1339	65535	64777.45
800.3687	241.3582	65535	64794.05
800.5111	243.582	65535	64760.45
800.6536	245.8053	65535	64776.15
800.7961	248.0281	65535	64777.2
800.9387	250.2503	65535	64771.15
801.0812	252.472	65535	64770.1
801.2238	254.6932	65535	64768.7
801.3664	256.9139	65535	64771.75
801.509	259.134	65535	64765.4
801.6516	261.3536	65535	64767.4
801.7942	263.5727	65535	64767.1
801.9369	265.7912	65535	64766.25
802.0795	268.0092	65535	64763.35
802.2222	270.2267	65535	64762.5
802.3649	272.4436	65535	64764.4
802.5076	274.6601	65535	64755.5
802.6504	276.8759	65535	64759.2
802.7931	279.0913	65535	64757
802.9359	281.3061	65535	64758.75
803.0787	283.5204	65535	64756.65
803.2215	285.7341	65535	64747.75
803.3643	287.9473	65535	64735.95
803.5071	290.16	65535	64744.45
803.6499	292.3721	65535	64749.25
803.7928	294.5837	65535	64750.6
803.9357	296.7947	65535	64752.15
804.0786	299.0052	65535	64749.6
804.2215	301.2152	65535	64748.4
804.3644	303.4246	65535	64751
804.5074	305.6334	65535	64750.55
804.6503	307.8418	65535	64745.4
804.7933	310.0495	65535	64743.25
804.9363	312.2568	65535	64746.9
805.0793	314.4635	65535	64742.35
805.2223	316.6696	65535	64743.05
805.3653	318.8752	65535	64734.05
805.5084	321.0802	65535	64741.2
805.6514	323.2847	65535	64738.75
805.7945	325.4887	65535	64738.95
805.9376	327.692	65535	64735.3
806.0807	329.8949	65535	64736.75
806.2238	332.0972	65535	64733.15
806.367	334.2989	65535	64730.1
806.5101	336.5001	65535	64732.2
806.6533	338.7007	65535	64727.6
806.7965	340.9008	65535	64730.8
806.9397	343.1003	65535	64724.5
807.0829	345.2992	65535	64729.35
807.2261	347.4976	65535	64720.9
807.3693	349.6955	65535	64720.1
807.5126	351.8927	65535	64720.2
807.6559	354.0895	65535	64711.15
807.7991	356.2856	65535	64713.95
807.9424	358.4812	65535	64718.85
808.0857	360.6763	65535	64719.8
808.2291	362.8707	65535	64719.55
808.3724	365.0646	65535	64714.3
808.5158	367.258	65535	64714.2
808.6591	369.4508	65535	64708.4
808.8025	371.643	65535	64710.35
808.9459	373.8346	65535	64705.4
809.0893	376.0257	65535	64701.3
809.2327	378.2162	65535	64703.45
809.3762	380.4062	65535	64699.15
809.5196	382.5956	65535	64702.6
809.6631	384.7844	65535	64705.3
809.8066	386.9726	65535	64704.35
809.9501	389.1603	65535	64705.1
810.0936	391.3474	65535	64667.35
810.2371	393.5339	65535	64707.85
810.3806	395.7199	65535	64713.6
810.5241	397.9052	65535	64715.1
810.6677	400.09	65535	64714.75
810.8113	402.2743	65535	64708.85
810.9548	404.4579	65535	64712.65
811.0984	406.641	65535	64705.3
811.2421	408.8235	65535	64710.25
811.3857	411.0054	65535	64706.8
811.5293	413.1868	65535	64702.95
811.673	415.3675	65535	64703.35
811.8166	417.5477	65535	64698.8
811.9603	419.7273	65535	64698.3
812.104	421.9064	65535	64688.8
812.2477	424.0848	65535	64692.95
812.3914	426.2627	65535	64687.75
812.5351	428.4399	65535	64692.3
812.6788	430.6166	65535	64691.25
812.8226	432.7928	65535	64689.9
812.9663	434.9683	65535	64687.95
813.1101	437.1432	65535	64685.6
813.2539	439.3176	65535	64686.9
813.3977	441.4914	65535	64690.5
813.5415	443.6645	65535	64686.35
813.6853	445.8371	65535	64686.75
813.8291	448.0091	65535	64686.85
813.973	450.1806	65535	64689.25
814.1168	452.3514	65535	64686.65
814.2607	454.5216	65535	64675.9
814.4046	456.6913	65535	64681.25
814.5485	458.8603	65535	64681.1
814.6924	461.0288	65535	64687.25
814.8363	463.1967	65535	64683.25
814.9802	465.3639	65535	64680.4
815.1241	467.5306	65535	64681.6
815.2681	469.6967	65535	64680.95
815.412	471.8622	65535	64683.45
815.556	474.0271	65535	64686.7
815.7	476.1914	65535	64682
815.844	478.3551	65535	64682.75
815.988	480.5182	65535	64680.7
816.132	482.6807	65535	64681.55
816.276	484.8426	65535	64680.25
816.4201	487.0039	65535	64681.1
816.5641	489.1647	65535	64679.05
816.7082	491.3248	65535	64676.05
816.8522	493.4843	65535	64675.7
816.9963	495.6432	65535	64679.25
817.1404	497.8015	65535	64675.3
817.2845	499.9592	65535	64678.05
817.4286	502.1163	65535	64676.3
817.5727	504.2728	65535	64674.95
817.7168	506.4287	65535	64678.25
817.861	508.5839	65535	64673
818.0051	510.7386	65535	64677.55
818.1493	512.8927	65535	64668.35
818.2935	515.0461	65535	64675.1
818.4377	517.199	65535	64673.25
818.5818	519.3512	65535	64669.3
818.726	521.5029	65535	64664.6
818.8703	523.6539	65535	64669.85
819.0145	525.8043	65535	64667.5
819.1587	527.9541	65535	64669.1
819.303	530.1033	65535	64669
819.4472	532.2519	65535	64667.15
819.5915	534.3999	65535	64664.25
819.7357	536.5472	65535	64665.75
819.88	538.694	65535	64669.65
820.0243	540.8401	65535	64664.85
820.1686	542.9856	65535	64662.55
820.3129	545.1305	65535	64665
820.4572	547.2748	65535	64663.4
820.6016	549.4185	65535	64662.2
820.7459	551.5615	65535	64665.1
820.8902	553.704	65535	64663.6
821.0346	555.8458	65535	64663.75
821.1789	557.987	65535	64662.7
821.3233	560.1276	65535	64662.85
821.4677	562.2675	65535	64662.75
821.6121	564.4069	65535	64666.05
821.7565	566.5456	65535	64663.7
821.9009	568.6837	65535	64663.6
822.0453	570.8212	65535	64663.35
822.1897	572.958	65535	64661.4
822.3342	575.0942	65535	64663.8
822.4786	577.2299	65535	64664.2
822.6231	579.3648	65535	64663.65
822.7675	581.4992	65535	64664.45
822.912	583.6329	65535	64667.85
823.0565	585.766	65535	64665.4
823.201	587.8985	65535	64661.75
823.3454	590.0304	65535	64639.4
823.4899	592.1616	65535	64656.75
823.6345	594.2922	65535	64660.75
823.779	596.4222	65535	64657.05
823.9235	598.5515	65535	64658.3
824.068	600.6802	65535	64654.9
824.2126	602.8083	65535	64661.9
824.3571	604.9358	65535	64657.3
824.5017	607.0626	65535	64656.4
824.6462	609.1888	65535	64658.3
824.7908	611.3144	65535	64656.2
824.9354	613.4393	65535	64656.25
825.08	615.5636	65535	64652.95
825.2246	617.6873	65535	64657.5
825.3692	619.8103	65535	64651.65
825.5138	621.9327	65535	64653.05
825.6584	624.0544	65535	64657.9
825.803	626.1756	65535	64654.7
825.9477	628.2961	65535	64655.7
826.0923	630.4159	65535	64651.8
826.237	632.5351	65535	64651.85
826.3816	634.6537	65535	64651.8
826.5263	636.7716	65535	64650.3
826.6709	638.8889	65535	64651.7
826.8156	641.0056	65535	64655.75
826.9603	643.1216	65535	64649.85
827.105	645.237	65535	64647.4
827.2497	647.3518	65535	64649.9
827.3944	649.4659	65535	64657.1
827.5391	651.5793	65535	64652.55
827.6838	653.6922	65535	64653.3
827.8285	655.8043	65535	64648.75
827.9733	657.9159	65535	64650.45
828.118	660.0268	65535	64650.9
828.2627	662.137	65535	64647.6
828.4075	664.2466	65535	64645.15
828.5522	666.3556	65535	64648.8
828.697	668.4639	65535	64645.45
828.8418	670.5716	65535	64648.6
828.9865	672.6786	65535	64646.05
829.1313	674.785	65535	64646.55
829.2761	676.8907	65535	64645.95
829.4209	678.9958	65535	64650.2
829.5657	681.1002	65535	64646.05
829.7105	683.204	65535	64638.4
829.8553	685.3072	65535	64643.65
830.0001	687.4097	65535	64646.05
830.1449	689.5115	65535	64640.5
830.2898	691.6127	65535	64647.45
830.4346	693.7132	65535	64645.35
830.5794	695.8131	65535	64636.75
830.7243	697.9123	65535	64642.5
830.8691	700.0109	65535	64645.45
831.014	702.1089	65535	64643.85
831.1588	704.2061	65535	64642.9
831.3037	706.3028	65535	64639.75
831.4486	708.3987	65535	64646.95
831.5935	710.4941	65535	64644.3
831.7383	712.5887	65535	64644.15
831.8832	714.6827	65535	64638.7
832.0281	716.7761	65535	64643.4
832.173	718.8688	65535	64641.55
832.3179	720.9608	65535	64640.55
832.4628	723.0522	65535	64635.45
832.6077	725.1429	65535	64640.3
832.7527	727.233	65535	64640.35
832.8976	729.3224	65535	64641.05
833.0425	731.4112	65535	64640.3
833.1874	733.4993	65535	64639.85
833.3324	735.5867	65535	64637.85
833.4773	737.6735	65535	64638.05
833.6222	739.7596	65535	64638.75
833.7672	741.845	65535	64639.2
833.9122	743.9298	65535	64639.45
834.0571	746.014	65535	64639.95
834.2021	748.0974	65535	64637.05
834.347	750.1802	65535	64638.65
834.492	752.2624	65535	64638.45
834.637	754.3439	65535	64638.15
834.782	756.4247	65535	64634.4
834.9269	758.5048	65535	64638.1
835.0719	760.5843	65535	64638.65
835.2169	762.6631	65535	64638.75
835.3619	764.7413	65535	64639
835.5069	766.8188	65535	64634.85
835.6519	768.8956	65535	64636
835.7969	770.9718	65535	64638.3
835.9419	773.0473	65535	64637.5
836.0869	775.1221	65535	64640.1
836.232	777.1962	65535	64638.9
836.377	779.2697	65535	64634.9
836.522	781.3426	65535	64617.05
836.667	783.4147	65535	64635.05
836.8121	785.4862	65535	64640.4
836.9571	787.557	65535	64637.7
837.1021	789.6271	65535	64635.55
837.2472	791.6966	65535	64635.6
837.3922	793.7654	65535	64636.8
837.5373	795.8335	65535	64636.35
837.6823	797.901	65535	64637.7
837.8274	799.9678	65535	64637.05
837.9724	802.0339	65535	64637.2
838.1175	804.0993	65535	64625.7
838.2626	806.1641	65535	64634.65
838.4076	808.2282	65535	64634.65
838.5527	810.2916	65535	64630.05
838.6978	812.3544	65535	64636.15
838.8428	814.4164	65535	64637.35
838.9879	816.4778	65535	64636.1
839.133	818.5385	65535	64632.6
839.2781	820.5986	65535	64637.15
839.4232	822.658	65535	64633.25
839.5682	824.7166	65535	64635.6
839.7133	826.7747	65535	64634.6
839.8584	828.832	65535	64634.75
840.0035	830.8886	65535	64632.55
840.1486	832.9446	65535	64635.05
840.2937	834.9999	65535	64635.9
840.4388	837.0545	65535	64631.15
840.5839	839.1085	65535	64630.8
840.729	841.1618	65535	64630.9
840.8741	843.2143	65535	64632.75
841.0192	845.2662	65535	64634.2
841.1643	847.3175	65535	64632.45
841.3095	849.368	65535	64631
841.4546	851.4179	65535	64635.75
841.5997	853.467	65535	64636
841.7448	855.5155	65535	64633.1
841.8899	857.5633	65535	64635.1
842.0351	859.6105	65535	64633.3
842.1802	861.6569	65535	64632.75
842.3253	863.7027	65535	64634.15
842.4704	865.7478	65535	64636.3
842.6156	867.7922	65535	64630.5
842.7607	869.8359	65535	64632.95
842.9058	871.8789	65535	64632.4
843.0509	873.9212	65535	64601.05
843.1961	875.9629	65535	64632.55
843.3412	878.0039	65535	64634.3
843.4863	880.0441	65535	64632.95
843.6315	882.0837	65535	64634.9
843.7766	884.1226	65535	64631.55
843.9218	886.1609	65535	64635.1
844.0669	888.1984	65535	64636.65
844.212	890.2352	65535	64635.15
844.3572	892.2714	65535	64629.55
844.5023	894.3069	65535	64631.6
844.6475	896.3416	65535	64627.75
844.7926	898.3757	65535	64632.1
844.9377	900.4091	65535	64629.8
845.0829	902.4418	65535	64625.65
845.228	904.4739	65535	64631
845.3732	906.5052	65535	64630.55
845.5183	908.5358	65535	64632.6
845.6635	910.5658	65535	64629.95
845.8086	912.595	65535	64631.65
845.9538	914.6236	65535	64628.6
846.0989	916.6515	65535	64630.5
846.2441	918.6786	65535	64633.05
846.3892	920.7051	65535	64630.75
846.5344	922.7309	65535	64631.45
846.6795	924.756	65535	64632.65
846.8246	926.7804	65535	64628.85
846.9698	928.8041	65535	64625.6
847.1149	930.8272	65535	64628.85
847.2601	932.8495	65535	64628.75
847.4052	934.8711	65535	64629.8
847.5504	936.892	65535	64629.05
847.6955	938.9123	65535	64628.7
847.8407	940.9318	65535	64631.45
847.9858	942.9506	65535	64628.7
848.131	944.9688	65535	64629.55
848.2761	946.9862	65535	64630.85
848.4213	949.003	65535	64630.25
848.5664	951.019	65535	64632.3
848.7115	953.0344	65535	64629.1
848.8567	955.0491	65535	64627.75
849.0018	957.063	65535	64631.7
849.147	959.0763	65535	64632.5
849.2921	961.0888	65535	64627.6
849.4373	963.1007	65535	64629.15
849.5824	965.1119	65535	64631.3
849.7275	967.1223	65535	64632.15
849.8727	969.1321	65535	64632.85
850.0178	971.1412	65535	64635
850.1629	973.1495	65535	64632.95
850.3081	975.1572	65535	64596.9
850.4532	977.1641	65535	64631.3
850.5983	979.1704	65535	64628.2
850.7435	981.1759	65535	64626.75
850.8886	983.1808	65535	64627.9
851.0337	985.1849	65535	64618.8
851.1788	987.1884	65535	64625.8
851.324	989.1911	65535	64624.55
851.4691	991.1932	65535	64629.4
851.6142	993.1945	65535	64629.9
851.7593	995.1951	65535	64629.75
851.9045	997.1951	65535	64624.8
852.0496	999.1943	65535	64630.1
852.1947	1001.1928	65535	64630.6
852.3398	1003.1906	65535	64630.7
852.4849	1005.1877	65535	64629.6
852.63	1007.1841	65535	64629.4
852.7751	1009.1798	65535	64631.75
852.9202	1011.1748	65535	64629.35
853.0653	1013.1691	65535	64630.75
853.2104	1015.1627	65535	64632.05
853.3555	1017.1556	65535	64629.8
853.5006	1019.1477	65535	64631.9
853.6457	1021.1392	65535	64632.95
853.7908	1023.1299	65535	64631.3
853.9359	1025.12	65535	64631.4
854.081	1027.1093	65535	64633.5
854.2261	1029.0979	65535	64634.85
854.3712	1031.0859	65535	64634.05
854.5163	1033.0731	65535	64632.35
854.6613	1035.0596	65535	64633.3
854.8064	1037.0454	65535	64631.8
854.9515	1039.0304	65535	64629.65
855.0965	1041.0148	65535	64631.7
855.2416	1042.9985	65535	64627.65
855.3867	1044.9814	65535	64633.45
855.5317	1046.9636	65535	64630
855.6768	1048.9452	65535	64632.15
855.8219	1050.926	65535	64632.2
855.9669	1052.9061	65535	64632.25
856.112	1054.8855	65535	64628.3
856.257	1056.8642	65535	64630.5
856.4021	1058.8421	65535	64625.95
856.5471	1060.8194	65535	64630.7
856.6921	1062.7959	65535	64628.8
856.8372	1064.7717	65535	64629.9
856.9822	1066.7469	65535	64628.15
857.1272	1068.7213	65535	64628
857.2723	1070.695	65535	64630.4
857.4173	1072.6679	65535	64628.85
857.5623	1074.6402	65535	64628.75
857.7073	1076.6117	65535	64626.5
857.8523	1078.5826	65535	64631.5
857.9973	1080.5527	65535	64629.45
858.1423	1082.5221	65535	64628.4
858.2873	1084.4908	65535	64631.1
858.4323	1086.4587	65535	64629.2
858.5773	1088.426	65535	64627.8
858.7223	1090.3925	65535	64625.9
858.8673	1092.3584	65535	64633.85
859.0123	1094.3235	65535	64633.6
859.1573	1096.2879	65535	64630.75
859.3022	1098.2515	65535	64633
859.4472	1100.2145	65535	64629.9
859.5922	1102.1767	65535	64626.9
859.7371	1104.1382	65535	64629.75
859.8821	1106.099	65535	64627.9
860.027	1108.0591	65535	64630.75
860.172	1110.0185	65535	64629.8
860.3169	1111.9771	65535	64629.65
860.4619	1113.9351	65535	64630.8
860.6068	1115.8923	65535	64633.95
860.7517	1117.8488	65535	64630.9
860.8967	1119.8045	65535	64630
861.0416	1121.7596	65535	64630.35
861.1865	1123.7139	65535	64635.3
861.3314	1125.6675	65535	64629.95
861.4763	1127.6204	65535	64632
861.6212	1129.5726	65535	64630.35
861.7661	1131.524	65535	64629.5
861.911	1133.4748	65535	64628.9
862.0559	1135.4248	65535	64630
862.2008	1137.3741	65535	64631.9
862.3457	1139.3226	65535	64631.2
862.4905	1141.2705	65535	64630.7
862.6354	1143.2176	65535	64624.15
862.7803	1145.164	65535	64629
862.9251	1147.1097	65535	64631.4
863.07	1149.0546	65535	64628.2
863.2148	1150.9989	65535	64631
863.3597	1152.9424	65535	64627.7
863.5045	1154.8852	65535	64631.7
863.6493	1156.8272	65535	64632.25
863.7942	1158.7686	65535	64624.35
863.939	1160.7092	65535	64631
864.0838	1162.6491	65535	64627.45
864.2286	1164.5883	65535	64629.9
864.3734	1166.5267	65535	64628.75
864.5182	1168.4644	65535	64631.85
864.663	1170.4014	65535	64625.6
864.8078	1172.3377	65535	64633.2
864.9526	1174.2732	65535	64631.55
865.0974	1176.2081	65535	64629.7
865.2421	1178.1421	65535	64627.65
865.3869	1180.0755	65535	64630.45
865.5317	1182.0082	65535	64631.65
865.6764	1183.9401	65535	64630.85
865.8212	1185.8713	65535	64632.35
865.9659	1187.8017	65535	64633.65
866.1106	1189.7315	65535	64636.45
866.2554	1191.6605	65535	64605.15
866.4001	1193.5888	65535	64631.5
866.5448	1195.5163	65535	64631.6
866.6895	1197.4432	65535	64628.5
866.8342	1199.3693	65535	64629.35
866.9789	1201.2947	65535	64628.7
867.1236	1203.2193	65535	64631.4
867.2683	1205.1432	65535	64631.7
867.413	1207.0664	65535	64632.45
867.5576	1208.9889	65535	64627
867.7023	1210.9106	65535	64632.05
867.847	1212.8316	65535	64633.95
867.9916	1214.7519	65535	64623.75
868.1363	1216.6715	65535	64629.35
868.2809	1218.5903	65535	64630.8
868.4255	1220.5084	65535	64632.95
868.5701	1222.4257	65535	64630.95
868.7148	1224.3424	65535	64634.45
868.8594	1226.2583	65535	64626.9
869.004	1228.1735	65535	64631.5
869.1486	1230.0879	65535	64633.45
869.2932	1232.0016	65535	64634.05
869.4377	1233.9146	65535	64631.45
869.5823	1235.8269	65535	64634.9
869.7269	1237.7384	65535	64632.05
869.8715	1239.6492	65535	64631.25
870.016	1241.5592	65535	64633
870.1606	1243.4686	65535	64632.2
870.3051	1245.3772	65535	64630.5
870.4496	1247.285	65535	64632.65
870.5941	1249.1922	65535	64633.35
870.7387	1251.0986	65535	64634.45
870.8832	1253.0042	65535	64632
871.0277	1254.9092	65535	64633.75
871.1722	1256.8134	65535	64632.8
871.3167	1258.7169	65535	64629.3
871.4611	1260.6196	65535	64633.25
871.6056	1262.5216	65535	64629.25
871.7501	1264.4229	65535	64633.8
871.8945	1266.3234	65535	64632.7
872.039	1268.2232	65535	64632.7
872.1834	1270.1223	65535	64630
872.3278	1272.0207	65535	64631.65
872.4723	1273.9183	65535	64624.15
872.6167	1275.8151	65535	64634.95
872.7611	1277.7113	65535	64631.15
872.9055	1279.6067	65535	64633.1
873.0499	1281.5014	65535	64631.95
873.1943	1283.3953	65535	64628.75
873.3386	1285.2885	65535	64633.2
873.483	1287.181	65535	64628.55
873.6274	1289.0727	65535	64633.5
873.7717	1290.9637	65535	64631.6
873.9161	1292.854	65535	64634.05
874.0604	1294.7435	65535	64632.3
874.2047	1296.6323	65535	64632.85
874.349	1298.5204	65535	64626.2
874.4933	1300.4077	65535	64631.9
874.6376	1302.2943	65535	64633.05
874.7819	1304.1802	65535	64633.65
874.9262	1306.0653	65535	64630.45
875.0705	1307.9497	65535	64634.05
875.2147	1309.8333	65535	64634.5
875.359	1311.7162	65535	64632
875.5032	1313.5984	65535	64631.95
875.6475	1315.4798	65535	64628.4
875.7917	1317.3605	65535	64616.4
875.9359	1319.2405	65535	64631.3
876.0801	1321.1197	65535	64631.2
876.2243	1322.9982	65535	64628.7
876.3685	1324.876	65535	64632.05
876.5127	1326.753	65535	64634.2
876.6569	1328.6293	65535	64631.9
876.801	1330.5048	65535	64630.35
876.9452	1332.3796	65535	64630.5
877.0893	1334.2537	65535	64608.5
877.2335	1336.127	65535	64630.9
877.3776	1337.9996	65535	64632.35
877.5217	1339.8714	65535	64630.6
877.6658	1341.7426	65535	64589.25
877.8099	1343.6129	65535	64634.35
877.954	1345.4826	65535	64633.1
878.0981	1347.3515	65535	64629.75
878.2422	1349.2196	65535	64628.95
878.3862	1351.087	65535	64630.6
878.5303	1352.9537	65535	64631.2
878.6743	1354.8197	65535	64632.3
878.8184	1356.6849	65535	64631
878.9624	1358.5493	65535	64633.45
879.1064	1360.4131	65535	64632.9
879.2504	1362.276	65535	64634.85
879.3944	1364.1383	65535	64633.75
879.5384	1365.9998	65535	64626.35
879.6823	1367.8606	65535	64631.05
879.8263	1369.7206	65535	64629.35
879.9702	1371.5799	65535	64628.6
880.1142	1373.4384	65535	64632.65
880.2581	1375.2962	65535	64631.55
880.402	1377.1533	65535	64631.95
880.5459	1379.0096	65535	64633.45
880.6898	1380.8652	65535	64634.3
880.8337	1382.7201	65535	64633.2
880.9776	1384.5742	65535	64632.3
881.1215	1386.4275	65535	64630.9
881.2653	1388.2802	65535	64635.7
881.4092	1390.132	65535	64632.5
881.553	1391.9832	65535	64632.5
881.6968	1393.8336	65535	64633.05
881.8406	1395.6832	65535	64633.2
881.9844	1397.5322	65535	64633.3
882.1282	1399.3803	65535	64627.3
882.272	1401.2278	65535	64632.75
882.4158	1403.0745	65535	64632.2
882.5595	1404.9204	65535	64636.3
882.7033	1406.7656	65535	64634.85
882.847	1408.6101	65535	64631.4
882.9908	1410.4538	65535	64630.7
883.1345	1412.2968	65535	64634.8
883.2782	1414.139	65535	64634.35
883.4219	1415.9805	65535	64632.75
883.5656	1417.8213	65535	64629.05
883.7092	1419.6613	65535	64634.55
883.8529	1421.5006	65535	64631.3
883.9965	1423.3391	65535	64633.5
884.1402	1425.1769	65535	64631.05
884.2838	1427.0139	65535	64631.7
884.4274	1428.8502	65535	64631.95
884.571	1430.6858	65535	64633.65
884.7146	1432.5206	65535	64633.15
884.8582	1434.3547	65535	64632.35
885.0018	1436.188	65535	64634.75
885.1453	1438.0206	65535	64633.2
885.2889	1439.8524	65535	64632
885.4324	1441.6835	65535	64634.5
885.5759	1443.5139	65535	64629.95
885.7194	1445.3435	65535	64633.25
885.8629	1447.1724	65535	64633.65
886.0064	1449.0005	65535	64634
886.1499	1450.8279	65535	64630.4
886.2933	1452.6545	65535	64634
886.4368	1454.4804	65535	64635.25
886.5802	1456.3056	65535	64625.8
886.7237	1458.13	65535	64634.4
886.8671	1459.9536	65535	64633.3
887.0105	1461.7766	65535	64633.65
887.1539	1463.5987	65535	64632.3
887.2972	1465.4202	65535	64635.7
887.4406	1467.2409	65535	64633.5
887.584	1469.0608	65535	64635.1
887.7273	1470.88	65535	64634.65
887.8706	1472.6984	65535	64635.8
888.0139	1474.5161	65535	64629.75
888.1572	1476.3331	65535	64634.45
888.3005	1478.1493	65535	64634.6
888.4438	1479.9648	65535	64634.15
888.5871	1481.7795	65535	64632
888.7303	1483.5935	65535	64634.2
888.8736	1485.4067	65535	64635.55
889.0168	1487.2192	65535	64631.95
889.16	1489.031	65535	64630.65
889.3032	1490.842	65535	64632.35
889.4464	1492.6522	65535	64633.8
889.5896	1494.4618	65535	64633
889.7327	1496.2705	65535	64635.55
889.8759	1498.0785	65535	64634.3
890.019	1499.8858	65535	64633.5
890.1622	1501.6924	65535	64633.25
890.3053	1503.4981	65535	64635.05
890.4484	1505.3032	65535	64633.6
890.5914	1507.1075	65535	64633.5
890.7345	1508.911	65535	64631.65
890.8776	1510.7138	65535	64635.75
891.0206	1512.5159	65535	64635.05
891.1637	1514.3172	65535	64632.95
891.3067	1516.1178	65535	64636.15
891.4497	1517.9176	65535	64633.15
891.5927	1519.7166	65535	64633.65
891.7357	1521.515	65535	64630.45
891.8786	1523.3126	65535	64636.5
892.0216	1525.1094	65535	64634.05
892.1645	1526.9055	65535	64634.45
892.3074	1528.7008	65535	64635.55
892.4503	1530.4954	65535	64629.9
892.5932	1532.2893	65535	64634.5
892.7361	1534.0824	65535	64631.65
892.879	1535.8747	65535	64636.9
893.0218	1537.6663	65535	64635.35
893.1647	1539.4572	65535	64636.9
893.3075	1541.2473	65535	64633.2
893.4503	1543.0367	65535	64637.15
893.5931	1544.8253	65535	64632.75
893.7359	1546.6132	65535	64629.85
893.8787	1548.4003	65535	64625.75
894.0214	1550.1867	65535	64627.2
894.1642	1551.9723	65535	64632.2
894.3069	1553.7572	65535	64636.1
894.4496	1555.5414	65535	64637
894.5923	1557.3247	65535	64635.95
894.735	1559.1074	65535	64635.65
894.8777	1560.8893	65535	64635.65
895.0204	1562.6705	65535	64635.6
895.163	1564.4509	65535	64635.05
895.3056	1566.2305	65535	64636.75
895.4482	1568.0094	65535	64638.25
895.5908	1569.7876	65535	64638.05
895.7334	1571.565	65535	64635.65
895.876	1573.3417	65535	64638
896.0186	1575.1176	65535	64637.85
896.1611	1576.8928	65535	64637.65
896.3036	1578.6672	65535	64638.95
896.4461	1580.4409	65535	64639.95
896.5886	1582.2138	65535	64637.45
896.7311	1583.986	65535	64636.5
896.8736	1585.7575	65535	64638.6
897.0161	1587.5282	65535	64638.95
897.1585	1589.2981	65535	64638.05
897.3009	1591.0673	65535	64638.3
897.4433	1592.8358	65535	64637.6
897.5857	1594.6035	65535	64636.05
897.7281	1596.3704	65535	64636.85
897.8705	1598.1366	65535	64641.4
898.0128	1599.9021	65535	64638.6
898.1551	1601.6668	65535	64636.2
898.2975	1603.4308	65535	64635.15
898.4398	1605.194	65535	64631.05
898.5821	1606.9564	65535	64637.3
898.7243	1608.7182	65535	64636.1
898.8666	1610.4791	65535	64640.4
899.0088	1612.2394	65535	64642.5
899.1511	1613.9988	65535	64641.85
899.2933	1615.7576	65535	64640.35
899.4355	1617.5156	65535	64632
899.5776	1619.2728	65535	64638.65
899.7198	1621.0293	65535	64637.35
899.862	1622.785	65535	64636.8
900.0041	1624.54	65535	64636.95
900.1462	1626.2942	65535	64638.4
900.2883	1628.0477	65535	64637.5
900.4304	1629.8005	65535	64635.65
900.5725	1631.5525	65535	64638.8
900.7145	1633.3037	65535	64640.9
900.8566	1635.0542	65535	64642.45
900.9986	1636.804	65535	64641
901.1406	1638.553	65535	64549.8
901.2826	1640.3013	65535	64638.15
901.4245	1642.0488	65535	64639.1
901.5665	1643.7955	65535	64641.65
901.7085	1645.5416	65535	64638.25
901.8504	1647.2868	65535	64638.85
901.9923	1649.0313	65535	64639.25
902.1342	1650.7751	65535	64637.25
902.2761	1652.5181	65535	64641.1
902.4179	1654.2604	65535	64638.7
902.5598	1656.0019	65535	64639.05
902.7016	1657.7427	65535	64641.55
902.8434	1659.4828	65535	64641.35
902.9852	1661.222	65535	64640.2
903.127	1662.9606	65535	64641.1
903.2687	1664.6984	65535	64639.65
903.4105	1666.4354	65535	64640.35
903.5522	1668.1717	65535	64638.8
903.6939	1669.9072	65535	64639.35
903.8356	1671.642	65535	64636.9
903.9773	1673.3761	65535	64640.55
904.119	1675.1094	65535	64640.4
904.2606	1676.8419	65535	64642.15
904.4022	1678.5737	65535	64640.2
904.5439	1680.3048	65535	64639.1
904.6855	1682.0351	65535	64639.95
904.827	1683.7646	65535	64638.05
904.9686	1685.4934	65535	64641.6
905.1101	1687.2215	65532.15	64638.55
905.2517	1688.9488	65535	64642.35
905.3932	1690.6754	65517.2	64622.65
905.5347	1692.4012	65534.95	64641.4
905.6761	1694.1263	65535	64641.95
905.8176	1695.8506	65524.25	64629.55
905.9591	1697.5742	65529.65	64637.85
906.1005	1699.297	65523.7	64630.9
906.2419	1701.0191	65530.4	64639.3
906.3833	1702.7404	65493.05	64600.7
906.5246	1704.461	65467.1	64572.7
906.666	1706.1808	65522.05	64627.8
906.8073	1707.8999	65493.45	64600.25
906.9487	1709.6182	65485.75	64592.6
907.09	1711.3358	65477.6	64584.95
907.2313	1713.0527	65464.35	64572.1
907.3725	1714.7688	65471.65	64573.55
907.5138	1716.4841	65386.2	64489.65
907.655	1718.1987	65423.95	64525.1
907.7962	1719.9126	65399.45	64508.55
907.9374	1721.6257	65427.5	64531.95
908.0786	1723.338	65429.15	64535.1
908.2198	1725.0496	65296.35	64401.55
908.3609	1726.7605	65325.45	64432.8
908.502	1728.4706	65241.2	64348.3
908.6431	1730.18	65347.75	64452.5
908.7842	1731.8886	65228.15	64336.15
908.9253	1733.5964	65171.2	64272.85
909.0664	1735.3036	65313.5	64417.5
909.2074	1737.0099	65210.55	64319
909.3484	1738.7156	65118.75	64225.55
909.4894	1740.4204	65085.35	64189.55
909.6304	1742.1246	65143.9	64248.95
909.7714	1743.8279	65172.25	64279.4
909.9123	1745.5306	65144.95	64253.05
910.0532	1747.2325	64609.6	63716.7
910.1941	1748.9336	64671.2	63779.8
910.335	1750.634	64901.3	64006.35
910.4759	1752.3336	65029	64137.5
910.6168	1754.0325	64596.55	63704.65
910.7576	1755.7307	65023.25	64131.85
910.8984	1757.4281	64445.65	63553.4
911.0392	1759.1247	64894.2	63994
911.18	1760.8206	64153.45	63256.4
911.3208	1762.5158	64282.2	63385.45
911.4615	1764.2102	64479.55	63587.1
911.6022	1765.9039	64317.2	63424.65
911.7429	1767.5968	64102.8	63212.6
911.8836	1769.289	64062.7	63172.35
912.0243	1770.9804	64276.25	63382.9
912.1649	1772.6711	64035.85	63142.8
912.3056	1774.361	63882.9	62989.65
912.4462	1776.0502	63881.95	62988.55
912.5868	1777.7386	63068.4	62172.7
912.7274	1779.4263	63664.05	62771.55
912.8679	1781.1132	63577.3	62684.5
913.0084	1782.7994	63470.9	62577.45
913.149	1784.4849	63396	62505.05
913.2895	1786.1696	62264.05	61364.95
913.4299	1787.8535	63099.65	62207.5
913.5704	1789.5367	63235.95	62343.15
913.7108	1791.2192	62467.7	61576.8
913.8513	1792.9009	61984.95	61064.15
913.9917	1794.5818	62685.5	61789.7
914.132	1796.2621	61953.25	61063.05
914.2724	1797.9415	62069.3	61176.5
914.4128	1799.6202	61998.2	61104.4
914.5531	1801.2982	62011.75	61118.75
914.6934	1802.9755	61204.25	60310.85
914.8337	1804.6519	60925.65	60035.45
914.9739	1806.3277	62114.5	61222.9
915.1142	1808.0027	60392.8	59502.85
915.2544	1809.6769	60970.25	60077.95
915.3946	1811.3504	61146.65	60252.15
915.5348	1813.0231	59909.55	59015.25
915.675	1814.6951	60734.8	59844.65
915.8151	1816.3664	60189.1	59294.6
915.9553	1818.0369	60279.95	59387.55
916.0954	1819.7067	59969.8	59078.2
916.2355	1821.3757	60652.8	59759.3
916.3755	1823.044	59550.85	58658.5
916.5156	1824.7115	59139.05	58246.7
916.6556	1826.3783	59465.25	58572.85
916.7956	1828.0443	59509.55	58618.7
916.9356	1829.7096	59150.15	58255.4
917.0756	1831.3741	58429.1	57535.7
917.2155	1833.0379	58788.75	57898.9
917.3555	1834.701	58755.15	57862.25
917.4954	1836.3633	58230.4	57336.25
917.6353	1838.0248	58540.6	57646.75
917.7751	1839.6856	58300.3	57408.05
917.915	1841.3457	57705.25	56813.85
918.0548	1843.005	58432.95	57541.15
918.1946	1844.6636	58015.3	57124.1
918.3344	1846.3214	57259.35	56367.8
918.4742	1847.9785	57472.5	56579.4
918.6139	1849.6349	57386.1	56491.45
918.7537	1851.2904	57857	56957.15
918.8934	1852.9453	56915.8	56024.35
919.0331	1854.5994	57220.95	56326.15
919.1727	1856.2528	57239.8	56342.3
919.3124	1857.9054	56729	55837.8
919.452	1859.5572	56493.9	55604.1
919.5916	1861.2083	56725.25	55832.95
919.7312	1862.8587	57191	56298.9
919.8708	1864.5084	55825.05	54933.4
920.0103	1866.1572	56367.6	55478.05
920.1498	1867.8054	55651.9	54759.55
920.2893	1869.4528	56125.2	55234
920.4288	1871.0994	55444.3	54551.5
920.5683	1872.7453	55449.9	54556.5
920.7077	1874.3905	55627.9	54729.8
920.8471	1876.0349	55092.6	54199.5
920.9865	1877.6786	55443.35	54551.65
921.1259	1879.3215	55040.65	54148.6
921.2653	1880.9637	55416.5	54522.85
921.4046	1882.6051	54981.25	54090.5
921.5439	1884.2458	54684.9	53789.8
921.6832	1885.8858	54336.65	53445.95
921.8225	1887.525	54521.75	53630.85
921.9617	1889.1634	54291.25	53400.7
922.101	1890.8011	54086.55	53195.1
922.2402	1892.4381	53564.85	52672.7
922.3794	1894.0743	54091.9	53201.65
922.5185	1895.7098	53708.8	52818.95
922.6577	1897.3446	53303.45	52410.9
922.7968	1898.9786	53490.15	52591.75
922.9359	1900.6118	53193.65	52301.3
923.075	1902.2443	52752.85	51858.55
923.214	1903.8761	53052.75	52161.1
923.3531	1905.5071	52702.65	51811.6
923.4921	1907.1374	52129.6	51239.45
923.6311	1908.7669	52268.5	51379
923.77	1910.3957	52483.7	51594.45
923.909	1912.0237	51844.1	50952.65
924.0479	1913.651	51683.7	50790.25
924.1868	1915.2776	51532.15	50642.35
924.3257	1916.9034	51472.7	50581.8
924.4646	1918.5285	51214.7	50323.75
924.6034	1920.1528	51079.25	50187.05
924.7422	1921.7764	50943.2	50051.7
924.881	1923.3992	50776.05	49885.8
925.0198	1925.0213	50393.6	49500.95
925.1586	1926.6427	50087.65	49196.7
925.2973	1928.2633	50193.1	49196.25
925.436	1929.8832	49991.4	49098.6
925.5747	1931.5023	49763.7	48871.8
925.7134	1933.1207	49523.5	48634
925.852	1934.7383	49557.3	48667.6
925.9906	1936.3552	49300.9	48410.15
926.1292	1937.9714	49234.6	48342.1
926.2678	1939.5868	48998.95	48104.9
926.4064	1941.2015	48674.7	47784.2
926.5449	1942.8154	48512.8	47620.95
926.6834	1944.4286	48336.4	47445.6
926.8219	1946.041	48182.5	47271.85
926.9604	1947.6528	47916.4	47018.65
927.0988	1949.2637	47823.6	46930.2
927.2372	1950.8739	47644.75	46752.5
927.3756	1952.4834	47649.9	46759.15
927.514	1954.0921	47515.3	46624.3
927.6523	1955.7001	47254.85	46358.25
927.7907	1957.3074	47154.65	46265.3
927.929	1958.9139	46915.1	46026.65
928.0673	1960.5197	46819.95	45927.15
928.2055	1962.1247	46618.7	45728.9
928.3438	1963.729	46363.35	45475.5
928.482	1965.3325	46200.9	45288.55
928.6202	1966.9353	46058.85	45170.5
928.7584	1968.5374	45878.15	44985.95
928.8965	1970.1387	45724.65	44833.05
929.0346	1971.7393	45547.1	44656.8
929.1727	1973.3392	45433	44542.05
929.3108	1974.9383	45260.1	44370.7
929.4489	1976.5366	45011.35	44121.4
929.5869	1978.1342	44997.05	44108.25
929.7249	1979.7311	44851.75	43958.35
929.8629	1981.3273	44756.15	43863.35
930.0009	1982.9227	44621.8	43730.25
930.1388	1984.5173	44399.2	43509.3
930.2767	1986.1112	44198.7	43307.9
930.4146	1987.7044	44114.65	43224.6
930.5525	1989.2968	43934.6	43044.35
930.6904	1990.8885	43851.05	42957.95
930.8282	1992.4795	43738.05	42846.35
930.966	1994.0697	43537.25	42647.65
931.1038	1995.6592	43432.55	42543.7
931.2415	1997.2479	43266.4	42376.7
931.3793	1998.8359	43158.3	42268.65
931.517	2000.4232	42915.15	42026.5
931.6547	2002.0097	42851.45	41965.15
931.7923	2003.5955	42568.35	41677.7
931.93	2005.1805	42522.45	41630.95
932.0676	2006.7648	42434.75	41546.3
932.2052	2008.3484	42307.15	41416.1
932.3427	2009.9312	42297.3	41406.95
932.4803	2011.5133	42092.85	41203
932.6178	2013.0946	42004.85	41115.3
932.7553	2014.6752	41825.7	40937.5
932.8928	2016.2551	41747.2	40858.2
933.0302	2017.8342	41544.85	40657.05
933.1676	2019.4126	41370.9	40481.95
933.305	2020.9902	41199.6	40308.5
933.4424	2022.5672	41144.7	40253.95
933.5798	2024.1433	41075.05	40180.35
933.7171	2025.7188	40883.25	39996.4
933.8544	2027.2935	40776.3	39888.75
933.9917	2028.8674	40593.65	39705.05
934.129	2030.4406	40419.15	39530.1
934.2662	2032.0131	40272.75	39385
934.4034	2033.5849	40156.95	39262.6
934.5406	2035.1559	40072.5	39184.2
934.6778	2036.7261	40032.15	39141.3
934.8149	2038.2957	39889.9	38999.6
934.952	2039.8645	39818.85	38927.7
935.0891	2041.4325	39806.95	38916.6
935.2262	2042.9998	39605.1	38715.45
935.3632	2044.5664	39452.4	38562.1
935.5002	2046.1323	39307.8	38419.75
935.6372	2047.6974	39205.4	38316.45
935.7742	2049.2617	39123.15	38236.5
935.9111	2050.8254	39044.95	38152.3
936.048	2052.3883	38935.65	38044.05
936.1849	2053.9504	38854.85	37965.15
936.3218	2055.5118	38698.55	37809.3
936.4586	2057.0725	38535.6	37641.75
936.5955	2058.6325	38434.6	37544.65
936.7323	2060.1917	38315.15	37426.1
936.869	2061.7502	38243.5	37353.4
937.0058	2063.3079	38040.35	37150.3
937.1425	2064.8649	37943.35	37049.7
937.2792	2066.4212	37798.25	36908.7
937.4159	2067.9767	37767.05	36879
937.5525	2069.5315	37560.55	36672.3
937.6891	2071.0856	37376.55	36488.15
937.8257	2072.6389	37246.4	36356.15
937.9623	2074.1915	37067.75	36181.25
938.0989	2075.7433	36898	36005.95
938.2354	2077.2945	36768.5	35881.65
938.3719	2078.8448	36683.55	35795.55
938.5084	2080.3945	36550.1	35661.35
938.6448	2081.9434	36604.3	35715.85
938.7812	2083.4916	36445.3	35556.25
938.9176	2085.039	36264.25	35372.15
939.054	2086.5857	36156.1	35264.1
939.1903	2088.1317	36097.75	35208.55
939.3267	2089.677	35971.35	35080.2
939.463	2091.2215	35905.95	35016.3
939.5992	2092.7652	35704.15	34812.1
939.7355	2094.3083	35648	34758.4
939.8717	2095.8506	35593.05	34703.15
940.0079	2097.3921	35575.65	34685.6
940.1441	2098.933	35443.05	34551.35
940.2802	2100.4731	35322.95	34433
940.4163	2102.0124	35276.1	34378.55
940.5524	2103.5511	35198.15	34308.5
940.6885	2105.089	35120.1	34229.35
940.8245	2106.6261	34959.6	34068.35
940.9606	2108.1626	34815.45	33924.9
941.0965	2109.6983	34785.8	33866
941.2325	2111.2332	34684.2	33792.95
941.3684	2112.7675	34608.1	33717.9
941.5044	2114.301	34493.5	33600.35
941.6403	2115.8337	34478.7	33585.85
941.7761	2117.3657	34286.8	33397.5
941.912	2118.897	34234.95	33343.65
942.0478	2120.4276	34068.7	33174.05
942.1835	2121.9575	33955.9	33067.05
942.3193	2123.4866	33948.5	33045.45
942.455	2125.0149	33796.05	32901.75
942.5907	2126.5426	33599	32709.7
942.7264	2128.0695	33522.1	32628.45
942.8621	2129.5956	33501.4	32614.65
942.9977	2131.1211	33379.35	32486.05
943.1333	2132.6458	33303	32414.75
943.2689	2134.1698	33265.95	32374.75
943.4044	2135.693	33129.9	32238.1
943.54	2137.2155	33068.95	32177.7
943.6755	2138.7373	32962.65	32070.95
943.8109	2140.2584	32853.2	31963.65
943.9464	2141.7787	32701.8	31807.25
944.0818	2143.2983	32580.95	31693.45
944.2172	2144.8171	32387.3	31499.2
944.3526	2146.3353	32341.4	31450.5
944.4879	2147.8527	32173.3	31284.65
944.6232	2149.3693	32168.85	31280.15
944.7585	2150.8853	32021.3	31131.7
944.8938	2152.4005	31883.75	30993.75
945.029	2153.9149	31868.85	30977.35
945.1642	2155.4287	31761.4	30870.3
945.2994	2156.9417	31671.65	30780.15
945.4346	2158.454	31577.05	30684.25
945.5697	2159.9655	31488.5	30599.8
945.7048	2161.4764	31432.1	30543.85
945.8399	2162.9865	31284.7	30395.2
945.9749	2164.4958	31239.9	30349.3
946.1099	2166.0045	31096.85	30203
946.2449	2167.5124	31045.95	30155.45
946.3799	2169.0195	30971.95	30082.45
946.5148	2170.526	30905.95	30015.4
946.6498	2172.0317	30773	29884.55
946.7846	2173.5367	30678.55	29786.95
946.9195	2175.0409	30575.95	29688.25
947.0543	2176.5445	30588.7	29699.4
947.1891	2178.0473	30425.7	29536.2
947.3239	2179.5494	30293.75	29401.3
947.4587	2181.0507	30203.3	29311.8
947.5934	2182.5513	30123.2	29232.1
947.7281	2184.0512	30038.5	29149.4
947.8628	2185.5504	29959.5	29068.15
947.9974	2187.0488	29780.45	28893.1
948.132	2188.5465	29681	28791.25
948.2666	2190.0435	29607.35	28718.45
948.4012	2191.5397	29486	28596.25
948.5357	2193.0353	29404.7	28514.95
948.6702	2194.5301	29278.7	28387
948.8047	2196.0241	29189.15	28296.9
948.9392	2197.5175	29076.4	28186.75
949.0736	2199.0101	28921.65	28028.55
949.208	2200.502	28782.7	27894.35
949.3424	2201.9931	28672.35	27783.05
949.4767	2203.4835	28604.85	27713.2
949.611	2204.9733	28542.8	27647.65
949.7453	2206.4622	28463.85	27573.35
949.8796	2207.9505	28308.45	27415.9
950.0138	2209.438	28192.35	27305.5
950.148	2210.9248	28124.25	27232.4
950.2822	2212.4109	27979.7	27092
950.4164	2213.8962	27909.45	27015.75
950.5505	2215.3809	27862.1	26971.5
950.6846	2216.8648	27799.85	26909.5
950.8186	2218.3479	27677.4	26782.2
950.9527	2219.8304	27540.75	26646.95
951.0867	2221.3121	27437.1	26545.25
951.2207	2222.7931	27354.15	26466.05
951.3546	2224.2733	27311.35	26420.75
951.4886	2225.7529	27183.2	26294.85
951.6225	2227.2317	27063.85	26171.55
951.7563	2228.7098	27042.9	26154.35
951.8902	2230.1872	26857.55	25967.85
952.024	2231.6638	26844.5	25954.45
952.1578	2233.1397	26712.2	25815.75
952.2916	2234.6149	26625.75	25734.55
952.4253	2236.0894	26558.45	25668
952.559	2237.5632	26494.8	25603.1
952.6927	2239.0362	26371.65	25482.45
952.8263	2240.5085	26282.1	25392.05
952.9599	2241.9801	26192.55	25301.85
953.0935	2243.4509	26091.4	25202.3
953.2271	2244.921	25990.75	25100.85
953.3606	2246.3904	25911.25	25018.9
953.4941	2247.8591	25848.65	24958.35
953.6276	2249.3271	25753.9	24863.4
953.7611	2250.7943	25657.1	24767.8
953.8945	2252.2608	25573.25	24683.2
954.0279	2253.7266	25466.9	24577.1
954.1612	2255.1917	25391.7	24502.9
954.2946	2256.656	25285.6	24394.4
954.4279	2258.1197	25222.2	24333
954.5612	2259.5826	25149.25	24257
954.6944	2261.0447	25113.95	24223.2
954.8276	2262.5062	25014.35	24122.35
954.9608	2263.9669	24948.45	24056.95
955.094	2265.4269	24894.25	24005.55
955.2271	2266.8862	24762.85	23871.15
955.3602	2268.3448	24712.85	23821.8
955.4933	2269.8026	24656.8	23766
955.6264	2271.2598	24604	23714
955.7594	2272.7162	24526.4	23638.75
955.8924	2274.1719	24468.2	23579.45
956.0253	2275.6268	24372.7	23482.15
956.1583	2277.0811	24313.35	23424.45
956.2912	2278.5346	24222.75	23334.05
956.4241	2279.9874	24175.75	23287.35
956.5569	2281.4395	24105.55	23218.05
956.6897	2282.8908	24003.45	23110.25
956.8225	2284.3414	23964.6	23073.15
956.9553	2285.7914	23894.4	23005.6
957.088	2287.2406	23813.45	22923.55
957.2207	2288.689	23706.9	22816.4
957.3534	2290.1368	23625.15	22734.55
957.486	2291.5838	23548.65	22657.15
957.6186	2293.0302	23469.55	22577.5
957.7512	2294.4758	23324.05	22433.8
957.8838	2295.9206	23252.8	22361.05
958.0163	2297.3648	23212.45	22323.65
958.1488	2298.8082	23210.6	22321
958.2813	2300.251	23140.15	22250.25
958.4137	2301.693	23037.95	22145.65
958.5461	2303.1343	23008.55	22117.6
958.6785	2304.5748	22897.05	22007.15
958.8108	2306.0147	22836.2	21945.7
958.9432	2307.4538	22780.35	21887.85
959.0754	2308.8922	22630.9	21743.15
959.2077	2310.3299	22571.7	21682.5
959.3399	2311.7669	22494.55	21606.6
959.4721	2313.2031	22420.45	21531.1
959.6043	2314.6387	22341.85	21451
959.7365	2316.0735	22284.45	21393.9
959.8686	2317.5076	22250.15	21361.65
960.0006	2318.941	22225.45	21335.75
960.1327	2320.3737	22103.65	21215.1
960.2647	2321.8056	22044.25	21153.85
960.3967	2323.2369	21954.3	21063.7
960.5287	2324.6674	21907.55	21014.15
960.6606	2326.0972	21805.75	20912.7
960.7925	2327.5263	21697.2	20807.7
960.9244	2328.9547	21621	20731.95
961.0562	2330.3823	21601.2	20709.8
961.1881	2331.8092	21588.05	20695.7
961.3198	2333.2355	21470.2	20579.4
961.4516	2334.661	21414.35	20522.5
961.5833	2336.0858	21362.95	20470.35
961.715	2337.5098	21320.25	20430.35
961.8467	2338.9332	21295.15	20403.95
961.9783	2340.3558	21145.95	20254.6
962.1099	2341.7778	21091.8	20203.95
962.2415	2343.199	21039.2	20149.6
962.373	2344.6195	20948.5	20058.65
962.5045	2346.0393	20880.45	19990.35
962.636	2347.4583	20851.2	19959.3
962.7675	2348.8767	20772	19880
962.8989	2350.2943	20740.1	19849.05
963.0303	2351.7113	20665.25	19774.7
963.1617	2353.1275	20622	19732.9
963.293	2354.543	20510.85	19613.55
963.4243	2355.9578	20461.25	19571
963.5556	2357.3718	20346.45	19458.7
963.6868	2358.7852	20234.85	19342.55
963.818	2360.1978	20151.95	19261.45
963.9492	2361.6098	20147.1	19256.05
964.0803	2363.021	20072.3	19178
964.2114	2364.4315	20017.6	19127.7
964.3425	2365.8413	19925.05	19035.2
964.4736	2367.2504	19822	18932.15
964.6046	2368.6587	19738.1	18847.6
964.7356	2370.0664	19626.55	18738.95
964.8666	2371.4733	19653.75	18765.3
964.9975	2372.8795	19552.8	18664.2
965.1284	2374.285	19486.35	18598.45
965.2593	2375.6899	19364.35	18474.7
965.3901	2377.0939	19288.1	18399.5
965.5209	2378.4973	19212.15	18322.65
965.6517	2379.9	19165.95	18276.4
965.7825	2381.3019	19068.45	18179.4
965.9132	2382.7032	19026.15	18139.1
966.0439	2384.1037	19002.45	18115.1
966.1745	2385.5035	18913.9	18023.9
966.3051	2386.9027	18836.3	17946.9
966.4357	2388.3011	18792.8	17901.35
966.5663	2389.6987	18723.75	17833.4
966.6968	2391.0957	18638.65	17749.8
966.8273	2392.492	18587.3	17697.8
966.9578	2393.8876	18498.15	17609.75
967.0882	2395.2824	18394.95	17507.4
967.2186	2396.6765	18328.7	17441
967.349	2398.07	18236.1	17348.8
967.4793	2399.4627	18188.2	17297.75
967.6097	2400.8547	18133.8	17244
967.7399	2402.246	18072.75	17179.35
967.8702	2403.6366	17940.85	17053.1
968.0004	2405.0265	17887.1	16999.3
968.1306	2406.4156	17828.6	16935.05
968.2607	2407.8041	17743.05	16848.75
968.3909	2409.1918	17646.95	16755.4
968.521	2410.5789	17602	16711.5
968.651	2411.9652	17548.9	16655.25
968.781	2413.3508	17524.25	16635.9
968.911	2414.7358	17405.7	16515.1
969.041	2416.12	17341.9	16453.5
969.1709	2417.5035	17316.65	16429.15
969.3008	2418.8863	17220.2	16328.8
969.4307	2420.2684	17203.8	16314.1
969.5606	2421.6497	17091.7	16201.9
969.6904	2423.0304	16977.4	16087.7
969.8201	2424.4104	16992.7	16102.85
969.9499	2425.7896	16925.35	16031.95
970.0796	2427.1682	16849.65	15960
970.2093	2428.546	16832.6	15942.5
970.3389	2429.9232	16795.3	15907.4
970.4685	2431.2996	16736.1	15847
970.5981	2432.6753	16688	15798.1
970.7277	2434.0503	16633.4	15744.65
970.8572	2435.4246	16544.55	15656.1
970.9867	2436.7982	16458.15	15566.8
971.1161	2438.1711	16441.7	15554.5
971.2456	2439.5433	16385.75	15496
971.375	2440.9148	16303.45	15410
971.5043	2442.2856	16212.65	15323.95
971.6336	2443.6557	16187.95	15297.15
971.7629	2445.025	16128.4	15239.2
971.8922	2446.3937	16112.7	15224.95
972.0214	2447.7617	16011.5	15120.65
972.1506	2449.1289	16010.95	15119.6
972.2798	2450.4955	15937.3	15046.2
972.4089	2451.8613	15897.3	15007.7
972.538	2453.2265	15832.95	14945.25
972.6671	2454.5909	15797.55	14907.65
972.7961	2455.9546	15778.75	14891.35
972.9251	2457.3177	15720.1	14832.65
973.0541	2458.68	15657.7	14767.6
973.1831	2460.0416	15641.45	14753.5
973.312	2461.4025	15603.4	14711
973.4408	2462.7627	15551.75	14651
973.5697	2464.1222	15486.5	14599
973.6985	2465.4811	15425	14534.35
973.8273	2466.8392	15379.8	14491.3
973.956	2468.1966	15319.35	14427.95
974.0847	2469.5533	15314.9	14423.45
974.2134	2470.9093	15274.15	14384.95
974.3421	2472.2645	15173.75	14281.2
974.4707	2473.6191	15155.25	14265.15
974.5993	2474.973	15112.15	14223.8
974.7278	2476.3262	15032.3	14140.05
974.8563	2477.6787	14996.35	14106.85
974.9848	2479.0305	14902.75	14015.15
975.1132	2480.3816	14874.15	13984.7
975.2417	2481.7319	14804.2	13914.15
975.37	2483.0816	14764.7	13872
975.4984	2484.4306	14715.45	13825.85
975.6267	2485.7789	14646.2	13758.2
975.755	2487.1264	14574.55	13684.6
975.8833	2488.4733	14511.1	13624.25
976.0115	2489.8195	14465.8	13558.6
976.1397	2491.165	14422.1	13530.45
976.2678	2492.5097	14362.2	13470.35
976.3959	2493.8538	14291.65	13402.65
976.524	2495.1972	14214.1	13324.95
976.6521	2496.5398	14167.8	13277.4
976.7801	2497.8818	14139.05	13246.15
976.9081	2499.2231	14081.55	13194.1
977.036	2500.5637	14011.1	13120.85
977.164	2501.9035	13992.3	13103.35
977.2918	2503.2427	13942.05	13049.75
977.4197	2504.5812	13893.05	13002.8
977.5475	2505.919	13859	12967.8
977.6753	2507.256	13839.6	12949.8
977.8031	2508.5924	13765.55	12876.85
977.9308	2509.9281	13704.75	12807.75
978.0585	2511.2631	13670.6	12782.7
978.1861	2512.5974	13624.65	12735.15
978.3137	2513.9309	13607.4	12717.35
978.4413	2515.2638	13526	12611.05
978.5689	2516.596	13482.4	12590.85
978.6964	2517.9275	13435	12542.5
978.8239	2519.2583	13351.3	12459.65
978.9513	2520.5884	13332.15	12440.85
979.0788	2521.9178	13244.8	12356.8
979.2062	2523.2465	13203.2	12314.45
979.3335	2524.5745	13156	12267.2
979.4608	2525.9018	13084	12193.2
979.5881	2527.2284	13091.25	12204.45
979.7154	2528.5543	13066	12178.45
979.8426	2529.8796	13010.3	12121.6
979.9698	2531.2041	13011.25	12120.55
980.0969	2532.5279	12968	12080
980.224	2533.851	12921.95	12033
980.3511	2535.1735	12888.85	12001.95
980.4781	2536.4952	12808.65	11921.25
980.6052	2537.8163	12799.7	11910
980.7321	2539.1366	12717.5	11830.25
980.8591	2540.4562	12723	11832.5
980.986	2541.7752	12711.1	11821.65
981.1129	2543.0935	12664.6	11774.8
981.2397	2544.411	12620.4	11728.55
981.3665	2545.7279	12595.85	11708.25
981.4933	2547.0441	12577.45	11688.45
981.62	2548.3596	12569.1	11676.75
981.7467	2549.6744	12543.7	11655.9
981.8734	2550.9885	12481.9	11584.35
982.0001	2552.3019	12444.85	11555.75
982.1267	2553.6146	12407.35	11516.8
982.2532	2554.9266	12371.25	11481
982.3798	2556.2379	12338.15	11447.6
982.5063	2557.5485	12313.45	11424.6
982.6327	2558.8585	12268.35	11373.6
982.7592	2560.1677	12220.35	11327.3
982.8856	2561.4762	12188.7	11298.2
983.0119	2562.7841	12185.35	11291
983.1383	2564.0913	12152.65	11263.2
983.2646	2565.3977	12132.5	11243.6
983.3908	2566.7035	12099.75	11209.65
983.517	2568.0086	12066.95	11173.9
983.6432	2569.313	12057.7	11169.25
983.7694	2570.6167	12054.05	11160
983.8955	2571.9197	11967.1	11078.8
984.0216	2573.222	11951.55	11060.05
984.1476	2574.5236	11952.55	11061.9
984.2737	2575.8246	11896.1	11004.05
984.3996	2577.1248	11853	10960
984.5256	2578.4244	11825.85	10937.65
984.6515	2579.7232	11824.3	10935.65
984.7774	2581.0214	11788.4	10877.9
984.9032	2582.3189	11754.55	10865.05
985.029	2583.6157	11738.8	10845.5
985.1548	2584.9118	11712.7	10823.65
985.2806	2586.2072	11657.7	10769.15
985.4063	2587.5019	11607.4	10720.05
985.5319	2588.7959	11586.3	10696.7
985.6576	2590.0893	11567.7	10676.4
985.7832	2591.3819	11546.95	10659.1
985.9087	2592.6739	11474.7	10585.75
986.0343	2593.9652	11474.95	10584.75
986.1597	2595.2557	11421.8	10533.65
986.2852	2596.5456	11358	10467.95
986.4106	2597.8348	11301.4	10412.1
986.536	2599.1234	11288	10400.2
986.6614	2600.4112	11250.15	10358.5
986.7867	2601.6983	11222.45	10329.8
986.912	2602.9848	11146	10256.6
987.0372	2604.2705	11097.25	10199.9
987.1624	2605.5556	11094.65	10205.25
987.2876	2606.84	11042.8	10152.5
987.4128	2608.1237	11002.05	10112
987.5379	2609.4067	10958.9	10069.25
987.6629	2610.689	10933.2	10034.55
987.788	2611.9707	10893.05	9999.75
987.913	2613.2516	10883.15	9989.4
988.0379	2614.5319	10810.65	9922.5
988.1629	2615.8115	10726.8	9839
988.2878	2617.0903	10698.8	9809.2
988.4126	2618.3685	10680.5	9790.95
988.5375	2619.6461	10647.35	9758.35
988.6622	2620.9229	10612	9723.4
988.787	2622.199	10583.25	9693.7
988.9117	2623.4745	10532.4	9642.3
989.0364	2624.7493	10491.65	9604.7
989.161	2626.0234	10444.6	9555.5
989.2857	2627.2968	10414.9	9526.45
989.4102	2628.5695	10375.95	9485.5
989.5348	2629.8415	10325	9433.55
989.6593	2631.1128	10285.55	9394.65
989.7837	2632.3835	10250.95	9360.85
989.9082	2633.6535	10188.75	9301.4
990.0326	2634.9228	10177.6	9290.5
990.1569	2636.1914	10151	9261.05
990.2812	2637.4593	10102.5	9211.6
990.4055	2638.7265	10074	9182.5
990.5298	2639.9931	10045.5	9155.75
990.654	2641.259	10008.9	9119.6
990.7782	2642.5242	9984.65	9094.9
990.9023	2643.7887	9941.25	9052.3
991.0264	2645.0525	9927.5	9038.45
991.1505	2646.3156	9880.2	8988.6
991.2745	2647.5781	9844.5	8955.6
991.3985	2648.8398	9826.45	8936.7
991.5225	2650.1009	9774.9	8880.05
991.6464	2651.3613	9743.1	8853
991.7703	2652.6211	9743.8	8854.4
991.8942	2653.8801	9689.25	8800.55
992.018	2655.1385	9665.85	8775.75
992.1418	2656.3961	9642.5	8754.45
992.2655	2657.6531	9616.75	8725.9
992.3892	2658.9094	9569.65	8679.95
992.5129	2660.1651	9557.75	8668.05
992.6366	2661.42	9543.4	8652.45
992.7602	2662.6743	9503.05	8611.9
992.8837	2663.9279	9481.9	8592.7
993.0073	2665.1808	9435.45	8544.8
993.1307	2666.433	9407.15	8518.75
993.2542	2667.6846	9405.25	8519.05
993.3776	2668.9354	9379.4	8486.05
993.501	2670.1856	9343.1	8453.4
993.6244	2671.4351	9301.6	8412.9
993.7477	2672.6839	9337.9	8447.05
993.8709	2673.9321	9295.75	8405.25
993.9942	2675.1795	9232.35	8342.25
994.1174	2676.4263	9218.85	8332.75
994.2405	2677.6724	9171.8	8283.5
994.3637	2678.9179	9142	8251.9
994.4868	2680.1626	9125.2	8235.2
994.6098	2681.4067	9110.7	8220.6
994.7328	2682.6501	9068.15	8180.9
994.8558	2683.8928	9039.7	8149.4
994.9788	2685.1348	8986.3	8098.55
995.1017	2686.3761	8939.65	8052.2
995.2245	2687.6168	8931.25	8042.4
995.3474	2688.8568	8903.45	8015.2
995.4702	2690.0961	8889.65	8000.45
995.5929	2691.3348	8862.4	7973
995.7156	2692.5727	8814.8	7925.85
995.8383	2693.81	8793.65	7904.3
995.961	2695.0466	8767.6	7879.35
996.0836	2696.2826	8742.05	7850.6
996.2062	2697.5178	8731.85	7839.9
996.3287	2698.7524	8673.7	7786.6
996.4512	2699.9863	8670.2	7781.1
996.5737	2701.2195	8635.5	7748.45
996.6961	2702.452	8619.65	7729.25
996.8185	2703.6839	8560.95	7671.1
996.9408	2704.9151	8552.45	7663.75
997.0631	2706.1456	8547.45	7658.25
997.1854	2707.3755	8505.3	7615.5
997.3077	2708.6046	8483.5	7591.65
997.4299	2709.8331	8460.25	7569.85
997.552	2711.0609	8432.2	7543.5
997.6742	2712.2881	8398.35	7509.55
997.7963	2713.5145	8370.95	7479.4
997.9183	2714.7403	8343	7455.4
998.0403	2715.9654	8319.4	7430.9
998.1623	2717.1899	8319.45	7412.55
998.2842	2718.4136	8306.7	7416.7
998.4062	2719.6367	8280.1	7391.05
998.528	2720.8591	8246.1	7349.35
998.6498	2722.0809	8234	7343.5
998.7716	2723.3019	8193.2	7301.5
998.8934	2724.5223	8169.9	7278.45
999.0151	2725.7421	8136.2	7245.9
999.1368	2726.9611	8141.7	7251.25
999.2584	2728.1795	8100.5	7207.3
999.38	2729.3972	8063.05	7174.25
999.5016	2730.6142	8033.3	7130.9
999.6231	2731.8306	7996.2	7106.05
999.7446	2733.0462	7961.1	7071.1
999.8661	2734.2612	7922.2	7029.2
999.9875	2735.4756	7855.4	6964.75
1000.1089	2736.6892	7813.05	6923.8
1000.2302	2737.9022	7761.2	6873.45
1000.3515	2739.1145	7724.35	6835.65
1000.4728	2740.3262	7695.7	6798.4
1000.594	2741.5372	7648.9	6759.15
1000.7152	2742.7475	7615.7	6726.6
1000.8363	2743.9571	7610.85	6719.75
1000.9575	2745.1661	7575.7	6684
1001.0785	2746.3744	7533.45	6642.75
1001.1996	2747.582	7515.55	6628.05
1001.3206	2748.7889	7473.45	6581.75
1001.4415	2749.9952	7447.3	6558.65
1001.5625	2751.2008	7413.85	6522.65
1001.6833	2752.4057	7388.15	6496.05
1001.8042	2753.61	7374.7	6482.95
1001.925	2754.8136	7337.55	6446.25
1002.0458	2756.0165	7314.25	6425.7
1002.1665	2757.2188	7292.7	6405.45
1002.2872	2758.4204	7276	6386.35
1002.4078	2759.6213	7220.55	6329.5
1002.5285	2760.8215	7221.9	6327.45
1002.649	2762.0211	7189.6	6297
1002.7696	2763.22	7143.1	6249.6
1002.8901	2764.4182	7140.8	6249.1
1003.0106	2765.6158	7123.05	6235.55
1003.131	2766.8127	7087.75	6200.7
1003.2514	2768.009	7061.1	6173.85
1003.3717	2769.2045	7039.85	6150.75
1003.492	2770.3994	7046.4	6154.75
1003.6123	2771.5936	7005.9	6114.3
1003.7325	2772.7872	6979.95	6091.95
1003.8527	2773.9801	6923.75	6034.6
1003.9729	2775.1723	6933.85	6028.2
1004.093	2776.3639	6900	6010.7
1004.2131	2777.5548	6878.9	5987
1004.3331	2778.745	6839.05	5949.7
1004.4531	2779.9346	6833.4	5945.4
1004.5731	2781.1235	6845.45	5955.15
1004.693	2782.3117	6809.2	5921.55
1004.8129	2783.4992	6783.8	5894.95
1004.9328	2784.6861	6730.35	5841.4
1005.0526	2785.8723	6734.95	5844.1
1005.1723	2787.0579	6729.75	5839.3
1005.2921	2788.2428	6703.85	5815.75
1005.4118	2789.427	6675.85	5788.5
1005.5314	2790.6106	6661.9	5774.35
1005.651	2791.7935	6649.75	5761.6
1005.7706	2792.9757	6610.3	5721.7
1005.8902	2794.1573	6604.95	5713.6
1006.0097	2795.3382	6615.25	5725.9
1006.1291	2796.5184	6586.1	5700.3
1006.2485	2797.698	6585.55	5694.55
1006.3679	2798.8769	6577.55	5688
1006.4873	2800.0551	6563.55	5672.6
1006.6066	2801.2327	6560	5668.25
1006.7258	2802.4096	6558.55	5671.2
1006.8451	2803.5859	6537.5	5648.9
1006.9642	2804.7615	6509.25	5619.75
1007.0834	2805.9364	6547.4	5660.7
1007.2025	2807.1106	6553.45	5664.35
1007.3216	2808.2842	6573.1	5684.15
1007.4406	2809.4572	6548.4	5659.7
1007.5596	2810.6294	6584.65	5695.2
1007.6785	2811.801	6614.7	5726.45
1007.7975	2812.972	6618.5	5729.75
1007.9163	2814.1423	6653.45	5765.05
1008.0352	2815.3119	6690	5800.45
1008.154	2816.4808	6704.35	5816.1
1008.2727	2817.6491	6727.65	5836.8
1008.3914	2818.8167	6754.95	5867.35
1008.5101	2819.9837	6807.9	5915.2
1008.6288	2821.15	6830.6	5942.25
1008.7474	2822.3157	6837.4	5950.25
1008.8659	2823.4807	6863.7	5973.15
1008.9844	2824.645	6901.9	6010.1
1009.1029	2825.8086	6925.85	6037.05
1009.2214	2826.9716	6949.5	6061.8
1009.3398	2828.134	6989.05	6102.6
1009.4581	2829.2957	7003.4	6114.5
1009.5764	2830.4567	7004.35	6117.55
1009.6947	2831.617	7013.35	6125.5
1009.813	2832.7767	7024.15	6134.9
1009.9312	2833.9358	7008.95	6120.6
1010.0493	2835.0941	6975.85	6084.7
1010.1675	2836.2519	6983.9	6094.75
1010.2855	2837.4089	6937.25	6046.8
1010.4036	2838.5653	6913.1	6025.95
1010.5216	2839.7211	6914.6	6025.3
1010.6396	2840.8761	6888.9	5999.05
1010.7575	2842.0306	6880.85	5994.2
1010.8754	2843.1843	6924.9	6035.1
1010.9932	2844.3374	6941.3	6054.15
1011.111	2845.4899	6993.85	6105.9
1011.2288	2846.6417	7035.65	6147.35
1011.3465	2847.7928	7096.5	6209.5
1011.4642	2848.9433	7159.65	6269
1011.5818	2850.0931	7213.25	6324.6
1011.6995	2851.2422	7281.05	6389.15
1011.817	2852.3907	7336.1	6445.65
1011.9345	2853.5385	7363.4	6474.6
1012.052	2854.6857	7438.35	6525.55
1012.1695	2855.8323	7443.6	6555.8
1012.2869	2856.9781	7476.75	6587.7
1012.4042	2858.1233	7515.85	6627.65
1012.5216	2859.2679	7529.15	6640
1012.6389	2860.4118	7548.15	6659.45
1012.7561	2861.555	7571.7	6677.65
1012.8733	2862.6976	7635.65	6745
1012.9905	2863.8395	7626.85	6740
1013.1076	2864.9808	7612.75	6723.55
1013.2247	2866.1214	7617.05	6729.2
1013.3417	2867.2614	7600	6711.35
1013.4587	2868.4007	7623.9	6733.75
1013.5757	2869.5393	7612.2	6722.8
1013.6926	2870.6773	7605.7	6713.2
1013.8095	2871.8146	7604.05	6712.85
1013.9263	2872.9513	7575.75	6683.45
1014.0431	2874.0874	7530.3	6642.5
1014.1599	2875.2227	7514.3	6626.8
1014.2766	2876.3574	7496.65	6610.8
1014.3933	2877.4915	7429.3	6540.2
1014.51	2878.6249	7366.7	6477.5
1014.6266	2879.7577	7357.75	6468.25
1014.7431	2880.8898	7306.35	6408.15
1014.8596	2882.0212	7275.05	6386.7
1014.9761	2883.152	7258.2	6370.25
1015.0925	2884.2821	7214.1	6326.7
1015.2089	2885.4116	7171.5	6283.55
1015.3253	2886.5405	7191.9	6304
1015.4416	2887.6686	7180.25	6288.2
1015.5579	2888.7962	7133.7	6248.05
1015.6741	2889.923	7141.25	6253.8
1015.7903	2891.0493	7122.8	6237.6
1015.9065	2892.1748	7126.5	6238.05
1016.0226	2893.2997	7114.95	6223.9
1016.1387	2894.424	7119.45	6233.55
1016.2547	2895.5476	7113.45	6225.15
1016.3707	2896.6706	7119.4	6231
1016.4866	2897.7929	7144.05	6256.05
1016.6025	2898.9145	7148.8	6260.3
1016.7184	2900.0355	7144.2	6256.2
1016.8342	2901.1559	7153.7	6265.45
1016.95	2902.2756	7190.7	6302.25
1017.0658	2903.3946	7184.1	6295.95
1017.1815	2904.513	7195.2	6303.9
1017.2971	2905.6308	7220.6	6332.55
1017.4127	2906.7479	7228.2	6341.6
1017.5283	2907.8643	7223.8	6336.25
1017.6439	2908.9801	7204.25	6315.7
1017.7594	2910.0953	7200.5	6311.6
1017.8748	2911.2098	7185.6	6292.45
1017.9902	2912.3236	7162.6	6266.35
1018.1056	2913.4368	7149.2	6255.7
1018.2209	2914.5494	7113.5	6224.1
1018.3362	2915.6613	7066.85	6172.3
1018.4515	2916.7725	7044.9	6153.55
1018.5667	2917.8831	6997.55	6108.95
1018.6819	2918.9931	6944.45	6054.25
1018.797	2920.1024	6906.6	6018
1018.9121	2921.211	6881	5993.2
1019.0271	2922.319	6839	5948.75
1019.1421	2923.4264	6838.7	5950.75
1019.2571	2924.5331	6803.4	5915.55
1019.372	2925.6391	6747.45	5857.95
1019.4869	2926.7445	6763.65	5877.75
1019.6017	2927.8493	6737.95	5848.25
1019.7165	2928.9534	6721.05	5832.8
1019.8313	2930.0569	6690.7	5797.9
1019.946	2931.1597	6667.6	5778.2
1020.0606	2932.2619	6655.5	5766.35
1020.1753	2933.3634	6662.95	5774.65
1020.2899	2934.4643	6634.35	5739.95
1020.4044	2935.5645	6596.25	5700.85
1020.5189	2936.6641	6540.35	5649.6
1020.6334	2937.763	6478.9	5592.2
1020.7478	2938.8613	6430.45	5544.1
1020.8622	2939.959	6369.35	5476.6
1020.9765	2941.056	6284.2	5396.05
1021.0908	2942.1523	6182.3	5291.95
1021.2051	2943.248	6101.95	5212.75
1021.3193	2944.3431	5992.35	5103.75
1021.4334	2945.4375	5864.2	4977.3
1021.5476	2946.5313	5745.6	4858
1021.6617	2947.6244	5646.2	4755.1
1021.7757	2948.7169	5546.9	4657.65
1021.8897	2949.8087	5434.5	4544.15
1022.0037	2950.8999	5330.65	4444.65
1022.1176	2951.9904	5245.65	4358.75
1022.2315	2953.0803	5166.7	4279.4
1022.3453	2954.1696	5089.5	4201.45
1022.4591	2955.2582	5036.45	4147.9
1022.5728	2956.3462	4972.15	4084.45
1022.6865	2957.4335	4919.35	4030.95
1022.8002	2958.5202	4859.25	3968.9
1022.9138	2959.6062	4810	3923.95
1023.0274	2960.6916	4758.6	3869.55
1023.141	2961.7764	4742.3	3853.05
1023.2545	2962.8605	4712.2	3823.35
1023.3679	2963.9439	4684.25	3796.1
1023.4813	2965.0267	4667.75	3779.05
1023.5947	2966.1089	4666.4	3752.8
1023.708	2967.1905	4630.5	3743.1
1023.8213	2968.2714	4603.15	3716
1023.9346	2969.3516	4598.95	3712
1024.0478	2970.4312	4588.3	3692.9
1024.1609	2971.5102	4557.65	3669.5
1024.274	2972.5885	4559.75	3671.4
1024.3871	2973.6662	4559.4	3666.6
1024.5002	2974.7432	4536.75	3649.8
1024.6132	2975.8196	4521.65	3632.6
1024.7261	2976.8954	4499.2	3610.95
1024.839	2977.9705	4474.3	3586.45
1024.9519	2979.045	4456	3568.05
1025.0647	2980.1188	4423.8	3534.55
1025.1775	2981.192	4387.9	3500.45
1025.2902	2982.2645	4378	3489.3
1025.4029	2983.3364	4341.2	3452.8
1025.5156	2984.4077	4281.8	3394.45
1025.6282	2985.4783	4260.15	3365.9
1025.7407	2986.5483	4212.4	3326.55
1025.8532	2987.6177	4170.45	3283.25
1025.9657	2988.6864	4128.75	3240.8
1026.0782	2989.7545	4086.65	3197
1026.1906	2990.8219	4039.1	3152.7
1026.3029	2991.8887	4008.2	3118.75
1026.4152	2992.9548	3974.05	3085.6
1026.5275	2994.0204	3930.5	3042.25
1026.6397	2995.0852	3895.85	3009.95
1026.7519	2996.1495	3862.55	2974.75
1026.864	2997.2131	3811.15	2923
1026.9761	2998.276	3792.1	2901.95
1027.0882	2999.3383	3756.65	2869.5
1027.2002	3000.4	3732.15	2844.3
1027.3122	3001.4611	3709.9	2822.75
1027.4241	3002.5215	3679.75	2791.65
1027.536	3003.5812	3662.9	2774.6
1027.6478	3004.6404	3639.15	2751.85
1027.7596	3005.6989	3618.65	2729.3
1027.8714	3006.7567	3609.3	2722.2
1027.9831	3007.8139	3606.45	2699.75
1028.0947	3008.8705	3563.85	2674.25
1028.2064	3009.9264	3560.9	2668.9
1028.3179	3010.9818	3530.4	2642.9
1028.4295	3012.0364	3510.15	2621.6
1028.541	3013.0905	3514.5	2628.5
1028.6524	3014.1439	3489.8	2603.45
1028.7638	3015.1966	3488.55	2600.15
1028.8752	3016.2487	3471.35	2584.4
1028.9865	3017.3002	3473.75	2579.05
1029.0978	3018.3511	3465.4	2579.5
1029.209	3019.4013	3461.6	2574.85
1029.3202	3020.4509	3457.4	2571.5
1029.4314	3021.4998	3435.75	2547.35
1029.5425	3022.5481	3433.4	2545.95
1029.6535	3023.5958	3419.85	2531.05
1029.7645	3024.6428	3417.15	2529.7
1029.8755	3025.6892	3395.25	2506.5
1029.9864	3026.735	3385.25	2497.15
1030.0973	3027.7802	3385.15	2498.35
1030.2082	3028.8247	3375.6	2487.25
1030.319	3029.8685	3370.25	2482.8
1030.4297	3030.9118	3361.35	2474.6
1030.5404	3031.9544	3351.4	2464.15
1030.6511	3032.9963	3345	2458.9
1030.7617	3034.0376	3347.1	2460.65
1030.8723	3035.0783	3334.75	2445.55
1030.9829	3036.1184	3323.55	2433.55
1031.0934	3037.1578	3327.95	2440.75
1031.2038	3038.1966	3321.3	2432.15
1031.3142	3039.2348	3308	2421.45
1031.4246	3040.2723	3315.4	2419.1
1031.5349	3041.3092	3297.35	2410.1
1031.6452	3042.3455	3291.4	2403.75
1031.7554	3043.3811	3279.65	2390.35
1031.8656	3044.4161	3261.8	2373.35
1031.9758	3045.4505	3243.5	2357.85
1032.0859	3046.4842	3239.85	2350.45
1032.1959	3047.5173	3214.05	2328.2
1032.3059	3048.5498	3200.1	2312.65
1032.4159	3049.5816	3196.1	2308.2
1032.5258	3050.6128	3187.8	2300.9
1032.6357	3051.6434	3159.4	2268.3
1032.7455	3052.6734	3158.65	2268.4
1032.8553	3053.7027	3156.65	2269.2
1032.9651	3054.7314	3132.95	2246.75
1033.0748	3055.7594	3116.8	2230.9
1033.1845	3056.7868	3092.15	2203.8
1033.2941	3057.8136	3084.3	2197.4
1033.4037	3058.8398	3079.15	2192.05
1033.5132	3059.8653	3061.5	2172.4
1033.6227	3060.8902	3047.85	2159.55
1033.7321	3061.9145	3046.45	2159.8
1033.8415	3062.9381	3020.55	2132.65
1033.9509	3063.9612	3028.65	2123.4
1034.0602	3064.9835	3007.8	2120.15
1034.1694	3066.0053	2988.85	2099.4
1034.2787	3067.0264	2973.3	2085.35
1034.3878	3068.0469	2957.3	2068.65
1034.497	3069.0668	2958.55	2066.8
1034.6061	3070.086	2930.8	2043.85
1034.7151	3071.1046	2921.65	2033.4
1034.8241	3072.1226	2913.6	2025.55
1034.9331	3073.1399	2890.9	2004.2
1035.042	3074.1567	2878.55	1989.65
1035.1508	3075.1727	2862.05	1971.05
1035.2597	3076.1882	2834.9	1947.75
1035.3684	3077.203	2836.1	1947
1035.4772	3078.2173	2815.1	1927.8
1035.5859	3079.2308	2805.15	1914.75
1035.6945	3080.2438	2788.95	1900.55
1035.8031	3081.2561	2763.85	1875.1
1035.9117	3082.2678	2764.9	1877.8
1036.0202	3083.2789	2748.75	1861.15
1036.1286	3084.2893	2734	1847.8
1036.2371	3085.2991	2715.75	1827.1
1036.3454	3086.3083	2704.95	1814.3
1036.4538	3087.3169	2703.8	1813.9
1036.562	3088.3248	2692.2	1803.05
1036.6703	3089.3321	2674.7	1787.8
1036.7785	3090.3388	2667.95	1781.55
1036.8866	3091.3449	2652.5	1766.15
1036.9948	3092.3503	2644.75	1755.3
1037.1028	3093.3551	2630.3	1743.65
1037.2108	3094.3593	2618.85	1732.7
1037.3188	3095.3629	2622.4	1734.8
1037.4267	3096.3658	2599.9	1711.35
1037.5346	3097.3681	2593.5	1705.15
1037.6425	3098.3698	2582.8	1693.2
1037.7503	3099.3708	2580.95	1687
1037.858	3100.3713	2553.35	1665.4
1037.9657	3101.3711	2547.7	1659.2
1038.0734	3102.3702	2660.85	1629.5
1038.181	3103.3688	2546.3	1656.3
1038.2886	3104.3667	2524.8	1637
1038.3961	3105.364	2503.4	1615.35
1038.5036	3106.3607	2485.45	1596.8
1038.611	3107.3568	2486.75	1597.35
1038.7184	3108.3522	2480.65	1594.05
1038.8257	3109.347	2474.5	1585.95
1038.933	3110.3412	2471.5	1580
1039.0403	3111.3348	2448.65	1561.3
1039.1475	3112.3277	2431.25	1542.75
1039.2547	3113.32	2432.65	1546.9
1039.3618	3114.3117	2435.4	1546.8
1039.4689	3115.3028	2417.85	1531.8
1039.5759	3116.2932	2414.4	1525.65
1039.6829	3117.2831	2394.7	1502.9
1039.7898	3118.2723	2393.1	1504.5
1039.8967	3119.2608	2386.5	1498.55
1040.0035	3120.2488	2367.25	1478.6
1040.1103	3121.2361	2372.1	1485.4
1040.2171	3122.2229	2354.4	1467.3
1040.3238	3123.209	2356.7	1466.05
1040.4305	3124.1944	2350.1	1461.15
1040.5371	3125.1793	2346.95	1458.85
1040.6437	3126.1635	2322.15	1436.15
1040.7502	3127.1471	2313.3	1427.65
1040.8567	3128.1301	2315.95	1430.35
1040.9631	3129.1125	2310.5	1424.9
1041.0695	3130.0942	2292.45	1403.7
1041.1759	3131.0753	2305.35	1409.6
1041.2822	3132.0558	2285.95	1394.45
1041.3884	3133.0357	2265	1376.8
1041.4946	3134.015	2271.3	1383.05
1041.6008	3134.9936	2262.55	1373.9
1041.7069	3135.9716	2285.5	1376.8
1041.813	3136.949	2255.45	1366.9
1041.919	3137.9258	2259.1	1367.4
1042.025	3138.902	2241.35	1349.65
1042.1309	3139.8775	2228.9	1341.35
1042.2368	3140.8524	2230.75	1343.05
1042.3427	3141.8267	2213.85	1322.7
1042.4485	3142.8004	2219.15	1331.6
1042.5542	3143.7735	2212.15	1319.6
1042.6599	3144.7459	2205.75	1317.55
1042.7656	3145.7178	2201.9	1314.45
1042.8712	3146.689	2190.75	1303.9
1042.9768	3147.6596	2191.75	1300.95
1043.0823	3148.6295	2171.45	1282.8
1043.1878	3149.5989	2169.05	1282.6
1043.2932	3150.5676	2167.35	1281.9
1043.3986	3151.5357	2150.2	1264.25
1043.5039	3152.5032	2151.25	1263.15
1043.6092	3153.4701	2137.9	1252.25
1043.7145	3154.4364	2135.2	1244.5
1043.8197	3155.402	2120.95	1234.45
1043.9248	3156.367	2107.3	1218.8
1044.03	3157.3315	2142.25	1213.4
1044.135	3158.2952	2112.2	1224.6
1044.24	3159.2584	2099.4	1212.55
1044.345	3160.221	2091.85	1203.05
1044.4499	3161.1829	2080.25	1192.3
1044.5548	3162.1442	2073.75	1185.65
1044.6596	3163.105	2074.2	1185.75
1044.7644	3164.065	2061.45	1173.25
1044.8692	3165.0245	2053	1163.35
1044.9739	3165.9834	2048.75	1162.45
1045.0785	3166.9416	2046.05	1157.95
1045.1831	3167.8993	2033.2	1146.4
1045.2877	3168.8563	2034.05	1145.05
1045.3922	3169.8127	2026	1138.95
1045.4966	3170.7684	2015.35	1128.6
1045.6011	3171.7236	2008.9	1120.55
1045.7054	3172.6782	2010.45	1122.65
1045.8098	3173.6321	1999.05	1109.45
1045.914	3174.5854	1998.7	1107
1046.0183	3175.5381	1997.3	1108.25
1046.1224	3176.4902	1982.3	1095.05
1046.2266	3177.4417	1975.8	1088.4
1046.3307	3178.3926	1968.6	1082.05
1046.4347	3179.3428	1965.75	1080.9
1046.5387	3180.2924	1956.9	1070.8
1046.6427	3181.2415	1949.05	1061.6
1046.7466	3182.1899	1944.35	1055.9
1046.8504	3183.1377	1934.2	1046.95
1046.9542	3184.0848	1934.65	1044.25
1047.058	3185.0314	1935.5	1046.1
1047.1617	3185.9773	1928.85	1040.6
1047.2654	3186.9227	1916.35	1029.1
1047.369	3187.8674	1915.5	1029.45
1047.4726	3188.8115	1922.55	1032.6
1047.5761	3189.755	1906	1020.3
1047.6796	3190.6979	1894.5	1007.35
1047.783	3191.6402	1886.75	1000.95
1047.8864	3192.5818	1890.25	1002.65
1047.9898	3193.5229	1902.75	988.5
1048.0931	3194.4633	1880.85	990.05
1048.1963	3195.4031	1874.3	987.7
1048.2995	3196.3423	1866.45	978.3
1048.4027	3197.2809	1860.6	974
1048.5058	3198.2189	1864.15	977.35
1048.6089	3199.1563	1861.8	967.65
1048.7119	3200.0931	1839.7	954.8
1048.8148	3201.0292	1839.2	952.45
1048.9178	3201.9648	1842.25	956.2
1049.0206	3202.8997	1827.35	937.95
1049.1235	3203.834	1818.95	930.85
1049.2262	3204.7677	1821.45	933.4
1049.329	3205.7008	1818.15	928.9
1049.4317	3206.6333	1812.8	925.5
1049.5343	3207.5652	1812.45	924.05
1049.6369	3208.4964	1797.15	909.05
1049.7394	3209.4271	1793.25	904.55
1049.8419	3210.3571	1792.2	904.8
1049.9444	3211.2865	1784.55	896.65
1050.0468	3212.2154	1786.6	900.35
1050.1491	3213.1436	1788.5	900.15
1050.2514	3214.0712	1795.8	902.7
1050.3537	3214.9982	1780.85	893.45
1050.4559	3215.9246	1768.3	881.65
1050.5581	3216.8503	1756.7	871.15
1050.6602	3217.7755	1757.45	871.4
1050.7623	3218.7001	1748.9	861.4
1050.8643	3219.624	1750.15	862.65
1050.9663	3220.5473	1747.5	860.45
1051.0682	3221.4701	1745.55	856.7
1051.1701	3222.3922	1739.05	850.85
1051.2719	3223.3137	1729.75	843.45
1051.3737	3224.2346	1724.6	838.15
1051.4754	3225.1549	1716.15	830.65
1051.5771	3226.0746	1715.5	829.75
1051.6788	3226.9937	1701.75	815.8
1051.7804	3227.9121	1701.45	814.55
1051.8819	3228.83	1696.45	807.55
1051.9834	3229.7473	1697.1	809.8
1052.0849	3230.6639	1698.65	810.1
1052.1863	3231.5799	1680.05	794.35
1052.2876	3232.4954	1687.95	800.1
1052.3889	3233.4102	1680.3	793.75
1052.4902	3234.3244	1681.7	793.25
1052.5914	3235.238	1673.1	786.65
1052.6926	3236.151	1690.3	779.6
1052.7937	3237.0634	1653.45	767.35
1052.8948	3237.9752	1651.5	765.95
1052.9958	3238.8864	1648.95	762.2
1053.0968	3239.797	1652.65	765.95
1053.1977	3240.7069	1654.65	766.25
1053.2986	3241.6163	1645.3	755.25
1053.3994	3242.5251	1628.55	742.85
1053.5002	3243.4332	1624.35	740.2
1053.6009	3244.3408	1629.75	740.95
1053.7016	3245.2477	1616.25	728.65
1053.8022	3246.154	1619.85	731.6
1053.9028	3247.0598	1608.85	719.25
1054.0034	3247.9649	1601	715.6
1054.1039	3248.8694	1596.7	709.55
1054.2043	3249.7733	1602.15	714.4
1054.3047	3250.6766	1587.65	700.6
1054.4051	3251.5793	1596.8	708.8
1054.5054	3252.4814	1583.35	695.65
1054.6056	3253.3829	1583	696.75
1054.7058	3254.2838	1582.15	695.8
1054.806	3255.1841	1576	688.9
1054.9061	3256.0838	1561.85	674.65
1055.0061	3256.9829	1560	674.95
1055.1062	3257.8814	1562.75	673.7
1055.2061	3258.7792	1544.65	656.75
1055.306	3259.6765	1552.1	662.35
1055.4059	3260.5731	1533.85	647.5
1055.5057	3261.4692	1529.95	642.1
1055.6055	3262.3647	1528.7	639.75
1055.7052	3263.2595	1508.75	619.95
1055.8049	3264.1538	1499.65	613.6
1055.9045	3265.0474	1495.5	608.75
1056.0041	3265.9404	1493.7	609.65
1056.1036	3266.8329	1481.75	595.45
1056.2031	3267.7247	1473.05	577.4
1056.3025	3268.616	1454.2	567.75
1056.4019	3269.5066	1438.1	549.7
1056.5013	3270.3966	1431.8	542.55
1056.6005	3271.286	1405.3	519.9
