Software Version:	3.9.2.0
Unit SN:	10000200
Spectrometer SN:	6960
Date:	3/6/2024 10:28:09 AM
Data Line Index:	25
Spectral Points:	2048
Integration time (ms):	125
Averages:	20
Delay (ms):	30
Sequence Number:	1
Processing:	dark subtract
Laser Power (mW):	300
Laser Current (mA):	825
Laser Diode Temp (C):	25.1
Laser Case Temp (C):	26.1
System Temp (C):	25.8
Spectrometer Temp (C):	23.2
CCD Temp (C):	-0.008
Secondary Temp (C):	20.007
Heatsink Temp (C):	21.474
CCDPCB Temp (C):	35.896
SecondaryPCB Temp (C):	29.315

Wavelength	RamanShift	Raw Counts	Dark Subtracted
787.061	30.1047	1126.8	714.75
787.2016	32.3739	1157.2	747.35
787.3422	34.6426	1199.35	785.75
787.4828	36.9109	1242.35	827.55
787.6235	39.1787	1307.8	889.6
787.7642	41.4461	1370.25	948.35
787.9049	43.7131	1428.9	1003.8
788.0456	45.9796	1492.1	1063.3
788.1863	48.2456	1553.55	1121.65
788.3271	50.5112	1620.65	1187.3
788.4679	52.7764	1694.6	1257.65
788.6087	55.0411	1768	1325.6
788.7496	57.3054	1858.6	1410.45
788.8904	59.5692	1938.7	1489
789.0313	61.8326	2031.2	1579.6
789.1722	64.0955	2145.1	1689.9
789.3132	66.3579	2262.65	1801.1
789.4541	68.6199	2412.45	1949.5
789.5951	70.8815	2674.15	2205.5
789.7361	73.1426	3197.75	2725.25
789.8771	75.4032	4563.7	4088.05
790.0181	77.6634	8046.75	7564.3
790.1592	79.9231	17619.6	17132.25
790.3003	82.1824	54148.55	53649.9
790.4414	84.4412	65535	65016.55
790.5825	86.6995	65535	64987.45
790.7237	88.9574	65535	64961.5
790.8648	91.2148	65535	64940.65
791.006	93.4717	65535	64932.75
791.1472	95.7282	65535	64926.15
791.2885	97.9842	65535	64922.1
791.4297	100.2398	65535	64922
791.571	102.4949	65535	64917
791.7123	104.7495	65535	64912.65
791.8536	107.0036	65535	64911.5
791.9949	109.2573	65535	64913.15
792.1363	111.5105	65535	64913.45
792.2777	113.7632	65535	64906.6
792.4191	116.0154	65535	64896.8
792.5605	118.2672	65535	64906.55
792.7019	120.5185	65535	64903.1
792.8434	122.7693	65535	64901.35
792.9849	125.0197	65535	64895.3
793.1264	127.2696	65535	64894.2
793.2679	129.519	65535	64888.4
793.4094	131.7679	65535	64883.55
793.551	134.0163	65535	64883.15
793.6926	136.2642	65535	64879.8
793.8342	138.5117	65535	64869.8
793.9758	140.7587	65535	64876.6
794.1175	143.0052	65535	64872.8
794.2591	145.2512	65535	64874
794.4008	147.4967	65535	64875.05
794.5425	149.7417	65535	64871.75
794.6842	151.9863	65535	64865.1
794.826	154.2304	65535	64861.15
794.9677	156.4739	65535	64857.55
795.1095	158.717	65535	64856.5
795.2513	160.9596	65535	64850.55
795.3931	163.2017	65535	64849.9
795.535	165.4433	65535	64848.75
795.6768	167.6844	65535	64846.85
795.8187	169.925	65535	64842.95
795.9606	172.1651	65535	64843.2
796.1025	174.4047	65535	64836.25
796.2445	176.6439	65535	64835.85
796.3864	178.8825	65535	64832.4
796.5284	181.1206	65535	64827.95
796.6704	183.3582	65535	64822.55
796.8124	185.5954	65535	64820.7
796.9544	187.832	65535	64821.3
797.0965	190.0681	65535	64818.45
797.2386	192.3037	65535	64814.3
797.3806	194.5388	65535	64813
797.5228	196.7734	65535	64809.7
797.6649	199.0075	65535	64806.4
797.807	201.2411	65535	64804.6
797.9492	203.4742	65535	64805.9
798.0914	205.7068	65535	64800.3
798.2336	207.9389	65535	64800.6
798.3758	210.1704	65535	64798.9
798.518	212.4015	65535	64806.7
798.6603	214.632	65535	64815.35
798.8025	216.862	65535	64822
798.9448	219.0915	65535	64819.1
799.0871	221.3205	65535	64821.8
799.2294	223.549	65535	64818.25
799.3718	225.777	65535	64822.45
799.5141	228.0044	65535	64819.1
799.6565	230.2314	65535	64817
799.7989	232.4578	65535	64813.8
799.9413	234.6837	65535	64806.15
800.0837	236.909	65535	64801.3
800.2262	239.1339	65535	64775.9
800.3687	241.3582	65535	64788.75
800.5111	243.582	65535	64761.1
800.6536	245.8053	65535	64772.5
800.7961	248.0281	65535	64781.75
800.9387	250.2503	65535	64772.55
801.0812	252.472	65535	64771.3
801.2238	254.6932	65535	64770.4
801.3664	256.9139	65535	64771.8
801.509	259.134	65535	64772.05
801.6516	261.3536	65535	64771.5
801.7942	263.5727	65535	64767.9
801.9369	265.7912	65535	64767.75
802.0795	268.0092	65535	64765.4
802.2222	270.2267	65535	64767.35
802.3649	272.4436	65535	64764.9
802.5076	274.6601	65535	64753.1
802.6504	276.8759	65535	64757.15
802.7931	279.0913	65535	64761.25
802.9359	281.3061	65535	64756.3
803.0787	283.5204	65535	64757.05
803.2215	285.7341	65535	64751.35
803.3643	287.9473	65535	64742.25
803.5071	290.16	65535	64747
803.6499	292.3721	65535	64753.7
803.7928	294.5837	65535	64754.6
803.9357	296.7947	65535	64754.95
804.0786	299.0052	65535	64754.65
804.2215	301.2152	65535	64752.7
804.3644	303.4246	65535	64750.85
804.5074	305.6334	65535	64751.45
804.6503	307.8418	65535	64746.75
804.7933	310.0495	65535	64748.4
804.9363	312.2568	65535	64746.35
805.0793	314.4635	65535	64749.75
805.2223	316.6696	65535	64745.1
805.3653	318.8752	65535	64733.5
805.5084	321.0802	65535	64744.7
805.6514	323.2847	65535	64741.55
805.7945	325.4887	65535	64740.45
805.9376	327.692	65535	64737.75
806.0807	329.8949	65535	64737.05
806.2238	332.0972	65535	64736.05
806.367	334.2989	65535	64734.9
806.5101	336.5001	65535	64737.15
806.6533	338.7007	65535	64732.15
806.7965	340.9008	65535	64728.9
806.9397	343.1003	65535	64728.95
807.0829	345.2992	65535	64725.85
807.2261	347.4976	65535	64725.95
807.3693	349.6955	65535	64724.35
807.5126	351.8927	65535	64720.25
807.6559	354.0895	65535	64711.2
807.7991	356.2856	65535	64722.4
807.9424	358.4812	65535	64721.65
808.0857	360.6763	65535	64721.25
808.2291	362.8707	65535	64718.6
808.3724	365.0646	65535	64716
808.5158	367.258	65535	64714.4
808.6591	369.4508	65535	64709.65
808.8025	371.643	65535	64709.15
808.9459	373.8346	65535	64706.15
809.0893	376.0257	65535	64702.7
809.2327	378.2162	65535	64706.75
809.3762	380.4062	65535	64705.5
809.5196	382.5956	65535	64704.65
809.6631	384.7844	65535	64709.25
809.8066	386.9726	65535	64708.5
809.9501	389.1603	65535	64709.05
810.0936	391.3474	65535	64668.7
810.2371	393.5339	65535	64710.2
810.3806	395.7199	65535	64713.6
810.5241	397.9052	65535	64713.05
810.6677	400.09	65535	64710.65
810.8113	402.2743	65535	64714.05
810.9548	404.4579	65535	64713.6
811.0984	406.641	65535	64712.25
811.2421	408.8235	65535	64708.1
811.3857	411.0054	65535	64707.2
811.5293	413.1868	65535	64703.8
811.673	415.3675	65535	64698.45
811.8166	417.5477	65535	64700.35
811.9603	419.7273	65535	64695.9
812.104	421.9064	65535	64688.4
812.2477	424.0848	65535	64696.9
812.3914	426.2627	65535	64691.6
812.5351	428.4399	65535	64692.15
812.6788	430.6166	65535	64687.9
812.8226	432.7928	65535	64689.3
812.9663	434.9683	65535	64692.25
813.1101	437.1432	65535	64684.9
813.2539	439.3176	65535	64687.45
813.3977	441.4914	65535	64689.75
813.5415	443.6645	65535	64686
813.6853	445.8371	65535	64686
813.8291	448.0091	65535	64691
813.973	450.1806	65535	64688.35
814.1168	452.3514	65535	64688.6
814.2607	454.5216	65535	64677
814.4046	456.6913	65535	64683.75
814.5485	458.8603	65535	64685.1
814.6924	461.0288	65535	64688.75
814.8363	463.1967	65535	64688.25
814.9802	465.3639	65535	64683.55
815.1241	467.5306	65535	64683.35
815.2681	469.6967	65535	64683.9
815.412	471.8622	65535	64686.4
815.556	474.0271	65535	64684.55
815.7	476.1914	65535	64680.45
815.844	478.3551	65535	64681.35
815.988	480.5182	65535	64682.5
816.132	482.6807	65535	64681.65
816.276	484.8426	65535	64679.7
816.4201	487.0039	65535	64683.3
816.5641	489.1647	65535	64677.95
816.7082	491.3248	65535	64680.25
816.8522	493.4843	65535	64678.9
816.9963	495.6432	65535	64677.75
817.1404	497.8015	65535	64675.65
817.2845	499.9592	65535	64676.85
817.4286	502.1163	65535	64675.35
817.5727	504.2728	65535	64675.65
817.7168	506.4287	65535	64676.05
817.861	508.5839	65535	64674.65
818.0051	510.7386	65535	64674.3
818.1493	512.8927	65535	64671.45
818.2935	515.0461	65535	64673.05
818.4377	517.199	65535	64670.75
818.5818	519.3512	65535	64672.4
818.726	521.5029	65535	64667.9
818.8703	523.6539	65535	64673
819.0145	525.8043	65535	64668.7
819.1587	527.9541	65535	64667.5
819.303	530.1033	65535	64670.25
819.4472	532.2519	65535	64667.2
819.5915	534.3999	65535	64667.05
819.7357	536.5472	65535	64665.1
819.88	538.694	65535	64669.5
820.0243	540.8401	65535	64668.95
820.1686	542.9856	65535	64666.6
820.3129	545.1305	65535	64665.45
820.4572	547.2748	65535	64663.1
820.6016	549.4185	65535	64663.05
820.7459	551.5615	65535	64666.05
820.8902	553.704	65535	64665.6
821.0346	555.8458	65535	64665.2
821.1789	557.987	65535	64667.3
821.3233	560.1276	65535	64665.2
821.4677	562.2675	65535	64663.9
821.6121	564.4069	65535	64665.55
821.7565	566.5456	65535	64667.25
821.9009	568.6837	65535	64663.55
822.0453	570.8212	65535	64660.4
822.1897	572.958	65535	64661.25
822.3342	575.0942	65535	64663.45
822.4786	577.2299	65535	64659.8
822.6231	579.3648	65535	64668.05
822.7675	581.4992	65535	64668.35
822.912	583.6329	65535	64666.1
823.0565	585.766	65535	64665.55
823.201	587.8985	65535	64666.8
823.3454	590.0304	65535	64639.3
823.4899	592.1616	65535	64659.6
823.6345	594.2922	65535	64661.35
823.779	596.4222	65535	64656.85
823.9235	598.5515	65535	64657.25
824.068	600.6802	65535	64656.75
824.2126	602.8083	65535	64662.25
824.3571	604.9358	65535	64659.3
824.5017	607.0626	65535	64658
824.6462	609.1888	65535	64654.55
824.7908	611.3144	65535	64652.35
824.9354	613.4393	65535	64657.7
825.08	615.5636	65535	64654.55
825.2246	617.6873	65535	64655.8
825.3692	619.8103	65535	64651.65
825.5138	621.9327	65535	64656.5
825.6584	624.0544	65535	64658.55
825.803	626.1756	65535	64657.3
825.9477	628.2961	65535	64654.55
826.0923	630.4159	65535	64654.6
826.237	632.5351	65535	64653.2
826.3816	634.6537	65535	64654.35
826.5263	636.7716	65535	64653.9
826.6709	638.8889	65535	64649.95
826.8156	641.0056	65535	64651.85
826.9603	643.1216	65535	64653.45
827.105	645.237	65535	64651.35
827.2497	647.3518	65535	64652.55
827.3944	649.4659	65535	64656.1
827.5391	651.5793	65535	64653
827.6838	653.6922	65535	64653.8
827.8285	655.8043	65535	64648.75
827.9733	657.9159	65535	64650.9
828.118	660.0268	65535	64651.55
828.2627	662.137	65535	64650.1
828.4075	664.2466	65535	64647.9
828.5522	666.3556	65535	64649.25
828.697	668.4639	65535	64644.15
828.8418	670.5716	65535	64652.2
828.9865	672.6786	65535	64648.85
829.1313	674.785	65535	64644.1
829.2761	676.8907	65535	64647.45
829.4209	678.9958	65535	64651.1
829.5657	681.1002	65535	64645.7
829.7105	683.204	65535	64644.75
829.8553	685.3072	65535	64647.75
830.0001	687.4097	65535	64647.15
830.1449	689.5115	65535	64643.15
830.2898	691.6127	65535	64646.75
830.4346	693.7132	65535	64646.3
830.5794	695.8131	65535	64629.6
830.7243	697.9123	65535	64646.3
830.8691	700.0109	65535	64644.25
831.014	702.1089	65535	64645.55
831.1588	704.2061	65535	64642.45
831.3037	706.3028	65535	64642.1
831.4486	708.3987	65535	64643.65
831.5935	710.4941	65535	64642.4
831.7383	712.5887	65535	64641.1
831.8832	714.6827	65535	64639.5
832.0281	716.7761	65535	64641.5
832.173	718.8688	65535	64644.8
832.3179	720.9608	65535	64639.05
832.4628	723.0522	65535	64638.25
832.6077	725.1429	65535	64640.65
832.7527	727.233	65535	64641
832.8976	729.3224	65535	64641.2
833.0425	731.4112	65535	64640.8
833.1874	733.4993	65535	64641.6
833.3324	735.5867	65535	64638.35
833.4773	737.6735	65535	64638.45
833.6222	739.7596	65535	64640.8
833.7672	741.845	65535	64640.8
833.9122	743.9298	65535	64639.8
834.0571	746.014	65535	64639.7
834.2021	748.0974	65535	64638.7
834.347	750.1802	65535	64640.35
834.492	752.2624	65535	64638.3
834.637	754.3439	65535	64638.95
834.782	756.4247	65535	64630.6
834.9269	758.5048	65535	64637.8
835.0719	760.5843	65535	64636.35
835.2169	762.6631	65535	64639.45
835.3619	764.7413	65535	64638.6
835.5069	766.8188	65535	64641.25
835.6519	768.8956	65535	64636.5
835.7969	770.9718	65535	64639.25
835.9419	773.0473	65535	64640.05
836.0869	775.1221	65535	64638.7
836.232	777.1962	65535	64639.85
836.377	779.2697	65535	64637.15
836.522	781.3426	65535	64618.15
836.667	783.4147	65535	64633.9
836.8121	785.4862	65535	64639.25
836.9571	787.557	65535	64638
837.1021	789.6271	65535	64635.05
837.2472	791.6966	65535	64637
837.3922	793.7654	65535	64635.25
837.5373	795.8335	65535	64636.7
837.6823	797.901	65535	64636.95
837.8274	799.9678	65535	64635.3
837.9724	802.0339	65535	64637.15
838.1175	804.0993	65535	64628.1
838.2626	806.1641	65535	64636.65
838.4076	808.2282	65535	64635.8
838.5527	810.2916	65535	64633.55
838.6978	812.3544	65535	64640.7
838.8428	814.4164	65535	64635.65
838.9879	816.4778	65535	64636.1
839.133	818.5385	65535	64634.5
839.2781	820.5986	65535	64635.75
839.4232	822.658	65535	64631.95
839.5682	824.7166	65535	64634
839.7133	826.7747	65535	64635.2
839.8584	828.832	65535	64638.65
840.0035	830.8886	65535	64634.8
840.1486	832.9446	65535	64634.4
840.2937	834.9999	65535	64633.75
840.4388	837.0545	65535	64635.2
840.5839	839.1085	65535	64634.15
840.729	841.1618	65535	64629.4
840.8741	843.2143	65535	64636.15
841.0192	845.2662	65535	64635.7
841.1643	847.3175	65535	64633.65
841.3095	849.368	65535	64636.65
841.4546	851.4179	65535	64634.65
841.5997	853.467	65535	64638.95
841.7448	855.5155	65535	64635.15
841.8899	857.5633	65535	64631.6
842.0351	859.6105	65535	64635.2
842.1802	861.6569	65535	64635.95
842.3253	863.7027	65535	64630.9
842.4704	865.7478	65535	64631.15
842.6156	867.7922	65535	64634.4
842.7607	869.8359	65535	64632.75
842.9058	871.8789	65535	64631.3
843.0509	873.9212	65535	64602.65
843.1961	875.9629	65535	64630
843.3412	878.0039	65535	64631.25
843.4863	880.0441	65535	64633.85
843.6315	882.0837	65535	64632.4
843.7766	884.1226	65535	64630.95
843.9218	886.1609	65535	64634.7
844.0669	888.1984	65535	64632.9
844.212	890.2352	65535	64633.8
844.3572	892.2714	65535	64629.1
844.5023	894.3069	65535	64633.25
844.6475	896.3416	65535	64633.3
844.7926	898.3757	65535	64633.25
844.9377	900.4091	65535	64630.9
845.0829	902.4418	65535	64630.15
845.228	904.4739	65535	64629.65
845.3732	906.5052	65535	64629.45
845.5183	908.5358	65535	64632.35
845.6635	910.5658	65535	64627.5
845.8086	912.595	65535	64632.65
845.9538	914.6236	65535	64629.75
846.0989	916.6515	65535	64635.25
846.2441	918.6786	65535	64629.6
846.3892	920.7051	65535	64627.25
846.5344	922.7309	65535	64632.2
846.6795	924.756	65535	64629.25
846.8246	926.7804	65535	64630.3
846.9698	928.8041	65535	64626.45
847.1149	930.8272	65535	64629.85
847.2601	932.8495	65535	64628.45
847.4052	934.8711	65535	64629.35
847.5504	936.892	65535	64632.75
847.6955	938.9123	65535	64629.7
847.8407	940.9318	65535	64632.2
847.9858	942.9506	65535	64631.3
848.131	944.9688	65535	64631.25
848.2761	946.9862	65535	64629.55
848.4213	949.003	65535	64626.45
848.5664	951.019	65535	64631.85
848.7115	953.0344	65535	64631.75
848.8567	955.0491	65535	64629.25
849.0018	957.063	65535	64631.35
849.147	959.0763	65535	64632.1
849.2921	961.0888	65535	64627.2
849.4373	963.1007	65535	64632.1
849.5824	965.1119	65535	64633.2
849.7275	967.1223	65535	64631.95
849.8727	969.1321	65535	64630.25
850.0178	971.1412	65535	64630.35
850.1629	973.1495	65535	64629.25
850.3081	975.1572	65535	64599.05
850.4532	977.1641	65535	64632.85
850.5983	979.1704	65535	64629.85
850.7435	981.1759	65535	64628.6
850.8886	983.1808	65535	64627.95
851.0337	985.1849	65535	64621.1
851.1788	987.1884	65535	64627.15
851.324	989.1911	65535	64627.45
851.4691	991.1932	65535	64628.85
851.6142	993.1945	65535	64629.3
851.7593	995.1951	65535	64629.4
851.9045	997.1951	65535	64623.7
852.0496	999.1943	65535	64628.95
852.1947	1001.1928	65535	64631.9
852.3398	1003.1906	65535	64631.3
852.4849	1005.1877	65535	64629.35
852.63	1007.1841	65535	64628.75
852.7751	1009.1798	65535	64630.8
852.9202	1011.1748	65535	64628.1
853.0653	1013.1691	65535	64628.15
853.2104	1015.1627	65535	64628.7
853.3555	1017.1556	65535	64629.65
853.5006	1019.1477	65535	64630.65
853.6457	1021.1392	65535	64634.15
853.7908	1023.1299	65535	64631.7
853.9359	1025.12	65535	64630.25
854.081	1027.1093	65535	64634.55
854.2261	1029.0979	65535	64635.8
854.3712	1031.0859	65535	64635.05
854.5163	1033.0731	65535	64630.3
854.6613	1035.0596	65535	64633.5
854.8064	1037.0454	65535	64633.65
854.9515	1039.0304	65535	64627.7
855.0965	1041.0148	65535	64631.1
855.2416	1042.9985	65535	64631.5
855.3867	1044.9814	65535	64630
855.5317	1046.9636	65535	64629.35
855.6768	1048.9452	65535	64634.55
855.8219	1050.926	65535	64630.5
855.9669	1052.9061	65535	64630.6
856.112	1054.8855	65535	64630.15
856.257	1056.8642	65535	64631.25
856.4021	1058.8421	65535	64626.2
856.5471	1060.8194	65535	64630.6
856.6921	1062.7959	65535	64630.4
856.8372	1064.7717	65535	64629.55
856.9822	1066.7469	65535	64628.5
857.1272	1068.7213	65535	64627.15
857.2723	1070.695	65535	64629.95
857.4173	1072.6679	65535	64629.8
857.5623	1074.6402	65535	64630.95
857.7073	1076.6117	65535	64624.75
857.8523	1078.5826	65535	64627.3
857.9973	1080.5527	65535	64627.25
858.1423	1082.5221	65535	64630.25
858.2873	1084.4908	65535	64630.2
858.4323	1086.4587	65535	64631.55
858.5773	1088.426	65535	64630.1
858.7223	1090.3925	65535	64625.1
858.8673	1092.3584	65535	64628.9
859.0123	1094.3235	65535	64632.25
859.1573	1096.2879	65535	64631.35
859.3022	1098.2515	65535	64632.55
859.4472	1100.2145	65535	64630.5
859.5922	1102.1767	65535	64630.4
859.7371	1104.1382	65535	64630.05
859.8821	1106.099	65535	64630.85
860.027	1108.0591	65535	64631.3
860.172	1110.0185	65535	64628.65
860.3169	1111.9771	65535	64631.05
860.4619	1113.9351	65535	64631.9
860.6068	1115.8923	65535	64629.05
860.7517	1117.8488	65535	64628.5
860.8967	1119.8045	65535	64628.85
861.0416	1121.7596	65535	64630.15
861.1865	1123.7139	65535	64632.3
861.3314	1125.6675	65535	64631.2
861.4763	1127.6204	65535	64631.85
861.6212	1129.5726	65535	64629.6
861.7661	1131.524	65535	64632.25
861.911	1133.4748	65535	64631.6
862.0559	1135.4248	65535	64628
862.2008	1137.3741	65535	64628.3
862.3457	1139.3226	65535	64629.5
862.4905	1141.2705	65535	64628.55
862.6354	1143.2176	65535	64622.75
862.7803	1145.164	65535	64629.65
862.9251	1147.1097	65535	64631.65
863.07	1149.0546	65535	64632
863.2148	1150.9989	65535	64632.25
863.3597	1152.9424	65535	64630.55
863.5045	1154.8852	65535	64629.7
863.6493	1156.8272	65535	64631.45
863.7942	1158.7686	65535	64624.5
863.939	1160.7092	65535	64628.45
864.0838	1162.6491	65535	64629.55
864.2286	1164.5883	65535	64633.1
864.3734	1166.5267	65535	64629.05
864.5182	1168.4644	65535	64630.6
864.663	1170.4014	65535	64627.95
864.8078	1172.3377	65535	64633.15
864.9526	1174.2732	65535	64629.8
865.0974	1176.2081	65535	64632.5
865.2421	1178.1421	65535	64625.75
865.3869	1180.0755	65535	64631.05
865.5317	1182.0082	65535	64632.85
865.6764	1183.9401	65535	64631
865.8212	1185.8713	65535	64633.4
865.9659	1187.8017	65535	64634.35
866.1106	1189.7315	65535	64635.55
866.2554	1191.6605	65535	64608.25
866.4001	1193.5888	65535	64632.55
866.5448	1195.5163	65535	64631.25
866.6895	1197.4432	65535	64629.65
866.8342	1199.3693	65535	64630.25
866.9789	1201.2947	65535	64627.4
867.1236	1203.2193	65535	64631.6
867.2683	1205.1432	65535	64629.6
867.413	1207.0664	65535	64631.45
867.5576	1208.9889	65535	64630.3
867.7023	1210.9106	65535	64631.6
867.847	1212.8316	65535	64632.5
867.9916	1214.7519	65535	64624.25
868.1363	1216.6715	65535	64632.05
868.2809	1218.5903	65535	64630.9
868.4255	1220.5084	65535	64631.25
868.5701	1222.4257	65535	64631.75
868.7148	1224.3424	65535	64632.15
868.8594	1226.2583	65535	64627.6
869.004	1228.1735	65535	64630.1
869.1486	1230.0879	65535	64630.75
869.2932	1232.0016	65535	64632.35
869.4377	1233.9146	65535	64631.25
869.5823	1235.8269	65535	64632.8
869.7269	1237.7384	65535	64632.75
869.8715	1239.6492	65535	64632.3
870.016	1241.5592	65535	64631.2
870.1606	1243.4686	65535	64632.95
870.3051	1245.3772	65535	64634.15
870.4496	1247.285	65535	64632.3
870.5941	1249.1922	65535	64630.05
870.7387	1251.0986	65535	64633.45
870.8832	1253.0042	65535	64630.5
871.0277	1254.9092	65535	64632.4
871.1722	1256.8134	65535	64632.7
871.3167	1258.7169	65535	64632.45
871.4611	1260.6196	65535	64632.8
871.6056	1262.5216	65535	64630.4
871.7501	1264.4229	65535	64634.55
871.8945	1266.3234	65535	64631.55
872.039	1268.2232	65535	64630.6
872.1834	1270.1223	65535	64630.7
872.3278	1272.0207	65535	64631.55
872.4723	1273.9183	65535	64628.4
872.6167	1275.8151	65535	64633.9
872.7611	1277.7113	65535	64632.85
872.9055	1279.6067	65535	64633.3
873.0499	1281.5014	65535	64630.8
873.1943	1283.3953	65535	64628.75
873.3386	1285.2885	65535	64632.75
873.483	1287.181	65535	64631.45
873.6274	1289.0727	65535	64633.1
873.7717	1290.9637	65535	64632.8
873.9161	1292.854	65535	64630.5
874.0604	1294.7435	65535	64632.25
874.2047	1296.6323	65535	64629.45
874.349	1298.5204	65535	64629.2
874.4933	1300.4077	65535	64630.5
874.6376	1302.2943	65535	64632.6
874.7819	1304.1802	65535	64634.4
874.9262	1306.0653	65535	64629
875.0705	1307.9497	65535	64633.55
875.2147	1309.8333	65535	64632.6
875.359	1311.7162	65535	64631.2
875.5032	1313.5984	65535	64629.75
875.6475	1315.4798	65535	64629.25
875.7917	1317.3605	65535	64615
875.9359	1319.2405	65535	64633.65
876.0801	1321.1197	65535	64631.9
876.2243	1322.9982	65535	64626.85
876.3685	1324.876	65535	64632.45
876.5127	1326.753	65535	64633.1
876.6569	1328.6293	65535	64633.7
876.801	1330.5048	65535	64628.25
876.9452	1332.3796	65535	64633
877.0893	1334.2537	65535	64607.65
877.2335	1336.127	65535	64630.2
877.3776	1337.9996	65535	64633.25
877.5217	1339.8714	65535	64629.05
877.6658	1341.7426	65535	64589.15
877.8099	1343.6129	65535	64632.05
877.954	1345.4826	65535	64631
878.0981	1347.3515	65535	64631.15
878.2422	1349.2196	65535	64629.25
878.3862	1351.087	65535	64633.05
878.5303	1352.9537	65535	64632.4
878.6743	1354.8197	65535	64631.7
878.8184	1356.6849	65535	64633.65
878.9624	1358.5493	65535	64632.1
879.1064	1360.4131	65535	64631.7
879.2504	1362.276	65535	64632.45
879.3944	1364.1383	65535	64633.25
879.5384	1365.9998	65535	64627
879.6823	1367.8606	65535	64631.5
879.8263	1369.7206	65535	64632.85
879.9702	1371.5799	65535	64631.15
880.1142	1373.4384	65535	64628.4
880.2581	1375.2962	65535	64631.15
880.402	1377.1533	65535	64634.8
880.5459	1379.0096	65535	64632.9
880.6898	1380.8652	65535	64633.65
880.8337	1382.7201	65535	64632.95
880.9776	1384.5742	65535	64632.3
881.1215	1386.4275	65535	64632.7
881.2653	1388.2802	65535	64632.7
881.4092	1390.132	65535	64632.6
881.553	1391.9832	65535	64631.15
881.6968	1393.8336	65535	64632
881.8406	1395.6832	65535	64632.4
881.9844	1397.5322	65535	64632.85
882.1282	1399.3803	65535	64630.05
882.272	1401.2278	65535	64633.4
882.4158	1403.0745	65535	64633.6
882.5595	1404.9204	65535	64634.5
882.7033	1406.7656	65535	64632.65
882.847	1408.6101	65535	64631.15
882.9908	1410.4538	65535	64631.4
883.1345	1412.2968	65535	64632.55
883.2782	1414.139	65535	64632.6
883.4219	1415.9805	65535	64634.6
883.5656	1417.8213	65535	64626.75
883.7092	1419.6613	65535	64633.65
883.8529	1421.5006	65535	64633.35
883.9965	1423.3391	65535	64634.65
884.1402	1425.1769	65535	64633.15
884.2838	1427.0139	65535	64632.2
884.4274	1428.8502	65535	64632.75
884.571	1430.6858	65535	64635.4
884.7146	1432.5206	65535	64630.7
884.8582	1434.3547	65535	64631.15
885.0018	1436.188	65535	64633.05
885.1453	1438.0206	65535	64633.9
885.2889	1439.8524	65535	64635.2
885.4324	1441.6835	65535	64631.5
885.5759	1443.5139	65535	64630.45
885.7194	1445.3435	65535	64633.65
885.8629	1447.1724	65535	64632
886.0064	1449.0005	65535	64633.85
886.1499	1450.8279	65535	64632.9
886.2933	1452.6545	65535	64633.4
886.4368	1454.4804	65535	64634.95
886.5802	1456.3056	65535	64627.45
886.7237	1458.13	65535	64635.7
886.8671	1459.9536	65535	64632
887.0105	1461.7766	65535	64634.45
887.1539	1463.5987	65535	64631.6
887.2972	1465.4202	65535	64634.55
887.4406	1467.2409	65535	64634.75
887.584	1469.0608	65535	64634.6
887.7273	1470.88	65535	64632.65
887.8706	1472.6984	65535	64633.75
888.0139	1474.5161	65535	64631.3
888.1572	1476.3331	65535	64633
888.3005	1478.1493	65535	64631.75
888.4438	1479.9648	65535	64633.5
888.5871	1481.7795	65535	64635.25
888.7303	1483.5935	65535	64635.85
888.8736	1485.4067	65535	64633.65
889.0168	1487.2192	65535	64633.9
889.16	1489.031	65535	64630.4
889.3032	1490.842	65535	64635.6
889.4464	1492.6522	65535	64632.2
889.5896	1494.4618	65535	64631.55
889.7327	1496.2705	65535	64634.55
889.8759	1498.0785	65535	64633
890.019	1499.8858	65535	64633.25
890.1622	1501.6924	65535	64634.05
890.3053	1503.4981	65535	64634.55
890.4484	1505.3032	65535	64634.8
890.5914	1507.1075	65535	64633.15
890.7345	1508.911	65535	64636.05
890.8776	1510.7138	65535	64634.4
891.0206	1512.5159	65535	64633.65
891.1637	1514.3172	65535	64634.8
891.3067	1516.1178	65535	64634.4
891.4497	1517.9176	65535	64630.8
891.5927	1519.7166	65535	64633.9
891.7357	1521.515	65535	64630.25
891.8786	1523.3126	65535	64636.95
892.0216	1525.1094	65535	64632.9
892.1645	1526.9055	65535	64634.7
892.3074	1528.7008	65535	64634.25
892.4503	1530.4954	65535	64632.45
892.5932	1532.2893	65535	64636.75
892.7361	1534.0824	65535	64630.55
892.879	1535.8747	65535	64632.45
893.0218	1537.6663	65535	64636.5
893.1647	1539.4572	65535	64633.25
893.3075	1541.2473	65535	64634
893.4503	1543.0367	65535	64635.95
893.5931	1544.8253	65535	64629.7
893.7359	1546.6132	65535	64632.9
893.8787	1548.4003	65535	64624.95
894.0214	1550.1867	65535	64626
894.1642	1551.9723	65535	64630.95
894.3069	1553.7572	65535	64635.75
894.4496	1555.5414	65535	64637.45
894.5923	1557.3247	65535	64636.25
894.735	1559.1074	65535	64637.45
894.8777	1560.8893	65535	64635.2
895.0204	1562.6705	65535	64636.05
895.163	1564.4509	65535	64637.05
895.3056	1566.2305	65535	64638.6
895.4482	1568.0094	65535	64638.75
895.5908	1569.7876	65535	64637.6
895.7334	1571.565	65535	64637.85
895.876	1573.3417	65535	64637
896.0186	1575.1176	65535	64637.3
896.1611	1576.8928	65535	64638.15
896.3036	1578.6672	65535	64640.75
896.4461	1580.4409	65535	64639.8
896.5886	1582.2138	65535	64637.1
896.7311	1583.986	65535	64636
896.8736	1585.7575	65535	64638.1
897.0161	1587.5282	65535	64638.4
897.1585	1589.2981	65535	64638.95
897.3009	1591.0673	65535	64639.45
897.4433	1592.8358	65535	64637.9
897.5857	1594.6035	65535	64635.1
897.7281	1596.3704	65535	64635.9
897.8705	1598.1366	65535	64637.65
898.0128	1599.9021	65535	64638.55
898.1551	1601.6668	65535	64635.8
898.2975	1603.4308	65535	64635.9
898.4398	1605.194	65535	64633.9
898.5821	1606.9564	65535	64637.5
898.7243	1608.7182	65535	64636.5
898.8666	1610.4791	65535	64641.7
899.0088	1612.2394	65535	64641.05
899.1511	1613.9988	65535	64639.9
899.2933	1615.7576	65535	64640
899.4355	1617.5156	65535	64631.1
899.5776	1619.2728	65535	64636.15
899.7198	1621.0293	65535	64640.15
899.862	1622.785	65535	64637.65
900.0041	1624.54	65535	64637
900.1462	1626.2942	65535	64637.2
900.2883	1628.0477	65535	64638.9
900.4304	1629.8005	65535	64635.55
900.5725	1631.5525	65535	64639.3
900.7145	1633.3037	65535	64638.7
900.8566	1635.0542	65535	64640.25
900.9986	1636.804	65535	64640.1
901.1406	1638.553	65535	64547.4
901.2826	1640.3013	65535	64640.5
901.4245	1642.0488	65535	64638.25
901.5665	1643.7955	65535	64641.4
901.7085	1645.5416	65535	64639.45
901.8504	1647.2868	65535	64639.1
901.9923	1649.0313	65535	64640.35
902.1342	1650.7751	65535	64634.1
902.2761	1652.5181	65535	64640.4
902.4179	1654.2604	65535	64640.45
902.5598	1656.0019	65535	64642.05
902.7016	1657.7427	65535	64641.85
902.8434	1659.4828	65535	64642.75
902.9852	1661.222	65535	64639.4
903.127	1662.9606	65535	64640.95
903.2687	1664.6984	65535	64639.95
903.4105	1666.4354	65535	64637.9
903.5522	1668.1717	65535	64638.9
903.6939	1669.9072	65535	64640.35
903.8356	1671.642	65535	64637.95
903.9773	1673.3761	65535	64639.05
904.119	1675.1094	65535	64641.25
904.2606	1676.8419	65535	64640.05
904.4022	1678.5737	65535	64639.65
904.5439	1680.3048	65535	64639.05
904.6855	1682.0351	65535	64638.4
904.827	1683.7646	65535	64638.15
904.9686	1685.4934	65535	64640.3
905.1101	1687.2215	65526.7	64631.35
905.2517	1688.9488	65535	64641.6
905.3932	1690.6754	65489.6	64594.95
905.5347	1692.4012	65529.35	64634.7
905.6761	1694.1263	65535	64640.75
905.8176	1695.8506	65503.25	64609.7
905.9591	1697.5742	65515.85	64622.3
906.1005	1699.297	65511.75	64616.4
906.2419	1701.0191	65522.6	64629.2
906.3833	1702.7404	65444.9	64551.95
906.5246	1704.461	65376.4	64481.9
906.666	1706.1808	65487.65	64591.75
906.8073	1707.8999	65430.7	64534.85
906.9487	1709.6182	65422.8	64529.6
907.09	1711.3358	65410.5	64517.05
907.2313	1713.0527	65383.7	64494.6
907.3725	1714.7688	65391.9	64491.8
907.5138	1716.4841	65234.4	64338.45
907.655	1718.1987	65298.8	64399.5
907.7962	1719.9126	65259.95	64368
907.9374	1721.6257	65303.5	64407.3
908.0786	1723.338	65296.1	64402.75
908.2198	1725.0496	65059.35	64164.95
908.3609	1726.7605	65108.4	64214.45
908.502	1728.4706	65011.35	64117.1
908.6431	1730.18	65154.4	64257.3
908.7842	1731.8886	64997.85	64106.9
908.9253	1733.5964	64920.75	64023
909.0664	1735.3036	65088	64193.1
909.2074	1737.0099	64960.25	64067.7
909.3484	1738.7156	64803.9	63913.55
909.4894	1740.4204	64748.5	63855.25
909.6304	1742.1246	64834.1	63939.8
909.7714	1743.8279	64901.55	64008.65
909.9123	1745.5306	64839.6	63943.9
910.0532	1747.2325	64214.8	63322.3
910.1941	1748.9336	64248.1	63356.4
910.335	1750.634	64495.45	63601.5
910.4759	1752.3336	64671.4	63776.7
910.6168	1754.0325	64224.6	63332.45
910.7576	1755.7307	64642.3	63750.6
910.8984	1757.4281	64009.9	63119.1
911.0392	1759.1247	64489.45	63587.3
911.18	1760.8206	63809.8	62911.3
911.3208	1762.5158	63900.1	63002.5
911.4615	1764.2102	64086.4	63194.15
911.6022	1765.9039	63949.05	63057.05
911.7429	1767.5968	63784.65	62892
911.8836	1769.289	63713.4	62821.25
912.0243	1770.9804	63864.95	62969.3
912.1649	1772.6711	63700.6	62807.45
912.3056	1774.361	63562.85	62668.15
912.4462	1776.0502	63632.2	62738.35
912.5868	1777.7386	63041.45	62143.9
912.7274	1779.4263	63373.15	62480.5
912.8679	1781.1132	63370.35	62477.75
913.0084	1782.7994	63252.4	62360.4
913.149	1784.4849	63270.45	62380
913.2895	1786.1696	62534.8	61634.7
913.4299	1787.8535	63020.7	62128.75
913.5704	1789.5367	63101.6	62209.85
913.7108	1791.2192	62659.45	61767.55
913.8513	1792.9009	62320.35	61398.95
913.9917	1794.5818	62747.75	61852.8
914.132	1796.2621	62365.2	61474.15
914.2724	1797.9415	62408.2	61513.45
914.4128	1799.6202	62340.7	61446.85
914.5531	1801.2982	62366.7	61474.1
914.6934	1802.9755	61843.55	60950.1
914.8337	1804.6519	61687.85	60797.8
914.9739	1806.3277	62411.7	61521.05
915.1142	1808.0027	61223.3	60331.75
915.2544	1809.6769	61675.5	60783.45
915.3946	1811.3504	61798.35	60903.95
915.5348	1813.0231	60839	59946.7
915.675	1814.6951	61480.35	60588.25
915.8151	1816.3664	61108.9	60215.95
915.9553	1818.0369	61153.2	60260.65
916.0954	1819.7067	60838.05	59946.2
916.2355	1821.3757	61413.3	60518.4
916.3755	1823.044	60595.35	59702.8
916.5156	1824.7115	60133.65	59242.55
916.6556	1826.3783	60480.65	59589.7
916.7956	1828.0443	60495.55	59603.8
916.9356	1829.7096	60182.15	59289.95
917.0756	1831.3741	59485.6	58590.6
917.2155	1833.0379	59889.35	58995.65
917.3555	1834.701	59794.8	58901.3
917.4954	1836.3633	59369.5	58476
917.6353	1838.0248	59663.45	58768.4
917.7751	1839.6856	59483.6	58591.5
917.915	1841.3457	59001	58109.6
918.0548	1843.005	59605.35	58713.75
918.1946	1844.6636	59205.25	58313.65
918.3344	1846.3214	58472.1	57580.2
918.4742	1847.9785	58661.1	57769.25
918.6139	1849.6349	58628.25	57733.65
918.7537	1851.2904	59116.7	58216.1
918.8934	1852.9453	58261.55	57367.25
919.0331	1854.5994	58641.05	57746.25
919.1727	1856.2528	58619.15	57721.5
919.3124	1857.9054	58063.05	57171.25
919.452	1859.5572	57866.2	56975.45
919.5916	1861.2083	58051.5	57158.25
919.7312	1862.8587	58553.05	57659.3
919.8708	1864.5084	57195.7	56303.55
920.0103	1866.1572	57779.45	56886.3
920.1498	1867.8054	57083	56190.75
920.2893	1869.4528	57485.95	56592.35
920.4288	1871.0994	56895.6	56005.25
920.5683	1872.7453	56923.75	56033.25
920.7077	1874.3905	57181.6	56281.4
920.8471	1876.0349	56620.7	55727.45
920.9865	1877.6786	56940.75	56044.05
921.1259	1879.3215	56481.6	55589.5
921.2653	1880.9637	56964.4	56071.55
921.4046	1882.6051	56450.45	55558.35
921.5439	1884.2458	56192.75	55299.05
921.6832	1885.8858	55922.5	55029.15
921.8225	1887.525	56083.95	55191.7
921.9617	1889.1634	55862.25	54971.65
922.101	1890.8011	55662.9	54770
922.2402	1892.4381	55052	54159.2
922.3794	1894.0743	55664.6	54773.25
922.5185	1895.7098	55271.2	54379.95
922.6577	1897.3446	54951.1	54057.9
922.7968	1898.9786	55090.4	54193.85
922.9359	1900.6118	54779.4	53887.75
923.075	1902.2443	54458.95	53564.25
923.214	1903.8761	54825.65	53935.85
923.3531	1905.5071	54360.8	53468.25
923.4921	1907.1374	53703.85	52810.3
923.6311	1908.7669	53924.65	53034.15
923.77	1910.3957	54165.5	53274.15
923.909	1912.0237	53516.4	52626.05
924.0479	1913.651	53362.65	52473.4
924.1868	1915.2776	53225.05	52332.5
924.3257	1916.9034	53159.25	52268.4
924.4646	1918.5285	52904.7	52012.6
924.6034	1920.1528	52877.9	51985.6
924.7422	1921.7764	52726.25	51836.05
924.881	1923.3992	52563.65	51671.9
925.0198	1925.0213	52247.4	51356
925.1586	1926.6427	51864.6	50974.7
925.2973	1928.2633	52027.45	51054.9
925.436	1929.8832	51787.6	50894.55
925.5747	1931.5023	51597.1	50704.35
925.7134	1933.1207	51308.7	50416.95
925.852	1934.7383	51459.65	50568.95
925.9906	1936.3552	51152.95	50262.9
926.1292	1937.9714	51048.65	50154.85
926.2678	1939.5868	50992	50099.8
926.4064	1941.2015	50547.55	49653.4
926.5449	1942.8154	50330.15	49437
926.6834	1944.4286	50268.8	49377.5
926.8219	1946.041	50138.45	49228.85
926.9604	1947.6528	49850.75	48954.9
927.0988	1949.2637	49700.5	48810.75
927.2372	1950.8739	49512.25	48620.4
927.3756	1952.4834	49497.05	48603.45
927.514	1954.0921	49442.2	48549.45
927.6523	1955.7001	49128	48231.45
927.7907	1957.3074	49144.55	48253.2
927.929	1958.9139	48799.15	47910.4
928.0673	1960.5197	48754.05	47860.4
928.2055	1962.1247	48586.6	47694.6
928.3438	1963.729	48344.2	47455.1
928.482	1965.3325	48164.05	47248.8
928.6202	1966.9353	48094.25	47203.25
928.7584	1968.5374	47898.5	47007.3
928.8965	1970.1387	47759	46867.1
929.0346	1971.7393	47619.95	46730.2
929.1727	1973.3392	47489.4	46598.45
929.3108	1974.9383	47260.65	46373.15
929.4489	1976.5366	47097.35	46205.8
929.5869	1978.1342	47037.3	46146.55
929.7249	1979.7311	46981.75	46091.65
929.8629	1981.3273	46795.55	45902.6
930.0009	1982.9227	46632.7	45743.05
930.1388	1984.5173	46474.5	45585.45
930.2767	1986.1112	46277.85	45387.2
930.4146	1987.7044	46231.5	45342.5
930.5525	1989.2968	45998.65	45107.9
930.6904	1990.8885	46003.35	45109.4
930.8282	1992.4795	45860.9	44970.35
930.966	1994.0697	45677.5	44787.6
931.1038	1995.6592	45522.45	44632.95
931.2415	1997.2479	45402.35	44510.35
931.3793	1998.8359	45246.55	44358.95
931.517	2000.4232	45022.8	44133.2
931.6547	2002.0097	44979	44090.85
931.7923	2003.5955	44798.95	43908.7
931.93	2005.1805	44708.8	43816.95
932.0676	2006.7648	44628.65	43738.15
932.2052	2008.3484	44518.4	43627.15
932.3427	2009.9312	44483.3	43592.2
932.4803	2011.5133	44256.1	43368.8
932.6178	2013.0946	44145.65	43254.45
932.7553	2014.6752	44074.4	43185.3
932.8928	2016.2551	43897.55	43005.75
933.0302	2017.8342	43753.75	42863.2
933.1676	2019.4126	43572.35	42682.15
933.305	2020.9902	43394.75	42504.85
933.4424	2022.5672	43360.6	42468.95
933.5798	2024.1433	43268.3	42373.65
933.7171	2025.7188	43141.9	42254
933.8544	2027.2935	42995.5	42106.45
933.9917	2028.8674	42817.7	41926.95
934.129	2030.4406	42747	41859.4
934.2662	2032.0131	42570.25	41681.25
934.4034	2033.5849	42424.85	41528.25
934.5406	2035.1559	42340.45	41450.5
934.6778	2036.7261	42309.6	41419.6
934.8149	2038.2957	42170.85	41281.75
934.952	2039.8645	42074.2	41184.05
935.0891	2041.4325	42104.75	41211.7
935.2262	2042.9998	41866.45	40977.75
935.3632	2044.5664	41785.05	40894.3
935.5002	2046.1323	41698.85	40811.8
935.6372	2047.6974	41569.15	40679.15
935.7742	2049.2617	41400.7	40512.2
935.9111	2050.8254	41441	40546.8
936.048	2052.3883	41368.55	40477.25
936.1849	2053.9504	41196.75	40305.6
936.3218	2055.5118	41048.8	40158.15
936.4586	2057.0725	40867.4	39974.1
936.5955	2058.6325	40823.15	39933.7
936.7323	2060.1917	40654.9	39765.65
936.869	2061.7502	40544.85	39652.75
937.0058	2063.3079	40433.35	39544.75
937.1425	2064.8649	40262.15	39370.35
937.2792	2066.4212	40176.5	39285.1
937.4159	2067.9767	40091.8	39201.75
937.5525	2069.5315	39934.65	39045.65
937.6891	2071.0856	39757.05	38867.85
937.8257	2072.6389	39697.25	38805.75
937.9623	2074.1915	39480.95	38593.45
938.0989	2075.7433	39303.1	38410.6
938.2354	2077.2945	39275.85	38386.55
938.3719	2078.8448	39078.55	38189.4
938.5084	2080.3945	38989.05	38099.1
938.6448	2081.9434	38934.65	38045.4
938.7812	2083.4916	38862.6	37969.45
938.9176	2085.039	38678.85	37785.95
939.054	2086.5857	38595.8	37703.15
939.1903	2088.1317	38524.9	37635.65
939.3267	2089.677	38463.95	37571.75
939.463	2091.2215	38314.55	37422.8
939.5992	2092.7652	38236.05	37344.25
939.7355	2094.3083	38153.1	37261.05
939.8717	2095.8506	38106.95	37219.35
940.0079	2097.3921	38052.35	37163.55
940.1441	2098.933	37909.1	37018.7
940.2802	2100.4731	37780	36890.85
940.4163	2102.0124	37796.25	36889.45
940.5524	2103.5511	37597.15	36704.7
940.6885	2105.089	37581.6	36693.05
940.8245	2106.6261	37471.85	36582.3
940.9606	2108.1626	37352.95	36462
941.0965	2109.6983	37332.5	36414
941.2325	2111.2332	37180.35	36289.55
941.3684	2112.7675	37086.65	36195.5
941.5044	2114.301	36998.1	36107.15
941.6403	2115.8337	36984.8	36093
941.7761	2117.3657	36851.25	35962.6
941.912	2118.897	36807.3	35917.2
942.0478	2120.4276	36658.6	35762.4
942.1835	2121.9575	36480.45	35589.85
942.3193	2123.4866	36476.05	35573.2
942.455	2125.0149	36373.3	35480.75
942.5907	2126.5426	36199.65	35310
942.7264	2128.0695	36070.9	35175.7
942.8621	2129.5956	36052.95	35165.5
942.9977	2131.1211	35945.9	35052.05
943.1333	2132.6458	35851.9	34963.35
943.2689	2134.1698	35785.8	34895.05
943.4044	2135.693	35691.7	34798.15
943.54	2137.2155	35643.85	34752.75
943.6755	2138.7373	35502.75	34611.6
943.8109	2140.2584	35416.55	34528.5
943.9464	2141.7787	35303.15	34409.95
944.0818	2143.2983	35167.05	34277.7
944.2172	2144.8171	34997.6	34108.85
944.3526	2146.3353	34943.4	34050.9
944.4879	2147.8527	34822	33932.3
944.6232	2149.3693	34780.1	33890
944.7585	2150.8853	34655.2	33762.4
944.8938	2152.4005	34475.85	33586.05
945.029	2153.9149	34473.4	33582.95
945.1642	2155.4287	34359.8	33471.75
945.2994	2156.9417	34297.85	33407.15
945.4346	2158.454	34219.2	33327.75
945.5697	2159.9655	34106.4	33219.7
945.7048	2161.4764	34109.65	33221.5
945.8399	2162.9865	33970.3	33080.2
945.9749	2164.4958	33830.4	32939.7
946.1099	2166.0045	33758.1	32865.1
946.2449	2167.5124	33713.8	32825.05
946.3799	2169.0195	33586.3	32697.1
946.5148	2170.526	33618.95	32728.55
946.6498	2172.0317	33474.55	32584.3
946.7846	2173.5367	33408.3	32517
946.9195	2175.0409	33265.2	32374.25
947.0543	2176.5445	33271.35	32381.3
947.1891	2178.0473	33141.25	32250.3
947.3239	2179.5494	33011.85	32117.1
947.4587	2181.0507	32909.6	32018.45
947.5934	2182.5513	32799.2	31909.2
947.7281	2184.0512	32723.9	31833.5
947.8628	2185.5504	32695.55	31806.1
947.9974	2187.0488	32456.15	31567
948.132	2188.5465	32402.95	31513.15
948.2666	2190.0435	32277.15	31384.9
948.4012	2191.5397	32182.05	31292
948.5357	2193.0353	32084.95	31194.05
948.6702	2194.5301	31950.2	31060.35
948.8047	2196.0241	31831.8	30943.45
948.9392	2197.5175	31747.95	30857.6
949.0736	2199.0101	31631	30737.2
949.208	2200.502	31504.05	30612
949.3424	2201.9931	31394.7	30505.25
949.4767	2203.4835	31308.3	30417.55
949.611	2204.9733	31238.1	30341.8
949.7453	2206.4622	31148.1	30261.15
949.8796	2207.9505	31062.35	30169.35
950.0138	2209.438	30923.7	30036.7
950.148	2210.9248	30842.25	29951.3
950.2822	2212.4109	30787.4	29897.2
950.4164	2213.8962	30629.9	29736.2
950.5505	2215.3809	30600.7	29709.2
950.6846	2216.8648	30528.65	29637.8
950.8186	2218.3479	30414.55	29519.85
950.9527	2219.8304	30274.6	29382.45
951.0867	2221.3121	30217.15	29325.65
951.2207	2222.7931	30091.5	29199.95
951.3546	2224.2733	29934.4	29045.4
951.4886	2225.7529	29925.8	29034.3
951.6225	2227.2317	29749.05	28856.25
951.7563	2228.7098	29765.65	28875.05
951.8902	2230.1872	29571.5	28682.85
952.024	2231.6638	29587	28697.7
952.1578	2233.1397	29354.6	28458.4
952.2916	2234.6149	29329.2	28437.7
952.4253	2236.0894	29193.75	28305.7
952.559	2237.5632	29127.3	28235.6
952.6927	2239.0362	29013.9	28124.8
952.8263	2240.5085	28942.25	28053.85
952.9599	2241.9801	28817.15	27926.05
953.0935	2243.4509	28745.95	27856.85
953.2271	2244.921	28625.35	27735.45
953.3606	2246.3904	28529.85	27638.2
953.4941	2247.8591	28412.6	27521.45
953.6276	2249.3271	28341.95	27453.15
953.7611	2250.7943	28175.9	27286.3
953.8945	2252.2608	28118.9	27228.45
954.0279	2253.7266	28119.85	27231.6
954.1612	2255.1917	27968.95	27080.5
954.2946	2256.656	27886.75	26996.55
954.4279	2258.1197	27866.5	26976.5
954.5612	2259.5826	27701.3	26808.2
954.6944	2261.0447	27656.25	26765.25
954.8276	2262.5062	27516.1	26623.55
954.9608	2263.9669	27465.1	26573.6
955.094	2265.4269	27448.7	26559.9
955.2271	2266.8862	27345.8	26455.5
955.3602	2268.3448	27298.65	26409.3
955.4933	2269.8026	27203.5	26312.65
955.6264	2271.2598	27085.15	26194.55
955.7594	2272.7162	27006.35	26118.9
955.8924	2274.1719	26977.5	26085.15
956.0253	2275.6268	26820.5	25929.6
956.1583	2277.0811	26849.15	25958.7
956.2912	2278.5346	26631.25	25742.3
956.4241	2279.9874	26670.3	25780.8
956.5569	2281.4395	26625.15	25736.3
956.6897	2282.8908	26456.9	25561.65
956.8225	2284.3414	26464.8	25571.95
956.9553	2285.7914	26314.65	25425.05
957.088	2287.2406	26250.4	25358.85
957.2207	2288.689	26169.45	25280.4
957.3534	2290.1368	26069.6	25177.9
957.486	2291.5838	26003.35	25109.45
957.6186	2293.0302	25926	25035.55
957.7512	2294.4758	25813.2	24923.6
957.8838	2295.9206	25641.9	24749.5
958.0163	2297.3648	25616.25	24729.6
958.1488	2298.8082	25577.7	24687.95
958.2813	2300.251	25515.85	24626.5
958.4137	2301.693	25426.7	24533.85
958.5461	2303.1343	25412.5	24520.7
958.6785	2304.5748	25276.2	24386.35
958.8108	2306.0147	25158.15	24267.75
958.9432	2307.4538	25109.65	24218.55
959.0754	2308.8922	25051.4	24162.2
959.2077	2310.3299	24944.35	24057.3
959.3399	2311.7669	24871.4	23980.95
959.4721	2313.2031	24764.35	23875.15
959.6043	2314.6387	24678.4	23787.2
959.7365	2316.0735	24576.7	23687.6
959.8686	2317.5076	24543.1	23654.5
960.0006	2318.941	24463.3	23573.2
960.1327	2320.3737	24408.5	23519
960.2647	2321.8056	24286.45	23393.95
960.3967	2323.2369	24253.4	23361.15
960.5287	2324.6674	24172.55	23281.25
960.6606	2326.0972	24104.5	23212.5
960.7925	2327.5263	23966.35	23075.65
960.9244	2328.9547	23922.65	23032.5
961.0562	2330.3823	23832	22941.05
961.1881	2331.8092	23855.95	22962.7
961.3198	2333.2355	23703.1	22810.7
961.4516	2334.661	23633.85	22743.35
961.5833	2336.0858	23609.7	22719.25
961.715	2337.5098	23541.5	22652.75
961.8467	2338.9332	23485.35	22594.25
961.9783	2340.3558	23377.15	22483.15
962.1099	2341.7778	23274.9	22384.75
962.2415	2343.199	23240.35	22349.05
962.373	2344.6195	23149.5	22261.9
962.5045	2346.0393	23063.1	22172.25
962.636	2347.4583	23040.6	22149.7
962.7675	2348.8767	22944.05	22054
962.8989	2350.2943	22867.8	21976.9
963.0303	2351.7113	22837.45	21947.6
963.1617	2353.1275	22769.45	21877.7
963.293	2354.543	22686.5	21788.3
963.4243	2355.9578	22638.8	21747.7
963.5556	2357.3718	22485.05	21592.5
963.6868	2358.7852	22379.9	21486.55
963.818	2360.1978	22272.1	21380.5
963.9492	2361.6098	22237.55	21349.35
964.0803	2363.021	22165.05	21274
964.2114	2364.4315	22141.9	21252.6
964.3425	2365.8413	22032.65	21142.05
964.4736	2367.2504	21985.35	21096.8
964.6046	2368.6587	21826.7	20936.45
964.7356	2370.0664	21762.75	20872.85
964.8666	2371.4733	21738.45	20847.6
964.9975	2372.8795	21666.65	20777.05
965.1284	2374.285	21569.7	20678.9
965.2593	2375.6899	21463.7	20576.4
965.3901	2377.0939	21341.4	20453.3
965.5209	2378.4973	21281.75	20394.15
965.6517	2379.9	21214.85	20323.7
965.7825	2381.3019	21150.9	20262.5
965.9132	2382.7032	21084.4	20193.4
966.0439	2384.1037	21048.85	20160.75
966.1745	2385.5035	20947.15	20058.8
966.3051	2386.9027	20874.9	19986.8
966.4357	2388.3011	20850.35	19958.9
966.5663	2389.6987	20702.55	19812.7
966.6968	2391.0957	20669.65	19781.25
966.8273	2392.492	20544.75	19657.35
966.9578	2393.8876	20432.9	19543.55
967.0882	2395.2824	20378.1	19489.65
967.2186	2396.6765	20307.85	19419.8
967.349	2398.07	20169.85	19282.25
967.4793	2399.4627	20197.1	19305.15
967.6097	2400.8547	20131.95	19244.45
967.7399	2402.246	20036.75	19142.35
967.8702	2403.6366	19931.75	19043.75
968.0004	2405.0265	19828.35	18941.05
968.1306	2406.4156	19736.05	18843.55
968.2607	2407.8041	19689.7	18796.45
968.3909	2409.1918	19627.5	18736.6
968.521	2410.5789	19531.95	18639.9
968.651	2411.9652	19491.95	18599.5
968.781	2413.3508	19383.15	18493.4
968.911	2414.7358	19305.95	18415.6
969.041	2416.12	19231.4	18344.6
969.1709	2417.5035	19225.15	18336.45
969.3008	2418.8863	19118.75	18225.9
969.4307	2420.2684	19071.3	18183.2
969.5606	2421.6497	18972.1	18081
969.6904	2423.0304	18849.8	17959.8
969.8201	2424.4104	18805	17914.95
969.9499	2425.7896	18742.6	17850.85
970.0796	2427.1682	18698.35	17809.4
970.2093	2428.546	18641.45	17749.2
970.3389	2429.9232	18589.15	17698.45
970.4685	2431.2996	18519.8	17629.8
970.5981	2432.6753	18512.6	17623.85
970.7277	2434.0503	18458.2	17568.15
970.8572	2435.4246	18383.15	17494.4
970.9867	2436.7982	18288.85	17396.75
971.1161	2438.1711	18257.7	17369
971.2456	2439.5433	18160.75	17269.35
971.375	2440.9148	18066.9	17172.3
971.5043	2442.2856	18004.55	17114.9
971.6336	2443.6557	17956.05	17065.25
971.7629	2445.025	17900.95	17011.1
971.8922	2446.3937	17867.3	16975.1
972.0214	2447.7617	17809.95	16921.3
972.1506	2449.1289	17775.25	16887.15
972.2798	2450.4955	17708.2	16816.65
972.4089	2451.8613	17672.2	16782
972.538	2453.2265	17581.35	16692
972.6671	2454.5909	17543	16652.8
972.7961	2455.9546	17487	16595.05
972.9251	2457.3177	17417.5	16527.85
973.0541	2458.68	17364.7	16472.3
973.1831	2460.0416	17345.5	16453.8
973.312	2461.4025	17296.05	16407
973.4408	2462.7627	17261.95	16361.3
973.5697	2464.1222	17179.45	16290
973.6985	2465.4811	17135	16245.85
973.8273	2466.8392	17072.15	16182.95
973.956	2468.1966	17051.35	16160.25
974.0847	2469.5533	16987.1	16095.35
974.2134	2470.9093	16934.95	16043.7
974.3421	2472.2645	16844.9	15954.9
974.4707	2473.6191	16840.25	15949.05
974.5993	2474.973	16732.55	15843.5
974.7278	2476.3262	16688.8	15796.3
974.8563	2477.6787	16612.35	15722.6
974.9848	2479.0305	16521.5	15633.1
975.1132	2480.3816	16451.6	15559.7
975.2417	2481.7319	16433.5	15544.75
975.37	2483.0816	16388.35	15496.3
975.4984	2484.4306	16291.6	15400.2
975.6267	2485.7789	16246.75	15358.65
975.755	2487.1264	16163	15271.2
975.8833	2488.4733	16100.1	15213.7
976.0115	2489.8195	16055.65	15159.9
976.1397	2491.165	15991.55	15099.55
976.2678	2492.5097	15945.2	15054.5
976.3959	2493.8538	15865.9	14974.7
976.524	2495.1972	15786.55	14897.75
976.6521	2496.5398	15725.5	14834.6
976.7801	2497.8818	15703.4	14811.5
976.9081	2499.2231	15638.55	14749.7
977.036	2500.5637	15574.85	14683.9
977.164	2501.9035	15516.45	14625.25
977.2918	2503.2427	15481.95	14588
977.4197	2504.5812	15435.5	14545.85
977.5475	2505.919	15363.2	14472.8
977.6753	2507.256	15373.45	14485.2
977.8031	2508.5924	15294.6	14405.2
977.9308	2509.9281	15241.95	14348.35
978.0585	2511.2631	15159.65	14269.75
978.1861	2512.5974	15137.95	14250.65
978.3137	2513.9309	15068.2	14178.9
978.4413	2515.2638	15016.2	14102.7
978.5689	2516.596	14994.15	14105.6
978.6964	2517.9275	14884.05	13993.85
978.8239	2519.2583	14850.7	13960.45
978.9513	2520.5884	14790.5	13901
979.0788	2521.9178	14718.35	13827.8
979.2062	2523.2465	14678.5	13790.05
979.3335	2524.5745	14617.35	13727.9
979.4608	2525.9018	14577.8	13684.9
979.5881	2527.2284	14529.2	13640.4
979.7154	2528.5543	14501.1	13612.4
979.8426	2529.8796	14461.4	13570.9
979.9698	2531.2041	14448.8	13557
980.0969	2532.5279	14369.5	13480
980.224	2533.851	14347.8	13457.9
980.3511	2535.1735	14283.65	13395.45
980.4781	2536.4952	14283.45	13393.8
980.6052	2537.8163	14222.9	13333.1
980.7321	2539.1366	14187.1	13299.1
980.8591	2540.4562	14126.5	13236.5
980.986	2541.7752	14101.65	13214.5
981.1129	2543.0935	14079.8	13189.1
981.2397	2544.411	14046	13155.05
981.3665	2545.7279	14016.85	13127.05
981.4933	2547.0441	13981.25	13092.9
981.62	2548.3596	13963.9	13072.75
981.7467	2549.6744	13929.65	13041
981.8734	2550.9885	13850.4	12953.45
982.0001	2552.3019	13841.9	12954.65
982.1267	2553.6146	13825.3	12936.5
982.2532	2554.9266	13751.05	12859.85
982.3798	2556.2379	13695.25	12803.4
982.5063	2557.5485	13669.95	12780.35
982.6327	2558.8585	13624.15	12727.85
982.7592	2560.1677	13578	12684.95
982.8856	2561.4762	13542.15	12652.9
983.0119	2562.7841	13530.95	12636.95
983.1383	2564.0913	13498.1	12609.5
983.2646	2565.3977	13485.65	12598.6
983.3908	2566.7035	13430.45	12539
983.517	2568.0086	13431.35	12539.5
983.6432	2569.313	13420.5	12530.6
983.7694	2570.6167	13368.75	12476.15
983.8955	2571.9197	13313.55	12422.55
984.0216	2573.222	13283.1	12389.05
984.1476	2574.5236	13258.35	12368.35
984.2737	2575.8246	13200.7	12308.7
984.3996	2577.1248	13140.9	12249.1
984.5256	2578.4244	13159.75	12270.35
984.6515	2579.7232	13151.45	12262.35
984.7774	2581.0214	13125.25	12213
984.9032	2582.3189	13084.1	12193.3
985.029	2583.6157	13033.45	12139.05
985.1548	2584.9118	12990.95	12098.65
985.2806	2586.2072	12951.45	12060.85
985.4063	2587.5019	12899.55	12011.4
985.5319	2588.7959	12865.35	11975.85
985.6576	2590.0893	12837.25	11949.2
985.7832	2591.3819	12830.2	11940.05
985.9087	2592.6739	12748.2	11859.15
986.0343	2593.9652	12722.55	11832
986.1597	2595.2557	12683.55	11794.15
986.2852	2596.5456	12649.1	11755.6
986.4106	2597.8348	12597.45	11709.7
986.536	2599.1234	12537.1	11647
986.6614	2600.4112	12496.55	11605.35
986.7867	2601.6983	12454.3	11560.1
986.912	2602.9848	12377.1	11486.9
987.0372	2604.2705	12343.25	11447.8
987.1624	2605.5556	12334.1	11444.75
987.2876	2606.84	12290.75	11400.45
987.4128	2608.1237	12228	11336.5
987.5379	2609.4067	12192.1	11302.75
987.6629	2610.689	12153.8	11254.05
987.788	2611.9707	12105.05	11213.6
987.913	2613.2516	12042.25	11147.85
988.0379	2614.5319	11987.8	11098.7
988.1629	2615.8115	11946.4	11056.35
988.2878	2617.0903	11935.9	11045
988.4126	2618.3685	11876	10985.45
988.5375	2619.6461	11800.4	10911.05
988.6622	2620.9229	11777.75	10888.2
988.787	2622.199	11736.15	10847.15
988.9117	2623.4745	11719.65	10829.6
989.0364	2624.7493	11655.55	10767.05
989.161	2626.0234	11623.4	10735.05
989.2857	2627.2968	11592.35	10705
989.4102	2628.5695	11514.5	10622.9
989.5348	2629.8415	11483.2	10593.85
989.6593	2631.1128	11432.6	10541.2
989.7837	2632.3835	11360.35	10470.45
989.9082	2633.6535	11331.45	10443.5
990.0326	2634.9228	11294.8	10406.2
990.1569	2636.1914	11271.35	10382.35
990.2812	2637.4593	11260.3	10365.6
990.4055	2638.7265	11206.2	10317.45
990.5298	2639.9931	11161.9	10274.05
990.654	2641.259	11138.65	10249.8
990.7782	2642.5242	11094.45	10203.65
990.9023	2643.7887	11067.9	10177.7
991.0264	2645.0525	11027.55	10138.3
991.1505	2646.3156	10956.3	10065.95
991.2745	2647.5781	10944.55	10057.65
991.3985	2648.8398	10898.3	10009.05
991.5225	2650.1009	10860.05	9934
991.6464	2651.3613	10837.35	9949.7
991.7703	2652.6211	10798.2	9909.1
991.8942	2653.8801	10776.1	9888.3
992.018	2655.1385	10728.7	9837.85
992.1418	2656.3961	10725.05	9834.6
992.2655	2657.6531	10694.35	9804.8
992.3892	2658.9094	10647.25	9759.1
992.5129	2660.1651	10624.75	9737.8
992.6366	2661.42	10598.65	9708.35
992.7602	2662.6743	10573.7	9684.1
992.8837	2663.9279	10549.5	9660.8
993.0073	2665.1808	10507.1	9616.55
993.1307	2666.433	10478.5	9587.05
993.2542	2667.6846	10430.95	9542.6
993.3776	2668.9354	10413.95	9521.6
993.501	2670.1856	10369.7	9479.85
993.6244	2671.4351	10341.05	9453.2
993.7477	2672.6839	10322.35	9431.55
993.8709	2673.9321	10273.6	9384
993.9942	2675.1795	10248.25	9358.9
994.1174	2676.4263	10214.55	9326.1
994.2405	2677.6724	10184.8	9294.25
994.3637	2678.9179	10171.8	9280.45
994.4868	2680.1626	10104.45	9216.3
994.6098	2681.4067	10077.1	9187.5
994.7328	2682.6501	10049.4	9160.55
994.8558	2683.8928	10006.4	9117.35
994.9788	2685.1348	9993.2	9103.8
995.1017	2686.3761	9953.2	9063.7
995.2245	2687.6168	9918.8	9028.25
995.3474	2688.8568	9874.55	8983.1
995.4702	2690.0961	9841.9	8954.15
995.5929	2691.3348	9818.85	8930.15
995.7156	2692.5727	9799.25	8910.75
995.8383	2693.81	9758.25	8870.2
995.961	2695.0466	9732.8	8844.2
996.0836	2696.2826	9692.9	8800.5
996.2062	2697.5178	9667.15	8774.8
996.3287	2698.7524	9636.7	8746.2
996.4512	2699.9863	9618.25	8729
996.5737	2701.2195	9575.7	8688.35
996.6961	2702.452	9562.35	8671.65
996.8185	2703.6839	9505.5	8617.25
996.9408	2704.9151	9489.6	8603.25
997.0631	2706.1456	9458.05	8570.15
997.1854	2707.3755	9416	8526.55
997.3077	2708.6046	9392.5	8500.9
997.4299	2709.8331	9367.65	8477.45
997.552	2711.0609	9350	8460.15
997.6742	2712.2881	9321.3	8432.85
997.7963	2713.5145	9292.55	8402.2
997.9183	2714.7403	9264.45	8376.65
998.0403	2715.9654	9236.05	8345.2
998.1623	2717.1899	9220.9	8316.3
998.2842	2718.4136	9200.65	8310.3
998.4062	2719.6367	9172.8	8282.1
998.528	2720.8591	9143.1	8248.7
998.6498	2722.0809	9111	8223
998.7716	2723.3019	9086.8	8195.4
998.8934	2724.5223	9061.55	8170.25
999.0151	2725.7421	9027.1	8135.8
999.1368	2726.9611	9004.25	8112.25
999.2584	2728.1795	8989.75	8096.45
999.38	2729.3972	8943.2	8053.65
999.5016	2730.6142	8885.85	7988.75
999.6231	2731.8306	8827.8	7939.45
999.7446	2733.0462	8778.25	7889.4
999.8661	2734.2612	8750.9	7856.7
999.9875	2735.4756	8713.5	7824.15
1000.1089	2736.6892	8665.15	7775.05
1000.2302	2737.9022	8610.05	7721.05
1000.3515	2739.1145	8559.8	7671.85
1000.4728	2740.3262	8540.4	7643
1000.594	2741.5372	8485.85	7596.95
1000.7152	2742.7475	8422.55	7533.1
1000.8363	2743.9571	8423.4	7532.45
1000.9575	2745.1661	8361.9	7469.2
1001.0785	2746.3744	8349.35	7459.65
1001.1996	2747.582	8327.15	7439.4
1001.3206	2748.7889	8292.1	7402
1001.4415	2749.9952	8254.65	7365.45
1001.5625	2751.2008	8226.95	7336.15
1001.6833	2752.4057	8203.6	7314.85
1001.8042	2753.61	8164.7	7273.9
1001.925	2754.8136	8148.85	7256.6
1002.0458	2756.0165	8101.1	7209.55
1002.1665	2757.2188	8084.05	7195.25
1002.2872	2758.4204	8045.85	7156.95
1002.4078	2759.6213	8019.65	7127.5
1002.5285	2760.8215	8006.75	7114.9
1002.649	2762.0211	7962.15	7071.4
1002.7696	2763.22	7943.45	7052.6
1002.8901	2764.4182	7910.05	7018.55
1003.0106	2765.6158	7897.45	7011.45
1003.131	2766.8127	7863.6	6974.35
1003.2514	2768.009	7820.75	6932.6
1003.3717	2769.2045	7808.6	6919.35
1003.492	2770.3994	7787.5	6895.2
1003.6123	2771.5936	7752.4	6861.55
1003.7325	2772.7872	7735.55	6845.55
1003.8527	2773.9801	7670.85	6780.75
1003.9729	2775.1723	7677.8	6773.25
1004.093	2776.3639	7647.7	6760.2
1004.2131	2777.5548	7623.6	6734
1004.3331	2778.745	7564.5	6673.05
1004.4531	2779.9346	7554.05	6664
1004.5731	2781.1235	7537.35	6647.2
1004.693	2782.3117	7501.9	6613
1004.8129	2783.4992	7476.7	6589.65
1004.9328	2784.6861	7462.55	6576.2
1005.0526	2785.8723	7451.05	6560.8
1005.1723	2787.0579	7440.1	6551.25
1005.2921	2788.2428	7408.9	6518.75
1005.4118	2789.427	7378	6489.85
1005.5314	2790.6106	7381.85	6493.75
1005.651	2791.7935	7362.8	6472.85
1005.7706	2792.9757	7311.1	6425.4
1005.8902	2794.1573	7324.5	6433.85
1006.0097	2795.3382	7290.3	6400.45
1006.1291	2796.5184	7266.95	6378.9
1006.2485	2797.698	7261.85	6370.85
1006.3679	2798.8769	7261.7	6372.5
1006.4873	2800.0551	7246.9	6357.55
1006.6066	2801.2327	7203.1	6312.9
1006.7258	2802.4096	7205.8	6317.75
1006.8451	2803.5859	7198.25	6308.15
1006.9642	2804.7615	7203.2	6312.5
1007.0834	2805.9364	7192.35	6306.05
1007.2025	2807.1106	7172	6283.1
1007.3216	2808.2842	7175.45	6287.25
1007.4406	2809.4572	7186.55	6298.15
1007.5596	2810.6294	7205.7	6316.15
1007.6785	2811.801	7228.1	6340.4
1007.7975	2812.972	7223	6335.3
1007.9163	2814.1423	7225.05	6338.65
1008.0352	2815.3119	7257.5	6369.5
1008.154	2816.4808	7271.3	6385.6
1008.2727	2817.6491	7322.8	6433.15
1008.3914	2818.8167	7327.05	6437.95
1008.5101	2819.9837	7390.3	6496.4
1008.6288	2821.15	7384.85	6495.2
1008.7474	2822.3157	7406.15	6518.2
1008.8659	2823.4807	7431.1	6544.3
1008.9844	2824.645	7481.45	6591.25
1009.1029	2825.8086	7505	6617.7
1009.2214	2826.9716	7520.9	6632.95
1009.3398	2828.134	7565.3	6679.85
1009.4581	2829.2957	7601.9	6712.1
1009.5764	2830.4567	7580.1	6691.3
1009.6947	2831.617	7586.4	6698.35
1009.813	2832.7767	7566.55	6677.35
1009.9312	2833.9358	7558.15	6669.8
1010.0493	2835.0941	7558.4	6670
1010.1675	2836.2519	7518.7	6630.2
1010.2855	2837.4089	7504.7	6614.85
1010.4036	2838.5653	7464	6575.35
1010.5216	2839.7211	7454.65	6567.8
1010.6396	2840.8761	7432.7	6542.55
1010.7575	2842.0306	7429.6	6544.3
1010.8754	2843.1843	7461.25	6573.7
1010.9932	2844.3374	7479.2	6591.4
1011.111	2845.4899	7518.75	6629
1011.2288	2846.6417	7573.25	6685.95
1011.3465	2847.7928	7619.45	6731.2
1011.4642	2848.9433	7657.05	6768.95
1011.5818	2850.0931	7695.6	6807.55
1011.6995	2851.2422	7761.65	6871.65
1011.817	2852.3907	7804.7	6915.8
1011.9345	2853.5385	7851.75	6961.85
1012.052	2854.6857	7891.1	6993.5
1012.1695	2855.8323	7908.6	7021.25
1012.2869	2856.9781	7922.85	7034.2
1012.4042	2858.1233	7928.7	7040.3
1012.5216	2859.2679	7959.3	7071.3
1012.6389	2860.4118	7987.7	7098.6
1012.7561	2861.555	8039.9	7148.1
1012.8733	2862.6976	8047.55	7156.25
1012.9905	2863.8395	8039.55	7152.8
1013.1076	2864.9808	8056.35	7167.95
1013.2247	2866.1214	8015.45	7130.5
1013.3417	2867.2614	8030.7	7142.1
1013.4587	2868.4007	8011.9	7120.95
1013.5757	2869.5393	8022.3	7132.35
1013.6926	2870.6773	8003.4	7110.8
1013.8095	2871.8146	7985.15	7094.55
1013.9263	2872.9513	7996.65	7105.2
1014.0431	2874.0874	7949.7	7062.65
1014.1599	2875.2227	7933.6	7043
1014.2766	2876.3574	7872.3	6983.05
1014.3933	2877.4915	7819.75	6931.55
1014.51	2878.6249	7763.9	6876.75
1014.6266	2879.7577	7745.75	6854.65
1014.7431	2880.8898	7722.05	6824.35
1014.8596	2882.0212	7683.5	6795.95
1014.9761	2883.152	7653.35	6763.5
1015.0925	2884.2821	7608.6	6721.2
1015.2089	2885.4116	7574.05	6685.1
1015.3253	2886.5405	7564.35	6676.7
1015.4416	2887.6686	7571.6	6680.2
1015.5579	2888.7962	7555.8	6669.8
1015.6741	2889.923	7533.8	6647.4
1015.7903	2891.0493	7507.95	6620.25
1015.9065	2892.1748	7482	6594.05
1016.0226	2893.2997	7489.35	6599.8
1016.1387	2894.424	7491.45	6604.7
1016.2547	2895.5476	7468.25	6578.8
1016.3707	2896.6706	7477.3	6589.6
1016.4866	2897.7929	7469.3	6580.5
1016.6025	2898.9145	7474.15	6585.3
1016.7184	2900.0355	7489.85	6602
1016.8342	2901.1559	7508.25	6620.75
1016.95	2902.2756	7529.95	6642.6
1017.0658	2903.3946	7528.65	6640.4
1017.1815	2904.513	7520.2	6627.75
1017.2971	2905.6308	7520.2	6630.3
1017.4127	2906.7479	7543.55	6653.15
1017.5283	2907.8643	7548.95	6659.15
1017.6439	2908.9801	7533.4	6645.3
1017.7594	2910.0953	7525.95	6640.15
1017.8748	2911.2098	7500.25	6608.4
1017.9902	2912.3236	7477.15	6581.4
1018.1056	2913.4368	7460.7	6569.8
1018.2209	2914.5494	7421.65	6532.45
1018.3362	2915.6613	7378.7	6485.75
1018.4515	2916.7725	7332.8	6441.2
1018.5667	2917.8831	7278.8	6388.15
1018.6819	2918.9931	7255.5	6364.9
1018.797	2920.1024	7224.9	6335.85
1018.9121	2921.211	7192.1	6304.65
1019.0271	2922.319	7143.15	6255.35
1019.1421	2923.4264	7122.1	6232.75
1019.2571	2924.5331	7087.4	6199.8
1019.372	2925.6391	7052.1	6161.95
1019.4869	2926.7445	7036.9	6149.1
1019.6017	2927.8493	7032.05	6143.4
1019.7165	2928.9534	7011.05	6121
1019.8313	2930.0569	6986.15	6095.85
1019.946	2931.1597	6972.05	6082.05
1020.0606	2932.2619	6955.35	6067
1020.1753	2933.3634	6945.45	6057.5
1020.2899	2934.4643	6950.6	6056
1020.4044	2935.5645	6892.1	5997.9
1020.5189	2936.6641	6850.5	5957.85
1020.6334	2937.763	6793.05	5907.15
1020.7478	2938.8613	6746.55	5858.85
1020.8622	2939.959	6673.1	5779.7
1020.9765	2941.056	6578.8	5689.95
1021.0908	2942.1523	6490.2	5599.7
1021.2051	2943.248	6414.2	5525
1021.3193	2944.3431	6326.55	5437.45
1021.4334	2945.4375	6193.65	5304.45
1021.5476	2946.5313	6087.35	5200.35
1021.6617	2947.6244	5978.8	5089.55
1021.7757	2948.7169	5856.05	4965.95
1021.8897	2949.8087	5762.1	4875
1022.0037	2950.8999	5664.65	4776.1
1022.1176	2951.9904	5570	4682.95
1022.2315	2953.0803	5499.95	4610.15
1022.3453	2954.1696	5433.2	4543.6
1022.4591	2955.2582	5378.7	4490.1
1022.5728	2956.3462	5318.1	4430.45
1022.6865	2957.4335	5262.35	4374.05
1022.8002	2958.5202	5196.6	4305.95
1022.9138	2959.6062	5146.8	4258.2
1023.0274	2960.6916	5119.75	4231.65
1023.141	2961.7764	5085.05	4197.4
1023.2545	2962.8605	5055	4167.1
1023.3679	2963.9439	5035.05	4146.3
1023.4813	2965.0267	5015.1	4124
1023.5947	2966.1089	4995.8	4084.05
1023.708	2967.1905	4964.2	4077.15
1023.8213	2968.2714	4939.7	4051.85
1023.9346	2969.3516	4936.45	4047.7
1024.0478	2970.4312	4918.15	4024.25
1024.1609	2971.5102	4900	4012.65
1024.274	2972.5885	4883.6	3996.8
1024.3871	2973.6662	4892.65	3998.85
1024.5002	2974.7432	4873.2	3984.85
1024.6132	2975.8196	4836.25	3946.8
1024.7261	2976.8954	4808.95	3920.1
1024.839	2977.9705	4791	3902
1024.9519	2979.045	4767.7	3879.65
1025.0647	2980.1188	4743.25	3855.6
1025.1775	2981.192	4698.2	3811.3
1025.2902	2982.2645	4676.55	3786.95
1025.4029	2983.3364	4633.35	3742.45
1025.5156	2984.4077	4607.65	3721.85
1025.6282	2985.4783	4576.8	3684.9
1025.7407	2986.5483	4541.4	3654.9
1025.8532	2987.6177	4491.65	3605.15
1025.9657	2988.6864	4453.05	3565.15
1026.0782	2989.7545	4432.35	3544.2
1026.1906	2990.8219	4368.4	3481.05
1026.3029	2991.8887	4325.9	3435.9
1026.4152	2992.9548	4277.6	3388.3
1026.5275	2994.0204	4249.55	3360.7
1026.6397	2995.0852	4205.75	3319.55
1026.7519	2996.1495	4187.55	3298.3
1026.864	2997.2131	4153.45	3265.75
1026.9761	2998.276	4098.55	3211.15
1027.0882	2999.3383	4085.3	3197.3
1027.2002	3000.4	4060.75	3172.45
1027.3122	3001.4611	4013.35	3125.5
1027.4241	3002.5215	3986.7	3100.3
1027.536	3003.5812	3966.35	3077.9
1027.6478	3004.6404	3936.95	3046.9
1027.7596	3005.6989	3934.5	3043.05
1027.8714	3006.7567	3926.1	3037.65
1027.9831	3007.8139	3915.9	3007.15
1028.0947	3008.8705	3888.15	3000.5
1028.2064	3009.9264	3844.15	2952.35
1028.3179	3010.9818	3849	2962.65
1028.4295	3012.0364	3839.15	2950.3
1028.541	3013.0905	3810.15	2924.25
1028.6524	3014.1439	3804.05	2916.15
1028.7638	3015.1966	3793.15	2906.55
1028.8752	3016.2487	3767.5	2876.65
1028.9865	3017.3002	3748.2	2858
1029.0978	3018.3511	3745.2	2856.8
1029.209	3019.4013	3741.65	2854.4
1029.3202	3020.4509	3739	2851.05
1029.4314	3021.4998	3720.65	2831.4
1029.5425	3022.5481	3709.7	2822.45
1029.6535	3023.5958	3704.1	2816.1
1029.7645	3024.6428	3695.5	2807.35
1029.8755	3025.6892	3677	2789.3
1029.9864	3026.735	3652.55	2765.8
1030.0973	3027.7802	3666.15	2776.95
1030.2082	3028.8247	3633.65	2745.45
1030.319	3029.8685	3623.3	2735.75
1030.4297	3030.9118	3621.2	2731.05
1030.5404	3031.9544	3610.4	2723.55
1030.6511	3032.9963	3604.05	2716.55
1030.7617	3034.0376	3604.9	2716.5
1030.8723	3035.0783	3598.05	2707.6
1030.9829	3036.1184	3579.05	2687.4
1031.0934	3037.1578	3585.85	2698.85
1031.2038	3038.1966	3566.75	2676.95
1031.3142	3039.2348	3556.65	2671.65
1031.4246	3040.2723	3566	2669.4
1031.5349	3041.3092	3539.9	2654.7
1031.6452	3042.3455	3531.55	2643.65
1031.7554	3043.3811	3519.45	2630.2
1031.8656	3044.4161	3494.3	2605.7
1031.9758	3045.4505	3489.95	2604.55
1032.0859	3046.4842	3486.9	2600.2
1032.1959	3047.5173	3469.15	2582.5
1032.3059	3048.5498	3466.05	2579.75
1032.4159	3049.5816	3445.85	2558.3
1032.5258	3050.6128	3441.1	2553.7
1032.6357	3051.6434	3414.75	2525.65
1032.7455	3052.6734	3412.65	2522.25
1032.8553	3053.7027	3391.3	2504.55
1032.9651	3054.7314	3379.1	2490.75
1033.0748	3055.7594	3362.15	2475
1033.1845	3056.7868	3356.15	2466.95
1033.2941	3057.8136	3326.5	2438.3
1033.4037	3058.8398	3319	2432.3
1033.5132	3059.8653	3298.9	2412.75
1033.6227	3060.8902	3293.35	2405.55
1033.7321	3061.9145	3285.85	2396.6
1033.8415	3062.9381	3267.3	2379.3
1033.9509	3063.9612	3265.35	2361.1
1034.0602	3064.9835	3234.5	2347
1034.1694	3066.0053	3222.5	2334.1
1034.2787	3067.0264	3216.6	2329.35
1034.3878	3068.0469	3206.9	2317.35
1034.497	3069.0668	3190.9	2300.55
1034.6061	3070.086	3176.85	2288.95
1034.7151	3071.1046	3166.4	2280.45
1034.8241	3072.1226	3158.15	2270.05
1034.9331	3073.1399	3135.25	2249.9
1035.042	3074.1567	3113.45	2226.05
1035.1508	3075.1727	3095.4	2205.6
1035.2597	3076.1882	3077.4	2189.7
1035.3684	3077.203	3073.7	2186
1035.4772	3078.2173	3060.2	2170.7
1035.5859	3079.2308	3032.95	2142.45
1035.6945	3080.2438	3020.55	2129.55
1035.8031	3081.2561	3003	2115.55
1035.9117	3082.2678	3000.9	2114.4
1036.0202	3083.2789	2987.2	2099.95
1036.1286	3084.2893	2974.3	2087.3
1036.2371	3085.2991	2949.7	2061.4
1036.3454	3086.3083	2945.4	2052.45
1036.4538	3087.3169	2931.45	2042.3
1036.562	3088.3248	2927.3	2037.55
1036.6703	3089.3321	2909.25	2020.2
1036.7785	3090.3388	2885.5	2001.85
1036.8866	3091.3449	2890.35	2003.7
1036.9948	3092.3503	2874.65	1984.65
1037.1028	3093.3551	2848.8	1962.25
1037.2108	3094.3593	2856.6	1970.25
1037.3188	3095.3629	2842.9	1954.6
1037.4267	3096.3658	2827.2	1937.35
1037.5346	3097.3681	2827.1	1938
1037.6425	3098.3698	2812.3	1922.6
1037.7503	3099.3708	2796.8	1902.2
1037.858	3100.3713	2781.25	1895.75
1037.9657	3101.3711	2772.3	1884.7
1038.0734	3102.3702	2874.35	1849.6
1038.181	3103.3688	2748.7	1857.75
1038.2886	3104.3667	2736.3	1848.3
1038.3961	3105.364	2739.3	1852.5
1038.5036	3106.3607	2716.35	1826.1
1038.611	3107.3568	2697	1808.75
1038.7184	3108.3522	2681.5	1795.5
1038.8257	3109.347	2686.7	1798.6
1038.933	3110.3412	2678.05	1788.45
1039.0403	3111.3348	2657.45	1769
1039.1475	3112.3277	2653	1766.15
1039.2547	3113.32	2646.7	1760.7
1039.3618	3114.3117	2624.7	1737.25
1039.4689	3115.3028	2632.45	1745.1
1039.5759	3116.2932	2613.55	1724.3
1039.6829	3117.2831	2605.95	1712.95
1039.7898	3118.2723	2583.65	1695.45
1039.8967	3119.2608	2576	1689
1040.0035	3120.2488	2569.5	1681.45
1040.1103	3121.2361	2549.2	1661.3
1040.2171	3122.2229	2548.25	1661.05
1040.3238	3123.209	2551.6	1664.15
1040.4305	3124.1944	2544	1658.85
1040.5371	3125.1793	2522.7	1634
1040.6437	3126.1635	2517	1630.2
1040.7502	3127.1471	2506.9	1618.95
1040.8567	3128.1301	2501.1	1613.8
1040.9631	3129.1125	2486.3	1598.9
1041.0695	3130.0942	2480.95	1593.85
1041.1759	3131.0753	2484.2	1588.05
1041.2822	3132.0558	2467.3	1579.65
1041.3884	3133.0357	2464.25	1576.75
1041.4946	3134.015	2447.9	1561.45
1041.6008	3134.9936	2455.5	1568.85
1041.7069	3135.9716	2463.05	1554.9
1041.813	3136.949	2441.4	1551.55
1041.919	3137.9258	2443.2	1550.7
1042.025	3138.902	2416.5	1524.35
1042.1309	3139.8775	2417.6	1531.25
1042.2368	3140.8524	2411.9	1523.8
1042.3427	3141.8267	2409.8	1521.5
1042.4485	3142.8004	2386.65	1498.75
1042.5542	3143.7735	2383.15	1489
1042.6599	3144.7459	2383.25	1494.7
1042.7656	3145.7178	2373.45	1483.85
1042.8712	3146.689	2363.9	1477.6
1042.9768	3147.6596	2360.3	1471.45
1043.0823	3148.6295	2342.05	1453.3
1043.1878	3149.5989	2349.1	1461.2
1043.2932	3150.5676	2326.55	1440.8
1043.3986	3151.5357	2328.6	1442.45
1043.5039	3152.5032	2315.25	1427.8
1043.6092	3153.4701	2312.95	1423.45
1043.7145	3154.4364	2313.95	1424.4
1043.8197	3155.402	2302.1	1415.35
1043.9248	3156.367	2287.75	1397.9
1044.03	3157.3315	2317.2	1385.8
1044.135	3158.2952	2264.25	1375.1
1044.24	3159.2584	2261.7	1374.75
1044.345	3160.221	2250.05	1362.4
1044.4499	3161.1829	2246.15	1359.45
1044.5548	3162.1442	2247.05	1360.55
1044.6596	3163.105	2223.6	1334.65
1044.7644	3164.065	2221.75	1334.3
1044.8692	3165.0245	2215.35	1325.55
1044.9739	3165.9834	2209.25	1323.85
1045.0785	3166.9416	2194.9	1308.5
1045.1831	3167.8993	2191.9	1301.7
1045.2877	3168.8563	2184.2	1296.4
1045.3922	3169.8127	2184.35	1296.8
1045.4966	3170.7684	2174.75	1288
1045.6011	3171.7236	2175.3	1286
1045.7054	3172.6782	2156.7	1268.5
1045.8098	3173.6321	2147.55	1259.45
1045.914	3174.5854	2142.15	1248.65
1046.0183	3175.5381	2130.1	1245.1
1046.1224	3176.4902	2128.4	1241.75
1046.2266	3177.4417	2114.9	1226.75
1046.3307	3178.3926	2121.1	1234.9
1046.4347	3179.3428	2102.25	1214.4
1046.5387	3180.2924	2099.45	1212.7
1046.6427	3181.2415	2086.1	1198.85
1046.7466	3182.1899	2090.9	1202
1046.8504	3183.1377	2082.15	1194.75
1046.9542	3184.0848	2075.25	1184.3
1047.058	3185.0314	2071.4	1181.9
1047.1617	3185.9773	2059.7	1172.4
1047.2654	3186.9227	2050.85	1164.65
1047.369	3187.8674	2058.2	1171.55
1047.4726	3188.8115	2044.15	1151.05
1047.5761	3189.755	2032.45	1146.05
1047.6796	3190.6979	2030.9	1144.9
1047.783	3191.6402	2029.55	1142.8
1047.8864	3192.5818	2030.25	1142.25
1047.9898	3193.5229	2037.95	1128.25
1048.0931	3194.4633	2006	1118.75
1048.1963	3195.4031	2008.35	1122.8
1048.2995	3196.3423	1995.75	1107.85
1048.4027	3197.2809	1997.6	1110.7
1048.5058	3198.2189	1996.85	1110.2
1048.6089	3199.1563	1987.15	1091.05
1048.7119	3200.0931	1971.45	1086.5
1048.8148	3201.0292	1967.45	1081.35
1048.9178	3201.9648	1969.45	1080.8
1049.0206	3202.8997	1970.5	1081.5
1049.1235	3203.834	1946.05	1058.25
1049.2262	3204.7677	1956.8	1070.8
1049.329	3205.7008	1943.15	1053.6
1049.4317	3206.6333	1925.85	1038.9
1049.5343	3207.5652	1931.45	1040.85
1049.6369	3208.4964	1931.35	1044.95
1049.7394	3209.4271	1920.2	1033.8
1049.8419	3210.3571	1916.05	1031.65
1049.9444	3211.2865	1910.35	1023.6
1050.0468	3212.2154	1910.25	1021.5
1050.1491	3213.1436	1899.4	1010.1
1050.2514	3214.0712	1908.75	1015.05
1050.3537	3214.9982	1886.5	997.55
1050.4559	3215.9246	1894.25	1007.8
1050.5581	3216.8503	1879.65	993.8
1050.6602	3217.7755	1884.35	997.55
1050.7623	3218.7001	1866.35	981.45
1050.8643	3219.624	1864.85	975.1
1050.9663	3220.5473	1860.5	971.9
1051.0682	3221.4701	1855.95	967.9
1051.1701	3222.3922	1847	958.55
1051.2719	3223.3137	1849.7	963.9
1051.3737	3224.2346	1845.25	958.2
1051.4754	3225.1549	1837.9	952.25
1051.5771	3226.0746	1834.2	948.2
1051.6788	3226.9937	1824.55	937.85
1051.7804	3227.9121	1823.05	936.8
1051.8819	3228.83	1808.1	920.1
1051.9834	3229.7473	1802.9	916
1052.0849	3230.6639	1805.5	917.65
1052.1863	3231.5799	1795.25	907.5
1052.2876	3232.4954	1797	907.65
1052.3889	3233.4102	1790	902.9
1052.4902	3234.3244	1782.3	895.75
1052.5914	3235.238	1769.15	882.1
1052.6926	3236.151	1783.2	872.7
1052.7937	3237.0634	1769.8	881.65
1052.8948	3237.9752	1760.75	872.3
1052.9958	3238.8864	1756	867.65
1053.0968	3239.797	1756.9	869.25
1053.1977	3240.7069	1745.6	857.8
1053.2986	3241.6163	1744.15	855.5
1053.3994	3242.5251	1737.1	850.9
1053.5002	3243.4332	1732.3	846.85
1053.6009	3244.3408	1717.55	829.85
1053.7016	3245.2477	1715.85	830.45
1053.8022	3246.154	1716	826.6
1053.9028	3247.0598	1714.8	826.1
1054.0034	3247.9649	1704.3	816.7
1054.1039	3248.8694	1701.4	814.3
1054.2043	3249.7733	1697.25	809.65
1054.3047	3250.6766	1692.55	805.3
1054.4051	3251.5793	1690.65	804.6
1054.5054	3252.4814	1683.3	797.9
1054.6056	3253.3829	1674.05	786.2
1054.7058	3254.2838	1670.25	784.65
1054.806	3255.1841	1672.15	784.55
1054.9061	3256.0838	1661.5	775.25
1055.0061	3256.9829	1653.65	766.75
1055.1062	3257.8814	1650.55	761.2
1055.2061	3258.7792	1641.25	751.7
1055.306	3259.6765	1629.55	741.1
1055.4059	3260.5731	1621.7	735.35
1055.5057	3261.4692	1610.65	723
1055.6055	3262.3647	1609.95	720.3
1055.7052	3263.2595	1592.45	705.25
1055.8049	3264.1538	1589.5	700.4
1055.9045	3265.0474	1573.25	687.2
1056.0041	3265.9404	1572.4	685.85
1056.1036	3266.8329	1556.25	671.15
1056.2031	3267.7247	1552.1	654.55
1056.3025	3268.616	1529.2	642.15
1056.4019	3269.5066	1501.45	613.45
1056.5013	3270.3966	1502.6	612.5
1056.6005	3271.286	1482.1	594.9
