Software Version:	3.9.2.0
Unit SN:	10000200
Spectrometer SN:	6960
Date:	3/6/2024 10:46:59 AM
Data Line Index:	25
Spectral Points:	2048
Integration time (ms):	125
Averages:	20
Delay (ms):	30
Sequence Number:	1
Processing:	dark subtract
Laser Power (mW):	300
Laser Current (mA):	822
Laser Diode Temp (C):	25.1
Laser Case Temp (C):	27.4
System Temp (C):	27.2
Spectrometer Temp (C):	24.6
CCD Temp (C):	0.005
Secondary Temp (C):	20.01
Heatsink Temp (C):	22.871
CCDPCB Temp (C):	36.718
SecondaryPCB Temp (C):	34.15

Wavelength	RamanShift	Raw Counts	Dark Subtracted
787.061	30.1047	1143.85	729.35
787.2016	32.3739	1175.45	761.5
787.3422	34.6426	1223	809.05
787.4828	36.9109	1270.5	854.6
787.6235	39.1787	1319.3	901.1
787.7642	41.4461	1385.6	959.65
787.9049	43.7131	1448.3	1021.6
788.0456	45.9796	1513.3	1081.75
788.1863	48.2456	1589.6	1156.25
788.3271	50.5112	1662.55	1226.15
788.4679	52.7764	1737.95	1298.65
788.6087	55.0411	1812.85	1368.4
788.7496	57.3054	1897.45	1448.35
788.8904	59.5692	1997.2	1544.35
789.0313	61.8326	2089.25	1633.2
789.1722	64.0955	2194.05	1733.7
789.3132	66.3579	2332.6	1869.45
789.4541	68.6199	2492.75	2026.6
789.5951	70.8815	2730.75	2262.15
789.7361	73.1426	3268.7	2794.7
789.8771	75.4032	4586.15	4107
790.0181	77.6634	7965.25	7478.1
790.1592	79.9231	16916.05	16425.8
790.3003	82.1824	54875.45	54372.95
790.4414	84.4412	65535	65016.15
790.5825	86.6995	65535	64991.45
790.7237	88.9574	65535	64968.6
790.8648	91.2148	65535	64950.6
791.006	93.4717	65535	64941.15
791.1472	95.7282	65535	64934.2
791.2885	97.9842	65535	64930.5
791.4297	100.2398	65535	64930.45
791.571	102.4949	65535	64922.8
791.7123	104.7495	65535	64922.5
791.8536	107.0036	65535	64919.9
791.9949	109.2573	65535	64921.6
792.1363	111.5105	65535	64920.5
792.2777	113.7632	65535	64918.15
792.4191	116.0154	65535	64906.5
792.5605	118.2672	65535	64911.45
792.7019	120.5185	65535	64913.65
792.8434	122.7693	65535	64908.2
792.9849	125.0197	65535	64909.55
793.1264	127.2696	65535	64898.3
793.2679	129.519	65535	64895.45
793.4094	131.7679	65535	64892.9
793.551	134.0163	65535	64893.2
793.6926	136.2642	65535	64890.35
793.8342	138.5117	65535	64879.95
793.9758	140.7587	65535	64884.95
794.1175	143.0052	65535	64882.7
794.2591	145.2512	65535	64881.75
794.4008	147.4967	65535	64881.65
794.5425	149.7417	65535	64878.9
794.6842	151.9863	65535	64874.5
794.826	154.2304	65535	64870.9
794.9677	156.4739	65535	64861.3
795.1095	158.717	65535	64863.65
795.2513	160.9596	65535	64861.9
795.3931	163.2017	65535	64861.8
795.535	165.4433	65535	64859.95
795.6768	167.6844	65535	64855.9
795.8187	169.925	65535	64852
795.9606	172.1651	65535	64850.1
796.1025	174.4047	65535	64848
796.2445	176.6439	65535	64844.4
796.3864	178.8825	65535	64844.8
796.5284	181.1206	65535	64837.9
796.6704	183.3582	65535	64838.6
796.8124	185.5954	65535	64834.05
796.9544	187.832	65535	64829.75
797.0965	190.0681	65535	64826.05
797.2386	192.3037	65535	64824.65
797.3806	194.5388	65535	64821.4
797.5228	196.7734	65535	64819.1
797.6649	199.0075	65535	64815.1
797.807	201.2411	65535	64813.45
797.9492	203.4742	65535	64814.7
798.0914	205.7068	65535	64812.65
798.2336	207.9389	65535	64812.2
798.3758	210.1704	65535	64806.85
798.518	212.4015	65535	64810.3
798.6603	214.632	65535	64816.55
798.8025	216.862	65535	64825.7
798.9448	219.0915	65535	64832.85
799.0871	221.3205	65535	64826.95
799.2294	223.549	65535	64829.25
799.3718	225.777	65535	64831.2
799.5141	228.0044	65535	64829.85
799.6565	230.2314	65535	64827.6
799.7989	232.4578	65535	64822.55
799.9413	234.6837	65535	64811.7
800.0837	236.909	65535	64815.1
800.2262	239.1339	65535	64787.25
800.3687	241.3582	65535	64804.5
800.5111	243.582	65535	64773.1
800.6536	245.8053	65535	64784.95
800.7961	248.0281	65535	64792.65
800.9387	250.2503	65535	64784.85
801.0812	252.472	65535	64781.25
801.2238	254.6932	65535	64780.85
801.3664	256.9139	65535	64782.15
801.509	259.134	65535	64772.7
801.6516	261.3536	65535	64778.3
801.7942	263.5727	65535	64774.15
801.9369	265.7912	65535	64779.15
802.0795	268.0092	65535	64777.9
802.2222	270.2267	65535	64774.7
802.3649	272.4436	65535	64774.85
802.5076	274.6601	65535	64763.75
802.6504	276.8759	65535	64766.1
802.7931	279.0913	65535	64766.35
802.9359	281.3061	65535	64767.25
803.0787	283.5204	65535	64764.25
803.2215	285.7341	65535	64759.75
803.3643	287.9473	65535	64748.3
803.5071	290.16	65535	64756.75
803.6499	292.3721	65535	64764.35
803.7928	294.5837	65535	64760.6
803.9357	296.7947	65535	64759.4
804.0786	299.0052	65535	64757.05
804.2215	301.2152	65535	64754.8
804.3644	303.4246	65535	64761.15
804.5074	305.6334	65535	64759.65
804.6503	307.8418	65535	64758.8
804.7933	310.0495	65535	64755
804.9363	312.2568	65535	64755.65
805.0793	314.4635	65535	64755.65
805.2223	316.6696	65535	64750.95
805.3653	318.8752	65535	64743.05
805.5084	321.0802	65535	64748.1
805.6514	323.2847	65535	64746.35
805.7945	325.4887	65535	64750.35
805.9376	327.692	65535	64747.95
806.0807	329.8949	65535	64747.85
806.2238	332.0972	65535	64741.5
806.367	334.2989	65535	64738.7
806.5101	336.5001	65535	64739.85
806.6533	338.7007	65535	64741.35
806.7965	340.9008	65535	64739.95
806.9397	343.1003	65535	64735.65
807.0829	345.2992	65535	64734.05
807.2261	347.4976	65535	64735.75
807.3693	349.6955	65535	64730.45
807.5126	351.8927	65535	64730
807.6559	354.0895	65535	64717.8
807.7991	356.2856	65535	64727.55
807.9424	358.4812	65535	64728.45
808.0857	360.6763	65535	64725.8
808.2291	362.8707	65535	64723.45
808.3724	365.0646	65535	64721.8
808.5158	367.258	65535	64722.2
808.6591	369.4508	65535	64715
808.8025	371.643	65535	64717.4
808.9459	373.8346	65535	64714.95
809.0893	376.0257	65535	64711.75
809.2327	378.2162	65535	64714.5
809.3762	380.4062	65535	64709.45
809.5196	382.5956	65535	64708.3
809.6631	384.7844	65535	64714.35
809.8066	386.9726	65535	64711.2
809.9501	389.1603	65535	64716.4
810.0936	391.3474	65535	64675.15
810.2371	393.5339	65535	64713.05
810.3806	395.7199	65535	64718.55
810.5241	397.9052	65535	64721.45
810.6677	400.09	65535	64719.85
810.8113	402.2743	65535	64718.5
810.9548	404.4579	65535	64717.55
811.0984	406.641	65535	64717.45
811.2421	408.8235	65535	64713.25
811.3857	411.0054	65535	64714.1
811.5293	413.1868	65535	64709.95
811.673	415.3675	65535	64711
811.8166	417.5477	65535	64710.35
811.9603	419.7273	65535	64706.25
812.104	421.9064	65535	64699.65
812.2477	424.0848	65535	64705.15
812.3914	426.2627	65535	64699.8
812.5351	428.4399	65535	64699.3
812.6788	430.6166	65535	64696.8
812.8226	432.7928	65535	64697.75
812.9663	434.9683	65535	64697.1
813.1101	437.1432	65535	64691.6
813.2539	439.3176	65535	64695.9
813.3977	441.4914	65535	64697.15
813.5415	443.6645	65535	64691.8
813.6853	445.8371	65535	64694.3
813.8291	448.0091	65535	64695.75
813.973	450.1806	65535	64694.2
814.1168	452.3514	65535	64690.1
814.2607	454.5216	65535	64682.75
814.4046	456.6913	65535	64691.15
814.5485	458.8603	65535	64692.15
814.6924	461.0288	65535	64693.5
814.8363	463.1967	65535	64692.25
814.9802	465.3639	65535	64686.95
815.1241	467.5306	65535	64688.85
815.2681	469.6967	65535	64691.25
815.412	471.8622	65535	64692.05
815.556	474.0271	65535	64689.1
815.7	476.1914	65535	64687
815.844	478.3551	65535	64688
815.988	480.5182	65535	64687.6
816.132	482.6807	65535	64690.35
816.276	484.8426	65535	64690.75
816.4201	487.0039	65535	64690.3
816.5641	489.1647	65535	64686.15
816.7082	491.3248	65535	64684.35
816.8522	493.4843	65535	64686.7
816.9963	495.6432	65535	64687.55
817.1404	497.8015	65535	64680.5
817.2845	499.9592	65535	64684.9
817.4286	502.1163	65535	64683.1
817.5727	504.2728	65535	64683.9
817.7168	506.4287	65535	64682.95
817.861	508.5839	65535	64681.1
818.0051	510.7386	65535	64684.1
818.1493	512.8927	65535	64677.5
818.2935	515.0461	65535	64680.7
818.4377	517.199	65535	64683.85
818.5818	519.3512	65535	64678.35
818.726	521.5029	65535	64674.5
818.8703	523.6539	65535	64676
819.0145	525.8043	65535	64675
819.1587	527.9541	65535	64674.2
819.303	530.1033	65535	64675.85
819.4472	532.2519	65535	64675.9
819.5915	534.3999	65535	64676.75
819.7357	536.5472	65535	64677.6
819.88	538.694	65535	64676.1
820.0243	540.8401	65535	64672.15
820.1686	542.9856	65535	64670.25
820.3129	545.1305	65535	64667.65
820.4572	547.2748	65535	64667.3
820.6016	549.4185	65535	64667.95
820.7459	551.5615	65535	64669.55
820.8902	553.704	65535	64669.35
821.0346	555.8458	65535	64671.25
821.1789	557.987	65535	64669.15
821.3233	560.1276	65535	64667.25
821.4677	562.2675	65535	64671.15
821.6121	564.4069	65535	64668.35
821.7565	566.5456	65535	64667.65
821.9009	568.6837	65535	64668.65
822.0453	570.8212	65535	64669.55
822.1897	572.958	65535	64666.85
822.3342	575.0942	65535	64668.1
822.4786	577.2299	65535	64669.1
822.6231	579.3648	65535	64673.4
822.7675	581.4992	65535	64672.95
822.912	583.6329	65535	64672.45
823.0565	585.766	65535	64673.2
823.201	587.8985	65535	64670.9
823.3454	590.0304	65535	64648.65
823.4899	592.1616	65535	64665.95
823.6345	594.2922	65535	64668.05
823.779	596.4222	65535	64664.9
823.9235	598.5515	65535	64662.15
824.068	600.6802	65535	64662
824.2126	602.8083	65535	64662.7
824.3571	604.9358	65535	64660.95
824.5017	607.0626	65535	64664
824.6462	609.1888	65535	64658.75
824.7908	611.3144	65535	64661.95
824.9354	613.4393	65535	64664.75
825.08	615.5636	65535	64661.55
825.2246	617.6873	65535	64663.1
825.3692	619.8103	65535	64658.2
825.5138	621.9327	65535	64657
825.6584	624.0544	65535	64661
825.803	626.1756	65535	64661.45
825.9477	628.2961	65535	64661.25
826.0923	630.4159	65535	64661.8
826.237	632.5351	65535	64658.05
826.3816	634.6537	65535	64656.35
826.5263	636.7716	65535	64658.7
826.6709	638.8889	65535	64654.7
826.8156	641.0056	65535	64658.15
826.9603	643.1216	65535	64653.85
827.105	645.237	65535	64652.85
827.2497	647.3518	65535	64655.05
827.3944	649.4659	65535	64659.05
827.5391	651.5793	65535	64658
827.6838	653.6922	65535	64656.7
827.8285	655.8043	65535	64656.35
827.9733	657.9159	65535	64655.05
828.118	660.0268	65535	64650.55
828.2627	662.137	65535	64655.05
828.4075	664.2466	65535	64652.2
828.5522	666.3556	65535	64652.85
828.697	668.4639	65535	64651.15
828.8418	670.5716	65535	64655.6
828.9865	672.6786	65535	64653.55
829.1313	674.785	65535	64651.95
829.2761	676.8907	65535	64654
829.4209	678.9958	65535	64657.6
829.5657	681.1002	65535	64651.75
829.7105	683.204	65535	64647.3
829.8553	685.3072	65535	64650.05
830.0001	687.4097	65535	64653.05
830.1449	689.5115	65535	64650.75
830.2898	691.6127	65535	64649.5
830.4346	693.7132	65535	64652.1
830.5794	695.8131	65535	64646.15
830.7243	697.9123	65535	64647.75
830.8691	700.0109	65535	64646.4
831.014	702.1089	65535	64649.95
831.1588	704.2061	65535	64648.35
831.3037	706.3028	65535	64650.25
831.4486	708.3987	65535	64649.85
831.5935	710.4941	65535	64647.25
831.7383	712.5887	65535	64648.25
831.8832	714.6827	65535	64642.95
832.0281	716.7761	65535	64647.45
832.173	718.8688	65535	64646
832.3179	720.9608	65535	64644.2
832.4628	723.0522	65535	64642.45
832.6077	725.1429	65535	64646.7
832.7527	727.233	65535	64645.8
832.8976	729.3224	65535	64646.35
833.0425	731.4112	65535	64645.45
833.1874	733.4993	65535	64645.95
833.3324	735.5867	65535	64645.35
833.4773	737.6735	65535	64645.5
833.6222	739.7596	65535	64641.8
833.7672	741.845	65535	64642.4
833.9122	743.9298	65535	64643.85
834.0571	746.014	65535	64647.35
834.2021	748.0974	65535	64643.75
834.347	750.1802	65535	64640.5
834.492	752.2624	65535	64644.05
834.637	754.3439	65535	64643.35
834.782	756.4247	65535	64635.65
834.9269	758.5048	65535	64641.75
835.0719	760.5843	65535	64643.4
835.2169	762.6631	65535	64641.8
835.3619	764.7413	65535	64644.4
835.5069	766.8188	65535	64639.85
835.6519	768.8956	65535	64642.45
835.7969	770.9718	65535	64641.45
835.9419	773.0473	65535	64642.85
836.0869	775.1221	65535	64643.35
836.232	777.1962	65535	64642.2
836.377	779.2697	65535	64639.8
836.522	781.3426	65535	64620.05
836.667	783.4147	65535	64639
836.8121	785.4862	65535	64643.95
836.9571	787.557	65535	64640.15
837.1021	789.6271	65535	64642.65
837.2472	791.6966	65535	64640.1
837.3922	793.7654	65535	64641
837.5373	795.8335	65535	64642.3
837.6823	797.901	65535	64641.8
837.8274	799.9678	65535	64636.3
837.9724	802.0339	65535	64642.6
838.1175	804.0993	65535	64630.7
838.2626	806.1641	65535	64639.5
838.4076	808.2282	65535	64640.45
838.5527	810.2916	65535	64638.05
838.6978	812.3544	65535	64637.75
838.8428	814.4164	65535	64639.65
838.9879	816.4778	65535	64639.75
839.133	818.5385	65535	64643.65
839.2781	820.5986	65535	64639.9
839.4232	822.658	65535	64636.05
839.5682	824.7166	65535	64637.4
839.7133	826.7747	65535	64640.6
839.8584	828.832	65535	64640.3
840.0035	830.8886	65535	64638.8
840.1486	832.9446	65535	64635.2
840.2937	834.9999	65535	64641.8
840.4388	837.0545	65535	64636.45
840.5839	839.1085	65535	64639.45
840.729	841.1618	65535	64634.3
840.8741	843.2143	65535	64637.6
841.0192	845.2662	65535	64638.9
841.1643	847.3175	65535	64639.95
841.3095	849.368	65535	64637.15
841.4546	851.4179	65535	64638.05
841.5997	853.467	65535	64637.9
841.7448	855.5155	65535	64636.25
841.8899	857.5633	65535	64638
842.0351	859.6105	65535	64637.45
842.1802	861.6569	65535	64638.35
842.3253	863.7027	65535	64636.3
842.4704	865.7478	65535	64636.45
842.6156	867.7922	65535	64640.45
842.7607	869.8359	65535	64635.5
842.9058	871.8789	65535	64633.25
843.0509	873.9212	65535	64603.55
843.1961	875.9629	65535	64637.35
843.3412	878.0039	65535	64635.5
843.4863	880.0441	65535	64638.7
843.6315	882.0837	65535	64637.95
843.7766	884.1226	65535	64633.5
843.9218	886.1609	65535	64637.35
844.0669	888.1984	65535	64638.1
844.212	890.2352	65535	64638.25
844.3572	892.2714	65535	64630.4
844.5023	894.3069	65535	64635.5
844.6475	896.3416	65535	64637.6
844.7926	898.3757	65535	64635.6
844.9377	900.4091	65535	64635.3
845.0829	902.4418	65535	64630.65
845.228	904.4739	65535	64632.75
845.3732	906.5052	65535	64633.95
845.5183	908.5358	65535	64634.75
845.6635	910.5658	65535	64630.8
845.8086	912.595	65535	64637.8
845.9538	914.6236	65535	64638
846.0989	916.6515	65535	64633.65
846.2441	918.6786	65535	64633.45
846.3892	920.7051	65535	64631.25
846.5344	922.7309	65535	64634.5
846.6795	924.756	65535	64635.8
846.8246	926.7804	65535	64630.6
846.9698	928.8041	65535	64629.05
847.1149	930.8272	65535	64635.25
847.2601	932.8495	65535	64633
847.4052	934.8711	65535	64633.55
847.5504	936.892	65535	64633.25
847.6955	938.9123	65535	64632.5
847.8407	940.9318	65535	64633.5
847.9858	942.9506	65535	64633.2
848.131	944.9688	65535	64633.8
848.2761	946.9862	65535	64636
848.4213	949.003	65535	64633.05
848.5664	951.019	65535	64633.85
848.7115	953.0344	65535	64633.25
848.8567	955.0491	65535	64632.7
849.0018	957.063	65535	64633.5
849.147	959.0763	65535	64633.75
849.2921	961.0888	65535	64631.25
849.4373	963.1007	65535	64632.85
849.5824	965.1119	65535	64635.95
849.7275	967.1223	65535	64635.1
849.8727	969.1321	65535	64634.35
850.0178	971.1412	65535	64634.2
850.1629	973.1495	65535	64635.95
850.3081	975.1572	65535	64600.95
850.4532	977.1641	65535	64634.95
850.5983	979.1704	65535	64632.65
850.7435	981.1759	65535	64629.5
850.8886	983.1808	65535	64632.4
851.0337	985.1849	65535	64622.15
851.1788	987.1884	65535	64631.25
851.324	989.1911	65535	64629.75
851.4691	991.1932	65535	64631.05
851.6142	993.1945	65535	64631.95
851.7593	995.1951	65535	64632.55
851.9045	997.1951	65535	64627.5
852.0496	999.1943	65535	64634.55
852.1947	1001.1928	65535	64630.85
852.3398	1003.1906	65535	64632.45
852.4849	1005.1877	65535	64631.4
852.63	1007.1841	65535	64632.25
852.7751	1009.1798	65535	64633.4
852.9202	1011.1748	65535	64635.9
853.0653	1013.1691	65535	64630.1
853.2104	1015.1627	65535	64633.5
853.3555	1017.1556	65535	64633.25
853.5006	1019.1477	65535	64630.65
853.6457	1021.1392	65535	64634.4
853.7908	1023.1299	65535	64634.85
853.9359	1025.12	65535	64634.15
854.081	1027.1093	65535	64638.85
854.2261	1029.0979	65535	64638
854.3712	1031.0859	65535	64635.15
854.5163	1033.0731	65535	64634.25
854.6613	1035.0596	65535	64636.2
854.8064	1037.0454	65535	64633.05
854.9515	1039.0304	65535	64631.95
855.0965	1041.0148	65535	64633.15
855.2416	1042.9985	65535	64630.55
855.3867	1044.9814	65535	64634
855.5317	1046.9636	65535	64629.55
855.6768	1048.9452	65535	64632.6
855.8219	1050.926	65535	64636.1
855.9669	1052.9061	65535	64636.55
856.112	1054.8855	65535	64633.9
856.257	1056.8642	65535	64631.8
856.4021	1058.8421	65535	64628.55
856.5471	1060.8194	65535	64631.7
856.6921	1062.7959	65535	64631.9
856.8372	1064.7717	65535	64633.05
856.9822	1066.7469	65535	64631.95
857.1272	1068.7213	65535	64630
857.2723	1070.695	65535	64635.35
857.4173	1072.6679	65535	64628.9
857.5623	1074.6402	65535	64631.95
857.7073	1076.6117	65535	64626
857.8523	1078.5826	65535	64631.9
857.9973	1080.5527	65535	64633.3
858.1423	1082.5221	65535	64631.8
858.2873	1084.4908	65535	64631.15
858.4323	1086.4587	65535	64632.75
858.5773	1088.426	65535	64631.45
858.7223	1090.3925	65535	64628.3
858.8673	1092.3584	65535	64632.95
859.0123	1094.3235	65535	64635.35
859.1573	1096.2879	65535	64631.8
859.3022	1098.2515	65535	64631.8
859.4472	1100.2145	65535	64632.65
859.5922	1102.1767	65535	64632.2
859.7371	1104.1382	65535	64633.65
859.8821	1106.099	65535	64632.25
860.027	1108.0591	65535	64631.1
860.172	1110.0185	65535	64629.55
860.3169	1111.9771	65535	64634
860.4619	1113.9351	65535	64633.6
860.6068	1115.8923	65535	64635.1
860.7517	1117.8488	65535	64629.8
860.8967	1119.8045	65535	64632.2
861.0416	1121.7596	65535	64632.8
861.1865	1123.7139	65535	64633.65
861.3314	1125.6675	65535	64633.25
861.4763	1127.6204	65535	64633.85
861.6212	1129.5726	65535	64631.15
861.7661	1131.524	65535	64632.2
861.911	1133.4748	65535	64633.65
862.0559	1135.4248	65535	64629.6
862.2008	1137.3741	65535	64632.45
862.3457	1139.3226	65535	64632.15
862.4905	1141.2705	65535	64631.8
862.6354	1143.2176	65535	64624.5
862.7803	1145.164	65535	64630.35
862.9251	1147.1097	65535	64631.85
863.07	1149.0546	65535	64631.3
863.2148	1150.9989	65535	64634.7
863.3597	1152.9424	65535	64629.8
863.5045	1154.8852	65535	64633.7
863.6493	1156.8272	65535	64632.45
863.7942	1158.7686	65535	64623.45
863.939	1160.7092	65535	64631.5
864.0838	1162.6491	65535	64631.9
864.2286	1164.5883	65535	64632.2
864.3734	1166.5267	65535	64630.9
864.5182	1168.4644	65535	64632.55
864.663	1170.4014	65535	64629.2
864.8078	1172.3377	65535	64632.5
864.9526	1174.2732	65535	64632.25
865.0974	1176.2081	65535	64632.35
865.2421	1178.1421	65535	64627.6
865.3869	1180.0755	65535	64635
865.5317	1182.0082	65535	64632.5
865.6764	1183.9401	65535	64631.2
865.8212	1185.8713	65535	64633.85
865.9659	1187.8017	65535	64631.25
866.1106	1189.7315	65535	64637.85
866.2554	1191.6605	65535	64605.35
866.4001	1193.5888	65535	64633.65
866.5448	1195.5163	65535	64634.6
866.6895	1197.4432	65535	64631.4
866.8342	1199.3693	65535	64634.5
866.9789	1201.2947	65535	64629.75
867.1236	1203.2193	65535	64632.65
867.2683	1205.1432	65535	64631.55
867.413	1207.0664	65535	64633.45
867.5576	1208.9889	65535	64631.35
867.7023	1210.9106	65535	64633.65
867.847	1212.8316	65535	64635
867.9916	1214.7519	65535	64623.95
868.1363	1216.6715	65535	64632.25
868.2809	1218.5903	65535	64634
868.4255	1220.5084	65535	64632.8
868.5701	1222.4257	65535	64633.75
868.7148	1224.3424	65535	64634.6
868.8594	1226.2583	65535	64629.25
869.004	1228.1735	65535	64633.9
869.1486	1230.0879	65535	64632.6
869.2932	1232.0016	65535	64633.95
869.4377	1233.9146	65535	64631.5
869.5823	1235.8269	65535	64637.05
869.7269	1237.7384	65535	64634.85
869.8715	1239.6492	65535	64632.8
870.016	1241.5592	65535	64632.6
870.1606	1243.4686	65535	64633.7
870.3051	1245.3772	65535	64633.3
870.4496	1247.285	65535	64630.6
870.5941	1249.1922	65535	64631.05
870.7387	1251.0986	65535	64632.6
870.8832	1253.0042	65535	64633.85
871.0277	1254.9092	65535	64631.95
871.1722	1256.8134	65535	64636.95
871.3167	1258.7169	65535	64631.6
871.4611	1260.6196	65535	64633.9
871.6056	1262.5216	65535	64632.15
871.7501	1264.4229	65535	64630.95
871.8945	1266.3234	65535	64635
872.039	1268.2232	65535	64632.9
872.1834	1270.1223	65535	64632.9
872.3278	1272.0207	65535	64632.15
872.4723	1273.9183	65535	64629.4
872.6167	1275.8151	65535	64632.05
872.7611	1277.7113	65535	64634.25
872.9055	1279.6067	65535	64633.9
873.0499	1281.5014	65535	64632.1
873.1943	1283.3953	65535	64630.25
873.3386	1285.2885	65535	64633.45
873.483	1287.181	65535	64631.6
873.6274	1289.0727	65535	64634.05
873.7717	1290.9637	65535	64632.85
873.9161	1292.854	65535	64633.55
874.0604	1294.7435	65535	64632.75
874.2047	1296.6323	65535	64632.2
874.349	1298.5204	65535	64629.55
874.4933	1300.4077	65535	64631.55
874.6376	1302.2943	65535	64633.6
874.7819	1304.1802	65535	64634
874.9262	1306.0653	65535	64632.15
875.0705	1307.9497	65535	64631.25
875.2147	1309.8333	65535	64633.9
875.359	1311.7162	65535	64633.4
875.5032	1313.5984	65535	64630.25
875.6475	1315.4798	65535	64620.3
875.7917	1317.3605	65535	64617
875.9359	1319.2405	65535	64633.85
876.0801	1321.1197	65535	64633.55
876.2243	1322.9982	65535	64627.8
876.3685	1324.876	65535	64632.35
876.5127	1326.753	65535	64633.4
876.6569	1328.6293	65535	64632.1
876.801	1330.5048	65535	64631.9
876.9452	1332.3796	65535	64634.35
877.0893	1334.2537	65535	64609.4
877.2335	1336.127	65535	64632
877.3776	1337.9996	65535	64631.05
877.5217	1339.8714	65535	64633.2
877.6658	1341.7426	65535	64590.2
877.8099	1343.6129	65535	64633.15
877.954	1345.4826	65535	64634.25
878.0981	1347.3515	65535	64630.4
878.2422	1349.2196	65535	64632.2
878.3862	1351.087	65535	64631.95
878.5303	1352.9537	65535	64632.45
878.6743	1354.8197	65535	64634.7
878.8184	1356.6849	65535	64633.15
878.9624	1358.5493	65535	64633.7
879.1064	1360.4131	65535	64632.9
879.2504	1362.276	65535	64633.85
879.3944	1364.1383	65535	64634.2
879.5384	1365.9998	65535	64626
879.6823	1367.8606	65535	64632.5
879.8263	1369.7206	65535	64632
879.9702	1371.5799	65535	64630.1
880.1142	1373.4384	65535	64634.55
880.2581	1375.2962	65535	64632.5
880.402	1377.1533	65535	64633.75
880.5459	1379.0096	65535	64632.6
880.6898	1380.8652	65535	64634.45
880.8337	1382.7201	65535	64633.9
880.9776	1384.5742	65535	64633.4
881.1215	1386.4275	65535	64632.3
881.2653	1388.2802	65535	64634.05
881.4092	1390.132	65535	64633.05
881.553	1391.9832	65535	64630.75
881.6968	1393.8336	65535	64631.4
881.8406	1395.6832	65535	64635.15
881.9844	1397.5322	65535	64632.85
882.1282	1399.3803	65535	64628.7
882.272	1401.2278	65535	64630.3
882.4158	1403.0745	65535	64632.45
882.5595	1404.9204	65535	64634.6
882.7033	1406.7656	65535	64634.6
882.847	1408.6101	65535	64632.55
882.9908	1410.4538	65535	64631.85
883.1345	1412.2968	65535	64632.7
883.2782	1414.139	65535	64634.45
883.4219	1415.9805	65535	64632.95
883.5656	1417.8213	65535	64625.8
883.7092	1419.6613	65535	64633
883.8529	1421.5006	65535	64632.7
883.9965	1423.3391	65535	64632.05
884.1402	1425.1769	65535	64632.7
884.2838	1427.0139	65535	64631.45
884.4274	1428.8502	65535	64633.05
884.571	1430.6858	65535	64635.05
884.7146	1432.5206	65535	64632.6
884.8582	1434.3547	65535	64631.8
885.0018	1436.188	65535	64632.3
885.1453	1438.0206	65535	64633.45
885.2889	1439.8524	65535	64632.55
885.4324	1441.6835	65535	64632.85
885.5759	1443.5139	65535	64628.1
885.7194	1445.3435	65535	64630.6
885.8629	1447.1724	65535	64634.3
886.0064	1449.0005	65535	64634.45
886.1499	1450.8279	65535	64632.85
886.2933	1452.6545	65535	64634.9
886.4368	1454.4804	65535	64634.8
886.5802	1456.3056	65535	64625.65
886.7237	1458.13	65535	64634.25
886.8671	1459.9536	65535	64634.3
887.0105	1461.7766	65535	64633.5
887.1539	1463.5987	65535	64633.55
887.2972	1465.4202	65535	64634.65
887.4406	1467.2409	65535	64634.25
887.584	1469.0608	65535	64635.35
887.7273	1470.88	65535	64633.9
887.8706	1472.6984	65535	64635.05
888.0139	1474.5161	65535	64631.95
888.1572	1476.3331	65535	64635.15
888.3005	1478.1493	65535	64634.55
888.4438	1479.9648	65535	64633.4
888.5871	1481.7795	65535	64634.45
888.7303	1483.5935	65535	64634.35
888.8736	1485.4067	65535	64634.6
889.0168	1487.2192	65535	64633.9
889.16	1489.031	65535	64632.35
889.3032	1490.842	65535	64636.2
889.4464	1492.6522	65535	64634.6
889.5896	1494.4618	65535	64632
889.7327	1496.2705	65535	64633.9
889.8759	1498.0785	65535	64632.9
890.019	1499.8858	65535	64629.95
890.1622	1501.6924	65535	64634.5
890.3053	1503.4981	65535	64633.45
890.4484	1505.3032	65535	64634.05
890.5914	1507.1075	65535	64633.25
890.7345	1508.911	65535	64631.45
890.8776	1510.7138	65535	64632.4
891.0206	1512.5159	65535	64633.85
891.1637	1514.3172	65535	64633.65
891.3067	1516.1178	65535	64634.85
891.4497	1517.9176	65535	64630.1
891.5927	1519.7166	65535	64633.75
891.7357	1521.515	65535	64629.65
891.8786	1523.3126	65535	64635.85
892.0216	1525.1094	65535	64635.45
892.1645	1526.9055	65535	64634.8
892.3074	1528.7008	65535	64634.5
892.4503	1530.4954	65535	64628.65
892.5932	1532.2893	65535	64637.7
892.7361	1534.0824	65535	64631.25
892.879	1535.8747	65535	64634.85
893.0218	1537.6663	65535	64632.8
893.1647	1539.4572	65535	64635.25
893.3075	1541.2473	65535	64634.7
893.4503	1543.0367	65535	64636.35
893.5931	1544.8253	65535	64628.4
893.7359	1546.6132	65535	64633.2
893.8787	1548.4003	65535	64625.7
894.0214	1550.1867	65535	64624.65
894.1642	1551.9723	65535	64631.5
894.3069	1553.7572	65535	64633.6
894.4496	1555.5414	65535	64634.95
894.5923	1557.3247	65508.05	64610.15
894.735	1559.1074	65535	64638.15
894.8777	1560.8893	65529.65	64632.55
895.0204	1562.6705	65533.55	64633.8
895.163	1564.4509	65514.35	64616.65
895.3056	1566.2305	65522.85	64624.1
895.4482	1568.0094	65534.5	64638.15
895.5908	1569.7876	65524.15	64624.8
895.7334	1571.565	65507.35	64608.2
895.876	1573.3417	65520.55	64623.85
896.0186	1575.1176	65519.15	64621.3
896.1611	1576.8928	65504.7	64604.7
896.3036	1578.6672	65444.05	64548
896.4461	1580.4409	65487.85	64592.45
896.5886	1582.2138	65395.05	64494.6
896.7311	1583.986	65421.4	64524.95
896.8736	1585.7575	65308.6	64410.8
897.0161	1587.5282	65359.8	64464.6
897.1585	1589.2981	65350.85	64455.55
897.3009	1591.0673	65182.05	64284.6
897.4433	1592.8358	64970.35	64074.5
897.5857	1594.6035	65162.4	64262.5
897.7281	1596.3704	65198.15	64298.5
897.8705	1598.1366	64808.55	63910.6
898.0128	1599.9021	64548	63652.05
898.1551	1601.6668	64974.9	64075.65
898.2975	1603.4308	64757.35	63859.1
898.4398	1605.194	64783.75	63881
898.5821	1606.9564	64119.45	63220.45
898.7243	1608.7182	64490.25	63591.35
898.8666	1610.4791	64116.7	63221.2
899.0088	1612.2394	64522.8	63629.6
899.1511	1613.9988	63991.25	63094.55
899.2933	1615.7576	64535.25	63638.35
899.4355	1617.5156	64538.9	63634
899.5776	1619.2728	64974.7	64078
899.7198	1621.0293	64193.75	63297.1
899.862	1622.785	64187.3	63288.4
900.0041	1624.54	64458.65	63560.2
900.1462	1626.2942	63984.7	63086.7
900.2883	1628.0477	63172.5	62273.4
900.4304	1629.8005	62468.2	61567.55
900.5725	1631.5525	63164.9	62267.9
900.7145	1633.3037	62014	61116.85
900.8566	1635.0542	61909	61014.45
900.9986	1636.804	62317.05	61422.25
901.1406	1638.553	61235.1	60257.9
901.2826	1640.3013	61626.1	60729.65
901.4245	1642.0488	60934.65	60037.4
901.5665	1643.7955	61433.55	60539.3
901.7085	1645.5416	60913.25	60017.8
901.8504	1647.2868	60500.15	59603.65
901.9923	1649.0313	61237.55	60340.9
902.1342	1650.7751	60808.45	59909.9
902.2761	1652.5181	60446.45	59549.65
902.4179	1654.2604	60523.7	59628.25
902.5598	1656.0019	60969.75	60075.5
902.7016	1657.7427	60698.3	59803.55
902.8434	1659.4828	61271.6	60375.7
902.9852	1661.222	60870.1	59973.3
903.127	1662.9606	61366.3	60471.6
903.2687	1664.6984	60569.5	59672.5
903.4105	1666.4354	60710.05	59812.15
903.5522	1668.1717	59684.05	58789.6
903.6939	1669.9072	58922.05	58025.25
903.8356	1671.642	58644.45	57743.95
903.9773	1673.3761	58370.9	57474.3
904.119	1675.1094	58095.1	57198.55
904.2606	1676.8419	57505	56610.65
904.4022	1678.5737	57374.55	56478.95
904.5439	1680.3048	57140.45	56243.9
904.6855	1682.0351	56846.15	55950.15
904.827	1683.7646	56475.4	55575
904.9686	1685.4934	56592.5	55699.05
905.1101	1687.2215	55619.75	54722.95
905.2517	1688.9488	56208.65	55313
905.3932	1690.6754	54924.85	54031.6
905.5347	1692.4012	55351.85	54457.1
905.6761	1694.1263	55217.2	54322.7
905.8176	1695.8506	54876.9	53979.8
905.9591	1697.5742	54742.1	53848
906.1005	1699.297	54563.6	53667.2
906.2419	1701.0191	54447.35	53553.45
906.3833	1702.7404	53932.95	53040.2
906.5246	1704.461	53648.7	52754.5
906.666	1706.1808	53604.8	52710.3
906.8073	1707.8999	53471.4	52576.35
906.9487	1709.6182	53251.35	52355.5
907.09	1711.3358	53091.5	52198.6
907.2313	1713.0527	52910.15	52017.7
907.3725	1714.7688	52783.45	51884.1
907.5138	1716.4841	52297.8	51399.4
907.655	1718.1987	52422.8	51523.25
907.7962	1719.9126	52130	51238.35
907.9374	1721.6257	52002.7	51107.25
908.0786	1723.338	52007.9	51114.5
908.2198	1725.0496	51426.1	50532.65
908.3609	1726.7605	51376.6	50481.35
908.502	1728.4706	51213.8	50319.35
908.6431	1730.18	51020.65	50123.65
908.7842	1731.8886	50879.25	49985.05
908.9253	1733.5964	50702.7	49790.55
909.0664	1735.3036	50709.5	49813
909.2074	1737.0099	50470.7	49578.85
909.3484	1738.7156	50208.8	49315.75
909.4894	1740.4204	49989.3	49093.2
909.6304	1742.1246	49942.95	49047.2
909.7714	1743.8279	49827.15	48931.5
909.9123	1745.5306	49740.95	48845.65
910.0532	1747.2325	49316.1	48423.05
910.1941	1748.9336	49181	48287.15
910.335	1750.634	49014.9	48119.3
910.4759	1752.3336	49032.3	48138.6
910.6168	1754.0325	48725.35	47832.7
910.7576	1755.7307	48761.25	47868.55
910.8984	1757.4281	48534.7	47640.3
911.0392	1759.1247	48579.25	47678.05
911.18	1760.8206	48237.4	47339.5
911.3208	1762.5158	48219.5	47321.75
911.4615	1764.2102	48006.8	47113.65
911.6022	1765.9039	47864.2	46969.75
911.7429	1767.5968	47733.9	46838.65
911.8836	1769.289	47597.35	46705.15
912.0243	1770.9804	47495.4	46601.3
912.1649	1772.6711	47365.15	46470.85
912.3056	1774.361	47212.85	46319.25
912.4462	1776.0502	47082	46189.55
912.5868	1777.7386	46904.5	46006.7
912.7274	1779.4263	46712.85	45818.7
912.8679	1781.1132	46672.7	45779.7
913.0084	1782.7994	46528.9	45635.9
913.149	1784.4849	46381.65	45489.3
913.2895	1786.1696	46222.1	45322.45
913.4299	1787.8535	46101.7	45210.15
913.5704	1789.5367	45968.55	45076.2
913.7108	1791.2192	45884.7	44991.05
913.8513	1792.9009	45670.05	44744.85
913.9917	1794.5818	45573.4	44677
914.132	1796.2621	45435.4	44543.3
914.2724	1797.9415	45329.35	44436.4
914.4128	1799.6202	45177.95	44284.55
914.5531	1801.2982	45096.75	44203.2
914.6934	1802.9755	44928.45	44034.7
914.8337	1804.6519	44829.25	43934.5
914.9739	1806.3277	44593.95	43700.9
915.1142	1808.0027	44386.25	43495.35
915.2544	1809.6769	44305.35	43412.45
915.3946	1811.3504	44217.55	43324.25
915.5348	1813.0231	44061.65	43164.6
915.675	1814.6951	44012.05	43121.35
915.8151	1816.3664	43994.95	43096.35
915.9553	1818.0369	43828.35	42932.75
916.0954	1819.7067	43685.75	42793.65
916.2355	1821.3757	43595.05	42698.15
916.3755	1823.044	43443.15	42547.65
916.5156	1824.7115	43300.25	42407.45
916.6556	1826.3783	43107.65	42216.2
916.7956	1828.0443	42985.45	42093.85
916.9356	1829.7096	42846.9	41952.95
917.0756	1831.3741	42753.1	41856.9
917.2155	1833.0379	42663.5	41770.2
917.3555	1834.701	42518.05	41621.75
917.4954	1836.3633	42427.95	41533.15
917.6353	1838.0248	42291.45	41395.8
917.7751	1839.6856	42171.75	41278.6
917.915	1841.3457	42086.65	41193.25
918.0548	1843.005	41998.4	41105.25
918.1946	1844.6636	41911.4	41019.4
918.3344	1846.3214	41800.15	40906.75
918.4742	1847.9785	41731.15	40839.5
918.6139	1849.6349	41578.3	40682.85
918.7537	1851.2904	41509.25	40606.9
918.8934	1852.9453	41348.4	40454.15
919.0331	1854.5994	41183.45	40287.3
919.1727	1856.2528	41217.1	40320.3
919.3124	1857.9054	41038	40142.05
919.452	1859.5572	41004.4	40112
919.5916	1861.2083	40869	39976.1
919.7312	1862.8587	40835	39940.55
919.8708	1864.5084	40647.95	39754.15
920.0103	1866.1572	40504.3	39611.15
920.1498	1867.8054	40310	39417
920.2893	1869.4528	40301.8	39408.8
920.4288	1871.0994	40125.6	39232.45
920.5683	1872.7453	40074.4	39178.05
920.7077	1874.3905	39908.7	39009.05
920.8471	1876.0349	39763.3	38869
920.9865	1877.6786	39748.95	38852.9
921.1259	1879.3215	39716.65	38824.05
921.2653	1880.9637	39538.75	38643.4
921.4046	1882.6051	39474.05	38580.7
921.5439	1884.2458	39317.4	38420.7
921.6832	1885.8858	39138.8	38245.55
921.8225	1887.525	39064.3	38169.35
921.9617	1889.1634	38907.65	38014.75
922.101	1890.8011	38731.3	37837.9
922.2402	1892.4381	38663.85	37772.15
922.3794	1894.0743	38643.7	37751.6
922.5185	1895.7098	38517.95	37624.85
922.6577	1897.3446	38405.35	37512.35
922.7968	1898.9786	38275.75	37378.4
922.9359	1900.6118	38218.4	37327.25
923.075	1902.2443	37987.3	37092.5
923.214	1903.8761	37904.65	37010.8
923.3531	1905.5071	37663.75	36768.3
923.4921	1907.1374	37525.7	36630.85
923.6311	1908.7669	37442.5	36550.15
923.77	1910.3957	37360.85	36465.85
923.909	1912.0237	37122.8	36230.75
924.0479	1913.651	37043.9	36150.55
924.1868	1915.2776	36966.85	36074.8
924.3257	1916.9034	36788	35895.55
924.4646	1918.5285	36608.1	35717.5
924.6034	1920.1528	36436.45	35541.55
924.7422	1921.7764	36376.25	35483.5
924.881	1923.3992	36180.8	35288.4
925.0198	1925.0213	35972.95	35080
925.1586	1926.6427	35860.3	34966.05
925.2973	1928.2633	35831.55	34822.45
925.436	1929.8832	35644.55	34750.7
925.5747	1931.5023	35500	34606.25
925.7134	1933.1207	35382.5	34488.25
925.852	1934.7383	35293.95	34400
925.9906	1936.3552	35148.2	34255.55
926.1292	1937.9714	35104.05	34211.25
926.2678	1939.5868	34891.55	33996.45
926.4064	1941.2015	34696.8	33802.55
926.5449	1942.8154	34538.5	33645.7
926.6834	1944.4286	34399.85	33507.2
926.8219	1946.041	34281.55	33369.9
926.9604	1947.6528	34109.1	33211.25
927.0988	1949.2637	34059.1	33167.65
927.2372	1950.8739	33885.6	32994.4
927.3756	1952.4834	33766.7	32873.7
927.514	1954.0921	33698.1	32804.1
927.6523	1955.7001	33557.85	32662.2
927.7907	1957.3074	33415.7	32522.55
927.929	1958.9139	33277.25	32386.75
928.0673	1960.5197	33206.7	32316.35
928.2055	1962.1247	32987.05	32092.35
928.3438	1963.729	32849.95	31958.9
928.482	1965.3325	32715	31800.05
928.6202	1966.9353	32608.3	31716.55
928.7584	1968.5374	32485.45	31593.15
928.8965	1970.1387	32385.75	31492.5
929.0346	1971.7393	32276.05	31384.25
929.1727	1973.3392	32176.4	31284.45
929.3108	1974.9383	32042.75	31149.35
929.4489	1976.5366	31903.4	31011.5
929.5869	1978.1342	31843.2	30949.35
929.7249	1979.7311	31730.65	30838.05
929.8629	1981.3273	31622.65	30729.5
930.0009	1982.9227	31493.75	30600.95
930.1388	1984.5173	31353	30462.45
930.2767	1986.1112	31248.55	30355.8
930.4146	1987.7044	31137.25	30246.45
930.5525	1989.2968	31061.9	30167.55
930.6904	1990.8885	30963.35	30067.55
930.8282	1992.4795	30886.5	29992.75
930.966	1994.0697	30729.15	29837.3
931.1038	1995.6592	30618.8	29727.9
931.2415	1997.2479	30544.85	29651.9
931.3793	1998.8359	30456.15	29564.4
931.517	2000.4232	30258.25	29365.9
931.6547	2002.0097	30170.8	29281.7
931.7923	2003.5955	30032.7	29140.8
931.93	2005.1805	30019.7	29127.65
932.0676	2006.7648	29883.2	28990.15
932.2052	2008.3484	29801.85	28909.95
932.3427	2009.9312	29783.45	28891.7
932.4803	2011.5133	29638.1	28745.6
932.6178	2013.0946	29572.85	28682.15
932.7553	2014.6752	29441.15	28550.65
932.8928	2016.2551	29385.85	28492.15
933.0302	2017.8342	29255.6	28362.65
933.1676	2019.4126	29174.75	28283.35
933.305	2020.9902	28982.2	28091.75
933.4424	2022.5672	28968.1	28076.15
933.5798	2024.1433	28831.7	27934.45
933.7171	2025.7188	28718.4	27826.55
933.8544	2027.2935	28631.35	27738.8
933.9917	2028.8674	28522	27631.05
934.129	2030.4406	28421.95	27530.85
934.2662	2032.0131	28271.35	27380.35
934.4034	2033.5849	28175.05	27277.75
934.5406	2035.1559	28136.6	27245.05
934.6778	2036.7261	28026.95	27136.2
934.8149	2038.2957	27978.45	27087.5
934.952	2039.8645	27885	26994.45
935.0891	2041.4325	27881.25	26987.4
935.2262	2042.9998	27688.9	26796.1
935.3632	2044.5664	27647.4	26754.6
935.5002	2046.1323	27572.75	26680.75
935.6372	2047.6974	27437.9	26545.6
935.7742	2049.2617	27401.8	26510.75
935.9111	2050.8254	27348.15	26434.3
936.048	2052.3883	27334.75	26441.35
936.1849	2053.9504	27190.35	26297
936.3218	2055.5118	27053.7	26162
936.4586	2057.0725	26909.35	26013.8
936.5955	2058.6325	26871.85	25980.25
936.7323	2060.1917	26823.95	25931.4
936.869	2061.7502	26739.9	25844.9
937.0058	2063.3079	26616.95	25725.95
937.1425	2064.8649	26520.85	25628.55
937.2792	2066.4212	26457	25564.45
937.4159	2067.9767	26349.05	25459.15
937.5525	2069.5315	26239.7	25348.35
937.6891	2071.0856	26126.7	25235.7
937.8257	2072.6389	26037.85	25147
937.9623	2074.1915	25898.05	25008.2
938.0989	2075.7433	25728.15	24833.9
938.2354	2077.2945	25722.35	24831.7
938.3719	2078.8448	25637.6	24745.65
938.5084	2080.3945	25465	24572.45
938.6448	2081.9434	25476.8	24583.3
938.7812	2083.4916	25404.45	24511.5
938.9176	2085.039	25289.15	24396.6
939.054	2086.5857	25251.05	24357.3
939.1903	2088.1317	25162.3	24270
939.3267	2089.677	25082.9	24191.3
939.463	2091.2215	24963.7	24071.15
939.5992	2092.7652	24887.1	23992.4
939.7355	2094.3083	24854.95	23960.95
939.8717	2095.8506	24774.1	23883.45
940.0079	2097.3921	24773.5	23882.15
940.1441	2098.933	24635.15	23743.15
940.2802	2100.4731	24595.3	23704.4
940.4163	2102.0124	24544.65	23645.55
940.5524	2103.5511	24434.95	23543.95
940.6885	2105.089	24362.8	23470.15
940.8245	2106.6261	24320.4	23427.9
940.9606	2108.1626	24239.85	23348.05
941.0965	2109.6983	24215.2	23295.7
941.2325	2111.2332	24126.4	23233.7
941.3684	2112.7675	24043.45	23151.3
941.5044	2114.301	23962.8	23070.4
941.6403	2115.8337	23906.3	23013.85
941.7761	2117.3657	23803.75	22913.05
941.912	2118.897	23766.65	22874.25
942.0478	2120.4276	23681.5	22783.4
942.1835	2121.9575	23555.9	22663.4
942.3193	2123.4866	23587.75	22682.4
942.455	2125.0149	23519.95	22625.8
942.5907	2126.5426	23335.2	22442.3
942.7264	2128.0695	23306.15	22410.75
942.8621	2129.5956	23238.95	22349.05
942.9977	2131.1211	23182.65	22287.15
943.1333	2132.6458	23117.9	22225.5
943.2689	2134.1698	23044.25	22151.15
943.4044	2135.693	22920.2	22024.1
943.54	2137.2155	22877.9	21983.5
943.6755	2138.7373	22836.15	21943.1
943.8109	2140.2584	22744	21850.9
943.9464	2141.7787	22645.25	21750.4
944.0818	2143.2983	22515.25	21625.2
944.2172	2144.8171	22397.75	21508.15
944.3526	2146.3353	22398.4	21504.9
944.4879	2147.8527	22289.55	21397.4
944.6232	2149.3693	22247.25	21354.1
944.7585	2150.8853	22158.05	21266.05
944.8938	2152.4005	22075.6	21183.65
945.029	2153.9149	21987.85	21093
945.1642	2155.4287	21934.75	21043.5
945.2994	2156.9417	21893.6	21001.55
945.4346	2158.454	21807.15	20912.55
945.5697	2159.9655	21727.75	20836.6
945.7048	2161.4764	21722.25	20830.5
945.8399	2162.9865	21623.5	20730.4
945.9749	2164.4958	21565.3	20672.25
946.1099	2166.0045	21483.5	20588.95
946.2449	2167.5124	21456.9	20565.6
946.3799	2169.0195	21363.5	20472.1
946.5148	2170.526	21336.7	20444
946.6498	2172.0317	21279.35	20386.45
946.7846	2173.5367	21203.35	20312.15
946.9195	2175.0409	21139.55	20247.1
947.0543	2176.5445	21111.95	20219.35
947.1891	2178.0473	21021.95	20127.3
947.3239	2179.5494	20936.55	20040.7
947.4587	2181.0507	20871.3	19977.9
947.5934	2182.5513	20794.05	19899.35
947.7281	2184.0512	20706.85	19814.85
947.8628	2185.5504	20623.2	19730.25
947.9974	2187.0488	20527.75	19636.5
948.132	2188.5465	20506.85	19617.6
948.2666	2190.0435	20418.2	19526.7
948.4012	2191.5397	20297.6	19404.45
948.5357	2193.0353	20254.4	19363.8
948.6702	2194.5301	20134.4	19243.9
948.8047	2196.0241	20080.65	19188.5
948.9392	2197.5175	20002.2	19108.55
949.0736	2199.0101	19951.1	19056.3
949.208	2200.502	19850.7	18958.05
949.3424	2201.9931	19755.35	18863.25
949.4767	2203.4835	19671.85	18780.45
949.611	2204.9733	19597.25	18700.95
949.7453	2206.4622	19588.3	18697.2
949.8796	2207.9505	19488.95	18595.05
950.0138	2209.438	19400.75	18511.65
950.148	2210.9248	19310.5	18417.9
950.2822	2212.4109	19246.85	18354.75
950.4164	2213.8962	19212.4	18317.3
950.5505	2215.3809	19163.3	18269.75
950.6846	2216.8648	19063.6	18169.9
950.8186	2218.3479	19004.8	18108.7
950.9527	2219.8304	18941.1	18047.7
951.0867	2221.3121	18843.25	17949.7
951.2207	2222.7931	18780.15	17889.2
951.3546	2224.2733	18726.35	17833.7
951.4886	2225.7529	18637.5	17744
951.6225	2227.2317	18609.65	17715.15
951.7563	2228.7098	18569.9	17677.9
951.8902	2230.1872	18451	17559.25
952.024	2231.6638	18417.7	17526.6
952.1578	2233.1397	18356.55	17458.4
952.2916	2234.6149	18293.2	17398.95
952.4253	2236.0894	18219.8	17326.95
952.559	2237.5632	18161.5	17259.6
952.6927	2239.0362	18077.55	17185.8
952.8263	2240.5085	18058.9	17167.9
952.9599	2241.9801	17955.7	17064.5
953.0935	2243.4509	17894.8	17003.95
953.2271	2244.921	17851.9	16959.85
953.3606	2246.3904	17774.8	16881.85
953.4941	2247.8591	17680.8	16788.1
953.6276	2249.3271	17642.95	16751.05
953.7611	2250.7943	17608.35	16713.15
953.8945	2252.2608	17540.65	16647
954.0279	2253.7266	17455.45	16562.35
954.1612	2255.1917	17411.85	16520.1
954.2946	2256.656	17346.6	16455.65
954.4279	2258.1197	17293.15	16401.45
954.5612	2259.5826	17249.3	16354.2
954.6944	2261.0447	17198.45	16304.7
954.8276	2262.5062	17124	16228.4
954.9608	2263.9669	17101.25	16205.5
955.094	2265.4269	17059.6	16169.35
955.2271	2266.8862	16964.8	16073.1
955.3602	2268.3448	16933.35	16039.05
955.4933	2269.8026	16904.95	16013.75
955.6264	2271.2598	16815.9	15923.7
955.7594	2272.7162	16772.45	15880.6
955.8924	2274.1719	16722.5	15829.95
956.0253	2275.6268	16671.25	15778.2
956.1583	2277.0811	16619.55	15727.45
956.2912	2278.5346	16579.2	15685.95
956.4241	2279.9874	16510.15	15617.2
956.5569	2281.4395	16497	15607.45
956.6897	2282.8908	16409.05	15511
956.8225	2284.3414	16363.15	15469.5
956.9553	2285.7914	16300.55	15409.1
957.088	2287.2406	16243	15348.35
957.2207	2288.689	16203.45	15310.9
957.3534	2290.1368	16133.5	15240.05
957.486	2291.5838	16086.6	15192.5
957.6186	2293.0302	16022.1	15128.8
957.7512	2294.4758	15961.2	15069.35
957.8838	2295.9206	15913.25	15019.15
958.0163	2297.3648	15870.35	14978
958.1488	2298.8082	15864.45	14970.95
958.2813	2300.251	15773.35	14880.05
958.4137	2301.693	15691.95	14795.9
958.5461	2303.1343	15705.85	14811.1
958.6785	2304.5748	15658.2	14767.8
958.8108	2306.0147	15578.25	14684.7
958.9432	2307.4538	15542.65	14646.7
959.0754	2308.8922	15487.2	14596.8
959.2077	2310.3299	15399.5	14507.85
959.3399	2311.7669	15361.6	14470
959.4721	2313.2031	15309.3	14417.15
959.6043	2314.6387	15247.2	14353.75
959.7365	2316.0735	15210.4	14318.15
959.8686	2317.5076	15145.05	14252.15
960.0006	2318.941	15080.7	14187.05
960.1327	2320.3737	15053.95	14161.95
960.2647	2321.8056	15001.2	14107.15
960.3967	2323.2369	14952.25	14059.35
960.5287	2324.6674	14926.1	14031.95
960.6606	2326.0972	14870.85	13975.75
960.7925	2327.5263	14803.45	13910.95
960.9244	2328.9547	14765.4	13872.85
961.0562	2330.3823	14714.5	13822.2
961.1881	2331.8092	14701.8	13807.25
961.3198	2333.2355	14629.9	13736.55
961.4516	2334.661	14567.25	13674.05
961.5833	2336.0858	14557	13662.75
961.715	2337.5098	14531.75	13638.1
961.8467	2338.9332	14479.35	13586.7
961.9783	2340.3558	14417.3	13520.65
962.1099	2341.7778	14353.85	13461.95
962.2415	2343.199	14302.05	13407.8
962.373	2344.6195	14254.55	13363.15
962.5045	2346.0393	14232.85	13342.25
962.636	2347.4583	14209.6	13316.55
962.7675	2348.8767	14130.3	13234.45
962.8989	2350.2943	14114.85	13220.6
963.0303	2351.7113	14053	13156.5
963.1617	2353.1275	14002.5	13110.7
963.293	2354.543	13963.15	13060.15
963.4243	2355.9578	13855.85	12962.2
963.5556	2357.3718	13801.95	12908.4
963.6868	2358.7852	13755.05	12858.35
963.818	2360.1978	13693.85	12801.2
963.9492	2361.6098	13677.9	12786.35
964.0803	2363.021	13635.3	12739.65
964.2114	2364.4315	13586.4	12693.7
964.3425	2365.8413	13543.05	12650.5
964.4736	2367.2504	13482.1	12592.25
964.6046	2368.6587	13421.1	12528.85
964.7356	2370.0664	13362.2	12469.95
964.8666	2371.4733	13296.25	12405.6
964.9975	2372.8795	13263.55	12371.95
965.1284	2374.285	13203.15	12310
965.2593	2375.6899	13179.5	12289.05
965.3901	2377.0939	13081.8	12190.1
965.5209	2378.4973	13056.65	12166
965.6517	2379.9	12994.6	12102.6
965.7825	2381.3019	12943.35	12052.9
965.9132	2382.7032	12910.5	12020.1
966.0439	2384.1037	12896.35	12007.45
966.1745	2385.5035	12829.95	11938.95
966.3051	2386.9027	12766.5	11875.6
966.4357	2388.3011	12754.55	11861.5
966.5663	2389.6987	12718.8	11827.25
966.6968	2391.0957	12669.95	11780.3
966.8273	2392.492	12592	11700.4
966.9578	2393.8876	12506.95	11615.55
967.0882	2395.2824	12457	11565.35
967.2186	2396.6765	12389.45	11499.1
967.349	2398.07	12338	11447.8
967.4793	2399.4627	12330.75	11438.5
967.6097	2400.8547	12269.2	11377.9
967.7399	2402.246	12244.5	11346.55
967.8702	2403.6366	12156	11261.5
968.0004	2405.0265	12087.7	11196.2
968.1306	2406.4156	12094.85	11199.75
968.2607	2407.8041	12012.9	11117.9
968.3909	2409.1918	11990.9	11097.8
968.521	2410.5789	11935.1	11043
968.651	2411.9652	11891.95	10998.85
968.781	2413.3508	11830.45	10940.05
968.911	2414.7358	11807.85	10915.1
969.041	2416.12	11727.25	10837
969.1709	2417.5035	11723.15	10831.9
969.3008	2418.8863	11673.9	10781.55
969.4307	2420.2684	11635.85	10744
969.5606	2421.6497	11578.7	10685.15
969.6904	2423.0304	11497.75	10607.45
969.8201	2424.4104	11466.7	10572.85
969.9499	2425.7896	11433.7	10540.5
970.0796	2427.1682	11406.5	10513.8
970.2093	2428.546	11402.9	10510.1
970.3389	2429.9232	11353.75	10461.8
970.4685	2431.2996	11298.75	10408.45
970.5981	2432.6753	11310.5	10420.1
970.7277	2434.0503	11283.95	10391.8
970.8572	2435.4246	11189.75	10298.1
970.9867	2436.7982	11130.65	10237.25
971.1161	2438.1711	11134.7	10242.5
971.2456	2439.5433	11112.1	10220.75
971.375	2440.9148	11036.05	10143.8
971.5043	2442.2856	10987.4	10096.3
971.6336	2443.6557	10950.55	10057.85
971.7629	2445.025	10880.7	9990.15
971.8922	2446.3937	10856.25	9964.1
972.0214	2447.7617	10833.55	9941.2
972.1506	2449.1289	10810.65	9916.6
972.2798	2450.4955	10794.95	9897.75
972.4089	2451.8613	10759.95	9867.85
972.538	2453.2265	10710.9	9818.45
972.6671	2454.5909	10701.4	9808.3
972.7961	2455.9546	10660.15	9768.65
972.9251	2457.3177	10606.9	9715.05
973.0541	2458.68	10590.55	9695.7
973.1831	2460.0416	10565.8	9673.5
973.312	2461.4025	10547.9	9654.8
973.4408	2462.7627	10510.6	9606.5
973.5697	2464.1222	10463.7	9572.35
973.6985	2465.4811	10458.95	9567.25
973.8273	2466.8392	10386.8	9495.35
973.956	2468.1966	10372.05	9478.1
974.0847	2469.5533	10357.3	9462.25
974.2134	2470.9093	10317.75	9422.35
974.3421	2472.2645	10294.05	9401.45
974.4707	2473.6191	10251.35	9358.85
974.5993	2474.973	10191.5	9299.75
974.7278	2476.3262	10169.05	9275.45
974.8563	2477.6787	10156	9265.85
974.9848	2479.0305	10075.15	9184.45
975.1132	2480.3816	10068.45	9175.6
975.2417	2481.7319	10003.65	9112.3
975.37	2483.0816	9966.7	9073.75
975.4984	2484.4306	9924.65	9032.3
975.6267	2485.7789	9894.15	9002.4
975.755	2487.1264	9832.75	8939.4
975.8833	2488.4733	9804.8	8910.85
976.0115	2489.8195	9786.2	8875.9
976.1397	2491.165	9720.5	8822.5
976.2678	2492.5097	9711.55	8818.45
976.3959	2493.8538	9651	8761.6
976.524	2495.1972	9627.2	8735.75
976.6521	2496.5398	9575.95	8683.85
976.7801	2497.8818	9538.15	8643.4
976.9081	2499.2231	9511.4	8619.45
977.036	2500.5637	9484.85	8591.45
977.164	2501.9035	9470.6	8577.25
977.2918	2503.2427	9414.05	8519.5
977.4197	2504.5812	9364.75	8473
977.5475	2505.919	9354.75	8461.8
977.6753	2507.256	9333.15	8440.9
977.8031	2508.5924	9303	8412.45
977.9308	2509.9281	9274.65	8376.55
978.0585	2511.2631	9235	8342.85
978.1861	2512.5974	9204	8313.85
978.3137	2513.9309	9166.3	8275.25
978.4413	2515.2638	9162.7	8237.55
978.5689	2516.596	9112	8219.8
978.6964	2517.9275	9047.4	8152.8
978.8239	2519.2583	9008.2	8116.15
978.9513	2520.5884	8978.2	8085
979.0788	2521.9178	8955.4	8062.75
979.2062	2523.2465	8920.95	8028.05
979.3335	2524.5745	8876.65	7985.05
979.4608	2525.9018	8867.25	7973.75
979.5881	2527.2284	8863	7972.55
979.7154	2528.5543	8824.95	7934.75
979.8426	2529.8796	8780.75	7890.7
979.9698	2531.2041	8773.6	7880.6
980.0969	2532.5279	8736.15	7844.15
980.224	2533.851	8736.1	7843.65
980.3511	2535.1735	8708.1	7817.85
980.4781	2536.4952	8667.7	7776.5
980.6052	2537.8163	8648.1	7754.1
980.7321	2539.1366	8636.8	7745.05
980.8591	2540.4562	8587.35	7694.75
980.986	2541.7752	8579.35	7688.15
981.1129	2543.0935	8555.1	7662.25
981.2397	2544.411	8521.45	7628.15
981.3665	2545.7279	8508.35	7617.25
981.4933	2547.0441	8488.95	7596.2
981.62	2548.3596	8500.25	7604.6
981.7467	2549.6744	8462.7	7569.3
981.8734	2550.9885	8429.75	7534.85
982.0001	2552.3019	8384.85	7491.25
982.1267	2553.6146	8366.45	7475.05
982.2532	2554.9266	8356.95	7463.7
982.3798	2556.2379	8316.45	7423.05
982.5063	2557.5485	8315.65	7423.35
982.6327	2558.8585	8287.35	7390.4
982.7592	2560.1677	8283.35	7385.9
982.8856	2561.4762	8231.45	7337.85
983.0119	2562.7841	8219.35	7322.8
983.1383	2564.0913	8212.25	7321.05
983.2646	2565.3977	8190.3	7300.1
983.3908	2566.7035	8154.6	7261.2
983.517	2568.0086	8146.1	7252.4
983.6432	2569.313	8123.1	7229.65
983.7694	2570.6167	8116	7219.75
983.8955	2571.9197	8095.45	7202.35
984.0216	2573.222	8093.1	7197.25
984.1476	2574.5236	8054.8	7161.6
984.2737	2575.8246	8021.5	7126.95
984.3996	2577.1248	8015.45	7121.85
984.5256	2578.4244	7985.9	7094.85
984.6515	2579.7232	7985.75	7093.15
984.7774	2581.0214	7998.15	7081.3
984.9032	2582.3189	7944.85	7054.4
985.029	2583.6157	7930.35	7034
985.1548	2584.9118	7907.1	7014.3
985.2806	2586.2072	7875.05	6984.25
985.4063	2587.5019	7839.7	6947.55
985.5319	2588.7959	7820.6	6925.55
985.6576	2590.0893	7848.5	6954.65
985.7832	2591.3819	7818	6926.65
985.9087	2592.6739	7778.7	6886.65
986.0343	2593.9652	7749.7	6855.65
986.1597	2595.2557	7711.65	6818.05
986.2852	2596.5456	7691.1	6796.6
986.4106	2597.8348	7669.5	6778.3
986.536	2599.1234	7636.35	6746.6
986.6614	2600.4112	7615.65	6723.7
986.7867	2601.6983	7572.85	6674.2
986.912	2602.9848	7529.4	6637
987.0372	2604.2705	7524.95	6625.4
987.1624	2605.5556	7510.85	6617.4
987.2876	2606.84	7476.9	6586
987.4128	2608.1237	7447.35	6555.35
987.5379	2609.4067	7406.95	6514.2
987.6629	2610.689	7417.85	6518.2
987.788	2611.9707	7370.9	6476.45
987.913	2613.2516	7354.95	6456.9
988.0379	2614.5319	7305.05	6413.35
988.1629	2615.8115	7258.35	6365.3
988.2878	2617.0903	7262.45	6369.35
988.4126	2618.3685	7218.1	6324.2
988.5375	2619.6461	7202.4	6308.3
988.6622	2620.9229	7179.35	6285.95
988.787	2622.199	7162.35	6269.9
988.9117	2623.4745	7157	6264.2
989.0364	2624.7493	7133.15	6240.4
989.161	2626.0234	7092.05	6199.4
989.2857	2627.2968	7049.65	6156.8
989.4102	2628.5695	7053.25	6160.05
989.5348	2629.8415	7012.15	6120.25
989.6593	2631.1128	6981.7	6086.4
989.7837	2632.3835	6964.45	6072.9
989.9082	2633.6535	6922.4	6030.5
990.0326	2634.9228	6902.65	6010.75
990.1569	2636.1914	6876.25	5984.2
990.2812	2637.4593	6862.7	5964.05
990.4055	2638.7265	6837.85	5944.85
990.5298	2639.9931	6793.2	5902.6
990.654	2641.259	6809.05	5916.85
990.7782	2642.5242	6772.45	5880.95
990.9023	2643.7887	6742.4	5850.35
991.0264	2645.0525	6735.45	5843.2
991.1505	2646.3156	6718.45	5823
991.2745	2647.5781	6690.2	5796.8
991.3985	2648.8398	6642.05	5750.5
991.5225	2650.1009	6649.2	5748.6
991.6464	2651.3613	6633.85	5743.15
991.7703	2652.6211	6625	5732.15
991.8942	2653.8801	6596.4	5704.05
992.018	2655.1385	6570.65	5675.95
992.1418	2656.3961	6554.95	5663.9
992.2655	2657.6531	6541.5	5648.35
992.3892	2658.9094	6523.75	5631.45
992.5129	2660.1651	6500.55	5608.75
992.6366	2661.42	6482.2	5589.5
992.7602	2662.6743	6465.15	5572.45
992.8837	2663.9279	6456.4	5565.75
993.0073	2665.1808	6441.55	5547.6
993.1307	2666.433	6406.9	5513.25
993.2542	2667.6846	6393.7	5501
993.3776	2668.9354	6370.65	5475.3
993.501	2670.1856	6348.25	5455.45
993.6244	2671.4351	6353.3	5461.55
993.7477	2672.6839	6345.85	5451.9
993.8709	2673.9321	6322.55	5430.7
993.9942	2675.1795	6292.85	5400.1
994.1174	2676.4263	6254.6	5362.15
994.2405	2677.6724	6263.9	5372.15
994.3637	2678.9179	6248.35	5354.95
994.4868	2680.1626	6209.8	5320.05
994.6098	2681.4067	6214.65	5321.65
994.7328	2682.6501	6192.95	5300.55
994.8558	2683.8928	6151.5	5260.6
994.9788	2685.1348	6145.9	5254.7
995.1017	2686.3761	6114.5	5221.5
995.2245	2687.6168	6108.65	5217.25
995.3474	2688.8568	6080.95	5190.05
995.4702	2690.0961	6046.2	5155.65
995.5929	2691.3348	6034.05	5143.1
995.7156	2692.5727	6022.3	5130.55
995.8383	2693.81	6001.95	5110.1
995.961	2695.0466	5992	5100.65
996.0836	2696.2826	5957.25	5063.2
996.2062	2697.5178	5949.9	5056
996.3287	2698.7524	5931	5039.15
996.4512	2699.9863	5934.85	5041.65
996.5737	2701.2195	5878.45	4986.4
996.6961	2702.452	5886.95	4993.35
996.8185	2703.6839	5871.3	4978.75
996.9408	2704.9151	5841.2	4950.4
997.0631	2706.1456	5826.6	4933.35
997.1854	2707.3755	5821.2	4929.1
997.3077	2708.6046	5825.3	4931.1
997.4299	2709.8331	5791.7	4899.5
997.552	2711.0609	5769.05	4878.15
997.6742	2712.2881	5785.05	4892.55
997.7963	2713.5145	5761.65	4866.65
997.9183	2714.7403	5731.85	4839.75
998.0403	2715.9654	5748.45	4854.7
998.1623	2717.1899	5754.3	4845.9
998.2842	2718.4136	5734.25	4842.8
998.4062	2719.6367	5703.15	4811.05
998.528	2720.8591	5709.5	4809.75
998.6498	2722.0809	5691.15	4797.8
998.7716	2723.3019	5685.95	4790.1
998.8934	2724.5223	5665.25	4773.45
999.0151	2725.7421	5655	4762.8
999.1368	2726.9611	5650.5	4755.85
999.2584	2728.1795	5617.65	4720.6
999.38	2729.3972	5595.75	4703.2
999.5016	2730.6142	5577.15	4678.2
999.6231	2731.8306	5540.35	4647.1
999.7446	2733.0462	5517.3	4622.75
999.8661	2734.2612	5478.3	4580.55
999.9875	2735.4756	5440.2	4547.3
1000.1089	2736.6892	5389.5	4497.35
1000.2302	2737.9022	5379.65	4488.4
1000.3515	2739.1145	5339.3	4448.7
1000.4728	2740.3262	5311.05	4409.35
1000.594	2741.5372	5264.1	4372.6
1000.7152	2742.7475	5262.35	4370.5
1000.8363	2743.9571	5232.65	4339.55
1000.9575	2745.1661	5215.85	4319.45
1001.0785	2746.3744	5194.3	4302.2
1001.1996	2747.582	5166.45	4274.5
1001.3206	2748.7889	5146.1	4252.1
1001.4415	2749.9952	5122.2	4230.2
1001.5625	2751.2008	5096.45	4204.3
1001.6833	2752.4057	5075.65	4180.45
1001.8042	2753.61	5072.15	4179.95
1001.925	2754.8136	5050.5	4156.25
1002.0458	2756.0165	5044.2	4153.65
1002.1665	2757.2188	5019.6	4128.75
1002.2872	2758.4204	4994.55	4104.25
1002.4078	2759.6213	4972.1	4078.85
1002.5285	2760.8215	4986.4	4089.15
1002.649	2762.0211	4943.75	4050.5
1002.7696	2763.22	4934.65	4039
1002.8901	2764.4182	4923.15	4029.55
1003.0106	2765.6158	4899	4005.9
1003.131	2766.8127	4903.7	4013.85
1003.2514	2768.009	4878.95	3990.05
1003.3717	2769.2045	4849.4	3958
1003.492	2770.3994	4838.1	3944.3
1003.6123	2771.5936	4830.5	3938.15
1003.7325	2772.7872	4783.95	3891.85
1003.8527	2773.9801	4777.35	3883.55
1003.9729	2775.1723	4783.75	3875.35
1004.093	2776.3639	4766.8	3874.55
1004.2131	2777.5548	4738.6	3845.7
1004.3331	2778.745	4729.45	3833.75
1004.4531	2779.9346	4719.05	3827.6
1004.5731	2781.1235	4717.85	3824
1004.693	2782.3117	4701.1	3808.25
1004.8129	2783.4992	4671.7	3779.65
1004.9328	2784.6861	4664.1	3772.1
1005.0526	2785.8723	4681.25	3788.95
1005.1723	2787.0579	4664	3772.15
1005.2921	2788.2428	4646.05	3752.8
1005.4118	2789.427	4639.95	3748.1
1005.5314	2790.6106	4627.85	3734.9
1005.651	2791.7935	4633.65	3739.95
1005.7706	2792.9757	4626.6	3737.1
1005.8902	2794.1573	4623.5	3728.75
1006.0097	2795.3382	4618.15	3726.95
1006.1291	2796.5184	4605	3713.6
1006.2485	2797.698	4615.7	3722.05
1006.3679	2798.8769	4626.7	3735.8
1006.4873	2800.0551	4631.7	3739.85
1006.6066	2801.2327	4629.4	3736.75
1006.7258	2802.4096	4631.45	3742.3
1006.8451	2803.5859	4651.1	3757.5
1006.9642	2804.7615	4653	3759.15
1007.0834	2805.9364	4652.3	3760.5
1007.2025	2807.1106	4667.55	3775.5
1007.3216	2808.2842	4665.85	3773.75
1007.4406	2809.4572	4705.8	3814.2
1007.5596	2810.6294	4724.95	3830.05
1007.6785	2811.801	4747.4	3855.2
1007.7975	2812.972	4799.65	3909.6
1007.9163	2814.1423	4824.7	3933.1
1008.0352	2815.3119	4846.55	3953.05
1008.154	2816.4808	4892.6	4001.55
1008.2727	2817.6491	4921.4	4030.45
1008.3914	2818.8167	4956.15	4067.6
1008.5101	2819.9837	5000.05	4103.6
1008.6288	2821.15	5039.25	4146.55
1008.7474	2822.3157	5057.95	4165.45
1008.8659	2823.4807	5092.4	4198.3
1008.9844	2824.645	5146.4	4253.4
1009.1029	2825.8086	5182.9	4292.75
1009.2214	2826.9716	5205.85	4315
1009.3398	2828.134	5237.35	4345.5
1009.4581	2829.2957	5263.95	4371.05
1009.5764	2830.4567	5275.5	4381.2
1009.6947	2831.617	5281.3	4389.05
1009.813	2832.7767	5277.65	4386.4
1009.9312	2833.9358	5286.85	4397.65
1010.0493	2835.0941	5263.05	4370.2
1010.1675	2836.2519	5274.7	4383.6
1010.2855	2837.4089	5235.1	4341.25
1010.4036	2838.5653	5212.45	4321.6
1010.5216	2839.7211	5208.85	4317.65
1010.6396	2840.8761	5204.6	4313.55
1010.7575	2842.0306	5221.7	4332.2
1010.8754	2843.1843	5239.25	4348.05
1010.9932	2844.3374	5281.05	4389.95
1011.111	2845.4899	5325.25	4434.75
1011.2288	2846.6417	5399.9	4509.7
1011.3465	2847.7928	5462.85	4571.05
1011.4642	2848.9433	5547.65	4655.3
1011.5818	2850.0931	5618.05	4726.85
1011.6995	2851.2422	5689.15	4795.25
1011.817	2852.3907	5750.55	4858.45
1011.9345	2853.5385	5806.55	4913.4
1012.052	2854.6857	5865.4	4946.75
1012.1695	2855.8323	5886	4994.6
1012.2869	2856.9781	5914.15	5023
1012.4042	2858.1233	5947.5	5055.5
1012.5216	2859.2679	5997.35	5104.9
1012.6389	2860.4118	6053.2	5162.7
1012.7561	2861.555	6083.7	5187.6
1012.8733	2862.6976	6091.9	5200.25
1012.9905	2863.8395	6096.6	5205.55
1013.1076	2864.9808	6105.8	5215.6
1013.2247	2866.1214	6115.5	5224.7
1013.3417	2867.2614	6108.5	5218.25
1013.4587	2868.4007	6101.75	5208.4
1013.5757	2869.5393	6114.15	5221.3
1013.6926	2870.6773	6129.8	5233.6
1013.8095	2871.8146	6143.5	5248
1013.9263	2872.9513	6120.45	5226.4
1014.0431	2874.0874	6090.6	5199.55
1014.1599	2875.2227	6070.4	5178.15
1014.2766	2876.3574	6059.8	5168.45
1014.3933	2877.4915	6033.05	5143.75
1014.51	2878.6249	5996.1	5105.65
1014.6266	2879.7577	5956.45	5061.7
1014.7431	2880.8898	5932.85	5031.55
1014.8596	2882.0212	5880.6	4989.35
1014.9761	2883.152	5874.05	4981.2
1015.0925	2884.2821	5852.5	4961.7
1015.2089	2885.4116	5808.3	4919.9
1015.3253	2886.5405	5821.15	4930.75
1015.4416	2887.6686	5816.6	4921.4
1015.5579	2888.7962	5798.65	4908.75
1015.6741	2889.923	5795.7	4904.9
1015.7903	2891.0493	5831.5	4941.65
1015.9065	2892.1748	5813.45	4921.4
1016.0226	2893.2997	5792.8	4901.95
1016.1387	2894.424	5797.6	4905
1016.2547	2895.5476	5829.7	4940.8
1016.3707	2896.6706	5839.3	4949.2
1016.4866	2897.7929	5840.25	4948.25
1016.6025	2898.9145	5876.75	4984.2
1016.7184	2900.0355	5892	4998.7
1016.8342	2901.1559	5905.3	5014.1
1016.95	2902.2756	5927.85	5037.75
1017.0658	2903.3946	5949.45	5058.15
1017.1815	2904.513	5969.8	5076.3
1017.2971	2905.6308	5987.4	5096.1
1017.4127	2906.7479	5990.9	5099.7
1017.5283	2907.8643	6013.15	5121.8
1017.6439	2908.9801	5994.3	5101.95
1017.7594	2910.0953	5990.7	5100.3
1017.8748	2911.2098	5972.9	5079.55
1017.9902	2912.3236	5990.75	5091.8
1018.1056	2913.4368	5967.4	5073.75
1018.2209	2914.5494	5935.8	5044.45
1018.3362	2915.6613	5892.85	4998
1018.4515	2916.7725	5851.5	4958.1
1018.5667	2917.8831	5844.65	4952.15
1018.6819	2918.9931	5800.9	4907.2
1018.797	2920.1024	5760	4865.15
1018.9121	2921.211	5747.05	4855.9
1019.0271	2922.319	5705.4	4814.2
1019.1421	2923.4264	5671.85	4782.25
1019.2571	2924.5331	5653.45	4764.65
1019.372	2925.6391	5635.15	4743.55
1019.4869	2926.7445	5616.75	4727.45
1019.6017	2927.8493	5604.3	4712.45
1019.7165	2928.9534	5578.05	4686.1
1019.8313	2930.0569	5587.85	4693.6
1019.946	2931.1597	5563.5	4671
1020.0606	2932.2619	5544.9	4654.05
1020.1753	2933.3634	5525.3	4633.25
1020.2899	2934.4643	5496.85	4597.35
1020.4044	2935.5645	5480.75	4583.15
1020.5189	2936.6641	5431.95	4536.25
1020.6334	2937.763	5382.5	4492.6
1020.7478	2938.8613	5326.2	4436.75
1020.8622	2939.959	5256.25	4360.7
1020.9765	2941.056	5173.3	4282.4
1021.0908	2942.1523	5092.5	4198.75
1021.2051	2943.248	4993.2	4101.25
1021.3193	2944.3431	4885.45	3994.6
1021.4334	2945.4375	4761.65	3870.1
1021.5476	2946.5313	4655.3	3764.55
1021.6617	2947.6244	4548.3	3658.3
1021.7757	2948.7169	4451.95	3558.2
1021.8897	2949.8087	4345.75	3454.75
1022.0037	2950.8999	4233	3341.35
1022.1176	2951.9904	4154.1	3262.25
1022.2315	2953.0803	4076.7	3184.8
1022.3453	2954.1696	3988.6	3097.35
1022.4591	2955.2582	3928.65	3038.5
1022.5728	2956.3462	3874.2	2984.75
1022.6865	2957.4335	3834.05	2944.75
1022.8002	2958.5202	3802.55	2908.65
1022.9138	2959.6062	3743.25	2852.6
1023.0274	2960.6916	3718.45	2828.5
1023.141	2961.7764	3694.6	2803.6
1023.2545	2962.8605	3665.9	2776.05
1023.3679	2963.9439	3651.45	2759.55
1023.4813	2965.0267	3629.25	2738.6
1023.5947	2966.1089	3637.1	2722.6
1023.708	2967.1905	3604.5	2713.65
1023.8213	2968.2714	3591.55	2701.9
1023.9346	2969.3516	3570.75	2680.7
1024.0478	2970.4312	3593.4	2694.9
1024.1609	2971.5102	3556.7	2664.05
1024.274	2972.5885	3556.4	2666.4
1024.3871	2973.6662	3554.15	2657.25
1024.5002	2974.7432	3543.1	2651.75
1024.6132	2975.8196	3521.15	2630.1
1024.7261	2976.8954	3496.7	2605.05
1024.839	2977.9705	3485.75	2594.7
1024.9519	2979.045	3471.75	2584.6
1025.0647	2980.1188	3435.9	2544.75
1025.1775	2981.192	3414.95	2523.3
1025.2902	2982.2645	3386.95	2493.5
1025.4029	2983.3364	3358.3	2466.7
1025.5156	2984.4077	3329.7	2438
1025.6282	2985.4783	3288.7	2393.9
1025.7407	2986.5483	3243.35	2352.9
1025.8532	2987.6177	3213.95	2325.9
1025.9657	2988.6864	3178.65	2288.25
1026.0782	2989.7545	3144.55	2250.95
1026.1906	2990.8219	3094.7	2204.35
1026.3029	2991.8887	3052.9	2157.9
1026.4152	2992.9548	3020.6	2130.65
1026.5275	2994.0204	2994.9	2105.7
1026.6397	2995.0852	2943.5	2054.7
1026.7519	2996.1495	2912.45	2021.1
1026.864	2997.2131	2896.15	2004
1026.9761	2998.276	2866.4	1975
1027.0882	2999.3383	2829.5	1937.5
1027.2002	3000.4	2807.2	1916.6
1027.3122	3001.4611	2789.95	1898
1027.4241	3002.5215	2777.85	1887.65
1027.536	3003.5812	2739.2	1848.7
1027.6478	3004.6404	2750.4	1859.75
1027.7596	3005.6989	2717.65	1822.95
1027.8714	3006.7567	2704	1815.1
1027.9831	3007.8139	2711.75	1797.15
1028.0947	3008.8705	2686.85	1795.9
1028.2064	3009.9264	2679.4	1785.55
1028.3179	3010.9818	2661.25	1770.1
1028.4295	3012.0364	2667.8	1775.4
1028.541	3013.0905	2642.3	1749.65
1028.6524	3014.1439	2627.9	1735.55
1028.7638	3015.1966	2629.2	1740.2
1028.8752	3016.2487	2615.6	1725.9
1028.9865	3017.3002	2617.35	1718.85
1029.0978	3018.3511	2609.1	1718
1029.209	3019.4013	2625.95	1734.75
1029.3202	3020.4509	2606.35	1714.8
1029.4314	3021.4998	2595.75	1703.9
1029.5425	3022.5481	2577.35	1685.75
1029.6535	3023.5958	2580.35	1689.55
1029.7645	3024.6428	2591.7	1699.5
1029.8755	3025.6892	2581.5	1692.75
1029.9864	3026.735	2578.55	1688.55
1030.0973	3027.7802	2571.05	1679.25
1030.2082	3028.8247	2573.2	1682.85
1030.319	3029.8685	2567.85	1675.05
1030.4297	3030.9118	2564.4	1672.35
1030.5404	3031.9544	2561.85	1670.95
1030.6511	3032.9963	2553.2	1663
1030.7617	3034.0376	2563.85	1673.35
1030.8723	3035.0783	2560.1	1668.95
1030.9829	3036.1184	2567.3	1675.45
1031.0934	3037.1578	2567.45	1676.75
1031.2038	3038.1966	2555.75	1664.85
1031.3142	3039.2348	2541.65	1652.85
1031.4246	3040.2723	2555.65	1656.15
1031.5349	3041.3092	2535.25	1644.7
1031.6452	3042.3455	2533.75	1642
1031.7554	3043.3811	2525.4	1633.45
1031.8656	3044.4161	2510.05	1618.9
1031.9758	3045.4505	2503.55	1615.05
1032.0859	3046.4842	2499.75	1610.4
1032.1959	3047.5173	2494.6	1604.1
1032.3059	3048.5498	2467.05	1576.25
1032.4159	3049.5816	2452.1	1560.25
1032.5258	3050.6128	2448.55	1554.65
1032.6357	3051.6434	2450.05	1558.15
1032.7455	3052.6734	2434.55	1543
1032.8553	3053.7027	2419.85	1530.8
1032.9651	3054.7314	2410.2	1519.55
1033.0748	3055.7594	2396.05	1505.95
1033.1845	3056.7868	2390.95	1499.15
1033.2941	3057.8136	2395.05	1504.1
1033.4037	3058.8398	2364.1	1472.85
1033.5132	3059.8653	2355.85	1465.85
1033.6227	3060.8902	2343.7	1453.8
1033.7321	3061.9145	2328.7	1436.35
1033.8415	3062.9381	2320.4	1430
1033.9509	3063.9612	2326.3	1420.45
1034.0602	3064.9835	2309.25	1418.5
1034.1694	3066.0053	2302.65	1408.9
1034.2787	3067.0264	2284.25	1394.9
1034.3878	3068.0469	2280.15	1387.85
1034.497	3069.0668	2270.45	1377.85
1034.6061	3070.086	2240.55	1348.7
1034.7151	3071.1046	2237.15	1345.6
1034.8241	3072.1226	2230.25	1337.3
1034.9331	3073.1399	2210.05	1320.8
1035.042	3074.1567	2200.2	1309.4
1035.1508	3075.1727	2187.95	1295
1035.2597	3076.1882	2162.6	1273.8
1035.3684	3077.203	2156.25	1265.45
1035.4772	3078.2173	2156.9	1266.95
1035.5859	3079.2308	2134.1	1241.25
1035.6945	3080.2438	2118.8	1226.05
1035.8031	3081.2561	2110.85	1220.45
1035.9117	3082.2678	2096.3	1204.55
1036.0202	3083.2789	2081.3	1190.55
1036.1286	3084.2893	2079.5	1188.6
1036.2371	3085.2991	2062.95	1173
1036.3454	3086.3083	2055.9	1161.4
1036.4538	3087.3169	2051.3	1159.1
1036.562	3088.3248	2039.1	1147.45
1036.6703	3089.3321	2043.35	1150.15
1036.7785	3090.3388	2025.35	1137.4
1036.8866	3091.3449	2011.95	1121.35
1036.9948	3092.3503	2005.55	1114.45
1037.1028	3093.3551	2012.7	1123.4
1037.2108	3094.3593	1997.65	1109.05
1037.3188	3095.3629	1980.85	1090.4
1037.4267	3096.3658	1978.55	1086.65
1037.5346	3097.3681	1965.4	1074.5
1037.6425	3098.3698	1970.35	1078.35
1037.7503	3099.3708	1962.5	1064.5
1037.858	3100.3713	1952.35	1062.85
1037.9657	3101.3711	1947.05	1056.5
1038.0734	3102.3702	2043.9	1037.15
1038.181	3103.3688	1930.9	1038.55
1038.2886	3104.3667	1923.4	1035.55
1038.3961	3105.364	1909.9	1020.4
1038.5036	3106.3607	1910.15	1018.45
1038.611	3107.3568	1906.2	1014.3
1038.7184	3108.3522	1898.9	1007.2
1038.8257	3109.347	1899.75	1007.9
1038.933	3110.3412	1878.95	984.15
1039.0403	3111.3348	1878.15	988.85
1039.1475	3112.3277	1867.9	979.5
1039.2547	3113.32	1863.55	974.6
1039.3618	3114.3117	1859.15	968.2
1039.4689	3115.3028	1858.65	969.2
1039.5759	3116.2932	1843.9	951.55
1039.6829	3117.2831	1839.95	944.25
1039.7898	3118.2723	1839.9	949.05
1039.8967	3119.2608	1833.55	943.15
1040.0035	3120.2488	1827.7	939.4
1040.1103	3121.2361	1822.9	933.5
1040.2171	3122.2229	1819.4	928.35
1040.3238	3123.209	1811.4	921.5
1040.4305	3124.1944	1802.4	914.8
1040.5371	3125.1793	1798	905.7
1040.6437	3126.1635	1796.45	906.6
1040.7502	3127.1471	1794.4	902.45
1040.8567	3128.1301	1778.2	887.55
1040.9631	3129.1125	1779.05	889
1041.0695	3130.0942	1785.55	895.65
1041.1759	3131.0753	1777.75	879.45
1041.2822	3132.0558	1776.3	880.95
1041.3884	3133.0357	1759.45	868.65
1041.4946	3134.015	1763.95	872.4
1041.6008	3134.9936	1757.2	866.35
1041.7069	3135.9716	1773.55	862
1041.813	3136.949	1746.15	854.5
1041.919	3137.9258	1750.4	855.35
1042.025	3138.902	1741	843.9
1042.1309	3139.8775	1748.55	858.35
1042.2368	3140.8524	1733.5	842.75
1042.3427	3141.8267	1723.1	830.95
1042.4485	3142.8004	1725.6	836.05
1042.5542	3143.7735	1728.35	831.7
1042.6599	3144.7459	1714.5	821.3
1042.7656	3145.7178	1714.65	825
1042.8712	3146.689	1711.35	820.75
1042.9768	3147.6596	1699.4	809.35
1043.0823	3148.6295	1700.25	810.9
1043.1878	3149.5989	1693.6	803.25
1043.2932	3150.5676	1677.65	785.6
1043.3986	3151.5357	1675.6	787.15
1043.5039	3152.5032	1671.85	782.6
1043.6092	3153.4701	1674.3	784.15
1043.7145	3154.4364	1672.7	780.65
1043.8197	3155.402	1665.15	775.7
1043.9248	3156.367	1656.95	764.15
1044.03	3157.3315	1694.35	762.1
1044.135	3158.2952	1650.7	759.55
1044.24	3159.2584	1644.9	752.95
1044.345	3160.221	1638.9	747.25
1044.4499	3161.1829	1637.05	746.75
1044.5548	3162.1442	1640.75	750.9
1044.6596	3163.105	1634.1	744
1044.7644	3164.065	1622.95	733.15
1044.8692	3165.0245	1623.25	731.65
1044.9739	3165.9834	1620.85	731.9
1045.0785	3166.9416	1613.7	723.9
1045.1831	3167.8993	1607.6	717.25
1045.2877	3168.8563	1600.25	708.6
1045.3922	3169.8127	1594.8	706
1045.4966	3170.7684	1588.95	700.35
1045.6011	3171.7236	1589.3	698.15
1045.7054	3172.6782	1586.75	698
1045.8098	3173.6321	1582.45	693.2
1045.914	3174.5854	1590.9	696.05
1046.0183	3175.5381	1584.75	693.4
1046.1224	3176.4902	1571.45	682.35
1046.2266	3177.4417	1570.95	682.2
1046.3307	3178.3926	1571.7	681.9
1046.4347	3179.3428	1558.9	671.15
1046.5387	3180.2924	1552.65	662.3
1046.6427	3181.2415	1550.5	659.35
1046.7466	3182.1899	1552.6	660.35
1046.8504	3183.1377	1552.65	663.5
1046.9542	3184.0848	1555.15	662.25
1047.058	3185.0314	1541.2	651.15
1047.1617	3185.9773	1534.65	643.7
1047.2654	3186.9227	1533.5	643.2
1047.369	3187.8674	1522.95	631.35
1047.4726	3188.8115	1530.35	637.95
1047.5761	3189.755	1520.7	629.55
1047.6796	3190.6979	1519.45	629.5
1047.783	3191.6402	1512.8	623.2
1047.8864	3192.5818	1509.95	620.15
1047.9898	3193.5229	1519.35	617.1
1048.0931	3194.4633	1513.1	621.75
1048.1963	3195.4031	1502	610.65
1048.2995	3196.3423	1497	605.85
1048.4027	3197.2809	1494.4	604.2
1048.5058	3198.2189	1489.5	599.85
1048.6089	3199.1563	1499.7	603.8
1048.7119	3200.0931	1486.85	595.5
1048.8148	3201.0292	1481.7	591.4
1048.9178	3201.9648	1482.65	593.35
1049.0206	3202.8997	1481.95	591.2
1049.1235	3203.834	1473.1	582.65
1049.2262	3204.7677	1469.85	578.3
1049.329	3205.7008	1472.9	581.8
1049.4317	3206.6333	1468.15	578.2
1049.5343	3207.5652	1461.35	569.2
1049.6369	3208.4964	1464.2	573.6
1049.7394	3209.4271	1455.65	566.9
1049.8419	3210.3571	1454.45	564.9
1049.9444	3211.2865	1448	556.45
1050.0468	3212.2154	1447.65	556.6
1050.1491	3213.1436	1455.7	563.55
1050.2514	3214.0712	1451.15	555.4
1050.3537	3214.9982	1437.6	549.6
1050.4559	3215.9246	1433.3	542.3
1050.5581	3216.8503	1429.15	540.35
1050.6602	3217.7755	1436.9	547.95
1050.7623	3218.7001	1434.35	544.95
1050.8643	3219.624	1431.35	542.3
1050.9663	3220.5473	1426.7	536.4
1051.0682	3221.4701	1422.65	530.95
1051.1701	3222.3922	1420.5	528.1
1051.2719	3223.3137	1415.45	525.6
1051.3737	3224.2346	1412.7	523.05
1051.4754	3225.1549	1417.15	527.55
1051.5771	3226.0746	1407.9	516.65
1051.6788	3226.9937	1405.75	517.8
1051.7804	3227.9121	1403.6	514.3
1051.8819	3228.83	1399.45	510.55
1051.9834	3229.7473	1401.5	510.7
1052.0849	3230.6639	1393.35	503.8
1052.1863	3231.5799	1385.4	493.5
1052.2876	3232.4954	1386.85	495.65
1052.3889	3233.4102	1383.4	492.25
1052.4902	3234.3244	1375.35	485.95
1052.5914	3235.238	1383.05	493.8
1052.6926	3236.151	1394.6	482.55
1052.7937	3237.0634	1372.55	483.45
1052.8948	3237.9752	1369.55	480.65
1052.9958	3238.8864	1371.3	481.65
1053.0968	3239.797	1362.5	472
1053.1977	3240.7069	1363.95	473.8
1053.2986	3241.6163	1355	462.1
1053.3994	3242.5251	1350.25	461.2
1053.5002	3243.4332	1351.15	462.4
1053.6009	3244.3408	1353.25	461.65
1053.7016	3245.2477	1350.95	460
1053.8022	3246.154	1349.25	457.35
1053.9028	3247.0598	1349.85	460.05
1054.0034	3247.9649	1346.15	455.55
1054.1039	3248.8694	1335.35	446.1
1054.2043	3249.7733	1333	443.6
1054.3047	3250.6766	1333.75	443.75
1054.4051	3251.5793	1329.2	438.75
1054.5054	3252.4814	1330.95	441.25
1054.6056	3253.3829	1325.95	436.9
1054.7058	3254.2838	1319.05	428.95
1054.806	3255.1841	1315.7	425.8
1054.9061	3256.0838	1312.05	421.35
1055.0061	3256.9829	1313.05	424.6
1055.1062	3257.8814	1310.25	418.6
1055.2061	3258.7792	1299.65	408.9
1055.306	3259.6765	1297.95	407.55
1055.4059	3260.5731	1287.25	397.95
1055.5057	3261.4692	1295.85	406.05
1055.6055	3262.3647	1280.9	391.05
1055.7052	3263.2595	1278.5	389.05
1055.8049	3264.1538	1276.05	386.35
1055.9045	3265.0474	1265.2	375.7
1056.0041	3265.9404	1260.25	372.45
1056.1036	3266.8329	1249.9	361.6
1056.2031	3267.7247	1258.4	358.7
1056.3025	3268.616	1243.4	354.55
1056.4019	3269.5066	1230.95	340.95
1056.5013	3270.3966	1227.8	336.95
1056.6005	3271.286	1215.95	326.3
