Software Version:	3.9.2.0
Unit SN:	10000200
Spectrometer SN:	6960
Date:	3/6/2024 10:12:49 AM
Data Line Index:	25
Spectral Points:	2048
Integration time (ms):	125
Averages:	20
Delay (ms):	30
Sequence Number:	1
Processing:	dark subtract
Laser Power (mW):	305
Laser Current (mA):	825
Laser Diode Temp (C):	25.1
Laser Case Temp (C):	24.9
System Temp (C):	24.7
Spectrometer Temp (C):	22.3
CCD Temp (C):	-0.006
Secondary Temp (C):	20.004
Heatsink Temp (C):	18.404
CCDPCB Temp (C):	32.083
SecondaryPCB Temp (C):	25.902

Wavelength	RamanShift	Raw Counts	Dark Subtracted
787.061	30.1047	1004.9	595.5
787.2016	32.3739	1030	623.2
787.3422	34.6426	1065.5	658
787.4828	36.9109	1097.15	689
787.6235	39.1787	1152.2	737.35
787.7642	41.4461	1207.4	789.05
787.9049	43.7131	1255.65	834.05
788.0456	45.9796	1307.35	883.6
788.1863	48.2456	1360.5	933.75
788.3271	50.5112	1419.85	987.75
788.4679	52.7764	1479.05	1044.05
788.6087	55.0411	1534.65	1094.8
788.7496	57.3054	1613.55	1167.85
788.8904	59.5692	1681.6	1234.35
789.0313	61.8326	1768.75	1319.25
789.1722	64.0955	1854.65	1403.35
789.3132	66.3579	1964.55	1508.6
789.4541	68.6199	2091.5	1631.15
789.5951	70.8815	2301.05	1835.7
789.7361	73.1426	2793.75	2323.95
789.8771	75.4032	4001.35	3527.7
790.0181	77.6634	7207.1	6728.9
790.1592	79.9231	15342.55	14858.85
790.3003	82.1824	46994.75	46498.35
790.4414	84.4412	65418.35	64904.05
790.5825	86.6995	65535	64993.55
790.7237	88.9574	65535	64971.8
790.8648	91.2148	65535	64958.9
791.006	93.4717	65535	64949.15
791.1472	95.7282	65535	64945.8
791.2885	97.9842	65535	64939.75
791.4297	100.2398	65535	64938.4
791.571	102.4949	65535	64937.3
791.7123	104.7495	65535	64929.3
791.8536	107.0036	65535	64929.35
791.9949	109.2573	65535	64929.5
792.1363	111.5105	65535	64927.3
792.2777	113.7632	65535	64926.25
792.4191	116.0154	65535	64915.35
792.5605	118.2672	65535	64922.55
792.7019	120.5185	65535	64922.45
792.8434	122.7693	65535	64915.7
792.9849	125.0197	65535	64911.9
793.1264	127.2696	65535	64907.25
793.2679	129.519	65535	64903.95
793.4094	131.7679	65535	64903.75
793.551	134.0163	65535	64897.15
793.6926	136.2642	65535	64895.75
793.8342	138.5117	65535	64893.05
793.9758	140.7587	65535	64893.75
794.1175	143.0052	65535	64887.8
794.2591	145.2512	65535	64887.7
794.4008	147.4967	65535	64884.9
794.5425	149.7417	65535	64883.4
794.6842	151.9863	65535	64880.1
794.826	154.2304	65535	64877.45
794.9677	156.4739	65535	64871.4
795.1095	158.717	65535	64871.75
795.2513	160.9596	65535	64866.9
795.3931	163.2017	65535	64864
795.535	165.4433	65535	64861.85
795.6768	167.6844	65535	64861.6
795.8187	169.925	65535	64860.7
795.9606	172.1651	65535	64857.4
796.1025	174.4047	65535	64853.45
796.2445	176.6439	65535	64853.85
796.3864	178.8825	65535	64844.1
796.5284	181.1206	65535	64841.05
796.6704	183.3582	65535	64838.2
796.8124	185.5954	65535	64838.3
796.9544	187.832	65535	64835.2
797.0965	190.0681	65535	64829.9
797.2386	192.3037	65535	64830.15
797.3806	194.5388	65535	64825.05
797.5228	196.7734	65535	64822.7
797.6649	199.0075	65535	64822.65
797.807	201.2411	65535	64821.95
797.9492	203.4742	65535	64815.4
798.0914	205.7068	65535	64813.4
798.2336	207.9389	65535	64815.4
798.3758	210.1704	65535	64823.4
798.518	212.4015	65535	64833.3
798.6603	214.632	65535	64833.8
798.8025	216.862	65535	64838.35
798.9448	219.0915	65535	64833.7
799.0871	221.3205	65535	64834.15
799.2294	223.549	65535	64836.35
799.3718	225.777	65535	64835.05
799.5141	228.0044	65535	64828.35
799.6565	230.2314	65535	64826.2
799.7989	232.4578	65535	64818.55
799.9413	234.6837	65535	64813.85
800.0837	236.909	65535	64812.2
800.2262	239.1339	65535	64789.45
800.3687	241.3582	65535	64801.45
800.5111	243.582	65535	64774.15
800.6536	245.8053	65535	64784.25
800.7961	248.0281	65535	64790.2
800.9387	250.2503	65535	64790.5
801.0812	252.472	65535	64789.5
801.2238	254.6932	65535	64786.2
801.3664	256.9139	65535	64785.95
801.509	259.134	65535	64782.35
801.6516	261.3536	65535	64784.85
801.7942	263.5727	65535	64777.15
801.9369	265.7912	65535	64781.95
802.0795	268.0092	65535	64780.1
802.2222	270.2267	65535	64776.25
802.3649	272.4436	65535	64776.2
802.5076	274.6601	65535	64766.55
802.6504	276.8759	65535	64775
802.7931	279.0913	65535	64770.2
802.9359	281.3061	65535	64767.9
803.0787	283.5204	65535	64769.2
803.2215	285.7341	65535	64764.05
803.3643	287.9473	65535	64754.15
803.5071	290.16	65535	64760.85
803.6499	292.3721	65535	64767.45
803.7928	294.5837	65535	64766.65
803.9357	296.7947	65535	64765.4
804.0786	299.0052	65535	64765.8
804.2215	301.2152	65535	64763.7
804.3644	303.4246	65535	64766.25
804.5074	305.6334	65535	64766.55
804.6503	307.8418	65535	64763.3
804.7933	310.0495	65535	64757.4
804.9363	312.2568	65535	64759.4
805.0793	314.4635	65535	64757.8
805.2223	316.6696	65535	64752.75
805.3653	318.8752	65535	64744.8
805.5084	321.0802	65535	64752.55
805.6514	323.2847	65535	64753.2
805.7945	325.4887	65535	64750.5
805.9376	327.692	65535	64750.25
806.0807	329.8949	65535	64748.3
806.2238	332.0972	65535	64745.1
806.367	334.2989	65535	64740.35
806.5101	336.5001	65535	64741.65
806.6533	338.7007	65535	64739.7
806.7965	340.9008	65535	64739.45
806.9397	343.1003	65535	64736.95
807.0829	345.2992	65535	64740.05
807.2261	347.4976	65535	64736.75
807.3693	349.6955	65535	64733.35
807.5126	351.8927	65535	64731.55
807.6559	354.0895	65535	64716.65
807.7991	356.2856	65535	64730.8
807.9424	358.4812	65535	64728.9
808.0857	360.6763	65535	64727.45
808.2291	362.8707	65535	64726.15
808.3724	365.0646	65535	64723.15
808.5158	367.258	65535	64722.8
808.6591	369.4508	65535	64718.95
808.8025	371.643	65535	64713.65
808.9459	373.8346	65535	64716.15
809.0893	376.0257	65535	64711.45
809.2327	378.2162	65535	64711.45
809.3762	380.4062	65535	64711.15
809.5196	382.5956	65535	64714.95
809.6631	384.7844	65535	64721.65
809.8066	386.9726	65535	64721.95
809.9501	389.1603	65535	64724.65
810.0936	391.3474	65535	64681.65
810.2371	393.5339	65535	64719.8
810.3806	395.7199	65535	64721.75
810.5241	397.9052	65535	64721.45
810.6677	400.09	65535	64722.25
810.8113	402.2743	65535	64722.2
810.9548	404.4579	65535	64720
811.0984	406.641	65535	64718.2
811.2421	408.8235	65535	64714.5
811.3857	411.0054	65535	64714.55
811.5293	413.1868	65535	64710.55
811.673	415.3675	65535	64705.5
811.8166	417.5477	65535	64707.05
811.9603	419.7273	65535	64701.7
812.104	421.9064	65535	64696.5
812.2477	424.0848	65535	64704.05
812.3914	426.2627	65535	64701.9
812.5351	428.4399	65535	64704.95
812.6788	430.6166	65535	64697.15
812.8226	432.7928	65535	64697.05
812.9663	434.9683	65535	64697.8
813.1101	437.1432	65535	64697.55
813.2539	439.3176	65535	64701.65
813.3977	441.4914	65535	64701.8
813.5415	443.6645	65535	64701.45
813.6853	445.8371	65535	64702.7
813.8291	448.0091	65535	64698.05
813.973	450.1806	65535	64699.9
814.1168	452.3514	65535	64693.7
814.2607	454.5216	65535	64688.35
814.4046	456.6913	65535	64695
814.5485	458.8603	65535	64694.4
814.6924	461.0288	65535	64700.05
814.8363	463.1967	65535	64696.45
814.9802	465.3639	65535	64696.05
815.1241	467.5306	65535	64694.4
815.2681	469.6967	65535	64697.4
815.412	471.8622	65535	64698.2
815.556	474.0271	65535	64695.1
815.7	476.1914	65535	64685.85
815.844	478.3551	65535	64692.05
815.988	480.5182	65535	64693.25
816.132	482.6807	65535	64696.15
816.276	484.8426	65535	64697.95
816.4201	487.0039	65535	64695.3
816.5641	489.1647	65535	64691.05
816.7082	491.3248	65535	64689.15
816.8522	493.4843	65535	64690.35
816.9963	495.6432	65535	64692.05
817.1404	497.8015	65535	64686.25
817.2845	499.9592	65535	64684.95
817.4286	502.1163	65535	64682.05
817.5727	504.2728	65535	64685.3
817.7168	506.4287	65535	64690.05
817.861	508.5839	65535	64685.65
818.0051	510.7386	65535	64686.6
818.1493	512.8927	65535	64682.2
818.2935	515.0461	65535	64684.9
818.4377	517.199	65535	64680.75
818.5818	519.3512	65535	64680.2
818.726	521.5029	65535	64679.55
818.8703	523.6539	65535	64680.65
819.0145	525.8043	65535	64680.8
819.1587	527.9541	65535	64678
819.303	530.1033	65535	64676.4
819.4472	532.2519	65535	64680.25
819.5915	534.3999	65535	64674.5
819.7357	536.5472	65535	64680.55
819.88	538.694	65535	64680.2
820.0243	540.8401	65535	64676.9
820.1686	542.9856	65535	64673.8
820.3129	545.1305	65535	64670.35
820.4572	547.2748	65535	64670.6
820.6016	549.4185	65535	64666.9
820.7459	551.5615	65535	64670.05
820.8902	553.704	65535	64668.4
821.0346	555.8458	65535	64673.9
821.1789	557.987	65535	64673.9
821.3233	560.1276	65535	64670.8
821.4677	562.2675	65535	64671.45
821.6121	564.4069	65535	64670.95
821.7565	566.5456	65535	64672.45
821.9009	568.6837	65535	64672
822.0453	570.8212	65535	64671.35
822.1897	572.958	65535	64671.45
822.3342	575.0942	65535	64671.9
822.4786	577.2299	65535	64670.35
822.6231	579.3648	65535	64678.6
822.7675	581.4992	65535	64679.05
822.912	583.6329	65535	64678
823.0565	585.766	65535	64675.4
823.201	587.8985	65535	64676.45
823.3454	590.0304	65535	64648
823.4899	592.1616	65535	64670.55
823.6345	594.2922	65535	64667.05
823.779	596.4222	65535	64667.3
823.9235	598.5515	65535	64665.45
824.068	600.6802	65535	64664.95
824.2126	602.8083	65535	64670
824.3571	604.9358	65535	64667
824.5017	607.0626	65535	64663.4
824.6462	609.1888	65535	64662.6
824.7908	611.3144	65535	64660.75
824.9354	613.4393	65535	64662.6
825.08	615.5636	65535	64661.55
825.2246	617.6873	65535	64662.1
825.3692	619.8103	65535	64664.3
825.5138	621.9327	65535	64660.9
825.6584	624.0544	65535	64660.2
825.803	626.1756	65535	64664.85
825.9477	628.2961	65535	64659.7
826.0923	630.4159	65535	64659.9
826.237	632.5351	65535	64658.4
826.3816	634.6537	65535	64658.4
826.5263	636.7716	65535	64657.1
826.6709	638.8889	65535	64656.15
826.8156	641.0056	65535	64658.7
826.9603	643.1216	65535	64652.8
827.105	645.237	65535	64657.35
827.2497	647.3518	65535	64660.2
827.3944	649.4659	65535	64662.15
827.5391	651.5793	65535	64662.55
827.6838	653.6922	65535	64660.8
827.8285	655.8043	65535	64660.05
827.9733	657.9159	65535	64658.1
828.118	660.0268	65535	64655.85
828.2627	662.137	65535	64656.6
828.4075	664.2466	65535	64654.95
828.5522	666.3556	65535	64655.15
828.697	668.4639	65535	64652.8
828.8418	670.5716	65535	64657.6
828.9865	672.6786	65535	64656.65
829.1313	674.785	65535	64654.1
829.2761	676.8907	65535	64653
829.4209	678.9958	65535	64661
829.5657	681.1002	65535	64650.7
829.7105	683.204	65535	64648.95
829.8553	685.3072	65535	64647.45
830.0001	687.4097	65535	64652
830.1449	689.5115	65535	64647.9
830.2898	691.6127	65535	64651.25
830.4346	693.7132	65535	64651.85
830.5794	695.8131	65535	64628.6
830.7243	697.9123	65535	64649.5
830.8691	700.0109	65535	64650.75
831.014	702.1089	65535	64649.95
831.1588	704.2061	65535	64653.25
831.3037	706.3028	65535	64646.85
831.4486	708.3987	65535	64647.45
831.5935	710.4941	65535	64649.45
831.7383	712.5887	65535	64647.9
831.8832	714.6827	65535	64644.8
832.0281	716.7761	65535	64651.3
832.173	718.8688	65535	64648.05
832.3179	720.9608	65535	64645.3
832.4628	723.0522	65535	64643.7
832.6077	725.1429	65535	64647.85
832.7527	727.233	65535	64647.65
832.8976	729.3224	65535	64648.6
833.0425	731.4112	65535	64644.8
833.1874	733.4993	65535	64645.8
833.3324	735.5867	65535	64642.8
833.4773	737.6735	65535	64643.4
833.6222	739.7596	65535	64644.3
833.7672	741.845	65535	64644.35
833.9122	743.9298	65535	64642.1
834.0571	746.014	65535	64645.9
834.2021	748.0974	65535	64639.65
834.347	750.1802	65535	64641.45
834.492	752.2624	65535	64642.85
834.637	754.3439	65535	64641.5
834.782	756.4247	65535	64634.5
834.9269	758.5048	65535	64642
835.0719	760.5843	65535	64641.35
835.2169	762.6631	65535	64642.3
835.3619	764.7413	65535	64643.75
835.5069	766.8188	65535	64641.55
835.6519	768.8956	65535	64638.5
835.7969	770.9718	65535	64641.9
835.9419	773.0473	65535	64641.65
836.0869	775.1221	65535	64639.25
836.232	777.1962	65535	64644.2
836.377	779.2697	65535	64638.45
836.522	781.3426	65535	64620.6
836.667	783.4147	65535	64639.05
836.8121	785.4862	65535	64642.3
836.9571	787.557	65535	64642.2
837.1021	789.6271	65535	64640.05
837.2472	791.6966	65535	64638.9
837.3922	793.7654	65535	64639.85
837.5373	795.8335	65535	64640.95
837.6823	797.901	65535	64640
837.8274	799.9678	65535	64637.8
837.9724	802.0339	65535	64637.6
838.1175	804.0993	65535	64630.1
838.2626	806.1641	65535	64638.85
838.4076	808.2282	65535	64637.55
838.5527	810.2916	65535	64636.35
838.6978	812.3544	65535	64641.55
838.8428	814.4164	65535	64639.8
838.9879	816.4778	65535	64635.25
839.133	818.5385	65535	64637.05
839.2781	820.5986	65535	64636.6
839.4232	822.658	65535	64635.75
839.5682	824.7166	65535	64639.7
839.7133	826.7747	65535	64639.45
839.8584	828.832	65535	64635.75
840.0035	830.8886	65535	64638.4
840.1486	832.9446	65535	64635.85
840.2937	834.9999	65535	64635.55
840.4388	837.0545	65535	64634
840.5839	839.1085	65535	64636.35
840.729	841.1618	65535	64633.3
840.8741	843.2143	65535	64636.4
841.0192	845.2662	65535	64636.35
841.1643	847.3175	65535	64637.7
841.3095	849.368	65535	64634.6
841.4546	851.4179	65535	64638.45
841.5997	853.467	65535	64635.95
841.7448	855.5155	65535	64633.8
841.8899	857.5633	65535	64634.8
842.0351	859.6105	65535	64636.7
842.1802	861.6569	65535	64636.55
842.3253	863.7027	65535	64631.5
842.4704	865.7478	65535	64632.8
842.6156	867.7922	65535	64635.25
842.7607	869.8359	65535	64633.35
842.9058	871.8789	65535	64635.85
843.0509	873.9212	65535	64601.8
843.1961	875.9629	65535	64631.25
843.3412	878.0039	65535	64631.5
843.4863	880.0441	65535	64636.55
843.6315	882.0837	65535	64634.85
843.7766	884.1226	65535	64632.05
843.9218	886.1609	65535	64635.8
844.0669	888.1984	65535	64632.45
844.212	890.2352	65535	64633.6
844.3572	892.2714	65535	64631.35
844.5023	894.3069	65535	64634.6
844.6475	896.3416	65535	64632.1
844.7926	898.3757	65535	64634.3
844.9377	900.4091	65535	64634.65
845.0829	902.4418	65535	64628.25
845.228	904.4739	65535	64626.95
845.3732	906.5052	65535	64630
845.5183	908.5358	65535	64631.85
845.6635	910.5658	65535	64631.7
845.8086	912.595	65535	64634.15
845.9538	914.6236	65535	64632.1
846.0989	916.6515	65535	64633.6
846.2441	918.6786	65535	64633.3
846.3892	920.7051	65535	64631.7
846.5344	922.7309	65535	64629.4
846.6795	924.756	65535	64632.3
846.8246	926.7804	65535	64627.5
846.9698	928.8041	65535	64631.3
847.1149	930.8272	65535	64630.7
847.2601	932.8495	65535	64629.8
847.4052	934.8711	65535	64630.6
847.5504	936.892	65535	64629.85
847.6955	938.9123	65535	64631.05
847.8407	940.9318	65535	64630.5
847.9858	942.9506	65535	64630.45
848.131	944.9688	65535	64630.75
848.2761	946.9862	65535	64629.4
848.4213	949.003	65535	64631.3
848.5664	951.019	65535	64629.2
848.7115	953.0344	65535	64631.05
848.8567	955.0491	65535	64629.5
849.0018	957.063	65535	64631.05
849.147	959.0763	65535	64632.2
849.2921	961.0888	65535	64630.15
849.4373	963.1007	65535	64630.2
849.5824	965.1119	65535	64632.95
849.7275	967.1223	65535	64633
849.8727	969.1321	65535	64639.3
850.0178	971.1412	65535	64633.6
850.1629	973.1495	65535	64630.75
850.3081	975.1572	65535	64592.75
850.4532	977.1641	65535	64630.55
850.5983	979.1704	65535	64629.25
850.7435	981.1759	65535	64626.05
850.8886	983.1808	65535	64628.4
851.0337	985.1849	65535	64620.25
851.1788	987.1884	65535	64629.55
851.324	989.1911	65535	64626.4
851.4691	991.1932	65535	64629.6
851.6142	993.1945	65535	64632.25
851.7593	995.1951	65535	64632.25
851.9045	997.1951	65535	64623
852.0496	999.1943	65535	64629.55
852.1947	1001.1928	65535	64627.25
852.3398	1003.1906	65535	64629.95
852.4849	1005.1877	65535	64628.95
852.63	1007.1841	65535	64632.05
852.7751	1009.1798	65535	64630.9
852.9202	1011.1748	65535	64630.4
853.0653	1013.1691	65535	64629.25
853.2104	1015.1627	65535	64630.85
853.3555	1017.1556	65535	64629.15
853.5006	1019.1477	65535	64631.85
853.6457	1021.1392	65535	64634.2
853.7908	1023.1299	65535	64632.5
853.9359	1025.12	65535	64635.7
854.081	1027.1093	65535	64644.4
854.2261	1029.0979	65535	64638.15
854.3712	1031.0859	65535	64640.3
854.5163	1033.0731	65535	64631.6
854.6613	1035.0596	65535	64635.2
854.8064	1037.0454	65535	64632.25
854.9515	1039.0304	65535	64628.95
855.0965	1041.0148	65535	64630.55
855.2416	1042.9985	65535	64627.7
855.3867	1044.9814	65535	64632.05
855.5317	1046.9636	65535	64630.1
855.6768	1048.9452	65535	64633.1
855.8219	1050.926	65535	64632.6
855.9669	1052.9061	65535	64631.9
856.112	1054.8855	65535	64631.1
856.257	1056.8642	65535	64632.8
856.4021	1058.8421	65535	64625.6
856.5471	1060.8194	65535	64627.55
856.6921	1062.7959	65535	64631.4
856.8372	1064.7717	65535	64630.1
856.9822	1066.7469	65535	64630.8
857.1272	1068.7213	65535	64629.7
857.2723	1070.695	65535	64629.05
857.4173	1072.6679	65535	64630.55
857.5623	1074.6402	65535	64632.35
857.7073	1076.6117	65535	64624.2
857.8523	1078.5826	65535	64630.25
857.9973	1080.5527	65535	64626.05
858.1423	1082.5221	65535	64629.75
858.2873	1084.4908	65535	64632.2
858.4323	1086.4587	65535	64631.4
858.5773	1088.426	65535	64629.7
858.7223	1090.3925	65535	64625
858.8673	1092.3584	65535	64631.25
859.0123	1094.3235	65535	64632.4
859.1573	1096.2879	65535	64632.5
859.3022	1098.2515	65535	64632.8
859.4472	1100.2145	65535	64629.2
859.5922	1102.1767	65535	64629.3
859.7371	1104.1382	65535	64629.6
859.8821	1106.099	65535	64628.55
860.027	1108.0591	65535	64630.95
860.172	1110.0185	65535	64628.15
860.3169	1111.9771	65535	64629.7
860.4619	1113.9351	65535	64629.15
860.6068	1115.8923	65535	64626.95
860.7517	1117.8488	65535	64626.1
860.8967	1119.8045	65535	64630.2
861.0416	1121.7596	65535	64631.55
861.1865	1123.7139	65535	64631.55
861.3314	1125.6675	65535	64629.4
861.4763	1127.6204	65535	64631.85
861.6212	1129.5726	65535	64626.9
861.7661	1131.524	65535	64628
861.911	1133.4748	65535	64629.8
862.0559	1135.4248	65535	64630.2
862.2008	1137.3741	65535	64630.2
862.3457	1139.3226	65535	64629.05
862.4905	1141.2705	65535	64629.75
862.6354	1143.2176	65535	64623.15
862.7803	1145.164	65535	64629.5
862.9251	1147.1097	65535	64632.35
863.07	1149.0546	65535	64627.05
863.2148	1150.9989	65535	64629.25
863.3597	1152.9424	65535	64630.85
863.5045	1154.8852	65535	64630
863.6493	1156.8272	65535	64629.8
863.7942	1158.7686	65535	64621.6
863.939	1160.7092	65535	64630.25
864.0838	1162.6491	65535	64626.75
864.2286	1164.5883	65535	64630.1
864.3734	1166.5267	65535	64627.9
864.5182	1168.4644	65535	64631.6
864.663	1170.4014	65535	64625.55
864.8078	1172.3377	65535	64633.15
864.9526	1174.2732	65535	64631.3
865.0974	1176.2081	65535	64631.2
865.2421	1178.1421	65535	64628.3
865.3869	1180.0755	65535	64632.6
865.5317	1182.0082	65535	64630.25
865.6764	1183.9401	65535	64630.75
865.8212	1185.8713	65535	64635.65
865.9659	1187.8017	65535	64634.55
866.1106	1189.7315	65535	64635.6
866.2554	1191.6605	65535	64609.8
866.4001	1193.5888	65535	64637.15
866.5448	1195.5163	65535	64635.4
866.6895	1197.4432	65535	64629.85
866.8342	1199.3693	65535	64631.75
866.9789	1201.2947	65535	64628.95
867.1236	1203.2193	65535	64631.4
867.2683	1205.1432	65535	64632.2
867.413	1207.0664	65535	64632.3
867.5576	1208.9889	65535	64629.35
867.7023	1210.9106	65535	64632.7
867.847	1212.8316	65535	64632.45
867.9916	1214.7519	65535	64622.2
868.1363	1216.6715	65535	64632.5
868.2809	1218.5903	65535	64631.2
868.4255	1220.5084	65535	64632.6
868.5701	1222.4257	65535	64632.75
868.7148	1224.3424	65535	64634.3
868.8594	1226.2583	65535	64626
869.004	1228.1735	65535	64631.45
869.1486	1230.0879	65535	64632.1
869.2932	1232.0016	65535	64631.5
869.4377	1233.9146	65535	64630.1
869.5823	1235.8269	65535	64632.9
869.7269	1237.7384	65535	64632.95
869.8715	1239.6492	65535	64630.8
870.016	1241.5592	65535	64628.85
870.1606	1243.4686	65535	64632.7
870.3051	1245.3772	65535	64634.5
870.4496	1247.285	65535	64631.7
870.5941	1249.1922	65535	64631.4
870.7387	1251.0986	65535	64631.95
870.8832	1253.0042	65535	64635.8
871.0277	1254.9092	65535	64636.15
871.1722	1256.8134	65535	64633.05
871.3167	1258.7169	65535	64630.9
871.4611	1260.6196	65535	64634.55
871.6056	1262.5216	65535	64632.85
871.7501	1264.4229	65535	64631.65
871.8945	1266.3234	65535	64632.7
872.039	1268.2232	65535	64630.85
872.1834	1270.1223	65535	64630.2
872.3278	1272.0207	65535	64630.15
872.4723	1273.9183	65535	64627.1
872.6167	1275.8151	65535	64632.9
872.7611	1277.7113	65535	64631.95
872.9055	1279.6067	65535	64632.2
873.0499	1281.5014	65535	64630.35
873.1943	1283.3953	65535	64631.5
873.3386	1285.2885	65535	64634.95
873.483	1287.181	65535	64634.15
873.6274	1289.0727	65535	64633.7
873.7717	1290.9637	65535	64630.85
873.9161	1292.854	65535	64631.9
874.0604	1294.7435	65535	64633
874.2047	1296.6323	65535	64630.85
874.349	1298.5204	65535	64629.15
874.4933	1300.4077	65535	64631.4
874.6376	1302.2943	65535	64634.3
874.7819	1304.1802	65535	64633.9
874.9262	1306.0653	65535	64629.75
875.0705	1307.9497	65535	64630.25
875.2147	1309.8333	65535	64633.6
875.359	1311.7162	65535	64629.15
875.5032	1313.5984	65535	64629.8
875.6475	1315.4798	65535	64616.25
875.7917	1317.3605	65535	64614.55
875.9359	1319.2405	65535	64632.9
876.0801	1321.1197	65535	64631.85
876.2243	1322.9982	65535	64629.4
876.3685	1324.876	65535	64633.25
876.5127	1326.753	65535	64632.4
876.6569	1328.6293	65535	64630.6
876.801	1330.5048	65535	64629.3
876.9452	1332.3796	65535	64630.55
877.0893	1334.2537	65535	64605.75
877.2335	1336.127	65535	64634.1
877.3776	1337.9996	65535	64633.65
877.5217	1339.8714	65535	64630.4
877.6658	1341.7426	65535	64587.55
877.8099	1343.6129	65535	64629.65
877.954	1345.4826	65535	64632.4
878.0981	1347.3515	65535	64629.05
878.2422	1349.2196	65535	64629.85
878.3862	1351.087	65535	64631
878.5303	1352.9537	65535	64630.95
878.6743	1354.8197	65535	64631.35
878.8184	1356.6849	65535	64630.3
878.9624	1358.5493	65535	64632.3
879.1064	1360.4131	65535	64631.7
879.2504	1362.276	65535	64633.35
879.3944	1364.1383	65535	64632.95
879.5384	1365.9998	65535	64625.95
879.6823	1367.8606	65535	64632.7
879.8263	1369.7206	65535	64631.35
879.9702	1371.5799	65535	64629.7
880.1142	1373.4384	65535	64631.4
880.2581	1375.2962	65535	64633.5
880.402	1377.1533	65535	64633.15
880.5459	1379.0096	65535	64631.55
880.6898	1380.8652	65535	64636.25
880.8337	1382.7201	65535	64634.5
880.9776	1384.5742	65535	64633.6
881.1215	1386.4275	65535	64632.35
881.2653	1388.2802	65535	64633.15
881.4092	1390.132	65535	64630.75
881.553	1391.9832	65535	64631.85
881.6968	1393.8336	65535	64629.95
881.8406	1395.6832	65535	64630.25
881.9844	1397.5322	65535	64632.55
882.1282	1399.3803	65535	64628.95
882.272	1401.2278	65535	64632.45
882.4158	1403.0745	65535	64636.25
882.5595	1404.9204	65535	64634.3
882.7033	1406.7656	65535	64631.75
882.847	1408.6101	65535	64634.3
882.9908	1410.4538	65535	64632.6
883.1345	1412.2968	65535	64633.7
883.2782	1414.139	65535	64632.1
883.4219	1415.9805	65535	64636.05
883.5656	1417.8213	65535	64626.35
883.7092	1419.6613	65535	64634.45
883.8529	1421.5006	65535	64634.55
883.9965	1423.3391	65531.85	64631
884.1402	1425.1769	65535	64630.65
884.2838	1427.0139	65535	64632.1
884.4274	1428.8502	65535	64632.4
884.571	1430.6858	65532.55	64628.85
884.7146	1432.5206	65535	64635.9
884.8582	1434.3547	65535	64629.8
885.0018	1436.188	65528.6	64626.8
885.1453	1438.0206	65535	64632.55
885.2889	1439.8524	65534.6	64634.65
885.4324	1441.6835	65528.4	64628.3
885.5759	1443.5139	65535	64632.1
885.7194	1445.3435	65529.4	64627.4
885.8629	1447.1724	65530.95	64632.05
886.0064	1449.0005	65512.25	64611.5
886.1499	1450.8279	65524.1	64622.85
886.2933	1452.6545	65522.25	64623.3
886.4368	1454.4804	65521.2	64620.3
886.5802	1456.3056	65510.3	64600.9
886.7237	1458.13	65521.25	64620.5
886.8671	1459.9536	65530.5	64630.1
887.0105	1461.7766	65499.5	64596.8
887.1539	1463.5987	65467.45	64566.15
887.2972	1465.4202	65490.6	64589.3
887.4406	1467.2409	65475.7	64571.05
887.584	1469.0608	65420.05	64521.6
887.7273	1470.88	65437.15	64535.1
887.8706	1472.6984	65442.2	64541
888.0139	1474.5161	65380.65	64477.65
888.1572	1476.3331	65412.55	64510.85
888.3005	1478.1493	65383.05	64480.55
888.4438	1479.9648	65354.5	64454.9
888.5871	1481.7795	65390.05	64489.3
888.7303	1483.5935	65392.1	64492.95
888.8736	1485.4067	65336.7	64435.05
889.0168	1487.2192	65359.3	64457.35
889.16	1489.031	65310.25	64407.85
889.3032	1490.842	65333.15	64433.8
889.4464	1492.6522	65353.25	64452.55
889.5896	1494.4618	65313.35	64412.4
889.7327	1496.2705	65340.1	64439.4
889.8759	1498.0785	65193.7	64293.95
890.019	1499.8858	65286.5	64385.6
890.1622	1501.6924	65341.65	64438.35
890.3053	1503.4981	65232.55	64333.8
890.4484	1505.3032	65281.95	64384.65
890.5914	1507.1075	65207.6	64308.55
890.7345	1508.911	65228.55	64328.25
890.8776	1510.7138	65205.85	64304.8
891.0206	1512.5159	65246	64347.4
891.1637	1514.3172	65071.7	64172.95
891.3067	1516.1178	65118.6	64220.15
891.4497	1517.9176	65181.6	64280.55
891.5927	1519.7166	65097.65	64199.6
891.7357	1521.515	65072.5	64168.05
891.8786	1523.3126	65004.1	64104.05
892.0216	1525.1094	65093.25	64195.55
892.1645	1526.9055	65031.25	64132.95
892.3074	1528.7008	65060.8	64163.35
892.4503	1530.4954	64974.1	64076.6
892.5932	1532.2893	65048.25	64150.55
892.7361	1534.0824	64946.45	64045.6
892.879	1535.8747	64888.6	63990.55
893.0218	1537.6663	65041.6	64143.9
893.1647	1539.4572	64814.15	63916.6
893.3075	1541.2473	64916.95	64017.05
893.4503	1543.0367	64862.35	63967.4
893.5931	1544.8253	64837.7	63935.1
893.7359	1546.6132	64880.6	63979.2
893.8787	1548.4003	64822.8	63917.35
894.0214	1550.1867	64799.75	63891.55
894.1642	1551.9723	64791.05	63888.2
894.3069	1553.7572	64786.6	63888.95
894.4496	1555.5414	64822.5	63926.85
894.5923	1557.3247	64707.75	63812.05
894.735	1559.1074	64792.95	63900
894.8777	1560.8893	64757.9	63864.35
895.0204	1562.6705	64765.85	63869.85
895.163	1564.4509	64697.5	63802.6
895.3056	1566.2305	64727	63831.75
895.4482	1568.0094	64789.15	63898
895.5908	1569.7876	64726.9	63831.85
895.7334	1571.565	64648.35	63751.85
895.876	1573.3417	64681.3	63784.8
896.0186	1575.1176	64674.35	63783.55
896.1611	1576.8928	64663.4	63769.85
896.3036	1578.6672	64608.95	63717.8
896.4461	1580.4409	64626.95	63738.2
896.5886	1582.2138	64590.45	63695.75
896.7311	1583.986	64614.45	63721.5
896.8736	1585.7575	64535.6	63643.5
897.0161	1587.5282	64562.8	63672.25
897.1585	1589.2981	64552.85	63662.1
897.3009	1591.0673	64496	63603.4
897.4433	1592.8358	64475.55	63584.35
897.5857	1594.6035	64529.15	63635
897.7281	1596.3704	64526.35	63632.8
897.8705	1598.1366	64419.3	63529.55
898.0128	1599.9021	64379.25	63487.45
898.1551	1601.6668	64449.85	63555.8
898.2975	1603.4308	64402.3	63509.7
898.4398	1605.194	64433.35	63535.55
898.5821	1606.9564	64268.1	63376.85
898.7243	1608.7182	64357.5	63464.4
898.8666	1610.4791	64305.25	63419.55
899.0088	1612.2394	64379.6	63493.05
899.1511	1613.9988	64297.35	63407.45
899.2933	1615.7576	64368.35	63478.25
899.4355	1617.5156	64346.55	63451.2
899.5776	1619.2728	64432.45	63538.4
899.7198	1621.0293	64255.55	63362.9
899.862	1622.785	64239.1	63345.05
900.0041	1624.54	64297.65	63406.7
900.1462	1626.2942	64192.25	63303.55
900.2883	1628.0477	64012.05	63119.55
900.4304	1629.8005	63927.2	63033.4
900.5725	1631.5525	64040.15	63151.8
900.7145	1633.3037	63860.6	62973.25
900.8566	1635.0542	63840.65	62953.55
900.9986	1636.804	63911.75	63020.9
901.1406	1638.553	63758.6	62788.05
901.2826	1640.3013	63789.05	62899.95
901.4245	1642.0488	63669.2	62778.75
901.5665	1643.7955	63732.4	62847.15
901.7085	1645.5416	63670.6	62781.2
901.8504	1647.2868	63605.4	62716.3
901.9923	1649.0313	63723.05	62834.6
902.1342	1650.7751	63652.75	62761.8
902.2761	1652.5181	63575.35	62688.05
902.4179	1654.2604	63575.5	62685
902.5598	1656.0019	63605.95	62721.4
902.7016	1657.7427	63558.85	62671.4
902.8434	1659.4828	63623.95	62735.2
902.9852	1661.222	63543.9	62652.85
903.127	1662.9606	63599.9	62711.35
903.2687	1664.6984	63503.8	62612.1
903.4105	1666.4354	63528.85	62638.45
903.5522	1668.1717	63349	62457.7
903.6939	1669.9072	63166.9	62276.5
903.8356	1671.642	63171.6	62278.45
903.9773	1673.3761	63097.9	62210
904.119	1675.1094	63029.35	62140.9
904.2606	1676.8419	62854.55	61966.35
904.4022	1678.5737	62849.45	61960.3
904.5439	1680.3048	62775.55	61883.8
904.6855	1682.0351	62702.6	61814
904.827	1683.7646	62661	61768.65
904.9686	1685.4934	62679.95	61791.45
905.1101	1687.2215	62440.45	61551.25
905.2517	1688.9488	62585.55	61698.65
905.3932	1690.6754	62227.1	61340
905.5347	1692.4012	62392.6	61502.55
905.6761	1694.1263	62386.5	61496.25
905.8176	1695.8506	62218.25	61327
905.9591	1697.5742	62251.1	61363.5
906.1005	1699.297	62192.85	61306.45
906.2419	1701.0191	62199.25	61312.1
906.3833	1702.7404	61939.05	61051.2
906.5246	1704.461	61813.95	60924.25
906.666	1706.1808	61978	61089.15
906.8073	1707.8999	61865.7	60977.3
906.9487	1709.6182	61771.55	60884.25
907.09	1711.3358	61706.15	60822.05
907.2313	1713.0527	61661.5	60775.45
907.3725	1714.7688	61681.95	60787.95
907.5138	1716.4841	61226.3	60335.95
907.655	1718.1987	61344	60451.05
907.7962	1719.9126	61209.95	60322.45
907.9374	1721.6257	61307.05	60418.4
908.0786	1723.338	61321.3	60434.55
908.2198	1725.0496	60678.75	59790.25
908.3609	1726.7605	60769.65	59881.5
908.502	1728.4706	60519.2	59633.85
908.6431	1730.18	60799.75	59912.85
908.7842	1731.8886	60432	59546.7
908.9253	1733.5964	60273.9	59381.6
909.0664	1735.3036	60616.65	59726.05
909.2074	1737.0099	60330.65	59443.2
909.3484	1738.7156	60030	59144.6
909.4894	1740.4204	59954.55	59066.45
909.6304	1742.1246	60049.15	59161.45
909.7714	1743.8279	60129.65	59242.6
909.9123	1745.5306	60058.4	59173.05
910.0532	1747.2325	59251.6	58366.4
910.1941	1748.9336	59273.05	58387.35
910.335	1750.634	59481.05	58591.75
910.4759	1752.3336	59689.3	58802.45
910.6168	1754.0325	59066.15	58182.5
910.7576	1755.7307	59618.45	58734.55
910.8984	1757.4281	58890.95	58004.05
911.0392	1759.1247	59396.2	58499.95
911.18	1760.8206	58589.5	57698.25
911.3208	1762.5158	58654.9	57762.6
911.4615	1764.2102	58813.7	57929.35
911.6022	1765.9039	58642.35	57755.25
911.7429	1767.5968	58482.7	57597.6
911.8836	1769.289	58340.25	57454.5
912.0243	1770.9804	58462.45	57573.9
912.1649	1772.6711	58357.85	57471.55
912.3056	1774.361	58175.7	57290.15
912.4462	1776.0502	58183.15	57297.6
912.5868	1777.7386	57632.9	56743.7
912.7274	1779.4263	57879.9	56994.25
912.8679	1781.1132	57814.55	56928.95
913.0084	1782.7994	57637.65	56752.9
913.149	1784.4849	57713.05	56828.75
913.2895	1786.1696	57033.05	56140.95
913.4299	1787.8535	57430.9	56545.65
913.5704	1789.5367	57488.6	56606.2
913.7108	1791.2192	57038.2	56153.9
913.8513	1792.9009	56728.15	55814.9
913.9917	1794.5818	57052.65	56166.35
914.132	1796.2621	56630.85	55746.15
914.2724	1797.9415	56665.6	55780.35
914.4128	1799.6202	56554.95	55667.85
914.5531	1801.2982	56580.85	55693.05
914.6934	1802.9755	56144.9	55258.95
914.8337	1804.6519	55989.75	55102.85
914.9739	1806.3277	56559.8	55676.75
915.1142	1808.0027	55550.45	54665.75
915.2544	1809.6769	55914.2	55030.8
915.3946	1811.3504	56005.7	55121.2
915.5348	1813.0231	55217.45	54331
915.675	1814.6951	55642.6	54759.65
915.8151	1816.3664	55316.9	54429
915.9553	1818.0369	55374.5	54491.35
916.0954	1819.7067	55114.6	54228.1
916.2355	1821.3757	55491.55	54604.35
916.3755	1823.044	54851.45	53968.1
916.5156	1824.7115	54534.4	53648.45
916.6556	1826.3783	54653.05	53768.05
916.7956	1828.0443	54633.4	53750.05
916.9356	1829.7096	54394.25	53508.7
917.0756	1831.3741	53952.5	53062.9
917.2155	1833.0379	54176.6	53293.35
917.3555	1834.701	54073.85	53187.95
917.4954	1836.3633	53740.2	52856.8
917.6353	1838.0248	53923	53036.4
917.7751	1839.6856	53769.65	52884.95
917.915	1841.3457	53439.45	52552.3
918.0548	1843.005	53797.8	52912.35
918.1946	1844.6636	53502.1	52616.4
918.3344	1846.3214	52955.65	52068.8
918.4742	1847.9785	53088.6	52202.6
918.6139	1849.6349	52995.15	52108.1
918.7537	1851.2904	53249.15	52352.05
918.8934	1852.9453	52663.4	51776.5
919.0331	1854.5994	52851.05	51962.55
919.1727	1856.2528	52886.15	51994.1
919.3124	1857.9054	52442.5	51556.1
919.452	1859.5572	52323	51437.8
919.5916	1861.2083	52433.2	51547.3
919.7312	1862.8587	52788.75	51903
919.8708	1864.5084	51771.5	50886.85
920.0103	1866.1572	52131.1	51246
920.1498	1867.8054	51575.5	50688
920.2893	1869.4528	51866.75	50979.65
920.4288	1871.0994	51438.65	50553.65
920.5683	1872.7453	51363.7	50475.8
920.7077	1874.3905	51507.55	50613.45
920.8471	1876.0349	51080.5	50193.15
920.9865	1877.6786	51294.8	50409.75
921.1259	1879.3215	50960.8	50074.55
921.2653	1880.9637	51210.15	50322.35
921.4046	1882.6051	50870.7	49985.05
921.5439	1884.2458	50645.45	49758.25
921.6832	1885.8858	50328.95	49443.15
921.8225	1887.525	50467.8	49581.85
921.9617	1889.1634	50330.35	49443.25
922.101	1890.8011	50133	49247
922.2402	1892.4381	49719.15	48833.1
922.3794	1894.0743	50119.45	49236.2
922.5185	1895.7098	49822.3	48935.5
922.6577	1897.3446	49599	48712.3
922.7968	1898.9786	49631.35	48743.35
922.9359	1900.6118	49362.55	48476.7
923.075	1902.2443	49046.65	48158.8
923.214	1903.8761	49262.35	48376.4
923.3531	1905.5071	48898.6	48012.15
923.4921	1907.1374	48480.25	47595.25
923.6311	1908.7669	48578.35	47693.15
923.77	1910.3957	48659.65	47775.65
923.909	1912.0237	48186.6	47301
924.0479	1913.651	48061.05	47173.75
924.1868	1915.2776	47939.4	47055.05
924.3257	1916.9034	47825.9	46942.4
924.4646	1918.5285	47562.8	46680
924.6034	1920.1528	47423.1	46535.5
924.7422	1921.7764	47388.55	46503.2
924.881	1923.3992	47260.15	46376.8
925.0198	1925.0213	46932	46045.65
925.1586	1926.6427	46594.55	45710.35
925.2973	1928.2633	46815.35	45725.65
925.436	1929.8832	46507.15	45619.25
925.5747	1931.5023	46326.45	45440.65
925.7134	1933.1207	46102.5	45217.8
925.852	1934.7383	46105.4	45217.75
925.9906	1936.3552	45851.7	44968.8
926.1292	1937.9714	45784.4	44897.7
926.2678	1939.5868	45669	44783.65
926.4064	1941.2015	45344.45	44461.4
926.5449	1942.8154	45154.85	44268.4
926.6834	1944.4286	45030.3	44147.3
926.8219	1946.041	44919.15	44009.55
926.9604	1947.6528	44653.7	43763
927.0988	1949.2637	44579.95	43696.65
927.2372	1950.8739	44361.15	43476.6
927.3756	1952.4834	44371.2	43487.6
927.514	1954.0921	44291.95	43404.65
927.6523	1955.7001	44053.15	43165.7
927.7907	1957.3074	44016.25	43134.9
927.929	1958.9139	43730.85	42847.15
928.0673	1960.5197	43664.1	42781.15
928.2055	1962.1247	43482.95	42599.5
928.3438	1963.729	43207.65	42325.45
928.482	1965.3325	43121.15	42215.65
928.6202	1966.9353	43001.15	42119.15
928.7584	1968.5374	42837.15	41951.9
928.8965	1970.1387	42663.6	41780.35
929.0346	1971.7393	42563.6	41679.7
929.1727	1973.3392	42434.05	41552.35
929.3108	1974.9383	42193.95	41311
929.4489	1976.5366	42047.15	41164.15
929.5869	1978.1342	42054	41169.45
929.7249	1979.7311	41904.9	41020.25
929.8629	1981.3273	41770.25	40886.5
930.0009	1982.9227	41625.95	40741.8
930.1388	1984.5173	41520	40638.5
930.2767	1986.1112	41295.75	40413.85
930.4146	1987.7044	41312	40431.75
930.5525	1989.2968	41052.6	40170.05
930.6904	1990.8885	41001.5	40115.4
930.8282	1992.4795	40836.25	39954.6
930.966	1994.0697	40716.75	39834.1
931.1038	1995.6592	40604.9	39722.15
931.2415	1997.2479	40476.9	39593.35
931.3793	1998.8359	40316.45	39432.95
931.517	2000.4232	40174.2	39293.9
931.6547	2002.0097	40072.85	39192.75
931.7923	2003.5955	39905.75	39025.05
931.93	2005.1805	39865	38982.65
932.0676	2006.7648	39766.45	38886.5
932.2052	2008.3484	39571.45	38687.95
932.3427	2009.9312	39596.75	38713.5
932.4803	2011.5133	39438	38558.25
932.6178	2013.0946	39295.3	38413.65
932.7553	2014.6752	39219.15	38339.2
932.8928	2016.2551	39092.65	38210.3
933.0302	2017.8342	38949	38067.8
933.1676	2019.4126	38813	37933.95
933.305	2020.9902	38679.1	37798.65
933.4424	2022.5672	38565.45	37683.15
933.5798	2024.1433	38523.5	37640
933.7171	2025.7188	38341.65	37460.85
933.8544	2027.2935	38258.45	37374.35
933.9917	2028.8674	38098.85	37216.4
934.129	2030.4406	37951.65	37071.95
934.2662	2032.0131	37816.2	36937.55
934.4034	2033.5849	37676.15	36789.65
934.5406	2035.1559	37540.9	36660.5
934.6778	2036.7261	37550.2	36670.85
934.8149	2038.2957	37372.85	36492
934.952	2039.8645	37335.45	36453.8
935.0891	2041.4325	37355.1	36470.7
935.2262	2042.9998	37146.15	36265.55
935.3632	2044.5664	37085.55	36202.65
935.5002	2046.1323	36936.2	36055.65
935.6372	2047.6974	36807.1	35926.1
935.7742	2049.2617	36699.15	35821
935.9111	2050.8254	36709.75	35824.2
936.048	2052.3883	36621.4	35739.2
936.1849	2053.9504	36500.05	35617.3
936.3218	2055.5118	36351.7	35469.15
936.4586	2057.0725	36148.55	35264.3
936.5955	2058.6325	36107.35	35225.95
936.7323	2060.1917	35987.15	35106.2
936.869	2061.7502	35904.2	35020.15
937.0058	2063.3079	35776.65	34896
937.1425	2064.8649	35634.5	34748.95
937.2792	2066.4212	35580.85	34699.35
937.4159	2067.9767	35483.7	34603.65
937.5525	2069.5315	35301.95	34422.35
937.6891	2071.0856	35142.05	34258.8
937.8257	2072.6389	35000.25	34118.75
937.9623	2074.1915	34821.3	33942.3
938.0989	2075.7433	34662.4	33779.75
938.2354	2077.2945	34645.5	33764.65
938.3719	2078.8448	34553.95	33672.75
938.5084	2080.3945	34392.8	33511.65
938.6448	2081.9434	34341.9	33460.15
938.7812	2083.4916	34249.35	33365.65
938.9176	2085.039	34092.35	33206.4
939.054	2086.5857	34002.8	33120.45
939.1903	2088.1317	33962.8	33077.65
939.3267	2089.677	33869.7	32986.2
939.463	2091.2215	33790.1	32906.5
939.5992	2092.7652	33715.55	32831.2
939.7355	2094.3083	33561.6	32677.95
939.8717	2095.8506	33525.75	32643.35
940.0079	2097.3921	33476.9	32595.05
940.1441	2098.933	33345.8	32463.4
940.2802	2100.4731	33220.5	32339.3
940.4163	2102.0124	33215.3	32314.65
940.5524	2103.5511	33140.65	32258.5
940.6885	2105.089	33080.65	32196.5
940.8245	2106.6261	33004.15	32121.85
940.9606	2108.1626	32877.55	31994.6
941.0965	2109.6983	32825.2	31914.2
941.2325	2111.2332	32702.85	31820.65
941.3684	2112.7675	32598.75	31715.7
941.5044	2114.301	32532.45	31647.9
941.6403	2115.8337	32521.9	31639.75
941.7761	2117.3657	32375.15	31492.35
941.912	2118.897	32313.55	31430.15
942.0478	2120.4276	32153.55	31265.7
942.1835	2121.9575	32020.9	31138.2
942.3193	2123.4866	32054.2	31155.2
942.455	2125.0149	31916.1	31030.35
942.5907	2126.5426	31725.95	30844.05
942.7264	2128.0695	31670.05	30783.15
942.8621	2129.5956	31641.85	30762.3
942.9977	2131.1211	31564.25	30676.65
943.1333	2132.6458	31455.9	30575.65
943.2689	2134.1698	31467.1	30584.5
943.4044	2135.693	31372.35	30487.25
943.54	2137.2155	31260.85	30376.35
943.6755	2138.7373	31182.4	30300.05
943.8109	2140.2584	31085.8	30205.35
943.9464	2141.7787	30902.25	30016.15
944.0818	2143.2983	30825.95	29945.7
944.2172	2144.8171	30590.95	29710.05
944.3526	2146.3353	30524.1	29641.4
944.4879	2147.8527	30447.6	29567.7
944.6232	2149.3693	30394.1	29512.2
944.7585	2150.8853	30295.15	29412.75
944.8938	2152.4005	30136.75	29254.75
945.029	2153.9149	30116.9	29233.05
945.1642	2155.4287	30007.9	29126.4
945.2994	2156.9417	29921.35	29036.4
945.4346	2158.454	29850.8	28965
945.5697	2159.9655	29830.15	28951.25
945.7048	2161.4764	29778.2	28895.75
945.8399	2162.9865	29635.5	28754.65
945.9749	2164.4958	29550.8	28668.85
946.1099	2166.0045	29371.6	28487.7
946.2449	2167.5124	29408.7	28527.5
946.3799	2169.0195	29317.2	28436.8
946.5148	2170.526	29225.6	28342.45
946.6498	2172.0317	29166.85	28283.6
946.7846	2173.5367	29079.15	28192.9
946.9195	2175.0409	28954.95	28072.55
947.0543	2176.5445	28950.15	28067.95
947.1891	2178.0473	28851.3	27969.35
947.3239	2179.5494	28702.4	27816.15
947.4587	2181.0507	28591.2	27707.75
947.5934	2182.5513	28529.4	27646.55
947.7281	2184.0512	28453.3	27569.45
947.8628	2185.5504	28352.95	27469.45
947.9974	2187.0488	28185.85	27305.65
948.132	2188.5465	28131.65	27250.45
948.2666	2190.0435	28021.3	27139.65
948.4012	2191.5397	27944.55	27061.45
948.5357	2193.0353	27878.65	26994.65
948.6702	2194.5301	27698.3	26814.15
948.8047	2196.0241	27600.35	26714.7
948.9392	2197.5175	27547.95	26664.35
949.0736	2199.0101	27445.75	26558.75
949.208	2200.502	27317.2	26434.25
949.3424	2201.9931	27218.2	26337.75
949.4767	2203.4835	27089.8	26207.15
949.611	2204.9733	27041.65	26155.1
949.7453	2206.4622	27004.35	26124.85
949.8796	2207.9505	26853	25968.95
950.0138	2209.438	26733.7	25855.15
950.148	2210.9248	26686.3	25802.1
950.2822	2212.4109	26603.1	25720.5
950.4164	2213.8962	26474.4	25588.1
950.5505	2215.3809	26421.05	25537.4
950.6846	2216.8648	26350.05	25466.8
950.8186	2218.3479	26290.1	25402.35
950.9527	2219.8304	26183.4	25293.25
951.0867	2221.3121	26093.4	25208.75
951.2207	2222.7931	25982.65	25097.3
951.3546	2224.2733	25892.75	25007.95
951.4886	2225.7529	25778.4	24894.8
951.6225	2227.2317	25710.9	24823.95
951.7563	2228.7098	25708.45	24825.8
951.8902	2230.1872	25527.15	24647.8
952.024	2231.6638	25515.8	24633.7
952.1578	2233.1397	25396.5	24509.4
952.2916	2234.6149	25319.2	24437.7
952.4253	2236.0894	25216.1	24334.75
952.559	2237.5632	25207.9	24322.7
952.6927	2239.0362	25051.95	24169.8
952.8263	2240.5085	25026	24144.25
952.9599	2241.9801	24873.15	23988.55
953.0935	2243.4509	24804.5	23921.55
953.2271	2244.921	24727.45	23843.55
953.3606	2246.3904	24644.65	23758.9
953.4941	2247.8591	24580.1	23696.65
953.6276	2249.3271	24519.95	23635.05
953.7611	2250.7943	24407.65	23523.3
953.8945	2252.2608	24282.25	23397
954.0279	2253.7266	24273.45	23391.95
954.1612	2255.1917	24180.55	23296.4
954.2946	2256.656	24085.5	23201.45
954.4279	2258.1197	23960.8	23080.05
954.5612	2259.5826	23953.05	23069.75
954.6944	2261.0447	23888.05	23004.7
954.8276	2262.5062	23768.6	22885.05
954.9608	2263.9669	23762.75	22876.35
955.094	2265.4269	23670.85	22789.8
955.2271	2266.8862	23642.4	22760.35
955.3602	2268.3448	23548.1	22666.7
955.4933	2269.8026	23526.65	22642.7
955.6264	2271.2598	23425.4	22543.05
955.7594	2272.7162	23319.1	22438.4
955.8924	2274.1719	23269.4	22385.7
956.0253	2275.6268	23211.7	22328
956.1583	2277.0811	23165.7	22281.4
956.2912	2278.5346	23098.6	22217.8
956.4241	2279.9874	23032.85	22151.45
956.5569	2281.4395	22995.7	22115.45
956.6897	2282.8908	22880.35	21992.1
956.8225	2284.3414	22857.25	21973.15
956.9553	2285.7914	22742	21857.2
957.088	2287.2406	22633.5	21747.5
957.2207	2288.689	22613.3	21727.8
957.3534	2290.1368	22567.65	21680.7
957.486	2291.5838	22493.6	21607.1
957.6186	2293.0302	22457.9	21570.65
957.7512	2294.4758	22312.7	21430.15
957.8838	2295.9206	22174.55	21290.15
958.0163	2297.3648	22145.85	21263.5
958.1488	2298.8082	22114.35	21230.25
958.2813	2300.251	22055.75	21171
958.4137	2301.693	21959.25	21073.9
958.5461	2303.1343	21937	21054.35
958.6785	2304.5748	21834.1	20951.4
958.8108	2306.0147	21761.5	20878.7
958.9432	2307.4538	21710.5	20827.85
959.0754	2308.8922	21646.25	20764.95
959.2077	2310.3299	21580.4	20697.45
959.3399	2311.7669	21505.45	20622.4
959.4721	2313.2031	21433.15	20552.25
959.6043	2314.6387	21343.4	20459.95
959.7365	2316.0735	21273.9	20392
959.8686	2317.5076	21219.1	20336.85
960.0006	2318.941	21214.95	20332
960.1327	2320.3737	21185.25	20303.15
960.2647	2321.8056	21081.25	20196.55
960.3967	2323.2369	21006.2	20125.35
960.5287	2324.6674	20938.85	20052.1
960.6606	2326.0972	20846.75	19962.35
960.7925	2327.5263	20779.65	19895.65
960.9244	2328.9547	20700.55	19814.9
961.0562	2330.3823	20700	19816.95
961.1881	2331.8092	20689.85	19801.9
961.3198	2333.2355	20526.6	19643.5
961.4516	2334.661	20527	19643.5
961.5833	2336.0858	20465.75	19581.45
961.715	2337.5098	20389.25	19504.35
961.8467	2338.9332	20364.8	19482.6
961.9783	2340.3558	20269	19383.5
962.1099	2341.7778	20185.05	19304.35
962.2415	2343.199	20103.85	19217.05
962.373	2344.6195	20020.75	19137.7
962.5045	2346.0393	20021.05	19139.5
962.636	2347.4583	20000	19117.3
962.7675	2348.8767	19888.95	19004.05
962.8989	2350.2943	19874	18990.25
963.0303	2351.7113	19814.8	18929.35
963.1617	2353.1275	19707.65	18823.8
963.293	2354.543	19671.05	18780.15
963.4243	2355.9578	19602	18719.15
963.5556	2357.3718	19464.25	18582
963.6868	2358.7852	19358.55	18470.9
963.818	2360.1978	19336.2	18454.15
963.9492	2361.6098	19285.65	18402.9
964.0803	2363.021	19209	18322.8
964.2114	2364.4315	19151.1	18269.4
964.3425	2365.8413	19089.6	18201.75
964.4736	2367.2504	19049.3	18167.95
964.6046	2368.6587	18935.55	18052.95
964.7356	2370.0664	18862.3	17977.4
964.8666	2371.4733	18795.5	17912.15
964.9975	2372.8795	18795.9	17914.15
965.1284	2374.285	18685.1	17800.2
965.2593	2375.6899	18594.15	17714.2
965.3901	2377.0939	18502.2	17620.4
965.5209	2378.4973	18469.45	17586.85
965.6517	2379.9	18434.95	17553.55
965.7825	2381.3019	18334.35	17453.35
965.9132	2382.7032	18314.65	17432.75
966.0439	2384.1037	18249.7	17370.3
966.1745	2385.5035	18185.45	17302.7
966.3051	2386.9027	18126.85	17246.3
966.4357	2388.3011	18108.6	17222.95
966.5663	2389.6987	18015.25	17133.35
966.6968	2391.0957	17994.3	17112.5
966.8273	2392.492	17908.4	17024.8
966.9578	2393.8876	17769.75	16889.2
967.0882	2395.2824	17734.9	16854.4
967.2186	2396.6765	17645.65	16765.35
967.349	2398.07	17561.5	16678.65
967.4793	2399.4627	17550.2	16665.8
967.6097	2400.8547	17478.7	16594
967.7399	2402.246	17432.65	16543.55
967.8702	2403.6366	17291.65	16406.65
968.0004	2405.0265	17248.6	16365.85
968.1306	2406.4156	17224.65	16339.15
968.2607	2407.8041	17126.4	16240.6
968.3909	2409.1918	17022.7	16136.95
968.521	2410.5789	16990.7	16107.85
968.651	2411.9652	16918.95	16034.1
968.781	2413.3508	16861.65	15977.95
968.911	2414.7358	16777.95	15893.15
969.041	2416.12	16730.7	15847.9
969.1709	2417.5035	16667.6	15785.95
969.3008	2418.8863	16619.05	15735
969.4307	2420.2684	16552.95	15673.35
969.5606	2421.6497	16461.5	15578.9
969.6904	2423.0304	16396.2	15512.65
969.8201	2424.4104	16361.15	15476.05
969.9499	2425.7896	16296.9	15411.85
970.0796	2427.1682	16272.75	15388.2
970.2093	2428.546	16238.5	15353
970.3389	2429.9232	16172.85	15288.55
970.4685	2431.2996	16165.45	15281.1
970.5981	2432.6753	16088.35	15206.25
970.7277	2434.0503	16069.2	15186.45
970.8572	2435.4246	15948.05	15064.75
970.9867	2436.7982	15868.15	14984.9
971.1161	2438.1711	15854.45	14971.75
971.2456	2439.5433	15789.1	14907.7
971.375	2440.9148	15714.1	14828.85
971.5043	2442.2856	15648.85	14765.9
971.6336	2443.6557	15629.1	14745.7
971.7629	2445.025	15568.3	14684.55
971.8922	2446.3937	15536.1	14652.2
972.0214	2447.7617	15459.95	14577.3
972.1506	2449.1289	15436.05	14553.55
972.2798	2450.4955	15419.35	14531.05
972.4089	2451.8613	15330.65	14449.15
972.538	2453.2265	15291.45	14408.65
972.6671	2454.5909	15254.65	14370.6
972.7961	2455.9546	15215.05	14333.25
972.9251	2457.3177	15166.2	14282.85
973.0541	2458.68	15088.5	14206.45
973.1831	2460.0416	15106.9	14223.05
973.312	2461.4025	15077.65	14193.65
973.4408	2462.7627	15024.05	14129.25
973.5697	2464.1222	14974.4	14091.1
973.6985	2465.4811	14925.3	14041.7
973.8273	2466.8392	14838.7	13956.2
973.956	2468.1966	14799	13914.4
974.0847	2469.5533	14779.4	13894.45
974.2134	2470.9093	14775.95	13891.95
974.3421	2472.2645	14694.7	13811.1
974.4707	2473.6191	14666.55	13785.45
974.5993	2474.973	14591.9	13709.95
974.7278	2476.3262	14540.25	13654.9
974.8563	2477.6787	14509.15	13628.65
974.9848	2479.0305	14413.55	13531.45
975.1132	2480.3816	14364.1	13479.7
975.2417	2481.7319	14328.8	13447.95
975.37	2483.0816	14246.85	13361.9
975.4984	2484.4306	14213.75	13331.85
975.6267	2485.7789	14150.25	13269.45
975.755	2487.1264	14064.25	13178.3
975.8833	2488.4733	14033.25	13152.75
976.0115	2489.8195	13992.3	13103.95
976.1397	2491.165	13932.2	13044.6
976.2678	2492.5097	13894.45	13009.75
976.3959	2493.8538	13807.85	12926.55
976.524	2495.1972	13752.6	12869.3
976.6521	2496.5398	13705.3	12820.05
976.7801	2497.8818	13665.1	12780.25
976.9081	2499.2231	13615.15	12732.1
977.036	2500.5637	13559.4	12674.95
977.164	2501.9035	13515.15	12632.75
977.2918	2503.2427	13474.95	12590.7
977.4197	2504.5812	13422.35	12538.05
977.5475	2505.919	13407.5	12522.5
977.6753	2507.256	13370.9	12488.3
977.8031	2508.5924	13287.4	12403.05
977.9308	2509.9281	13260.05	12371.05
978.0585	2511.2631	13248.15	12366.8
978.1861	2512.5974	13183.25	12302.45
978.3137	2513.9309	13131.1	12247.65
978.4413	2515.2638	13109.35	12199.4
978.5689	2516.596	13090.8	12208.25
978.6964	2517.9275	12999.15	12115.3
978.8239	2519.2583	12960.6	12075.6
978.9513	2520.5884	12893.8	12009.05
979.0788	2521.9178	12826.9	11941.55
979.2062	2523.2465	12809.1	11928.8
979.3335	2524.5745	12730.65	11848.6
979.4608	2525.9018	12723.65	11839.8
979.5881	2527.2284	12674.15	11793.4
979.7154	2528.5543	12633.75	11753.75
979.8426	2529.8796	12602.5	11721.5
979.9698	2531.2041	12570.65	11688.75
980.0969	2532.5279	12537.45	11655.5
980.224	2533.851	12525.85	11642.65
980.3511	2535.1735	12460.3	11578.65
980.4781	2536.4952	12436.95	11555
980.6052	2537.8163	12392.6	11507.65
980.7321	2539.1366	12360.35	11479.05
980.8591	2540.4562	12333.9	11450
980.986	2541.7752	12314	11430.25
981.1129	2543.0935	12290.25	11406.65
981.2397	2544.411	12276.35	11390.3
981.3665	2545.7279	12204.25	11323.25
981.4933	2547.0441	12208.45	11324.65
981.62	2548.3596	12192.25	11305.95
981.7467	2549.6744	12146.85	11264.15
981.8734	2550.9885	12104.45	11211.9
982.0001	2552.3019	12062.75	11180.7
982.1267	2553.6146	12016.45	11133.4
982.2532	2554.9266	11982.75	11096.3
982.3798	2556.2379	11982.2	11099.3
982.5063	2557.5485	11930.75	11048.45
982.6327	2558.8585	11903.2	11014.3
982.7592	2560.1677	11908.85	11022.2
982.8856	2561.4762	11842.1	10959.15
983.0119	2562.7841	11840.65	10952.8
983.1383	2564.0913	11799.15	10916
983.2646	2565.3977	11785.8	10903.3
983.3908	2566.7035	11730.35	10847.55
983.517	2568.0086	11711.6	10826.95
983.6432	2569.313	11711.7	10829.15
983.7694	2570.6167	11682.3	10796.8
983.8955	2571.9197	11629.15	10745.75
984.0216	2573.222	11615.5	10729
984.1476	2574.5236	11599.8	10713.45
984.2737	2575.8246	11555.8	10669.1
984.3996	2577.1248	11528.3	10642.25
984.5256	2578.4244	11510.9	10629.85
984.6515	2579.7232	11481.85	10598.75
984.7774	2581.0214	11470.35	10562.3
984.9032	2582.3189	11417.95	10536.9
985.029	2583.6157	11405.65	10518.85
985.1548	2584.9118	11370.4	10487.55
985.2806	2586.2072	11341.95	10459.6
985.4063	2587.5019	11291.9	10408.7
985.5319	2588.7959	11266.65	10384.55
985.6576	2590.0893	11242.65	10357.8
985.7832	2591.3819	11214.4	10331.5
985.9087	2592.6739	11158.35	10276.2
986.0343	2593.9652	11145.1	10260
986.1597	2595.2557	11111.25	10228.1
986.2852	2596.5456	11046.9	10164.3
986.4106	2597.8348	11002.1	10118.9
986.536	2599.1234	10942.35	10060.15
986.6614	2600.4112	10927.7	10045.45
986.7867	2601.6983	10883.35	9997.05
986.912	2602.9848	10839.75	9957.05
987.0372	2604.2705	10793.9	9903.8
987.1624	2605.5556	10782.7	9901.5
987.2876	2606.84	10748.35	9865.6
987.4128	2608.1237	10701.25	9817.2
987.5379	2609.4067	10655.4	9774.75
987.6629	2610.689	10626.15	9733.6
987.788	2611.9707	10601.5	9716.05
987.913	2613.2516	10535.5	9649.4
988.0379	2614.5319	10490.15	9606.8
988.1629	2615.8115	10446.8	9563.75
988.2878	2617.0903	10399.95	9516.4
988.4126	2618.3685	10367.1	9484.1
988.5375	2619.6461	10345.1	9461.65
988.6622	2620.9229	10298.4	9415.3
988.787	2622.199	10286.6	9404.15
988.9117	2623.4745	10245.7	9361.55
989.0364	2624.7493	10200.05	9316.8
989.161	2626.0234	10149.4	9268.15
989.2857	2627.2968	10118.3	9236
989.4102	2628.5695	10083.55	9199.95
989.5348	2629.8415	10022.8	9139.55
989.6593	2631.1128	9993.5	9109.1
989.7837	2632.3835	9953.1	9070.9
989.9082	2633.6535	9903.9	9021
990.0326	2634.9228	9892.7	9012.55
990.1569	2636.1914	9863.5	8981.05
990.2812	2637.4593	9832.25	8945.15
990.4055	2638.7265	9801.5	8917.9
990.5298	2639.9931	9785.5	8900.1
990.654	2641.259	9739.75	8855.25
990.7782	2642.5242	9707.8	8825.25
990.9023	2643.7887	9665.8	8780.7
991.0264	2645.0525	9630.8	8747.85
991.1505	2646.3156	9613.1	8729.05
991.2745	2647.5781	9559	8678.15
991.3985	2648.8398	9537.25	8656.95
991.5225	2650.1009	9518.5	8597.55
991.6464	2651.3613	9465.4	8584.05
991.7703	2652.6211	9432.25	8548.95
991.8942	2653.8801	9410.1	8530.1
992.018	2655.1385	9411.25	8528.15
992.1418	2656.3961	9391.2	8508.55
992.2655	2657.6531	9357.85	8475.9
992.3892	2658.9094	9308.65	8425.95
992.5129	2660.1651	9288.3	8406.5
992.6366	2661.42	9271.75	8391.45
992.7602	2662.6743	9260.4	8375.25
992.8837	2663.9279	9237.45	8357.25
993.0073	2665.1808	9186.65	8304
993.1307	2666.433	9155.55	8273.75
993.2542	2667.6846	9155.5	8272.4
993.3776	2668.9354	9124.7	8238.35
993.501	2670.1856	9090.2	8207
993.6244	2671.4351	9080.95	8199.9
993.7477	2672.6839	9041.65	8158.1
993.8709	2673.9321	9006.1	8123.95
993.9942	2675.1795	8989.65	8106.45
994.1174	2676.4263	8957.4	8075.5
994.2405	2677.6724	8940.5	8059.4
994.3637	2678.9179	8895.05	8012.9
994.4868	2680.1626	8887.45	8007.25
994.6098	2681.4067	8842.65	7958.55
994.7328	2682.6501	8824.1	7941.6
994.8558	2683.8928	8800.45	7918.1
994.9788	2685.1348	8773.85	7892.6
995.1017	2686.3761	8731.9	7850.55
995.2245	2687.6168	8688.45	7806.1
995.3474	2688.8568	8671.95	7792.1
995.4702	2690.0961	8634.85	7752.45
995.5929	2691.3348	8599.6	7718.3
995.7156	2692.5727	8604.4	7721.7
995.8383	2693.81	8575.1	7692.05
995.961	2695.0466	8521.5	7640.55
996.0836	2696.2826	8505.25	7621.15
996.2062	2697.5178	8481.9	7598.15
996.3287	2698.7524	8446.8	7564.75
996.4512	2699.9863	8436.6	7550.8
996.5737	2701.2195	8391.6	7510.15
996.6961	2702.452	8364.85	7481.95
996.8185	2703.6839	8350.65	7467.25
996.9408	2704.9151	8322	7442.95
997.0631	2706.1456	8290.2	7405.6
997.1854	2707.3755	8262.3	7380.8
997.3077	2708.6046	8254.75	7371.5
997.4299	2709.8331	8223.75	7340.85
997.552	2711.0609	8197.3	7316.6
997.6742	2712.2881	8199.55	7318.45
997.7963	2713.5145	8174.9	7290.4
997.9183	2714.7403	8126.05	7244.9
998.0403	2715.9654	8104.85	7221.3
998.1623	2717.1899	8079.85	7197
998.2842	2718.4136	8054.35	7173.2
998.4062	2719.6367	8038.7	7155.05
998.528	2720.8591	8026.1	7138.8
998.6498	2722.0809	7985.8	7104.8
998.7716	2723.3019	7955.35	7068.75
998.8934	2724.5223	7952.1	7071.65
999.0151	2725.7421	7920.1	7038.65
999.1368	2726.9611	7904.1	7020.05
999.2584	2728.1795	7874.4	6986.9
999.38	2729.3972	7830.25	6948.9
999.5016	2730.6142	7798	6907.8
999.6231	2731.8306	7754.9	6872.8
999.7446	2733.0462	7721.45	6837.35
999.8661	2734.2612	7704.6	6819.1
999.9875	2735.4756	7639.05	6756.3
1000.1089	2736.6892	7602.3	6717.75
1000.2302	2737.9022	7551	6670.1
1000.3515	2739.1145	7535.85	6655.8
1000.4728	2740.3262	7496.95	6607.6
1000.594	2741.5372	7454.7	6572.85
1000.7152	2742.7475	7433.25	6549.7
1000.8363	2743.9571	7412.4	6528.5
1000.9575	2745.1661	7390.7	6506
1001.0785	2746.3744	7364	6481.5
1001.1996	2747.582	7336.25	6453.55
1001.3206	2748.7889	7290.55	6408.5
1001.4415	2749.9952	7253.6	6373.05
1001.5625	2751.2008	7227.3	6344.85
1001.6833	2752.4057	7223.35	6339.6
1001.8042	2753.61	7178.8	6296.3
1001.925	2754.8136	7169.95	6285.7
1002.0458	2756.0165	7134.9	6253.5
1002.1665	2757.2188	7096.65	6217.8
1002.2872	2758.4204	7077.25	6195.75
1002.4078	2759.6213	7059.45	6176.9
1002.5285	2760.8215	7037.3	6152.3
1002.649	2762.0211	7017.4	6136.35
1002.7696	2763.22	6991	6105.45
1002.8901	2764.4182	6976.9	6093.5
1003.0106	2765.6158	6963.3	6079.25
1003.131	2766.8127	6924.2	6041.15
1003.2514	2768.009	6880.9	5999.85
1003.3717	2769.2045	6859.5	5978.2
1003.492	2770.3994	6863.05	5978.05
1003.6123	2771.5936	6851.2	5967.85
1003.7325	2772.7872	6824.85	5945.95
1003.8527	2773.9801	6764.85	5880.45
1003.9729	2775.1723	6743.8	5845.35
1004.093	2776.3639	6724.9	5844.9
1004.2131	2777.5548	6687.3	5803.25
1004.3331	2778.745	6675.45	5791.65
1004.4531	2779.9346	6672.85	5790.9
1004.5731	2781.1235	6656.35	5775.2
1004.693	2782.3117	6647.15	5768.65
1004.8129	2783.4992	6601.05	5720.7
1004.9328	2784.6861	6583.3	5701.65
1005.0526	2785.8723	6564.55	5682.7
1005.1723	2787.0579	6544.25	5663
1005.2921	2788.2428	6522.45	5639.9
1005.4118	2789.427	6512.65	5632.45
1005.5314	2790.6106	6501.3	5620.9
1005.651	2791.7935	6443.1	5560.4
1005.7706	2792.9757	6430.4	5549.95
1005.8902	2794.1573	6434.2	5550.15
1006.0097	2795.3382	6413.5	5533.65
1006.1291	2796.5184	6405.35	5524.6
1006.2485	2797.698	6396.1	5511.5
1006.3679	2798.8769	6373.35	5489.7
1006.4873	2800.0551	6337.4	5455.3
1006.6066	2801.2327	6333.2	5450.05
1006.7258	2802.4096	6322.25	5441.55
1006.8451	2803.5859	6309.55	5427.35
1006.9642	2804.7615	6304.6	5421.3
1007.0834	2805.9364	6295.65	5416.9
1007.2025	2807.1106	6280.55	5401.95
1007.3216	2808.2842	6308.3	5427.05
1007.4406	2809.4572	6287.95	5404.8
1007.5596	2810.6294	6309.9	5427.75
1007.6785	2811.801	6299.3	5418.55
1007.7975	2812.972	6327.65	5446.85
1007.9163	2814.1423	6326.8	5446.75
1008.0352	2815.3119	6353.05	5472.6
1008.154	2816.4808	6372.85	5492.9
1008.2727	2817.6491	6387.2	5505.05
1008.3914	2818.8167	6409.35	5529.3
1008.5101	2819.9837	6436.5	5549.35
1008.6288	2821.15	6449.2	5569.3
1008.7474	2822.3157	6473.2	5593.5
1008.8659	2823.4807	6524.2	5639.6
1008.9844	2824.645	6547.2	5665.5
1009.1029	2825.8086	6580.4	5700.4
1009.2214	2826.9716	6611.4	5731.25
1009.3398	2828.134	6619.7	5740.9
1009.4581	2829.2957	6651.85	5769.45
1009.5764	2830.4567	6652	5772.5
1009.6947	2831.617	6650.75	5768.45
1009.813	2832.7767	6625.7	5746.35
1009.9312	2833.9358	6623.9	5744.85
1010.0493	2835.0941	6629.2	5745.45
1010.1675	2836.2519	6608.75	5728.55
1010.2855	2837.4089	6579.85	5699.4
1010.4036	2838.5653	6555.1	5674.5
1010.5216	2839.7211	6545.15	5664.75
1010.6396	2840.8761	6515.15	5633.6
1010.7575	2842.0306	6497.05	5618.15
1010.8754	2843.1843	6513.15	5632.25
1010.9932	2844.3374	6520.7	5640
1011.111	2845.4899	6533.75	5653.45
1011.2288	2846.6417	6580.55	5702.65
1011.3465	2847.7928	6607	5723.95
1011.4642	2848.9433	6656.85	5776.5
1011.5818	2850.0931	6699.6	5818.55
1011.6995	2851.2422	6741.55	5859.65
1011.817	2852.3907	6773.25	5893.65
1011.9345	2853.5385	6798.1	5914.1
1012.052	2854.6857	6815.05	5924.4
1012.1695	2855.8323	6829.75	5948.4
1012.2869	2856.9781	6857	5977
1012.4042	2858.1233	6895.15	6016.6
1012.5216	2859.2679	6897.85	6017.05
1012.6389	2860.4118	6911.55	6031
1012.7561	2861.555	6922.95	6037.6
1012.8733	2862.6976	6967.3	6085.45
1012.9905	2863.8395	6956.2	6074.9
1013.1076	2864.9808	6959.05	6077.65
1013.2247	2866.1214	6959.15	6080.45
1013.3417	2867.2614	6955.45	6075.8
1013.4587	2868.4007	6941.95	6060.15
1013.5757	2869.5393	6926.2	6043.95
1013.6926	2870.6773	6944.9	6059.5
1013.8095	2871.8146	6928.65	6046.95
1013.9263	2872.9513	6918.2	6035.5
1014.0431	2874.0874	6868.95	5989.45
1014.1599	2875.2227	6847.55	5966.55
1014.2766	2876.3574	6822.8	5942.9
1014.3933	2877.4915	6756.1	5873.85
1014.51	2878.6249	6738.1	5857.45
1014.6266	2879.7577	6706.75	5825.3
1014.7431	2880.8898	6681.75	5790.8
1014.8596	2882.0212	6658.55	5777.8
1014.9761	2883.152	6632.8	5754.6
1015.0925	2884.2821	6587.65	5709.6
1015.2089	2885.4116	6560	5680.75
1015.3253	2886.5405	6550.85	5670.05
1015.4416	2887.6686	6527.7	5644.8
1015.5579	2888.7962	6495.55	5617.95
1015.6741	2889.923	6501.7	5622.9
1015.7903	2891.0493	6477.85	5595.8
1015.9065	2892.1748	6478.5	5598.8
1016.0226	2893.2997	6449.7	5569.1
1016.1387	2894.424	6449.75	5569.2
1016.2547	2895.5476	6441.15	5562.3
1016.3707	2896.6706	6461.55	5582.35
1016.4866	2897.7929	6466.6	5584.8
1016.6025	2898.9145	6468.85	5587.65
1016.7184	2900.0355	6460.55	5579.75
1016.8342	2901.1559	6451.65	5571.25
1016.95	2902.2756	6493.3	5610.9
1017.0658	2903.3946	6497.45	5617.7
1017.1815	2904.513	6495.7	5612.6
1017.2971	2905.6308	6495.6	5617.45
1017.4127	2906.7479	6482.1	5603.45
1017.5283	2907.8643	6487.7	5605.8
1017.6439	2908.9801	6495.7	5614.95
1017.7594	2910.0953	6474.6	5594.2
1017.8748	2911.2098	6449.6	5567.55
1017.9902	2912.3236	6433.7	5544.35
1018.1056	2913.4368	6412.05	5529.7
1018.2209	2914.5494	6406.3	5527.25
1018.3362	2915.6613	6359.8	5473.2
1018.4515	2916.7725	6320.5	5438.45
1018.5667	2917.8831	6291.1	5410.4
1018.6819	2918.9931	6250.9	5367.05
1018.797	2920.1024	6194.1	5314.6
1018.9121	2921.211	6166.15	5288.15
1019.0271	2922.319	6170.75	5287.1
1019.1421	2923.4264	6147.15	5267.55
1019.2571	2924.5331	6089.45	5210.3
1019.372	2925.6391	6078.85	5199.4
1019.4869	2926.7445	6050.5	5171.75
1019.6017	2927.8493	6050.4	5171.3
1019.7165	2928.9534	6054.7	5173
1019.8313	2930.0569	6032.85	5150.45
1019.946	2931.1597	6045.35	5162.95
1020.0606	2932.2619	6023.45	5144.4
1020.1753	2933.3634	5993.35	5111.55
1020.2899	2934.4643	5992.35	5107.65
1020.4044	2935.5645	5999.85	5111.45
1020.5189	2936.6641	5957.85	5073.8
1020.6334	2937.763	5891.85	5013.1
1020.7478	2938.8613	5843.7	4963.3
1020.8622	2939.959	5815.15	4928.4
1020.9765	2941.056	5741.55	4861.2
1021.0908	2942.1523	5679.55	4798.45
1021.2051	2943.248	5576.65	4697.8
1021.3193	2944.3431	5526.55	4647.2
1021.4334	2945.4375	5438.95	4559.25
1021.5476	2946.5313	5330.9	4451.4
1021.6617	2947.6244	5240.7	4360.95
1021.7757	2948.7169	5157.75	4277.15
1021.8897	2949.8087	5073.6	4191.8
1022.0037	2950.8999	4980.55	4099.85
1022.1176	2951.9904	4904.05	4023.5
1022.2315	2953.0803	4842.35	3960.75
1022.3453	2954.1696	4775.3	3896.1
1022.4591	2955.2582	4721.7	3841.25
1022.5728	2956.3462	4693.95	3815.2
1022.6865	2957.4335	4637.2	3757
1022.8002	2958.5202	4591.4	3710.6
1022.9138	2959.6062	4542	3665.4
1023.0274	2960.6916	4504.4	3624.3
1023.141	2961.7764	4495.5	3617.1
1023.2545	2962.8605	4470.25	3590.1
1023.3679	2963.9439	4452.35	3570.95
1023.4813	2965.0267	4430.3	3549.6
1023.5947	2966.1089	4415.3	3514.35
1023.708	2967.1905	4388.1	3509.85
1023.8213	2968.2714	4367.95	3489.95
1023.9346	2969.3516	4350.2	3470.65
1024.0478	2970.4312	4352.65	3464.65
1024.1609	2971.5102	4328.75	3449.3
1024.274	2972.5885	4323.9	3443.7
1024.3871	2973.6662	4325.5	3440.4
1024.5002	2974.7432	4319.85	3440.75
1024.6132	2975.8196	4293.2	3412.75
1024.7261	2976.8954	4257.9	3378.35
1024.839	2977.9705	4246.95	3369.05
1024.9519	2979.045	4234.1	3355.75
1025.0647	2980.1188	4207.7	3328.3
1025.1775	2981.192	4185.65	3307.9
1025.2902	2982.2645	4136.7	3257.35
1025.4029	2983.3364	4134.05	3254.35
1025.5156	2984.4077	4097.55	3217.8
1025.6282	2985.4783	4076.45	3191.45
1025.7407	2986.5483	4037.3	3159.4
1025.8532	2987.6177	3993.1	3114.75
1025.9657	2988.6864	3957.4	3076.85
1026.0782	2989.7545	3933.5	3052.75
1026.1906	2990.8219	3888.55	3009.1
1026.3029	2991.8887	3850.35	2970.3
1026.4152	2992.9548	3825.85	2944.55
1026.5275	2994.0204	3794	2914.2
1026.6397	2995.0852	3745.1	2867.85
1026.7519	2996.1495	3727	2846.35
1026.864	2997.2131	3689.3	2810.3
1026.9761	2998.276	3673.9	2792.9
1027.0882	2999.3383	3644.5	2763.7
1027.2002	3000.4	3605.55	2727.15
1027.3122	3001.4611	3605.85	2725.65
1027.4241	3002.5215	3583.75	2703.8
1027.536	3003.5812	3554.65	2676.45
1027.6478	3004.6404	3533.35	2654.45
1027.7596	3005.6989	3518.65	2639.15
1027.8714	3006.7567	3502.4	2624.1
1027.9831	3007.8139	3505.85	2593.95
1028.0947	3008.8705	3469.85	2590.4
1028.2064	3009.9264	3452.2	2569.45
1028.3179	3010.9818	3434.05	2554.6
1028.4295	3012.0364	3430.6	2549.65
1028.541	3013.0905	3407.35	2529.2
1028.6524	3014.1439	3395.35	2514.2
1028.7638	3015.1966	3377.25	2499.05
1028.8752	3016.2487	3369.1	2490.2
1028.9865	3017.3002	3350.95	2467.2
1029.0978	3018.3511	3349.05	2470.9
1029.209	3019.4013	3333.8	2454.6
1029.3202	3020.4509	3321.15	2443.75
1029.4314	3021.4998	3328.6	2448.75
1029.5425	3022.5481	3304.15	2424.8
1029.6535	3023.5958	3287.8	2409.15
1029.7645	3024.6428	3291.95	2411.95
1029.8755	3025.6892	3276.35	2397.9
1029.9864	3026.735	3265.65	2384.5
1030.0973	3027.7802	3255.3	2376.3
1030.2082	3028.8247	3238.95	2360.1
1030.319	3029.8685	3235.4	2354.85
1030.4297	3030.9118	3224.1	2347
1030.5404	3031.9544	3234.3	2355.85
1030.6511	3032.9963	3208.05	2328.75
1030.7617	3034.0376	3192.9	2312.95
1030.8723	3035.0783	3197.8	2316.2
1030.9829	3036.1184	3193.15	2313.7
1031.0934	3037.1578	3174	2295.5
1031.2038	3038.1966	3174.25	2293.6
1031.3142	3039.2348	3175.05	2294.25
1031.4246	3040.2723	3165	2275.3
1031.5349	3041.3092	3144.6	2266.15
1031.6452	3042.3455	3150.8	2270.75
1031.7554	3043.3811	3131.3	2251.55
1031.8656	3044.4161	3123.35	2241.7
1031.9758	3045.4505	3118.5	2242.4
1032.0859	3046.4842	3094.5	2216.05
1032.1959	3047.5173	3097.5	2219.8
1032.3059	3048.5498	3083.65	2203.5
1032.4159	3049.5816	3072.1	2192.4
1032.5258	3050.6128	3070.15	2190.65
1032.6357	3051.6434	3063.55	2183.95
1032.7455	3052.6734	3037.5	2156.55
1032.8553	3053.7027	3016.35	2138.65
1032.9651	3054.7314	3024	2146.45
1033.0748	3055.7594	3003.15	2125.25
1033.1845	3056.7868	3006.8	2125.8
1033.2941	3057.8136	2974.1	2097.95
1033.4037	3058.8398	2973.6	2095.85
1033.5132	3059.8653	2966.3	2086
1033.6227	3060.8902	2949.25	2069.8
1033.7321	3061.9145	2936.8	2056.75
1033.8415	3062.9381	2926.7	2049.4
1033.9509	3063.9612	2936.55	2043.85
1034.0602	3064.9835	2903.5	2023.55
1034.1694	3066.0053	2905.2	2022.4
1034.2787	3067.0264	2886.8	2007.45
1034.3878	3068.0469	2884.55	2004.7
1034.497	3069.0668	2875.65	1995.8
1034.6061	3070.086	2866.7	1986.7
1034.7151	3071.1046	2849.1	1969
1034.8241	3072.1226	2845.5	1965.65
1034.9331	3073.1399	2830.1	1953.1
1035.042	3074.1567	2814.7	1936.5
1035.1508	3075.1727	2800.4	1919.9
1035.2597	3076.1882	2785.3	1905.65
1035.3684	3077.203	2767.85	1889.6
1035.4772	3078.2173	2771.6	1890.25
1035.5859	3079.2308	2754.4	1872.7
1035.6945	3080.2438	2736.1	1855.1
1035.8031	3081.2561	2735.1	1854.7
1035.9117	3082.2678	2726.35	1847.8
1036.0202	3083.2789	2712.2	1833.55
1036.1286	3084.2893	2692	1812.75
1036.2371	3085.2991	2681.6	1800.35
1036.3454	3086.3083	2679.9	1796.55
1036.4538	3087.3169	2663.55	1782.55
1036.562	3088.3248	2657.45	1777.3
1036.6703	3089.3321	2631.65	1751.95
1036.7785	3090.3388	2622.55	1743.3
1036.8866	3091.3449	2612.8	1734.6
1036.9948	3092.3503	2611.65	1730.65
1037.1028	3093.3551	2597.35	1720.9
1037.2108	3094.3593	2587.85	1707.25
1037.3188	3095.3629	2579.65	1701.3
1037.4267	3096.3658	2580.7	1700.9
1037.5346	3097.3681	2559.05	1678.85
1037.6425	3098.3698	2555.25	1675.2
1037.7503	3099.3708	2540.75	1655.25
1037.858	3100.3713	2527.6	1649.15
1037.9657	3101.3711	2518.8	1639.3
1038.0734	3102.3702	2631.85	1615
1038.181	3103.3688	2516.15	1634.9
1038.2886	3104.3667	2493.9	1616.3
1038.3961	3105.364	2481.25	1602.6
1038.5036	3106.3607	2477.5	1597.6
1038.611	3107.3568	2465.75	1585.45
1038.7184	3108.3522	2453.3	1574.95
1038.8257	3109.347	2443.7	1564.8
1038.933	3110.3412	2438.4	1555.2
1039.0403	3111.3348	2436.15	1557.5
1039.1475	3112.3277	2414.2	1535.45
1039.2547	3113.32	2411.6	1536.1
1039.3618	3114.3117	2397.3	1517.75
1039.4689	3115.3028	2403.85	1523.95
1039.5759	3116.2932	2383.85	1501.25
1039.6829	3117.2831	2378.6	1495.3
1039.7898	3118.2723	2376.7	1496.8
1039.8967	3119.2608	2347.9	1469.6
1040.0035	3120.2488	2360.2	1480.35
1040.1103	3121.2361	2337.25	1458.95
1040.2171	3122.2229	2331.5	1451.8
1040.3238	3123.209	2325.05	1445.9
1040.4305	3124.1944	2322	1443.8
1040.5371	3125.1793	2314.95	1434.7
1040.6437	3126.1635	2300.35	1420.9
1040.7502	3127.1471	2286.75	1408.75
1040.8567	3128.1301	2268.85	1390.2
1040.9631	3129.1125	2272.2	1391.95
1041.0695	3130.0942	2268.5	1389.85
1041.1759	3131.0753	2276.85	1389.1
1041.2822	3132.0558	2250.55	1369.25
1041.3884	3133.0357	2254.85	1373.9
1041.4946	3134.015	2243.25	1362.95
1041.6008	3134.9936	2234.6	1352.3
1041.7069	3135.9716	2257.75	1357.8
1041.813	3136.949	2226.95	1350.9
1041.919	3137.9258	2230.4	1344.9
1042.025	3138.902	2220.45	1335.7
1042.1309	3139.8775	2201.7	1326.5
1042.2368	3140.8524	2198	1319.3
1042.3427	3141.8267	2201.1	1319.6
1042.4485	3142.8004	2193.35	1314.55
1042.5542	3143.7735	2186.75	1300.75
1042.6599	3144.7459	2194.5	1315.1
1042.7656	3145.7178	2186	1305.15
1042.8712	3146.689	2168.5	1290.55
1042.9768	3147.6596	2157.15	1275.15
1043.0823	3148.6295	2160.35	1282.7
1043.1878	3149.5989	2142.8	1263.85
1043.2932	3150.5676	2139	1262.1
1043.3986	3151.5357	2131.15	1253.5
1043.5039	3152.5032	2134.35	1255.5
1043.6092	3153.4701	2116.35	1237.95
1043.7145	3154.4364	2118.1	1237
1043.8197	3155.402	2098.7	1221.9
1043.9248	3156.367	2092.8	1212.85
1044.03	3157.3315	2122.8	1206.1
1044.135	3158.2952	2083.7	1203
1044.24	3159.2584	2064.45	1186.75
1044.345	3160.221	2066.35	1185.7
1044.4499	3161.1829	2066.9	1188.55
1044.5548	3162.1442	2049	1170.45
1044.6596	3163.105	2053.25	1175.95
1044.7644	3164.065	2033.6	1154.15
1044.8692	3165.0245	2028.45	1147.85
1044.9739	3165.9834	2028.9	1150.75
1045.0785	3166.9416	2030.5	1151.75
1045.1831	3167.8993	2012.3	1134.1
1045.2877	3168.8563	2024.15	1143.65
1045.3922	3169.8127	2006.8	1128.45
1045.4966	3170.7684	1996.8	1119.75
1045.6011	3171.7236	1987.5	1106.9
1045.7054	3172.6782	1976.25	1097.4
1045.8098	3173.6321	1994.05	1112.9
1045.914	3174.5854	1975.6	1092.6
1046.0183	3175.5381	1975.35	1097.95
1046.1224	3176.4902	1960.4	1080.8
1046.2266	3177.4417	1957.8	1080
1046.3307	3178.3926	1947.95	1070.5
1046.4347	3179.3428	1939.3	1060.9
1046.5387	3180.2924	1933	1055.4
1046.6427	3181.2415	1939.15	1060.7
1046.7466	3182.1899	1921.65	1040.35
1046.8504	3183.1377	1922.85	1043.6
1046.9542	3184.0848	1919.4	1035.95
1047.058	3185.0314	1912.35	1033
1047.1617	3185.9773	1905	1026.85
1047.2654	3186.9227	1898.1	1019.65
1047.369	3187.8674	1896.35	1019.85
1047.4726	3188.8115	1887.85	1003.05
1047.5761	3189.755	1875.4	997.5
1047.6796	3190.6979	1878.1	1000.05
1047.783	3191.6402	1871.55	992.3
1047.8864	3192.5818	1860.9	983.05
1047.9898	3193.5229	1878.5	983
1048.0931	3194.4633	1857.9	980.2
1048.1963	3195.4031	1849	970.05
1048.2995	3196.3423	1846.2	967.55
1048.4027	3197.2809	1846.15	968.6
1048.5058	3198.2189	1831.15	951.9
1048.6089	3199.1563	1846.6	951.05
1048.7119	3200.0931	1823.35	946.75
1048.8148	3201.0292	1821.7	942.95
1048.9178	3201.9648	1814.15	935.7
1049.0206	3202.8997	1812.5	931
1049.1235	3203.834	1811.05	932.45
1049.2262	3204.7677	1804.5	926.95
1049.329	3205.7008	1794.3	913.95
1049.4317	3206.6333	1785.7	909.95
1049.5343	3207.5652	1787.5	906.75
1049.6369	3208.4964	1786.25	908.15
1049.7394	3209.4271	1773.95	895.4
1049.8419	3210.3571	1773.35	896.35
1049.9444	3211.2865	1772.6	893.8
1050.0468	3212.2154	1765.35	887.25
1050.1491	3213.1436	1761.6	878.6
1050.2514	3214.0712	1769.25	883.45
1050.3537	3214.9982	1760.45	880.35
1050.4559	3215.9246	1754.35	876.15
1050.5581	3216.8503	1748.15	872.05
1050.6602	3217.7755	1738.05	857.95
1050.7623	3218.7001	1732.7	854.25
1050.8643	3219.624	1735.1	855.9
1050.9663	3220.5473	1726.9	846.85
1051.0682	3221.4701	1725.4	846.6
1051.1701	3222.3922	1716.8	836.35
1051.2719	3223.3137	1717.5	837.05
1051.3737	3224.2346	1715.55	835.4
1051.4754	3225.1549	1701.8	822.45
1051.5771	3226.0746	1699.3	821.8
1051.6788	3226.9937	1694	815.2
1051.7804	3227.9121	1691	814.8
1051.8819	3228.83	1684	805.45
1051.9834	3229.7473	1687.5	808.65
1052.0849	3230.6639	1681.95	803.7
1052.1863	3231.5799	1668.9	791.15
1052.2876	3232.4954	1667.55	787.95
1052.3889	3233.4102	1661.75	782.9
1052.4902	3234.3244	1652.65	774.55
1052.5914	3235.238	1657.35	779.5
1052.6926	3236.151	1671.4	769.35
1052.7937	3237.0634	1647.05	771.05
1052.8948	3237.9752	1634.2	758.3
1052.9958	3238.8864	1636	758.85
1053.0968	3239.797	1631.65	755.55
1053.1977	3240.7069	1630.5	751
1053.2986	3241.6163	1626.7	748.6
1053.3994	3242.5251	1613.7	734.5
1053.5002	3243.4332	1613.6	736.35
1053.6009	3244.3408	1609.5	730.65
1053.7016	3245.2477	1606.95	727.2
1053.8022	3246.154	1601.65	724.55
1053.9028	3247.0598	1600.5	721.35
1054.0034	3247.9649	1602.45	725.3
1054.1039	3248.8694	1588.65	711.8
1054.2043	3249.7733	1576.1	697.35
1054.3047	3250.6766	1580.2	701.7
1054.4051	3251.5793	1576.75	698.85
1054.5054	3252.4814	1570.3	690.45
1054.6056	3253.3829	1562.55	684.15
1054.7058	3254.2838	1557.75	679.35
1054.806	3255.1841	1565.25	688.7
1054.9061	3256.0838	1547.05	669.05
1055.0061	3256.9829	1532.8	654.15
1055.1062	3257.8814	1541.45	661.4
1055.2061	3258.7792	1525.85	646.15
1055.306	3259.6765	1527.9	646.7
1055.4059	3260.5731	1521.75	643.75
1055.5057	3261.4692	1519.95	640.35
1055.6055	3262.3647	1506.2	628.15
1055.7052	3263.2595	1489.45	609.6
1055.8049	3264.1538	1484.8	607.1
1055.9045	3265.0474	1474.7	593.85
1056.0041	3265.9404	1471.2	592.9
1056.1036	3266.8329	1459.55	582.25
1056.2031	3267.7247	1457.25	568.4
1056.3025	3268.616	1431.6	556.35
1056.4019	3269.5066	1424.9	545.9
1056.5013	3270.3966	1412.6	531.75
1056.6005	3271.286	1392.05	515.7
