Software Version:	3.9.2.0
Unit SN:	10000200
Spectrometer SN:	6960
Date:	3/6/2024 9:57:10 AM
Data Line Index:	25
Spectral Points:	2048
Integration time (ms):	125
Averages:	20
Delay (ms):	30
Sequence Number:	1
Processing:	dark subtract
Laser Power (mW):	305
Laser Current (mA):	825
Laser Diode Temp (C):	25.1
Laser Case Temp (C):	24.6
System Temp (C):	24.4
Spectrometer Temp (C):	22
CCD Temp (C):	0.007
Secondary Temp (C):	20.013
Heatsink Temp (C):	18.248
CCDPCB Temp (C):	30.627
SecondaryPCB Temp (C):	26.158

Wavelength	RamanShift	Raw Counts	Dark Subtracted
787.061	30.1047	655.4	246.55
787.2016	32.3739	668.8	262.7
787.3422	34.6426	683.8	276.4
787.4828	36.9109	697.25	287.75
787.6235	39.1787	718.85	305.2
787.7642	41.4461	744.05	326.85
787.9049	43.7131	770.5	349.7
788.0456	45.9796	792.15	367.3
788.1863	48.2456	816.65	388.9
788.3271	50.5112	842.6	412
788.4679	52.7764	872.35	437.6
788.6087	55.0411	896.15	457.8
788.7496	57.3054	926.15	482.55
788.8904	59.5692	953.1	510.2
789.0313	61.8326	987.25	540.25
789.1722	64.0955	1035.7	585.6
789.3132	66.3579	1084.9	629.3
789.4541	68.6199	1143.95	683.25
789.5951	70.8815	1245.4	782.35
789.7361	73.1426	1477.3	1011.15
789.8771	75.4032	2039	1568.2
790.0181	77.6634	3485.4	3010.95
790.1592	79.9231	7077.85	6598.9
790.3003	82.1824	15266.85	14779.7
790.4414	84.4412	34493.45	33989.75
790.5825	86.6995	52087.65	51566.6
790.7237	88.9574	57660	57125.1
790.8648	91.2148	59752.3	59207.75
791.006	93.4717	60401.2	59851.15
791.1472	95.7282	60683.35	60124.1
791.2885	97.9842	60779.4	60220.6
791.4297	100.2398	60800.95	60238.95
791.571	102.4949	60792.4	60225.2
791.7123	104.7495	60823.95	60254.95
791.8536	107.0036	60770.4	60202.55
791.9949	109.2573	60877.55	60308.75
792.1363	111.5105	60802.5	60230.85
792.2777	113.7632	60829.4	60257.5
792.4191	116.0154	60861.8	60278.55
792.5605	118.2672	60926.4	60349.15
792.7019	120.5185	60933.65	60352.8
792.8434	122.7693	60950.3	60367.95
792.9849	125.0197	60860.3	60274.3
793.1264	127.2696	61033.95	60444.1
793.2679	129.519	61012.35	60420.05
793.4094	131.7679	61076.9	60477.2
793.551	134.0163	60931.8	60332.4
793.6926	136.2642	60999.25	60396.45
793.8342	138.5117	61114.5	60503.45
793.9758	140.7587	61067.3	60460.6
794.1175	143.0052	61063.35	60452.6
794.2591	145.2512	60969.4	60355.9
794.4008	147.4967	61084.85	60475.7
794.5425	149.7417	61067.85	60454.05
794.6842	151.9863	61046.85	60428.35
794.826	154.2304	61002.9	60382.1
794.9677	156.4739	61034.1	60409.7
795.1095	158.717	61109	60479.55
795.2513	160.9596	61077.25	60441.35
795.3931	163.2017	60962.45	60327.25
795.535	165.4433	61055.5	60418.45
795.6768	167.6844	61021.45	60384.5
795.8187	169.925	61079.7	60435.7
795.9606	172.1651	61016.3	60369.35
796.1025	174.4047	61057.3	60408.95
796.2445	176.6439	61044.6	60393.6
796.3864	178.8825	61017.2	60363.65
796.5284	181.1206	61106.35	60448.6
796.6704	183.3582	61081.95	60417.95
796.8124	185.5954	61040.3	60377.45
796.9544	187.832	61074.75	60406.95
797.0965	190.0681	61015.6	60346.7
797.2386	192.3037	61108.55	60432.9
797.3806	194.5388	61204.95	60529.05
797.5228	196.7734	60988.4	60309.1
797.6649	199.0075	61211.2	60528.3
797.807	201.2411	61135.1	60458.2
797.9492	203.4742	61257.35	60577.05
798.0914	205.7068	61247.9	60560.45
798.2336	207.9389	61214.4	60524.55
798.3758	210.1704	61222.55	60537.95
798.518	212.4015	61322.4	60647.5
798.6603	214.632	61205.95	60537.35
798.8025	216.862	61329.2	60664.55
798.9448	219.0915	61259.5	60593
799.0871	221.3205	61256.15	60586.55
799.2294	223.549	61363.4	60695.65
799.3718	225.777	61350.95	60683.45
799.5141	228.0044	61406	60726.8
799.6565	230.2314	61362.2	60686.8
799.7989	232.4578	61331.3	60650.45
799.9413	234.6837	61369.35	60680.6
800.0837	236.909	61575.35	60885.6
800.2262	239.1339	61308.65	60591.75
800.3687	241.3582	61436.2	60737.15
800.5111	243.582	61433.35	60704.2
800.6536	245.8053	61416.15	60698.35
800.7961	248.0281	61433.2	60721.8
800.9387	250.2503	61473.2	60757.6
801.0812	252.472	61385.15	60666.2
801.2238	254.6932	61463.3	60742.65
801.3664	256.9139	61417.5	60699.8
801.509	259.134	61603.25	60879.35
801.6516	261.3536	61399.2	60676.75
801.7942	263.5727	61516.3	60792.8
801.9369	265.7912	61456.95	60733.35
802.0795	268.0092	61490.45	60766.45
802.2222	270.2267	61507	60781.2
802.3649	272.4436	61416.8	60691.2
802.5076	274.6601	61504.6	60768.45
802.6504	276.8759	61540.3	60808.25
802.7931	279.0913	61494.95	60761.25
802.9359	281.3061	61520.25	60786.05
803.0787	283.5204	61508.2	60770.65
803.2215	285.7341	61482.5	60743.55
803.3643	287.9473	61594.4	60842
803.5071	290.16	61523.85	60778.7
803.6499	292.3721	61542.15	60803.7
803.7928	294.5837	61506.7	60766.5
803.9357	296.7947	61454.85	60714.55
804.0786	299.0052	61583.75	60846.15
804.2215	301.2152	61509.85	60767.35
804.3644	303.4246	61559.5	60819
804.5074	305.6334	61581	60840.6
804.6503	307.8418	61484.3	60739.45
804.7933	310.0495	61498.3	60750
804.9363	312.2568	61482.1	60737.55
805.0793	314.4635	61481.95	60729.65
805.2223	316.6696	61516.2	60764.7
805.3653	318.8752	61563.45	60803.9
805.5084	321.0802	61361.4	60607.1
805.6514	323.2847	61452.1	60694.65
805.7945	325.4887	61431.15	60673.5
805.9376	327.692	61382.6	60626.55
806.0807	329.8949	61447.55	60690.65
806.2238	332.0972	61403.6	60642.75
806.367	334.2989	61445	60679.3
806.5101	336.5001	61507.05	60741.75
806.6533	338.7007	61362.65	60597.25
806.7965	340.9008	61468.05	60701.1
806.9397	343.1003	61474.3	60705.85
807.0829	345.2992	61518	60750.95
807.2261	347.4976	61433.45	60662.4
807.3693	349.6955	61461.8	60689.75
807.5126	351.8927	61411.4	60634.35
807.6559	354.0895	61482.55	60694.45
807.7991	356.2856	61444.65	60667.75
807.9424	358.4812	61504.25	60727.35
808.0857	360.6763	61411.6	60634.4
808.2291	362.8707	61521.35	60740.2
808.3724	365.0646	61431.15	60646.55
808.5158	367.258	61434.1	60649.1
808.6591	369.4508	61381.1	60593.05
808.8025	371.643	61490.8	60700.75
808.9459	373.8346	61426.95	60636.95
809.0893	376.0257	61438.4	60644.95
809.2327	378.2162	61404.65	60613.2
809.3762	380.4062	61345.4	60547.4
809.5196	382.5956	61390.35	60599.95
809.6631	384.7844	61404.8	60617.95
809.8066	386.9726	61432.8	60645.8
809.9501	389.1603	61423.45	60635.55
810.0936	391.3474	61334.5	60516.65
810.2371	393.5339	61417.15	60629.1
810.3806	395.7199	61294.3	60506.7
810.5241	397.9052	61310.85	60525.3
810.6677	400.09	61338.85	60552.35
810.8113	402.2743	61391.1	60601.2
810.9548	404.4579	61310.45	60523.1
811.0984	406.641	61309.25	60515.9
811.2421	408.8235	61342.6	60553.15
811.3857	411.0054	61363	60572.95
811.5293	413.1868	61381.2	60583.65
811.673	415.3675	61342.85	60541.15
811.8166	417.5477	61347.55	60542.15
811.9603	419.7273	61334.7	60530.6
812.104	421.9064	61297.4	60487.85
812.2477	424.0848	61321.6	60516.75
812.3914	426.2627	61375.1	60569.35
812.5351	428.4399	61281.4	60473.6
812.6788	430.6166	61182.5	60368.8
812.8226	432.7928	61294.75	60482.1
812.9663	434.9683	61191.3	60378.85
813.1101	437.1432	61206.85	60393.25
813.2539	439.3176	61268.15	60457.8
813.3977	441.4914	61134.65	60324.8
813.5415	443.6645	61169.1	60357.35
813.6853	445.8371	61163.3	60352.05
813.8291	448.0091	61104.95	60292.1
813.973	450.1806	61072.45	60260.3
814.1168	452.3514	61079.9	60265.15
814.2607	454.5216	61018.8	60193.55
814.4046	456.6913	61067.85	60251.05
814.5485	458.8603	61076.35	60260.85
814.6924	461.0288	61010.2	60197.6
814.8363	463.1967	61067.85	60257.4
814.9802	465.3639	61077.3	60262.9
815.1241	467.5306	60925.85	60108.85
815.2681	469.6967	61006.35	60191.35
815.412	471.8622	61035.35	60220.55
815.556	474.0271	60981.95	60166.65
815.7	476.1914	60993.7	60171.8
815.844	478.3551	60995.25	60174.4
815.988	480.5182	61068.6	60249.35
816.132	482.6807	60961.45	60147.25
816.276	484.8426	60973.45	60160.3
816.4201	487.0039	61059.15	60243.75
816.5641	489.1647	61073.65	60251.7
816.7082	491.3248	60954.35	60131.95
816.8522	493.4843	61046.1	60225.55
816.9963	495.6432	61054.55	60235.25
817.1404	497.8015	60937.05	60110.8
817.2845	499.9592	61025.95	60199.6
817.4286	502.1163	61014.5	60185.25
817.5727	504.2728	61004.25	60180.85
817.7168	506.4287	61014.6	60191.15
817.861	508.5839	60928.45	60106.15
818.0051	510.7386	60981.55	60155.05
818.1493	512.8927	60994.7	60161.45
818.2935	515.0461	60963.2	60133.8
818.4377	517.199	61015	60187
818.5818	519.3512	60976.9	60144.8
818.726	521.5029	60958.8	60122.7
818.8703	523.6539	60991.75	60159.15
819.0145	525.8043	60887.8	60051.15
819.1587	527.9541	60967.5	60131.2
819.303	530.1033	60942.45	60108.2
819.4472	532.2519	60915.55	60081.8
819.5915	534.3999	60938.45	60099.05
819.7357	536.5472	60998.5	60160.95
819.88	538.694	60875.3	60040.8
820.0243	540.8401	60957.85	60121.6
820.1686	542.9856	60933.3	60091.2
820.3129	545.1305	60966.6	60120.85
820.4572	547.2748	60918.05	60074.95
820.6016	549.4185	60897.05	60051.45
820.7459	551.5615	60936.2	60094.55
820.8902	553.704	60902.9	60060.4
821.0346	555.8458	60867.25	60026.6
821.1789	557.987	60899.45	60057.95
821.3233	560.1276	60929.95	60086.05
821.4677	562.2675	60895.3	60049.95
821.6121	564.4069	60899.85	60055
821.7565	566.5456	60919.45	60077.5
821.9009	568.6837	60832.35	59989.2
822.0453	570.8212	60885.8	60041.25
822.1897	572.958	60777.9	59935.15
822.3342	575.0942	60843.35	60003.95
822.4786	577.2299	60783.9	59940.25
822.6231	579.3648	60764.55	59924.65
822.7675	581.4992	60735.35	59900.1
822.912	583.6329	60712.25	59878.25
823.0565	585.766	60687.15	59851.75
823.201	587.8985	60706.4	59864.05
823.3454	590.0304	60633.65	59776.15
823.4899	592.1616	60691.75	59842.75
823.6345	594.2922	60663.4	59817.8
823.779	596.4222	60607.6	59756.3
823.9235	598.5515	60595.55	59744.5
824.068	600.6802	60617.1	59767.55
824.2126	602.8083	60555.65	59707.45
824.3571	604.9358	60552.85	59700.4
824.5017	607.0626	60563.35	59711.6
824.6462	609.1888	60510.25	59654.2
824.7908	611.3144	60559.7	59705.15
824.9354	613.4393	60514.3	59658.55
825.08	615.5636	60485.4	59628.8
825.2246	617.6873	60507.5	59652.9
825.3692	619.8103	60491.05	59633.55
825.5138	621.9327	60503.05	59645.25
825.6584	624.0544	60526.75	59671.85
825.803	626.1756	60455.05	59599.6
825.9477	628.2961	60461.6	59605.8
826.0923	630.4159	60452.5	59597.55
826.237	632.5351	60426.35	59566.55
826.3816	634.6537	60477.3	59616.95
826.5263	636.7716	60436.6	59575.35
826.6709	638.8889	60431.75	59567.65
826.8156	641.0056	60444.65	59582.05
826.9603	643.1216	60460.45	59595.7
827.105	645.237	60455.9	59592.8
827.2497	647.3518	60395.6	59536.7
827.3944	649.4659	60398.65	59543.8
827.5391	651.5793	60390.9	59535.45
827.6838	653.6922	60410.05	59552.55
827.8285	655.8043	60373.35	59514.85
827.9733	657.9159	60396.45	59536.7
828.118	660.0268	60306.45	59447.95
828.2627	662.137	60337.45	59475.9
828.4075	664.2466	60355.6	59490.35
828.5522	666.3556	60313.6	59449.25
828.697	668.4639	60311.4	59446.4
828.8418	670.5716	60309.3	59449.75
828.9865	672.6786	60316	59453.2
829.1313	674.785	60262.1	59392.65
829.2761	676.8907	60276.5	59410.25
829.4209	678.9958	60269.25	59406.7
829.5657	681.1002	60279.9	59416.1
829.7105	683.204	60242.8	59369.4
829.8553	685.3072	60223	59352.4
830.0001	687.4097	60202.55	59334.55
830.1449	689.5115	60192.05	59323.4
830.2898	691.6127	60229.2	59362.35
830.4346	693.7132	60199.55	59330
830.5794	695.8131	60205.95	59319.75
830.7243	697.9123	60202.4	59332.05
830.8691	700.0109	60198.9	59328.1
831.014	702.1089	60142.25	59273.5
831.1588	704.2061	60142.3	59273.75
831.3037	706.3028	60161.15	59292.45
831.4486	708.3987	60141.6	59269.05
831.5935	710.4941	60110.65	59241.6
831.7383	712.5887	60113.4	59241.7
831.8832	714.6827	60125.2	59253
832.0281	716.7761	60113.7	59244.4
832.173	718.8688	60123.1	59249
832.3179	720.9608	60121.8	59246.4
832.4628	723.0522	60118.95	59240.35
832.6077	725.1429	60083.7	59209.75
832.7527	727.233	60114.95	59240
832.8976	729.3224	60063.9	59189.6
833.0425	731.4112	60043.4	59167.65
833.1874	733.4993	60039.65	59162.75
833.3324	735.5867	60005.45	59129.25
833.4773	737.6735	60005	59130.5
833.6222	739.7596	59965.35	59088.9
833.7672	741.845	59964.3	59087.4
833.9122	743.9298	59961.4	59083.05
834.0571	746.014	59931.35	59058.2
834.2021	748.0974	59886.25	59007.35
834.347	750.1802	59902.25	59026.15
834.492	752.2624	59838	58958.1
834.637	754.3439	59825.6	58944.65
834.782	756.4247	59820.85	58934
834.9269	758.5048	59784.75	58901.55
835.0719	760.5843	59778.55	58897.95
835.2169	762.6631	59761.7	58880.25
835.3619	764.7413	59737.85	58859.3
835.5069	766.8188	59751.3	58867.9
835.6519	768.8956	59758.1	58875.95
835.7969	770.9718	59741.4	58862.45
835.9419	773.0473	59718.8	58839.95
836.0869	775.1221	59651.7	58770.75
836.232	777.1962	59620.75	58741.65
836.377	779.2697	59503.55	58620.8
836.522	781.3426	59562.6	58659.6
836.667	783.4147	59565.2	58682.8
836.8121	785.4862	59527.35	58647.85
836.9571	787.557	59423.25	58538.7
837.1021	789.6271	59530.85	58648.05
837.2472	791.6966	59446.65	58564
837.3922	793.7654	59298.65	58415.2
837.5373	795.8335	59360.3	58476.15
837.6823	797.901	59353.8	58472
837.8274	799.9678	59271.65	58385.15
837.9724	802.0339	59260.75	58376.2
838.1175	804.0993	59267.9	58373.1
838.2626	806.1641	59190.85	58307.1
838.4076	808.2282	59162.65	58280.15
838.5527	810.2916	59146.35	58261.6
838.6978	812.3544	59217.1	58334.3
838.8428	814.4164	59108.9	58227.25
838.9879	816.4778	59086.5	58200.1
839.133	818.5385	59088	58200.45
839.2781	820.5986	59066.65	58177.85
839.4232	822.658	59088.35	58200.6
839.5682	824.7166	59055.65	58165.85
839.7133	826.7747	58990.05	58102.3
839.8584	828.832	59031.35	58143.35
840.0035	830.8886	59039.7	58151.35
840.1486	832.9446	59046.6	58155.95
840.2937	834.9999	58844.95	57958.7
840.4388	837.0545	58922.2	58031.55
840.5839	839.1085	58970.85	58083.3
840.729	841.1618	58902.6	58008.8
840.8741	843.2143	58755.75	57870.2
841.0192	845.2662	58728.35	57843.4
841.1643	847.3175	58783.3	57893.05
841.3095	849.368	58654.2	57765.7
841.4546	851.4179	58748.15	57858.5
841.5997	853.467	58653.6	57763.95
841.7448	855.5155	58689.35	57800.35
841.8899	857.5633	58594.6	57708.1
842.0351	859.6105	58527.2	57638.75
842.1802	861.6569	58590.65	57698.55
842.3253	863.7027	58498.8	57609.6
842.4704	865.7478	58516.4	57624.8
842.6156	867.7922	58475.7	57588
842.7607	869.8359	58529.4	57639.9
842.9058	871.8789	58406.2	57516.55
843.0509	873.9212	58444.7	57521.05
843.1961	875.9629	58399.5	57509.65
843.3412	878.0039	58412	57521.35
843.4863	880.0441	58378.1	57489.4
843.6315	882.0837	58378.55	57486.65
843.7766	884.1226	58376.75	57484.25
843.9218	886.1609	58333.65	57443.9
844.0669	888.1984	58325.35	57436.05
844.212	890.2352	58433.95	57544.8
844.3572	892.2714	58292.3	57396.8
844.5023	894.3069	58336.45	57443.1
844.6475	896.3416	58269.5	57375.85
844.7926	898.3757	58260.35	57367.5
844.9377	900.4091	58153.4	57261.4
845.0829	902.4418	58245.55	57347.7
845.228	904.4739	58143.6	57246.5
845.3732	906.5052	58146.6	57251.65
845.5183	908.5358	58110.1	57215.95
845.6635	910.5658	58096.35	57195.8
845.8086	912.595	58077.5	57184.05
845.9538	914.6236	57970.9	57075.7
846.0989	916.6515	58106.05	57212.3
846.2441	918.6786	57928.1	57032.45
846.3892	920.7051	57917.2	57021.8
846.5344	922.7309	57924.9	57029.2
846.6795	924.756	57928.85	57032
846.8246	926.7804	57881.6	56983.6
846.9698	928.8041	57743.45	56842.85
847.1149	930.8272	57817.45	56919.75
847.2601	932.8495	57786.4	56890.8
847.4052	934.8711	57711.8	56813.7
847.5504	936.892	57673.05	56778.9
847.6955	938.9123	57655.3	56759.05
847.8407	940.9318	57624.4	56727.8
847.9858	942.9506	57584.35	56686.6
848.131	944.9688	57565.65	56668.4
848.2761	946.9862	57460.55	56564.25
848.4213	949.003	57472.1	56574.1
848.5664	951.019	57354.65	56457.7
848.7115	953.0344	57356.1	56460.95
848.8567	955.0491	57325.25	56426.15
849.0018	957.063	57368.1	56472.1
849.147	959.0763	57375.8	56481.9
849.2921	961.0888	57288.4	56389.8
849.4373	963.1007	57317.3	56420.2
849.5824	965.1119	57290.55	56398.35
849.7275	967.1223	57287.7	56398.7
849.8727	969.1321	57287.55	56397.7
850.0178	971.1412	57228.5	56331.4
850.1629	973.1495	57136.6	56242.9
850.3081	975.1572	57163.05	56228.35
850.4532	977.1641	57146.35	56249.45
850.5983	979.1704	57094.15	56194.75
850.7435	981.1759	57064.2	56164.1
850.8886	983.1808	57009.65	56110.45
851.0337	985.1849	56942.45	56034.05
851.1788	987.1884	56962.65	56064.95
851.324	989.1911	56995.35	56096.25
851.4691	991.1932	56828.55	55931.95
851.6142	993.1945	56861.95	55967.65
851.7593	995.1951	56853.35	55954.35
851.9045	997.1951	56729.85	55825.7
852.0496	999.1943	56633.3	55736.3
852.1947	1001.1928	56614.1	55714.9
852.3398	1003.1906	56608.45	55709.8
852.4849	1005.1877	56451.5	55552.25
852.63	1007.1841	56383.4	55485.75
852.7751	1009.1798	56369.1	55471.1
852.9202	1011.1748	56327.05	55428.1
853.0653	1013.1691	56330.5	55434.85
853.2104	1015.1627	55907.6	55007.45
853.3555	1017.1556	56090.15	55192.25
853.5006	1019.1477	56122.95	55225.5
853.6457	1021.1392	55891.2	54996.05
853.7908	1023.1299	55600.85	54709.6
853.9359	1025.12	55771.65	54879.55
854.081	1027.1093	55600.6	54712.85
854.2261	1029.0979	55583.4	54697.05
854.3712	1031.0859	55493.9	54604.65
854.5163	1033.0731	55244.65	54351.2
854.6613	1035.0596	55380.6	54484.45
854.8064	1037.0454	55261.2	54364.6
854.9515	1039.0304	55176.75	54278.3
855.0965	1041.0148	54767.5	53868.95
855.2416	1042.9985	54868.95	53970.35
855.3867	1044.9814	55085.85	54188.75
855.5317	1046.9636	54663.65	53764.25
855.6768	1048.9452	54750.55	53853.3
855.8219	1050.926	54658.25	53761.8
855.9669	1052.9061	54604.65	53707.2
856.112	1054.8855	54648.15	53750.45
856.257	1056.8642	54500.35	53602.3
856.4021	1058.8421	54301.2	53400.35
856.5471	1060.8194	54303.25	53404.15
856.6921	1062.7959	54097	53194.8
856.8372	1064.7717	54305.2	53406.25
856.9822	1066.7469	54230.6	53331.25
857.1272	1068.7213	54197.25	53296.75
857.2723	1070.695	54043	53147.3
857.4173	1072.6679	53872.55	52974.55
857.5623	1074.6402	54043.45	53142.45
857.7073	1076.6117	53832	52926.7
857.8523	1078.5826	53840.65	52939.8
857.9973	1080.5527	53811.75	52910.85
858.1423	1082.5221	53612.7	52713.3
858.2873	1084.4908	53647.45	52748.4
858.4323	1086.4587	53493.65	52592.2
858.5773	1088.426	53505.9	52605.05
858.7223	1090.3925	53425.4	52519.7
858.8673	1092.3584	53411.8	52514.75
859.0123	1094.3235	53209.45	52312.7
859.1573	1096.2879	53175.9	52275.75
859.3022	1098.2515	53273.95	52374.65
859.4472	1100.2145	53144.65	52246.25
859.5922	1102.1767	53070.45	52170.45
859.7371	1104.1382	53170.85	52269.1
859.8821	1106.099	53042.1	52139.7
860.027	1108.0591	52976	52076.35
860.172	1110.0185	52715.45	51814.9
860.3169	1111.9771	52971.55	52074.05
860.4619	1113.9351	52798.45	51897.75
860.6068	1115.8923	52666.55	51763.95
860.7517	1117.8488	52495.6	51594
860.8967	1119.8045	52329.55	51428.85
861.0416	1121.7596	52382.25	51482.6
861.1865	1123.7139	52240.05	51340.85
861.3314	1125.6675	52253.5	51354.2
861.4763	1127.6204	52181.45	51281.4
861.6212	1129.5726	52006.8	51106.55
861.7661	1131.524	52106.5	51209
861.911	1133.4748	52060.95	51159.9
862.0559	1135.4248	51931.8	51029.25
862.2008	1137.3741	51863.55	50964.35
862.3457	1139.3226	51793.55	50892.25
862.4905	1141.2705	51764	50861.45
862.6354	1143.2176	51701.6	50798
862.7803	1145.164	51539.85	50637.8
862.9251	1147.1097	51540.55	50640.7
863.07	1149.0546	51524.1	50621.3
863.2148	1150.9989	51522.85	50622.4
863.3597	1152.9424	51359.7	50462.85
863.5045	1154.8852	51451.2	50549.1
863.6493	1156.8272	51301.3	50401.25
863.7942	1158.7686	51460.9	50550.8
863.939	1160.7092	51136.3	50234.15
864.0838	1162.6491	51114.4	50210.6
864.2286	1164.5883	51143.05	50239.95
864.3734	1166.5267	51018.8	50116.55
864.5182	1168.4644	51117.9	50218.35
864.663	1170.4014	51038.6	50134.6
864.8078	1172.3377	51122.1	50221.6
864.9526	1174.2732	51174.85	50274.3
865.0974	1176.2081	51080.7	50179.95
865.2421	1178.1421	50991	50087.35
865.3869	1180.0755	51147.75	50248.85
865.5317	1182.0082	51011.7	50109.9
865.6764	1183.9401	50990.35	50091.05
865.8212	1185.8713	50842.65	49946.2
865.9659	1187.8017	50801.15	49903.9
866.1106	1189.7315	50746.25	49853.25
866.2554	1191.6605	50594.4	49699.45
866.4001	1193.5888	50463.45	49568.5
866.5448	1195.5163	50235.9	49338.1
866.6895	1197.4432	50226.15	49328.15
866.8342	1199.3693	50201.3	49302.3
866.9789	1201.2947	50032.35	49125.7
867.1236	1203.2193	50072.15	49171.75
867.2683	1205.1432	49812.25	48912.1
867.413	1207.0664	49784.4	48887
867.5576	1208.9889	49686.5	48783.8
867.7023	1210.9106	49654	48751.9
867.847	1212.8316	49485.8	48586.4
867.9916	1214.7519	49462.85	48555
868.1363	1216.6715	49360.9	48460.05
868.2809	1218.5903	49293.85	48394.05
868.4255	1220.5084	49261.85	48363.8
868.5701	1222.4257	49252.85	48354.45
868.7148	1224.3424	49153.75	48255.25
868.8594	1226.2583	48960.65	48057.7
869.004	1228.1735	49047.95	48147.8
869.1486	1230.0879	48792.45	47891.65
869.2932	1232.0016	48933.8	48034.8
869.4377	1233.9146	48689.4	47785.95
869.5823	1235.8269	48711.55	47810.65
869.7269	1237.7384	48660.05	47761.65
869.8715	1239.6492	48484.45	47583.95
870.016	1241.5592	48337.55	47437.35
870.1606	1243.4686	48428	47526.5
870.3051	1245.3772	48193	47294.9
870.4496	1247.285	48354.6	47455.75
870.5941	1249.1922	48055.5	47157.4
870.7387	1251.0986	48217.5	47322.1
870.8832	1253.0042	48015	47114.05
871.0277	1254.9092	48084.95	47184.75
871.1722	1256.8134	47749.25	46853
871.3167	1258.7169	48067.4	47167.3
871.4611	1260.6196	47807.1	46907.2
871.6056	1262.5216	47823.5	46921.8
871.7501	1264.4229	47844.8	46946.45
871.8945	1266.3234	47934.4	47034.65
872.039	1268.2232	47844.9	46944.05
872.1834	1270.1223	47671.9	46771.15
872.3278	1272.0207	47628.95	46730.1
872.4723	1273.9183	47617.85	46710.65
872.6167	1275.8151	47537.05	46640
872.7611	1277.7113	47501.1	46599.5
872.9055	1279.6067	47332.7	46435.55
873.0499	1281.5014	47324	46424
873.1943	1283.3953	47563.45	46662.05
873.3386	1285.2885	47459.85	46561.85
873.483	1287.181	47516	46615.55
873.6274	1289.0727	47610.95	46713.15
873.7717	1290.9637	47291.1	46392.7
873.9161	1292.854	47717.7	46818.8
874.0604	1294.7435	47519.45	46619.45
874.2047	1296.6323	47482.8	46583.5
874.349	1298.5204	47294.35	46388.85
874.4933	1300.4077	47365.85	46467.2
874.6376	1302.2943	47090.5	46191.15
874.7819	1304.1802	46965.85	46068.9
874.9262	1306.0653	46752.1	45850.95
875.0705	1307.9497	46615.1	45716.25
875.2147	1309.8333	46596.35	45696.4
875.359	1311.7162	46421.7	45521.1
875.5032	1313.5984	46442.5	45541.05
875.6475	1315.4798	46199.3	45296.3
875.7917	1317.3605	46177.45	45263.35
875.9359	1319.2405	46139.4	45238.55
876.0801	1321.1197	45859.65	44958.65
876.2243	1322.9982	45846.45	44941.85
876.3685	1324.876	45694.4	44794.7
876.5127	1326.753	45516.5	44616.05
876.6569	1328.6293	45790.85	44887.05
876.801	1330.5048	45568.2	44664.35
876.9452	1332.3796	45328.05	44427.8
877.0893	1334.2537	45250.5	44324.95
877.2335	1336.127	45296.6	44397.1
877.3776	1337.9996	45083.2	44181.4
877.5217	1339.8714	45214.95	44313.25
877.6658	1341.7426	44873.5	43930.95
877.8099	1343.6129	45013.8	44112.25
877.954	1345.4826	44934.05	44030.2
878.0981	1347.3515	44723.6	43822.65
878.2422	1349.2196	44805.7	43904.35
878.3862	1351.087	44782.45	43883.4
878.5303	1352.9537	44813.35	43914
878.6743	1354.8197	44739.1	43841.75
878.8184	1356.6849	44760.95	43860.1
878.9624	1358.5493	44658.65	43759.8
879.1064	1360.4131	44570.8	43671
879.2504	1362.276	44712.8	43812.75
879.3944	1364.1383	44423.1	43521.85
879.5384	1365.9998	44273.7	43367.7
879.6823	1367.8606	44252.95	43352.6
879.8263	1369.7206	44088.05	43186.55
879.9702	1371.5799	43929.8	43024.8
880.1142	1373.4384	43731.85	42830.8
880.2581	1375.2962	43722.6	42820.8
880.402	1377.1533	43283.65	42383.75
880.5459	1379.0096	43115.05	42215.5
880.6898	1380.8652	43013.35	42115.45
880.8337	1382.7201	42850.7	41952.55
880.9776	1384.5742	42700	41800.95
881.1215	1386.4275	42361.3	41459.9
881.2653	1388.2802	42361.65	41461.1
881.4092	1390.132	42292.1	41392.45
881.553	1391.9832	42080.55	41176.7
881.6968	1393.8336	41772.45	40871.05
881.8406	1395.6832	41791.3	40890.65
881.9844	1397.5322	41777.4	40878.25
882.1282	1399.3803	41511.3	40606.8
882.272	1401.2278	41391.4	40490.3
882.4158	1403.0745	41195.3	40297.45
882.5595	1404.9204	41146.8	40247.4
882.7033	1406.7656	41145.1	40246.7
882.847	1408.6101	40758.75	39857.85
882.9908	1410.4538	40758.4	39860.05
883.1345	1412.2968	40743.3	39842.05
883.2782	1414.139	40459.9	39560.3
883.4219	1415.9805	40533.75	39635.05
883.5656	1417.8213	40321.05	39415.25
883.7092	1419.6613	40374.25	39476.15
883.8529	1421.5006	40220.6	39318.2
883.9965	1423.3391	40091.35	39192.1
884.1402	1425.1769	40095.35	39194.95
884.2838	1427.0139	40329.65	39429.35
884.4274	1428.8502	40201.05	39301.8
884.571	1430.6858	40303.6	39405.25
884.7146	1432.5206	40512.95	39615.45
884.8582	1434.3547	40347.1	39444.95
885.0018	1436.188	40154.55	39256.25
885.1453	1438.0206	40304.6	39404.65
885.2889	1439.8524	40074.1	39175.75
885.4324	1441.6835	39885.55	38984.4
885.5759	1443.5139	39962.75	39060.5
885.7194	1445.3435	39694.1	38795.7
885.8629	1447.1724	39739.7	38841.45
886.0064	1449.0005	39476.6	38578.6
886.1499	1450.8279	39548	38648.2
886.2933	1452.6545	39473.6	38575.3
886.4368	1454.4804	39442.9	38544.75
886.5802	1456.3056	39249.8	38344.55
886.7237	1458.13	39238.55	38340.8
886.8671	1459.9536	39372.25	38472.7
887.0105	1461.7766	39051.9	38153.8
887.1539	1463.5987	38761.3	37861.65
887.2972	1465.4202	38713.45	37815.25
887.4406	1467.2409	38525.65	37627
887.584	1469.0608	38314	37414.35
887.7273	1470.88	38199.45	37299.8
887.8706	1472.6984	38160.45	37261.9
888.0139	1474.5161	37808.35	36907
888.1572	1476.3331	37796.2	36896.15
888.3005	1478.1493	37606.05	36708
888.4438	1479.9648	37582.35	36684.95
888.5871	1481.7795	37540.5	36641.3
888.7303	1483.5935	37554.05	36656.05
888.8736	1485.4067	37340.7	36439.6
889.0168	1487.2192	37299.2	36400.8
889.16	1489.031	37182.4	36281.25
889.3032	1490.842	37166.4	36269.15
889.4464	1492.6522	37171.6	36272.6
889.5896	1494.4618	36982.95	36083.6
889.7327	1496.2705	37005.6	36106.85
889.8759	1498.0785	36735.4	35836.55
890.019	1499.8858	36719.3	35822.05
890.1622	1501.6924	36734.95	35838.25
890.3053	1503.4981	36576.3	35679.25
890.4484	1505.3032	36574.45	35676.75
890.5914	1507.1075	36403.4	35503.05
890.7345	1508.911	36376.85	35478.4
890.8776	1510.7138	36332.5	35432.75
891.0206	1512.5159	36263.15	35365
891.1637	1514.3172	35902.1	35004.4
891.3067	1516.1178	35895.95	34998.4
891.4497	1517.9176	35888.95	34988.8
891.5927	1519.7166	35764	34866.8
891.7357	1521.515	35633.55	34730.65
891.8786	1523.3126	35537.1	34642.7
892.0216	1525.1094	35483.5	34585.05
892.1645	1526.9055	35341.95	34447.55
892.3074	1528.7008	35253.75	34357.45
892.4503	1530.4954	34937.05	34040.45
892.5932	1532.2893	35053.3	34157.65
892.7361	1534.0824	34825.5	33925.15
892.879	1535.8747	34744.9	33848.65
893.0218	1537.6663	34761.3	33867.95
893.1647	1539.4572	34469.05	33572.1
893.3075	1541.2473	34555.7	33659.6
893.4503	1543.0367	34367.3	33474.9
893.5931	1544.8253	34257.45	33359.15
893.7359	1546.6132	34236.15	33337.45
893.8787	1548.4003	34054.25	33150.7
894.0214	1550.1867	34064.25	33161.75
894.1642	1551.9723	34017.35	33119.25
894.3069	1553.7572	34002	33107.25
894.4496	1555.5414	33954.9	33061.75
894.5923	1557.3247	33843.9	32948.95
894.735	1559.1074	33794.75	32905.75
894.8777	1560.8893	33752	32859.4
895.0204	1562.6705	33694	32801.65
895.163	1564.4509	33641.8	32750
895.3056	1566.2305	33591.7	32699.6
895.4482	1568.0094	33659.1	32770
895.5908	1569.7876	33540.7	32648.75
895.7334	1571.565	33373.55	32482.25
895.876	1573.3417	33406.55	32514.2
896.0186	1575.1176	33312.95	32420.2
896.1611	1576.8928	33208.4	32316.2
896.3036	1578.6672	33121.6	32230.6
896.4461	1580.4409	33038.4	32150.25
896.5886	1582.2138	32881.35	31989.45
896.7311	1583.986	32843.85	31951
896.8736	1585.7575	32854.8	31964.05
897.0161	1587.5282	32747.9	31856.5
897.1585	1589.2981	32770.4	31883.6
897.3009	1591.0673	32654.7	31765.8
897.4433	1592.8358	32643.2	31754.25
897.5857	1594.6035	32604.2	31714.25
897.7281	1596.3704	32552.2	31661.45
897.8705	1598.1366	32423.4	31534.65
898.0128	1599.9021	32320.3	31432.25
898.1551	1601.6668	32222.75	31329
898.2975	1603.4308	32187.15	31293.95
898.4398	1605.194	32230.95	31336.25
898.5821	1606.9564	32156.4	31269.6
898.7243	1608.7182	32195.9	31307.25
898.8666	1610.4791	32178.65	31295.05
899.0088	1612.2394	32156.45	31272.35
899.1511	1613.9988	32165.35	31279.45
899.2933	1615.7576	32230.4	31341.5
899.4355	1617.5156	32245.55	31351.6
899.5776	1619.2728	32272.5	31382.35
899.7198	1621.0293	32112.85	31223.75
899.862	1622.785	32007	31111.4
900.0041	1624.54	31784.3	30890.8
900.1462	1626.2942	31642.7	30753.05
900.2883	1628.0477	31301.55	30413.75
900.4304	1629.8005	31176	30286.05
900.5725	1631.5525	30978.5	30090.85
900.7145	1633.3037	30836.2	29949.4
900.8566	1635.0542	30707.3	29823.85
900.9986	1636.804	30560.2	29672.9
901.1406	1638.553	30481.05	29548.6
901.2826	1640.3013	30325.55	29437.55
901.4245	1642.0488	30188.65	29299.6
901.5665	1643.7955	30196.9	29309.95
901.7085	1645.5416	30063.7	29175.95
901.8504	1647.2868	30080.9	29195.4
901.9923	1649.0313	29953.5	29065.6
902.1342	1650.7751	29975.2	29084.45
902.2761	1652.5181	29947.5	29063.35
902.4179	1654.2604	29890.25	29001.4
902.5598	1656.0019	29899.6	29013
902.7016	1657.7427	29907.55	29021.15
902.8434	1659.4828	29990	29103.35
902.9852	1661.222	29889.05	29000.4
903.127	1662.9606	29826.7	28939.7
903.2687	1664.6984	29733.7	28844.6
903.4105	1666.4354	29570.4	28683.15
903.5522	1668.1717	29298.9	28409.45
903.6939	1669.9072	28976.85	28088.1
903.8356	1671.642	28832.55	27940.05
903.9773	1673.3761	28636.7	27748.15
904.119	1675.1094	28507.6	27618.85
904.2606	1676.8419	28329.4	27440.95
904.4022	1678.5737	28154.1	27269.4
904.5439	1680.3048	28058.8	27172.3
904.6855	1682.0351	27896.45	27009.75
904.827	1683.7646	27742.35	26852.9
904.9686	1685.4934	27660.3	26771.15
905.1101	1687.2215	27511	26620.95
905.2517	1688.9488	27359.1	26472.1
905.3932	1690.6754	27219.2	26333.35
905.5347	1692.4012	27193.2	26303.1
905.6761	1694.1263	27119.8	26230.05
905.8176	1695.8506	27027.15	26137.8
905.9591	1697.5742	26913.75	26029.5
906.1005	1699.297	26817.9	25931.75
906.2419	1701.0191	26677.3	25791.6
906.3833	1702.7404	26584.15	25697.9
906.5246	1704.461	26426.85	25537.65
906.666	1706.1808	26327.05	25439.5
906.8073	1707.8999	26301.2	25414.2
906.9487	1709.6182	26215.9	25329.85
907.09	1711.3358	26152.7	25268.65
907.2313	1713.0527	26062.65	25179.2
907.3725	1714.7688	25969.95	25079.65
907.5138	1716.4841	25831.15	24945.6
907.655	1718.1987	25810.45	24919.5
907.7962	1719.9126	25739.55	24854.05
907.9374	1721.6257	25670.75	24781.7
908.0786	1723.338	25621.3	24737.35
908.2198	1725.0496	25445.3	24559.85
908.3609	1726.7605	25445.55	24559.75
908.502	1728.4706	25369.4	24481.9
908.6431	1730.18	25221.8	24334.45
908.7842	1731.8886	25145.45	24261.75
908.9253	1733.5964	25095.1	24204.05
909.0664	1735.3036	25054.65	24167.8
909.2074	1737.0099	25044.9	24160.1
909.3484	1738.7156	24999.2	24114.35
909.4894	1740.4204	24851.55	23963.15
909.6304	1742.1246	24842.5	23954.9
909.7714	1743.8279	24761	23876.65
909.9123	1745.5306	24713.8	23826.2
910.0532	1747.2325	24637.35	23753.85
910.1941	1748.9336	24554.65	23671.85
910.335	1750.634	24442.05	23554.3
910.4759	1752.3336	24399.85	23515.4
910.6168	1754.0325	24392.55	23507.75
910.7576	1755.7307	24325.3	23441.6
910.8984	1757.4281	24305.5	23419.45
911.0392	1759.1247	24256.3	23363.15
911.18	1760.8206	24193.45	23300.8
911.3208	1762.5158	24184.25	23293.15
911.4615	1764.2102	24087.15	23200.55
911.6022	1765.9039	23985.45	23099.85
911.7429	1767.5968	23954.4	23071.5
911.8836	1769.289	23879.7	22996.2
912.0243	1770.9804	23792.75	22906.15
912.1649	1772.6711	23793.85	22909.05
912.3056	1774.361	23718.85	22832.65
912.4462	1776.0502	23731.95	22846.25
912.5868	1777.7386	23612.7	22725.15
912.7274	1779.4263	23558.65	22674.6
912.8679	1781.1132	23543.05	22660.55
913.0084	1782.7994	23459.85	22574.6
913.149	1784.4849	23404	22521.35
913.2895	1786.1696	23317.4	22414.25
913.4299	1787.8535	23258.95	22376.8
913.5704	1789.5367	23225.1	22343.25
913.7108	1791.2192	23182.85	22300.5
913.8513	1792.9009	23079.1	22162.1
913.9917	1794.5818	23031.7	22146.35
914.132	1796.2621	22972	22089.15
914.2724	1797.9415	22954.2	22069.15
914.4128	1799.6202	22882.2	21997.65
914.5531	1801.2982	22843.65	21961.2
914.6934	1802.9755	22770.3	21881.15
914.8337	1804.6519	22788.85	21903.9
914.9739	1806.3277	22623.4	21738.6
915.1142	1808.0027	22581.35	21701.55
915.2544	1809.6769	22559.3	21677.85
915.3946	1811.3504	22528.35	21645.5
915.5348	1813.0231	22424.3	21541.65
915.675	1814.6951	22411.1	21525.95
915.8151	1816.3664	22401.6	21515.05
915.9553	1818.0369	22347	21462.25
916.0954	1819.7067	22251.75	21367.1
916.2355	1821.3757	22233	21346.1
916.3755	1823.044	22166.45	21281.6
916.5156	1824.7115	22121.95	21237.75
916.6556	1826.3783	22029.55	21145.05
916.7956	1828.0443	22005.35	21120.2
916.9356	1829.7096	21921.4	21035
917.0756	1831.3741	21897.65	21010.95
917.2155	1833.0379	21838.6	20955.4
917.3555	1834.701	21760.9	20875.95
917.4954	1836.3633	21737.85	20852.8
917.6353	1838.0248	21721.25	20836
917.7751	1839.6856	21675.2	20791.6
917.915	1841.3457	21665.8	20785.1
918.0548	1843.005	21603.15	20718.7
918.1946	1844.6636	21576.25	20694.65
918.3344	1846.3214	21472.9	20588.45
918.4742	1847.9785	21471.65	20590.45
918.6139	1849.6349	21427	20539.6
918.7537	1851.2904	21385.55	20490.4
918.8934	1852.9453	21327.05	20441.65
919.0331	1854.5994	21209.4	20323.7
919.1727	1856.2528	21257	20366.55
919.3124	1857.9054	21176.75	20291.65
919.452	1859.5572	21187.6	20304.2
919.5916	1861.2083	21142.75	20258.4
919.7312	1862.8587	21077.65	20194.35
919.8708	1864.5084	21062.85	20176.7
920.0103	1866.1572	20970.35	20086.8
920.1498	1867.8054	20872.2	19986.95
920.2893	1869.4528	20887.05	20001.65
920.4288	1871.0994	20802.2	19918.5
920.5683	1872.7453	20765.8	19881.3
920.7077	1874.3905	20714.7	19824
920.8471	1876.0349	20649.35	19763.4
920.9865	1877.6786	20659.4	19771.8
921.1259	1879.3215	20636.65	19752.05
921.2653	1880.9637	20537.25	19651.3
921.4046	1882.6051	20550.45	19667.55
921.5439	1884.2458	20454.1	19569.4
921.6832	1885.8858	20396.6	19512.9
921.8225	1887.525	20376.35	19491.2
921.9617	1889.1634	20277.85	19392.8
922.101	1890.8011	20210.4	19324.1
922.2402	1892.4381	20196.65	19311.1
922.3794	1894.0743	20187.85	19300.8
922.5185	1895.7098	20104.35	19219.35
922.6577	1897.3446	20086.5	19201.25
922.7968	1898.9786	20029.65	19140.45
922.9359	1900.6118	19967.05	19085.55
923.075	1902.2443	19889.3	19003.6
923.214	1903.8761	19822.5	18939.55
923.3531	1905.5071	19723.65	18839.65
923.4921	1907.1374	19671.15	18784.85
923.6311	1908.7669	19633.15	18749.6
923.77	1910.3957	19609.35	18724.1
923.909	1912.0237	19509.95	18624.45
924.0479	1913.651	19459.7	18573.9
924.1868	1915.2776	19434.8	18551.1
924.3257	1916.9034	19370.9	18487.2
924.4646	1918.5285	19244.4	18362.45
924.6034	1920.1528	19204.85	18321.6
924.7422	1921.7764	19152.45	18267.6
924.881	1923.3992	19098.9	18216.45
925.0198	1925.0213	18979.25	18095.3
925.1586	1926.6427	18908.35	18026.1
925.2973	1928.2633	19087.7	17951.85
925.436	1929.8832	18870.45	17982.05
925.5747	1931.5023	18762.2	17878.45
925.7134	1933.1207	18712.9	17826.65
925.852	1934.7383	18668.4	17785.05
925.9906	1936.3552	18596.95	17712.3
926.1292	1937.9714	18561.85	17677.55
926.2678	1939.5868	18495.25	17609.05
926.4064	1941.2015	18411.45	17525.2
926.5449	1942.8154	18296.5	17411.75
926.6834	1944.4286	18261.5	17374.95
926.8219	1946.041	18197.25	17288.9
926.9604	1947.6528	18117.8	17228
927.0988	1949.2637	18074.65	17192.6
927.2372	1950.8739	18027.25	17143.05
927.3756	1952.4834	17988.65	17106.25
927.514	1954.0921	17943	17058.55
927.6523	1955.7001	17891.95	17004.35
927.7907	1957.3074	17880.5	16998.35
927.929	1958.9139	17793.65	16910.15
928.0673	1960.5197	17713.55	16830
928.2055	1962.1247	17618.85	16736.65
928.3438	1963.729	17565.85	16683.25
928.482	1965.3325	17528.95	16621.45
928.6202	1966.9353	17427.25	16545.65
928.7584	1968.5374	17409.4	16524.6
928.8965	1970.1387	17360.25	16477.95
929.0346	1971.7393	17278.55	16395.8
929.1727	1973.3392	17210.3	16326.45
929.3108	1974.9383	17139.85	16258.45
929.4489	1976.5366	17115.05	16233.35
929.5869	1978.1342	17094.8	16213.4
929.7249	1979.7311	17035.3	16151.75
929.8629	1981.3273	16968.65	16087.15
930.0009	1982.9227	16904.5	16020.7
930.1388	1984.5173	16865.1	15983.7
930.2767	1986.1112	16816.3	15936.25
930.4146	1987.7044	16781.1	15901.6
930.5525	1989.2968	16726.25	15842.15
930.6904	1990.8885	16693.4	15808
930.8282	1992.4795	16675.15	15792.95
930.966	1994.0697	16579.6	15697
931.1038	1995.6592	16553.5	15671.15
931.2415	1997.2479	16469.4	15586.7
931.3793	1998.8359	16466.1	15585.8
931.517	2000.4232	16380.1	15499.15
931.6547	2002.0097	16335.75	15457.8
931.7923	2003.5955	16258.7	15377.9
931.93	2005.1805	16259.45	15378.2
932.0676	2006.7648	16232.8	15352.15
932.2052	2008.3484	16184.7	15304.1
932.3427	2009.9312	16182.9	15302.95
932.4803	2011.5133	16097.5	15219.05
932.6178	2013.0946	16048.5	15167.65
932.7553	2014.6752	16002.9	15125.05
932.8928	2016.2551	15958.65	15078.55
933.0302	2017.8342	15885.35	15004.3
933.1676	2019.4126	15860.05	14981.3
933.305	2020.9902	15768.65	14888.55
933.4424	2022.5672	15737.95	14858.1
933.5798	2024.1433	15733.7	14850.8
933.7171	2025.7188	15682.95	14803.9
933.8544	2027.2935	15624.6	14744.15
933.9917	2028.8674	15541.15	14660.75
934.129	2030.4406	15541.5	14664.1
934.2662	2032.0131	15430.5	14552.45
934.4034	2033.5849	15364.9	14477.25
934.5406	2035.1559	15356.9	14478.05
934.6778	2036.7261	15348.05	14466.2
934.8149	2038.2957	15299.05	14418.95
934.952	2039.8645	15266.85	14383.9
935.0891	2041.4325	15262.55	14378.3
935.2262	2042.9998	15185.6	14305.45
935.3632	2044.5664	15182.35	14299.85
935.5002	2046.1323	15122.85	14244.6
935.6372	2047.6974	15072.75	14194.35
935.7742	2049.2617	15024.3	14144.45
935.9111	2050.8254	15034.45	14149
936.048	2052.3883	14997.35	14117.3
936.1849	2053.9504	14933.5	14052.15
936.3218	2055.5118	14876	13994.15
936.4586	2057.0725	14819.8	13937.1
936.5955	2058.6325	14800.65	13920.7
936.7323	2060.1917	14729.6	13850.5
936.869	2061.7502	14701.4	13819
937.0058	2063.3079	14670.65	13790.45
937.1425	2064.8649	14634.65	13753.75
937.2792	2066.4212	14595.95	13717.3
937.4159	2067.9767	14539.35	13659.45
937.5525	2069.5315	14489.15	13608.55
937.6891	2071.0856	14420.45	13541.65
937.8257	2072.6389	14386.15	13505.35
937.9623	2074.1915	14276.5	13398.7
938.0989	2075.7433	14212.55	13332.05
938.2354	2077.2945	14229.25	13349.8
938.3719	2078.8448	14201.9	13321.4
938.5084	2080.3945	14171.45	13290.25
938.6448	2081.9434	14144.15	13263.9
938.7812	2083.4916	14070.35	13187.8
938.9176	2085.039	14020.75	13136.5
939.054	2086.5857	13997.3	13113.15
939.1903	2088.1317	13996.95	13113.55
939.3267	2089.677	13930	13044.65
939.463	2091.2215	13894.15	13010.6
939.5992	2092.7652	13855.45	12970.6
939.7355	2094.3083	13842.9	12960.7
939.8717	2095.8506	13784.2	12904
940.0079	2097.3921	13815.15	12934.3
940.1441	2098.933	13765	12881.85
940.2802	2100.4731	13718.2	12838.25
940.4163	2102.0124	13723.85	12824.9
940.5524	2103.5511	13647.25	12764.7
940.6885	2105.089	13642.05	12759.6
940.8245	2106.6261	13620.45	12737.6
940.9606	2108.1626	13583.55	12701.45
941.0965	2109.6983	13582.95	12674.7
941.2325	2111.2332	13500.9	12618.5
941.3684	2112.7675	13464.65	12579.95
941.5044	2114.301	13412	12528.55
941.6403	2115.8337	13428.2	12546.85
941.7761	2117.3657	13376.5	12495.25
941.912	2118.897	13342.7	12458.5
942.0478	2120.4276	13319.5	12433.2
942.1835	2121.9575	13239.55	12357.45
942.3193	2123.4866	13267.85	12371.65
942.455	2125.0149	13206.05	12322.4
942.5907	2126.5426	13121.1	12240.15
942.7264	2128.0695	13118.95	12234.9
942.8621	2129.5956	13074.55	12196.15
942.9977	2131.1211	13035.6	12151.2
943.1333	2132.6458	13021.65	12142.05
943.2689	2134.1698	12986.35	12103.9
943.4044	2135.693	12943.85	12058.8
943.54	2137.2155	12924.5	12039.3
943.6755	2138.7373	12899.3	12018.2
943.8109	2140.2584	12853.2	11972.35
943.9464	2141.7787	12825.7	11940.2
944.0818	2143.2983	12749.55	11870.45
944.2172	2144.8171	12701.9	11823.45
944.3526	2146.3353	12693.5	11811.6
944.4879	2147.8527	12621.45	11740.15
944.6232	2149.3693	12606.15	11724.45
944.7585	2150.8853	12551.55	11669.9
944.8938	2152.4005	12510.75	11627.55
945.029	2153.9149	12517.5	11635.7
945.1642	2155.4287	12442.95	11563
945.2994	2156.9417	12428.9	11544.7
945.4346	2158.454	12401.55	11518.8
945.5697	2159.9655	12366.4	11486.45
945.7048	2161.4764	12350.75	11469.55
945.8399	2162.9865	12299.7	11418.55
945.9749	2164.4958	12261.95	11380.35
946.1099	2166.0045	12215.75	11331
946.2449	2167.5124	12228.95	11349.7
946.3799	2169.0195	12167.2	11285.2
946.5148	2170.526	12154.95	11272.25
946.6498	2172.0317	12116.7	11234
946.7846	2173.5367	12070.55	11187.2
946.9195	2175.0409	12042.15	11160.45
947.0543	2176.5445	12048.5	11167.3
947.1891	2178.0473	11980.5	11096.65
947.3239	2179.5494	11924.05	11038.55
947.4587	2181.0507	11881.6	11000.75
947.5934	2182.5513	11856.4	10974.55
947.7281	2184.0512	11837.15	10956.5
947.8628	2185.5504	11823.3	10943.15
947.9974	2187.0488	11755.9	10873.3
948.132	2188.5465	11735.95	10855.5
948.2666	2190.0435	11662.1	10779.9
948.4012	2191.5397	11599.05	10715.15
948.5357	2193.0353	11614.55	10733.85
948.6702	2194.5301	11563.8	10679.55
948.8047	2196.0241	11525.5	10641.45
948.9392	2197.5175	11467.25	10584.3
949.0736	2199.0101	11461.5	10573.85
949.208	2200.502	11398.25	10518.1
949.3424	2201.9931	11367.15	10485.85
949.4767	2203.4835	11337.1	10453.5
949.611	2204.9733	11315.8	10429.2
949.7453	2206.4622	11275.75	10395.25
949.8796	2207.9505	11241.1	10359.2
950.0138	2209.438	11170.8	10290.15
950.148	2210.9248	11150.75	10269.5
950.2822	2212.4109	11105.85	10224.8
950.4164	2213.8962	11096.8	10213.05
950.5505	2215.3809	11086.95	10205.3
950.6846	2216.8648	11040.6	10156.6
950.8186	2218.3479	11016.8	10128.85
950.9527	2219.8304	10941.95	10057.4
951.0867	2221.3121	10916.6	10030.15
951.2207	2222.7931	10852.85	9970.7
951.3546	2224.2733	10850.95	9967.25
951.4886	2225.7529	10803.15	9919.6
951.6225	2227.2317	10765.55	9880.3
951.7563	2228.7098	10773.4	9893.1
951.8902	2230.1872	10695.35	9814.6
952.024	2231.6638	10675.6	9794.3
952.1578	2233.1397	10672.55	9786.55
952.2916	2234.6149	10634.6	9754.55
952.4253	2236.0894	10573.85	9691.75
952.559	2237.5632	10557.85	9667.85
952.6927	2239.0362	10511.1	9627.45
952.8263	2240.5085	10476.75	9594.8
952.9599	2241.9801	10451.65	9567.85
953.0935	2243.4509	10427.4	9544.65
953.2271	2244.921	10354.1	9470.75
953.3606	2246.3904	10359.65	9473.2
953.4941	2247.8591	10332.4	9450
953.6276	2249.3271	10301.85	9419.9
953.7611	2250.7943	10260.35	9377.5
953.8945	2252.2608	10247.55	9363.55
954.0279	2253.7266	10189.65	9307.75
954.1612	2255.1917	10125.9	9244.4
954.2946	2256.656	10131.75	9250.85
954.4279	2258.1197	10095.45	9211.95
954.5612	2259.5826	10075.85	9192.45
954.6944	2261.0447	10067.3	9183.65
954.8276	2262.5062	10012.65	9127.45
954.9608	2263.9669	9990	9105.3
955.094	2265.4269	9996.15	9113.6
955.2271	2266.8862	9945.65	9064.7
955.3602	2268.3448	9914.65	9030.85
955.4933	2269.8026	9899.6	9017.2
955.6264	2271.2598	9865	8984.25
955.7594	2272.7162	9826.5	8946
955.8924	2274.1719	9818.6	8936.35
956.0253	2275.6268	9790.7	8909.25
956.1583	2277.0811	9795.05	8912.35
956.2912	2278.5346	9753.95	8872.7
956.4241	2279.9874	9693.25	8810.9
956.5569	2281.4395	9712.95	8832.7
956.6897	2282.8908	9662.3	8772.2
956.8225	2284.3414	9651	8767.15
956.9553	2285.7914	9620.75	8739.75
957.088	2287.2406	9599.15	8714.9
957.2207	2288.689	9528.1	8644.95
957.3534	2290.1368	9503.3	8618.15
957.486	2291.5838	9496.85	8610.45
957.6186	2293.0302	9467	8583.1
957.7512	2294.4758	9429.35	8544.8
957.8838	2295.9206	9410.85	8527.9
958.0163	2297.3648	9363.35	8481.3
958.1488	2298.8082	9349	8465.5
958.2813	2300.251	9330.45	8448.85
958.4137	2301.693	9298.35	8412.7
958.5461	2303.1343	9279.1	8393.2
958.6785	2304.5748	9251.7	8368.5
958.8108	2306.0147	9223.75	8341.5
958.9432	2307.4538	9177.55	8293.85
959.0754	2308.8922	9155.9	8276.9
959.2077	2310.3299	9143.9	8260.2
959.3399	2311.7669	9089.55	8207.05
959.4721	2313.2031	9075.15	8191.65
959.6043	2314.6387	9038.95	8157.3
959.7365	2316.0735	9024.6	8142.3
959.8686	2317.5076	9024	8140.45
960.0006	2318.941	8988.05	8106.05
960.1327	2320.3737	8960.55	8077.1
960.2647	2321.8056	8933.15	8047.5
960.3967	2323.2369	8919.25	8035.35
960.5287	2324.6674	8892.2	8006.25
960.6606	2326.0972	8849.5	7966.05
960.7925	2327.5263	8845.45	7963.6
960.9244	2328.9547	8784.65	7901.15
961.0562	2330.3823	8783.4	7899.05
961.1881	2331.8092	8766.5	7881.8
961.3198	2333.2355	8732.55	7848.4
961.4516	2334.661	8700.85	7820.25
961.5833	2336.0858	8697.1	7811.55
961.715	2337.5098	8670.15	7784.85
961.8467	2338.9332	8637.15	7754.85
961.9783	2340.3558	8590.65	7704.55
962.1099	2341.7778	8590.65	7709.7
962.2415	2343.199	8559.65	7675.15
962.373	2344.6195	8537.7	7656.6
962.5045	2346.0393	8508.15	7625.35
962.636	2347.4583	8506.6	7622.5
962.7675	2348.8767	8478	7592.85
962.8989	2350.2943	8459.85	7574.45
963.0303	2351.7113	8432.4	7546.05
963.1617	2353.1275	8401.15	7515.75
963.293	2354.543	8392.8	7500.45
963.4243	2355.9578	8346.4	7462.75
963.5556	2357.3718	8300.55	7416.25
963.6868	2358.7852	8285.85	7401.5
963.818	2360.1978	8230.05	7344.95
963.9492	2361.6098	8217.25	7333.1
964.0803	2363.021	8199.15	7309.6
964.2114	2364.4315	8150.25	7264.7
964.3425	2365.8413	8125.9	7241.05
964.4736	2367.2504	8125.65	7242.6
964.6046	2368.6587	8096.45	7211.85
964.7356	2370.0664	8039.25	7155.9
964.8666	2371.4733	8042.35	7159.8
964.9975	2372.8795	7989.1	7106.8
965.1284	2374.285	7959.05	7076.55
965.2593	2375.6899	7944.35	7064.25
965.3901	2377.0939	7893.75	7012.25
965.5209	2378.4973	7871.65	6990.3
965.6517	2379.9	7846.45	6962.1
965.7825	2381.3019	7831.25	6948.5
965.9132	2382.7032	7795.4	6912.35
966.0439	2384.1037	7773.55	6892.7
966.1745	2385.5035	7747.45	6863.8
966.3051	2386.9027	7732.05	6853.35
966.4357	2388.3011	7730.35	6842.4
966.5663	2389.6987	7699.95	6818.85
966.6968	2391.0957	7657.45	6776.3
966.8273	2392.492	7630.35	6749.15
966.9578	2393.8876	7589.05	6705.9
967.0882	2395.2824	7564.55	6682.55
967.2186	2396.6765	7551.9	6670.25
967.349	2398.07	7517.15	6634.25
967.4793	2399.4627	7506.15	6620.85
967.6097	2400.8547	7491.3	6607.9
967.7399	2402.246	7442.65	6553.55
967.8702	2403.6366	7422.45	6539.75
968.0004	2405.0265	7377.75	6496.7
968.1306	2406.4156	7360.55	6474.3
968.2607	2407.8041	7329.65	6444.1
968.3909	2409.1918	7313.1	6427.9
968.521	2410.5789	7289.55	6406.5
968.651	2411.9652	7238.25	6350.95
968.781	2413.3508	7223.95	6340.35
968.911	2414.7358	7188.35	6303.75
969.041	2416.12	7170.5	6290.45
969.1709	2417.5035	7157.1	6275.8
969.3008	2418.8863	7141.7	6258.55
969.4307	2420.2684	7116.25	6232.85
969.5606	2421.6497	7078.9	6196.7
969.6904	2423.0304	7045.55	6163.7
969.8201	2424.4104	7037.4	6152.9
969.9499	2425.7896	7013.8	6129.25
970.0796	2427.1682	6998.5	6116.45
970.2093	2428.546	6969.9	6084.2
970.3389	2429.9232	6963.6	6078.35
970.4685	2431.2996	6948.6	6065.35
970.5981	2432.6753	6938.8	6056.3
970.7277	2434.0503	6930.2	6045.95
970.8572	2435.4246	6874.8	5992.65
970.9867	2436.7982	6856.65	5969.3
971.1161	2438.1711	6850.1	5968.45
971.2456	2439.5433	6822	5937.55
971.375	2440.9148	6797.75	5908.65
971.5043	2442.2856	6749.25	5866.9
971.6336	2443.6557	6742.7	5857.1
971.7629	2445.025	6713.55	5831.5
971.8922	2446.3937	6696.85	5812.45
972.0214	2447.7617	6680.6	5798.45
972.1506	2449.1289	6679.55	5797.4
972.2798	2450.4955	6655.8	5769.95
972.4089	2451.8613	6638.95	5757.25
972.538	2453.2265	6625.3	5743.55
972.6671	2454.5909	6607.35	5721.4
972.7961	2455.9546	6611.55	5729.7
972.9251	2457.3177	6576.75	5693.1
973.0541	2458.68	6545.7	5661.5
973.1831	2460.0416	6532	5648.3
973.312	2461.4025	6518.85	5635.5
973.4408	2462.7627	6520.25	5627.55
973.5697	2464.1222	6487.65	5607.1
973.6985	2465.4811	6467.9	5584.55
973.8273	2466.8392	6437.1	5554.05
973.956	2468.1966	6432.4	5547
974.0847	2469.5533	6401.9	5517.3
974.2134	2470.9093	6396.05	5512.05
974.3421	2472.2645	6382.4	5497.75
974.4707	2473.6191	6365.5	5482.6
974.5993	2474.973	6334.65	5449
974.7278	2476.3262	6321.25	5437
974.8563	2477.6787	6286.7	5403.8
974.9848	2479.0305	6268.65	5387.4
975.1132	2480.3816	6260.7	5376.6
975.2417	2481.7319	6226	5343.7
975.37	2483.0816	6206.5	5324.55
975.4984	2484.4306	6180.65	5296.95
975.6267	2485.7789	6167.85	5286.9
975.755	2487.1264	6146.95	5262.45
975.8833	2488.4733	6139.7	5259.65
976.0115	2489.8195	6133.7	5243.6
976.1397	2491.165	6087.9	5202.35
976.2678	2492.5097	6082.55	5198.1
976.3959	2493.8538	6046.45	5163.85
976.524	2495.1972	6028.85	5145.05
976.6521	2496.5398	6007.2	5123.45
976.7801	2497.8818	5994.1	5107.85
976.9081	2499.2231	5990	5107.3
977.036	2500.5637	5941.8	5057.35
977.164	2501.9035	5933.15	5049
977.2918	2503.2427	5912.95	5026.6
977.4197	2504.5812	5888.1	5004.65
977.5475	2505.919	5868.95	4985.05
977.6753	2507.256	5863.5	4982
977.8031	2508.5924	5839.25	4955.9
977.9308	2509.9281	5844.2	4955.35
978.0585	2511.2631	5831.4	4948.15
978.1861	2512.5974	5808.55	4927.3
978.3137	2513.9309	5762.7	4879.4
978.4413	2515.2638	5785.3	4867.95
978.5689	2516.596	5753.65	4868.35
978.6964	2517.9275	5727.1	4843.2
978.8239	2519.2583	5701.95	4817.5
978.9513	2520.5884	5681.3	4797.15
979.0788	2521.9178	5664.3	4780.5
979.2062	2523.2465	5639.8	4757.55
979.3335	2524.5745	5625.1	4742.55
979.4608	2525.9018	5604.1	4719.35
979.5881	2527.2284	5589.55	4707.25
979.7154	2528.5543	5581	4699.25
979.8426	2529.8796	5560.4	4675.45
979.9698	2531.2041	5549.15	4666.9
980.0969	2532.5279	5517.85	4636.3
980.224	2533.851	5534.1	4650.8
980.3511	2535.1735	5510.85	4629.7
980.4781	2536.4952	5497.4	4611.55
980.6052	2537.8163	5508.85	4625.85
980.7321	2539.1366	5448.75	4563.4
980.8591	2540.4562	5445.5	4562.45
980.986	2541.7752	5454.1	4570.4
981.1129	2543.0935	5441.8	4557.6
981.2397	2544.411	5439.25	4554.3
981.3665	2545.7279	5413.5	4530.7
981.4933	2547.0441	5400.8	4517.65
981.62	2548.3596	5412.25	4526.8
981.7467	2549.6744	5392.2	4507.7
981.8734	2550.9885	5382.6	4493.1
982.0001	2552.3019	5345.9	4461.85
982.1267	2553.6146	5345.7	4461.65
982.2532	2554.9266	5337.7	4455.35
982.3798	2556.2379	5302.6	4415.95
982.5063	2557.5485	5307.35	4426.2
982.6327	2558.8585	5278.4	4387.35
982.7592	2560.1677	5283.75	4398.15
982.8856	2561.4762	5253.55	4371.1
983.0119	2562.7841	5267.1	4379.35
983.1383	2564.0913	5246.4	4364.75
983.2646	2565.3977	5234.35	4350.15
983.3908	2566.7035	5226.7	4342.7
983.517	2568.0086	5226.4	4341.15
983.6432	2569.313	5181.85	4298.55
983.7694	2570.6167	5178.05	4291.2
983.8955	2571.9197	5170.65	4288.4
984.0216	2573.222	5182.35	4294.55
984.1476	2574.5236	5164.6	4280.95
984.2737	2575.8246	5151.45	4264.9
984.3996	2577.1248	5164.4	4279.2
984.5256	2578.4244	5121.55	4240.45
984.6515	2579.7232	5110.1	4226.6
984.7774	2581.0214	5125.75	4218.8
984.9032	2582.3189	5091.95	4208.05
985.029	2583.6157	5082.4	4195.35
985.1548	2584.9118	5064.8	4183.8
985.2806	2586.2072	5061.7	4177.2
985.4063	2587.5019	5049.55	4167.95
985.5319	2588.7959	5038.45	4152.75
985.6576	2590.0893	5029.4	4146.5
985.7832	2591.3819	5004.85	4122.9
985.9087	2592.6739	4974.65	4091.65
986.0343	2593.9652	4983.05	4098.2
986.1597	2595.2557	4974.05	4090.75
986.2852	2596.5456	4945.55	4059.55
986.4106	2597.8348	4924.9	4040.7
986.536	2599.1234	4901.05	4019.4
986.6614	2600.4112	4897.65	4014.2
986.7867	2601.6983	4872.75	3985.3
986.912	2602.9848	4873.4	3990.5
987.0372	2604.2705	4836.4	3948.85
987.1624	2605.5556	4833	3950.85
987.2876	2606.84	4809.9	3929.25
987.4128	2608.1237	4805.3	3920.75
987.5379	2609.4067	4781.7	3896.65
987.6629	2610.689	4761.95	3869.7
987.788	2611.9707	4743.3	3854.55
987.913	2613.2516	4739.1	3851.9
988.0379	2614.5319	4723.35	3839.35
988.1629	2615.8115	4713.15	3831.45
988.2878	2617.0903	4689.75	3806.85
988.4126	2618.3685	4673.65	3789.55
988.5375	2619.6461	4651.1	3767.9
988.6622	2620.9229	4639.25	3759.35
988.787	2622.199	4634.05	3749.2
988.9117	2623.4745	4627.15	3745.95
989.0364	2624.7493	4613.45	3732.3
989.161	2626.0234	4584.35	3702.45
989.2857	2627.2968	4565.95	3682.75
989.4102	2628.5695	4556.1	3671.75
989.5348	2629.8415	4544.45	3661.6
989.6593	2631.1128	4516.95	3631.75
989.7837	2632.3835	4506.2	3623.2
989.9082	2633.6535	4485.85	3604.65
990.0326	2634.9228	4479.65	3599.1
990.1569	2636.1914	4467.5	3585.8
990.2812	2637.4593	4454.2	3565.35
990.4055	2638.7265	4436.95	3553.05
990.5298	2639.9931	4415.15	3533.45
990.654	2641.259	4419.35	3534
990.7782	2642.5242	4408.9	3525.85
990.9023	2643.7887	4391.45	3507.5
991.0264	2645.0525	4381	3497.85
991.1505	2646.3156	4368.65	3485.1
991.2745	2647.5781	4347.5	3465.8
991.3985	2648.8398	4326.7	3444.6
991.5225	2650.1009	4323.1	3430.9
991.6464	2651.3613	4318.85	3436.25
991.7703	2652.6211	4307.8	3425.15
991.8942	2653.8801	4312.45	3431.05
992.018	2655.1385	4297.65	3413.4
992.1418	2656.3961	4273.55	3394.4
992.2655	2657.6531	4270.65	3389.35
992.3892	2658.9094	4251.25	3371.15
992.5129	2660.1651	4249.2	3366.05
992.6366	2661.42	4244.1	3362.45
992.7602	2662.6743	4235.35	3349.75
992.8837	2663.9279	4226.5	3343.65
993.0073	2665.1808	4200.4	3317.55
993.1307	2666.433	4177.3	3291
993.2542	2667.6846	4187.25	3305.5
993.3776	2668.9354	4172.4	3287.65
993.501	2670.1856	4179.5	3297.45
993.6244	2671.4351	4153.1	3271.2
993.7477	2672.6839	4136.3	3252.1
993.8709	2673.9321	4145.8	3264.3
993.9942	2675.1795	4122.05	3239.65
994.1174	2676.4263	4104.55	3224.8
994.2405	2677.6724	4106.25	3225
994.3637	2678.9179	4088.4	3206
994.4868	2680.1626	4069.95	3189.3
994.6098	2681.4067	4070.9	3188.05
994.7328	2682.6501	4059.7	3177.85
994.8558	2683.8928	4050.8	3167.1
994.9788	2685.1348	4032.05	3149.9
995.1017	2686.3761	4005.1	3125.95
995.2245	2687.6168	3995.35	3112.45
995.3474	2688.8568	3981.75	3101
995.4702	2690.0961	3973.15	3092.15
995.5929	2691.3348	3988.65	3104.65
995.7156	2692.5727	3967.2	3084.1
995.8383	2693.81	3963.75	3081.5
995.961	2695.0466	3946.4	3064.5
996.0836	2696.2826	3923.65	3039.05
996.2062	2697.5178	3912.85	3025.75
996.3287	2698.7524	3899.6	3017.65
996.4512	2699.9863	3894.2	3008
996.5737	2701.2195	3885.85	3003.6
996.6961	2702.452	3886.55	3003.5
996.8185	2703.6839	3873.65	2990.2
996.9408	2704.9151	3859.05	2976.5
997.0631	2706.1456	3853.55	2970.45
997.1854	2707.3755	3855.4	2972.9
997.3077	2708.6046	3834.15	2952.2
997.4299	2709.8331	3818.35	2935.15
997.552	2711.0609	3804.55	2923.1
997.6742	2712.2881	3788.9	2907.3
997.7963	2713.5145	3792.05	2908.45
997.9183	2714.7403	3775.7	2894.6
998.0403	2715.9654	3778.9	2896.5
998.1623	2717.1899	3775	2881.5
998.2842	2718.4136	3737.9	2855.7
998.4062	2719.6367	3743.65	2860.75
998.528	2720.8591	3748.7	2860.8
998.6498	2722.0809	3712.15	2829.9
998.7716	2723.3019	3714	2828.95
998.8934	2724.5223	3705.8	2821.75
999.0151	2725.7421	3699.85	2814.2
999.1368	2726.9611	3696.15	2813.35
999.2584	2728.1795	3678	2792.25
999.38	2729.3972	3669.25	2787.9
999.5016	2730.6142	3664.75	2770.9
999.6231	2731.8306	3634.25	2751.85
999.7446	2733.0462	3619.65	2734
999.8661	2734.2612	3611.8	2725.15
999.9875	2735.4756	3586.8	2702.5
1000.1089	2736.6892	3577	2697.2
1000.2302	2737.9022	3552.1	2670.45
1000.3515	2739.1145	3545.95	2662.8
1000.4728	2740.3262	3528.45	2638.8
1000.594	2741.5372	3520.85	2638.95
1000.7152	2742.7475	3500.65	2619.55
1000.8363	2743.9571	3496.25	2611.95
1000.9575	2745.1661	3479.75	2593.7
1001.0785	2746.3744	3461.9	2579.9
1001.1996	2747.582	3447.8	2566.7
1001.3206	2748.7889	3458.2	2574
1001.4415	2749.9952	3440.6	2559.3
1001.5625	2751.2008	3428.7	2547
1001.6833	2752.4057	3430.1	2545.4
1001.8042	2753.61	3399.55	2518.6
1001.925	2754.8136	3385.85	2502.6
1002.0458	2756.0165	3383.5	2502.8
1002.1665	2757.2188	3370.5	2488.9
1002.2872	2758.4204	3357.7	2475.4
1002.4078	2759.6213	3353.05	2467.65
1002.5285	2760.8215	3354.25	2468.85
1002.649	2762.0211	3321.6	2436.95
1002.7696	2763.22	3331.2	2446.85
1002.8901	2764.4182	3308.55	2427.25
1003.0106	2765.6158	3306.1	2423.7
1003.131	2766.8127	3307.05	2423.55
1003.2514	2768.009	3296	2414.05
1003.3717	2769.2045	3290.25	2409
1003.492	2770.3994	3280.3	2397.45
1003.6123	2771.5936	3266.05	2383.7
1003.7325	2772.7872	3254.05	2374
1003.8527	2773.9801	3236.6	2353
1003.9729	2775.1723	3244.5	2344.7
1004.093	2776.3639	3227.05	2345.75
1004.2131	2777.5548	3206.15	2322.15
1004.3331	2778.745	3208.55	2326.9
1004.4531	2779.9346	3203.85	2323.2
1004.5731	2781.1235	3191.1	2308.85
1004.693	2782.3117	3180.55	2300.65
1004.8129	2783.4992	3167	2285.8
1004.9328	2784.6861	3168.95	2288.2
1005.0526	2785.8723	3157.7	2276
1005.1723	2787.0579	3150.95	2267.1
1005.2921	2788.2428	3147.35	2265.4
1005.4118	2789.427	3136.45	2255.25
1005.5314	2790.6106	3113.15	2230
1005.651	2791.7935	3130	2246.25
1005.7706	2792.9757	3109.25	2227.65
1005.8902	2794.1573	3104.1	2220.15
1006.0097	2795.3382	3091.25	2210.65
1006.1291	2796.5184	3083.6	2202.95
1006.2485	2797.698	3072.95	2189.3
1006.3679	2798.8769	3065.35	2183.5
1006.4873	2800.0551	3074.05	2192.05
1006.6066	2801.2327	3064.4	2181.8
1006.7258	2802.4096	3067.15	2186.45
1006.8451	2803.5859	3056.45	2174.2
1006.9642	2804.7615	3044.65	2161.85
1007.0834	2805.9364	3043.05	2163.4
1007.2025	2807.1106	3041.35	2161.15
1007.3216	2808.2842	3042.45	2159.3
1007.4406	2809.4572	3042.3	2160.55
1007.5596	2810.6294	3040.3	2159.7
1007.6785	2811.801	3049.05	2168.9
1007.7975	2812.972	3048.95	2168.45
1007.9163	2814.1423	3054.75	2172.8
1008.0352	2815.3119	3068.35	2187.9
1008.154	2816.4808	3073.4	2194.75
1008.2727	2817.6491	3073.45	2189.95
1008.3914	2818.8167	3086.5	2205.3
1008.5101	2819.9837	3115.15	2226.2
1008.6288	2821.15	3118.7	2237.2
1008.7474	2822.3157	3115	2234.3
1008.8659	2823.4807	3133.4	2252.5
1008.9844	2824.645	3141.25	2260.5
1009.1029	2825.8086	3156.85	2276.15
1009.2214	2826.9716	3179.4	2300
1009.3398	2828.134	3174.1	2293.85
1009.4581	2829.2957	3196.85	2316.05
1009.5764	2830.4567	3192.35	2313
1009.6947	2831.617	3188.2	2306.25
1009.813	2832.7767	3198.9	2317.95
1009.9312	2833.9358	3185.1	2303.55
1010.0493	2835.0941	3181.9	2297.3
1010.1675	2836.2519	3174.15	2294.15
1010.2855	2837.4089	3153.05	2270.75
1010.4036	2838.5653	3140.2	2258.45
1010.5216	2839.7211	3145.4	2263.1
1010.6396	2840.8761	3126.95	2243.95
1010.7575	2842.0306	3139.25	2258.35
1010.8754	2843.1843	3141.6	2261.75
1010.9932	2844.3374	3139	2259.25
1011.111	2845.4899	3156.3	2272.8
1011.2288	2846.6417	3155.25	2276.45
1011.3465	2847.7928	3167.8	2287.25
1011.4642	2848.9433	3183.6	2303
1011.5818	2850.0931	3202.45	2323.7
1011.6995	2851.2422	3214.2	2332
1011.817	2852.3907	3227.2	2345.75
1011.9345	2853.5385	3232.8	2350.05
1012.052	2854.6857	3256.9	2364.15
1012.1695	2855.8323	3256	2377.2
1012.2869	2856.9781	3256.75	2375.75
1012.4042	2858.1233	3272.3	2391.3
1012.5216	2859.2679	3275.15	2395.4
1012.6389	2860.4118	3294.2	2413.75
1012.7561	2861.555	3291.4	2406.5
1012.8733	2862.6976	3309	2425.4
1012.9905	2863.8395	3305.15	2426.6
1013.1076	2864.9808	3302.15	2422.9
1013.2247	2866.1214	3313.85	2433.55
1013.3417	2867.2614	3317.75	2438.6
1013.4587	2868.4007	3310.5	2428.45
1013.5757	2869.5393	3296.45	2415.05
1013.6926	2870.6773	3301.4	2417.35
1013.8095	2871.8146	3293.75	2410.8
1013.9263	2872.9513	3275.75	2392
1014.0431	2874.0874	3255.1	2376.7
1014.1599	2875.2227	3271.1	2390.45
1014.2766	2876.3574	3262.5	2381.5
1014.3933	2877.4915	3239.4	2359.7
1014.51	2878.6249	3224.25	2343.05
1014.6266	2879.7577	3203.35	2321.85
1014.7431	2880.8898	3197.3	2309.1
1014.8596	2882.0212	3190.6	2311.15
1014.9761	2883.152	3177.3	2295.05
1015.0925	2884.2821	3157.6	2276.8
1015.2089	2885.4116	3145.95	2264.45
1015.3253	2886.5405	3143.7	2263.6
1015.4416	2887.6686	3142.95	2260.1
1015.5579	2888.7962	3130.3	2252
1015.6741	2889.923	3140.45	2260.55
1015.7903	2891.0493	3138.25	2260.1
1015.9065	2892.1748	3121.85	2239.25
1016.0226	2893.2997	3123.5	2242.1
1016.1387	2894.424	3123.95	2245.25
1016.2547	2895.5476	3107.3	2226.65
1016.3707	2896.6706	3091.9	2213
1016.4866	2897.7929	3112.35	2231.75
1016.6025	2898.9145	3111	2230.15
1016.7184	2900.0355	3112.6	2229.55
1016.8342	2901.1559	3110.6	2229.25
1016.95	2902.2756	3123.65	2244.1
1017.0658	2903.3946	3117.75	2237.25
1017.1815	2904.513	3118.35	2234.55
1017.2971	2905.6308	3123.3	2242.8
1017.4127	2906.7479	3124.65	2244.1
1017.5283	2907.8643	3126.45	2246
1017.6439	2908.9801	3122.8	2241.8
1017.7594	2910.0953	3115.75	2236
1017.8748	2911.2098	3104.15	2219.9
1017.9902	2912.3236	3102.4	2216.25
1018.1056	2913.4368	3088	2204
1018.2209	2914.5494	3069.45	2186.75
1018.3362	2915.6613	3079.35	2195.05
1018.4515	2916.7725	3051.65	2166.35
1018.5667	2917.8831	3027.7	2145.75
1018.6819	2918.9931	3023.9	2141.15
1018.797	2920.1024	3015.45	2132.65
1018.9121	2921.211	2993.85	2114.75
1019.0271	2922.319	2986.3	2105.75
1019.1421	2923.4264	2970	2091.6
1019.2571	2924.5331	2974	2096.85
1019.372	2925.6391	2963.85	2081.95
1019.4869	2926.7445	2958.15	2079.55
1019.6017	2927.8493	2949.55	2070.5
1019.7165	2928.9534	2959.9	2077.65
1019.8313	2930.0569	2946.55	2064.7
1019.946	2931.1597	2933.25	2050.35
1020.0606	2932.2619	2938.5	2057.4
1020.1753	2933.3634	2915.25	2034
1020.2899	2934.4643	2936.9	2049.05
1020.4044	2935.5645	2922.8	2037.7
1020.5189	2936.6641	2909.2	2027.05
1020.6334	2937.763	2895.8	2018.05
1020.7478	2938.8613	2865.15	1984.5
1020.8622	2939.959	2854.4	1969.6
1020.9765	2941.056	2828.05	1948.9
1021.0908	2942.1523	2799.35	1919.3
1021.2051	2943.248	2770.2	1889.95
1021.3193	2944.3431	2750.3	1871.35
1021.4334	2945.4375	2695.2	1813.15
1021.5476	2946.5313	2664.45	1787.45
1021.6617	2947.6244	2639.5	1760.75
1021.7757	2948.7169	2592.1	1711.85
1021.8897	2949.8087	2564.45	1685.7
1022.0037	2950.8999	2526.8	1646.55
1022.1176	2951.9904	2493.05	1614.85
1022.2315	2953.0803	2470	1588.9
1022.3453	2954.1696	2445.2	1566.65
1022.4591	2955.2582	2426.85	1547
1022.5728	2956.3462	2395.45	1513.25
1022.6865	2957.4335	2384.25	1505.35
1022.8002	2958.5202	2371.05	1487.3
1022.9138	2959.6062	2352.95	1473.8
1023.0274	2960.6916	2341.8	1461.8
1023.141	2961.7764	2345.45	1465.85
1023.2545	2962.8605	2315.7	1435.4
1023.3679	2963.9439	2320.7	1439.5
1023.4813	2965.0267	2304.2	1420.6
1023.5947	2966.1089	2322.05	1422.1
1023.708	2967.1905	2292.3	1410.7
1023.8213	2968.2714	2273.75	1394.6
1023.9346	2969.3516	2291.15	1411.65
1024.0478	2970.4312	2286.25	1399.95
1024.1609	2971.5102	2279.95	1399.75
1024.274	2972.5885	2272.05	1392.45
1024.3871	2973.6662	2269.95	1384.5
1024.5002	2974.7432	2253.2	1374.05
1024.6132	2975.8196	2252.5	1372.45
1024.7261	2976.8954	2247.3	1368.3
1024.839	2977.9705	2240.4	1360.15
1024.9519	2979.045	2235.25	1355.15
1025.0647	2980.1188	2221.3	1343.2
1025.1775	2981.192	2223	1344.55
1025.2902	2982.2645	2204.55	1324.8
1025.4029	2983.3364	2185.7	1305.3
1025.5156	2984.4077	2178.6	1299.65
1025.6282	2985.4783	2171.95	1285.2
1025.7407	2986.5483	2152.65	1274.75
1025.8532	2987.6177	2140.65	1261
1025.9657	2988.6864	2123.8	1244.9
1026.0782	2989.7545	2121.4	1238.45
1026.1906	2990.8219	2097.8	1219.8
1026.3029	2991.8887	2090.5	1208.15
1026.4152	2992.9548	2068.2	1188.5
1026.5275	2994.0204	2051.25	1171.15
1026.6397	2995.0852	2034.75	1156.5
1026.7519	2996.1495	2026.2	1146.45
1026.864	2997.2131	2010.7	1130.4
1026.9761	2998.276	2005.35	1126.55
1027.0882	2999.3383	2003.4	1124.4
1027.2002	3000.4	1990.15	1108.9
1027.3122	3001.4611	1977.35	1098.05
1027.4241	3002.5215	1960.4	1078.3
1027.536	3003.5812	1955.75	1076.5
1027.6478	3004.6404	1954.95	1074.1
1027.7596	3005.6989	1933.15	1051.55
1027.8714	3006.7567	1930.5	1048.45
1027.9831	3007.8139	1957.65	1055.95
1028.0947	3008.8705	1924.05	1045.3
1028.2064	3009.9264	1922.95	1037.45
1028.3179	3010.9818	1905.7	1025.95
1028.4295	3012.0364	1900.6	1019.8
1028.541	3013.0905	1888.75	1009
1028.6524	3014.1439	1882.6	1001.8
1028.7638	3015.1966	1877.25	996.5
1028.8752	3016.2487	1874.05	992.9
1028.9865	3017.3002	1870.35	987.95
1029.0978	3018.3511	1872.15	993.85
1029.209	3019.4013	1869.1	990.8
1029.3202	3020.4509	1860.5	981.5
1029.4314	3021.4998	1862.55	981.65
1029.5425	3022.5481	1863.75	983.35
1029.6535	3023.5958	1848.95	969.6
1029.7645	3024.6428	1841.35	961
1029.8755	3025.6892	1842.25	964.9
1029.9864	3026.735	1820.9	939.75
1030.0973	3027.7802	1829.45	951.15
1030.2082	3028.8247	1830.55	951.4
1030.319	3029.8685	1822.65	940.95
1030.4297	3030.9118	1815.9	936.2
1030.5404	3031.9544	1818.5	937
1030.6511	3032.9963	1821.65	941.8
1030.7617	3034.0376	1808.65	928.55
1030.8723	3035.0783	1814.25	931.5
1030.9829	3036.1184	1803.25	923.85
1031.0934	3037.1578	1806.65	927.7
1031.2038	3038.1966	1804	920.9
1031.3142	3039.2348	1791.1	912.8
1031.4246	3040.2723	1806.6	919.75
1031.5349	3041.3092	1791.2	913.55
1031.6452	3042.3455	1785.95	905.7
1031.7554	3043.3811	1783.65	903.8
1031.8656	3044.4161	1780.1	900.05
1031.9758	3045.4505	1773.1	895.75
1032.0859	3046.4842	1772.85	893.4
1032.1959	3047.5173	1755.9	877
1032.3059	3048.5498	1766.85	887.2
1032.4159	3049.5816	1758.35	877.9
1032.5258	3050.6128	1762.95	883.15
1032.6357	3051.6434	1749.7	871.15
1032.7455	3052.6734	1747.05	867.8
1032.8553	3053.7027	1745.4	864.85
1032.9651	3054.7314	1741.35	862.45
1033.0748	3055.7594	1732	852.7
1033.1845	3056.7868	1734.75	855.65
1033.2941	3057.8136	1724.6	844.75
1033.4037	3058.8398	1717.4	838.7
1033.5132	3059.8653	1721.15	842.3
1033.6227	3060.8902	1712.8	833.1
1033.7321	3061.9145	1709.45	831.85
1033.8415	3062.9381	1706.25	828.75
1033.9509	3063.9612	1719.9	824.3
1034.0602	3064.9835	1703	823.6
1034.1694	3066.0053	1696.35	815.5
1034.2787	3067.0264	1685.3	806
1034.3878	3068.0469	1691.2	809.7
1034.497	3069.0668	1688.4	805.25
1034.6061	3070.086	1679.75	801.65
1034.7151	3071.1046	1679.35	798.4
1034.8241	3072.1226	1676.05	796.35
1034.9331	3073.1399	1663.1	785.6
1035.042	3074.1567	1657.45	777.7
1035.1508	3075.1727	1650.4	768.5
1035.2597	3076.1882	1643.35	764.15
1035.3684	3077.203	1643.65	765.05
1035.4772	3078.2173	1638.65	757
1035.5859	3079.2308	1643.2	760.75
1035.6945	3080.2438	1632.85	750.6
1035.8031	3081.2561	1627.45	746.45
1035.9117	3082.2678	1627.8	748.95
1036.0202	3083.2789	1617.55	738.25
1036.1286	3084.2893	1616.05	738.35
1036.2371	3085.2991	1611.55	730.9
1036.3454	3086.3083	1604.1	720.3
1036.4538	3087.3169	1593.7	710.6
1036.562	3088.3248	1603.25	722.9
1036.6703	3089.3321	1593.5	713.9
1036.7785	3090.3388	1581.65	703.55
1036.8866	3091.3449	1582.65	702.8
1036.9948	3092.3503	1580.9	699.1
1037.1028	3093.3551	1569.8	692.95
1037.2108	3094.3593	1573.85	693.75
1037.3188	3095.3629	1562.05	683.9
1037.4267	3096.3658	1562.05	680.05
1037.5346	3097.3681	1558.25	681.2
1037.6425	3098.3698	1551.8	671.75
1037.7503	3099.3708	1552.55	667
1037.858	3100.3713	1551.65	671.25
1037.9657	3101.3711	1546.1	665.35
1038.0734	3102.3702	1665.95	649.25
1038.181	3103.3688	1544.3	662.85
1038.2886	3104.3667	1531	653.25
1038.3961	3105.364	1529.35	650.2
1038.5036	3106.3607	1525.25	645.35
1038.611	3107.3568	1512.1	631.3
1038.7184	3108.3522	1510.25	631.4
1038.8257	3109.347	1515	637.05
1038.933	3110.3412	1513.5	629.7
1039.0403	3111.3348	1502.1	621.9
1039.1475	3112.3277	1498.4	620.75
1039.2547	3113.32	1486.05	608.8
1039.3618	3114.3117	1496.6	616.9
1039.4689	3115.3028	1486.95	608.45
1039.5759	3116.2932	1481.25	601.55
1039.6829	3117.2831	1485.6	601.5
1039.7898	3118.2723	1469.9	591.15
1039.8967	3119.2608	1471.6	593.15
1040.0035	3120.2488	1468.3	588.35
1040.1103	3121.2361	1470.8	593.15
1040.2171	3122.2229	1465.2	585.85
1040.3238	3123.209	1461.95	581.1
1040.4305	3124.1944	1454.9	577.15
1040.5371	3125.1793	1461.3	579.85
1040.6437	3126.1635	1448.05	568.2
1040.7502	3127.1471	1444.05	565.7
1040.8567	3128.1301	1445.5	566
1040.9631	3129.1125	1441.05	562.35
1041.0695	3130.0942	1433.4	554.1
1041.1759	3131.0753	1444.85	556.65
1041.2822	3132.0558	1430	547.65
1041.3884	3133.0357	1430.9	550.9
1041.4946	3134.015	1435.6	555.3
1041.6008	3134.9936	1424.2	543.9
1041.7069	3135.9716	1440	539.35
1041.813	3136.949	1422.45	543.8
1041.919	3137.9258	1422.95	538.1
1042.025	3138.902	1423.9	539.65
1042.1309	3139.8775	1409.5	530.55
1042.2368	3140.8524	1412.75	534.4
1042.3427	3141.8267	1405.7	525.3
1042.4485	3142.8004	1410.85	533.35
1042.5542	3143.7735	1411.25	526.2
1042.6599	3144.7459	1403.1	523.3
1042.7656	3145.7178	1404.5	522.1
1042.8712	3146.689	1395.65	517.25
1042.9768	3147.6596	1390.85	510.25
1043.0823	3148.6295	1392.45	511.35
1043.1878	3149.5989	1390.5	511.5
1043.2932	3150.5676	1377.5	500.95
1043.3986	3151.5357	1380.05	502.3
1043.5039	3152.5032	1385.45	506.1
1043.6092	3153.4701	1376.5	496.7
1043.7145	3154.4364	1379.75	499.55
1043.8197	3155.402	1370.05	491.35
1043.9248	3156.367	1368.35	486.5
1044.03	3157.3315	1403	487.05
1044.135	3158.2952	1371.55	489.8
1044.24	3159.2584	1357.35	479.8
1044.345	3160.221	1362.05	481.9
1044.4499	3161.1829	1356.15	476.6
1044.5548	3162.1442	1350.95	474.55
1044.6596	3163.105	1356.6	477.9
1044.7644	3164.065	1353.45	474.8
1044.8692	3165.0245	1347.55	466.8
1044.9739	3165.9834	1342	465.25
1045.0785	3166.9416	1333.1	455.45
1045.1831	3167.8993	1341.4	462.1
1045.2877	3168.8563	1337.1	457.15
1045.3922	3169.8127	1326.95	448.4
1045.4966	3170.7684	1337.45	458.55
1045.6011	3171.7236	1327	446.4
1045.7054	3172.6782	1328.35	450
1045.8098	3173.6321	1321.05	440.8
1045.914	3174.5854	1322.4	439.35
1046.0183	3175.5381	1317.15	438
1046.1224	3176.4902	1313.65	435.3
1046.2266	3177.4417	1311.2	431.3
1046.3307	3178.3926	1307.1	429.05
1046.4347	3179.3428	1311.8	433.25
1046.5387	3180.2924	1306.25	426.9
1046.6427	3181.2415	1301.9	422.35
1046.7466	3182.1899	1306.45	425.5
1046.8504	3183.1377	1302	423.3
1046.9542	3184.0848	1296.7	414.4
1047.058	3185.0314	1292.05	414.95
1047.1617	3185.9773	1286.95	408.1
1047.2654	3186.9227	1293.8	415.4
1047.369	3187.8674	1292.65	414.5
1047.4726	3188.8115	1290.55	407.85
1047.5761	3189.755	1286.5	407.05
1047.6796	3190.6979	1280.55	402.4
1047.783	3191.6402	1274.75	396.4
1047.8864	3192.5818	1282.05	404.6
1047.9898	3193.5229	1292.45	398.65
1048.0931	3194.4633	1274.35	396.15
1048.1963	3195.4031	1275.1	393.6
1048.2995	3196.3423	1268.7	389.4
1048.4027	3197.2809	1272.2	390.95
1048.5058	3198.2189	1270.25	391.3
1048.6089	3199.1563	1282.35	386.65
1048.7119	3200.0931	1265.35	387.65
1048.8148	3201.0292	1258.7	382.55
1048.9178	3201.9648	1254.7	377.7
1049.0206	3202.8997	1256.45	375.85
1049.1235	3203.834	1257.3	378.3
1049.2262	3204.7677	1252.05	375.1
1049.329	3205.7008	1247.55	367.8
1049.4317	3206.6333	1242.6	364.4
1049.5343	3207.5652	1246.8	365.55
1049.6369	3208.4964	1246	365.95
1049.7394	3209.4271	1240.75	362.85
1049.8419	3210.3571	1239.85	359.95
1049.9444	3211.2865	1239.85	361.9
1050.0468	3212.2154	1235.6	354.7
1050.1491	3213.1436	1240.75	359.35
1050.2514	3214.0712	1247.25	361.75
1050.3537	3214.9982	1233.85	355.05
1050.4559	3215.9246	1227.05	347.75
1050.5581	3216.8503	1219.75	341.9
1050.6602	3217.7755	1221.85	341.5
1050.7623	3218.7001	1222.95	342
1050.8643	3219.624	1218.7	339.65
1050.9663	3220.5473	1224.7	344.25
1051.0682	3221.4701	1220.05	342.65
1051.1701	3222.3922	1217.4	338.35
1051.2719	3223.3137	1212.95	335.9
1051.3737	3224.2346	1212.4	333.15
1051.4754	3225.1549	1205.85	326.25
1051.5771	3226.0746	1210.2	331.65
1051.6788	3226.9937	1206.6	325.15
1051.7804	3227.9121	1208.7	331.35
1051.8819	3228.83	1205.7	328.5
1051.9834	3229.7473	1196.5	316.85
1052.0849	3230.6639	1204.65	326.55
1052.1863	3231.5799	1201.2	323
1052.2876	3232.4954	1197.95	317.55
1052.3889	3233.4102	1199.2	322.35
1052.4902	3234.3244	1188.25	307.9
1052.5914	3235.238	1194.8	317
1052.6926	3236.151	1211.9	307.9
1052.7937	3237.0634	1190.65	311.85
1052.8948	3237.9752	1183.35	303
1052.9958	3238.8864	1180.85	300.4
1053.0968	3239.797	1184.3	305.9
1053.1977	3240.7069	1184.55	306.8
1053.2986	3241.6163	1184.1	304.15
1053.3994	3242.5251	1177.95	301.15
1053.5002	3243.4332	1171.8	294.3
1053.6009	3244.3408	1174.9	294.3
1053.7016	3245.2477	1167.1	289.3
1053.8022	3246.154	1169.15	288.35
1053.9028	3247.0598	1170.45	290.6
1054.0034	3247.9649	1159.65	280.75
1054.1039	3248.8694	1159.65	282.4
1054.2043	3249.7733	1160.75	282.45
1054.3047	3250.6766	1164.8	286.85
1054.4051	3251.5793	1154.4	274.75
1054.5054	3252.4814	1152	273.45
1054.6056	3253.3829	1156.35	278.25
1054.7058	3254.2838	1150.2	272.4
1054.806	3255.1841	1149.7	271.25
1054.9061	3256.0838	1147.2	267.3
1055.0061	3256.9829	1150.05	273.2
1055.1062	3257.8814	1147.5	266.65
1055.2061	3258.7792	1141.1	260.1
1055.306	3259.6765	1137.25	255.95
1055.4059	3260.5731	1137.55	262.05
1055.5057	3261.4692	1135	255.85
1055.6055	3262.3647	1130.45	252.2
1055.7052	3263.2595	1124.85	244.6
1055.8049	3264.1538	1124.05	244.6
1055.9045	3265.0474	1121.2	241.45
1056.0041	3265.9404	1116.1	237.85
1056.1036	3266.8329	1111.45	233.25
1056.2031	3267.7247	1118.1	230.2
1056.3025	3268.616	1099.7	223.45
1056.4019	3269.5066	1091.15	210.2
1056.5013	3270.3966	1093.75	211.25
1056.6005	3271.286	1085	207.75
