Software Version:	3.9.2.0
Unit SN:	10000200
Spectrometer SN:	6960
Date:	3/6/2024 10:43:29 AM
Data Line Index:	25
Spectral Points:	2048
Integration time (ms):	125
Averages:	20
Delay (ms):	30
Sequence Number:	1
Processing:	dark subtract
Laser Power (mW):	305
Laser Current (mA):	821
Laser Diode Temp (C):	25
Laser Case Temp (C):	27.1
System Temp (C):	26.9
Spectrometer Temp (C):	24.3
CCD Temp (C):	0.007
Secondary Temp (C):	20.007
Heatsink Temp (C):	22.761
CCDPCB Temp (C):	36.518
SecondaryPCB Temp (C):	33.961

Wavelength	RamanShift	Raw Counts	Dark Subtracted
787.061	30.1047	1113.4	700.35
787.2016	32.3739	1142.3	730.65
787.3422	34.6426	1187.05	774.6
787.4828	36.9109	1243.1	828.55
787.6235	39.1787	1288.5	870.55
787.7642	41.4461	1361.4	938.6
787.9049	43.7131	1416.55	990.4
788.0456	45.9796	1481.4	1053.3
788.1863	48.2456	1546.95	1112.7
788.3271	50.5112	1624.1	1185.35
788.4679	52.7764	1688.6	1248.15
788.6087	55.0411	1763.25	1319.05
788.7496	57.3054	1857.65	1409.6
788.8904	59.5692	1933.35	1480.4
789.0313	61.8326	2037.75	1583.25
789.1722	64.0955	2146.2	1688.75
789.3132	66.3579	2271.45	1807.2
789.4541	68.6199	2434.5	1968.05
789.5951	70.8815	2667.9	2198.35
789.7361	73.1426	3167.3	2693.6
789.8771	75.4032	4474.5	3994.3
790.0181	77.6634	7769.15	7286.3
790.1592	79.9231	16419.9	15930.4
790.3003	82.1824	53632.15	53132.4
790.4414	84.4412	65535	65018.85
790.5825	86.6995	65535	64990.45
790.7237	88.9574	65535	64965
790.8648	91.2148	65535	64944.15
791.006	93.4717	65535	64935.4
791.1472	95.7282	65535	64933
791.2885	97.9842	65535	64933.3
791.4297	100.2398	65535	64925.7
791.571	102.4949	65535	64921.2
791.7123	104.7495	65535	64917
791.8536	107.0036	65535	64914.9
791.9949	109.2573	65535	64919.4
792.1363	111.5105	65535	64919.2
792.2777	113.7632	65535	64910.8
792.4191	116.0154	65535	64900.7
792.5605	118.2672	65535	64907.55
792.7019	120.5185	65535	64909.45
792.8434	122.7693	65535	64910.05
792.9849	125.0197	65535	64899.15
793.1264	127.2696	65535	64899.3
793.2679	129.519	65535	64893.25
793.4094	131.7679	65535	64892.1
793.551	134.0163	65535	64888.1
793.6926	136.2642	65535	64883.9
793.8342	138.5117	65535	64877.6
793.9758	140.7587	65535	64879
794.1175	143.0052	65535	64878.05
794.2591	145.2512	65535	64881.05
794.4008	147.4967	65535	64878.75
794.5425	149.7417	65535	64873.95
794.6842	151.9863	65535	64870.05
794.826	154.2304	65535	64867.8
794.9677	156.4739	65535	64865.25
795.1095	158.717	65535	64863.65
795.2513	160.9596	65535	64858.7
795.3931	163.2017	65535	64854.85
795.535	165.4433	65535	64855.9
795.6768	167.6844	65535	64855
795.8187	169.925	65535	64851
795.9606	172.1651	65535	64848.3
796.1025	174.4047	65535	64843.85
796.2445	176.6439	65535	64840.7
796.3864	178.8825	65535	64840.15
796.5284	181.1206	65535	64837.5
796.6704	183.3582	65535	64834.1
796.8124	185.5954	65535	64829.3
796.9544	187.832	65535	64826.4
797.0965	190.0681	65535	64821.85
797.2386	192.3037	65535	64817
797.3806	194.5388	65535	64820.1
797.5228	196.7734	65535	64817.45
797.6649	199.0075	65535	64813.45
797.807	201.2411	65535	64810.05
797.9492	203.4742	65535	64813.4
798.0914	205.7068	65535	64808.2
798.2336	207.9389	65535	64805.85
798.3758	210.1704	65535	64802.3
798.518	212.4015	65535	64804.95
798.6603	214.632	65535	64812.3
798.8025	216.862	65535	64821.95
798.9448	219.0915	65535	64824.55
799.0871	221.3205	65535	64819
799.2294	223.549	65535	64824.25
799.3718	225.777	65535	64828.35
799.5141	228.0044	65535	64823.5
799.6565	230.2314	65535	64822.45
799.7989	232.4578	65535	64817.85
799.9413	234.6837	65535	64811.95
800.0837	236.909	65535	64809.15
800.2262	239.1339	65535	64786.95
800.3687	241.3582	65535	64798.75
800.5111	243.582	65535	64766.8
800.6536	245.8053	65535	64785.55
800.7961	248.0281	65535	64787.45
800.9387	250.2503	65535	64782.25
801.0812	252.472	65535	64780.35
801.2238	254.6932	65535	64775.5
801.3664	256.9139	65535	64777.85
801.509	259.134	65535	64771.9
801.6516	261.3536	65535	64776.65
801.7942	263.5727	65535	64776.5
801.9369	265.7912	65535	64776.35
802.0795	268.0092	65535	64770
802.2222	270.2267	65535	64770.1
802.3649	272.4436	65535	64771.95
802.5076	274.6601	65535	64763.05
802.6504	276.8759	65535	64761.55
802.7931	279.0913	65535	64764.9
802.9359	281.3061	65535	64761.5
803.0787	283.5204	65535	64762.1
803.2215	285.7341	65535	64760.2
803.3643	287.9473	65535	64745.7
803.5071	290.16	65535	64751.6
803.6499	292.3721	65535	64760.35
803.7928	294.5837	65535	64756.65
803.9357	296.7947	65535	64757.55
804.0786	299.0052	65535	64760.15
804.2215	301.2152	65535	64754.95
804.3644	303.4246	65535	64758.15
804.5074	305.6334	65535	64759.25
804.6503	307.8418	65535	64753.65
804.7933	310.0495	65535	64751.5
804.9363	312.2568	65535	64752.9
805.0793	314.4635	65535	64752.55
805.2223	316.6696	65535	64751.9
805.3653	318.8752	65535	64741.15
805.5084	321.0802	65535	64747.55
805.6514	323.2847	65535	64745.5
805.7945	325.4887	65535	64743.65
805.9376	327.692	65535	64744.75
806.0807	329.8949	65535	64743
806.2238	332.0972	65535	64740.9
806.367	334.2989	65535	64742.5
806.5101	336.5001	65535	64738.85
806.6533	338.7007	65535	64737.1
806.7965	340.9008	65535	64733.8
806.9397	343.1003	65535	64735.6
807.0829	345.2992	65535	64732.75
807.2261	347.4976	65535	64732.15
807.3693	349.6955	65535	64727.85
807.5126	351.8927	65535	64728.4
807.6559	354.0895	65535	64716.25
807.7991	356.2856	65535	64725.25
807.9424	358.4812	65535	64726.75
808.0857	360.6763	65535	64726.35
808.2291	362.8707	65535	64722.7
808.3724	365.0646	65535	64717.6
808.5158	367.258	65535	64718.5
808.6591	369.4508	65535	64716.25
808.8025	371.643	65535	64715.75
808.9459	373.8346	65535	64711
809.0893	376.0257	65535	64712.3
809.2327	378.2162	65535	64712.95
809.3762	380.4062	65535	64707.7
809.5196	382.5956	65535	64709.05
809.6631	384.7844	65535	64713.6
809.8066	386.9726	65535	64710.2
809.9501	389.1603	65535	64713.95
810.0936	391.3474	65535	64671.45
810.2371	393.5339	65535	64714.35
810.3806	395.7199	65535	64717.4
810.5241	397.9052	65535	64719.35
810.6677	400.09	65535	64718.5
810.8113	402.2743	65535	64718.55
810.9548	404.4579	65535	64717.9
811.0984	406.641	65535	64716.35
811.2421	408.8235	65535	64713.4
811.3857	411.0054	65535	64713.8
811.5293	413.1868	65535	64714.1
811.673	415.3675	65535	64707.05
811.8166	417.5477	65535	64708.2
811.9603	419.7273	65535	64700.3
812.104	421.9064	65535	64694.85
812.2477	424.0848	65535	64698.85
812.3914	426.2627	65535	64701.45
812.5351	428.4399	65535	64698.2
812.6788	430.6166	65535	64696
812.8226	432.7928	65535	64697.5
812.9663	434.9683	65535	64698.8
813.1101	437.1432	65535	64691
813.2539	439.3176	65535	64695.75
813.3977	441.4914	65535	64694.05
813.5415	443.6645	65535	64693.3
813.6853	445.8371	65535	64694.8
813.8291	448.0091	65535	64693.05
813.973	450.1806	65535	64693.15
814.1168	452.3514	65535	64688.5
814.2607	454.5216	65535	64683.3
814.4046	456.6913	65535	64686.85
814.5485	458.8603	65535	64690
814.6924	461.0288	65535	64692.7
814.8363	463.1967	65535	64690.1
814.9802	465.3639	65535	64687.1
815.1241	467.5306	65535	64689.1
815.2681	469.6967	65535	64686.5
815.412	471.8622	65535	64686.25
815.556	474.0271	65535	64688.55
815.7	476.1914	65535	64686
815.844	478.3551	65535	64686.7
815.988	480.5182	65535	64683.85
816.132	482.6807	65535	64687.4
816.276	484.8426	65535	64685.35
816.4201	487.0039	65535	64684.8
816.5641	489.1647	65535	64684
816.7082	491.3248	65535	64684.95
816.8522	493.4843	65535	64686
816.9963	495.6432	65535	64681.85
817.1404	497.8015	65535	64681.25
817.2845	499.9592	65535	64681.45
817.4286	502.1163	65535	64680.65
817.5727	504.2728	65535	64682.65
817.7168	506.4287	65535	64682.3
817.861	508.5839	65535	64681.55
818.0051	510.7386	65535	64682.15
818.1493	512.8927	65535	64677.6
818.2935	515.0461	65535	64677.85
818.4377	517.199	65535	64677.85
818.5818	519.3512	65535	64676
818.726	521.5029	65535	64673.55
818.8703	523.6539	65535	64678.8
819.0145	525.8043	65535	64676.9
819.1587	527.9541	65535	64670.05
819.303	530.1033	65535	64672.35
819.4472	532.2519	65535	64672.8
819.5915	534.3999	65535	64670.8
819.7357	536.5472	65535	64671.6
819.88	538.694	65535	64673.95
820.0243	540.8401	65535	64669.15
820.1686	542.9856	65535	64668.55
820.3129	545.1305	65535	64667.4
820.4572	547.2748	65535	64665.5
820.6016	549.4185	65535	64663.85
820.7459	551.5615	65535	64662.8
820.8902	553.704	65535	64664.35
821.0346	555.8458	65535	64664.95
821.1789	557.987	65535	64665.05
821.3233	560.1276	65535	64664.2
821.4677	562.2675	65535	64664.85
821.6121	564.4069	65535	64664.2
821.7565	566.5456	65535	64670.4
821.9009	568.6837	65535	64668.35
822.0453	570.8212	65535	64669.3
822.1897	572.958	65535	64668.55
822.3342	575.0942	65535	64669.2
822.4786	577.2299	65535	64667.8
822.6231	579.3648	65535	64669.85
822.7675	581.4992	65535	64669.7
822.912	583.6329	65535	64670
823.0565	585.766	65535	64671.55
823.201	587.8985	65535	64670
823.3454	590.0304	65535	64642.35
823.4899	592.1616	65535	64661.5
823.6345	594.2922	65535	64664.8
823.779	596.4222	65535	64666.35
823.9235	598.5515	65535	64661.15
824.068	600.6802	65535	64661
824.2126	602.8083	65535	64664.55
824.3571	604.9358	65535	64659
824.5017	607.0626	65535	64661.9
824.6462	609.1888	65535	64659.2
824.7908	611.3144	65535	64658.15
824.9354	613.4393	65535	64660.15
825.08	615.5636	65535	64660.15
825.2246	617.6873	65535	64661.3
825.3692	619.8103	65535	64659.15
825.5138	621.9327	65535	64656.15
825.6584	624.0544	65535	64661
825.803	626.1756	65535	64659
825.9477	628.2961	65535	64658.75
826.0923	630.4159	65535	64658.95
826.237	632.5351	65535	64654.95
826.3816	634.6537	65535	64655
826.5263	636.7716	65535	64655.1
826.6709	638.8889	65535	64657.05
826.8156	641.0056	65535	64655.15
826.9603	643.1216	65535	64651.85
827.105	645.237	65535	64653.35
827.2497	647.3518	65535	64654.8
827.3944	649.4659	65535	64657.8
827.5391	651.5793	65535	64657.25
827.6838	653.6922	65535	64656.5
827.8285	655.8043	65535	64660
827.9733	657.9159	65535	64652.95
828.118	660.0268	65535	64649.9
828.2627	662.137	65535	64652.65
828.4075	664.2466	65535	64650.4
828.5522	666.3556	65535	64654
828.697	668.4639	65535	64649.85
828.8418	670.5716	65535	64653
828.9865	672.6786	65535	64650.9
829.1313	674.785	65535	64648.95
829.2761	676.8907	65535	64649.35
829.4209	678.9958	65535	64657.1
829.5657	681.1002	65535	64649.55
829.7105	683.204	65535	64648.35
829.8553	685.3072	65535	64649.5
830.0001	687.4097	65535	64650.35
830.1449	689.5115	65535	64648.2
830.2898	691.6127	65535	64652.45
830.4346	693.7132	65535	64649.6
830.5794	695.8131	65535	64639.9
830.7243	697.9123	65535	64646.2
830.8691	700.0109	65535	64649
831.014	702.1089	65535	64647.9
831.1588	704.2061	65535	64649
831.3037	706.3028	65535	64646.6
831.4486	708.3987	65535	64646.45
831.5935	710.4941	65535	64645.35
831.7383	712.5887	65535	64645.65
831.8832	714.6827	65535	64642.05
832.0281	716.7761	65535	64646
832.173	718.8688	65535	64644.45
832.3179	720.9608	65535	64642.05
832.4628	723.0522	65535	64641.45
832.6077	725.1429	65535	64645.15
832.7527	727.233	65535	64643.55
832.8976	729.3224	65535	64644.15
833.0425	731.4112	65535	64645.15
833.1874	733.4993	65535	64641.55
833.3324	735.5867	65535	64642.85
833.4773	737.6735	65535	64645.4
833.6222	739.7596	65535	64642.8
833.7672	741.845	65535	64641.85
833.9122	743.9298	65535	64640.65
834.0571	746.014	65535	64645.3
834.2021	748.0974	65535	64643.95
834.347	750.1802	65535	64642.6
834.492	752.2624	65535	64642.35
834.637	754.3439	65535	64640.5
834.782	756.4247	65535	64630.6
834.9269	758.5048	65535	64645.45
835.0719	760.5843	65535	64642.3
835.2169	762.6631	65535	64639.8
835.3619	764.7413	65535	64644.05
835.5069	766.8188	65535	64639.65
835.6519	768.8956	65535	64640.65
835.7969	770.9718	65535	64644.2
835.9419	773.0473	65535	64643.3
836.0869	775.1221	65535	64643.7
836.232	777.1962	65535	64641.75
836.377	779.2697	65535	64638.45
836.522	781.3426	65535	64621.5
836.667	783.4147	65535	64636.45
836.8121	785.4862	65535	64641.55
836.9571	787.557	65535	64641.25
837.1021	789.6271	65535	64639.65
837.2472	791.6966	65535	64639.75
837.3922	793.7654	65535	64637.55
837.5373	795.8335	65535	64640.4
837.6823	797.901	65535	64641.4
837.8274	799.9678	65535	64641.2
837.9724	802.0339	65535	64640.05
838.1175	804.0993	65535	64629.2
838.2626	806.1641	65535	64637.4
838.4076	808.2282	65535	64642.05
838.5527	810.2916	65535	64634.75
838.6978	812.3544	65535	64641.6
838.8428	814.4164	65535	64641.45
838.9879	816.4778	65535	64639.95
839.133	818.5385	65535	64638.35
839.2781	820.5986	65535	64636.5
839.4232	822.658	65535	64638.05
839.5682	824.7166	65535	64641.25
839.7133	826.7747	65535	64639.55
839.8584	828.832	65535	64639
840.0035	830.8886	65535	64635.05
840.1486	832.9446	65535	64636.25
840.2937	834.9999	65535	64639.75
840.4388	837.0545	65535	64634.7
840.5839	839.1085	65535	64636.8
840.729	841.1618	65535	64637.35
840.8741	843.2143	65535	64636.1
841.0192	845.2662	65535	64636.05
841.1643	847.3175	65535	64638
841.3095	849.368	65535	64641.35
841.4546	851.4179	65535	64638.5
841.5997	853.467	65535	64635.15
841.7448	855.5155	65535	64636.8
841.8899	857.5633	65535	64637.7
842.0351	859.6105	65535	64640
842.1802	861.6569	65535	64636.05
842.3253	863.7027	65535	64633.8
842.4704	865.7478	65535	64635.55
842.6156	867.7922	65535	64638.1
842.7607	869.8359	65535	64636.45
842.9058	871.8789	65535	64634.05
843.0509	873.9212	65535	64605.5
843.1961	875.9629	65535	64635.9
843.3412	878.0039	65535	64636.8
843.4863	880.0441	65535	64638.3
843.6315	882.0837	65535	64636.55
843.7766	884.1226	65535	64636.95
843.9218	886.1609	65535	64635.4
844.0669	888.1984	65535	64634.8
844.212	890.2352	65535	64636.65
844.3572	892.2714	65535	64633.8
844.5023	894.3069	65535	64633.95
844.6475	896.3416	65535	64633.8
844.7926	898.3757	65535	64635.8
844.9377	900.4091	65535	64635.05
845.0829	902.4418	65535	64628.2
845.228	904.4739	65535	64634.85
845.3732	906.5052	65535	64631
845.5183	908.5358	65535	64634.05
845.6635	910.5658	65535	64636.35
845.8086	912.595	65535	64633.5
845.9538	914.6236	65535	64635.75
846.0989	916.6515	65535	64635.3
846.2441	918.6786	65535	64633.3
846.3892	920.7051	65535	64631.05
846.5344	922.7309	65535	64636.1
846.6795	924.756	65535	64634.5
846.8246	926.7804	65535	64632.85
846.9698	928.8041	65535	64628.95
847.1149	930.8272	65535	64633.75
847.2601	932.8495	65535	64634.05
847.4052	934.8711	65535	64634.25
847.5504	936.892	65535	64633.55
847.6955	938.9123	65535	64633.65
847.8407	940.9318	65535	64633.8
847.9858	942.9506	65535	64632.3
848.131	944.9688	65535	64635.65
848.2761	946.9862	65535	64632.35
848.4213	949.003	65535	64632.25
848.5664	951.019	65535	64632.35
848.7115	953.0344	65535	64631.25
848.8567	955.0491	65535	64634.1
849.0018	957.063	65535	64635.85
849.147	959.0763	65535	64634
849.2921	961.0888	65535	64634.1
849.4373	963.1007	65535	64633.3
849.5824	965.1119	65535	64633.95
849.7275	967.1223	65535	64633.45
849.8727	969.1321	65535	64633.8
850.0178	971.1412	65535	64635.75
850.1629	973.1495	65535	64631.95
850.3081	975.1572	65535	64585.3
850.4532	977.1641	65535	64631.7
850.5983	979.1704	65535	64632.85
850.7435	981.1759	65535	64628.55
850.8886	983.1808	65535	64632.75
851.0337	985.1849	65535	64624.9
851.1788	987.1884	65535	64630.4
851.324	989.1911	65535	64629.6
851.4691	991.1932	65535	64629.35
851.6142	993.1945	65535	64630.8
851.7593	995.1951	65535	64633.8
851.9045	997.1951	65535	64628.65
852.0496	999.1943	65535	64633.15
852.1947	1001.1928	65535	64631.4
852.3398	1003.1906	65535	64631.7
852.4849	1005.1877	65535	64631.7
852.63	1007.1841	65535	64632.8
852.7751	1009.1798	65535	64632.7
852.9202	1011.1748	65535	64633.1
853.0653	1013.1691	65535	64634.55
853.2104	1015.1627	65535	64634.65
853.3555	1017.1556	65535	64631.45
853.5006	1019.1477	65535	64630.85
853.6457	1021.1392	65535	64635.65
853.7908	1023.1299	65535	64634.6
853.9359	1025.12	65535	64634.8
854.081	1027.1093	65535	64636.7
854.2261	1029.0979	65535	64635.55
854.3712	1031.0859	65535	64637.45
854.5163	1033.0731	65535	64635.7
854.6613	1035.0596	65535	64635.45
854.8064	1037.0454	65535	64633.85
854.9515	1039.0304	65535	64634.7
855.0965	1041.0148	65535	64633.4
855.2416	1042.9985	65535	64632.5
855.3867	1044.9814	65535	64632.45
855.5317	1046.9636	65535	64629.4
855.6768	1048.9452	65535	64632.55
855.8219	1050.926	65535	64635.05
855.9669	1052.9061	65535	64634.95
856.112	1054.8855	65535	64632.5
856.257	1056.8642	65535	64633.5
856.4021	1058.8421	65535	64628.2
856.5471	1060.8194	65535	64635.05
856.6921	1062.7959	65535	64634.1
856.8372	1064.7717	65535	64633.25
856.9822	1066.7469	65535	64632.9
857.1272	1068.7213	65535	64628.85
857.2723	1070.695	65535	64633.15
857.4173	1072.6679	65535	64633.4
857.5623	1074.6402	65535	64632.4
857.7073	1076.6117	65535	64626.5
857.8523	1078.5826	65535	64629.95
857.9973	1080.5527	65535	64632.25
858.1423	1082.5221	65535	64631.65
858.2873	1084.4908	65535	64633.3
858.4323	1086.4587	65535	64633
858.5773	1088.426	65535	64632.1
858.7223	1090.3925	65535	64629.1
858.8673	1092.3584	65535	64632.4
859.0123	1094.3235	65535	64636.15
859.1573	1096.2879	65535	64631.8
859.3022	1098.2515	65535	64633.15
859.4472	1100.2145	65535	64635
859.5922	1102.1767	65535	64629.95
859.7371	1104.1382	65535	64630.2
859.8821	1106.099	65535	64628.3
860.027	1108.0591	65535	64631.5
860.172	1110.0185	65535	64631.2
860.3169	1111.9771	65535	64632.8
860.4619	1113.9351	65535	64632.8
860.6068	1115.8923	65535	64632.3
860.7517	1117.8488	65535	64632.65
860.8967	1119.8045	65535	64634
861.0416	1121.7596	65535	64632.2
861.1865	1123.7139	65535	64632.75
861.3314	1125.6675	65535	64633.6
861.4763	1127.6204	65535	64630.8
861.6212	1129.5726	65535	64630.55
861.7661	1131.524	65535	64633.4
861.911	1133.4748	65535	64632.9
862.0559	1135.4248	65535	64632.25
862.2008	1137.3741	65535	64632.1
862.3457	1139.3226	65535	64631.2
862.4905	1141.2705	65535	64633.85
862.6354	1143.2176	65535	64626.4
862.7803	1145.164	65535	64630.1
862.9251	1147.1097	65535	64632.55
863.07	1149.0546	65535	64629.4
863.2148	1150.9989	65535	64631.75
863.3597	1152.9424	65535	64632.3
863.5045	1154.8852	65535	64632
863.6493	1156.8272	65535	64634.75
863.7942	1158.7686	65535	64624.75
863.939	1160.7092	65535	64631.25
864.0838	1162.6491	65535	64629.45
864.2286	1164.5883	65535	64632.55
864.3734	1166.5267	65535	64632.5
864.5182	1168.4644	65535	64633.75
864.663	1170.4014	65535	64626.15
864.8078	1172.3377	65535	64635.3
864.9526	1174.2732	65535	64633.75
865.0974	1176.2081	65535	64633.25
865.2421	1178.1421	65535	64629.85
865.3869	1180.0755	65535	64635.85
865.5317	1182.0082	65535	64630.95
865.6764	1183.9401	65535	64629.95
865.8212	1185.8713	65535	64634.2
865.9659	1187.8017	65535	64633.05
866.1106	1189.7315	65535	64636.7
866.2554	1191.6605	65535	64608.05
866.4001	1193.5888	65535	64634.2
866.5448	1195.5163	65535	64633.95
866.6895	1197.4432	65535	64629.55
866.8342	1199.3693	65535	64631.75
866.9789	1201.2947	65535	64628.65
867.1236	1203.2193	65535	64632.85
867.2683	1205.1432	65535	64633.9
867.413	1207.0664	65535	64633.45
867.5576	1208.9889	65535	64630.8
867.7023	1210.9106	65535	64633.45
867.847	1212.8316	65535	64632.6
867.9916	1214.7519	65535	64625.55
868.1363	1216.6715	65535	64631.8
868.2809	1218.5903	65535	64635.4
868.4255	1220.5084	65535	64632.9
868.5701	1222.4257	65535	64633
868.7148	1224.3424	65535	64633.65
868.8594	1226.2583	65535	64627.35
869.004	1228.1735	65535	64630.75
869.1486	1230.0879	65535	64634.55
869.2932	1232.0016	65535	64634.2
869.4377	1233.9146	65535	64631.6
869.5823	1235.8269	65535	64632.45
869.7269	1237.7384	65535	64633.7
869.8715	1239.6492	65535	64634.05
870.016	1241.5592	65535	64631.1
870.1606	1243.4686	65535	64633.25
870.3051	1245.3772	65535	64632.6
870.4496	1247.285	65535	64634.1
870.5941	1249.1922	65535	64633.15
870.7387	1251.0986	65535	64632.95
870.8832	1253.0042	65535	64631.15
871.0277	1254.9092	65535	64632.3
871.1722	1256.8134	65535	64633.5
871.3167	1258.7169	65535	64632.35
871.4611	1260.6196	65535	64634.75
871.6056	1262.5216	65535	64632.05
871.7501	1264.4229	65535	64634.35
871.8945	1266.3234	65535	64632.55
872.039	1268.2232	65535	64636.35
872.1834	1270.1223	65535	64632.1
872.3278	1272.0207	65535	64631.85
872.4723	1273.9183	65535	64627.45
872.6167	1275.8151	65535	64632.75
872.7611	1277.7113	65535	64631.75
872.9055	1279.6067	65535	64635.1
873.0499	1281.5014	65535	64632.15
873.1943	1283.3953	65535	64630.75
873.3386	1285.2885	65535	64634.05
873.483	1287.181	65535	64633.15
873.6274	1289.0727	65535	64635.7
873.7717	1290.9637	65535	64633.05
873.9161	1292.854	65535	64634.25
874.0604	1294.7435	65535	64632.5
874.2047	1296.6323	65535	64631.35
874.349	1298.5204	65535	64631.25
874.4933	1300.4077	65535	64633.1
874.6376	1302.2943	65535	64633.55
874.7819	1304.1802	65535	64633.4
874.9262	1306.0653	65535	64631.35
875.0705	1307.9497	65535	64633.55
875.2147	1309.8333	65535	64633.85
875.359	1311.7162	65535	64634.95
875.5032	1313.5984	65535	64630.2
875.6475	1315.4798	65535	64622.5
875.7917	1317.3605	65535	64615.7
875.9359	1319.2405	65535	64630.85
876.0801	1321.1197	65535	64631.15
876.2243	1322.9982	65535	64632.05
876.3685	1324.876	65535	64636.2
876.5127	1326.753	65535	64633.6
876.6569	1328.6293	65535	64631.2
876.801	1330.5048	65535	64629.95
876.9452	1332.3796	65535	64633.9
877.0893	1334.2537	65535	64609.4
877.2335	1336.127	65535	64634.6
877.3776	1337.9996	65535	64634.4
877.5217	1339.8714	65535	64633.7
877.6658	1341.7426	65535	64590.5
877.8099	1343.6129	65535	64632.1
877.954	1345.4826	65535	64631.25
878.0981	1347.3515	65535	64631.8
878.2422	1349.2196	65535	64631.7
878.3862	1351.087	65535	64631.8
878.5303	1352.9537	65535	64633.45
878.6743	1354.8197	65535	64634.3
878.8184	1356.6849	65535	64634
878.9624	1358.5493	65535	64634.1
879.1064	1360.4131	65535	64633.85
879.2504	1362.276	65535	64634
879.3944	1364.1383	65535	64631.75
879.5384	1365.9998	65535	64626.6
879.6823	1367.8606	65535	64633.45
879.8263	1369.7206	65535	64634.5
879.9702	1371.5799	65535	64632.6
880.1142	1373.4384	65535	64634.2
880.2581	1375.2962	65535	64630.5
880.402	1377.1533	65535	64631.4
880.5459	1379.0096	65535	64632.4
880.6898	1380.8652	65535	64633.5
880.8337	1382.7201	65535	64633.8
880.9776	1384.5742	65535	64632.55
881.1215	1386.4275	65535	64633.4
881.2653	1388.2802	65535	64634.75
881.4092	1390.132	65535	64631.85
881.553	1391.9832	65535	64631.95
881.6968	1393.8336	65535	64632.7
881.8406	1395.6832	65535	64631.55
881.9844	1397.5322	65535	64632.55
882.1282	1399.3803	65535	64629.7
882.272	1401.2278	65535	64633.85
882.4158	1403.0745	65535	64633.55
882.5595	1404.9204	65535	64634.1
882.7033	1406.7656	65535	64632.2
882.847	1408.6101	65535	64632
882.9908	1410.4538	65535	64634.5
883.1345	1412.2968	65535	64634.2
883.2782	1414.139	65535	64634.85
883.4219	1415.9805	65535	64632.95
883.5656	1417.8213	65535	64626.6
883.7092	1419.6613	65535	64633.8
883.8529	1421.5006	65535	64633.35
883.9965	1423.3391	65535	64632.75
884.1402	1425.1769	65535	64631.35
884.2838	1427.0139	65535	64632.25
884.4274	1428.8502	65535	64633.15
884.571	1430.6858	65535	64633.95
884.7146	1432.5206	65535	64634.2
884.8582	1434.3547	65535	64633.45
885.0018	1436.188	65535	64634.3
885.1453	1438.0206	65535	64631.7
885.2889	1439.8524	65535	64634.5
885.4324	1441.6835	65535	64630.7
885.5759	1443.5139	65535	64630.15
885.7194	1445.3435	65535	64631.95
885.8629	1447.1724	65535	64634.7
886.0064	1449.0005	65535	64633.75
886.1499	1450.8279	65535	64631.5
886.2933	1452.6545	65535	64633.9
886.4368	1454.4804	65535	64634.4
886.5802	1456.3056	65535	64627.4
886.7237	1458.13	65535	64633.6
886.8671	1459.9536	65535	64636
887.0105	1461.7766	65535	64636.4
887.1539	1463.5987	65535	64632.2
887.2972	1465.4202	65535	64632.85
887.4406	1467.2409	65535	64633.4
887.584	1469.0608	65535	64635.5
887.7273	1470.88	65535	64633.55
887.8706	1472.6984	65535	64635
888.0139	1474.5161	65535	64631
888.1572	1476.3331	65535	64635
888.3005	1478.1493	65535	64632.85
888.4438	1479.9648	65535	64634.75
888.5871	1481.7795	65535	64635.55
888.7303	1483.5935	65535	64634.8
888.8736	1485.4067	65535	64634.1
889.0168	1487.2192	65535	64634.15
889.16	1489.031	65535	64631.2
889.3032	1490.842	65535	64633.05
889.4464	1492.6522	65535	64635.9
889.5896	1494.4618	65535	64633.35
889.7327	1496.2705	65535	64634.8
889.8759	1498.0785	65535	64632.45
890.019	1499.8858	65535	64632.15
890.1622	1501.6924	65535	64635.35
890.3053	1503.4981	65535	64634.3
890.4484	1505.3032	65535	64635.85
890.5914	1507.1075	65535	64633.1
890.7345	1508.911	65535	64634.6
890.8776	1510.7138	65535	64634.3
891.0206	1512.5159	65535	64632.2
891.1637	1514.3172	65535	64635.3
891.3067	1516.1178	65535	64634.45
891.4497	1517.9176	65535	64633.05
891.5927	1519.7166	65535	64635.2
891.7357	1521.515	65535	64627.55
891.8786	1523.3126	65535	64633.85
892.0216	1525.1094	65535	64632.25
892.1645	1526.9055	65535	64635.15
892.3074	1528.7008	65535	64635
892.4503	1530.4954	65535	64628.45
892.5932	1532.2893	65535	64637.95
892.7361	1534.0824	65535	64632.85
892.879	1535.8747	65535	64635.6
893.0218	1537.6663	65535	64635.6
893.1647	1539.4572	65535	64631.95
893.3075	1541.2473	65535	64634.35
893.4503	1543.0367	65535	64635.2
893.5931	1544.8253	65535	64628.9
893.7359	1546.6132	65535	64633.15
893.8787	1548.4003	65535	64626.85
894.0214	1550.1867	65535	64625.85
894.1642	1551.9723	65535	64630.15
894.3069	1553.7572	65535	64633.15
894.4496	1555.5414	65535	64635.35
894.5923	1557.3247	65513.8	64614.95
894.735	1559.1074	65535	64637.55
894.8777	1560.8893	65535	64637.35
895.0204	1562.6705	65535	64638.6
895.163	1564.4509	65527.9	64629.2
895.3056	1566.2305	65535	64637.85
895.4482	1568.0094	65535	64638.1
895.5908	1569.7876	65535	64635
895.7334	1571.565	65524.65	64624.95
895.876	1573.3417	65530.1	64631.25
896.0186	1575.1176	65529.05	64632.9
896.1611	1576.8928	65518.95	64620.8
896.3036	1578.6672	65483.2	64588.25
896.4461	1580.4409	65516.05	64620.95
896.5886	1582.2138	65423.65	64525
896.7311	1583.986	65458.1	64558
896.8736	1585.7575	65337.35	64440.75
897.0161	1587.5282	65394.15	64499.25
897.1585	1589.2981	65384.3	64488.8
897.3009	1591.0673	65239.35	64343.2
897.4433	1592.8358	65062.6	64167.1
897.5857	1594.6035	65244.2	64344.25
897.7281	1596.3704	65277.2	64378.75
897.8705	1598.1366	64923.6	64024.95
898.0128	1599.9021	64742.55	63847.45
898.1551	1601.6668	65088.45	64190.35
898.2975	1603.4308	64909.05	64009.55
898.4398	1605.194	64895.25	63995.05
898.5821	1606.9564	64380.9	63482.85
898.7243	1608.7182	64687.45	63788.55
898.8666	1610.4791	64411.85	63517.7
899.0088	1612.2394	64696.25	63801.6
899.1511	1613.9988	64264.55	63367.85
899.2933	1615.7576	64727.6	63832.5
899.4355	1617.5156	64703.65	63801.3
899.5776	1619.2728	65061.8	64164.05
899.7198	1621.0293	64456.55	63561.45
899.862	1622.785	64460.7	63560.85
900.0041	1624.54	64750.45	63850.95
900.1462	1626.2942	64301.55	63406.2
900.2883	1628.0477	63581.05	62684
900.4304	1629.8005	62881	61978.8
900.5725	1631.5525	63587.35	62691.55
900.7145	1633.3037	62542	61646.05
900.8566	1635.0542	62403	61508.75
900.9986	1636.804	62851.7	61956.35
901.1406	1638.553	61685.55	60708.65
901.2826	1640.3013	62077.25	61180.7
901.4245	1642.0488	61267.9	60370.3
901.5665	1643.7955	61815.15	60922.15
901.7085	1645.5416	61283.7	60390
901.8504	1647.2868	60736.3	59841.5
901.9923	1649.0313	61655.3	60759.6
902.1342	1650.7751	61127.25	60228.9
902.2761	1652.5181	60718.3	59824.85
902.4179	1654.2604	60831.65	59935.8
902.5598	1656.0019	61228.9	60333.5
902.7016	1657.7427	61015.6	60120.35
902.8434	1659.4828	61691.7	60797
902.9852	1661.222	61138.1	60241.95
903.127	1662.9606	61785.75	60890.15
903.2687	1664.6984	60838.6	59941.5
903.4105	1666.4354	61117.8	60220.9
903.5522	1668.1717	59890.8	58996.35
903.6939	1669.9072	59048.45	58153
903.8356	1671.642	58763.05	57865.65
903.9773	1673.3761	58431.1	57535.8
904.119	1675.1094	58192.3	57298.95
904.2606	1676.8419	57557.85	56662.6
904.4022	1678.5737	57416.45	56520.15
904.5439	1680.3048	57088.35	56193.65
904.6855	1682.0351	56724.3	55828.9
904.827	1683.7646	56439.8	55540.6
904.9686	1685.4934	56562.95	55670.8
905.1101	1687.2215	55518.85	54624.3
905.2517	1688.9488	56109.95	55216.65
905.3932	1690.6754	54696.6	53803.2
905.5347	1692.4012	55154.65	54258.2
905.6761	1694.1263	55070.75	54176.4
905.8176	1695.8506	54694.85	53798.5
905.9591	1697.5742	54524.3	53631.6
906.1005	1699.297	54358.95	53464.35
906.2419	1701.0191	54237.85	53343.05
906.3833	1702.7404	53717.6	52824.05
906.5246	1704.461	53416.05	52519.1
906.666	1706.1808	53411.85	52517.15
906.8073	1707.8999	53320.35	52424.25
906.9487	1709.6182	53044.95	52150.9
907.09	1711.3358	52905.2	52011.05
907.2313	1713.0527	52742	51848.5
907.3725	1714.7688	52664.65	51765.15
907.5138	1716.4841	52020.4	51124.85
907.655	1718.1987	52125.65	51225.8
907.7962	1719.9126	51927.3	51036.45
907.9374	1721.6257	51787.45	50891.1
908.0786	1723.338	51806.2	50912.85
908.2198	1725.0496	51175.15	50281.25
908.3609	1726.7605	51070.65	50174.8
908.502	1728.4706	50921.25	50027.05
908.6431	1730.18	50686.45	49790.95
908.7842	1731.8886	50565.1	49671.55
908.9253	1733.5964	50382	49467.75
909.0664	1735.3036	50384.45	49487.25
909.2074	1737.0099	50177.45	49284.45
909.3484	1738.7156	49921.65	49029.35
909.4894	1740.4204	49643.7	48746.45
909.6304	1742.1246	49657.7	48761.4
909.7714	1743.8279	49565.65	48672.6
909.9123	1745.5306	49479.3	48583.35
910.0532	1747.2325	49112.2	48219.2
910.1941	1748.9336	48972.6	48079.95
910.335	1750.634	48810.25	47914.4
910.4759	1752.3336	48790.85	47897.4
910.6168	1754.0325	48541.4	47649.3
910.7576	1755.7307	48495.85	47604.45
910.8984	1757.4281	48374.5	47482.5
911.0392	1759.1247	48328.15	47427.4
911.18	1760.8206	48075.9	47177.4
911.3208	1762.5158	48044.4	47147.2
911.4615	1764.2102	47825.35	46932.15
911.6022	1765.9039	47613.15	46719.7
911.7429	1767.5968	47550.65	46655.6
911.8836	1769.289	47434.75	46541.5
912.0243	1770.9804	47212	46317.1
912.1649	1772.6711	47129	46234.25
912.3056	1774.361	46952.95	46056.75
912.4462	1776.0502	46849	45954.7
912.5868	1777.7386	46748.5	45850.75
912.7274	1779.4263	46584	45688.35
912.8679	1781.1132	46563.7	45672.55
913.0084	1782.7994	46277.55	45382.45
913.149	1784.4849	46231	45337.65
913.2895	1786.1696	46025.05	45125.75
913.4299	1787.8535	45903.7	45010.5
913.5704	1789.5367	45817.7	44926.35
913.7108	1791.2192	45750.1	44858
913.8513	1792.9009	45540.7	44615.45
913.9917	1794.5818	45417	44523.25
914.132	1796.2621	45280.3	44387.95
914.2724	1797.9415	45139	44246.85
914.4128	1799.6202	45005.95	44110.8
914.5531	1801.2982	44877.4	43984.45
914.6934	1802.9755	44810.95	43915.55
914.8337	1804.6519	44696.8	43802.35
914.9739	1806.3277	44488.9	43596.85
915.1142	1808.0027	44223.05	43330.9
915.2544	1809.6769	44242.65	43349.25
915.3946	1811.3504	44021.7	43127.4
915.5348	1813.0231	43953.6	43059.5
915.675	1814.6951	43901.3	43009.4
915.8151	1816.3664	43826.95	42932.6
915.9553	1818.0369	43672.35	42778.2
916.0954	1819.7067	43506.1	42614
916.2355	1821.3757	43445.85	42549.6
916.3755	1823.044	43377.3	42482.8
916.5156	1824.7115	43266	42372.4
916.6556	1826.3783	43001	42108.45
916.7956	1828.0443	42825.45	41933.7
916.9356	1829.7096	42747	41854.85
917.0756	1831.3741	42737.95	41840.7
917.2155	1833.0379	42551.8	41657.55
917.3555	1834.701	42387.65	41493.4
917.4954	1836.3633	42367.15	41472.8
917.6353	1838.0248	42205.8	41310.35
917.7751	1839.6856	42089.25	41197.3
917.915	1841.3457	42023.25	41130.8
918.0548	1843.005	41862.05	40972.4
918.1946	1844.6636	41865.15	40974.75
918.3344	1846.3214	41646.45	40752.3
918.4742	1847.9785	41611.2	40717.5
918.6139	1849.6349	41442	40546.9
918.7537	1851.2904	41383.1	40481.2
918.8934	1852.9453	41231.65	40336.5
919.0331	1854.5994	41057.15	40160.9
919.1727	1856.2528	41159.3	40259.9
919.3124	1857.9054	40952.45	40059.05
919.452	1859.5572	40852.8	39961.15
919.5916	1861.2083	40811.3	39916.9
919.7312	1862.8587	40817.25	39924.25
919.8708	1864.5084	40593.65	39700.05
920.0103	1866.1572	40457.55	39564.75
920.1498	1867.8054	40284.45	39392.1
920.2893	1869.4528	40198.55	39304.25
920.4288	1871.0994	40064.65	39172.65
920.5683	1872.7453	39990.15	39095.6
920.7077	1874.3905	39905.85	39006.75
920.8471	1876.0349	39767.8	38873.4
920.9865	1877.6786	39723.25	38826.75
921.1259	1879.3215	39652.65	38760.1
921.2653	1880.9637	39493.7	38598.5
921.4046	1882.6051	39446.9	38554.05
921.5439	1884.2458	39286	38390.5
921.6832	1885.8858	39110.4	38215.4
921.8225	1887.525	39094.85	38201.5
921.9617	1889.1634	38854.6	37963.55
922.101	1890.8011	38696.95	37804.2
922.2402	1892.4381	38610.8	37717.75
922.3794	1894.0743	38543.5	37650.35
922.5185	1895.7098	38475.7	37581.3
922.6577	1897.3446	38339.7	37445.05
922.7968	1898.9786	38227.1	37331.2
922.9359	1900.6118	38138.7	37244
923.075	1902.2443	37943.65	37049.15
923.214	1903.8761	37869.95	36978.1
923.3531	1905.5071	37606.2	36712.4
923.4921	1907.1374	37486.3	36592.4
923.6311	1908.7669	37455.95	36562.2
923.77	1910.3957	37346.55	36454.65
923.909	1912.0237	37144.15	36251.9
924.0479	1913.651	37065.15	36171.15
924.1868	1915.2776	36980.5	36087.75
924.3257	1916.9034	36826.05	35934.2
924.4646	1918.5285	36628.25	35737.2
924.6034	1920.1528	36435.65	35541.95
924.7422	1921.7764	36384.85	35491.7
924.881	1923.3992	36231.3	35339.65
925.0198	1925.0213	35924.2	35031.6
925.1586	1926.6427	35785.7	34891.3
925.2973	1928.2633	35779.6	34772.2
925.436	1929.8832	35616.7	34723.1
925.5747	1931.5023	35412.55	34519.15
925.7134	1933.1207	35353.25	34459.65
925.852	1934.7383	35292.2	34400.05
925.9906	1936.3552	35117.7	34225.2
926.1292	1937.9714	35027.75	34134.6
926.2678	1939.5868	34877.35	33982.65
926.4064	1941.2015	34682.55	33788
926.5449	1942.8154	34568.7	33674.75
926.6834	1944.4286	34412.8	33521.2
926.8219	1946.041	34269.45	33357.9
926.9604	1947.6528	34079.75	33183.4
927.0988	1949.2637	34043.1	33150.65
927.2372	1950.8739	33893.55	33000.1
927.3756	1952.4834	33822.25	32929.3
927.514	1954.0921	33720.15	32828.05
927.6523	1955.7001	33560.8	32663.75
927.7907	1957.3074	33444	32552.35
927.929	1958.9139	33295.2	32405
928.0673	1960.5197	33207.95	32315
928.2055	1962.1247	33023.6	32132.3
928.3438	1963.729	32904.1	32010.85
928.482	1965.3325	32758.65	31843.85
928.6202	1966.9353	32661.3	31770.85
928.7584	1968.5374	32515.95	31622.55
928.8965	1970.1387	32392.75	31498.3
929.0346	1971.7393	32273.85	31382.2
929.1727	1973.3392	32191.45	31301.5
929.3108	1974.9383	32092.45	31201.65
929.4489	1976.5366	31942.65	31051
929.5869	1978.1342	31854.9	30961.3
929.7249	1979.7311	31809.35	30914.55
929.8629	1981.3273	31675.95	30784.5
930.0009	1982.9227	31569.6	30677
930.1388	1984.5173	31421.1	30530.15
930.2767	1986.1112	31281.7	30390.6
930.4146	1987.7044	31200.4	30308.85
930.5525	1989.2968	31054.1	30162.6
930.6904	1990.8885	31047.55	30152.15
930.8282	1992.4795	30907	30014.3
930.966	1994.0697	30753	29859.1
931.1038	1995.6592	30689.7	29798.25
931.2415	1997.2479	30603.3	29711.05
931.3793	1998.8359	30508.95	29615.85
931.517	2000.4232	30263.7	29373.55
931.6547	2002.0097	30227.4	29337.8
931.7923	2003.5955	30027.05	29137.1
931.93	2005.1805	30005.3	29111.5
932.0676	2006.7648	29933.35	29041.4
932.2052	2008.3484	29815.5	28923.4
932.3427	2009.9312	29828.7	28934.15
932.4803	2011.5133	29668.55	28777.45
932.6178	2013.0946	29615.9	28724.1
932.7553	2014.6752	29474.75	28584.65
932.8928	2016.2551	29439.95	28548.65
933.0302	2017.8342	29300.1	28409.75
933.1676	2019.4126	29212.85	28322.6
933.305	2020.9902	29019.25	28126.4
933.4424	2022.5672	28992.95	28100.7
933.5798	2024.1433	28941.1	28044.3
933.7171	2025.7188	28781.7	27891.15
933.8544	2027.2935	28698.5	27805.9
933.9917	2028.8674	28580.7	27690.85
934.129	2030.4406	28508.9	27620.35
934.2662	2032.0131	28356.45	27467.6
934.4034	2033.5849	28280.45	27383.4
934.5406	2035.1559	28202.95	27312.55
934.6778	2036.7261	28152.55	27261.2
934.8149	2038.2957	28019.9	27128.65
934.952	2039.8645	27977.1	27086.5
935.0891	2041.4325	27992.1	27099.55
935.2262	2042.9998	27806.8	26913.7
935.3632	2044.5664	27767.65	26873.7
935.5002	2046.1323	27624.95	26732.35
935.6372	2047.6974	27540	26651.25
935.7742	2049.2617	27449.65	26558.55
935.9111	2050.8254	27415.2	26502.2
936.048	2052.3883	27352.7	26459.15
936.1849	2053.9504	27231.4	26340.45
936.3218	2055.5118	27142.35	26251.1
936.4586	2057.0725	27026	26132.7
936.5955	2058.6325	26971.05	26080.8
936.7323	2060.1917	26867.35	25976.55
936.869	2061.7502	26819.35	25927.4
937.0058	2063.3079	26695.15	25801.85
937.1425	2064.8649	26613.95	25720.5
937.2792	2066.4212	26560.35	25667.75
937.4159	2067.9767	26450.65	25560.05
937.5525	2069.5315	26330.9	25440.25
937.6891	2071.0856	26226.1	25336.4
937.8257	2072.6389	26135.65	25243.4
937.9623	2074.1915	25922.7	25032.55
938.0989	2075.7433	25891.25	24997.2
938.2354	2077.2945	25795.1	24905.35
938.3719	2078.8448	25718.5	24826.9
938.5084	2080.3945	25600.4	24709.05
938.6448	2081.9434	25588.1	24695.2
938.7812	2083.4916	25486.1	24594.65
938.9176	2085.039	25361.05	24467.55
939.054	2086.5857	25292.8	24400.55
939.1903	2088.1317	25231.4	24340.15
939.3267	2089.677	25138.45	24247.35
939.463	2091.2215	25060.8	24170.45
939.5992	2092.7652	25003.55	24109.05
939.7355	2094.3083	24911.85	24020
939.8717	2095.8506	24872.55	23979.35
940.0079	2097.3921	24879	23987.4
940.1441	2098.933	24756.75	23864.3
940.2802	2100.4731	24703.65	23812.75
940.4163	2102.0124	24644.15	23747.25
940.5524	2103.5511	24601.65	23710.65
940.6885	2105.089	24491.95	23601.8
940.8245	2106.6261	24458.8	23567.75
940.9606	2108.1626	24340.8	23447.25
941.0965	2109.6983	24312.9	23391.15
941.2325	2111.2332	24179	23286.9
941.3684	2112.7675	24088.85	23194.7
941.5044	2114.301	24012.35	23119.1
941.6403	2115.8337	24023.75	23131.85
941.7761	2117.3657	23930.95	23039.2
941.912	2118.897	23894.3	23002.3
942.0478	2120.4276	23780.95	22884.35
942.1835	2121.9575	23634.4	22741.75
942.3193	2123.4866	23664.35	22768.05
942.455	2125.0149	23557	22662
942.5907	2126.5426	23428.25	22535.9
942.7264	2128.0695	23367.35	22470.75
942.8621	2129.5956	23297.6	22407.75
942.9977	2131.1211	23246.85	22351.75
943.1333	2132.6458	23193.9	22302.7
943.2689	2134.1698	23131.05	22238.95
943.4044	2135.693	23068.85	22174.25
943.54	2137.2155	23006.6	22111.65
943.6755	2138.7373	22907.55	22013.55
943.8109	2140.2584	22848.75	21956.65
943.9464	2141.7787	22748.75	21849.5
944.0818	2143.2983	22669.15	21778.85
944.2172	2144.8171	22560.3	21671.9
944.3526	2146.3353	22486.15	21592.45
944.4879	2147.8527	22375.75	21483.65
944.6232	2149.3693	22408.55	21515.6
944.7585	2150.8853	22265.05	21371.8
944.8938	2152.4005	22190.15	21296.6
945.029	2153.9149	22149.15	21256.8
945.1642	2155.4287	22057.7	21168
945.2994	2156.9417	21980.65	21086.9
945.4346	2158.454	21943.6	21047.35
945.5697	2159.9655	21861.1	20969.5
945.7048	2161.4764	21815.15	20922.7
945.8399	2162.9865	21752.6	20861.25
945.9749	2164.4958	21648.55	20755.05
946.1099	2166.0045	21606.35	20710.9
946.2449	2167.5124	21577	20683.5
946.3799	2169.0195	21500.35	20607.9
946.5148	2170.526	21457.6	20564.85
946.6498	2172.0317	21397.65	20507.15
946.7846	2173.5367	21336.95	20444.6
946.9195	2175.0409	21243.9	20351.4
947.0543	2176.5445	21212.15	20321.45
947.1891	2178.0473	21127.5	20235.95
947.3239	2179.5494	21039.7	20144.05
947.4587	2181.0507	20952.2	20057.7
947.5934	2182.5513	20877.85	19985.75
947.7281	2184.0512	20842.9	19951.2
947.8628	2185.5504	20786.9	19894.65
947.9974	2187.0488	20610.15	19718.9
948.132	2188.5465	20561	19670.1
948.2666	2190.0435	20505.1	19614.15
948.4012	2191.5397	20448.6	19556.2
948.5357	2193.0353	20401.9	19510.95
948.6702	2194.5301	20257.4	19364.65
948.8047	2196.0241	20213.55	19321.45
948.9392	2197.5175	20128	19236.9
949.0736	2199.0101	20067.95	19171.75
949.208	2200.502	19935.45	19042.55
949.3424	2201.9931	19855.15	18964.15
949.4767	2203.4835	19812.35	18918.75
949.611	2204.9733	19716.05	18818.55
949.7453	2206.4622	19666.3	18775.7
949.8796	2207.9505	19653.4	18759.75
950.0138	2209.438	19488.9	18599.15
950.148	2210.9248	19424.4	18532.65
950.2822	2212.4109	19385.3	18492.1
950.4164	2213.8962	19284.85	18388.85
950.5505	2215.3809	19255.3	18361.55
950.6846	2216.8648	19226.65	18334.7
950.8186	2218.3479	19114.15	18216.6
950.9527	2219.8304	19077.3	18181.6
951.0867	2221.3121	18999.05	18104.4
951.2207	2222.7931	18963.4	18073.45
951.3546	2224.2733	18842.95	17949.15
951.4886	2225.7529	18796.7	17904.8
951.6225	2227.2317	18751.85	17856.55
951.7563	2228.7098	18704.3	17813.9
951.8902	2230.1872	18591.2	17697.95
952.024	2231.6638	18560	17667.5
952.1578	2233.1397	18475.8	17576.5
952.2916	2234.6149	18379	17485.9
952.4253	2236.0894	18318.85	17427
952.559	2237.5632	18311.2	17409
952.6927	2239.0362	18256.35	17363.65
952.8263	2240.5085	18179.6	17287.7
952.9599	2241.9801	18083.65	17190.55
953.0935	2243.4509	18032.9	17141.9
953.2271	2244.921	17979	17087.35
953.3606	2246.3904	17855.1	16961.4
953.4941	2247.8591	17818.25	16926.8
953.6276	2249.3271	17789.2	16898.65
953.7611	2250.7943	17707.7	16815.5
953.8945	2252.2608	17646	16753.05
954.0279	2253.7266	17566.65	16675.35
954.1612	2255.1917	17535.65	16644.85
954.2946	2256.656	17468.75	16576.35
954.4279	2258.1197	17413.55	16521.3
954.5612	2259.5826	17350.3	16455.15
954.6944	2261.0447	17316.65	16422.25
954.8276	2262.5062	17225.6	16331
954.9608	2263.9669	17217.4	16322.45
955.094	2265.4269	17149.15	16257.75
955.2271	2266.8862	17067.55	16175.8
955.3602	2268.3448	17069.55	16175
955.4933	2269.8026	16997.75	16105.4
955.6264	2271.2598	16929.15	16037.55
955.7594	2272.7162	16884.9	15993.1
955.8924	2274.1719	16817.55	15926.05
956.0253	2275.6268	16793	15901
956.1583	2277.0811	16733.9	15841.55
956.2912	2278.5346	16663.3	15771.6
956.4241	2279.9874	16638.2	15745.7
956.5569	2281.4395	16620.1	15729.4
956.6897	2282.8908	16543.6	15646.25
956.8225	2284.3414	16470.15	15575.75
956.9553	2285.7914	16406	15513.7
957.088	2287.2406	16356.4	15462.6
957.2207	2288.689	16318.35	15426.3
957.3534	2290.1368	16284.5	15391.6
957.486	2291.5838	16212.95	15318.05
957.6186	2293.0302	16165.75	15271.2
957.7512	2294.4758	16075.45	15183.3
957.8838	2295.9206	16034.7	15141.3
958.0163	2297.3648	15991.25	15098.85
958.1488	2298.8082	15956.95	15061.6
958.2813	2300.251	15908.2	15016.45
958.4137	2301.693	15851.75	14957.4
958.5461	2303.1343	15813.9	14919.6
958.6785	2304.5748	15775.5	14884.2
958.8108	2306.0147	15704.9	14812.5
958.9432	2307.4538	15661.7	14768.9
959.0754	2308.8922	15602.15	14713.3
959.2077	2310.3299	15524.55	14632.1
959.3399	2311.7669	15476.75	14584.4
959.4721	2313.2031	15428.95	14536.7
959.6043	2314.6387	15395.55	14502.65
959.7365	2316.0735	15333.35	14441.6
959.8686	2317.5076	15274.5	14381.95
960.0006	2318.941	15235	14342.85
960.1327	2320.3737	15180.05	14287.8
960.2647	2321.8056	15155.95	14261.95
960.3967	2323.2369	15063.6	14169.75
960.5287	2324.6674	15021.65	14126.45
960.6606	2326.0972	14974.55	14080
960.7925	2327.5263	14902.8	14009.95
960.9244	2328.9547	14873.65	13982.15
961.0562	2330.3823	14809.6	13917.1
961.1881	2331.8092	14815.15	13918.9
961.3198	2333.2355	14712	13819.25
961.4516	2334.661	14710.55	13817.5
961.5833	2336.0858	14709.35	13818.25
961.715	2337.5098	14621	13728.3
961.8467	2338.9332	14598.3	13705.05
961.9783	2340.3558	14528.65	13634.3
962.1099	2341.7778	14459	13564.65
962.2415	2343.199	14439.7	13547.15
962.373	2344.6195	14388.2	13495.25
962.5045	2346.0393	14340.1	13449.15
962.636	2347.4583	14312.05	13418.6
962.7675	2348.8767	14250.8	13356.5
962.8989	2350.2943	14206.15	13312.7
963.0303	2351.7113	14175.8	13282.45
963.1617	2353.1275	14115.25	13223.2
963.293	2354.543	14066.75	13166.05
963.4243	2355.9578	14021.6	13129.05
963.5556	2357.3718	13909.2	13016.85
963.6868	2358.7852	13855.5	12959.75
963.818	2360.1978	13842.1	12949.15
963.9492	2361.6098	13760.25	12870.8
964.0803	2363.021	13714.35	12818.95
964.2114	2364.4315	13711.95	12821.8
964.3425	2365.8413	13669.4	12777.4
964.4736	2367.2504	13602.75	12711.55
964.6046	2368.6587	13529.7	12638.95
964.7356	2370.0664	13483.15	12589.4
964.8666	2371.4733	13444.75	12551.25
964.9975	2372.8795	13404.45	12513.5
965.1284	2374.285	13321.4	12429.4
965.2593	2375.6899	13260.1	12369.6
965.3901	2377.0939	13174.3	12283.35
965.5209	2378.4973	13152.4	12261
965.6517	2379.9	13112	12219.85
965.7825	2381.3019	13058.75	12167.6
965.9132	2382.7032	13034.95	12144.25
966.0439	2384.1037	12999.6	12109.55
966.1745	2385.5035	12938.6	12045.6
966.3051	2386.9027	12906.9	12015.35
966.4357	2388.3011	12872.55	11977
966.5663	2389.6987	12791.6	11900.85
966.6968	2391.0957	12756.05	11864.9
966.8273	2392.492	12672.35	11781.3
966.9578	2393.8876	12626.2	11734.7
967.0882	2395.2824	12556.85	11665.25
967.2186	2396.6765	12479.95	11589.6
967.349	2398.07	12458.4	11567.95
967.4793	2399.4627	12413.25	11521
967.6097	2400.8547	12375.2	11484.25
967.7399	2402.246	12341.2	11443.45
967.8702	2403.6366	12226.8	11335.1
968.0004	2405.0265	12213.75	11322.15
968.1306	2406.4156	12201.3	11305.55
968.2607	2407.8041	12130.75	11236.6
968.3909	2409.1918	12088.65	11194.45
968.521	2410.5789	12024.05	11132.2
968.651	2411.9652	11977.6	11084.75
968.781	2413.3508	11968.1	11075.85
968.911	2414.7358	11903.7	11010.7
969.041	2416.12	11871.55	10980.7
969.1709	2417.5035	11841	10949.55
969.3008	2418.8863	11778.35	10885.25
969.4307	2420.2684	11750.4	10859.8
969.5606	2421.6497	11692.5	10800.4
969.6904	2423.0304	11616.95	10725.15
969.8201	2424.4104	11608.05	10717.85
969.9499	2425.7896	11558.4	10666.3
970.0796	2427.1682	11531.85	10640.7
970.2093	2428.546	11504.15	10612.05
970.3389	2429.9232	11447.85	10555.35
970.4685	2431.2996	11428.55	10538.95
970.5981	2432.6753	11402.05	10510.25
970.7277	2434.0503	11348.7	10454.95
970.8572	2435.4246	11327.8	10435.65
970.9867	2436.7982	11261.4	10367.45
971.1161	2438.1711	11247.4	10356.9
971.2456	2439.5433	11188.75	10295.5
971.375	2440.9148	11132	10240.7
971.5043	2442.2856	11076.7	10187.1
971.6336	2443.6557	11071.45	10178.8
971.7629	2445.025	11011.2	10120.35
971.8922	2446.3937	10998	10108.2
972.0214	2447.7617	10936.55	10044.95
972.1506	2449.1289	10927.3	10036.45
972.2798	2450.4955	10904.55	10008.85
972.4089	2451.8613	10877.25	9985.2
972.538	2453.2265	10833.85	9941.95
972.6671	2454.5909	10799.35	9906.6
972.7961	2455.9546	10767.25	9876.75
972.9251	2457.3177	10716.15	9827.85
973.0541	2458.68	10693.45	9800.45
973.1831	2460.0416	10680.3	9789.05
973.312	2461.4025	10670.35	9777.2
973.4408	2462.7627	10642.3	9739.95
973.5697	2464.1222	10592.45	9702.9
973.6985	2465.4811	10538.4	9646.25
973.8273	2466.8392	10506.1	9615.65
973.956	2468.1966	10469.65	9577
974.0847	2469.5533	10464.8	9571.45
974.2134	2470.9093	10427.45	9535.25
974.3421	2472.2645	10400.55	9508.15
974.4707	2473.6191	10369.8	9477.45
974.5993	2474.973	10308.35	9416.6
974.7278	2476.3262	10290.4	9397.4
974.8563	2477.6787	10224.45	9333.4
974.9848	2479.0305	10182.3	9291.45
975.1132	2480.3816	10180.15	9286.05
975.2417	2481.7319	10123.25	9229.05
975.37	2483.0816	10067.95	9174.35
975.4984	2484.4306	10037.7	9146.55
975.6267	2485.7789	9982.25	9092.3
975.755	2487.1264	9947.75	9052.45
975.8833	2488.4733	9906.75	9015.45
976.0115	2489.8195	9877.75	8969.25
976.1397	2491.165	9830.2	8937.75
976.2678	2492.5097	9817.55	8922.4
976.3959	2493.8538	9763.6	8873.65
976.524	2495.1972	9732.45	8841.3
976.6521	2496.5398	9677.65	8785.4
976.7801	2497.8818	9675.4	8781.15
976.9081	2499.2231	9637.3	8744.45
977.036	2500.5637	9589.25	8693.85
977.164	2501.9035	9553.95	8662.7
977.2918	2503.2427	9532	8636.05
977.4197	2504.5812	9459.75	8566.25
977.5475	2505.919	9480.3	8588.05
977.6753	2507.256	9446.9	8555.8
977.8031	2508.5924	9417.75	8527.25
977.9308	2509.9281	9374.65	8479.35
978.0585	2511.2631	9346.5	8454.3
978.1861	2512.5974	9317.05	8426.15
978.3137	2513.9309	9281.05	8390.2
978.4413	2515.2638	9257.55	8340.9
978.5689	2516.596	9216.35	8324.25
978.6964	2517.9275	9176.3	8284.2
978.8239	2519.2583	9141.75	8250.25
978.9513	2520.5884	9101.05	8208.3
979.0788	2521.9178	9087.6	8196.55
979.2062	2523.2465	9030.95	8142.05
979.3335	2524.5745	8997.15	8107.1
979.4608	2525.9018	8996.6	8103.65
979.5881	2527.2284	8953.25	8059.35
979.7154	2528.5543	8903.3	8011.4
979.8426	2529.8796	8885	7993
979.9698	2531.2041	8884.05	7991.3
980.0969	2532.5279	8857.75	7967.45
980.224	2533.851	8852.75	7961
980.3511	2535.1735	8814.65	7923.2
980.4781	2536.4952	8765.75	7874.1
980.6052	2537.8163	8732.5	7838.15
980.7321	2539.1366	8713.35	7822.05
980.8591	2540.4562	8692.05	7798.6
980.986	2541.7752	8696.75	7803.7
981.1129	2543.0935	8673.05	7780.7
981.2397	2544.411	8641.65	7748.2
981.3665	2545.7279	8638.55	7749.6
981.4933	2547.0441	8620.1	7729.2
981.62	2548.3596	8576.2	7681.2
981.7467	2549.6744	8567.3	7677.2
981.8734	2550.9885	8535.35	7642.1
982.0001	2552.3019	8489.75	7596.5
982.1267	2553.6146	8477.15	7583.6
982.2532	2554.9266	8455.25	7562.2
982.3798	2556.2379	8406.65	7512.3
982.5063	2557.5485	8389.15	7499.5
982.6327	2558.8585	8373.65	7475.15
982.7592	2560.1677	8397.45	7503.65
982.8856	2561.4762	8346.5	7457.05
983.0119	2562.7841	8309.85	7415.85
983.1383	2564.0913	8290.3	7400.9
983.2646	2565.3977	8309	7416.4
983.3908	2566.7035	8266.25	7376.35
983.517	2568.0086	8253.6	7357.9
983.6432	2569.313	8233.15	7340
983.7694	2570.6167	8211.75	7318.2
983.8955	2571.9197	8166.1	7274.6
984.0216	2573.222	8166.35	7270.9
984.1476	2574.5236	8127.3	7235.15
984.2737	2575.8246	8109.5	7213.35
984.3996	2577.1248	8107.25	7211.55
984.5256	2578.4244	8078.8	7186.15
984.6515	2579.7232	8083.5	7192.65
984.7774	2581.0214	8077.65	7163.1
984.9032	2582.3189	8049.45	7157.55
985.029	2583.6157	8006	7110.45
985.1548	2584.9118	7967.9	7076.3
985.2806	2586.2072	7960.6	7068.25
985.4063	2587.5019	7965	7074.3
985.5319	2588.7959	7932.5	7039.35
985.6576	2590.0893	7935.25	7043.2
985.7832	2591.3819	7897.05	7006.85
985.9087	2592.6739	7854.75	6964.5
986.0343	2593.9652	7858.8	6965.05
986.1597	2595.2557	7831.1	6938.1
986.2852	2596.5456	7804	6909.8
986.4106	2597.8348	7771.75	6882.1
986.536	2599.1234	7731.55	6840.4
986.6614	2600.4112	7686	6793.25
986.7867	2601.6983	7681.8	6785.3
986.912	2602.9848	7640.75	6747.3
987.0372	2604.2705	7633.25	6735.9
987.1624	2605.5556	7616.5	6724.05
987.2876	2606.84	7582.35	6692.7
987.4128	2608.1237	7553.1	6659.55
987.5379	2609.4067	7533.55	6643.05
987.6629	2610.689	7537	6635.4
987.788	2611.9707	7479.4	6582.85
987.913	2613.2516	7453.05	6554.7
988.0379	2614.5319	7391	6499.65
988.1629	2615.8115	7379.1	6489.05
988.2878	2617.0903	7332.65	6438.35
988.4126	2618.3685	7319.95	6426.6
988.5375	2619.6461	7302.1	6408.35
988.6622	2620.9229	7298.15	6407.05
988.787	2622.199	7253.5	6361.05
988.9117	2623.4745	7235.4	6342.45
989.0364	2624.7493	7227.65	6333.65
989.161	2626.0234	7192.4	6302.6
989.2857	2627.2968	7160.95	6268.9
989.4102	2628.5695	7146.8	6254.2
989.5348	2629.8415	7127.9	6236.15
989.6593	2631.1128	7067.2	6174.85
989.7837	2632.3835	7035.15	6144.5
989.9082	2633.6535	6992.15	6100.05
990.0326	2634.9228	7003.55	6112.9
990.1569	2636.1914	6964.4	6073.45
990.2812	2637.4593	6949.3	6051.4
990.4055	2638.7265	6928.3	6035.75
990.5298	2639.9931	6902.6	6010.6
990.654	2641.259	6907.05	6011.8
990.7782	2642.5242	6872.65	5979.75
990.9023	2643.7887	6839.6	5946.5
991.0264	2645.0525	6821.3	5929.3
991.1505	2646.3156	6772.65	5880.05
991.2745	2647.5781	6759.65	5868.9
991.3985	2648.8398	6756.15	5864.75
991.5225	2650.1009	6721.1	5819.95
991.6464	2651.3613	6700.65	5807.4
991.7703	2652.6211	6695.5	5803.4
991.8942	2653.8801	6670.35	5778.6
992.018	2655.1385	6652.9	5757.8
992.1418	2656.3961	6639.35	5747.25
992.2655	2657.6531	6596.5	5701.75
992.3892	2658.9094	6603.3	5710
992.5129	2660.1651	6600	5707.9
992.6366	2661.42	6571.7	5681.1
992.7602	2662.6743	6562.35	5668.2
992.8837	2663.9279	6527.85	5637.8
993.0073	2665.1808	6523.2	5630.3
993.1307	2666.433	6495.65	5601.7
993.2542	2667.6846	6476.1	5585.05
993.3776	2668.9354	6451.6	5555
993.501	2670.1856	6435.25	5544.1
993.6244	2671.4351	6411.25	5520.05
993.7477	2672.6839	6410.25	5517.25
993.8709	2673.9321	6390.75	5500.2
993.9942	2675.1795	6373.6	5483
994.1174	2676.4263	6352.75	5461.55
994.2405	2677.6724	6344.85	5453.15
994.3637	2678.9179	6333.1	5441.35
994.4868	2680.1626	6316.75	5426.7
994.6098	2681.4067	6284.35	5391.7
994.7328	2682.6501	6286.15	5394.1
994.8558	2683.8928	6246.85	5354.75
994.9788	2685.1348	6231.9	5340.2
995.1017	2686.3761	6202.25	5309.95
995.2245	2687.6168	6195.6	5305.25
995.3474	2688.8568	6166.2	5275.9
995.4702	2690.0961	6141.3	5252
995.5929	2691.3348	6120.45	5228.7
995.7156	2692.5727	6103.55	5211.85
995.8383	2693.81	6083.95	5191.75
995.961	2695.0466	6056.65	5164.2
996.0836	2696.2826	6044.1	5151.65
996.2062	2697.5178	6036.15	5142.1
996.3287	2698.7524	6002.1	5109.65
996.4512	2699.9863	6000.05	5107.7
996.5737	2701.2195	5979.2	5088
996.6961	2702.452	5980.7	5087.4
996.8185	2703.6839	5943.65	5051.15
996.9408	2704.9151	5935.3	5044
997.0631	2706.1456	5916.45	5025.75
997.1854	2707.3755	5896.65	5004.8
997.3077	2708.6046	5893.95	5000.65
997.4299	2709.8331	5884.7	4992.9
997.552	2711.0609	5850.5	4959.4
997.6742	2712.2881	5842.3	4949.9
997.7963	2713.5145	5827.1	4932.85
997.9183	2714.7403	5816.05	4924.5
998.0403	2715.9654	5792.2	4898.6
998.1623	2717.1899	5803.5	4897.2
998.2842	2718.4136	5787.4	4895.8
998.4062	2719.6367	5776.5	4883.55
998.528	2720.8591	5769.2	4871.5
998.6498	2722.0809	5749	4857.75
998.7716	2723.3019	5760	4863.8
998.8934	2724.5223	5745.5	4851.8
999.0151	2725.7421	5710.35	4817.95
999.1368	2726.9611	5707.3	4814.6
999.2584	2728.1795	5703.3	4808.75
999.38	2729.3972	5676.05	4784.3
999.5016	2730.6142	5642.55	4737.3
999.6231	2731.8306	5625.7	4731.95
999.7446	2733.0462	5582.4	4688.65
999.8661	2734.2612	5548.6	4653.1
999.9875	2735.4756	5501.5	4608.85
1000.1089	2736.6892	5478.25	4587
1000.2302	2737.9022	5438.3	4545.55
1000.3515	2739.1145	5409.85	4518.1
1000.4728	2740.3262	5392.5	4491.8
1000.594	2741.5372	5353.7	4462.6
1000.7152	2742.7475	5333.85	4440.85
1000.8363	2743.9571	5312.9	4419.35
1000.9575	2745.1661	5288.75	4393.35
1001.0785	2746.3744	5268.4	4375.55
1001.1996	2747.582	5251.9	4360.8
1001.3206	2748.7889	5233.3	4340.4
1001.4415	2749.9952	5189.9	4298.85
1001.5625	2751.2008	5180.75	4288.85
1001.6833	2752.4057	5166.35	4271.2
1001.8042	2753.61	5141.85	4246.35
1001.925	2754.8136	5130.7	4237.95
1002.0458	2756.0165	5104.2	4213.85
1002.1665	2757.2188	5072.05	4180.2
1002.2872	2758.4204	5059.6	4168.7
1002.4078	2759.6213	5065.95	4173.2
1002.5285	2760.8215	5053.3	4158.7
1002.649	2762.0211	5027.05	4132.15
1002.7696	2763.22	5012.6	4118.95
1002.8901	2764.4182	4997.05	4104.35
1003.0106	2765.6158	4979.3	4088.45
1003.131	2766.8127	4981.75	4089.5
1003.2514	2768.009	4935.25	4042.65
1003.3717	2769.2045	4934.05	4040.6
1003.492	2770.3994	4914.85	4020.4
1003.6123	2771.5936	4891.45	3998.05
1003.7325	2772.7872	4871.95	3981.1
1003.8527	2773.9801	4855.7	3961.95
1003.9729	2775.1723	4844.95	3938.3
1004.093	2776.3639	4828.5	3937
1004.2131	2777.5548	4803.8	3909
1004.3331	2778.745	4799.4	3906.15
1004.4531	2779.9346	4768.75	3877.5
1004.5731	2781.1235	4774.85	3882.8
1004.693	2782.3117	4767.1	3875.85
1004.8129	2783.4992	4755.4	3863.1
1004.9328	2784.6861	4724.75	3832.6
1005.0526	2785.8723	4732.55	3839.7
1005.1723	2787.0579	4720.35	3828.4
1005.2921	2788.2428	4705.65	3813.65
1005.4118	2789.427	4708.15	3816.45
1005.5314	2790.6106	4698.55	3807.8
1005.651	2791.7935	4683.5	3791.45
1005.7706	2792.9757	4676.35	3787.35
1005.8902	2794.1573	4682.15	3789.35
1006.0097	2795.3382	4696.15	3804.55
1006.1291	2796.5184	4677.1	3787.5
1006.2485	2797.698	4687.85	3795.4
1006.3679	2798.8769	4688.5	3795.75
1006.4873	2800.0551	4694.8	3802.75
1006.6066	2801.2327	4678.6	3783.35
1006.7258	2802.4096	4686.2	3796.25
1006.8451	2803.5859	4685.25	3793.5
1006.9642	2804.7615	4692.1	3799.4
1007.0834	2805.9364	4709.85	3818.5
1007.2025	2807.1106	4726.2	3835.2
1007.3216	2808.2842	4746	3853.75
1007.4406	2809.4572	4765.65	3873.5
1007.5596	2810.6294	4800.7	3907.2
1007.6785	2811.801	4823.85	3934.2
1007.7975	2812.972	4836.4	3945.45
1007.9163	2814.1423	4887.85	3996.4
1008.0352	2815.3119	4924.55	4032.3
1008.154	2816.4808	4948.05	4057
1008.2727	2817.6491	4989.65	4096.5
1008.3914	2818.8167	5028.5	4138.7
1008.5101	2819.9837	5070.35	4174.2
1008.6288	2821.15	5110.15	4221.5
1008.7474	2822.3157	5115.15	4225.1
1008.8659	2823.4807	5157.8	4267.65
1008.9844	2824.645	5206.15	4312.9
1009.1029	2825.8086	5220.7	4330.65
1009.2214	2826.9716	5247.25	4357.35
1009.3398	2828.134	5283.1	4391.6
1009.4581	2829.2957	5323.2	4432.45
1009.5764	2830.4567	5304.75	4415.3
1009.6947	2831.617	5326.35	4435.45
1009.813	2832.7767	5354.75	4464.4
1009.9312	2833.9358	5346.35	4457.1
1010.0493	2835.0941	5325.35	4431.2
1010.1675	2836.2519	5298.25	4406.65
1010.2855	2837.4089	5281.25	4385.8
1010.4036	2838.5653	5261.4	4370.55
1010.5216	2839.7211	5261.65	4372.3
1010.6396	2840.8761	5271	4379.1
1010.7575	2842.0306	5268.8	4377.4
1010.8754	2843.1843	5297.45	4406.55
1010.9932	2844.3374	5338.65	4448.9
1011.111	2845.4899	5384.9	4492.65
1011.2288	2846.6417	5464.5	4573
1011.3465	2847.7928	5532.65	4641.9
1011.4642	2848.9433	5587.3	4694.9
1011.5818	2850.0931	5658.4	4767.1
1011.6995	2851.2422	5719.65	4825.65
1011.817	2852.3907	5800.1	4908.25
1011.9345	2853.5385	5868	4974.4
1012.052	2854.6857	5923.45	5005
1012.1695	2855.8323	5949.4	5058.7
1012.2869	2856.9781	5976.75	5086.55
1012.4042	2858.1233	6020.7	5131.15
1012.5216	2859.2679	6058.15	5166.55
1012.6389	2860.4118	6062.25	5172.25
1012.7561	2861.555	6085.05	5188.1
1012.8733	2862.6976	6130.3	5237.8
1012.9905	2863.8395	6129.15	5237.95
1013.1076	2864.9808	6159.65	5269.35
1013.2247	2866.1214	6152.65	5261.3
1013.3417	2867.2614	6181.7	5291
1013.4587	2868.4007	6163.6	5271.5
1013.5757	2869.5393	6158.05	5265.45
1013.6926	2870.6773	6157.55	5263.15
1013.8095	2871.8146	6184.4	5289.65
1013.9263	2872.9513	6167.9	5274
1014.0431	2874.0874	6145.2	5255.25
1014.1599	2875.2227	6131.05	5238.85
1014.2766	2876.3574	6113.55	5222.8
1014.3933	2877.4915	6079.1	5190
1014.51	2878.6249	6042.05	5152.25
1014.6266	2879.7577	6000.7	5109.5
1014.7431	2880.8898	5973.5	5070.75
1014.8596	2882.0212	5935.05	5043
1014.9761	2883.152	5917.7	5025.4
1015.0925	2884.2821	5885.85	4995.4
1015.2089	2885.4116	5859	4969.6
1015.3253	2886.5405	5843.85	4951.6
1015.4416	2887.6686	5849.65	4956.5
1015.5579	2888.7962	5847.45	4958.15
1015.6741	2889.923	5829.35	4939.5
1015.7903	2891.0493	5850.4	4958.95
1015.9065	2892.1748	5850	4958.6
1016.0226	2893.2997	5845.6	4952.65
1016.1387	2894.424	5856.2	4966.75
1016.2547	2895.5476	5852.9	4962.9
1016.3707	2896.6706	5857	4966.9
1016.4866	2897.7929	5891.05	5000.65
1016.6025	2898.9145	5895.55	5004.55
1016.7184	2900.0355	5928.15	5036.95
1016.8342	2901.1559	5947.35	5054.9
1016.95	2902.2756	5985	5091.6
1017.0658	2903.3946	6000.75	5110.5
1017.1815	2904.513	6010.4	5117.2
1017.2971	2905.6308	6016.4	5126.75
1017.4127	2906.7479	6051.25	5158.75
1017.5283	2907.8643	6057.25	5163.4
1017.6439	2908.9801	6066.3	5175.9
1017.7594	2910.0953	6057.55	5168.15
1017.8748	2911.2098	6044.85	5150.75
1017.9902	2912.3236	6039.55	5141.6
1018.1056	2913.4368	6006.2	5111.9
1018.2209	2914.5494	5983.65	5093.1
1018.3362	2915.6613	5958.35	5063.4
1018.4515	2916.7725	5925.85	5031.9
1018.5667	2917.8831	5876.2	4985.3
1018.6819	2918.9931	5831	4937.65
1018.797	2920.1024	5776.2	4884.7
1018.9121	2921.211	5767.8	4876.4
1019.0271	2922.319	5746.55	4857.05
1019.1421	2923.4264	5713.9	4823.55
1019.2571	2924.5331	5705.55	4816.25
1019.372	2925.6391	5661.35	4770.4
1019.4869	2926.7445	5659.35	4769.55
1019.6017	2927.8493	5640.9	4750.1
1019.7165	2928.9534	5634.8	4744.45
1019.8313	2930.0569	5596.9	4702.95
1019.946	2931.1597	5600.25	4709.3
1020.0606	2932.2619	5575.15	4683
1020.1753	2933.3634	5552.2	4662.3
1020.2899	2934.4643	5555.55	4659.95
1020.4044	2935.5645	5523.85	4625.6
1020.5189	2936.6641	5486.75	4591.05
1020.6334	2937.763	5411.6	4522.4
1020.7478	2938.8613	5355.7	4463.7
1020.8622	2939.959	5295.6	4400.8
1020.9765	2941.056	5196.3	4305.9
1021.0908	2942.1523	5122	4230.4
1021.2051	2943.248	5022.25	4130.65
1021.3193	2944.3431	4909.9	4019.2
1021.4334	2945.4375	4829.4	3939.05
1021.5476	2946.5313	4704.7	3815.6
1021.6617	2947.6244	4590.8	3699.95
1021.7757	2948.7169	4485.65	3592.7
1021.8897	2949.8087	4383.95	3492
1022.0037	2950.8999	4284.4	3393
1022.1176	2951.9904	4190.7	3299.8
1022.2315	2953.0803	4115.5	3224.15
1022.3453	2954.1696	4035.5	3143.5
1022.4591	2955.2582	3967.5	3078.35
1022.5728	2956.3462	3911.9	3022.15
1022.6865	2957.4335	3885	2993.1
1022.8002	2958.5202	3818.3	2926.15
1022.9138	2959.6062	3784.05	2893.65
1023.0274	2960.6916	3765.55	2873.7
1023.141	2961.7764	3733.9	2842.8
1023.2545	2962.8605	3706.2	2812.6
1023.3679	2963.9439	3687.75	2798.3
1023.4813	2965.0267	3670.2	2777.75
1023.5947	2966.1089	3665.6	2752.05
1023.708	2967.1905	3661.85	2770.65
1023.8213	2968.2714	3617.05	2728.75
1023.9346	2969.3516	3607.05	2716.45
1024.0478	2970.4312	3631.4	2734.1
1024.1609	2971.5102	3583.9	2692.3
1024.274	2972.5885	3608.65	2717.6
1024.3871	2973.6662	3589.05	2693.1
1024.5002	2974.7432	3569.2	2678.6
1024.6132	2975.8196	3559.55	2670.2
1024.7261	2976.8954	3552.95	2663.45
1024.839	2977.9705	3515.7	2626
1024.9519	2979.045	3511.45	2619.6
1025.0647	2980.1188	3486.95	2595.4
1025.1775	2981.192	3443.25	2553
1025.2902	2982.2645	3419.6	2527.85
1025.4029	2983.3364	3383.3	2491.75
1025.5156	2984.4077	3355.05	2464.7
1025.6282	2985.4783	3326.7	2432
1025.7407	2986.5483	3282.5	2394.55
1025.8532	2987.6177	3237.7	2347.75
1025.9657	2988.6864	3198.9	2307.4
1026.0782	2989.7545	3161.2	2268.9
1026.1906	2990.8219	3133.6	2243.6
1026.3029	2991.8887	3091.5	2197.4
1026.4152	2992.9548	3054.45	2163.15
1026.5275	2994.0204	3013.6	2124.15
1026.6397	2995.0852	2977.7	2087.8
1026.7519	2996.1495	2971.5	2079.05
1026.864	2997.2131	2922.15	2032.15
1026.9761	2998.276	2900	2010.4
1027.0882	2999.3383	2872.8	1981.2
1027.2002	3000.4	2851.9	1959.75
1027.3122	3001.4611	2832.2	1939.2
1027.4241	3002.5215	2813.15	1921.95
1027.536	3003.5812	2793.8	1903.75
1027.6478	3004.6404	2777.3	1887.65
1027.7596	3005.6989	2758.8	1866.95
1027.8714	3006.7567	2741.15	1849.3
1027.9831	3007.8139	2742.45	1828.25
1028.0947	3008.8705	2714.45	1822.7
1028.2064	3009.9264	2712.3	1819.75
1028.3179	3010.9818	2703.6	1814.45
1028.4295	3012.0364	2690.85	1799.45
1028.541	3013.0905	2676.2	1785.65
1028.6524	3014.1439	2675.1	1784.8
1028.7638	3015.1966	2671.2	1779.75
1028.8752	3016.2487	2661.85	1773.35
1028.9865	3017.3002	2656.8	1763.15
1029.0978	3018.3511	2645.3	1755.85
1029.209	3019.4013	2647.85	1758.5
1029.3202	3020.4509	2639.75	1750.4
1029.4314	3021.4998	2619.85	1728.15
1029.5425	3022.5481	2628.4	1735.1
1029.6535	3023.5958	2617.65	1726.8
1029.7645	3024.6428	2616.2	1724.6
1029.8755	3025.6892	2610.85	1720.35
1029.9864	3026.735	2606.05	1716.8
1030.0973	3027.7802	2602.5	1712.9
1030.2082	3028.8247	2603.45	1713.2
1030.319	3029.8685	2596.2	1704.7
1030.4297	3030.9118	2600.1	1708.15
1030.5404	3031.9544	2584.05	1692.6
1030.6511	3032.9963	2593.1	1701.75
1030.7617	3034.0376	2594.6	1702.4
1030.8723	3035.0783	2585.9	1693.15
1030.9829	3036.1184	2584.75	1694.35
1031.0934	3037.1578	2591.65	1703.25
1031.2038	3038.1966	2586.2	1694.8
1031.3142	3039.2348	2578.15	1688.25
1031.4246	3040.2723	2580	1681.4
1031.5349	3041.3092	2564.2	1673.4
1031.6452	3042.3455	2561.8	1670.55
1031.7554	3043.3811	2541.6	1650.55
1031.8656	3044.4161	2535.4	1644.55
1031.9758	3045.4505	2528	1638.2
1032.0859	3046.4842	2527.6	1638.5
1032.1959	3047.5173	2506.35	1616.35
1032.3059	3048.5498	2500.8	1610.2
1032.4159	3049.5816	2479.15	1589.85
1032.5258	3050.6128	2477.2	1585.65
1032.6357	3051.6434	2465.3	1572.95
1032.7455	3052.6734	2461.8	1571.2
1032.8553	3053.7027	2444.8	1554.45
1032.9651	3054.7314	2438.5	1546.2
1033.0748	3055.7594	2427.2	1537.25
1033.1845	3056.7868	2413.45	1522.65
1033.2941	3057.8136	2397.25	1506.4
1033.4037	3058.8398	2387.75	1497.85
1033.5132	3059.8653	2386.8	1497.15
1033.6227	3060.8902	2369.2	1479.45
1033.7321	3061.9145	2358.85	1470.2
1033.8415	3062.9381	2340.05	1448.9
1033.9509	3063.9612	2360.95	1455
1034.0602	3064.9835	2332.4	1441
1034.1694	3066.0053	2317.25	1424.05
1034.2787	3067.0264	2312.65	1422.55
1034.3878	3068.0469	2298.35	1407.3
1034.497	3069.0668	2284.95	1392.45
1034.6061	3070.086	2281.25	1391.05
1034.7151	3071.1046	2272.1	1383.35
1034.8241	3072.1226	2263.65	1372.75
1034.9331	3073.1399	2241.5	1352.55
1035.042	3074.1567	2225.8	1334.9
1035.1508	3075.1727	2213.95	1322.1
1035.2597	3076.1882	2199.45	1311.4
1035.3684	3077.203	2181.65	1290.55
1035.4772	3078.2173	2178.45	1287.95
1035.5859	3079.2308	2157.75	1266.7
1035.6945	3080.2438	2154.15	1262.45
1035.8031	3081.2561	2129.9	1239
1035.9117	3082.2678	2131.3	1241.1
1036.0202	3083.2789	2114.05	1224.55
1036.1286	3084.2893	2092.45	1203.25
1036.2371	3085.2991	2098.2	1206.7
1036.3454	3086.3083	2085.85	1189.65
1036.4538	3087.3169	2075.1	1183.55
1036.562	3088.3248	2058.8	1167.8
1036.6703	3089.3321	2063.75	1174.2
1036.7785	3090.3388	2045.85	1156.9
1036.8866	3091.3449	2041.3	1151.95
1036.9948	3092.3503	2032.9	1138.05
1037.1028	3093.3551	2019.35	1129.05
1037.2108	3094.3593	2020.75	1131.15
1037.3188	3095.3629	2014.65	1125.7
1037.4267	3096.3658	1999.55	1108.05
1037.5346	3097.3681	1993.45	1103.4
1037.6425	3098.3698	1995.9	1101.4
1037.7503	3099.3708	1991.6	1092.3
1037.858	3100.3713	1978.1	1088.95
1037.9657	3101.3711	1970	1080.25
1038.0734	3102.3702	2087.1	1061.95
1038.181	3103.3688	1961.95	1069.8
1038.2886	3104.3667	1949.8	1059.35
1038.3961	3105.364	1939.9	1049.45
1038.5036	3106.3607	1920.65	1029.35
1038.611	3107.3568	1927.25	1035.8
1038.7184	3108.3522	1912.75	1023.85
1038.8257	3109.347	1915.5	1023.2
1038.933	3110.3412	1914.85	1019.6
1039.0403	3111.3348	1892.2	1002.35
1039.1475	3112.3277	1893.3	1002.5
1039.2547	3113.32	1884.1	996.4
1039.3618	3114.3117	1873.55	983.65
1039.4689	3115.3028	1872.25	981.25
1039.5759	3116.2932	1863.9	971
1039.6829	3117.2831	1867.35	972.05
1039.7898	3118.2723	1855.5	966.05
1039.8967	3119.2608	1856.9	969.1
1040.0035	3120.2488	1856.7	968.3
1040.1103	3121.2361	1840.05	951.4
1040.2171	3122.2229	1840.25	950
1040.3238	3123.209	1832.4	942.75
1040.4305	3124.1944	1816.05	926.55
1040.5371	3125.1793	1828.4	938.05
1040.6437	3126.1635	1812.5	923.65
1040.7502	3127.1471	1811.45	921.55
1040.8567	3128.1301	1802.85	913.2
1040.9631	3129.1125	1800.85	912.15
1041.0695	3130.0942	1797.85	907.35
1041.1759	3131.0753	1801.4	904.45
1041.2822	3132.0558	1797	905.1
1041.3884	3133.0357	1780.05	888.85
1041.4946	3134.015	1774.35	884.05
1041.6008	3134.9936	1772.05	879.6
1041.7069	3135.9716	1795.75	886.15
1041.813	3136.949	1770.95	881.6
1041.919	3137.9258	1767.5	871.3
1042.025	3138.902	1765.05	867.1
1042.1309	3139.8775	1747.05	858
1042.2368	3140.8524	1751.65	860.6
1042.3427	3141.8267	1750.85	859.2
1042.4485	3142.8004	1745.15	854.05
1042.5542	3143.7735	1751	856.5
1042.6599	3144.7459	1745.65	854.05
1042.7656	3145.7178	1731.45	840.3
1042.8712	3146.689	1719.95	832.15
1042.9768	3147.6596	1728.9	838.25
1043.0823	3148.6295	1715.25	824.85
1043.1878	3149.5989	1717.9	827.55
1043.2932	3150.5676	1711.65	823
1043.3986	3151.5357	1701.9	812.35
1043.5039	3152.5032	1698.1	808.2
1043.6092	3153.4701	1692.55	802.25
1043.7145	3154.4364	1683.2	789.15
1043.8197	3155.402	1673.6	784.9
1043.9248	3156.367	1688.4	797.45
1044.03	3157.3315	1706.5	775.45
1044.135	3158.2952	1669.9	779.05
1044.24	3159.2584	1666.9	778.65
1044.345	3160.221	1655.15	761.35
1044.4499	3161.1829	1656.85	766.95
1044.5548	3162.1442	1654.75	763.55
1044.6596	3163.105	1642.7	753.15
1044.7644	3164.065	1639.9	748.35
1044.8692	3165.0245	1640.1	747.55
1044.9739	3165.9834	1631.55	743.15
1045.0785	3166.9416	1637.75	748.35
1045.1831	3167.8993	1624.75	735.6
1045.2877	3168.8563	1620	730.2
1045.3922	3169.8127	1614.9	724.9
1045.4966	3170.7684	1615.45	724.65
1045.6011	3171.7236	1612.1	719.35
1045.7054	3172.6782	1601.65	712
1045.8098	3173.6321	1602.55	712.6
1045.914	3174.5854	1604.05	711.55
1046.0183	3175.5381	1595.55	705.05
1046.1224	3176.4902	1587.25	696.9
1046.2266	3177.4417	1586.05	695.45
1046.3307	3178.3926	1578.05	689.25
1046.4347	3179.3428	1574	685.2
1046.5387	3180.2924	1570.85	681.75
1046.6427	3181.2415	1573.05	682.35
1046.7466	3182.1899	1567.3	675.95
1046.8504	3183.1377	1559.05	668.75
1046.9542	3184.0848	1559.3	666.05
1047.058	3185.0314	1548.65	658.7
1047.1617	3185.9773	1557.1	665.8
1047.2654	3186.9227	1549.2	658.05
1047.369	3187.8674	1535.3	643.95
1047.4726	3188.8115	1546.8	651.8
1047.5761	3189.755	1534.05	642.85
1047.6796	3190.6979	1532.65	643.75
1047.783	3191.6402	1527.5	639.4
1047.8864	3192.5818	1536	645.6
1047.9898	3193.5229	1534.55	631.8
1048.0931	3194.4633	1528.35	637.9
1048.1963	3195.4031	1517.35	627.05
1048.2995	3196.3423	1516.95	627.55
1048.4027	3197.2809	1519.4	628.65
1048.5058	3198.2189	1514.8	625.75
1048.6089	3199.1563	1507.15	609.7
1048.7119	3200.0931	1500.65	609.9
1048.8148	3201.0292	1491.45	600.85
1048.9178	3201.9648	1496.5	606.6
1049.0206	3202.8997	1501.1	609.25
1049.1235	3203.834	1483	594.65
1049.2262	3204.7677	1478.1	588.3
1049.329	3205.7008	1480.45	588.4
1049.4317	3206.6333	1472.7	583.8
1049.5343	3207.5652	1486.6	594
1049.6369	3208.4964	1471.15	580.15
1049.7394	3209.4271	1466.3	576.35
1049.8419	3210.3571	1467.45	577.4
1049.9444	3211.2865	1460.6	568.8
1050.0468	3212.2154	1464.9	575.2
1050.1491	3213.1436	1461.75	568
1050.2514	3214.0712	1474.9	578.85
1050.3537	3214.9982	1451.85	561.25
1050.4559	3215.9246	1453.95	564.2
1050.5581	3216.8503	1447.05	558.5
1050.6602	3217.7755	1440.9	550.95
1050.7623	3218.7001	1441.7	553
1050.8643	3219.624	1440.65	550.9
1050.9663	3220.5473	1438.45	547.7
1051.0682	3221.4701	1436.05	543.65
1051.1701	3222.3922	1426.5	534.6
1051.2719	3223.3137	1433.7	541.7
1051.3737	3224.2346	1420.05	528.35
1051.4754	3225.1549	1426.15	536.65
1051.5771	3226.0746	1423.35	534.8
1051.6788	3226.9937	1412.8	522.65
1051.7804	3227.9121	1416	528.15
1051.8819	3228.83	1421.55	532.2
1051.9834	3229.7473	1410.45	519.75
1052.0849	3230.6639	1407.2	513.95
1052.1863	3231.5799	1398.75	509.8
1052.2876	3232.4954	1398.85	507.3
1052.3889	3233.4102	1400.15	509.4
1052.4902	3234.3244	1395.9	506.45
1052.5914	3235.238	1391.35	502.05
1052.6926	3236.151	1415	501.75
1052.7937	3237.0634	1389.85	499.85
1052.8948	3237.9752	1387.55	498.1
1052.9958	3238.8864	1380.75	491.7
1053.0968	3239.797	1381.95	491.1
1053.1977	3240.7069	1367.85	476
1053.2986	3241.6163	1372.45	479.85
1053.3994	3242.5251	1365.45	475.5
1053.5002	3243.4332	1367.55	480.4
1053.6009	3244.3408	1361.15	471.25
1053.7016	3245.2477	1360.5	470.05
1053.8022	3246.154	1353.35	461.25
1053.9028	3247.0598	1352.3	461.5
1054.0034	3247.9649	1347.05	458
1054.1039	3248.8694	1349	459.95
1054.2043	3249.7733	1338.25	449.4
1054.3047	3250.6766	1338.8	448.35
1054.4051	3251.5793	1344.5	453.85
1054.5054	3252.4814	1330.45	441.15
1054.6056	3253.3829	1333.95	444.25
1054.7058	3254.2838	1338.15	448.45
1054.806	3255.1841	1326.6	437.05
1054.9061	3256.0838	1325.3	434.65
1055.0061	3256.9829	1316.65	427.45
1055.1062	3257.8814	1314.1	423.15
1055.2061	3258.7792	1315.6	421.9
1055.306	3259.6765	1310.3	421.2
1055.4059	3260.5731	1305.2	415.5
1055.5057	3261.4692	1303.25	410.5
1055.6055	3262.3647	1295.45	403.95
1055.7052	3263.2595	1281.5	391.25
1055.8049	3264.1538	1284.25	394.4
1055.9045	3265.0474	1276.4	385.8
1056.0041	3265.9404	1274.15	385.85
1056.1036	3266.8329	1261.8	375.75
1056.2031	3267.7247	1273.4	373.75
1056.3025	3268.616	1254.85	366.45
1056.4019	3269.5066	1242.35	354.35
1056.5013	3270.3966	1241.5	348.85
1056.6005	3271.286	1221.9	333.95
