Software Version:	3.9.2.0
Unit SN:	10000200
Spectrometer SN:	6960
Date:	3/6/2024 9:29:40 AM
Data Line Index:	25
Spectral Points:	2048
Integration time (ms):	125
Averages:	20
Delay (ms):	30
Sequence Number:	1
Processing:	dark subtract
Laser Power (mW):	300
Laser Current (mA):	822
Laser Diode Temp (C):	25.1
Laser Case Temp (C):	23.4
System Temp (C):	23.2
Spectrometer Temp (C):	20.8
CCD Temp (C):	-0.031
Secondary Temp (C):	20.001
Heatsink Temp (C):	17.667
CCDPCB Temp (C):	29.904
SecondaryPCB Temp (C):	25.324

Wavelength	RamanShift	Raw Counts	Dark Subtracted
787.061	30.1047	524.15	116.35
787.2016	32.3739	526.65	119.35
787.3422	34.6426	535.4	128.45
787.4828	36.9109	542.1	134.45
787.6235	39.1787	553.85	141.6
787.7642	41.4461	567.85	151.25
787.9049	43.7131	579.05	157.9
788.0456	45.9796	589.2	165.9
788.1863	48.2456	606.15	180.6
788.3271	50.5112	616.4	184.45
788.4679	52.7764	630.1	196.5
788.6087	55.0411	648.45	211.1
788.7496	57.3054	669.15	227.05
788.8904	59.5692	680	236.9
789.0313	61.8326	703.7	257.6
789.1722	64.0955	718.05	269.7
789.3132	66.3579	746.8	291.7
789.4541	68.6199	775.65	317.9
789.5951	70.8815	829.5	367.1
789.7361	73.1426	946.65	482.4
789.8771	75.4032	1244.05	773.9
790.0181	77.6634	1971.95	1501.15
790.1592	79.9231	3720.85	3244.7
790.3003	82.1824	7535.35	7056.1
790.4414	84.4412	14304.9	13814.15
790.5825	86.6995	23450.5	22953.4
790.7237	88.9574	32148.45	31644
790.8648	91.2148	38350.95	37839.95
791.006	93.4717	41503.25	40988.2
791.1472	95.7282	42896.65	42378.35
791.2885	97.9842	43569.9	43053.35
791.4297	100.2398	43928.45	43407.6
791.571	102.4949	43758.2	43233.15
791.7123	104.7495	44153.7	43623.45
791.8536	107.0036	43940.1	43410.4
791.9949	109.2573	44438.1	43910.3
792.1363	111.5105	43965.15	43435.1
792.2777	113.7632	44440.65	43904.6
792.4191	116.0154	44496.35	43954.05
792.5605	118.2672	44836.35	44297.8
792.7019	120.5185	44800.75	44262.4
792.8434	122.7693	44845.2	44304.9
792.9849	125.0197	44777.3	44229.75
793.1264	127.2696	45200.85	44649.45
793.2679	129.519	45439.8	44886.1
793.4094	131.7679	45778.55	45223.15
793.551	134.0163	44855.6	44297.1
793.6926	136.2642	45327.9	44764.9
793.8342	138.5117	45896.9	45331.35
793.9758	140.7587	45747.15	45180.2
794.1175	143.0052	45915.15	45346.65
794.2591	145.2512	45468.5	44898.25
794.4008	147.4967	46054.45	45485.45
794.5425	149.7417	45849.5	45273.7
794.6842	151.9863	45945.15	45368.05
794.826	154.2304	45454.75	44871.4
794.9677	156.4739	45854.8	45265.05
795.1095	158.717	46058.55	45471.65
795.2513	160.9596	45971.85	45380.25
795.3931	163.2017	45645.45	45050.05
795.535	165.4433	46152.15	45554.35
795.6768	167.6844	45867.35	45268.35
795.8187	169.925	46148.2	45545.9
795.9606	172.1651	46075.9	45472.35
796.1025	174.4047	45943.85	45333.95
796.2445	176.6439	46143.5	45530.55
796.3864	178.8825	46212.05	45599.3
796.5284	181.1206	46366.3	45750.45
796.6704	183.3582	46481.85	45861.2
796.8124	185.5954	46072.95	45451.7
796.9544	187.832	46433.4	45806.75
797.0965	190.0681	46303.1	45674.65
797.2386	192.3037	46690.05	46055.55
797.3806	194.5388	47209.35	46572.65
797.5228	196.7734	46264.95	45628.1
797.6649	199.0075	47035.65	46398.65
797.807	201.2411	47064.05	46424.8
797.9492	203.4742	47408.55	46765.85
798.0914	205.7068	47483.1	46835
798.2336	207.9389	47489.35	46842.55
798.3758	210.1704	47421.3	46783.95
798.518	212.4015	47888.7	47261.6
798.6603	214.632	47263	46641.2
798.8025	216.862	47837.75	47214.35
798.9448	219.0915	47953.35	47326.95
799.0871	221.3205	47690.7	47063.1
799.2294	223.549	48130.15	47505.6
799.3718	225.777	48143.65	47517.55
799.5141	228.0044	48219.3	47585.6
799.6565	230.2314	48319.5	47682.75
799.7989	232.4578	48280.25	47642.25
799.9413	234.6837	48244.6	47597.55
800.0837	236.909	49080.5	48430
800.2262	239.1339	48063.9	47389.95
800.3687	241.3582	48492.75	47833.45
800.5111	243.582	48469.85	47778.15
800.6536	245.8053	48632.55	47956.45
800.7961	248.0281	48611.45	47938.05
800.9387	250.2503	48830.1	48152.35
801.0812	252.472	48652.6	47975.75
801.2238	254.6932	48706.6	48032.2
801.3664	256.9139	48640.65	47960.15
801.509	259.134	49389.3	48708.95
801.6516	261.3536	48392.3	47714
801.7942	263.5727	49158.75	48475.95
801.9369	265.7912	48860.85	48176.8
802.0795	268.0092	49007.05	48327.95
802.2222	270.2267	49021.95	48337.7
802.3649	272.4436	48902.55	48213.9
802.5076	274.6601	49153.9	48456.95
802.6504	276.8759	49221.6	48530.55
802.7931	279.0913	49334.5	48641.4
802.9359	281.3061	49069.95	48377.1
803.0787	283.5204	49355.55	48660.15
803.2215	285.7341	49282.9	48585.8
803.3643	287.9473	49693.75	48985.35
803.5071	290.16	49330.25	48628.7
803.6499	292.3721	49878.8	49182.55
803.7928	294.5837	49065.6	48368.6
803.9357	296.7947	48962.4	48263.9
804.0786	299.0052	49321.45	48623.7
804.2215	301.2152	49096.15	48395.6
804.3644	303.4246	49597.55	48897.65
804.5074	305.6334	49494.05	48794.7
804.6503	307.8418	49026.05	48321.2
804.7933	310.0495	49310.45	48606.4
804.9363	312.2568	49155.75	48449.5
805.0793	314.4635	49055.9	48348.25
805.2223	316.6696	49116.25	48404.15
805.3653	318.8752	49326.3	48606.8
805.5084	321.0802	48533.95	47819.9
805.6514	323.2847	48800.65	48085.35
805.7945	325.4887	48889.4	48175.35
805.9376	327.692	48679.35	47963.15
806.0807	329.8949	48953.05	48234.35
806.2238	332.0972	48875.35	48155.7
806.367	334.2989	48999.6	48275.55
806.5101	336.5001	49219.25	48496
806.6533	338.7007	48815.3	48091.4
806.7965	340.9008	49052.05	48325.05
806.9397	343.1003	48997.05	48267
807.0829	345.2992	49184.65	48454.45
807.2261	347.4976	48897	48169.05
807.3693	349.6955	48988.3	48255.2
807.5126	351.8927	48899.2	48162.45
807.6559	354.0895	49039.35	48295.1
807.7991	356.2856	48997	48258.7
807.9424	358.4812	49149.55	48410.7
808.0857	360.6763	48927.8	48186.6
808.2291	362.8707	48890.95	48148.5
808.3724	365.0646	48915.85	48170.15
808.5158	367.258	48903.1	48156.2
808.6591	369.4508	48705.9	47956.85
808.8025	371.643	48905.1	48154.95
808.9459	373.8346	48830.95	48077.85
809.0893	376.0257	48737.85	47983.55
809.2327	378.2162	48606.25	47852.4
809.3762	380.4062	48523.4	47770.7
809.5196	382.5956	48490.7	47741.75
809.6631	384.7844	48560.75	47814.5
809.8066	386.9726	48558.7	47813.2
809.9501	389.1603	48532.3	47789.15
810.0936	391.3474	48287.2	47494.55
810.2371	393.5339	48592.8	47846.5
810.3806	395.7199	48121.15	47373
810.5241	397.9052	48121.6	47375.8
810.6677	400.09	48176.15	47427.6
810.8113	402.2743	48204.95	47454.4
810.9548	404.4579	48263.1	47512.7
811.0984	406.641	48162.35	47408.15
811.2421	408.8235	48322.15	47565.4
811.3857	411.0054	48272.85	47514.65
811.5293	413.1868	48351.5	47591.8
811.673	415.3675	48307.7	47541.95
811.8166	417.5477	48313.9	47547.85
811.9603	419.7273	48267.05	47499.4
812.104	421.9064	48079.05	47305.4
812.2477	424.0848	48022.25	47253.8
812.3914	426.2627	47953.05	47183.8
812.5351	428.4399	47758.25	46986.05
812.6788	430.6166	47621.5	46846.6
812.8226	432.7928	47626.25	46848.6
812.9663	434.9683	47376.8	46599.15
813.1101	437.1432	47419.2	46642.2
813.2539	439.3176	47323.5	46548.9
813.3977	441.4914	47070.05	46295.6
813.5415	443.6645	47064.8	46286.7
813.6853	445.8371	46916	46137.45
813.8291	448.0091	46720.9	45943.4
813.973	450.1806	46647.7	45867.35
814.1168	452.3514	46478.7	45695.45
814.2607	454.5216	46523.05	45736.25
814.4046	456.6913	46275.1	45492.6
814.5485	458.8603	46333.35	45552.1
814.6924	461.0288	46354.9	45574.8
814.8363	463.1967	46252.75	45472.4
814.9802	465.3639	46413.75	45630.6
815.1241	467.5306	46129.05	45343.85
815.2681	469.6967	46109.85	45325.5
815.412	471.8622	45950.1	45165.6
815.556	474.0271	45940.95	45155.3
815.7	476.1914	45894.5	45107.65
815.844	478.3551	45911.9	45126.65
815.988	480.5182	45976.2	45189.55
816.132	482.6807	45958.75	45170.05
816.276	484.8426	45968.2	45183.3
816.4201	487.0039	46106.6	45319.65
816.5641	489.1647	46086.35	45298.65
816.7082	491.3248	46039.9	45250.55
816.8522	493.4843	46033.3	45243.35
816.9963	495.6432	46068.75	45278.45
817.1404	497.8015	45867.7	45072.4
817.2845	499.9592	45942.7	45151.35
817.4286	502.1163	45847.9	45055
817.5727	504.2728	45685.45	44888.55
817.7168	506.4287	45850.85	45057.7
817.861	508.5839	45650.4	44855.5
818.0051	510.7386	45696.65	44901.3
818.1493	512.8927	45703.4	44898.7
818.2935	515.0461	45620.7	44821.6
818.4377	517.199	45607.85	44809.35
818.5818	519.3512	45614.1	44815.4
818.726	521.5029	45588.2	44783.3
818.8703	523.6539	45605.75	44806.1
819.0145	525.8043	45486.55	44685.35
819.1587	527.9541	45511.35	44705.15
819.303	530.1033	45402.65	44600.85
819.4472	532.2519	45265.2	44462.5
819.5915	534.3999	45262.7	44457.45
819.7357	536.5472	45257.9	44454.55
819.88	538.694	45163.45	44360.65
820.0243	540.8401	45269.75	44464.7
820.1686	542.9856	45303.1	44497.4
820.3129	545.1305	45204.05	44395.5
820.4572	547.2748	45275.55	44466.25
820.6016	549.4185	45208.75	44398.55
820.7459	551.5615	45118.05	44310.3
820.8902	553.704	45095.7	44288.25
821.0346	555.8458	44977.55	44170.35
821.1789	557.987	44975.3	44168.95
821.3233	560.1276	44964.3	44153.7
821.4677	562.2675	45046.05	44239.7
821.6121	564.4069	45007.75	44199.05
821.7565	566.5456	44935.1	44127.35
821.9009	568.6837	44870.6	44058.8
822.0453	570.8212	44748.05	43938.9
822.1897	572.958	44570.7	43757.1
822.3342	575.0942	44433.45	43621.65
822.4786	577.2299	44383.7	43570.65
822.6231	579.3648	44217.75	43405.1
822.7675	581.4992	44045.25	43233.4
822.912	583.6329	43901.55	43089.85
823.0565	585.766	43854.65	43040.95
823.201	587.8985	43793.05	42978.25
823.3454	590.0304	43631.45	42804.95
823.4899	592.1616	43609.7	42792.05
823.6345	594.2922	43608.9	42791
823.779	596.4222	43418.9	42601.05
823.9235	598.5515	43352.6	42533.4
824.068	600.6802	43230.6	42410.85
824.2126	602.8083	43012.5	42193
824.3571	604.9358	43008.5	42188
824.5017	607.0626	42918.35	42096.2
824.6462	609.1888	42852.25	42031.75
824.7908	611.3144	42780.75	41959.85
824.9354	613.4393	42689.5	41868.85
825.08	615.5636	42709.25	41885.55
825.2246	617.6873	42741.3	41920.2
825.3692	619.8103	42748.4	41922.45
825.5138	621.9327	42635.7	41809.7
825.6584	624.0544	42637	41814.05
825.803	626.1756	42618.55	41793.8
825.9477	628.2961	42492.9	41666.2
826.0923	630.4159	42416.55	41591.55
826.237	632.5351	42371.3	41545.55
826.3816	634.6537	42303.2	41475.35
826.5263	636.7716	42260.55	41432.75
826.6709	638.8889	42256.5	41429.05
826.8156	641.0056	42296.5	41468.8
826.9603	643.1216	42196.05	41366.15
827.105	645.237	42256.25	41425.6
827.2497	647.3518	42157	41329.8
827.3944	649.4659	42123.2	41295.2
827.5391	651.5793	41991.7	41164
827.6838	653.6922	41915.05	41084.7
827.8285	655.8043	41865.05	41036.45
827.9733	657.9159	41858.3	41027.6
828.118	660.0268	41701.2	40869.25
828.2627	662.137	41647.4	40815.05
828.4075	664.2466	41655.1	40820.75
828.5522	666.3556	41596.25	40764
828.697	668.4639	41419.4	40584
828.8418	670.5716	41522.85	40687.75
828.9865	672.6786	41454.2	40618.65
829.1313	674.785	41242.9	40407.4
829.2761	676.8907	41188.4	40352.05
829.4209	678.9958	41191.1	40356.55
829.5657	681.1002	41038.3	40199.45
829.7105	683.204	41014.05	40174.35
829.8553	685.3072	40958	40122.75
830.0001	687.4097	40884.05	40049.9
830.1449	689.5115	40904.05	40064.45
830.2898	691.6127	40792.5	39955.4
830.4346	693.7132	40732.25	39894.45
830.5794	695.8131	40787.1	39928.3
830.7243	697.9123	40776.15	39935.95
830.8691	700.0109	40724.45	39884.6
831.014	702.1089	40666.45	39827.35
831.1588	704.2061	40588.5	39748.85
831.3037	706.3028	40589.65	39748.25
831.4486	708.3987	40561.75	39721.55
831.5935	710.4941	40509.3	39670.45
831.7383	712.5887	40469.95	39626.55
831.8832	714.6827	40423.8	39577.6
832.0281	716.7761	40328.6	39488.9
832.173	718.8688	40280.1	39435.95
832.3179	720.9608	40237.7	39391.5
832.4628	723.0522	40282.05	39434.45
832.6077	725.1429	40130.5	39285.15
832.7527	727.233	40113.45	39268.65
832.8976	729.3224	40124.35	39278.2
833.0425	731.4112	40061.9	39215.35
833.1874	733.4993	39974.05	39128.1
833.3324	735.5867	39842.2	38995
833.4773	737.6735	39793.55	38946.4
833.6222	739.7596	39685.75	38838.35
833.7672	741.845	39589.85	38742.45
833.9122	743.9298	39462.3	38613.6
834.0571	746.014	39486.2	38638.35
834.2021	748.0974	39387.4	38539.3
834.347	750.1802	39268.95	38419.25
834.492	752.2624	39161.95	38315
834.637	754.3439	38995.4	38146.5
834.782	756.4247	38900.5	38044.45
834.9269	758.5048	38754	37905.95
835.0719	760.5843	38732.8	37881.4
835.2169	762.6631	38598.4	37748.4
835.3619	764.7413	38525.05	37676.35
835.5069	766.8188	38560.35	37708.1
835.6519	768.8956	38477.05	37626.7
835.7969	770.9718	38521.55	37669.9
835.9419	773.0473	38319.3	37471.35
836.0869	775.1221	38299.55	37451.35
836.232	777.1962	38119.7	37269.45
836.377	779.2697	38114.95	37263.55
836.522	781.3426	38083.8	37220.7
836.667	783.4147	38018.3	37166
836.8121	785.4862	38021.75	37173.2
836.9571	787.557	37876.45	37021.85
837.1021	789.6271	37791.95	36941.45
837.2472	791.6966	37607.35	36755.1
837.3922	793.7654	37370.35	36516.7
837.5373	795.8335	37363.35	36511.3
837.6823	797.901	37270.15	36417.55
837.8274	799.9678	37210.3	36356.65
837.9724	802.0339	37113.25	36262.65
838.1175	804.0993	37120.1	36255.15
838.2626	806.1641	37004.9	36152.5
838.4076	808.2282	36895.95	36041.3
838.5527	810.2916	36894.3	36037.8
838.6978	812.3544	36831.2	35978.65
838.8428	814.4164	36699.35	35845.05
838.9879	816.4778	36732	35877.15
839.133	818.5385	36599.5	35745.2
839.2781	820.5986	36606.7	35752.9
839.4232	822.658	36631.35	35775.35
839.5682	824.7166	36548.95	35693.25
839.7133	826.7747	36618.85	35761.35
839.8584	828.832	36618.4	35763.9
840.0035	830.8886	36401.15	35544
840.1486	832.9446	36450.05	35591.75
840.2937	834.9999	36295.95	35442.1
840.4388	837.0545	36235.65	35377.4
840.5839	839.1085	36171.45	35315.45
840.729	841.1618	36038.7	35178.5
840.8741	843.2143	35898.7	35041.9
841.0192	845.2662	35749.7	34891.5
841.1643	847.3175	35751.2	34894.05
841.3095	849.368	35646.65	34786.85
841.4546	851.4179	35635.95	34776.95
841.5997	853.467	35439.85	34580.55
841.7448	855.5155	35493.15	34633.5
841.8899	857.5633	35426.45	34567.45
842.0351	859.6105	35318.4	34459.4
842.1802	861.6569	35259.7	34400.9
842.3253	863.7027	35207.55	34345.8
842.4704	865.7478	35176.75	34316.4
842.6156	867.7922	35069.85	34209.1
842.7607	869.8359	34989.9	34128.5
842.9058	871.8789	34931.8	34070.55
843.0509	873.9212	34892.8	34002.55
843.1961	875.9629	34776.55	33915.7
843.3412	878.0039	34793.7	33930.6
843.4863	880.0441	34728.2	33867.1
843.6315	882.0837	34720.75	33858.15
843.7766	884.1226	34722.3	33860
843.9218	886.1609	34700.15	33842.15
844.0669	888.1984	34686.5	33824.3
844.212	890.2352	34726.05	33864.5
844.3572	892.2714	34627.7	33763.95
844.5023	894.3069	34585.85	33723.55
844.6475	896.3416	34439.9	33576.45
844.7926	898.3757	34353.2	33491.45
844.9377	900.4091	34286.55	33424.05
845.0829	902.4418	34236.1	33368.2
845.228	904.4739	34116.25	33249.55
845.3732	906.5052	34115.65	33251.25
845.5183	908.5358	34074.7	33212.5
845.6635	910.5658	33980.2	33114.05
845.8086	912.595	33878.7	33015.05
845.9538	914.6236	33777.7	32914
846.0989	916.6515	33691.4	32828.45
846.2441	918.6786	33584.9	32719.4
846.3892	920.7051	33577.95	32711.15
846.5344	922.7309	33618.4	32753.25
846.6795	924.756	33406.25	32539.45
846.8246	926.7804	33418.95	32553.5
846.9698	928.8041	33179.7	32312.55
847.1149	930.8272	33203.5	32337.6
847.2601	932.8495	33056.1	32187.85
847.4052	934.8711	33075.9	32209.4
847.5504	936.892	32936.8	32070.3
847.6955	938.9123	32815.45	31948.65
847.8407	940.9318	32741.2	31875.65
847.9858	942.9506	32645.55	31777.1
848.131	944.9688	32522.6	31655.9
848.2761	946.9862	32431.45	31565.4
848.4213	949.003	32294.6	31427.55
848.5664	951.019	32211.7	31345.1
848.7115	953.0344	32081.15	31213.65
848.8567	955.0491	32032.95	31163.45
849.0018	957.063	31991.05	31122.5
849.147	959.0763	32073.7	31207.1
849.2921	961.0888	31912.55	31044.55
849.4373	963.1007	31874.35	31005.7
849.5824	965.1119	31875.25	31008.85
849.7275	967.1223	31800.15	30934.25
849.8727	969.1321	31720.25	30853.45
850.0178	971.1412	31694.35	30826.35
850.1629	973.1495	31525.65	30655.2
850.3081	975.1572	31570.85	30657.65
850.4532	977.1641	31496.1	30629.65
850.5983	979.1704	31395.95	30526.95
850.7435	981.1759	31283.7	30411.25
850.8886	983.1808	31292.4	30422.3
851.0337	985.1849	31185.85	30312.35
851.1788	987.1884	31137.35	30268.3
851.324	989.1911	31023.2	30151
851.4691	991.1932	30974.4	30104.4
851.6142	993.1945	30819.7	29950.85
851.7593	995.1951	30644.35	29774.35
851.9045	997.1951	30625.9	29748
852.0496	999.1943	30531.25	29662.05
852.1947	1001.1928	30410.9	29539.9
852.3398	1003.1906	30260.85	29390.3
852.4849	1005.1877	30273.55	29401.7
852.63	1007.1841	30158.8	29289.55
852.7751	1009.1798	30070.5	29200.15
852.9202	1011.1748	29924	29052.25
853.0653	1013.1691	29866.65	28994.2
853.2104	1015.1627	29717.35	28847.45
853.3555	1017.1556	29478.45	28607.95
853.5006	1019.1477	29436.5	28564.5
853.6457	1021.1392	29245	28374.7
853.7908	1023.1299	29160.7	28288.7
853.9359	1025.12	29044.65	28172.9
854.081	1027.1093	28886.7	28020.35
854.2261	1029.0979	28826.35	27958.5
854.3712	1031.0859	28728.85	27859.2
854.5163	1033.0731	28717.35	27846.8
854.6613	1035.0596	28559.05	27689.45
854.8064	1037.0454	28475.75	27603.35
854.9515	1039.0304	28378.85	27505.9
855.0965	1041.0148	28205.4	27333.15
855.2416	1042.9985	28099.1	27226.05
855.3867	1044.9814	28115	27244.3
855.5317	1046.9636	27953.35	27080.45
855.6768	1048.9452	27858.45	26988.2
855.8219	1050.926	27900.75	27030.3
855.9669	1052.9061	27780.05	26907.45
856.112	1054.8855	27695.65	26822.7
856.257	1056.8642	27623.7	26752.8
856.4021	1058.8421	27617.7	26740.85
856.5471	1060.8194	27542.95	26669.65
856.6921	1062.7959	27464.45	26590.35
856.8372	1064.7717	27427.7	26555
856.9822	1066.7469	27361.7	26487.15
857.1272	1068.7213	27276.7	26401.2
857.2723	1070.695	27241.8	26368.7
857.4173	1072.6679	27140.65	26266.9
857.5623	1074.6402	27116.85	26242.9
857.7073	1076.6117	27104.5	26224.1
857.8523	1078.5826	27065.3	26191.4
857.9973	1080.5527	26928.9	26052.7
858.1423	1082.5221	26810.7	25937.05
858.2873	1084.4908	26776.1	25904.05
858.4323	1086.4587	26677.95	25802.65
858.5773	1088.426	26631.05	25754.5
858.7223	1090.3925	26558.3	25679.8
858.8673	1092.3584	26506.05	25630.85
859.0123	1094.3235	26336.9	25463.1
859.1573	1096.2879	26301.2	25426.65
859.3022	1098.2515	26301.15	25423.8
859.4472	1100.2145	26296.05	25421.55
859.5922	1102.1767	26189.1	25311.95
859.7371	1104.1382	26182.1	25307.5
859.8821	1106.099	26142.6	25266.35
860.027	1108.0591	26057.95	25182.9
860.172	1110.0185	26070.1	25194.65
860.3169	1111.9771	26024.5	25149.75
860.4619	1113.9351	25953.25	25076.05
860.6068	1115.8923	25931.9	25057.45
860.7517	1117.8488	25937.2	25060.7
860.8967	1119.8045	25741.45	24865.8
861.0416	1121.7596	25661.8	24785.2
861.1865	1123.7139	25509.9	24633.55
861.3314	1125.6675	25395	24519.6
861.4763	1127.6204	25426.7	24551.3
861.6212	1129.5726	25326.95	24449.8
861.7661	1131.524	25312.1	24437.8
861.911	1133.4748	25278.7	24402.75
862.0559	1135.4248	25119.2	24242.35
862.2008	1137.3741	25017.3	24140
862.3457	1139.3226	24953.5	24075.65
862.4905	1141.2705	24977.65	24102.55
862.6354	1143.2176	24832.05	23950
862.7803	1145.164	24805.6	23928.9
862.9251	1147.1097	24728.65	23850.55
863.07	1149.0546	24698.45	23821.9
863.2148	1150.9989	24691.5	23815.55
863.3597	1152.9424	24634.35	23756.85
863.5045	1154.8852	24554.3	23675.55
863.6493	1156.8272	24512.2	23635.6
863.7942	1158.7686	24499.9	23615.55
863.939	1160.7092	24421.85	23546.3
864.0838	1162.6491	24334.95	23453.4
864.2286	1164.5883	24306.05	23431.25
864.3734	1166.5267	24261.7	23381.4
864.5182	1168.4644	24272	23394.95
864.663	1170.4014	24299.65	23417.1
864.8078	1172.3377	24299.25	23422
864.9526	1174.2732	24235.2	23358.75
865.0974	1176.2081	24274.2	23399.15
865.2421	1178.1421	24322.4	23440.8
865.3869	1180.0755	24362.4	23487.55
865.5317	1182.0082	24317.6	23440.25
865.6764	1183.9401	24294.9	23416.6
865.8212	1185.8713	24185.85	23308.6
865.9659	1187.8017	24059.1	23182.15
866.1106	1189.7315	23918.4	23042.2
866.2554	1191.6605	23711.7	22834.7
866.4001	1193.5888	23585.15	22707.65
866.5448	1195.5163	23527.8	22652.15
866.6895	1197.4432	23451.1	22571.5
866.8342	1199.3693	23354.5	22478.5
866.9789	1201.2947	23229.2	22349.1
867.1236	1203.2193	23157.75	22282
867.2683	1205.1432	23149.85	22269.8
867.413	1207.0664	23096.85	22218.65
867.5576	1208.9889	22989.25	22107.9
867.7023	1210.9106	22922.4	22045.9
867.847	1212.8316	22806.65	21931.75
867.9916	1214.7519	22770.25	21882.9
868.1363	1216.6715	22724.65	21847.5
868.2809	1218.5903	22720.35	21841.1
868.4255	1220.5084	22630.1	21750.75
868.5701	1222.4257	22635.3	21755.9
868.7148	1224.3424	22501.15	21621.2
868.8594	1226.2583	22472.9	21590.55
869.004	1228.1735	22448.6	21568.3
869.1486	1230.0879	22344.6	21463.95
869.2932	1232.0016	22303.5	21425.75
869.4377	1233.9146	22289.75	21410.75
869.5823	1235.8269	22252.5	21374.6
869.7269	1237.7384	22268.7	21389.9
869.8715	1239.6492	22149.6	21271.1
870.016	1241.5592	22107.95	21227.85
870.1606	1243.4686	22071.4	21193.4
870.3051	1245.3772	22108.75	21228.95
870.4496	1247.285	22060.8	21178.65
870.5941	1249.1922	22061.9	21183.35
870.7387	1251.0986	22108.8	21231.45
870.8832	1253.0042	22045.4	21166.25
871.0277	1254.9092	22096.35	21217.65
871.1722	1256.8134	22100.95	21223.7
871.3167	1258.7169	22194.9	21315.7
871.4611	1260.6196	22151.7	21272.75
871.6056	1262.5216	22204.85	21325.55
871.7501	1264.4229	22138.85	21259.35
871.8945	1266.3234	22081.5	21203.15
872.039	1268.2232	22017.95	21136.5
872.1834	1270.1223	21922.45	21040.4
872.3278	1272.0207	21854.65	20974.25
872.4723	1273.9183	21815.3	20929.4
872.6167	1275.8151	21774.95	20896.5
872.7611	1277.7113	21769.3	20889.45
872.9055	1279.6067	21738.1	20857.95
873.0499	1281.5014	21803.4	20921.25
873.1943	1283.3953	21915.15	21032.8
873.3386	1285.2885	22061.55	21181.85
873.483	1287.181	22161.5	21277.85
873.6274	1289.0727	22239.7	21359.5
873.7717	1290.9637	22144.55	21263.65
873.9161	1292.854	22041	21161.65
874.0604	1294.7435	21885.4	21005.3
874.2047	1296.6323	21784.65	20904.9
874.349	1298.5204	21679.25	20793.7
874.4933	1300.4077	21551.6	20671.3
874.6376	1302.2943	21490.35	20609.5
874.7819	1304.1802	21450.05	20569.75
874.9262	1306.0653	21348.35	20464.5
875.0705	1307.9497	21285.8	20403.3
875.2147	1309.8333	21268.75	20388.85
875.359	1311.7162	21266.9	20386.3
875.5032	1313.5984	21238.15	20354.8
875.6475	1315.4798	21138.55	20245.3
875.7917	1317.3605	21096.4	20211.95
875.9359	1319.2405	21105.8	20222.65
876.0801	1321.1197	21097.7	20214.2
876.2243	1322.9982	21011.65	20122.95
876.3685	1324.876	20987.75	20106.7
876.5127	1326.753	20832.45	19950
876.6569	1328.6293	20802.95	19921.7
876.801	1330.5048	20717.45	19832
876.9452	1332.3796	20576.1	19698.55
877.0893	1334.2537	20527	19619
877.2335	1336.127	20443.9	19563.15
877.3776	1337.9996	20396.3	19514.05
877.5217	1339.8714	20344.2	19464
877.6658	1341.7426	20285.7	19359.8
877.8099	1343.6129	20210.15	19327.4
877.954	1345.4826	20139.45	19257.25
878.0981	1347.3515	20165.9	19282.7
878.2422	1349.2196	20113.1	19231.3
878.3862	1351.087	20118.05	19237.85
878.5303	1352.9537	20085.65	19204.65
878.6743	1354.8197	20038.05	19157.05
878.8184	1356.6849	20047.95	19165.8
878.9624	1358.5493	19992.35	19110.95
879.1064	1360.4131	19974.9	19093.95
879.2504	1362.276	19932.4	19052.3
879.3944	1364.1383	19905.25	19021.8
879.5384	1365.9998	19901.55	19013.25
879.6823	1367.8606	19873.8	18991.45
879.8263	1369.7206	19786.85	18903.5
879.9702	1371.5799	19750.8	18865.7
880.1142	1373.4384	19675	18793.65
880.2581	1375.2962	19679.1	18796.1
880.402	1377.1533	19533.95	18655.15
880.5459	1379.0096	19435.45	18553.8
880.6898	1380.8652	19383.15	18504.4
880.8337	1382.7201	19294.75	18410.95
880.9776	1384.5742	19195.35	18312.85
881.1215	1386.4275	19094.5	18211
881.2653	1388.2802	19028.3	18146.5
881.4092	1390.132	18961.85	18080.1
881.553	1391.9832	18954.1	18070.8
881.6968	1393.8336	18798.25	17917.35
881.8406	1395.6832	18762.45	17877.15
881.9844	1397.5322	18706.25	17823.05
882.1282	1399.3803	18644.8	17756
882.272	1401.2278	18569.85	17686.9
882.4158	1403.0745	18512.05	17629.55
882.5595	1404.9204	18425.75	17545.85
882.7033	1406.7656	18357.8	17476.95
882.847	1408.6101	18323.85	17441.65
882.9908	1410.4538	18246.65	17365
883.1345	1412.2968	18189.25	17308.15
883.2782	1414.139	18101	17219.8
883.4219	1415.9805	18105.85	17224.4
883.5656	1417.8213	18032.7	17129.3
883.7092	1419.6613	17959.45	17077
883.8529	1421.5006	17983.55	17102.1
883.9965	1423.3391	17916.75	17033.45
884.1402	1425.1769	17911.55	17028.15
884.2838	1427.0139	17942.6	17061.3
884.4274	1428.8502	17978.6	17096.3
884.571	1430.6858	17968.2	17084.5
884.7146	1432.5206	17927.9	17044.5
884.8582	1434.3547	17880.3	16995.5
885.0018	1436.188	17868.5	16987.35
885.1453	1438.0206	17827.4	16944.4
885.2889	1439.8524	17768.6	16884.85
885.4324	1441.6835	17783.9	16897.8
885.5759	1443.5139	17725.3	16840.65
885.7194	1445.3435	17655.9	16774.45
885.8629	1447.1724	17662.25	16778.65
886.0064	1449.0005	17645.05	16763.5
886.1499	1450.8279	17607.85	16723.35
886.2933	1452.6545	17567.5	16686.7
886.4368	1454.4804	17566.65	16684.45
886.5802	1456.3056	17516.55	16626.25
886.7237	1458.13	17450.95	16570.15
886.8671	1459.9536	17421.65	16538.7
887.0105	1461.7766	17380	16496.9
887.1539	1463.5987	17280.7	16397.85
887.2972	1465.4202	17241.8	16359.1
887.4406	1467.2409	17166.45	16282
887.584	1469.0608	17126.7	16245.6
887.7273	1470.88	17041.3	16156.75
887.8706	1472.6984	16971	16088.5
888.0139	1474.5161	16942.65	16057.5
888.1572	1476.3331	16881.25	15997.75
888.3005	1478.1493	16850.25	15965.8
888.4438	1479.9648	16842.95	15960
888.5871	1481.7795	16784.5	15902.6
888.7303	1483.5935	16772.35	15887.8
888.8736	1485.4067	16747.6	15865.6
889.0168	1487.2192	16721.25	15838.2
889.16	1489.031	16701.95	15816.15
889.3032	1490.842	16667.5	15784.65
889.4464	1492.6522	16693.75	15809.15
889.5896	1494.4618	16618.9	15734.05
889.7327	1496.2705	16582.6	15699.95
889.8759	1498.0785	16531.6	15646.15
890.019	1499.8858	16508.15	15624
890.1622	1501.6924	16453.25	15569.3
890.3053	1503.4981	16402.7	15521.35
890.4484	1505.3032	16402.3	15518.75
890.5914	1507.1075	16323.05	15440.2
890.7345	1508.911	16289.35	15405.7
890.8776	1510.7138	16252.85	15368.4
891.0206	1512.5159	16190.7	15308.65
891.1637	1514.3172	16160.95	15277.6
891.3067	1516.1178	16068.6	15187.4
891.4497	1517.9176	16039.45	15154.65
891.5927	1519.7166	15980.5	15098.15
891.7357	1521.515	15940.85	15052.6
891.8786	1523.3126	15889.4	15008.15
892.0216	1525.1094	15829.1	14945.45
892.1645	1526.9055	15791.05	14910.35
892.3074	1528.7008	15757.85	14872.6
892.4503	1530.4954	15667.1	14777.55
892.5932	1532.2893	15616.4	14735.35
892.7361	1534.0824	15527.45	14640.75
892.879	1535.8747	15516.25	14635.4
893.0218	1537.6663	15430.1	14546.1
893.1647	1539.4572	15395.25	14511.1
893.3075	1541.2473	15342.9	14460.45
893.4503	1543.0367	15318.6	14436.4
893.5931	1544.8253	15249.5	14360.7
893.7359	1546.6132	15217.55	14333
893.8787	1548.4003	15151.5	14257.35
894.0214	1550.1867	15154.05	14263.7
894.1642	1551.9723	15101.05	14213.9
894.3069	1553.7572	15058.35	14173.05
894.4496	1555.5414	15039.3	14156.55
894.5923	1557.3247	14980.8	14098.3
894.735	1559.1074	14972.55	14092.9
894.8777	1560.8893	14945.4	14063.85
895.0204	1562.6705	14921.8	14040.7
895.163	1564.4509	14894.1	14011.4
895.3056	1566.2305	14851.7	13971.2
895.4482	1568.0094	14874	13992.05
895.5908	1569.7876	14854.75	13972
895.7334	1571.565	14790.9	13906.8
895.876	1573.3417	14789.35	13905.25
896.0186	1575.1176	14760.35	13878.9
896.1611	1576.8928	14676.75	13793.4
896.3036	1578.6672	14609.75	13728.75
896.4461	1580.4409	14593.45	13711.5
896.5886	1582.2138	14581.95	13698.4
896.7311	1583.986	14539.7	13656.1
896.8736	1585.7575	14566.35	13685.75
897.0161	1587.5282	14575.7	13695.5
897.1585	1589.2981	14531.95	13651.4
897.3009	1591.0673	14462.1	13578.9
897.4433	1592.8358	14471.7	13591.4
897.5857	1594.6035	14426.25	13541.6
897.7281	1596.3704	14346.4	13464.15
897.8705	1598.1366	14267.9	13385.9
898.0128	1599.9021	14246.7	13365.2
898.1551	1601.6668	14152.65	13268.45
898.2975	1603.4308	14037.05	13153.55
898.4398	1605.194	14029.05	13142.75
898.5821	1606.9564	14012.3	13130.5
898.7243	1608.7182	14010.65	13124.65
898.8666	1610.4791	14009.25	13128.3
899.0088	1612.2394	14035	13154.25
899.1511	1613.9988	14095.2	13213.5
899.2933	1615.7576	14134.85	13252.6
899.4355	1617.5156	14157.7	13268.8
899.5776	1619.2728	14124.25	13242.9
899.7198	1621.0293	14013.15	13129.6
899.862	1622.785	13871.5	12989.15
900.0041	1624.54	13745.55	12859.45
900.1462	1626.2942	13583.85	12701.25
900.2883	1628.0477	13436.9	12551.7
900.4304	1629.8005	13337.35	12452.75
900.5725	1631.5525	13251.35	12370.55
900.7145	1633.3037	13187.85	12304.3
900.8566	1635.0542	13109.9	12228.65
900.9986	1636.804	13015.45	12132.75
901.1406	1638.553	13020.8	12053.35
901.2826	1640.3013	12927.75	12048.6
901.4245	1642.0488	12827.2	11944.15
901.5665	1643.7955	12793.2	11912.9
901.7085	1645.5416	12739.15	11856.45
901.8504	1647.2868	12698.9	11815.95
901.9923	1649.0313	12651.5	11769.15
902.1342	1650.7751	12650.15	11765.3
902.2761	1652.5181	12600	11718.65
902.4179	1654.2604	12545.6	11661.1
902.5598	1656.0019	12478.7	11595.75
902.7016	1657.7427	12474.4	11593.85
902.8434	1659.4828	12464.15	11581.75
902.9852	1661.222	12430.55	11545.3
903.127	1662.9606	12398.8	11518.3
903.2687	1664.6984	12398.1	11518
903.4105	1666.4354	12439.5	11555.9
903.5522	1668.1717	12357.75	11475.6
903.6939	1669.9072	12287.15	11403.95
903.8356	1671.642	12187.75	11301.65
903.9773	1673.3761	12169.7	11287.4
904.119	1675.1094	12090.5	11208.35
904.2606	1676.8419	12016	11133.4
904.4022	1678.5737	11931.45	11050
904.5439	1680.3048	11876.4	10993.35
904.6855	1682.0351	11829.1	10947.35
904.827	1683.7646	11757.7	10870.2
904.9686	1685.4934	11729.55	10848.45
905.1101	1687.2215	11674.75	10792
905.2517	1688.9488	11613.25	10733.25
905.3932	1690.6754	11547.1	10663.85
905.5347	1692.4012	11549.6	10667.6
905.6761	1694.1263	11485.3	10602.6
905.8176	1695.8506	11462.7	10581.1
905.9591	1697.5742	11383.45	10502.95
906.1005	1699.297	11341.25	10459.95
906.2419	1701.0191	11302	10420.6
906.3833	1702.7404	11262.45	10382.45
906.5246	1704.461	11220.05	10337.9
906.666	1706.1808	11160.55	10276.75
906.8073	1707.8999	11120.1	10236.4
906.9487	1709.6182	11082.1	10198.45
907.09	1711.3358	11068.65	10184.25
907.2313	1713.0527	11051.1	10172.95
907.3725	1714.7688	10965.6	10078.65
907.5138	1716.4841	10945	10061.35
907.655	1718.1987	10948.95	10063.7
907.7962	1719.9126	10895.35	10015.75
907.9374	1721.6257	10858.75	9972.55
908.0786	1723.338	10862.4	9981
908.2198	1725.0496	10775.8	9892.9
908.3609	1726.7605	10791.9	9909.9
908.502	1728.4706	10756.8	9872.95
908.6431	1730.18	10676.35	9792.05
908.7842	1731.8886	10666	9783.85
908.9253	1733.5964	10660.75	9759
909.0664	1735.3036	10646.3	9761.05
909.2074	1737.0099	10628.7	9747.7
909.3484	1738.7156	10607.65	9725.5
909.4894	1740.4204	10540.55	9655.55
909.6304	1742.1246	10546.85	9662.75
909.7714	1743.8279	10524.2	9642.6
909.9123	1745.5306	10520.85	9639.05
910.0532	1747.2325	10456.85	9575.6
910.1941	1748.9336	10437.7	9556.7
910.335	1750.634	10397.6	9513.45
910.4759	1752.3336	10406.05	9524.55
910.6168	1754.0325	10386.45	9505.3
910.7576	1755.7307	10374.3	9492.9
910.8984	1757.4281	10371.45	9487.5
911.0392	1759.1247	10350.15	9461.15
911.18	1760.8206	10311.95	9424.95
911.3208	1762.5158	10334.05	9447.8
911.4615	1764.2102	10285.75	9404.35
911.6022	1765.9039	10232.85	9350.75
911.7429	1767.5968	10227.7	9345
911.8836	1769.289	10205.05	9324.35
912.0243	1770.9804	10159.1	9275.25
912.1649	1772.6711	10171.9	9289.2
912.3056	1774.361	10181.25	9298.95
912.4462	1776.0502	10135.65	9251.95
912.5868	1777.7386	10108.35	9222.85
912.7274	1779.4263	10064.65	9183.15
912.8679	1781.1132	10062	9179.45
913.0084	1782.7994	10015.05	9133
913.149	1784.4849	10013.4	9134.3
913.2895	1786.1696	9988.8	9088.7
913.4299	1787.8535	9945.7	9064.15
913.5704	1789.5367	9916.45	9034.15
913.7108	1791.2192	9912.6	9030.35
913.8513	1792.9009	9856.35	8955.95
913.9917	1794.5818	9849.2	8964.4
914.132	1796.2621	9832.95	8952.25
914.2724	1797.9415	9811.3	8930.5
914.4128	1799.6202	9779.25	8897.9
914.5531	1801.2982	9766.35	8882.3
914.6934	1802.9755	9736.95	8852.05
914.8337	1804.6519	9715.4	8831.65
914.9739	1806.3277	9677.9	8795.75
915.1142	1808.0027	9630.9	8749.65
915.2544	1809.6769	9631.45	8747.35
915.3946	1811.3504	9614.15	8730.05
915.5348	1813.0231	9573.15	8690.8
915.675	1814.6951	9540.65	8660.15
915.8151	1816.3664	9555.55	8673.25
915.9553	1818.0369	9556.8	8673.55
916.0954	1819.7067	9502.4	8620
916.2355	1821.3757	9481.6	8598.35
916.3755	1823.044	9479.05	8596
916.5156	1824.7115	9439	8556.85
916.6556	1826.3783	9406.65	8525.3
916.7956	1828.0443	9380.4	8500.2
916.9356	1829.7096	9344.4	8460.15
917.0756	1831.3741	9351.8	8468.75
917.2155	1833.0379	9339.35	8457.45
917.3555	1834.701	9283.75	8401.2
917.4954	1836.3633	9301.15	8418.35
917.6353	1838.0248	9248.75	8364.05
917.7751	1839.6856	9234.85	8351.8
917.915	1841.3457	9252.1	8371.1
918.0548	1843.005	9201.65	8320.05
918.1946	1844.6636	9171.05	8291.25
918.3344	1846.3214	9165.45	8283.1
918.4742	1847.9785	9153.35	8273.05
918.6139	1849.6349	9109.25	8226.15
918.7537	1851.2904	9118.9	8227.5
918.8934	1852.9453	9110.2	8228.35
919.0331	1854.5994	9046.15	8163.35
919.1727	1856.2528	9062.4	8175.15
919.3124	1857.9054	9040.1	8157.65
919.452	1859.5572	9007.9	8126.75
919.5916	1861.2083	8992.35	8111.05
919.7312	1862.8587	8986.7	8103.05
919.8708	1864.5084	8947.45	8065.25
920.0103	1866.1572	8938.65	8057
920.1498	1867.8054	8907.2	8024.2
920.2893	1869.4528	8872.85	7990.7
920.4288	1871.0994	8867.15	7985.1
920.5683	1872.7453	8853.65	7968.35
920.7077	1874.3905	8839.35	7951.7
920.8471	1876.0349	8806.2	7923.25
920.9865	1877.6786	8803.4	7921
921.1259	1879.3215	8776.05	7892.45
921.2653	1880.9637	8755	7871.7
921.4046	1882.6051	8748.5	7866.6
921.5439	1884.2458	8726.4	7842.5
921.6832	1885.8858	8706.15	7823.1
921.8225	1887.525	8656.6	7773.1
921.9617	1889.1634	8631.65	7752.25
922.101	1890.8011	8598.95	7715.4
922.2402	1892.4381	8591.55	7708.9
922.3794	1894.0743	8608.25	7725.65
922.5185	1895.7098	8594.8	7711.65
922.6577	1897.3446	8560.25	7677.8
922.7968	1898.9786	8541.7	7657.1
922.9359	1900.6118	8506.9	7625.8
923.075	1902.2443	8484.4	7597.85
923.214	1903.8761	8486.2	7604.8
923.3531	1905.5071	8421.5	7534.75
923.4921	1907.1374	8402.5	7520.05
923.6311	1908.7669	8376.9	7494.2
923.77	1910.3957	8375.15	7491.65
923.909	1912.0237	8329.45	7448.4
924.0479	1913.651	8325.6	7441.9
924.1868	1915.2776	8302.35	7422.55
924.3257	1916.9034	8265.45	7385.3
924.4646	1918.5285	8233.1	7350.4
924.6034	1920.1528	8210.8	7329.75
924.7422	1921.7764	8214.8	7331.95
924.881	1923.3992	8182.65	7301.75
925.0198	1925.0213	8113.15	7230.2
925.1586	1926.6427	8069.8	7188.3
925.2973	1928.2633	8219.6	7130.6
925.436	1929.8832	8077.4	7189.55
925.5747	1931.5023	8016	7133.8
925.7134	1933.1207	8018.25	7135.6
925.852	1934.7383	8000.35	7116.2
925.9906	1936.3552	7950.95	7069.35
926.1292	1937.9714	7965.3	7082.85
926.2678	1939.5868	7909.1	7024.75
926.4064	1941.2015	7899.1	7018.35
926.5449	1942.8154	7866.05	6983.15
926.6834	1944.4286	7826.1	6944
926.8219	1946.041	7834.05	6926.45
926.9604	1947.6528	7753.95	6866.9
927.0988	1949.2637	7737.05	6853.5
927.2372	1950.8739	7725.1	6841.15
927.3756	1952.4834	7726.05	6844.2
927.514	1954.0921	7712.05	6830
927.6523	1955.7001	7692	6804.15
927.7907	1957.3074	7666.25	6785.25
927.929	1958.9139	7628.5	6749.35
928.0673	1960.5197	7616.2	6734.2
928.2055	1962.1247	7572.85	6691.45
928.3438	1963.729	7550.3	6670.1
928.482	1965.3325	7563.2	6657.25
928.6202	1966.9353	7527.3	6647.15
928.7584	1968.5374	7494.8	6611.9
928.8965	1970.1387	7480.2	6599.45
929.0346	1971.7393	7465.65	6583.4
929.1727	1973.3392	7429.3	6548.05
929.3108	1974.9383	7409.35	6529.05
929.4489	1976.5366	7378.3	6496.5
929.5869	1978.1342	7377.05	6496.25
929.7249	1979.7311	7357.25	6475.45
929.8629	1981.3273	7322.45	6439.5
930.0009	1982.9227	7326.7	6443.05
930.1388	1984.5173	7280.05	6397.3
930.2767	1986.1112	7258.6	6378.25
930.4146	1987.7044	7263.25	6381.85
930.5525	1989.2968	7242.35	6360.25
930.6904	1990.8885	7230.6	6346.7
930.8282	1992.4795	7226.05	6342.9
930.966	1994.0697	7171.65	6291.3
931.1038	1995.6592	7174.45	6291.9
931.2415	1997.2479	7144.8	6263.1
931.3793	1998.8359	7144.55	6262.95
931.517	2000.4232	7104.05	6223.15
931.6547	2002.0097	7090.45	6211.75
931.7923	2003.5955	7062.75	6181.1
931.93	2005.1805	7061.75	6178.5
932.0676	2006.7648	7048.1	6167
932.2052	2008.3484	7028.85	6146.6
932.3427	2009.9312	7042.55	6159.5
932.4803	2011.5133	6991.1	6114.25
932.6178	2013.0946	6988.35	6108.9
932.7553	2014.6752	6957.5	6078.05
932.8928	2016.2551	6959.3	6078.55
933.0302	2017.8342	6923	6043.6
933.1676	2019.4126	6895.6	6015.2
933.305	2020.9902	6852.95	5973.35
933.4424	2022.5672	6874.85	5994.05
933.5798	2024.1433	6849.85	5964.05
933.7171	2025.7188	6842.15	5962.5
933.8544	2027.2935	6816	5933.3
933.9917	2028.8674	6797.15	5916.95
934.129	2030.4406	6786.2	5908.25
934.2662	2032.0131	6752.45	5872.4
934.4034	2033.5849	6730.9	5846.45
934.5406	2035.1559	6729.85	5849.55
934.6778	2036.7261	6717.95	5838.75
934.8149	2038.2957	6694.3	5813.15
934.952	2039.8645	6684.2	5805.25
935.0891	2041.4325	6706.35	5824.75
935.2262	2042.9998	6665.65	5784.8
935.3632	2044.5664	6659.6	5777.75
935.5002	2046.1323	6645.8	5765.85
935.6372	2047.6974	6615.7	5736.3
935.7742	2049.2617	6615.95	5735.85
935.9111	2050.8254	6641.15	5740.55
936.048	2052.3883	6602.55	5721.3
936.1849	2053.9504	6591.85	5711.9
936.3218	2055.5118	6555.55	5673.7
936.4586	2057.0725	6523.3	5638.7
936.5955	2058.6325	6527.9	5646.35
936.7323	2060.1917	6503.7	5623.55
936.869	2061.7502	6504.4	5621.35
937.0058	2063.3079	6485.3	5604.9
937.1425	2064.8649	6461.45	5578.4
937.2792	2066.4212	6463.2	5582.5
937.4159	2067.9767	6458.8	5580.45
937.5525	2069.5315	6434.35	5552.85
937.6891	2071.0856	6406.15	5524.1
937.8257	2072.6389	6376.3	5495.8
937.9623	2074.1915	6350.85	5472.55
938.0989	2075.7433	6347.85	5465.65
938.2354	2077.2945	6342	5462.9
938.3719	2078.8448	6316.95	5435.15
938.5084	2080.3945	6287	5407.8
938.6448	2081.9434	6297.6	5415.6
938.7812	2083.4916	6288.85	5407.65
938.9176	2085.039	6260.3	5376.8
939.054	2086.5857	6243.9	5360.5
939.1903	2088.1317	6246.15	5366.8
939.3267	2089.677	6241.25	5358.6
939.463	2091.2215	6219.35	5338.7
939.5992	2092.7652	6191.4	5307.1
939.7355	2094.3083	6197.4	5314.25
939.8717	2095.8506	6184.65	5305.05
940.0079	2097.3921	6183.3	5302.75
940.1441	2098.933	6161.75	5281.65
940.2802	2100.4731	6148.2	5268.15
940.4163	2102.0124	6171.25	5272.75
940.5524	2103.5511	6156.35	5276.85
940.6885	2105.089	6133.9	5251.65
940.8245	2106.6261	6129.55	5247.3
940.9606	2108.1626	6112.9	5231.5
941.0965	2109.6983	6113.45	5203.85
941.2325	2111.2332	6087.25	5207.05
941.3684	2112.7675	6062.55	5180.85
941.5044	2114.301	6057.8	5176.75
941.6403	2115.8337	6045.6	5164.05
941.7761	2117.3657	6032.8	5153.45
941.912	2118.897	6033.95	5153
942.0478	2120.4276	5999.8	5111.65
942.1835	2121.9575	5971.45	5089.35
942.3193	2123.4866	5997.6	5114.7
942.455	2125.0149	5976.9	5094.6
942.5907	2126.5426	5944.9	5064.05
942.7264	2128.0695	5937.9	5053.05
942.8621	2129.5956	5940.95	5060.7
942.9977	2131.1211	5909.7	5024.9
943.1333	2132.6458	5903.65	5021.85
943.2689	2134.1698	5909.75	5029.65
943.4044	2135.693	5897.4	5013.65
943.54	2137.2155	5887.65	5003.2
943.6755	2138.7373	5867.95	4987.5
943.8109	2140.2584	5857.7	4976.25
943.9464	2141.7787	5838.4	4951.25
944.0818	2143.2983	5803.25	4923.9
944.2172	2144.8171	5773.85	4892.65
944.3526	2146.3353	5775.1	4892.85
944.4879	2147.8527	5761.75	4880.7
944.6232	2149.3693	5760.6	4879.65
944.7585	2150.8853	5730.9	4850.4
944.8938	2152.4005	5704.95	4822.15
945.029	2153.9149	5716.2	4835
945.1642	2155.4287	5702.35	4821.6
945.2994	2156.9417	5687.55	4807.1
945.4346	2158.454	5684.05	4801.45
945.5697	2159.9655	5677.95	4799.2
945.7048	2161.4764	5671.6	4788.15
945.8399	2162.9865	5639.8	4758.8
945.9749	2164.4958	5630.85	4747.5
946.1099	2166.0045	5594.4	4711.1
946.2449	2167.5124	5596.7	4716.55
946.3799	2169.0195	5586.4	4705.25
946.5148	2170.526	5565.75	4682.4
946.6498	2172.0317	5563.3	4681
946.7846	2173.5367	5561.15	4679.95
946.9195	2175.0409	5548.95	4668.7
947.0543	2176.5445	5531.5	4651.05
947.1891	2178.0473	5526.7	4646.75
947.3239	2179.5494	5501.75	4616.45
947.4587	2181.0507	5497.35	4616.1
947.5934	2182.5513	5495.15	4613.55
947.7281	2184.0512	5458.65	4579.9
947.8628	2185.5504	5433.95	4553.5
947.9974	2187.0488	5414.2	4534.1
948.132	2188.5465	5395.2	4515.15
948.2666	2190.0435	5375.7	4494.5
948.4012	2191.5397	5364.65	4485.35
948.5357	2193.0353	5370.05	4491.7
948.6702	2194.5301	5340.05	4458.2
948.8047	2196.0241	5322.35	4440.45
948.9392	2197.5175	5300.8	4419.55
949.0736	2199.0101	5310.4	4423.6
949.208	2200.502	5282.55	4404.6
949.3424	2201.9931	5261.65	4379.65
949.4767	2203.4835	5241.7	4359.9
949.611	2204.9733	5233.4	4347.45
949.7453	2206.4622	5228.25	4351.2
949.8796	2207.9505	5207.2	4322.6
950.0138	2209.438	5184.1	4306.1
950.148	2210.9248	5177.8	4297.45
950.2822	2212.4109	5167.9	4287.95
950.4164	2213.8962	5153.05	4268.25
950.5505	2215.3809	5147.1	4266.05
950.6846	2216.8648	5109	4227.95
950.8186	2218.3479	5126.55	4242.95
950.9527	2219.8304	5085.25	4201.85
951.0867	2221.3121	5088.6	4207
951.2207	2222.7931	5036.85	4155.75
951.3546	2224.2733	5041.85	4160.3
951.4886	2225.7529	5014.75	4133.05
951.6225	2227.2317	5018.45	4135.05
951.7563	2228.7098	5011.9	4131.9
951.8902	2230.1872	4986.2	4106.2
952.024	2231.6638	4997.4	4116.35
952.1578	2233.1397	4983.25	4097.3
952.2916	2234.6149	4973.15	4095.15
952.4253	2236.0894	4957.6	4076.8
952.559	2237.5632	4935.65	4054.3
952.6927	2239.0362	4916	4034.3
952.8263	2240.5085	4895.95	4014.5
952.9599	2241.9801	4883.75	4004
953.0935	2243.4509	4874.35	3995.3
953.2271	2244.921	4857.75	3978.25
953.3606	2246.3904	4861.45	3979.8
953.4941	2247.8591	4835.9	3956
953.6276	2249.3271	4810.95	3930.65
953.7611	2250.7943	4793.75	3911.3
953.8945	2252.2608	4789.75	3911.25
954.0279	2253.7266	4788.9	3908.7
954.1612	2255.1917	4787.9	3910
954.2946	2256.656	4762.75	3880.85
954.4279	2258.1197	4730.85	3850.5
954.5612	2259.5826	4729.8	3848.85
954.6944	2261.0447	4713.25	3829.95
954.8276	2262.5062	4700.9	3815.9
954.9608	2263.9669	4692.45	3808.8
955.094	2265.4269	4682.2	3802.1
955.2271	2266.8862	4685.6	3802.55
955.3602	2268.3448	4660.05	3778.35
955.4933	2269.8026	4669.15	3786.95
955.6264	2271.2598	4641.1	3760.05
955.7594	2272.7162	4635.35	3755.3
955.8924	2274.1719	4607.8	3726.15
956.0253	2275.6268	4603	3721.7
956.1583	2277.0811	4590.35	3708.75
956.2912	2278.5346	4586.35	3705.65
956.4241	2279.9874	4596	3716.55
956.5569	2281.4395	4574.5	3694.9
956.6897	2282.8908	4558.2	3672.55
956.8225	2284.3414	4557.15	3675.6
956.9553	2285.7914	4553.2	3673.9
957.088	2287.2406	4530.75	3647
957.2207	2288.689	4506.8	3627.3
957.3534	2290.1368	4491.05	3608.25
957.486	2291.5838	4498.4	3616.3
957.6186	2293.0302	4475.8	3596.1
957.7512	2294.4758	4446.45	3565.05
957.8838	2295.9206	4458.65	3577.15
958.0163	2297.3648	4442	3561.5
958.1488	2298.8082	4425.6	3544.55
958.2813	2300.251	4436.4	3555.75
958.4137	2301.693	4421.05	3539.7
958.5461	2303.1343	4417.35	3536.2
958.6785	2304.5748	4388.05	3507.6
958.8108	2306.0147	4371.45	3489
958.9432	2307.4538	4373.45	3492.4
959.0754	2308.8922	4354.6	3475.1
959.2077	2310.3299	4337.85	3456.75
959.3399	2311.7669	4328.85	3447.55
959.4721	2313.2031	4304.55	3422.6
959.6043	2314.6387	4298.95	3418.05
959.7365	2316.0735	4300.5	3420.3
959.8686	2317.5076	4293.9	3411.7
960.0006	2318.941	4287.4	3407.65
960.1327	2320.3737	4273	3389.35
960.2647	2321.8056	4270.25	3389.65
960.3967	2323.2369	4258.45	3377.45
960.5287	2324.6674	4238.15	3355.6
960.6606	2326.0972	4227.05	3345.85
960.7925	2327.5263	4213.8	3332.45
960.9244	2328.9547	4194.35	3311.6
961.0562	2330.3823	4192.35	3312.1
961.1881	2331.8092	4190.85	3305.85
961.3198	2333.2355	4162.65	3283.3
961.4516	2334.661	4154.75	3271.8
961.5833	2336.0858	4155.6	3273.9
961.715	2337.5098	4121.75	3240.45
961.8467	2338.9332	4136.7	3253.85
961.9783	2340.3558	4114.85	3231.95
962.1099	2341.7778	4104.7	3222.8
962.2415	2343.199	4084.65	3203.65
962.373	2344.6195	4080.8	3201.2
962.5045	2346.0393	4066.45	3185.05
962.636	2347.4583	4075.05	3192.9
962.7675	2348.8767	4062.85	3179.9
962.8989	2350.2943	4054.85	3173.7
963.0303	2351.7113	4040.05	3158.95
963.1617	2353.1275	4036.4	3155.1
963.293	2354.543	4019.9	3129.7
963.4243	2355.9578	4004.7	3121.5
963.5556	2357.3718	3976.15	3094.95
963.6868	2358.7852	3970.25	3086.2
963.818	2360.1978	3964.4	3082.7
963.9492	2361.6098	3964.9	3083
964.0803	2363.021	3965.6	3080.1
964.2114	2364.4315	3938.3	3057
964.3425	2365.8413	3923.15	3035.3
964.4736	2367.2504	3915.8	3035.6
964.6046	2368.6587	3900.7	3019.2
964.7356	2370.0664	3896.7	3017.2
964.8666	2371.4733	3888.8	3007.3
964.9975	2372.8795	3869.65	2988.7
965.1284	2374.285	3857.25	2975.85
965.2593	2375.6899	3848.45	2966.9
965.3901	2377.0939	3830.55	2948.8
965.5209	2378.4973	3823.55	2943.15
965.6517	2379.9	3820.2	2939.4
965.7825	2381.3019	3801.35	2921.1
965.9132	2382.7032	3789.2	2907.55
966.0439	2384.1037	3773.85	2893.15
966.1745	2385.5035	3787.5	2906.7
966.3051	2386.9027	3756.1	2875.75
966.4357	2388.3011	3757.8	2872
966.5663	2389.6987	3735.4	2853.1
966.6968	2391.0957	3726.45	2844.25
966.8273	2392.492	3722.45	2841.5
966.9578	2393.8876	3696.65	2815
967.0882	2395.2824	3680.6	2797.3
967.2186	2396.6765	3677.2	2795
967.349	2398.07	3649.1	2767.55
967.4793	2399.4627	3654.05	2769.65
967.6097	2400.8547	3647	2765.5
967.7399	2402.246	3640.35	2751.15
967.8702	2403.6366	3615.15	2732.6
968.0004	2405.0265	3614.45	2732
968.1306	2406.4156	3605.15	2718.7
968.2607	2407.8041	3585.3	2700.7
968.3909	2409.1918	3573.25	2687.5
968.521	2410.5789	3579.25	2698.15
968.651	2411.9652	3563.95	2677.45
968.781	2413.3508	3544.4	2662.35
968.911	2414.7358	3546.55	2661.2
969.041	2416.12	3525.95	2644.65
969.1709	2417.5035	3520.3	2641.05
969.3008	2418.8863	3509.75	2627
969.4307	2420.2684	3498.6	2615.45
969.5606	2421.6497	3475.6	2593.1
969.6904	2423.0304	3466.9	2585.35
969.8201	2424.4104	3458.85	2575.35
969.9499	2425.7896	3448.95	2565.3
970.0796	2427.1682	3432.35	2549.7
970.2093	2428.546	3437.75	2555.15
970.3389	2429.9232	3431.25	2546.3
970.4685	2431.2996	3409.35	2526.65
970.5981	2432.6753	3410.5	2529.6
970.7277	2434.0503	3395.3	2513.4
970.8572	2435.4246	3384.1	2502.2
970.9867	2436.7982	3375.5	2492.6
971.1161	2438.1711	3380.1	2498.7
971.2456	2439.5433	3366.3	2483.15
971.375	2440.9148	3358.95	2470.9
971.5043	2442.2856	3324.2	2443.65
971.6336	2443.6557	3336.55	2451.5
971.7629	2445.025	3331.7	2450.15
971.8922	2446.3937	3318.9	2436.4
972.0214	2447.7617	3297.1	2413.9
972.1506	2449.1289	3299.8	2417.8
972.2798	2450.4955	3295.7	2410.25
972.4089	2451.8613	3277.4	2396.8
972.538	2453.2265	3272.85	2393
972.6671	2454.5909	3263.9	2380.8
972.7961	2455.9546	3268.45	2387.75
972.9251	2457.3177	3261.4	2378.85
973.0541	2458.68	3239.65	2355.55
973.1831	2460.0416	3233.9	2354.4
973.312	2461.4025	3228.05	2344.5
973.4408	2462.7627	3231.25	2338.7
973.5697	2464.1222	3214.5	2333.5
973.6985	2465.4811	3202.8	2320.3
973.8273	2466.8392	3198.4	2317.5
973.956	2468.1966	3198.5	2314.65
974.0847	2469.5533	3197.45	2314.35
974.2134	2470.9093	3189.35	2306.85
974.3421	2472.2645	3168.45	2285.15
974.4707	2473.6191	3150.6	2269.3
974.5993	2474.973	3143.4	2261.3
974.7278	2476.3262	3143.6	2262.05
974.8563	2477.6787	3142.65	2261.65
974.9848	2479.0305	3122.05	2242.4
975.1132	2480.3816	3106.6	2223.45
975.2417	2481.7319	3103.45	2220.9
975.37	2483.0816	3096.5	2212.15
975.4984	2484.4306	3087	2205.45
975.6267	2485.7789	3086.25	2203.65
975.755	2487.1264	3067.7	2183.45
975.8833	2488.4733	3058.7	2179.6
976.0115	2489.8195	3052.2	2162.2
976.1397	2491.165	3050.95	2166.85
976.2678	2492.5097	3035.15	2152.75
976.3959	2493.8538	3016.55	2135.75
976.524	2495.1972	3015.5	2132.7
976.6521	2496.5398	3008.35	2125.7
976.7801	2497.8818	2999.1	2116
976.9081	2499.2231	2994.95	2113.6
977.036	2500.5637	2992.4	2106.7
977.164	2501.9035	2972.35	2089.85
977.2918	2503.2427	2972.65	2085.15
977.4197	2504.5812	2959.65	2078.5
977.5475	2505.919	2957.65	2073.8
977.6753	2507.256	2959.75	2078.05
977.8031	2508.5924	2934.95	2054.15
977.9308	2509.9281	2934.6	2048.2
978.0585	2511.2631	2918.4	2037.5
978.1861	2512.5974	2917.05	2034.05
978.3137	2513.9309	2910.7	2028.45
978.4413	2515.2638	2913.7	2005.25
978.5689	2516.596	2893.2	2012.5
978.6964	2517.9275	2883.6	2002.05
978.8239	2519.2583	2876.85	1992.4
978.9513	2520.5884	2864.3	1982.2
979.0788	2521.9178	2852.5	1967.05
979.2062	2523.2465	2855.2	1973.9
979.3335	2524.5745	2850	1969.4
979.4608	2525.9018	2834.2	1952.05
979.5881	2527.2284	2821.75	1942.2
979.7154	2528.5543	2828.4	1949.9
979.8426	2529.8796	2814.25	1932.35
979.9698	2531.2041	2824	1941.8
980.0969	2532.5279	2801.45	1920.25
980.224	2533.851	2799.7	1918.85
980.3511	2535.1735	2792.5	1910.8
980.4781	2536.4952	2789.25	1908.75
980.6052	2537.8163	2787.9	1906.75
980.7321	2539.1366	2766.4	1883.15
980.8591	2540.4562	2763.9	1880
980.986	2541.7752	2754	1874.25
981.1129	2543.0935	2754.75	1873.6
981.2397	2544.411	2765.35	1882.25
981.3665	2545.7279	2752.3	1872.05
981.4933	2547.0441	2746.4	1865.55
981.62	2548.3596	2744.95	1861.9
981.7467	2549.6744	2740.5	1857.25
981.8734	2550.9885	2730.7	1840.95
982.0001	2552.3019	2714.7	1835.2
982.1267	2553.6146	2717.6	1836.9
982.2532	2554.9266	2699.2	1818.3
982.3798	2556.2379	2695.95	1811.45
982.5063	2557.5485	2690.25	1809.6
982.6327	2558.8585	2686.5	1796.95
982.7592	2560.1677	2696.9	1811.35
982.8856	2561.4762	2676.75	1794.7
983.0119	2562.7841	2675.85	1790.85
983.1383	2564.0913	2671.25	1791.6
983.2646	2565.3977	2672.35	1789.9
983.3908	2566.7035	2655.6	1774.55
983.517	2568.0086	2666.3	1780.6
983.6432	2569.313	2662.1	1781.45
983.7694	2570.6167	2657.65	1771.8
983.8955	2571.9197	2637.55	1756.15
984.0216	2573.222	2641.4	1755.95
984.1476	2574.5236	2635.75	1754.1
984.2737	2575.8246	2634.65	1749.4
984.3996	2577.1248	2629.6	1745.45
984.5256	2578.4244	2625	1743.05
984.6515	2579.7232	2615.25	1733.85
984.7774	2581.0214	2626.75	1719
984.9032	2582.3189	2608.9	1729.25
985.029	2583.6157	2608.6	1724.15
985.1548	2584.9118	2599.1	1716.9
985.2806	2586.2072	2582.75	1700.75
985.4063	2587.5019	2570.5	1689.55
985.5319	2588.7959	2581.2	1697.65
985.6576	2590.0893	2593.1	1709.65
985.7832	2591.3819	2566.8	1686.55
985.9087	2592.6739	2553.75	1669.9
986.0343	2593.9652	2562.6	1679.4
986.1597	2595.2557	2554.05	1673.35
986.2852	2596.5456	2542.3	1659.65
986.4106	2597.8348	2537.45	1657.05
986.536	2599.1234	2526.5	1645.35
986.6614	2600.4112	2524.7	1643.7
986.7867	2601.6983	2510.5	1625.35
986.912	2602.9848	2503.9	1621.3
987.0372	2604.2705	2496.85	1608.15
987.1624	2605.5556	2490.1	1607.5
987.2876	2606.84	2486.3	1605.05
987.4128	2608.1237	2487.95	1606.25
987.5379	2609.4067	2477.85	1597.15
987.6629	2610.689	2482.75	1591.3
987.788	2611.9707	2457.25	1572.25
987.913	2613.2516	2453.65	1567.8
988.0379	2614.5319	2444	1564.25
988.1629	2615.8115	2437.1	1554.85
988.2878	2617.0903	2430.35	1547.25
988.4126	2618.3685	2416.05	1535.35
988.5375	2619.6461	2418.45	1535.5
988.6622	2620.9229	2409.5	1527.9
988.787	2622.199	2402.35	1519.45
988.9117	2623.4745	2401.3	1519
989.0364	2624.7493	2392	1511
989.161	2626.0234	2374.05	1494.35
989.2857	2627.2968	2371.65	1491.25
989.4102	2628.5695	2369.1	1487.05
989.5348	2629.8415	2357.6	1476.3
989.6593	2631.1128	2357.1	1472.7
989.7837	2632.3835	2355.3	1473.95
989.9082	2633.6535	2321.9	1440.2
990.0326	2634.9228	2333.6	1455.5
990.1569	2636.1914	2333.6	1451.25
990.2812	2637.4593	2329	1441.4
990.4055	2638.7265	2312.95	1430.05
990.5298	2639.9931	2315.95	1434.05
990.654	2641.259	2310.05	1426.85
990.7782	2642.5242	2304.1	1421.6
990.9023	2643.7887	2304.3	1420.9
991.0264	2645.0525	2292.9	1410.85
991.1505	2646.3156	2278.2	1396.8
991.2745	2647.5781	2280.45	1397.75
991.3985	2648.8398	2265.8	1384.95
991.5225	2650.1009	2296.65	1379.25
991.6464	2651.3613	2262.6	1382.6
991.7703	2652.6211	2252.15	1372.15
991.8942	2653.8801	2256.35	1376.25
992.018	2655.1385	2252.15	1368.9
992.1418	2656.3961	2247.65	1366.6
992.2655	2657.6531	2246	1365.5
992.3892	2658.9094	2230.65	1347.75
992.5129	2660.1651	2235.1	1355
992.6366	2661.42	2219.95	1337.6
992.7602	2662.6743	2222.25	1340.85
992.8837	2663.9279	2220.35	1338.5
993.0073	2665.1808	2211.3	1331.6
993.1307	2666.433	2208.95	1325.55
993.2542	2667.6846	2207.7	1328.15
993.3776	2668.9354	2205.7	1320.2
993.501	2670.1856	2186.75	1302.9
993.6244	2671.4351	2179.85	1298.2
993.7477	2672.6839	2182.15	1298.3
993.8709	2673.9321	2178.95	1299
993.9942	2675.1795	2184.5	1301.6
994.1174	2676.4263	2167.8	1286.85
994.2405	2677.6724	2167.2	1287.25
994.3637	2678.9179	2161.1	1278.5
994.4868	2680.1626	2144.25	1263.15
994.6098	2681.4067	2156.25	1274.75
994.7328	2682.6501	2153.45	1270
994.8558	2683.8928	2135.1	1253.65
994.9788	2685.1348	2127.05	1245.95
995.1017	2686.3761	2133.65	1251.65
995.2245	2687.6168	2125.25	1243.95
995.3474	2688.8568	2122.7	1240.6
995.4702	2690.0961	2119.65	1239.2
995.5929	2691.3348	2103.3	1222.05
995.7156	2692.5727	2103.15	1222.2
995.8383	2693.81	2104.75	1221.6
995.961	2695.0466	2101.6	1222.15
996.0836	2696.2826	2094.55	1209.9
996.2062	2697.5178	2108.3	1207.7
996.3287	2698.7524	2088.8	1208.2
996.4512	2699.9863	2086.55	1203.55
996.5737	2701.2195	2071.9	1192.05
996.6961	2702.452	2065.9	1182.3
996.8185	2703.6839	2069.2	1187.5
996.9408	2704.9151	2067	1186.9
997.0631	2706.1456	2059.25	1177.7
997.1854	2707.3755	2045.25	1163.05
997.3077	2708.6046	2042.45	1159.95
997.4299	2709.8331	2038.25	1157.6
997.552	2711.0609	2041.75	1160.1
997.6742	2712.2881	2022.15	1140.5
997.7963	2713.5145	2016.85	1130.8
997.9183	2714.7403	2023.9	1145.25
998.0403	2715.9654	2018.95	1136.5
998.1623	2717.1899	2025.65	1130.65
998.2842	2718.4136	2002.1	1120.8
998.4062	2719.6367	2001.85	1121.9
998.528	2720.8591	2004.65	1119.35
998.6498	2722.0809	1999.75	1117.75
998.7716	2723.3019	1993.65	1108.8
998.8934	2724.5223	1976.25	1095.55
999.0151	2725.7421	1966.6	1083.7
999.1368	2726.9611	1983.45	1100.3
999.2584	2728.1795	1976.2	1091.1
999.38	2729.3972	1953.7	1072.55
999.5016	2730.6142	1967.75	1075.4
999.6231	2731.8306	1954.45	1073.25
999.7446	2733.0462	1945.05	1060.8
999.8661	2734.2612	1944.3	1057.55
999.9875	2735.4756	1939.15	1055.65
1000.1089	2736.6892	1936.2	1056.3
1000.2302	2737.9022	1926.25	1046.25
1000.3515	2739.1145	1922.85	1040.9
1000.4728	2740.3262	1925.6	1035.85
1000.594	2741.5372	1913.5	1033.9
1000.7152	2742.7475	1904.8	1022.05
1000.8363	2743.9571	1912.3	1028.7
1000.9575	2745.1661	1909.2	1024.7
1001.0785	2746.3744	1896.65	1014.85
1001.1996	2747.582	1888.8	1008.7
1001.3206	2748.7889	1879.2	997.05
1001.4415	2749.9952	1892.85	1013.15
1001.5625	2751.2008	1873.75	991.45
1001.6833	2752.4057	1873.15	991.2
1001.8042	2753.61	1867.25	982.95
1001.925	2754.8136	1875.35	994.1
1002.0458	2756.0165	1860.25	978.05
1002.1665	2757.2188	1860.25	979.75
1002.2872	2758.4204	1849.6	966.9
1002.4078	2759.6213	1847.1	964.9
1002.5285	2760.8215	1850.1	965.2
1002.649	2762.0211	1842.3	961.75
1002.7696	2763.22	1842	958
1002.8901	2764.4182	1829.1	944.2
1003.0106	2765.6158	1827.9	945.75
1003.131	2766.8127	1829.65	948.45
1003.2514	2768.009	1824.65	945.1
1003.3717	2769.2045	1824.3	941.35
1003.492	2770.3994	1820.5	937.2
1003.6123	2771.5936	1819.55	937.3
1003.7325	2772.7872	1805.25	925.5
1003.8527	2773.9801	1801.75	918.6
1003.9729	2775.1723	1807.75	910.45
1004.093	2776.3639	1799.95	920.9
1004.2131	2777.5548	1790.45	905.75
1004.3331	2778.745	1784.5	902
1004.4531	2779.9346	1783.25	902.3
1004.5731	2781.1235	1787.6	906.8
1004.693	2782.3117	1777.75	898.5
1004.8129	2783.4992	1776.5	897.2
1004.9328	2784.6861	1774.55	894.6
1005.0526	2785.8723	1766.1	882.7
1005.1723	2787.0579	1749.8	867.2
1005.2921	2788.2428	1752.45	870.7
1005.4118	2789.427	1738.65	859.5
1005.5314	2790.6106	1741.55	860.25
1005.651	2791.7935	1745.7	862
1005.7706	2792.9757	1736.4	855.65
1005.8902	2794.1573	1729.35	847.75
1006.0097	2795.3382	1734.1	853.7
1006.1291	2796.5184	1725.5	845.6
1006.2485	2797.698	1722.7	840.5
1006.3679	2798.8769	1724.1	842.5
1006.4873	2800.0551	1722.95	841.65
1006.6066	2801.2327	1723.95	841.5
1006.7258	2802.4096	1716.45	835.8
1006.8451	2803.5859	1700.2	818.6
1006.9642	2804.7615	1699.25	816.9
1007.0834	2805.9364	1694.4	814.95
1007.2025	2807.1106	1699.45	818.65
1007.3216	2808.2842	1689.85	807.15
1007.4406	2809.4572	1697.15	817.6
1007.5596	2810.6294	1694.45	812.6
1007.6785	2811.801	1685.95	807.2
1007.7975	2812.972	1683.15	801.4
1007.9163	2814.1423	1679.45	800.15
1008.0352	2815.3119	1684.25	803.35
1008.154	2816.4808	1686.2	804.9
1008.2727	2817.6491	1685.15	802.85
1008.3914	2818.8167	1669.85	788.7
1008.5101	2819.9837	1692.6	807.75
1008.6288	2821.15	1682.9	802.45
1008.7474	2822.3157	1675.45	797.3
1008.8659	2823.4807	1685.3	803.9
1008.9844	2824.645	1691.35	809.5
1009.1029	2825.8086	1693.6	814.7
1009.2214	2826.9716	1702.2	820.3
1009.3398	2828.134	1702.95	823.3
1009.4581	2829.2957	1712.2	832.35
1009.5764	2830.4567	1710.25	828.95
1009.6947	2831.617	1715.3	833.85
1009.813	2832.7767	1711.55	831.1
1009.9312	2833.9358	1713.55	833.45
1010.0493	2835.0941	1710.1	828.5
1010.1675	2836.2519	1700.3	822
1010.2855	2837.4089	1690.6	808.55
1010.4036	2838.5653	1694.75	814.5
1010.5216	2839.7211	1691.8	812.25
1010.6396	2840.8761	1685	802.15
1010.7575	2842.0306	1677.15	797.6
1010.8754	2843.1843	1677.75	796.5
1010.9932	2844.3374	1677.8	798.3
1011.111	2845.4899	1670.55	788.8
1011.2288	2846.6417	1675.45	795.8
1011.3465	2847.7928	1676	796.3
1011.4642	2848.9433	1668.15	786.4
1011.5818	2850.0931	1667.25	787.8
1011.6995	2851.2422	1672.3	790.6
1011.817	2852.3907	1666.85	784.85
1011.9345	2853.5385	1669.7	788.2
1012.052	2854.6857	1675	783.25
1012.1695	2855.8323	1661.45	781.7
1012.2869	2856.9781	1666.3	785.7
1012.4042	2858.1233	1660.2	781
1012.5216	2859.2679	1655.6	776.2
1012.6389	2860.4118	1665.35	786.45
1012.7561	2861.555	1671.2	785.5
1012.8733	2862.6976	1665.25	782.3
1012.9905	2863.8395	1658.9	778.25
1013.1076	2864.9808	1665.55	785.45
1013.2247	2866.1214	1659.2	779.4
1013.3417	2867.2614	1657.7	775.7
1013.4587	2868.4007	1659.5	779.85
1013.5757	2869.5393	1661.05	779.85
1013.6926	2870.6773	1665.7	782.15
1013.8095	2871.8146	1660.4	776.1
1013.9263	2872.9513	1660	778.35
1014.0431	2874.0874	1653.9	773.9
1014.1599	2875.2227	1652.3	771.25
1014.2766	2876.3574	1648.15	768.35
1014.3933	2877.4915	1640.6	759.75
1014.51	2878.6249	1636.65	755.75
1014.6266	2879.7577	1640	758.6
1014.7431	2880.8898	1654.7	763.25
1014.8596	2882.0212	1641.1	763.05
1014.9761	2883.152	1644.6	763.8
1015.0925	2884.2821	1642.8	763.25
1015.2089	2885.4116	1645.15	765.4
1015.3253	2886.5405	1640.85	760.75
1015.4416	2887.6686	1638.05	754.75
1015.5579	2888.7962	1634.25	755.65
1015.6741	2889.923	1627.25	747.25
1015.7903	2891.0493	1624.15	744.3
1015.9065	2892.1748	1626.9	745.35
1016.0226	2893.2997	1620.75	738.9
1016.1387	2894.424	1620.2	739.65
1016.2547	2895.5476	1618.85	739.2
1016.3707	2896.6706	1617.2	736.4
1016.4866	2897.7929	1610.15	730
1016.6025	2898.9145	1605.75	725.6
1016.7184	2900.0355	1606.55	726.1
1016.8342	2901.1559	1605.5	724.3
1016.95	2902.2756	1604.05	722.95
1017.0658	2903.3946	1595.05	715.35
1017.1815	2904.513	1592.05	708.75
1017.2971	2905.6308	1590.95	708.95
1017.4127	2906.7479	1589.2	706
1017.5283	2907.8643	1581.5	700.2
1017.6439	2908.9801	1590.3	710.5
1017.7594	2910.0953	1581.85	701.9
1017.8748	2911.2098	1576.75	692.7
1017.9902	2912.3236	1586.35	697.8
1018.1056	2913.4368	1570.3	686.35
1018.2209	2914.5494	1569.85	687.65
1018.3362	2915.6613	1561.05	673.65
1018.4515	2916.7725	1559.35	676.6
1018.5667	2917.8831	1558.85	676.4
1018.6819	2918.9931	1554.25	669.8
1018.797	2920.1024	1545.55	663.2
1018.9121	2921.211	1543.15	661.5
1019.0271	2922.319	1541.95	661.8
1019.1421	2923.4264	1532.05	650.8
1019.2571	2924.5331	1531.45	653.45
1019.372	2925.6391	1528.6	648.1
1019.4869	2926.7445	1524.35	645.9
1019.6017	2927.8493	1520.9	641.45
1019.7165	2928.9534	1521.45	641.8
1019.8313	2930.0569	1523.9	641.25
1019.946	2931.1597	1522.75	639.5
1020.0606	2932.2619	1526.85	646.65
1020.1753	2933.3634	1527.6	645.15
1020.2899	2934.4643	1532.4	645.05
1020.4044	2935.5645	1520.6	633.35
1020.5189	2936.6641	1524	638.95
1020.6334	2937.763	1518.2	640.4
1020.7478	2938.8613	1512.1	629.55
1020.8622	2939.959	1521.6	635.75
1020.9765	2941.056	1500.35	619.75
1021.0908	2942.1523	1497.9	616.9
1021.2051	2943.248	1494.5	614.25
1021.3193	2944.3431	1482.2	601.8
1021.4334	2945.4375	1470.75	587.4
1021.5476	2946.5313	1463.4	584
1021.6617	2947.6244	1452.15	570.9
1021.7757	2948.7169	1437.95	556.65
1021.8897	2949.8087	1440	559.1
1022.0037	2950.8999	1423.6	542.5
1022.1176	2951.9904	1413.1	533
1022.2315	2953.0803	1410.4	531.85
1022.3453	2954.1696	1408	525.9
1022.4591	2955.2582	1403.8	522.65
1022.5728	2956.3462	1401	519.4
1022.6865	2957.4335	1397.7	516.65
1022.8002	2958.5202	1392.85	511.5
1022.9138	2959.6062	1397.6	517.05
1023.0274	2960.6916	1389.65	509.65
1023.141	2961.7764	1388.4	508.35
1023.2545	2962.8605	1391.15	510.65
1023.3679	2963.9439	1380.15	499.95
1023.4813	2965.0267	1383.25	501.75
1023.5947	2966.1089	1400.3	498.2
1023.708	2967.1905	1370	489.6
1023.8213	2968.2714	1374.8	495.85
1023.9346	2969.3516	1369.25	489.5
1024.0478	2970.4312	1370.8	485.75
1024.1609	2971.5102	1361.5	481.5
1024.274	2972.5885	1359.3	477.25
1024.3871	2973.6662	1366.9	481.25
1024.5002	2974.7432	1359.75	480.35
1024.6132	2975.8196	1357.95	477.15
1024.7261	2976.8954	1355.5	475.7
1024.839	2977.9705	1354.8	475.6
1024.9519	2979.045	1351.9	472.65
1025.0647	2980.1188	1349.3	469.15
1025.1775	2981.192	1340.1	459.5
1025.2902	2982.2645	1343.3	463.7
1025.4029	2983.3364	1336.1	453.9
1025.5156	2984.4077	1336.6	457.45
1025.6282	2985.4783	1338.9	453.55
1025.7407	2986.5483	1329.9	448.35
1025.8532	2987.6177	1316.7	435.55
1025.9657	2988.6864	1318.25	438
1026.0782	2989.7545	1317.55	435.75
1026.1906	2990.8219	1311.25	433.85
1026.3029	2991.8887	1318.8	437.95
1026.4152	2992.9548	1315.8	433.25
1026.5275	2994.0204	1300.7	420.3
1026.6397	2995.0852	1293.35	413.45
1026.7519	2996.1495	1293.7	412.8
1026.864	2997.2131	1293.8	412.9
1026.9761	2998.276	1285.7	406.1
1027.0882	2999.3383	1289.9	409.75
1027.2002	3000.4	1287.7	406.1
1027.3122	3001.4611	1275.55	395.05
1027.4241	3002.5215	1272.5	392.3
1027.536	3003.5812	1274.35	394.9
1027.6478	3004.6404	1275.4	393.7
1027.7596	3005.6989	1267.75	385.15
1027.8714	3006.7567	1264.65	384.25
1027.9831	3007.8139	1286.8	382.55
1028.0947	3008.8705	1253.05	371.8
1028.2064	3009.9264	1266.05	383.4
1028.3179	3010.9818	1257.95	377.95
1028.4295	3012.0364	1250.4	369.75
1028.541	3013.0905	1256	375.95
1028.6524	3014.1439	1250.35	369.6
1028.7638	3015.1966	1247.55	368.7
1028.8752	3016.2487	1247	366.7
1028.9865	3017.3002	1248.5	363.75
1029.0978	3018.3511	1248	367.85
1029.209	3019.4013	1241	361.65
1029.3202	3020.4509	1235.25	355.25
1029.4314	3021.4998	1234.9	353.3
1029.5425	3022.5481	1232.05	352.15
1029.6535	3023.5958	1236.6	355
1029.7645	3024.6428	1234.65	352.75
1029.8755	3025.6892	1233.75	355.75
1029.9864	3026.735	1238	356.7
1030.0973	3027.7802	1230.05	350.8
1030.2082	3028.8247	1230.5	350.95
1030.319	3029.8685	1223.6	343.2
1030.4297	3030.9118	1221.6	342.2
1030.5404	3031.9544	1216.2	336.65
1030.6511	3032.9963	1217.1	336.6
1030.7617	3034.0376	1215.6	335.3
1030.8723	3035.0783	1218.3	335.5
1030.9829	3036.1184	1214.35	333.2
1031.0934	3037.1578	1214.4	334.6
1031.2038	3038.1966	1215.75	334.4
1031.3142	3039.2348	1213.15	336.25
1031.4246	3040.2723	1215.2	327.4
1031.5349	3041.3092	1213.15	335.05
1031.6452	3042.3455	1212.65	331.15
1031.7554	3043.3811	1211.9	331.8
1031.8656	3044.4161	1206.4	325.1
1031.9758	3045.4505	1198.95	318.95
1032.0859	3046.4842	1202.85	323.15
1032.1959	3047.5173	1202.65	323.4
1032.3059	3048.5498	1197.15	315.55
1032.4159	3049.5816	1203.75	325.65
1032.5258	3050.6128	1201.35	321.1
1032.6357	3051.6434	1199.6	317.5
1032.7455	3052.6734	1201.7	321
1032.8553	3053.7027	1196.3	313.2
1032.9651	3054.7314	1193.9	315.6
1033.0748	3055.7594	1192.3	310.65
1033.1845	3056.7868	1193.35	313.85
1033.2941	3057.8136	1191.75	310.9
1033.4037	3058.8398	1194	314.35
1033.5132	3059.8653	1187	308.85
1033.6227	3060.8902	1183.4	302.7
1033.7321	3061.9145	1184.2	304.8
1033.8415	3062.9381	1187.95	307.4
1033.9509	3063.9612	1201.9	306.7
1034.0602	3064.9835	1185	305.6
1034.1694	3066.0053	1183.05	299.2
1034.2787	3067.0264	1180.65	300.7
1034.3878	3068.0469	1183.2	302.45
1034.497	3069.0668	1185.85	303.6
1034.6061	3070.086	1174.8	296.55
1034.7151	3071.1046	1175.95	294.85
1034.8241	3072.1226	1173.95	292.95
1034.9331	3073.1399	1170.85	290.35
1035.042	3074.1567	1175.05	294.45
1035.1508	3075.1727	1170.25	289.75
1035.2597	3076.1882	1170.6	291.5
1035.3684	3077.203	1164	282.45
1035.4772	3078.2173	1165.95	284.75
1035.5859	3079.2308	1167.55	283.55
1035.6945	3080.2438	1162.75	281.1
1035.8031	3081.2561	1155.95	276.6
1035.9117	3082.2678	1163	282.6
1036.0202	3083.2789	1155.95	275.7
1036.1286	3084.2893	1152.15	271.45
1036.2371	3085.2991	1158.45	278
1036.3454	3086.3083	1156.85	273.75
1036.4538	3087.3169	1153.55	271.35
1036.562	3088.3248	1152.25	271
1036.6703	3089.3321	1150.35	269.45
1036.7785	3090.3388	1149.55	270.35
1036.8866	3091.3449	1149.15	267.25
1036.9948	3092.3503	1146.9	263.9
1037.1028	3093.3551	1142.7	264.65
1037.2108	3094.3593	1138.45	258.5
1037.3188	3095.3629	1147.3	268.85
1037.4267	3096.3658	1149.35	267.7
1037.5346	3097.3681	1141.65	261.45
1037.6425	3098.3698	1142.25	259.35
1037.7503	3099.3708	1140	252.05
1037.858	3100.3713	1130.5	251.85
1037.9657	3101.3711	1129.85	248.7
1038.0734	3102.3702	1265.2	248.1
1038.181	3103.3688	1131.4	247.75
1038.2886	3104.3667	1130.55	250.3
1038.3961	3105.364	1127.35	246.3
1038.5036	3106.3607	1125.25	243.45
1038.611	3107.3568	1124.95	243.15
1038.7184	3108.3522	1117.95	238.8
1038.8257	3109.347	1120.35	239.25
1038.933	3110.3412	1122.25	239.15
1039.0403	3111.3348	1117.6	238.8
1039.1475	3112.3277	1114.95	234.95
1039.2547	3113.32	1112.15	232.75
1039.3618	3114.3117	1116.25	234.85
1039.4689	3115.3028	1113.05	233
1039.5759	3116.2932	1112.9	231.1
1039.6829	3117.2831	1118.5	232.25
1039.7898	3118.2723	1111.4	231.85
1039.8967	3119.2608	1107.25	226.25
1040.0035	3120.2488	1103.95	224.15
1040.1103	3121.2361	1102.45	221.85
1040.2171	3122.2229	1105.9	223.25
1040.3238	3123.209	1103.1	224.35
1040.4305	3124.1944	1100.9	221.6
1040.5371	3125.1793	1100.45	219.2
1040.6437	3126.1635	1099.55	219.65
1040.7502	3127.1471	1094.75	214.1
1040.8567	3128.1301	1091.95	212.8
1040.9631	3129.1125	1096.8	214.5
1041.0695	3130.0942	1100.1	219.8
1041.1759	3131.0753	1102.9	214.5
1041.2822	3132.0558	1093.4	212.45
1041.3884	3133.0357	1093.8	211.55
1041.4946	3134.015	1089.9	210.95
1041.6008	3134.9936	1090	207.85
1041.7069	3135.9716	1108.6	207.9
1041.813	3136.949	1085.85	204.6
1041.919	3137.9258	1093.4	206.5
1042.025	3138.902	1088.2	201.45
1042.1309	3139.8775	1085.7	206.8
1042.2368	3140.8524	1082.15	204.1
1042.3427	3141.8267	1084.1	203.6
1042.4485	3142.8004	1081.35	202.2
1042.5542	3143.7735	1087.05	200.15
1042.6599	3144.7459	1079.25	198.6
1042.7656	3145.7178	1084	201.45
1042.8712	3146.689	1076.9	198.2
1042.9768	3147.6596	1077.7	197.1
1043.0823	3148.6295	1075.05	195.75
1043.1878	3149.5989	1079.6	199.7
1043.2932	3150.5676	1072.15	194
1043.3986	3151.5357	1069.15	190.45
1043.5039	3152.5032	1071.75	192.2
1043.6092	3153.4701	1069.55	189.7
1043.7145	3154.4364	1070.6	186.6
1043.8197	3155.402	1067.2	190.1
1043.9248	3156.367	1068.45	186.1
1044.03	3157.3315	1104.4	187.1
1044.135	3158.2952	1064.35	184.45
1044.24	3159.2584	1062.5	183.2
1044.345	3160.221	1062.35	182.5
1044.4499	3161.1829	1064.25	183.55
1044.5548	3162.1442	1059.3	180.05
1044.6596	3163.105	1057.9	177.95
1044.7644	3164.065	1061.1	179.15
1044.8692	3165.0245	1057.85	174.05
1044.9739	3165.9834	1054.75	175.3
1045.0785	3166.9416	1055.75	175.55
1045.1831	3167.8993	1056.2	176.4
1045.2877	3168.8563	1055.95	174.8
1045.3922	3169.8127	1052.75	173.35
1045.4966	3170.7684	1054.25	174.2
1045.6011	3171.7236	1054.75	174.05
1045.7054	3172.6782	1049.6	169.7
1045.8098	3173.6321	1050.45	169.15
1045.914	3174.5854	1053.4	167.25
1046.0183	3175.5381	1047.3	167.95
1046.1224	3176.4902	1047	164.75
1046.2266	3177.4417	1046.7	166.75
1046.3307	3178.3926	1043.05	164.2
1046.4347	3179.3428	1041.1	162.6
1046.5387	3180.2924	1043.75	162.8
1046.6427	3181.2415	1043.3	161.4
1046.7466	3182.1899	1042	160.6
1046.8504	3183.1377	1039.9	160.65
1046.9542	3184.0848	1040.6	157.8
1047.058	3185.0314	1038.4	156.85
1047.1617	3185.9773	1038.7	160.4
1047.2654	3186.9227	1034.1	152.95
1047.369	3187.8674	1039.15	160.6
1047.4726	3188.8115	1042.95	158.35
1047.5761	3189.755	1037.65	157.65
1047.6796	3190.6979	1033.7	154.45
1047.783	3191.6402	1031.4	152
1047.8864	3192.5818	1035.65	155.2
1047.9898	3193.5229	1035.25	148.8
1048.0931	3194.4633	1032.7	151.65
1048.1963	3195.4031	1031.55	151.4
1048.2995	3196.3423	1031.9	150.5
1048.4027	3197.2809	1031.5	151.95
1048.5058	3198.2189	1028.55	147.6
1048.6089	3199.1563	1033	146.1
1048.7119	3200.0931	1024.55	145.5
1048.8148	3201.0292	1022.15	142.45
1048.9178	3201.9648	1024.5	145.2
1049.0206	3202.8997	1027.25	144.9
1049.1235	3203.834	1025.15	147.6
1049.2262	3204.7677	1021.65	142.05
1049.329	3205.7008	1022.55	139.85
1049.4317	3206.6333	1022.25	144.1
1049.5343	3207.5652	1021.9	139.1
1049.6369	3208.4964	1022.9	143.65
1049.7394	3209.4271	1019.85	138.2
1049.8419	3210.3571	1015.15	136.05
1049.9444	3211.2865	1018.15	136.9
1050.0468	3212.2154	1018.3	138.5
1050.1491	3213.1436	1023.5	138.15
1050.2514	3214.0712	1022.6	136.8
1050.3537	3214.9982	1016.55	137.55
1050.4559	3215.9246	1019.5	138.45
1050.5581	3216.8503	1011.55	132.85
1050.6602	3217.7755	1016.3	136.05
1050.7623	3218.7001	1014.25	134.95
1050.8643	3219.624	1014.05	134.5
1050.9663	3220.5473	1011.65	129.6
1051.0682	3221.4701	1011.2	130.8
1051.1701	3222.3922	1009.85	126.85
1051.2719	3223.3137	1008.3	127.5
1051.3737	3224.2346	1008.95	129.15
1051.4754	3225.1549	1009.8	132
1051.5771	3226.0746	1005.95	128.25
1051.6788	3226.9937	1005.8	126.8
1051.7804	3227.9121	1002.2	123.35
1051.8819	3228.83	1005.25	125.2
1051.9834	3229.7473	1003.15	121.2
1052.0849	3230.6639	1001.15	123
1052.1863	3231.5799	998.8	121.05
1052.2876	3232.4954	1002.65	121.2
1052.3889	3233.4102	1002.35	122.55
1052.4902	3234.3244	1001.85	120.15
1052.5914	3235.238	998.35	116.15
1052.6926	3236.151	1021.35	120.5
1052.7937	3237.0634	996.8	118.2
1052.8948	3237.9752	995.45	117.9
1052.9958	3238.8864	994.5	115
1053.0968	3239.797	998.65	120.6
1053.1977	3240.7069	995.6	115.1
1053.2986	3241.6163	995.75	114.85
1053.3994	3242.5251	994.4	116.65
1053.5002	3243.4332	991.8	112.85
1053.6009	3244.3408	994.35	113.4
1053.7016	3245.2477	992.45	113.65
1053.8022	3246.154	990	107.95
1053.9028	3247.0598	990.6	110.15
1054.0034	3247.9649	990.65	111.2
1054.1039	3248.8694	988.15	107.35
1054.2043	3249.7733	989.6	109.7
1054.3047	3250.6766	987.35	106.85
1054.4051	3251.5793	989.7	109.25
1054.5054	3252.4814	985.35	105.75
1054.6056	3253.3829	985.05	105.7
1054.7058	3254.2838	982.95	103
1054.806	3255.1841	982.85	101.9
1054.9061	3256.0838	983.3	101.25
1055.0061	3256.9829	982.35	104.1
1055.1062	3257.8814	981.7	99.55
1055.2061	3258.7792	984.55	104.2
1055.306	3259.6765	982.85	103.2
1055.4059	3260.5731	977.2	97.7
1055.5057	3261.4692	977.95	97.75
1055.6055	3262.3647	973.65	93.45
1055.7052	3263.2595	973.75	93.7
1055.8049	3264.1538	975.35	94.4
1055.9045	3265.0474	973.6	93.5
1056.0041	3265.9404	967.05	89.2
1056.1036	3266.8329	971.75	92.55
1056.2031	3267.7247	979.75	91.15
1056.3025	3268.616	969.3	91.15
1056.4019	3269.5066	962.45	82.75
1056.5013	3270.3966	964.65	83.65
1056.6005	3271.286	953.35	74.6
