Software Version:	3.9.2.0
Unit SN:	10000200
Spectrometer SN:	6960
Date:	3/6/2024 10:45:12 AM
Data Line Index:	25
Spectral Points:	2048
Integration time (ms):	125
Averages:	20
Delay (ms):	30
Sequence Number:	1
Processing:	dark subtract
Laser Power (mW):	305
Laser Current (mA):	822
Laser Diode Temp (C):	25.1
Laser Case Temp (C):	27.3
System Temp (C):	27.1
Spectrometer Temp (C):	24.5
CCD Temp (C):	0.004
Secondary Temp (C):	20.01
Heatsink Temp (C):	22.923
CCDPCB Temp (C):	36.574
SecondaryPCB Temp (C):	33.617

Wavelength	RamanShift	Raw Counts	Dark Subtracted
787.061	30.1047	1150.15	737
787.2016	32.3739	1179.85	767.95
787.3422	34.6426	1222.75	810.5
787.4828	36.9109	1272.8	857.95
787.6235	39.1787	1339.85	923.35
787.7642	41.4461	1392.2	970.25
787.9049	43.7131	1465.45	1038
788.0456	45.9796	1532.05	1101.75
788.1863	48.2456	1599.25	1164.8
788.3271	50.5112	1669.05	1231.55
788.4679	52.7764	1741.75	1302.75
788.6087	55.0411	1823.4	1380.5
788.7496	57.3054	1907	1456.85
788.8904	59.5692	1997.75	1545.65
789.0313	61.8326	2104.5	1649.4
789.1722	64.0955	2217.85	1759.3
789.3132	66.3579	2339	1875.55
789.4541	68.6199	2503.3	2036.35
789.5951	70.8815	2760.15	2292.5
789.7361	73.1426	3289.9	2815.5
789.8771	75.4032	4625.8	4146.15
790.0181	77.6634	8051.25	7566.7
790.1592	79.9231	17113.4	16625.5
790.3003	82.1824	56222.75	55723.75
790.4414	84.4412	65535	65017.6
790.5825	86.6995	65535	64993.5
790.7237	88.9574	65535	64968.05
790.8648	91.2148	65535	64947.95
791.006	93.4717	65535	64938.4
791.1472	95.7282	65535	64933.4
791.2885	97.9842	65535	64930.95
791.4297	100.2398	65535	64927.2
791.571	102.4949	65535	64925.4
791.7123	104.7495	65535	64920.7
791.8536	107.0036	65535	64920.55
791.9949	109.2573	65535	64922.15
792.1363	111.5105	65535	64917.45
792.2777	113.7632	65535	64918.35
792.4191	116.0154	65535	64905.7
792.5605	118.2672	65535	64912.15
792.7019	120.5185	65535	64913
792.8434	122.7693	65535	64906.65
792.9849	125.0197	65535	64904.35
793.1264	127.2696	65535	64903.4
793.2679	129.519	65535	64900.1
793.4094	131.7679	65535	64894.7
793.551	134.0163	65535	64892.7
793.6926	136.2642	65535	64890.1
793.8342	138.5117	65535	64876.95
793.9758	140.7587	65535	64886.95
794.1175	143.0052	65535	64886.05
794.2591	145.2512	65535	64883.7
794.4008	147.4967	65535	64882.25
794.5425	149.7417	65535	64875.05
794.6842	151.9863	65535	64878.6
794.826	154.2304	65535	64873.65
794.9677	156.4739	65535	64866.85
795.1095	158.717	65535	64865.2
795.2513	160.9596	65535	64858.9
795.3931	163.2017	65535	64865.05
795.535	165.4433	65535	64857.6
795.6768	167.6844	65535	64856.75
795.8187	169.925	65535	64853.7
795.9606	172.1651	65535	64851.05
796.1025	174.4047	65535	64847.7
796.2445	176.6439	65535	64844.15
796.3864	178.8825	65535	64841.75
796.5284	181.1206	65535	64838.65
796.6704	183.3582	65535	64831.8
796.8124	185.5954	65535	64831.65
796.9544	187.832	65535	64832.15
797.0965	190.0681	65535	64828.75
797.2386	192.3037	65535	64823
797.3806	194.5388	65535	64824.45
797.5228	196.7734	65535	64820.1
797.6649	199.0075	65535	64817.1
797.807	201.2411	65535	64810.6
797.9492	203.4742	65535	64812.6
798.0914	205.7068	65535	64811.75
798.2336	207.9389	65535	64812.3
798.3758	210.1704	65535	64806.2
798.518	212.4015	65535	64806.7
798.6603	214.632	65535	64816.35
798.8025	216.862	65535	64821.7
798.9448	219.0915	65535	64828.35
799.0871	221.3205	65535	64824.9
799.2294	223.549	65535	64825.8
799.3718	225.777	65535	64830.35
799.5141	228.0044	65535	64824.3
799.6565	230.2314	65535	64824.35
799.7989	232.4578	65535	64824.25
799.9413	234.6837	65535	64816.4
800.0837	236.909	65535	64811.4
800.2262	239.1339	65535	64791.75
800.3687	241.3582	65535	64800.85
800.5111	243.582	65535	64771.55
800.6536	245.8053	65535	64786.5
800.7961	248.0281	65535	64789.75
800.9387	250.2503	65535	64783.25
801.0812	252.472	65535	64782.55
801.2238	254.6932	65535	64778.4
801.3664	256.9139	65535	64775.65
801.509	259.134	65535	64775.75
801.6516	261.3536	65535	64780.45
801.7942	263.5727	65535	64776.1
801.9369	265.7912	65535	64776.55
802.0795	268.0092	65535	64774
802.2222	270.2267	65535	64772.35
802.3649	272.4436	65535	64773.3
802.5076	274.6601	65535	64762.9
802.6504	276.8759	65535	64771.3
802.7931	279.0913	65535	64768.25
802.9359	281.3061	65535	64768.15
803.0787	283.5204	65535	64765.8
803.2215	285.7341	65535	64758.2
803.3643	287.9473	65535	64746.35
803.5071	290.16	65535	64752.9
803.6499	292.3721	65535	64760.1
803.7928	294.5837	65535	64762.65
803.9357	296.7947	65535	64761.25
804.0786	299.0052	65535	64761.55
804.2215	301.2152	65535	64759.3
804.3644	303.4246	65535	64760.35
804.5074	305.6334	65535	64759.45
804.6503	307.8418	65535	64756.75
804.7933	310.0495	65535	64752.85
804.9363	312.2568	65535	64755.9
805.0793	314.4635	65535	64753.4
805.2223	316.6696	65535	64752.65
805.3653	318.8752	65535	64744.6
805.5084	321.0802	65535	64751.7
805.6514	323.2847	65535	64750.4
805.7945	325.4887	65535	64747.5
805.9376	327.692	65535	64749.2
806.0807	329.8949	65535	64746.25
806.2238	332.0972	65535	64743.15
806.367	334.2989	65535	64741.4
806.5101	336.5001	65535	64741.55
806.6533	338.7007	65535	64740.5
806.7965	340.9008	65535	64738.1
806.9397	343.1003	65535	64733
807.0829	345.2992	65535	64736.25
807.2261	347.4976	65535	64734.3
807.3693	349.6955	65535	64728.3
807.5126	351.8927	65535	64730.55
807.6559	354.0895	65535	64719.55
807.7991	356.2856	65535	64728.75
807.9424	358.4812	65535	64729.85
808.0857	360.6763	65535	64723.5
808.2291	362.8707	65535	64725.35
808.3724	365.0646	65535	64724.9
808.5158	367.258	65535	64719.25
808.6591	369.4508	65535	64714.95
808.8025	371.643	65535	64719.6
808.9459	373.8346	65535	64716.75
809.0893	376.0257	65535	64713.8
809.2327	378.2162	65535	64712.6
809.3762	380.4062	65535	64709.75
809.5196	382.5956	65535	64711.8
809.6631	384.7844	65535	64712.25
809.8066	386.9726	65535	64708.25
809.9501	389.1603	65535	64714.7
810.0936	391.3474	65535	64675.1
810.2371	393.5339	65535	64715.85
810.3806	395.7199	65535	64717.55
810.5241	397.9052	65535	64718.95
810.6677	400.09	65535	64720.3
810.8113	402.2743	65535	64717.9
810.9548	404.4579	65535	64719.95
811.0984	406.641	65535	64719.1
811.2421	408.8235	65535	64718.6
811.3857	411.0054	65535	64718.6
811.5293	413.1868	65535	64713.8
811.673	415.3675	65535	64711.1
811.8166	417.5477	65535	64711.15
811.9603	419.7273	65535	64704.8
812.104	421.9064	65535	64696.85
812.2477	424.0848	65535	64701.45
812.3914	426.2627	65535	64699.25
812.5351	428.4399	65535	64702.7
812.6788	430.6166	65535	64697.2
812.8226	432.7928	65535	64696.8
812.9663	434.9683	65535	64697.65
813.1101	437.1432	65535	64695.1
813.2539	439.3176	65535	64694.3
813.3977	441.4914	65535	64693.5
813.5415	443.6645	65535	64695.65
813.6853	445.8371	65535	64695
813.8291	448.0091	65535	64699.6
813.973	450.1806	65535	64696.8
814.1168	452.3514	65535	64693.2
814.2607	454.5216	65535	64684.6
814.4046	456.6913	65535	64692.15
814.5485	458.8603	65535	64690.2
814.6924	461.0288	65535	64695.9
814.8363	463.1967	65535	64692.45
814.9802	465.3639	65535	64688.45
815.1241	467.5306	65535	64690.4
815.2681	469.6967	65535	64689.4
815.412	471.8622	65535	64692.2
815.556	474.0271	65535	64690.75
815.7	476.1914	65535	64688.75
815.844	478.3551	65535	64689.3
815.988	480.5182	65535	64687.1
816.132	482.6807	65535	64687.45
816.276	484.8426	65535	64688.6
816.4201	487.0039	65535	64687.7
816.5641	489.1647	65535	64682.65
816.7082	491.3248	65535	64686.25
816.8522	493.4843	65535	64687.7
816.9963	495.6432	65535	64684.95
817.1404	497.8015	65535	64680.2
817.2845	499.9592	65535	64684.7
817.4286	502.1163	65535	64683.75
817.5727	504.2728	65535	64679.15
817.7168	506.4287	65535	64684.1
817.861	508.5839	65535	64680.1
818.0051	510.7386	65535	64682.85
818.1493	512.8927	65535	64679.45
818.2935	515.0461	65535	64680.85
818.4377	517.199	65535	64682.05
818.5818	519.3512	65535	64680.4
818.726	521.5029	65535	64673.8
818.8703	523.6539	65535	64677.75
819.0145	525.8043	65535	64676.85
819.1587	527.9541	65535	64674.7
819.303	530.1033	65535	64677.05
819.4472	532.2519	65535	64674.95
819.5915	534.3999	65535	64672.5
819.7357	536.5472	65535	64671.1
819.88	538.694	65535	64672.25
820.0243	540.8401	65535	64672.5
820.1686	542.9856	65535	64673.75
820.3129	545.1305	65535	64668.95
820.4572	547.2748	65535	64666.8
820.6016	549.4185	65535	64665.9
820.7459	551.5615	65535	64668.05
820.8902	553.704	65535	64664.3
821.0346	555.8458	65535	64669.75
821.1789	557.987	65535	64669.9
821.3233	560.1276	65535	64668.1
821.4677	562.2675	65535	64670.5
821.6121	564.4069	65535	64667.75
821.7565	566.5456	65535	64671.05
821.9009	568.6837	65535	64669.75
822.0453	570.8212	65535	64671.25
822.1897	572.958	65535	64666.75
822.3342	575.0942	65535	64672.4
822.4786	577.2299	65535	64672.35
822.6231	579.3648	65535	64670.2
822.7675	581.4992	65535	64672.3
822.912	583.6329	65535	64674.3
823.0565	585.766	65535	64674.1
823.201	587.8985	65535	64671.25
823.3454	590.0304	65535	64642.2
823.4899	592.1616	65535	64665.4
823.6345	594.2922	65535	64663.3
823.779	596.4222	65535	64665.3
823.9235	598.5515	65535	64664.95
824.068	600.6802	65535	64663.45
824.2126	602.8083	65535	64661.95
824.3571	604.9358	65535	64664.05
824.5017	607.0626	65535	64663
824.6462	609.1888	65535	64660.05
824.7908	611.3144	65535	64664
824.9354	613.4393	65535	64660.95
825.08	615.5636	65535	64662.1
825.2246	617.6873	65535	64660.2
825.3692	619.8103	65535	64660.25
825.5138	621.9327	65535	64659.4
825.6584	624.0544	65535	64662.75
825.803	626.1756	65535	64663.55
825.9477	628.2961	65535	64660.7
826.0923	630.4159	65535	64661.5
826.237	632.5351	65535	64655.95
826.3816	634.6537	65535	64658.1
826.5263	636.7716	65535	64656.15
826.6709	638.8889	65535	64656.6
826.8156	641.0056	65535	64654.2
826.9603	643.1216	65535	64654.35
827.105	645.237	65535	64656.65
827.2497	647.3518	65535	64656.7
827.3944	649.4659	65535	64659.9
827.5391	651.5793	65535	64655.15
827.6838	653.6922	65535	64656.6
827.8285	655.8043	65535	64659.15
827.9733	657.9159	65535	64657.45
828.118	660.0268	65535	64653.25
828.2627	662.137	65535	64652.9
828.4075	664.2466	65535	64654.1
828.5522	666.3556	65535	64652.4
828.697	668.4639	65535	64652.75
828.8418	670.5716	65535	64656.05
828.9865	672.6786	65535	64652.6
829.1313	674.785	65535	64650.1
829.2761	676.8907	65535	64651.75
829.4209	678.9958	65535	64653.95
829.5657	681.1002	65535	64651
829.7105	683.204	65535	64647.45
829.8553	685.3072	65535	64649.65
830.0001	687.4097	65535	64651.65
830.1449	689.5115	65535	64647.75
830.2898	691.6127	65535	64653.2
830.4346	693.7132	65535	64649.45
830.5794	695.8131	65535	64637.25
830.7243	697.9123	65535	64648.55
830.8691	700.0109	65535	64648.45
831.014	702.1089	65535	64654
831.1588	704.2061	65535	64651.75
831.3037	706.3028	65535	64648.45
831.4486	708.3987	65535	64650.2
831.5935	710.4941	65535	64647.15
831.7383	712.5887	65535	64646.3
831.8832	714.6827	65535	64645.85
832.0281	716.7761	65535	64647.9
832.173	718.8688	65535	64649.2
832.3179	720.9608	65535	64641.75
832.4628	723.0522	65535	64645.6
832.6077	725.1429	65535	64648.55
832.7527	727.233	65535	64646.75
832.8976	729.3224	65535	64646.7
833.0425	731.4112	65535	64645.75
833.1874	733.4993	65535	64646
833.3324	735.5867	65535	64645.35
833.4773	737.6735	65535	64643
833.6222	739.7596	65535	64644.85
833.7672	741.845	65535	64644.6
833.9122	743.9298	65535	64641.65
834.0571	746.014	65535	64645.25
834.2021	748.0974	65535	64645.1
834.347	750.1802	65535	64643.05
834.492	752.2624	65535	64643.65
834.637	754.3439	65535	64643.6
834.782	756.4247	65535	64637.3
834.9269	758.5048	65535	64644.8
835.0719	760.5843	65535	64642.25
835.2169	762.6631	65535	64640.85
835.3619	764.7413	65535	64644
835.5069	766.8188	65535	64642.45
835.6519	768.8956	65535	64640.25
835.7969	770.9718	65535	64641.25
835.9419	773.0473	65535	64640.75
836.0869	775.1221	65535	64643.7
836.232	777.1962	65535	64642.4
836.377	779.2697	65535	64643.1
836.522	781.3426	65535	64623.75
836.667	783.4147	65535	64641.5
836.8121	785.4862	65535	64643.4
836.9571	787.557	65535	64641.65
837.1021	789.6271	65535	64643.5
837.2472	791.6966	65535	64641.05
837.3922	793.7654	65535	64640.05
837.5373	795.8335	65535	64642.3
837.6823	797.901	65535	64642.75
837.8274	799.9678	65535	64640.95
837.9724	802.0339	65535	64642.9
838.1175	804.0993	65535	64629.3
838.2626	806.1641	65535	64638.85
838.4076	808.2282	65535	64639.4
838.5527	810.2916	65535	64638.75
838.6978	812.3544	65535	64641.85
838.8428	814.4164	65535	64646.15
838.9879	816.4778	65535	64638.9
839.133	818.5385	65535	64641.8
839.2781	820.5986	65535	64639.9
839.4232	822.658	65535	64639.4
839.5682	824.7166	65535	64640.2
839.7133	826.7747	65535	64639.1
839.8584	828.832	65535	64639.3
840.0035	830.8886	65535	64636.15
840.1486	832.9446	65535	64639.7
840.2937	834.9999	65535	64645.7
840.4388	837.0545	65535	64634.85
840.5839	839.1085	65535	64642.6
840.729	841.1618	65535	64634.2
840.8741	843.2143	65535	64639.05
841.0192	845.2662	65535	64639.7
841.1643	847.3175	65535	64639.8
841.3095	849.368	65535	64638.35
841.4546	851.4179	65535	64639.6
841.5997	853.467	65535	64639.1
841.7448	855.5155	65535	64639
841.8899	857.5633	65535	64639.6
842.0351	859.6105	65535	64639.7
842.1802	861.6569	65535	64638.7
842.3253	863.7027	65535	64634.9
842.4704	865.7478	65535	64637.55
842.6156	867.7922	65535	64637.95
842.7607	869.8359	65535	64638.3
842.9058	871.8789	65535	64636.55
843.0509	873.9212	65535	64605.35
843.1961	875.9629	65535	64635.6
843.3412	878.0039	65535	64636.55
843.4863	880.0441	65535	64638.8
843.6315	882.0837	65535	64638.55
843.7766	884.1226	65535	64637.35
843.9218	886.1609	65535	64639.8
844.0669	888.1984	65535	64636.7
844.212	890.2352	65535	64638.5
844.3572	892.2714	65535	64632.75
844.5023	894.3069	65535	64636.85
844.6475	896.3416	65535	64634.15
844.7926	898.3757	65535	64636.9
844.9377	900.4091	65535	64633.4
845.0829	902.4418	65535	64631.35
845.228	904.4739	65535	64633.55
845.3732	906.5052	65535	64634.8
845.5183	908.5358	65535	64635.8
845.6635	910.5658	65535	64634.35
845.8086	912.595	65535	64634.2
845.9538	914.6236	65535	64636.7
846.0989	916.6515	65535	64631.9
846.2441	918.6786	65535	64632.95
846.3892	920.7051	65535	64633.85
846.5344	922.7309	65535	64633.75
846.6795	924.756	65535	64633.65
846.8246	926.7804	65535	64635
846.9698	928.8041	65535	64632.4
847.1149	930.8272	65535	64636
847.2601	932.8495	65535	64631.3
847.4052	934.8711	65535	64633.9
847.5504	936.892	65535	64632.75
847.6955	938.9123	65535	64635.5
847.8407	940.9318	65535	64634.9
847.9858	942.9506	65535	64632.15
848.131	944.9688	65535	64635.45
848.2761	946.9862	65535	64633.55
848.4213	949.003	65535	64634.2
848.5664	951.019	65535	64632.5
848.7115	953.0344	65535	64634.45
848.8567	955.0491	65535	64633
849.0018	957.063	65535	64635.7
849.147	959.0763	65535	64633.95
849.2921	961.0888	65535	64631.85
849.4373	963.1007	65535	64632.35
849.5824	965.1119	65535	64635.15
849.7275	967.1223	65535	64635.8
849.8727	969.1321	65535	64637
850.0178	971.1412	65535	64635.7
850.1629	973.1495	65535	64633.8
850.3081	975.1572	65535	64601.95
850.4532	977.1641	65535	64632.5
850.5983	979.1704	65535	64633.8
850.7435	981.1759	65535	64629.55
850.8886	983.1808	65535	64635.65
851.0337	985.1849	65535	64622.4
851.1788	987.1884	65535	64630.65
851.324	989.1911	65535	64629.65
851.4691	991.1932	65535	64631.55
851.6142	993.1945	65535	64635.25
851.7593	995.1951	65535	64634.9
851.9045	997.1951	65535	64626.8
852.0496	999.1943	65535	64632.9
852.1947	1001.1928	65535	64633.15
852.3398	1003.1906	65535	64635.35
852.4849	1005.1877	65535	64631.05
852.63	1007.1841	65535	64632
852.7751	1009.1798	65535	64633.4
852.9202	1011.1748	65535	64634.15
853.0653	1013.1691	65535	64632.6
853.2104	1015.1627	65535	64634.65
853.3555	1017.1556	65535	64632.75
853.5006	1019.1477	65535	64631.45
853.6457	1021.1392	65535	64635.2
853.7908	1023.1299	65535	64633.1
853.9359	1025.12	65535	64635.75
854.081	1027.1093	65535	64639.25
854.2261	1029.0979	65535	64635.5
854.3712	1031.0859	65535	64635.5
854.5163	1033.0731	65535	64632.6
854.6613	1035.0596	65535	64633.55
854.8064	1037.0454	65535	64633.15
854.9515	1039.0304	65535	64633.1
855.0965	1041.0148	65535	64632.15
855.2416	1042.9985	65535	64631.55
855.3867	1044.9814	65535	64634.6
855.5317	1046.9636	65535	64631.8
855.6768	1048.9452	65535	64634.95
855.8219	1050.926	65535	64636.15
855.9669	1052.9061	65535	64634.5
856.112	1054.8855	65535	64632.6
856.257	1056.8642	65535	64633.9
856.4021	1058.8421	65535	64627.6
856.5471	1060.8194	65535	64632.7
856.6921	1062.7959	65535	64633.2
856.8372	1064.7717	65535	64632.8
856.9822	1066.7469	65535	64635.05
857.1272	1068.7213	65535	64630.85
857.2723	1070.695	65535	64633.25
857.4173	1072.6679	65535	64631.7
857.5623	1074.6402	65535	64630.7
857.7073	1076.6117	65535	64627.95
857.8523	1078.5826	65535	64632.75
857.9973	1080.5527	65535	64630.2
858.1423	1082.5221	65535	64633.25
858.2873	1084.4908	65535	64633.55
858.4323	1086.4587	65535	64633.5
858.5773	1088.426	65535	64633.95
858.7223	1090.3925	65535	64627.8
858.8673	1092.3584	65535	64632.7
859.0123	1094.3235	65535	64632.15
859.1573	1096.2879	65535	64631.8
859.3022	1098.2515	65535	64634.6
859.4472	1100.2145	65535	64632.4
859.5922	1102.1767	65535	64630.6
859.7371	1104.1382	65535	64631.8
859.8821	1106.099	65535	64632.85
860.027	1108.0591	65535	64632.45
860.172	1110.0185	65535	64632.05
860.3169	1111.9771	65535	64634
860.4619	1113.9351	65535	64632.3
860.6068	1115.8923	65535	64633.3
860.7517	1117.8488	65535	64629.15
860.8967	1119.8045	65535	64632.85
861.0416	1121.7596	65535	64633.9
861.1865	1123.7139	65535	64634.8
861.3314	1125.6675	65535	64634.65
861.4763	1127.6204	65535	64633.75
861.6212	1129.5726	65535	64631.35
861.7661	1131.524	65535	64636.7
861.911	1133.4748	65535	64632.95
862.0559	1135.4248	65535	64632.5
862.2008	1137.3741	65535	64633.95
862.3457	1139.3226	65535	64632.8
862.4905	1141.2705	65535	64633.45
862.6354	1143.2176	65535	64626.15
862.7803	1145.164	65535	64629.7
862.9251	1147.1097	65535	64632.05
863.07	1149.0546	65535	64632.85
863.2148	1150.9989	65535	64632.9
863.3597	1152.9424	65535	64634.15
863.5045	1154.8852	65535	64632.1
863.6493	1156.8272	65535	64635.05
863.7942	1158.7686	65535	64623.55
863.939	1160.7092	65535	64632.55
864.0838	1162.6491	65535	64630.9
864.2286	1164.5883	65535	64633.7
864.3734	1166.5267	65535	64630.45
864.5182	1168.4644	65535	64631.3
864.663	1170.4014	65535	64627.35
864.8078	1172.3377	65535	64634.45
864.9526	1174.2732	65535	64635.3
865.0974	1176.2081	65535	64634.25
865.2421	1178.1421	65535	64627.7
865.3869	1180.0755	65535	64635.3
865.5317	1182.0082	65535	64632.6
865.6764	1183.9401	65535	64632.3
865.8212	1185.8713	65535	64632.2
865.9659	1187.8017	65535	64631.3
866.1106	1189.7315	65535	64636.25
866.2554	1191.6605	65535	64606.1
866.4001	1193.5888	65535	64633
866.5448	1195.5163	65535	64636.25
866.6895	1197.4432	65535	64632.15
866.8342	1199.3693	65535	64634.05
866.9789	1201.2947	65535	64630.2
867.1236	1203.2193	65535	64629.95
867.2683	1205.1432	65535	64633.7
867.413	1207.0664	65535	64635.25
867.5576	1208.9889	65535	64630.95
867.7023	1210.9106	65535	64633.55
867.847	1212.8316	65535	64634.05
867.9916	1214.7519	65535	64625.15
868.1363	1216.6715	65535	64632.85
868.2809	1218.5903	65535	64634.95
868.4255	1220.5084	65535	64632.9
868.5701	1222.4257	65535	64632.8
868.7148	1224.3424	65535	64633.75
868.8594	1226.2583	65535	64629.15
869.004	1228.1735	65535	64631
869.1486	1230.0879	65535	64633.6
869.2932	1232.0016	65535	64634.4
869.4377	1233.9146	65535	64632.95
869.5823	1235.8269	65535	64634.8
869.7269	1237.7384	65535	64633.35
869.8715	1239.6492	65535	64635.55
870.016	1241.5592	65535	64632.4
870.1606	1243.4686	65535	64633.9
870.3051	1245.3772	65535	64634.95
870.4496	1247.285	65535	64632.6
870.5941	1249.1922	65535	64634.4
870.7387	1251.0986	65535	64633.35
870.8832	1253.0042	65535	64634.35
871.0277	1254.9092	65535	64633.7
871.1722	1256.8134	65535	64636.15
871.3167	1258.7169	65535	64633.05
871.4611	1260.6196	65535	64634.6
871.6056	1262.5216	65535	64631.3
871.7501	1264.4229	65535	64635.35
871.8945	1266.3234	65535	64632.75
872.039	1268.2232	65535	64631.75
872.1834	1270.1223	65535	64633.8
872.3278	1272.0207	65535	64632.2
872.4723	1273.9183	65535	64628.7
872.6167	1275.8151	65535	64634.55
872.7611	1277.7113	65535	64632.9
872.9055	1279.6067	65535	64632.3
873.0499	1281.5014	65535	64632.45
873.1943	1283.3953	65535	64632.2
873.3386	1285.2885	65535	64634.25
873.483	1287.181	65535	64633.65
873.6274	1289.0727	65535	64634.5
873.7717	1290.9637	65535	64632.6
873.9161	1292.854	65535	64636.25
874.0604	1294.7435	65535	64632.15
874.2047	1296.6323	65535	64633.6
874.349	1298.5204	65535	64630.25
874.4933	1300.4077	65535	64632.85
874.6376	1302.2943	65535	64634.8
874.7819	1304.1802	65535	64632.4
874.9262	1306.0653	65535	64632.55
875.0705	1307.9497	65535	64633.85
875.2147	1309.8333	65535	64634.15
875.359	1311.7162	65535	64631.6
875.5032	1313.5984	65535	64628.9
875.6475	1315.4798	65535	64621.2
875.7917	1317.3605	65535	64619
875.9359	1319.2405	65535	64632.7
876.0801	1321.1197	65535	64633.3
876.2243	1322.9982	65535	64629.8
876.3685	1324.876	65535	64633.6
876.5127	1326.753	65535	64634.75
876.6569	1328.6293	65535	64632.65
876.801	1330.5048	65535	64630.8
876.9452	1332.3796	65535	64634.5
877.0893	1334.2537	65535	64608.65
877.2335	1336.127	65535	64632.95
877.3776	1337.9996	65535	64632.7
877.5217	1339.8714	65535	64633.85
877.6658	1341.7426	65535	64591.6
877.8099	1343.6129	65535	64631
877.954	1345.4826	65535	64632.9
878.0981	1347.3515	65535	64630.1
878.2422	1349.2196	65535	64633.45
878.3862	1351.087	65535	64633.8
878.5303	1352.9537	65535	64634.05
878.6743	1354.8197	65535	64634.15
878.8184	1356.6849	65535	64632.5
878.9624	1358.5493	65535	64632.75
879.1064	1360.4131	65535	64632.95
879.2504	1362.276	65535	64632.4
879.3944	1364.1383	65535	64631.7
879.5384	1365.9998	65535	64628.25
879.6823	1367.8606	65535	64633
879.8263	1369.7206	65535	64632.25
879.9702	1371.5799	65535	64629.15
880.1142	1373.4384	65535	64632.8
880.2581	1375.2962	65535	64632.65
880.402	1377.1533	65535	64634.05
880.5459	1379.0096	65535	64633
880.6898	1380.8652	65535	64632.05
880.8337	1382.7201	65535	64634.6
880.9776	1384.5742	65535	64632.25
881.1215	1386.4275	65535	64633.35
881.2653	1388.2802	65535	64631.75
881.4092	1390.132	65535	64633.3
881.553	1391.9832	65535	64630.95
881.6968	1393.8336	65535	64633.2
881.8406	1395.6832	65535	64631.3
881.9844	1397.5322	65535	64634.4
882.1282	1399.3803	65535	64628.65
882.272	1401.2278	65535	64633.25
882.4158	1403.0745	65535	64631.95
882.5595	1404.9204	65535	64632.85
882.7033	1406.7656	65535	64637.05
882.847	1408.6101	65535	64633.1
882.9908	1410.4538	65535	64633.75
883.1345	1412.2968	65535	64633.4
883.2782	1414.139	65535	64633.4
883.4219	1415.9805	65535	64633.55
883.5656	1417.8213	65535	64627.15
883.7092	1419.6613	65535	64634.45
883.8529	1421.5006	65535	64631.65
883.9965	1423.3391	65535	64633.7
884.1402	1425.1769	65535	64633.45
884.2838	1427.0139	65535	64633.55
884.4274	1428.8502	65535	64633.2
884.571	1430.6858	65535	64633.4
884.7146	1432.5206	65535	64632.35
884.8582	1434.3547	65535	64631.6
885.0018	1436.188	65535	64633.75
885.1453	1438.0206	65535	64633.9
885.2889	1439.8524	65535	64632.05
885.4324	1441.6835	65535	64633.8
885.5759	1443.5139	65535	64630.25
885.7194	1445.3435	65535	64633.15
885.8629	1447.1724	65535	64633.25
886.0064	1449.0005	65535	64634.2
886.1499	1450.8279	65535	64630.55
886.2933	1452.6545	65535	64636.2
886.4368	1454.4804	65535	64632.6
886.5802	1456.3056	65535	64627.7
886.7237	1458.13	65535	64633.4
886.8671	1459.9536	65535	64632.8
887.0105	1461.7766	65535	64633.55
887.1539	1463.5987	65535	64634.05
887.2972	1465.4202	65535	64634.15
887.4406	1467.2409	65535	64633.45
887.584	1469.0608	65535	64633.7
887.7273	1470.88	65535	64633.25
887.8706	1472.6984	65535	64635.7
888.0139	1474.5161	65535	64632.55
888.1572	1476.3331	65535	64633.9
888.3005	1478.1493	65535	64633.4
888.4438	1479.9648	65535	64635.65
888.5871	1481.7795	65535	64635.65
888.7303	1483.5935	65535	64635.5
888.8736	1485.4067	65535	64632.2
889.0168	1487.2192	65535	64634.5
889.16	1489.031	65535	64632.1
889.3032	1490.842	65535	64634.25
889.4464	1492.6522	65535	64634.65
889.5896	1494.4618	65535	64632.75
889.7327	1496.2705	65535	64634.5
889.8759	1498.0785	65535	64632.9
890.019	1499.8858	65535	64634.5
890.1622	1501.6924	65535	64634.4
890.3053	1503.4981	65535	64633.75
890.4484	1505.3032	65535	64633.6
890.5914	1507.1075	65535	64636.35
890.7345	1508.911	65535	64635.85
890.8776	1510.7138	65535	64633.8
891.0206	1512.5159	65535	64634.15
891.1637	1514.3172	65535	64634.4
891.3067	1516.1178	65535	64635.95
891.4497	1517.9176	65535	64632.1
891.5927	1519.7166	65535	64633.75
891.7357	1521.515	65535	64630.7
891.8786	1523.3126	65535	64636.05
892.0216	1525.1094	65535	64632.4
892.1645	1526.9055	65535	64636.15
892.3074	1528.7008	65535	64635.7
892.4503	1530.4954	65535	64631.55
892.5932	1532.2893	65535	64637
892.7361	1534.0824	65535	64630.6
892.879	1535.8747	65535	64635.25
893.0218	1537.6663	65535	64634.1
893.1647	1539.4572	65535	64634.6
893.3075	1541.2473	65535	64633.6
893.4503	1543.0367	65535	64634.1
893.5931	1544.8253	65535	64631.15
893.7359	1546.6132	65535	64631.9
893.8787	1548.4003	65535	64627.9
894.0214	1550.1867	65535	64626.5
894.1642	1551.9723	65535	64630.55
894.3069	1553.7572	65535	64634.75
894.4496	1555.5414	65535	64636.25
894.5923	1557.3247	65535	64635.85
894.735	1559.1074	65535	64636.3
894.8777	1560.8893	65535	64638.75
895.0204	1562.6705	65535	64637.7
895.163	1564.4509	65535	64636.1
895.3056	1566.2305	65535	64635.4
895.4482	1568.0094	65535	64637
895.5908	1569.7876	65535	64638
895.7334	1571.565	65535	64635.9
895.876	1573.3417	65535	64637.75
896.0186	1575.1176	65535	64636.95
896.1611	1576.8928	65535	64637.3
896.3036	1578.6672	65535	64637.05
896.4461	1580.4409	65535	64636.75
896.5886	1582.2138	65535	64633.55
896.7311	1583.986	65535	64636.45
896.8736	1585.7575	65535	64637.35
897.0161	1587.5282	65535	64637.95
897.1585	1589.2981	65535	64639.05
897.3009	1591.0673	65534.1	64637.4
897.4433	1592.8358	65511.05	64614.75
897.5857	1594.6035	65533.2	64633.8
897.7281	1596.3704	65532.2	64632
897.8705	1598.1366	65479.65	64582.6
898.0128	1599.9021	65423	64526.6
898.1551	1601.6668	65510.85	64612.05
898.2975	1603.4308	65478.5	64579.6
898.4398	1605.194	65470.85	64567.65
898.5821	1606.9564	65287.95	64391.65
898.7243	1608.7182	65416.85	64518.1
898.8666	1610.4791	65282.4	64387.15
899.0088	1612.2394	65417.75	64522.95
899.1511	1613.9988	65184.85	64289.2
899.2933	1615.7576	65432.7	64537
899.4355	1617.5156	65436.3	64535.5
899.5776	1619.2728	65504	64606.8
899.7198	1621.0293	65298.3	64401.75
899.862	1622.785	65322.3	64423.2
900.0041	1624.54	65421.5	64522.95
900.1462	1626.2942	65217.9	64321.15
900.2883	1628.0477	64744.05	63844.2
900.4304	1629.8005	64147.05	63246.4
900.5725	1631.5525	64815.9	63919
900.7145	1633.3037	63868.7	62972.6
900.8566	1635.0542	63639.05	62745.25
900.9986	1636.804	64178.55	63284
901.1406	1638.553	62981.15	62001.8
901.2826	1640.3013	63419.35	62522.45
901.4245	1642.0488	62642.8	61746.6
901.5665	1643.7955	63215.55	62321.6
901.7085	1645.5416	62598.25	61702.35
901.8504	1647.2868	62060.1	61166.5
901.9923	1649.0313	63064.4	62167.55
902.1342	1650.7751	62492.85	61594.45
902.2761	1652.5181	62061.85	61164.8
902.4179	1654.2604	62176.95	61281.95
902.5598	1656.0019	62512.45	61618.8
902.7016	1657.7427	62342.45	61447.55
902.8434	1659.4828	63047.3	62150.05
902.9852	1661.222	62367.1	61469
903.127	1662.9606	63174.45	62280.15
903.2687	1664.6984	62094.75	61200.95
903.4105	1666.4354	62443	61546.3
903.5522	1668.1717	61194.45	60296.9
903.6939	1669.9072	60227.35	59332.9
903.8356	1671.642	60046.9	59149.65
903.9773	1673.3761	59719.95	58822.85
904.119	1675.1094	59518.25	58621.05
904.2606	1676.8419	58742.65	57847.45
904.4022	1678.5737	58684.75	57788.35
904.5439	1680.3048	58355.35	57459.2
904.6855	1682.0351	57983.25	57088.75
904.827	1683.7646	57693.35	56793.4
904.9686	1685.4934	57851.6	56954.45
905.1101	1687.2215	56696.25	55801
905.2517	1688.9488	57444.35	56550.6
905.3932	1690.6754	55788.55	54895.05
905.5347	1692.4012	56426.7	55530.55
905.6761	1694.1263	56350.95	55455.25
905.8176	1695.8506	55846.65	54949.9
905.9591	1697.5742	55722.05	54826.1
906.1005	1699.297	55518.8	54625.35
906.2419	1701.0191	55410.4	54515.35
906.3833	1702.7404	54816.1	53921.55
906.5246	1704.461	54601.7	53704.8
906.666	1706.1808	54588.8	53690.85
906.8073	1707.8999	54430.2	53534.5
906.9487	1709.6182	54181.45	53285.9
907.09	1711.3358	54030.3	53135.2
907.2313	1713.0527	53794.45	52902.45
907.3725	1714.7688	53723.9	52824.55
907.5138	1716.4841	53094.3	52197.95
907.655	1718.1987	53297.15	52398.65
907.7962	1719.9126	52928.4	52034.2
907.9374	1721.6257	52871.3	51974.6
908.0786	1723.338	52900.3	52005.35
908.2198	1725.0496	52192.05	51296.7
908.3609	1726.7605	52163.2	51268.9
908.502	1728.4706	51918.15	51022.15
908.6431	1730.18	51781.05	50884.35
908.7842	1731.8886	51619.2	50726.6
908.9253	1733.5964	51477.85	50563.35
909.0664	1735.3036	51431.15	50532.3
909.2074	1737.0099	51236.65	50343.7
909.3484	1738.7156	50941.75	50048.15
909.4894	1740.4204	50739.2	49844.6
909.6304	1742.1246	50626.15	49730.15
909.7714	1743.8279	50579.25	49683.9
909.9123	1745.5306	50466.2	49569.45
910.0532	1747.2325	50091.95	49198.65
910.1941	1748.9336	49957.55	49063.5
910.335	1750.634	49725.15	48831.5
910.4759	1752.3336	49775.85	48883.3
910.6168	1754.0325	49503.3	48610.5
910.7576	1755.7307	49471.1	48575.85
910.8984	1757.4281	49292.5	48398.6
911.0392	1759.1247	49328.55	48427.75
911.18	1760.8206	49026.5	48127.95
911.3208	1762.5158	49002.3	48104.55
911.4615	1764.2102	48766.65	47875.15
911.6022	1765.9039	48548.2	47653.65
911.7429	1767.5968	48470.45	47576.25
911.8836	1769.289	48327.15	47432.85
912.0243	1770.9804	48217.25	47321.35
912.1649	1772.6711	48106.3	47212
912.3056	1774.361	47914.3	47018.75
912.4462	1776.0502	47818.1	46923.85
912.5868	1777.7386	47633.85	46737.2
912.7274	1779.4263	47496.55	46603.65
912.8679	1781.1132	47465.2	46570.2
913.0084	1782.7994	47245.1	46350.35
913.149	1784.4849	47130.3	46237.7
913.2895	1786.1696	46945.55	46043.85
913.4299	1787.8535	46830.85	45937.65
913.5704	1789.5367	46661.45	45767.5
913.7108	1791.2192	46624.4	45730.7
913.8513	1792.9009	46392.85	45466.45
913.9917	1794.5818	46264.9	45368.8
914.132	1796.2621	46123.5	45230.5
914.2724	1797.9415	46054.55	45160.35
914.4128	1799.6202	45873.05	44980.05
914.5531	1801.2982	45762.2	44869.5
914.6934	1802.9755	45642.1	44747.1
914.8337	1804.6519	45540.85	44646.45
914.9739	1806.3277	45277.05	44382.1
915.1142	1808.0027	45031.85	44140.4
915.2544	1809.6769	45054.05	44160.4
915.3946	1811.3504	44941.25	44045.55
915.5348	1813.0231	44832.35	43938.9
915.675	1814.6951	44660.9	43766.1
915.8151	1816.3664	44703.1	43807.95
915.9553	1818.0369	44503.45	43608.1
916.0954	1819.7067	44364.95	43473.8
916.2355	1821.3757	44265.35	43370.5
916.3755	1823.044	44121.5	43228.5
916.5156	1824.7115	43996.85	43104.75
916.6556	1826.3783	43751.8	42859.1
916.7956	1828.0443	43648.2	42755.95
916.9356	1829.7096	43524.7	42632.1
917.0756	1831.3741	43464.8	42566.6
917.2155	1833.0379	43332.35	42438.85
917.3555	1834.701	43182.05	42287.1
917.4954	1836.3633	43058.25	42164.15
917.6353	1838.0248	42898.2	42002.6
917.7751	1839.6856	42846.5	41953.6
917.915	1841.3457	42771.35	41878.4
918.0548	1843.005	42657.45	41764.7
918.1946	1844.6636	42587.25	41696
918.3344	1846.3214	42381.35	41486.8
918.4742	1847.9785	42333.15	41438.85
918.6139	1849.6349	42227.8	41332.65
918.7537	1851.2904	42106.15	41203.7
918.8934	1852.9453	41956.6	41060.15
919.0331	1854.5994	41870.4	40974.9
919.1727	1856.2528	41877.2	40979.95
919.3124	1857.9054	41689.3	40796.95
919.452	1859.5572	41613.15	40719.7
919.5916	1861.2083	41526.6	40632.4
919.7312	1862.8587	41499.4	40605.65
919.8708	1864.5084	41369.35	40473.95
920.0103	1866.1572	41202.95	40308.3
920.1498	1867.8054	40990.15	40096.4
920.2893	1869.4528	40924.1	40029.7
920.4288	1871.0994	40722.6	39827.5
920.5683	1872.7453	40686.25	39791.5
920.7077	1874.3905	40573.6	39671.6
920.8471	1876.0349	40397.05	39501.5
920.9865	1877.6786	40393.85	39498.55
921.1259	1879.3215	40350.8	39459.25
921.2653	1880.9637	40216.9	39323.75
921.4046	1882.6051	40132	39239.25
921.5439	1884.2458	39996.5	39101.9
921.6832	1885.8858	39826.2	38930.9
921.8225	1887.525	39721.85	38827.85
921.9617	1889.1634	39513.15	38616.35
922.101	1890.8011	39407	38512.75
922.2402	1892.4381	39224.75	38329.7
922.3794	1894.0743	39227.7	38335.6
922.5185	1895.7098	39086.25	38194.3
922.6577	1897.3446	38996.9	38103.75
922.7968	1898.9786	38873.15	37975.3
922.9359	1900.6118	38783.75	37889.75
923.075	1902.2443	38541.85	37645.15
923.214	1903.8761	38459.2	37566.65
923.3531	1905.5071	38219.6	37324.6
923.4921	1907.1374	38187.65	37293.2
923.6311	1908.7669	38065.5	37174.35
923.77	1910.3957	38020.25	37126.65
923.909	1912.0237	37729.15	36837.4
924.0479	1913.651	37641.4	36745.55
924.1868	1915.2776	37548.05	36656.45
924.3257	1916.9034	37421.65	36530.2
924.4646	1918.5285	37202.2	36309.55
924.6034	1920.1528	37001.05	36107.6
924.7422	1921.7764	36959.4	36068.85
924.881	1923.3992	36801.65	35909.45
925.0198	1925.0213	36547.05	35654.25
925.1586	1926.6427	36412.85	35521.5
925.2973	1928.2633	36430	35421.15
925.436	1929.8832	36213.7	35319.1
925.5747	1931.5023	35978.8	35085.15
925.7134	1933.1207	35915.45	35022
925.852	1934.7383	35829.2	34937.45
925.9906	1936.3552	35712.6	34819.3
926.1292	1937.9714	35602.55	34709.15
926.2678	1939.5868	35438.5	34545
926.4064	1941.2015	35250.3	34357.3
926.5449	1942.8154	35116.75	34223.7
926.6834	1944.4286	34986.05	34092.9
926.8219	1946.041	34887.75	33977.1
926.9604	1947.6528	34606.25	33708.25
927.0988	1949.2637	34565.4	33671.55
927.2372	1950.8739	34453.4	33561.9
927.3756	1952.4834	34336.1	33441.95
927.514	1954.0921	34256.45	33363.6
927.6523	1955.7001	34142.3	33244.7
927.7907	1957.3074	34017.7	33127.3
927.929	1958.9139	33839.1	32947.3
928.0673	1960.5197	33701.45	32809.4
928.2055	1962.1247	33509.6	32617.3
928.3438	1963.729	33387.4	32495.45
928.482	1965.3325	33301.45	32387
928.6202	1966.9353	33113.3	32222.25
928.7584	1968.5374	33043.05	32149.7
928.8965	1970.1387	32908.6	32015.3
929.0346	1971.7393	32752.05	31857.85
929.1727	1973.3392	32677.6	31784.5
929.3108	1974.9383	32565.75	31675.55
929.4489	1976.5366	32459.9	31567
929.5869	1978.1342	32360.3	31465.4
929.7249	1979.7311	32197.55	31301.95
929.8629	1981.3273	32130.55	31237.25
930.0009	1982.9227	32006.9	31112.8
930.1388	1984.5173	31913.65	31022.4
930.2767	1986.1112	31751	30858.8
930.4146	1987.7044	31668.3	30776.1
930.5525	1989.2968	31567.95	30675.25
930.6904	1990.8885	31477.55	30582.2
930.8282	1992.4795	31345.6	30450.3
930.966	1994.0697	31216.6	30323.9
931.1038	1995.6592	31107.55	30215.5
931.2415	1997.2479	31004.9	30111.1
931.3793	1998.8359	30948.65	30057.85
931.517	2000.4232	30768	29875
931.6547	2002.0097	30634.8	29744.35
931.7923	2003.5955	30487.05	29593.95
931.93	2005.1805	30486.45	29592.05
932.0676	2006.7648	30386.4	29495.5
932.2052	2008.3484	30273.6	29379.9
932.3427	2009.9312	30249	29355.65
932.4803	2011.5133	30114.5	29222.5
932.6178	2013.0946	30011.2	29120.4
932.7553	2014.6752	29934	29043.2
932.8928	2016.2551	29884.85	28990.7
933.0302	2017.8342	29709.95	28816.85
933.1676	2019.4126	29604.55	28712.35
933.305	2020.9902	29486.05	28596.1
933.4424	2022.5672	29412.15	28519.75
933.5798	2024.1433	29304.45	28408.65
933.7171	2025.7188	29227.1	28337.35
933.8544	2027.2935	29093.45	28203.75
933.9917	2028.8674	29000.95	28108.95
934.129	2030.4406	28849.15	27958.15
934.2662	2032.0131	28761.65	27869.9
934.4034	2033.5849	28632.25	27733.65
934.5406	2035.1559	28572.95	27682.25
934.6778	2036.7261	28544.35	27652.4
934.8149	2038.2957	28436.75	27545.8
934.952	2039.8645	28342	27452.05
935.0891	2041.4325	28390.5	27495.65
935.2262	2042.9998	28202.05	27311.2
935.3632	2044.5664	28144.15	27251.95
935.5002	2046.1323	28031.5	27140.45
935.6372	2047.6974	27953.4	27064.15
935.7742	2049.2617	27819.25	26929.35
935.9111	2050.8254	27830	26917
936.048	2052.3883	27736.75	26843.9
936.1849	2053.9504	27629.6	26736
936.3218	2055.5118	27509.5	26616.65
936.4586	2057.0725	27407.05	26512.3
936.5955	2058.6325	27344.3	26452.9
936.7323	2060.1917	27227.35	26335.6
936.869	2061.7502	27159.3	26265.45
937.0058	2063.3079	27022.85	26131.6
937.1425	2064.8649	26958.45	26064.05
937.2792	2066.4212	26903.35	26008.5
937.4159	2067.9767	26808.6	25916.75
937.5525	2069.5315	26662.4	25770.3
937.6891	2071.0856	26524.55	25634
937.8257	2072.6389	26417.45	25526.3
937.9623	2074.1915	26286.5	25395
938.0989	2075.7433	26179.15	25286.45
938.2354	2077.2945	26096	25205.05
938.3719	2078.8448	26015.45	25123.1
938.5084	2080.3945	25942.7	25050.45
938.6448	2081.9434	25880.75	24990.05
938.7812	2083.4916	25787.5	24893.7
938.9176	2085.039	25700.15	24807.05
939.054	2086.5857	25668.75	24774.85
939.1903	2088.1317	25596.75	24706.35
939.3267	2089.677	25487.5	24595.3
939.463	2091.2215	25404.9	24512.9
939.5992	2092.7652	25289.65	24396.5
939.7355	2094.3083	25178.9	24286
939.8717	2095.8506	25189.5	24296.25
940.0079	2097.3921	25197.1	24306
940.1441	2098.933	25046.9	24154.05
940.2802	2100.4731	24984.75	24091.55
940.4163	2102.0124	24959.55	24059.5
940.5524	2103.5511	24863.15	23969.3
940.6885	2105.089	24814.95	23922.4
940.8245	2106.6261	24716.2	23825
940.9606	2108.1626	24622.3	23729.8
941.0965	2109.6983	24568.35	23650.05
941.2325	2111.2332	24477.05	23584
941.3684	2112.7675	24395.65	23500.55
941.5044	2114.301	24310.2	23417.7
941.6403	2115.8337	24295.95	23402.1
941.7761	2117.3657	24238.4	23346.05
941.912	2118.897	24168.8	23275.4
942.0478	2120.4276	24061.25	23162.75
942.1835	2121.9575	23928.7	23037.85
942.3193	2123.4866	23953.35	23045.3
942.455	2125.0149	23873.85	22978.6
942.5907	2126.5426	23693.8	22802.8
942.7264	2128.0695	23659.05	22761.65
942.8621	2129.5956	23598.35	22709.05
942.9977	2131.1211	23566	22670.25
943.1333	2132.6458	23465.55	22573.25
943.2689	2134.1698	23406.55	22514.05
943.4044	2135.693	23318.1	22423.15
943.54	2137.2155	23270.05	22375.7
943.6755	2138.7373	23153.3	22259.6
943.8109	2140.2584	23084.7	22193.55
943.9464	2141.7787	23036.4	22138.95
944.0818	2143.2983	22915.15	22024.05
944.2172	2144.8171	22789.9	21899.05
944.3526	2146.3353	22706.15	21811.85
944.4879	2147.8527	22621.35	21729.45
944.6232	2149.3693	22630.15	21738.9
944.7585	2150.8853	22527.6	21634.4
944.8938	2152.4005	22438.45	21546.45
945.029	2153.9149	22397.7	21503.15
945.1642	2155.4287	22297	21404.3
945.2994	2156.9417	22246.6	21352.8
945.4346	2158.454	22144.2	21249.35
945.5697	2159.9655	22121.05	21229.8
945.7048	2161.4764	22072.75	21179.5
945.8399	2162.9865	21982.5	21089.4
945.9749	2164.4958	21952.8	21060.65
946.1099	2166.0045	21828	20932.9
946.2449	2167.5124	21852.6	20960
946.3799	2169.0195	21711	20819.5
946.5148	2170.526	21678.65	20785.8
946.6498	2172.0317	21596.95	20702.1
946.7846	2173.5367	21559.4	20667.85
946.9195	2175.0409	21477.55	20586.3
947.0543	2176.5445	21478.7	20587.2
947.1891	2178.0473	21365.2	20472.4
947.3239	2179.5494	21255.8	20359.45
947.4587	2181.0507	21210.25	20316.25
947.5934	2182.5513	21158.1	20267.2
947.7281	2184.0512	21091.15	20199.8
947.8628	2185.5504	20981.2	20089.6
947.9974	2187.0488	20876.65	19984.3
948.132	2188.5465	20809.85	19918.75
948.2666	2190.0435	20709.25	19818.1
948.4012	2191.5397	20668.75	19777.35
948.5357	2193.0353	20572.25	19678.35
948.6702	2194.5301	20443.5	19549.5
948.8047	2196.0241	20362.55	19467.6
948.9392	2197.5175	20312.55	19421.35
949.0736	2199.0101	20261.3	19365.95
949.208	2200.502	20174.7	19283.1
949.3424	2201.9931	20087.9	19194.75
949.4767	2203.4835	19987.4	19093.55
949.611	2204.9733	19927.25	19027.8
949.7453	2206.4622	19947.45	19053.8
949.8796	2207.9505	19808.45	18913.95
950.0138	2209.438	19709.05	18818.8
950.148	2210.9248	19649.05	18756.1
950.2822	2212.4109	19599.65	18708.35
950.4164	2213.8962	19515.95	18622
950.5505	2215.3809	19470.4	18577.15
950.6846	2216.8648	19408.55	18514.75
950.8186	2218.3479	19343.7	18448.25
950.9527	2219.8304	19282	18385.05
951.0867	2221.3121	19186.7	18290.2
951.2207	2222.7931	19089.9	18197.2
951.3546	2224.2733	19011.7	18119.35
951.4886	2225.7529	18947.1	18052.75
951.6225	2227.2317	18907.3	18012
951.7563	2228.7098	18891.3	17999.6
951.8902	2230.1872	18755.75	17864.05
952.024	2231.6638	18747.45	17854.65
952.1578	2233.1397	18642.5	17743.6
952.2916	2234.6149	18607.65	17714.45
952.4253	2236.0894	18524.25	17632.45
952.559	2237.5632	18487.95	17584
952.6927	2239.0362	18394	17500.4
952.8263	2240.5085	18332.6	17440.1
952.9599	2241.9801	18255.95	17362.25
953.0935	2243.4509	18208.8	17318.05
953.2271	2244.921	18140.5	17246.5
953.3606	2246.3904	18045	17150.9
953.4941	2247.8591	18001.15	17109.9
953.6276	2249.3271	17960.5	17066.75
953.7611	2250.7943	17895.2	17001.25
953.8945	2252.2608	17850.55	16959
954.0279	2253.7266	17758.6	16866.25
954.1612	2255.1917	17709	16816.25
954.2946	2256.656	17636.45	16743.35
954.4279	2258.1197	17546.65	16655.75
954.5612	2259.5826	17522.65	16628.55
954.6944	2261.0447	17475.95	16582.35
954.8276	2262.5062	17404.9	16508.9
954.9608	2263.9669	17393.6	16500
955.094	2265.4269	17337.15	16445.2
955.2271	2266.8862	17295.1	16402.35
955.3602	2268.3448	17231.25	16338.7
955.4933	2269.8026	17169.1	16275.05
955.6264	2271.2598	17050.85	16158.95
955.7594	2272.7162	17060.3	16170.5
955.8924	2274.1719	16982.9	16091.15
956.0253	2275.6268	16934.8	16040.55
956.1583	2277.0811	16896.3	16003.7
956.2912	2278.5346	16822.55	15930.05
956.4241	2279.9874	16785.75	15892.5
956.5569	2281.4395	16750.35	15859.45
956.6897	2282.8908	16669.05	15771.45
956.8225	2284.3414	16630.65	15736.9
956.9553	2285.7914	16592.65	15700.4
957.088	2287.2406	16530.5	15637.05
957.2207	2288.689	16498.75	15604.5
957.3534	2290.1368	16430.9	15535.75
957.486	2291.5838	16353.75	15460.25
957.6186	2293.0302	16288.1	15393.35
957.7512	2294.4758	16240.2	15348.55
957.8838	2295.9206	16158	15263.3
958.0163	2297.3648	16133.6	15241.15
958.1488	2298.8082	16104.3	15208.7
958.2813	2300.251	16036.8	15142.8
958.4137	2301.693	16015.05	15120.7
958.5461	2303.1343	15949.7	15057.2
958.6785	2304.5748	15895.2	15004.6
958.8108	2306.0147	15811.7	14918.8
958.9432	2307.4538	15803.1	14908.15
959.0754	2308.8922	15765.8	14873.8
959.2077	2310.3299	15698.95	14806.75
959.3399	2311.7669	15622.7	14729.9
959.4721	2313.2031	15584.45	14690.3
959.6043	2314.6387	15501.1	14607.95
959.7365	2316.0735	15419.05	14527.8
959.8686	2317.5076	15400.8	14507.65
960.0006	2318.941	15345.75	14453.65
960.1327	2320.3737	15298.15	14404.35
960.2647	2321.8056	15282.55	14386.05
960.3967	2323.2369	15198.75	14305.9
960.5287	2324.6674	15160.25	14264.3
960.6606	2326.0972	15127.7	14234.55
960.7925	2327.5263	15035.7	14144.95
960.9244	2328.9547	14997.1	14104.35
961.0562	2330.3823	14948.75	14055.3
961.1881	2331.8092	14964.4	14066.45
961.3198	2333.2355	14842.55	13949.25
961.4516	2334.661	14817.95	13924.45
961.5833	2336.0858	14765	13869.9
961.715	2337.5098	14752.5	13859.65
961.8467	2338.9332	14700.3	13807.3
961.9783	2340.3558	14631.2	13735.85
962.1099	2341.7778	14585.2	13691.25
962.2415	2343.199	14545.25	13650.6
962.373	2344.6195	14483.7	13590.1
962.5045	2346.0393	14445.3	13553.45
962.636	2347.4583	14399.65	13505.6
962.7675	2348.8767	14396.55	13503.65
962.8989	2350.2943	14316.85	13422.35
963.0303	2351.7113	14275.8	13382.85
963.1617	2353.1275	14210.55	13318.55
963.293	2354.543	14188.65	13285.7
963.4243	2355.9578	14128.2	13234.4
963.5556	2357.3718	14052.8	13158.9
963.6868	2358.7852	14001.5	13107.75
963.818	2360.1978	13935.7	13041.9
963.9492	2361.6098	13911.8	13020
964.0803	2363.021	13865.15	12969.8
964.2114	2364.4315	13834.2	12942.05
964.3425	2365.8413	13755.3	12861.8
964.4736	2367.2504	13707.35	12815.85
964.6046	2368.6587	13640.15	12747.75
964.7356	2370.0664	13569.6	12677.55
964.8666	2371.4733	13521.8	12629.45
964.9975	2372.8795	13506.95	12613.35
965.1284	2374.285	13430	12538.95
965.2593	2375.6899	13351.35	12459.95
965.3901	2377.0939	13311.2	12420.3
965.5209	2378.4973	13254.95	12362.45
965.6517	2379.9	13195.7	12302.45
965.7825	2381.3019	13139.35	12248.7
965.9132	2382.7032	13095.35	12203.9
966.0439	2384.1037	13063.7	12174.05
966.1745	2385.5035	13059.2	12168.8
966.3051	2386.9027	12966.3	12074.8
966.4357	2388.3011	12955.9	12060.75
966.5663	2389.6987	12932	12041.05
966.6968	2391.0957	12850.55	11960.25
966.8273	2392.492	12830.1	11940.25
966.9578	2393.8876	12723.5	11831.85
967.0882	2395.2824	12677.95	11787.2
967.2186	2396.6765	12593.65	11702
967.349	2398.07	12527.45	11637.8
967.4793	2399.4627	12538.55	11646.05
967.6097	2400.8547	12453.85	11562.55
967.7399	2402.246	12436.55	11538.3
967.8702	2403.6366	12358.75	11466.2
968.0004	2405.0265	12324.95	11433.75
968.1306	2406.4156	12259.65	11363.6
968.2607	2407.8041	12223.15	11326.9
968.3909	2409.1918	12162.8	11269.8
968.521	2410.5789	12123.35	11232.35
968.651	2411.9652	12066.95	11171.75
968.781	2413.3508	12027.35	11135.65
968.911	2414.7358	12017	11122.4
969.041	2416.12	11929.35	11036.45
969.1709	2417.5035	11883.15	10991.5
969.3008	2418.8863	11849.25	10955.95
969.4307	2420.2684	11804.15	10913.1
969.5606	2421.6497	11747.25	10854.1
969.6904	2423.0304	11673.05	10782.6
969.8201	2424.4104	11663.35	10773.2
969.9499	2425.7896	11633.8	10739.55
970.0796	2427.1682	11580.75	10690.05
970.2093	2428.546	11545.25	10653.4
970.3389	2429.9232	11517.9	10624.5
970.4685	2431.2996	11482.95	10593.7
970.5981	2432.6753	11466.55	10574.35
970.7277	2434.0503	11439.15	10545.75
970.8572	2435.4246	11383.05	10491.45
970.9867	2436.7982	11328.8	10434.75
971.1161	2438.1711	11300	10409.3
971.2456	2439.5433	11264.15	10370.75
971.375	2440.9148	11203.9	10310.95
971.5043	2442.2856	11138.35	10245.75
971.6336	2443.6557	11136.4	10245.6
971.7629	2445.025	11057.45	10165.15
971.8922	2446.3937	11051.25	10159.1
972.0214	2447.7617	11014.75	10123.8
972.1506	2449.1289	10998.9	10105.8
972.2798	2450.4955	10959.4	10063.8
972.4089	2451.8613	10927.95	10035.55
972.538	2453.2265	10900.2	10005.6
972.6671	2454.5909	10864	9972.65
972.7961	2455.9546	10837.45	9945.95
972.9251	2457.3177	10788.35	9896.5
973.0541	2458.68	10756	9864.15
973.1831	2460.0416	10764	9870.3
973.312	2461.4025	10730.5	9837.95
973.4408	2462.7627	10674.1	9770.25
973.5697	2464.1222	10638.7	9746.95
973.6985	2465.4811	10616.55	9723.8
973.8273	2466.8392	10560	9667.65
973.956	2468.1966	10550.1	9655.85
974.0847	2469.5533	10535.15	9640.95
974.2134	2470.9093	10511.7	9618.2
974.3421	2472.2645	10454.85	9563.9
974.4707	2473.6191	10424.6	9532.35
974.5993	2474.973	10373.6	9481.35
974.7278	2476.3262	10346.05	9451.7
974.8563	2477.6787	10292	9400.5
974.9848	2479.0305	10220	9328.2
975.1132	2480.3816	10199.7	9307.6
975.2417	2481.7319	10174.3	9282.35
975.37	2483.0816	10142.2	9248.9
975.4984	2484.4306	10120.5	9225.4
975.6267	2485.7789	10067.5	9175.65
975.755	2487.1264	10009.05	9114.55
975.8833	2488.4733	9968.15	9077.9
976.0115	2489.8195	9932.25	9024.15
976.1397	2491.165	9901.5	9007
976.2678	2492.5097	9838.95	8945.75
976.3959	2493.8538	9799.1	8907.1
976.524	2495.1972	9765.4	8873.35
976.6521	2496.5398	9725.2	8833.6
976.7801	2497.8818	9709.5	8815.4
976.9081	2499.2231	9684.6	8793.55
977.036	2500.5637	9623.65	8729.55
977.164	2501.9035	9598.05	8704.95
977.2918	2503.2427	9573.05	8678
977.4197	2504.5812	9539.2	8645.4
977.5475	2505.919	9508.55	8615.7
977.6753	2507.256	9499.2	8605.75
977.8031	2508.5924	9456.65	8564.3
977.9308	2509.9281	9434	8536.65
978.0585	2511.2631	9389.25	8496.4
978.1861	2512.5974	9365	8472.15
978.3137	2513.9309	9310.85	8418.3
978.4413	2515.2638	9308.9	8384.95
978.5689	2516.596	9260.85	8370.4
978.6964	2517.9275	9213.75	8321.8
978.8239	2519.2583	9185.55	8294.05
978.9513	2520.5884	9148.7	8254.75
979.0788	2521.9178	9123.15	8230
979.2062	2523.2465	9084.55	8193.15
979.3335	2524.5745	9050.05	8158.1
979.4608	2525.9018	9016.9	8123.6
979.5881	2527.2284	8995.55	8105.75
979.7154	2528.5543	8948	8055.4
979.8426	2529.8796	8964.8	8071.8
979.9698	2531.2041	8916.35	8023.3
980.0969	2532.5279	8869.65	7980.05
980.224	2533.851	8846.9	7955.95
980.3511	2535.1735	8815.9	7922.9
980.4781	2536.4952	8800.45	7909.2
980.6052	2537.8163	8805.75	7912
980.7321	2539.1366	8768.45	7878.15
980.8591	2540.4562	8760.7	7867.75
980.986	2541.7752	8724.2	7830.9
981.1129	2543.0935	8716.9	7825.6
981.2397	2544.411	8689.55	7794.55
981.3665	2545.7279	8649	7758
981.4933	2547.0441	8640.8	7747.9
981.62	2548.3596	8634.55	7739.35
981.7467	2549.6744	8577.85	7686.3
981.8734	2550.9885	8571.85	7677.55
982.0001	2552.3019	8537.1	7646.1
982.1267	2553.6146	8515.65	7623.7
982.2532	2554.9266	8482.85	7589.45
982.3798	2556.2379	8442.65	7549.85
982.5063	2557.5485	8437.15	7545.3
982.6327	2558.8585	8405.55	7505.55
982.7592	2560.1677	8388.1	7492.05
982.8856	2561.4762	8383.1	7490.2
983.0119	2562.7841	8378.3	7484.5
983.1383	2564.0913	8341.5	7450.6
983.2646	2565.3977	8323.15	7430.4
983.3908	2566.7035	8277.9	7385.45
983.517	2568.0086	8293.5	7398.9
983.6432	2569.313	8251.05	7358.15
983.7694	2570.6167	8235.15	7338.85
983.8955	2571.9197	8195.6	7303.05
984.0216	2573.222	8191.7	7296.3
984.1476	2574.5236	8187.2	7294.95
984.2737	2575.8246	8161.7	7266.55
984.3996	2577.1248	8139.6	7246.6
984.5256	2578.4244	8126.4	7234.55
984.6515	2579.7232	8103.7	7212.35
984.7774	2581.0214	8111.45	7196.75
984.9032	2582.3189	8070.65	7178.95
985.029	2583.6157	8050.6	7153.3
985.1548	2584.9118	8039.65	7146.85
985.2806	2586.2072	8008.5	7118
985.4063	2587.5019	7951.15	7058.8
985.5319	2588.7959	7948.55	7057.05
985.6576	2590.0893	7961.3	7065.45
985.7832	2591.3819	7924	7032.8
985.9087	2592.6739	7904.85	7014.25
986.0343	2593.9652	7875.9	6982.85
986.1597	2595.2557	7859.55	6967.05
986.2852	2596.5456	7819.65	6924.15
986.4106	2597.8348	7806.35	6914.35
986.536	2599.1234	7769.4	6878.95
986.6614	2600.4112	7724.65	6831.1
986.7867	2601.6983	7694.3	6800
986.912	2602.9848	7673.55	6782.05
987.0372	2604.2705	7648.6	6748.95
987.1624	2605.5556	7643.15	6751.5
987.2876	2606.84	7620.7	6727.25
987.4128	2608.1237	7570.1	6675.7
987.5379	2609.4067	7541.8	6649.8
987.6629	2610.689	7535.9	6634.1
987.788	2611.9707	7518.65	6621.9
987.913	2613.2516	7487.15	6590.3
988.0379	2614.5319	7439.9	6545.45
988.1629	2615.8115	7400.65	6507.95
988.2878	2617.0903	7352.5	6457.65
988.4126	2618.3685	7341.35	6450.2
988.5375	2619.6461	7320.6	6428.9
988.6622	2620.9229	7292.9	6400.1
988.787	2622.199	7287.35	6394.45
988.9117	2623.4745	7247.75	6354.5
989.0364	2624.7493	7232.7	6340.65
989.161	2626.0234	7189.7	6297.55
989.2857	2627.2968	7166.05	6273.05
989.4102	2628.5695	7138.95	6245.85
989.5348	2629.8415	7116.75	6226.3
989.6593	2631.1128	7097.15	6201.9
989.7837	2632.3835	7052.8	6159.75
989.9082	2633.6535	7043.45	6149.9
990.0326	2634.9228	7008.05	6116.25
990.1569	2636.1914	6981.85	6088.2
990.2812	2637.4593	6970.15	6073.55
990.4055	2638.7265	6950.5	6058.75
990.5298	2639.9931	6911.15	6017.7
990.654	2641.259	6901.7	6008.2
990.7782	2642.5242	6887.6	5995.05
990.9023	2643.7887	6851.95	5957.8
991.0264	2645.0525	6845.35	5953.45
991.1505	2646.3156	6812.3	5920.25
991.2745	2647.5781	6791.05	5900.9
991.3985	2648.8398	6762.8	5873.7
991.5225	2650.1009	6742.6	5841.25
991.6464	2651.3613	6716.6	5822.9
991.7703	2652.6211	6697.5	5805.05
991.8942	2653.8801	6686.3	5794.7
992.018	2655.1385	6664.45	5770.05
992.1418	2656.3961	6667.85	5776.85
992.2655	2657.6531	6642.65	5752
992.3892	2658.9094	6604.05	5711.15
992.5129	2660.1651	6605.9	5714.8
992.6366	2661.42	6569.4	5676.45
992.7602	2662.6743	6578.25	5683.85
992.8837	2663.9279	6551.55	5659.6
993.0073	2665.1808	6548.55	5653.45
993.1307	2666.433	6520.8	5628.15
993.2542	2667.6846	6487.35	5595.15
993.3776	2668.9354	6488.6	5592.1
993.501	2670.1856	6466.05	5573.8
993.6244	2671.4351	6436.9	5544.95
993.7477	2672.6839	6427.75	5535.45
993.8709	2673.9321	6416.95	5524.95
993.9942	2675.1795	6398.05	5504.85
994.1174	2676.4263	6361.15	5471.3
994.2405	2677.6724	6366.7	5474.75
994.3637	2678.9179	6336.9	5442.95
994.4868	2680.1626	6322	5429.35
994.6098	2681.4067	6302.55	5411.15
994.7328	2682.6501	6271.5	5379.65
994.8558	2683.8928	6269.05	5376.55
994.9788	2685.1348	6241.05	5348.95
995.1017	2686.3761	6216.55	5324.8
995.2245	2687.6168	6211.8	5320.45
995.3474	2688.8568	6178.5	5288.95
995.4702	2690.0961	6164.95	5272.85
995.5929	2691.3348	6137.85	5246.25
995.7156	2692.5727	6104.7	5213.85
995.8383	2693.81	6097.55	5206.25
995.961	2695.0466	6076.6	5185.1
996.0836	2696.2826	6062.15	5168.75
996.2062	2697.5178	6035.1	5139.3
996.3287	2698.7524	6007.8	5116.35
996.4512	2699.9863	6008.25	5115
996.5737	2701.2195	5979.85	5089
996.6961	2702.452	5985	5092.3
996.8185	2703.6839	5954.6	5059.45
996.9408	2704.9151	5956.25	5064
997.0631	2706.1456	5921.95	5027.75
997.1854	2707.3755	5914.85	5023.5
997.3077	2708.6046	5876.2	4981.15
997.4299	2709.8331	5868.25	4976.2
997.552	2711.0609	5871.95	4978.95
997.6742	2712.2881	5856.8	4963.85
997.7963	2713.5145	5850.35	4957.2
997.9183	2714.7403	5832.15	4940.1
998.0403	2715.9654	5824.85	4931.75
998.1623	2717.1899	5810.65	4902.7
998.2842	2718.4136	5821.9	4927.45
998.4062	2719.6367	5817.6	4927.45
998.528	2720.8591	5776.5	4877.8
998.6498	2722.0809	5764.7	4872.25
998.7716	2723.3019	5778.05	4882.65
998.8934	2724.5223	5752.05	4858.75
999.0151	2725.7421	5738.05	4845.9
999.1368	2726.9611	5719.5	4824.5
999.2584	2728.1795	5702.35	4807.4
999.38	2729.3972	5692.35	4800.1
999.5016	2730.6142	5659.8	4757.65
999.6231	2731.8306	5620.9	4725.45
999.7446	2733.0462	5571.85	4678.1
999.8661	2734.2612	5553.1	4655.85
999.9875	2735.4756	5522.45	4629.35
1000.1089	2736.6892	5492.95	4598.6
1000.2302	2737.9022	5452.45	4561.95
1000.3515	2739.1145	5420.1	4527.95
1000.4728	2740.3262	5398.45	4498.5
1000.594	2741.5372	5361.7	4469.85
1000.7152	2742.7475	5313.35	4419.3
1000.8363	2743.9571	5309.5	4415.2
1000.9575	2745.1661	5278.85	4381.85
1001.0785	2746.3744	5285.4	4393.35
1001.1996	2747.582	5234.4	4342
1001.3206	2748.7889	5216.85	4320.4
1001.4415	2749.9952	5203.8	4313.15
1001.5625	2751.2008	5173.45	4279.25
1001.6833	2752.4057	5157.25	4262.85
1001.8042	2753.61	5139.4	4245.65
1001.925	2754.8136	5141.15	4247.15
1002.0458	2756.0165	5124.4	4232.8
1002.1665	2757.2188	5094.8	4204.8
1002.2872	2758.4204	5080.8	4186.45
1002.4078	2759.6213	5063.35	4169.5
1002.5285	2760.8215	5050.6	4153.65
1002.649	2762.0211	5039.65	4145.05
1002.7696	2763.22	5015.35	4120.4
1002.8901	2764.4182	4986.2	4091.7
1003.0106	2765.6158	4972.4	4080.9
1003.131	2766.8127	4954.25	4061.3
1003.2514	2768.009	4945.75	4054.35
1003.3717	2769.2045	4938.05	4042.65
1003.492	2770.3994	4922.7	4027.7
1003.6123	2771.5936	4893.7	4001.45
1003.7325	2772.7872	4877.2	3985.6
1003.8527	2773.9801	4855.95	3961.65
1003.9729	2775.1723	4837.8	3928.7
1004.093	2776.3639	4832.35	3940.25
1004.2131	2777.5548	4832.2	3938.95
1004.3331	2778.745	4799.35	3904.85
1004.4531	2779.9346	4799.2	3907.2
1004.5731	2781.1235	4794.25	3902.7
1004.693	2782.3117	4758.55	3866.35
1004.8129	2783.4992	4761.65	3869.85
1004.9328	2784.6861	4752.95	3859.8
1005.0526	2785.8723	4736.25	3841.45
1005.1723	2787.0579	4732.1	3840
1005.2921	2788.2428	4714.35	3823.15
1005.4118	2789.427	4708.95	3817.55
1005.5314	2790.6106	4693.15	3801.95
1005.651	2791.7935	4681.7	3788.8
1005.7706	2792.9757	4701.3	3810
1005.8902	2794.1573	4683.8	3788.2
1006.0097	2795.3382	4692.15	3800
1006.1291	2796.5184	4678.95	3787.4
1006.2485	2797.698	4692.15	3799.75
1006.3679	2798.8769	4679.6	3788.35
1006.4873	2800.0551	4690.45	3797.95
1006.6066	2801.2327	4703.7	3809.55
1006.7258	2802.4096	4693.55	3800.45
1006.8451	2803.5859	4694.55	3801.05
1006.9642	2804.7615	4705.9	3814.1
1007.0834	2805.9364	4730.55	3839.05
1007.2025	2807.1106	4732.1	3841.75
1007.3216	2808.2842	4741.65	3848.75
1007.4406	2809.4572	4765.75	3874
1007.5596	2810.6294	4801.9	3908.85
1007.6785	2811.801	4820.2	3929.55
1007.7975	2812.972	4847.35	3954.45
1007.9163	2814.1423	4887.2	3996.45
1008.0352	2815.3119	4925.7	4031.7
1008.154	2816.4808	4943.8	4052.1
1008.2727	2817.6491	4998.75	4105.85
1008.3914	2818.8167	5036.55	4144.9
1008.5101	2819.9837	5069.95	4175
1008.6288	2821.15	5089.4	4196.9
1008.7474	2822.3157	5126.2	4235.45
1008.8659	2823.4807	5167.9	4275.6
1008.9844	2824.645	5204.35	4310.9
1009.1029	2825.8086	5257.05	4365.35
1009.2214	2826.9716	5276.1	4384.95
1009.3398	2828.134	5301.6	4410.6
1009.4581	2829.2957	5326.6	4435.75
1009.5764	2830.4567	5337.3	4445.15
1009.6947	2831.617	5340.2	4447.7
1009.813	2832.7767	5347.1	4455.85
1009.9312	2833.9358	5348.55	4457.9
1010.0493	2835.0941	5335	4441.85
1010.1675	2836.2519	5317.15	4425.2
1010.2855	2837.4089	5292.7	4401.45
1010.4036	2838.5653	5289.1	4397.85
1010.5216	2839.7211	5265.95	4376.1
1010.6396	2840.8761	5263.7	4371.6
1010.7575	2842.0306	5276.55	4383.5
1010.8754	2843.1843	5320.2	4429.2
1010.9932	2844.3374	5331.2	4438.2
1011.111	2845.4899	5393.9	4502.25
1011.2288	2846.6417	5461.55	4570.55
1011.3465	2847.7928	5534.25	4642.85
1011.4642	2848.9433	5607.35	4716.1
1011.5818	2850.0931	5681.1	4789.35
1011.6995	2851.2422	5758.2	4864.1
1011.817	2852.3907	5814.2	4922.3
1011.9345	2853.5385	5843.9	4949.55
1012.052	2854.6857	5937.95	5018.65
1012.1695	2855.8323	5968.65	5078.55
1012.2869	2856.9781	6003.15	5112.2
1012.4042	2858.1233	6009.3	5119.55
1012.5216	2859.2679	6068.65	5176.15
1012.6389	2860.4118	6101.15	5208.95
1012.7561	2861.555	6128.85	5232.9
1012.8733	2862.6976	6139.25	5243.9
1012.9905	2863.8395	6157.2	5265.05
1013.1076	2864.9808	6176.05	5282.6
1013.2247	2866.1214	6184.4	5293.1
1013.3417	2867.2614	6190.85	5297.6
1013.4587	2868.4007	6191.7	5299.1
1013.5757	2869.5393	6152	5258.85
1013.6926	2870.6773	6176.3	5281.15
1013.8095	2871.8146	6218.25	5324.9
1013.9263	2872.9513	6190.8	5297.1
1014.0431	2874.0874	6166.25	5273.9
1014.1599	2875.2227	6140.8	5249.9
1014.2766	2876.3574	6116.9	5224
1014.3933	2877.4915	6081.05	5189.9
1014.51	2878.6249	6034.6	5144.05
1014.6266	2879.7577	6026.2	5134.85
1014.7431	2880.8898	5985.25	5083.65
1014.8596	2882.0212	5948	5056.95
1014.9761	2883.152	5931.3	5041
1015.0925	2884.2821	5891.35	5001.4
1015.2089	2885.4116	5867.6	4976.4
1015.3253	2886.5405	5864.5	4973.25
1015.4416	2887.6686	5866	4970.55
1015.5579	2888.7962	5849.3	4959.55
1015.6741	2889.923	5850	4959.85
1015.7903	2891.0493	5853.45	4961.75
1015.9065	2892.1748	5849.05	4959.9
1016.0226	2893.2997	5855.4	4963.55
1016.1387	2894.424	5854.7	4961.65
1016.2547	2895.5476	5868.35	4976.35
1016.3707	2896.6706	5882.45	4990.55
1016.4866	2897.7929	5889.85	4998.35
1016.6025	2898.9145	5922.75	5030.6
1016.7184	2900.0355	5940.5	5046.75
1016.8342	2901.1559	5953.4	5061.65
1016.95	2902.2756	5978.35	5088.65
1017.0658	2903.3946	6013.6	5122.8
1017.1815	2904.513	6035.8	5143.1
1017.2971	2905.6308	6038	5145.25
1017.4127	2906.7479	6048.8	5156.4
1017.5283	2907.8643	6055.75	5162.9
1017.6439	2908.9801	6066.4	5174.05
1017.7594	2910.0953	6064.3	5172.5
1017.8748	2911.2098	6062.7	5166.55
1017.9902	2912.3236	6042.1	5143.45
1018.1056	2913.4368	6037.05	5141
1018.2209	2914.5494	6005.1	5114.85
1018.3362	2915.6613	5956.45	5058.7
1018.4515	2916.7725	5929.8	5034.8
1018.5667	2917.8831	5893.85	5000.95
1018.6819	2918.9931	5858.4	4962.8
1018.797	2920.1024	5814.35	4921.15
1018.9121	2921.211	5796.8	4907.1
1019.0271	2922.319	5741.95	4849.5
1019.1421	2923.4264	5721.15	4830.25
1019.2571	2924.5331	5713.5	4824.75
1019.372	2925.6391	5679.45	4790.6
1019.4869	2926.7445	5672.9	4782.65
1019.6017	2927.8493	5633.7	4740
1019.7165	2928.9534	5635.4	4742.8
1019.8313	2930.0569	5614.4	4718.65
1019.946	2931.1597	5597.25	4704.15
1020.0606	2932.2619	5588	4697.35
1020.1753	2933.3634	5561.7	4671.45
1020.2899	2934.4643	5562.75	4664.25
1020.4044	2935.5645	5526.9	4629.85
1020.5189	2936.6641	5484	4588.05
1020.6334	2937.763	5426.65	4536.4
1020.7478	2938.8613	5374.7	4482
1020.8622	2939.959	5320.35	4422.85
1020.9765	2941.056	5219.1	4328.3
1021.0908	2942.1523	5127.25	4236.05
1021.2051	2943.248	5029.05	4137.2
1021.3193	2944.3431	4929	4037.65
1021.4334	2945.4375	4839.6	3947.65
1021.5476	2946.5313	4720.55	3830.8
1021.6617	2947.6244	4607.05	3715.05
1021.7757	2948.7169	4488.55	3595.85
1021.8897	2949.8087	4398.75	3507.2
1022.0037	2950.8999	4274.35	3384.1
1022.1176	2951.9904	4190.1	3300.15
1022.2315	2953.0803	4114.1	3222.55
1022.3453	2954.1696	4037.65	3145.1
1022.4591	2955.2582	3984.45	3093.75
1022.5728	2956.3462	3923.6	3032.8
1022.6865	2957.4335	3874.05	2983.35
1022.8002	2958.5202	3819.8	2925.9
1022.9138	2959.6062	3794.1	2904.45
1023.0274	2960.6916	3750.25	2856.6
1023.141	2961.7764	3734.45	2841.15
1023.2545	2962.8605	3710.65	2818.8
1023.3679	2963.9439	3692	2799.35
1023.4813	2965.0267	3669.45	2776.15
1023.5947	2966.1089	3678.9	2765.05
1023.708	2967.1905	3637.35	2744.55
1023.8213	2968.2714	3631.85	2740.4
1023.9346	2969.3516	3627.8	2734.8
1024.0478	2970.4312	3627.25	2728.5
1024.1609	2971.5102	3613.4	2722.75
1024.274	2972.5885	3592.65	2703.45
1024.3871	2973.6662	3595.1	2698.95
1024.5002	2974.7432	3574.55	2683.9
1024.6132	2975.8196	3560.95	2670.25
1024.7261	2976.8954	3536.8	2648.65
1024.839	2977.9705	3520.55	2628.9
1024.9519	2979.045	3509.2	2618.45
1025.0647	2980.1188	3468.4	2577.75
1025.1775	2981.192	3463.1	2572.9
1025.2902	2982.2645	3443.4	2550.15
1025.4029	2983.3364	3404.65	2511.55
1025.5156	2984.4077	3369.8	2478.05
1025.6282	2985.4783	3328	2432.95
1025.7407	2986.5483	3285.55	2397.2
1025.8532	2987.6177	3248.25	2357.4
1025.9657	2988.6864	3198.35	2306.7
1026.0782	2989.7545	3173	2281.2
1026.1906	2990.8219	3138.85	2247.9
1026.3029	2991.8887	3093.6	2200.65
1026.4152	2992.9548	3064.95	2171.4
1026.5275	2994.0204	3015.35	2124.9
1026.6397	2995.0852	2981.65	2091.3
1026.7519	2996.1495	2956.75	2064.95
1026.864	2997.2131	2927.3	2037.5
1026.9761	2998.276	2899.05	2008.6
1027.0882	2999.3383	2878.15	1986.6
1027.2002	3000.4	2855.1	1963.4
1027.3122	3001.4611	2832.8	1941
1027.4241	3002.5215	2801.95	1910.9
1027.536	3003.5812	2781.95	1890.9
1027.6478	3004.6404	2767.4	1875.6
1027.7596	3005.6989	2747.85	1856.85
1027.8714	3006.7567	2733.9	1840.75
1027.9831	3007.8139	2740.8	1826.6
1028.0947	3008.8705	2713.65	1822.55
1028.2064	3009.9264	2708.85	1815.4
1028.3179	3010.9818	2704.4	1814.45
1028.4295	3012.0364	2688.6	1796.75
1028.541	3013.0905	2677.65	1785.45
1028.6524	3014.1439	2662.35	1770.3
1028.7638	3015.1966	2658.55	1767.3
1028.8752	3016.2487	2668.55	1779.3
1028.9865	3017.3002	2670.7	1776.2
1029.0978	3018.3511	2649.35	1759.3
1029.209	3019.4013	2643.7	1751.25
1029.3202	3020.4509	2629.75	1739.5
1029.4314	3021.4998	2641.8	1752.35
1029.5425	3022.5481	2625.6	1734.75
1029.6535	3023.5958	2625.1	1733.25
1029.7645	3024.6428	2602.1	1711.05
1029.8755	3025.6892	2612.25	1720.75
1029.9864	3026.735	2612.6	1721.35
1030.0973	3027.7802	2605.75	1714.05
1030.2082	3028.8247	2589.8	1699
1030.319	3029.8685	2585.3	1692.65
1030.4297	3030.9118	2602.15	1712.5
1030.5404	3031.9544	2589.6	1698.65
1030.6511	3032.9963	2585.25	1694.75
1030.7617	3034.0376	2590.5	1700.65
1030.8723	3035.0783	2585.5	1693.1
1030.9829	3036.1184	2587.4	1695.2
1031.0934	3037.1578	2588.05	1697.5
1031.2038	3038.1966	2581.5	1688.55
1031.3142	3039.2348	2572.1	1681.9
1031.4246	3040.2723	2585.85	1685.3
1031.5349	3041.3092	2562.55	1673.1
1031.6452	3042.3455	2550.15	1659.15
1031.7554	3043.3811	2549.65	1657.85
1031.8656	3044.4161	2544.2	1652.15
1031.9758	3045.4505	2528.8	1639.1
1032.0859	3046.4842	2522.75	1631.05
1032.1959	3047.5173	2511.95	1622.55
1032.3059	3048.5498	2503.1	1611
1032.4159	3049.5816	2481.4	1590.05
1032.5258	3050.6128	2471.2	1578.8
1032.6357	3051.6434	2469.85	1576.85
1032.7455	3052.6734	2449.7	1557.45
1032.8553	3053.7027	2445.7	1553.9
1032.9651	3054.7314	2448.7	1558.1
1033.0748	3055.7594	2414.9	1526.15
1033.1845	3056.7868	2405.1	1512.45
1033.2941	3057.8136	2405.95	1515.4
1033.4037	3058.8398	2389.65	1500.3
1033.5132	3059.8653	2387.95	1497.05
1033.6227	3060.8902	2364.7	1473.1
1033.7321	3061.9145	2362.85	1471.1
1033.8415	3062.9381	2344.6	1453.65
1033.9509	3063.9612	2349.7	1442.4
1034.0602	3064.9835	2331.2	1439.9
1034.1694	3066.0053	2325.35	1432.15
1034.2787	3067.0264	2303.95	1413.35
1034.3878	3068.0469	2301.85	1411
1034.497	3069.0668	2294.5	1401.5
1034.6061	3070.086	2276.2	1384.55
1034.7151	3071.1046	2265.1	1372.55
1034.8241	3072.1226	2252.85	1360.65
1034.9331	3073.1399	2229.8	1340.1
1035.042	3074.1567	2231.95	1340.7
1035.1508	3075.1727	2211.95	1319.1
1035.2597	3076.1882	2191.55	1300.9
1035.3684	3077.203	2187.5	1294
1035.4772	3078.2173	2170.6	1279.7
1035.5859	3079.2308	2164.7	1269.6
1035.6945	3080.2438	2151.7	1256.5
1035.8031	3081.2561	2127.5	1238
1035.9117	3082.2678	2113.65	1221.95
1036.0202	3083.2789	2106.85	1216.85
1036.1286	3084.2893	2101.25	1209.95
1036.2371	3085.2991	2090.65	1199.7
1036.3454	3086.3083	2089.2	1192.8
1036.4538	3087.3169	2079.45	1189.5
1036.562	3088.3248	2052.65	1160.4
1036.6703	3089.3321	2058.25	1166.3
1036.7785	3090.3388	2037.55	1146.7
1036.8866	3091.3449	2032.6	1142.6
1036.9948	3092.3503	2030.25	1137.35
1037.1028	3093.3551	2018.85	1130.35
1037.2108	3094.3593	2012.85	1122.4
1037.3188	3095.3629	2003.4	1112.8
1037.4267	3096.3658	2001	1107.25
1037.5346	3097.3681	1999.8	1108
1037.6425	3098.3698	1980.9	1086.8
1037.7503	3099.3708	1988.65	1092
1037.858	3100.3713	1969.45	1079.15
1037.9657	3101.3711	1971.8	1080.65
1038.0734	3102.3702	2082.7	1057.95
1038.181	3103.3688	1967.7	1075.5
1038.2886	3104.3667	1947.95	1059
1038.3961	3105.364	1933.3	1041.7
1038.5036	3106.3607	1939.7	1049.1
1038.611	3107.3568	1935.65	1042.7
1038.7184	3108.3522	1917.15	1027.65
1038.8257	3109.347	1915.45	1022.5
1038.933	3110.3412	1911.05	1017.2
1039.0403	3111.3348	1900.8	1012.95
1039.1475	3112.3277	1886.8	996.95
1039.2547	3113.32	1880.15	992.4
1039.3618	3114.3117	1883.75	993.05
1039.4689	3115.3028	1877.8	987.25
1039.5759	3116.2932	1874.5	981.65
1039.6829	3117.2831	1865.65	970.3
1039.7898	3118.2723	1856.65	965.4
1039.8967	3119.2608	1855.45	965.2
1040.0035	3120.2488	1849.5	958.1
1040.1103	3121.2361	1851.5	960.1
1040.2171	3122.2229	1834.05	944.2
1040.3238	3123.209	1829.5	938.2
1040.4305	3124.1944	1820.35	930.15
1040.5371	3125.1793	1822.75	930.95
1040.6437	3126.1635	1802.9	912.55
1040.7502	3127.1471	1812.35	922.4
1040.8567	3128.1301	1801.1	910.6
1040.9631	3129.1125	1799.95	908.85
1041.0695	3130.0942	1800.65	909.65
1041.1759	3131.0753	1798.55	899.75
1041.2822	3132.0558	1784.9	890.45
1041.3884	3133.0357	1778.25	885.2
1041.4946	3134.015	1773.25	881.55
1041.6008	3134.9936	1776.05	883.85
1041.7069	3135.9716	1787.35	875.25
1041.813	3136.949	1761.9	871.85
1041.919	3137.9258	1757.45	859.85
1042.025	3138.902	1762.5	865.35
1042.1309	3139.8775	1754.15	863.8
1042.2368	3140.8524	1753.2	862.5
1042.3427	3141.8267	1747.15	854.2
1042.4485	3142.8004	1743.45	851.8
1042.5542	3143.7735	1735.85	837.75
1042.6599	3144.7459	1727.7	835.45
1042.7656	3145.7178	1731.75	840.25
1042.8712	3146.689	1720.3	830.9
1042.9768	3147.6596	1716.2	825.05
1043.0823	3148.6295	1713.95	820.95
1043.1878	3149.5989	1711.35	820.05
1043.2932	3150.5676	1703.8	814.15
1043.3986	3151.5357	1703.5	814.2
1043.5039	3152.5032	1691.65	802.25
1043.6092	3153.4701	1684.55	795.25
1043.7145	3154.4364	1690	798.4
1043.8197	3155.402	1675.1	786.2
1043.9248	3156.367	1682.7	790.35
1044.03	3157.3315	1710.9	776.65
1044.135	3158.2952	1669.5	777.55
1044.24	3159.2584	1663.05	771.95
1044.345	3160.221	1651.6	760.3
1044.4499	3161.1829	1653	760.15
1044.5548	3162.1442	1654.5	762.45
1044.6596	3163.105	1647.25	757.1
1044.7644	3164.065	1641	749.3
1044.8692	3165.0245	1637.5	742.7
1044.9739	3165.9834	1634.5	745.95
1045.0785	3166.9416	1629.95	738.35
1045.1831	3167.8993	1622.6	731.2
1045.2877	3168.8563	1619.8	730.55
1045.3922	3169.8127	1618.1	729.65
1045.4966	3170.7684	1612.3	721.85
1045.6011	3171.7236	1599.35	707.95
1045.7054	3172.6782	1600.3	709.65
1045.8098	3173.6321	1598.35	707.35
1045.914	3174.5854	1598.35	702.8
1046.0183	3175.5381	1588.25	696.65
1046.1224	3176.4902	1590.65	700.85
1046.2266	3177.4417	1585.65	695.35
1046.3307	3178.3926	1581.55	692.35
1046.4347	3179.3428	1568.75	679.2
1046.5387	3180.2924	1565.75	677.2
1046.6427	3181.2415	1569.75	679.25
1046.7466	3182.1899	1557.35	664.8
1046.8504	3183.1377	1562.9	673.6
1046.9542	3184.0848	1557.9	664.25
1047.058	3185.0314	1555.15	664.95
1047.1617	3185.9773	1549.75	659.6
1047.2654	3186.9227	1542	652.2
1047.369	3187.8674	1545.45	655.75
1047.4726	3188.8115	1545.15	651.2
1047.5761	3189.755	1542.75	652.5
1047.6796	3190.6979	1535.5	646
1047.783	3191.6402	1528.9	639.45
1047.8864	3192.5818	1528.75	638.25
1047.9898	3193.5229	1532.1	626.45
1048.0931	3194.4633	1513.9	623.05
1048.1963	3195.4031	1517.7	627.05
1048.2995	3196.3423	1506.1	616.65
1048.4027	3197.2809	1505.85	617.3
1048.5058	3198.2189	1507.9	616.75
1048.6089	3199.1563	1512.45	616.95
1048.7119	3200.0931	1500.15	609.45
1048.8148	3201.0292	1496.7	607.4
1048.9178	3201.9648	1496.05	604.15
1049.0206	3202.8997	1492	598.75
1049.1235	3203.834	1483.95	592.85
1049.2262	3204.7677	1486.8	595.95
1049.329	3205.7008	1487.65	594.65
1049.4317	3206.6333	1478.3	588.3
1049.5343	3207.5652	1475.65	581.75
1049.6369	3208.4964	1467.8	579.2
1049.7394	3209.4271	1472	581.65
1049.8419	3210.3571	1471.05	580.85
1049.9444	3211.2865	1462.6	571.9
1050.0468	3212.2154	1462.8	571.2
1050.1491	3213.1436	1461.6	568.6
1050.2514	3214.0712	1466.95	569.1
1050.3537	3214.9982	1448.35	559.1
1050.4559	3215.9246	1457.7	567.75
1050.5581	3216.8503	1454.5	566.35
1050.6602	3217.7755	1451.15	561.15
1050.7623	3218.7001	1440.55	551.3
1050.8643	3219.624	1438.4	548.8
1050.9663	3220.5473	1443.25	551.35
1051.0682	3221.4701	1437.7	544.6
1051.1701	3222.3922	1440.75	549.65
1051.2719	3223.3137	1433.75	543.65
1051.3737	3224.2346	1421.9	531.75
1051.4754	3225.1549	1424.35	534.85
1051.5771	3226.0746	1420.7	531.9
1051.6788	3226.9937	1412.3	521.4
1051.7804	3227.9121	1406.25	518.45
1051.8819	3228.83	1406.75	516.55
1051.9834	3229.7473	1406.3	515.3
1052.0849	3230.6639	1399.2	508.3
1052.1863	3231.5799	1404	513.4
1052.2876	3232.4954	1398.1	507.6
1052.3889	3233.4102	1395.05	504.5
1052.4902	3234.3244	1397.1	506.25
1052.5914	3235.238	1398.1	506.95
1052.6926	3236.151	1415.3	502.05
1052.7937	3237.0634	1385.85	495.3
1052.8948	3237.9752	1376.55	487.25
1052.9958	3238.8864	1386.4	496.6
1053.0968	3239.797	1376.2	485.45
1053.1977	3240.7069	1371.75	482.45
1053.2986	3241.6163	1374.05	483
1053.3994	3242.5251	1362.1	471.75
1053.5002	3243.4332	1362.35	474.3
1053.6009	3244.3408	1362.8	473.05
1053.7016	3245.2477	1356.15	466.35
1053.8022	3246.154	1356.15	464.6
1053.9028	3247.0598	1355.75	465.25
1054.0034	3247.9649	1347.85	457.6
1054.1039	3248.8694	1340.15	447.55
1054.2043	3249.7733	1345.05	454.35
1054.3047	3250.6766	1342.6	452.65
1054.4051	3251.5793	1336.2	444.65
1054.5054	3252.4814	1329.7	441.05
1054.6056	3253.3829	1324.5	436.75
1054.7058	3254.2838	1331.6	441.75
1054.806	3255.1841	1325.3	436.25
1054.9061	3256.0838	1318.4	428.8
1055.0061	3256.9829	1325.5	435.25
1055.1062	3257.8814	1320.85	430.05
1055.2061	3258.7792	1317.35	424.75
1055.306	3259.6765	1301.2	410.95
1055.4059	3260.5731	1305.65	415.35
1055.5057	3261.4692	1296.45	405.6
1055.6055	3262.3647	1292.8	402.5
1055.7052	3263.2595	1287.65	398.7
1055.8049	3264.1538	1283.9	393.4
1055.9045	3265.0474	1279.2	387.25
1056.0041	3265.9404	1272.35	383.55
1056.1036	3266.8329	1261.4	372.9
1056.2031	3267.7247	1271.95	374.05
1056.3025	3268.616	1249.65	361.15
1056.4019	3269.5066	1238.9	347.8
1056.5013	3270.3966	1228.5	336.05
1056.6005	3271.286	1221.1	333.5
