Software Version:	3.9.2.0
Unit SN:	10000200
Spectrometer SN:	6960
Date:	3/6/2024 10:36:43 AM
Data Line Index:	25
Spectral Points:	2048
Integration time (ms):	125
Averages:	20
Delay (ms):	30
Sequence Number:	1
Processing:	dark subtract
Laser Power (mW):	300
Laser Current (mA):	824
Laser Diode Temp (C):	25.1
Laser Case Temp (C):	26.7
System Temp (C):	26.5
Spectrometer Temp (C):	23.9
CCD Temp (C):	-0.008
Secondary Temp (C):	20.006
Heatsink Temp (C):	22.121
CCDPCB Temp (C):	36.085
SecondaryPCB Temp (C):	31.16

Wavelength	RamanShift	Raw Counts	Dark Subtracted
787.061	30.1047	1145.05	735.3
787.2016	32.3739	1177.55	768.5
787.3422	34.6426	1223.5	813.2
787.4828	36.9109	1266.65	854.05
787.6235	39.1787	1327.55	911.8
787.7642	41.4461	1398.15	976.45
787.9049	43.7131	1464.15	1037.75
788.0456	45.9796	1526.15	1099.45
788.1863	48.2456	1597.55	1166.1
788.3271	50.5112	1660.8	1223.7
788.4679	52.7764	1739.6	1300.8
788.6087	55.0411	1814.6	1372.25
788.7496	57.3054	1901.1	1450.55
788.8904	59.5692	1991.65	1540.15
789.0313	61.8326	2098.05	1643.1
789.1722	64.0955	2205.15	1747.1
789.3132	66.3579	2342.95	1878.95
789.4541	68.6199	2482.9	2018.25
789.5951	70.8815	2745.35	2275.55
789.7361	73.1426	3287.2	2814.4
789.8771	75.4032	4656.7	4177.25
790.0181	77.6634	8158	7676.95
790.1592	79.9231	17520.15	17032.25
790.3003	82.1824	56961.3	56458.25
790.4414	84.4412	65535	65012.85
790.5825	86.6995	65535	64986.85
790.7237	88.9574	65535	64960.25
790.8648	91.2148	65535	64942.6
791.006	93.4717	65535	64930.45
791.1472	95.7282	65535	64923.8
791.2885	97.9842	65535	64917
791.4297	100.2398	65535	64914.4
791.571	102.4949	65535	64911.7
791.7123	104.7495	65535	64910.55
791.8536	107.0036	65535	64903.2
791.9949	109.2573	65535	64909.75
792.1363	111.5105	65535	64906.95
792.2777	113.7632	65535	64904.15
792.4191	116.0154	65535	64893.35
792.5605	118.2672	65535	64899.4
792.7019	120.5185	65535	64900.2
792.8434	122.7693	65535	64894.75
792.9849	125.0197	65535	64892.15
793.1264	127.2696	65535	64889.15
793.2679	129.519	65535	64884.3
793.4094	131.7679	65535	64884.5
793.551	134.0163	65535	64877.5
793.6926	136.2642	65535	64878.95
793.8342	138.5117	65535	64866.85
793.9758	140.7587	65535	64872.8
794.1175	143.0052	65535	64869.55
794.2591	145.2512	65535	64870.15
794.4008	147.4967	65535	64866.8
794.5425	149.7417	65535	64865.05
794.6842	151.9863	65535	64865.05
794.826	154.2304	65535	64858.25
794.9677	156.4739	65535	64851.55
795.1095	158.717	65535	64856.45
795.2513	160.9596	65535	64849.15
795.3931	163.2017	65535	64847.9
795.535	165.4433	65535	64846
795.6768	167.6844	65535	64842.05
795.8187	169.925	65535	64841.5
795.9606	172.1651	65535	64837.9
796.1025	174.4047	65535	64835.6
796.2445	176.6439	65535	64832.6
796.3864	178.8825	65535	64833.2
796.5284	181.1206	65535	64828
796.6704	183.3582	65535	64823.25
796.8124	185.5954	65535	64824.7
796.9544	187.832	65535	64817.35
797.0965	190.0681	65535	64815.45
797.2386	192.3037	65535	64811.85
797.3806	194.5388	65535	64809.7
797.5228	196.7734	65535	64807.45
797.6649	199.0075	65535	64807.05
797.807	201.2411	65535	64799.55
797.9492	203.4742	65535	64803.75
798.0914	205.7068	65535	64800.55
798.2336	207.9389	65535	64799.6
798.3758	210.1704	65535	64794.75
798.518	212.4015	65535	64797.15
798.6603	214.632	65535	64809.25
798.8025	216.862	65535	64818.05
798.9448	219.0915	65535	64818.85
799.0871	221.3205	65535	64814.35
799.2294	223.549	65535	64822.15
799.3718	225.777	65535	64823.25
799.5141	228.0044	65535	64817.05
799.6565	230.2314	65535	64816.4
799.7989	232.4578	65535	64812.5
799.9413	234.6837	65535	64800.45
800.0837	236.909	65535	64799.05
800.2262	239.1339	65535	64774.1
800.3687	241.3582	65535	64788
800.5111	243.582	65535	64757
800.6536	245.8053	65535	64773.5
800.7961	248.0281	65535	64780.85
800.9387	250.2503	65535	64773.9
801.0812	252.472	65535	64769.55
801.2238	254.6932	65535	64769.05
801.3664	256.9139	65535	64769.9
801.509	259.134	65535	64764.65
801.6516	261.3536	65535	64768.3
801.7942	263.5727	65535	64763.3
801.9369	265.7912	65535	64766.2
802.0795	268.0092	65535	64764.15
802.2222	270.2267	65535	64762.8
802.3649	272.4436	65535	64764.45
802.5076	274.6601	65535	64757.25
802.6504	276.8759	65535	64756.45
802.7931	279.0913	65535	64754.65
802.9359	281.3061	65535	64757.55
803.0787	283.5204	65535	64754.45
803.2215	285.7341	65535	64744.65
803.3643	287.9473	65535	64738.75
803.5071	290.16	65535	64744.5
803.6499	292.3721	65535	64749.2
803.7928	294.5837	65535	64749.15
803.9357	296.7947	65535	64749
804.0786	299.0052	65535	64749.7
804.2215	301.2152	65535	64745
804.3644	303.4246	65535	64747.5
804.5074	305.6334	65535	64747.75
804.6503	307.8418	65535	64745.15
804.7933	310.0495	65535	64745.25
804.9363	312.2568	65535	64748.05
805.0793	314.4635	65535	64741.55
805.2223	316.6696	65535	64741.2
805.3653	318.8752	65535	64731.05
805.5084	321.0802	65535	64742.5
805.6514	323.2847	65535	64737.95
805.7945	325.4887	65535	64737.35
805.9376	327.692	65535	64736.55
806.0807	329.8949	65535	64737
806.2238	332.0972	65535	64730.7
806.367	334.2989	65535	64732.05
806.5101	336.5001	65535	64730.55
806.6533	338.7007	65535	64728.4
806.7965	340.9008	65535	64728.65
806.9397	343.1003	65535	64725
807.0829	345.2992	65535	64726.1
807.2261	347.4976	65535	64724.8
807.3693	349.6955	65535	64721.85
807.5126	351.8927	65535	64716.75
807.6559	354.0895	65535	64715.35
807.7991	356.2856	65535	64718.25
807.9424	358.4812	65535	64717.6
808.0857	360.6763	65535	64713.3
808.2291	362.8707	65535	64715.55
808.3724	365.0646	65535	64713.05
808.5158	367.258	65535	64712.75
808.6591	369.4508	65535	64708.95
808.8025	371.643	65535	64708
808.9459	373.8346	65535	64706.25
809.0893	376.0257	65535	64704.35
809.2327	378.2162	65535	64705.05
809.3762	380.4062	65535	64699.65
809.5196	382.5956	65535	64702.75
809.6631	384.7844	65535	64706.7
809.8066	386.9726	65535	64705.8
809.9501	389.1603	65535	64704.95
810.0936	391.3474	65535	64667.5
810.2371	393.5339	65535	64710.65
810.3806	395.7199	65535	64710.05
810.5241	397.9052	65535	64712.95
810.6677	400.09	65535	64710.8
810.8113	402.2743	65535	64709.65
810.9548	404.4579	65535	64712.35
811.0984	406.641	65535	64708.75
811.2421	408.8235	65535	64706.5
811.3857	411.0054	65535	64703.75
811.5293	413.1868	65535	64702.5
811.673	415.3675	65535	64701.55
811.8166	417.5477	65535	64700.3
811.9603	419.7273	65535	64698.1
812.104	421.9064	65535	64685.25
812.2477	424.0848	65535	64690.75
812.3914	426.2627	65535	64694
812.5351	428.4399	65535	64692.15
812.6788	430.6166	65535	64687.6
812.8226	432.7928	65535	64686.5
812.9663	434.9683	65535	64692.75
813.1101	437.1432	65535	64684.6
813.2539	439.3176	65535	64685.25
813.3977	441.4914	65535	64687
813.5415	443.6645	65535	64685.65
813.6853	445.8371	65535	64687.4
813.8291	448.0091	65535	64689.25
813.973	450.1806	65535	64687
814.1168	452.3514	65535	64685.75
814.2607	454.5216	65535	64672.65
814.4046	456.6913	65535	64680.7
814.5485	458.8603	65535	64680.5
814.6924	461.0288	65535	64683.9
814.8363	463.1967	65535	64682.55
814.9802	465.3639	65535	64681.55
815.1241	467.5306	65535	64680.5
815.2681	469.6967	65535	64681.5
815.412	471.8622	65535	64682.45
815.556	474.0271	65535	64681.25
815.7	476.1914	65535	64677.8
815.844	478.3551	65535	64681.05
815.988	480.5182	65535	64680.3
816.132	482.6807	65535	64679.7
816.276	484.8426	65535	64682.85
816.4201	487.0039	65535	64679.45
816.5641	489.1647	65535	64673.25
816.7082	491.3248	65535	64681.7
816.8522	493.4843	65535	64677.3
816.9963	495.6432	65535	64677.45
817.1404	497.8015	65535	64672.5
817.2845	499.9592	65535	64673.2
817.4286	502.1163	65535	64674.55
817.5727	504.2728	65535	64676.2
817.7168	506.4287	65535	64678
817.861	508.5839	65535	64674.9
818.0051	510.7386	65535	64671.3
818.1493	512.8927	65535	64672.25
818.2935	515.0461	65535	64673.6
818.4377	517.199	65535	64672.6
818.5818	519.3512	65535	64669.75
818.726	521.5029	65535	64667.9
818.8703	523.6539	65535	64669.5
819.0145	525.8043	65535	64670.35
819.1587	527.9541	65535	64665.2
819.303	530.1033	65535	64669.35
819.4472	532.2519	65535	64666.65
819.5915	534.3999	65535	64663.15
819.7357	536.5472	65535	64667
819.88	538.694	65535	64666.15
820.0243	540.8401	65535	64663.85
820.1686	542.9856	65535	64661.65
820.3129	545.1305	65535	64662.7
820.4572	547.2748	65535	64662.25
820.6016	549.4185	65535	64662.7
820.7459	551.5615	65535	64659.45
820.8902	553.704	65535	64662.85
821.0346	555.8458	65535	64664.7
821.1789	557.987	65535	64664.5
821.3233	560.1276	65535	64664.4
821.4677	562.2675	65535	64666.05
821.6121	564.4069	65535	64664.05
821.7565	566.5456	65535	64666.45
821.9009	568.6837	65535	64662.2
822.0453	570.8212	65535	64666.15
822.1897	572.958	65535	64658.55
822.3342	575.0942	65535	64664.3
822.4786	577.2299	65535	64662.4
822.6231	579.3648	65535	64662.35
822.7675	581.4992	65535	64665.75
822.912	583.6329	65535	64663.65
823.0565	585.766	65535	64663.6
823.201	587.8985	65535	64662.75
823.3454	590.0304	65535	64637.5
823.4899	592.1616	65535	64655.55
823.6345	594.2922	65535	64661.7
823.779	596.4222	65535	64658.9
823.9235	598.5515	65535	64657.5
824.068	600.6802	65535	64658.75
824.2126	602.8083	65535	64658.6
824.3571	604.9358	65535	64654.4
824.5017	607.0626	65535	64654.8
824.6462	609.1888	65535	64653.9
824.7908	611.3144	65535	64653.65
824.9354	613.4393	65535	64658.8
825.08	615.5636	65535	64656.25
825.2246	617.6873	65535	64657.05
825.3692	619.8103	65535	64655.9
825.5138	621.9327	65535	64654.45
825.6584	624.0544	65535	64653.9
825.803	626.1756	65535	64654.2
825.9477	628.2961	65535	64654.05
826.0923	630.4159	65535	64653.2
826.237	632.5351	65535	64652.8
826.3816	634.6537	65535	64651.05
826.5263	636.7716	65535	64651.7
826.6709	638.8889	65535	64652.6
826.8156	641.0056	65535	64648.45
826.9603	643.1216	65535	64649.65
827.105	645.237	65535	64646.8
827.2497	647.3518	65535	64648.8
827.3944	649.4659	65535	64654.7
827.5391	651.5793	65535	64649.7
827.6838	653.6922	65535	64652
827.8285	655.8043	65535	64652.1
827.9733	657.9159	65535	64648.45
828.118	660.0268	65535	64645.2
828.2627	662.137	65535	64650.3
828.4075	664.2466	65535	64645.95
828.5522	666.3556	65535	64649
828.697	668.4639	65535	64645.1
828.8418	670.5716	65535	64648.55
828.9865	672.6786	65535	64646.15
829.1313	674.785	65535	64642.25
829.2761	676.8907	65535	64651.2
829.4209	678.9958	65535	64645.35
829.5657	681.1002	65535	64647.1
829.7105	683.204	65535	64640.4
829.8553	685.3072	65535	64643.3
830.0001	687.4097	65535	64644.3
830.1449	689.5115	65535	64643.15
830.2898	691.6127	65535	64644.85
830.4346	693.7132	65535	64643.2
830.5794	695.8131	65535	64633.75
830.7243	697.9123	65535	64641.55
830.8691	700.0109	65535	64642.45
831.014	702.1089	65535	64645.75
831.1588	704.2061	65535	64642.15
831.3037	706.3028	65535	64643.65
831.4486	708.3987	65535	64643.1
831.5935	710.4941	65535	64642.05
831.7383	712.5887	65535	64643.65
831.8832	714.6827	65535	64640.35
832.0281	716.7761	65535	64639.75
832.173	718.8688	65535	64640.85
832.3179	720.9608	65535	64637.7
832.4628	723.0522	65535	64637.7
832.6077	725.1429	65535	64640.4
832.7527	727.233	65535	64641.65
832.8976	729.3224	65535	64642
833.0425	731.4112	65535	64635.95
833.1874	733.4993	65535	64634.45
833.3324	735.5867	65535	64638.8
833.4773	737.6735	65535	64639
833.6222	739.7596	65535	64641.15
833.7672	741.845	65535	64640.55
833.9122	743.9298	65535	64640.3
834.0571	746.014	65535	64641.95
834.2021	748.0974	65535	64636.7
834.347	750.1802	65535	64636.4
834.492	752.2624	65535	64640.45
834.637	754.3439	65535	64635.9
834.782	756.4247	65535	64629.95
834.9269	758.5048	65535	64640.8
835.0719	760.5843	65535	64638.2
835.2169	762.6631	65535	64637.6
835.3619	764.7413	65535	64640.45
835.5069	766.8188	65535	64637.6
835.6519	768.8956	65535	64634.6
835.7969	770.9718	65535	64638
835.9419	773.0473	65535	64638.5
836.0869	775.1221	65535	64637.65
836.232	777.1962	65535	64635.85
836.377	779.2697	65535	64633.7
836.522	781.3426	65535	64616.7
836.667	783.4147	65535	64636.85
836.8121	785.4862	65535	64639.35
836.9571	787.557	65535	64634.4
837.1021	789.6271	65535	64636.85
837.2472	791.6966	65535	64633.65
837.3922	793.7654	65535	64635.2
837.5373	795.8335	65535	64635.15
837.6823	797.901	65535	64637.5
837.8274	799.9678	65535	64635
837.9724	802.0339	65535	64638.05
838.1175	804.0993	65535	64629.05
838.2626	806.1641	65535	64635.55
838.4076	808.2282	65535	64636.1
838.5527	810.2916	65535	64635.65
838.6978	812.3544	65535	64638.35
838.8428	814.4164	65535	64638.25
838.9879	816.4778	65535	64632.15
839.133	818.5385	65535	64635.45
839.2781	820.5986	65535	64633.7
839.4232	822.658	65535	64631
839.5682	824.7166	65535	64639.55
839.7133	826.7747	65535	64636
839.8584	828.832	65535	64635.25
840.0035	830.8886	65535	64635.05
840.1486	832.9446	65535	64634.9
840.2937	834.9999	65535	64637.4
840.4388	837.0545	65535	64630.15
840.5839	839.1085	65535	64633.1
840.729	841.1618	65535	64631.7
840.8741	843.2143	65535	64631.25
841.0192	845.2662	65535	64634.5
841.1643	847.3175	65535	64636.6
841.3095	849.368	65535	64633.85
841.4546	851.4179	65535	64635.1
841.5997	853.467	65535	64632.7
841.7448	855.5155	65535	64635.25
841.8899	857.5633	65535	64633.15
842.0351	859.6105	65535	64633.65
842.1802	861.6569	65535	64633.7
842.3253	863.7027	65535	64630.6
842.4704	865.7478	65535	64632.8
842.6156	867.7922	65535	64633.95
842.7607	869.8359	65535	64632.6
842.9058	871.8789	65535	64630.55
843.0509	873.9212	65535	64600.8
843.1961	875.9629	65535	64633.05
843.3412	878.0039	65535	64631.95
843.4863	880.0441	65535	64632.75
843.6315	882.0837	65535	64632.8
843.7766	884.1226	65535	64630.45
843.9218	886.1609	65535	64634.6
844.0669	888.1984	65535	64635.55
844.212	890.2352	65535	64634.55
844.3572	892.2714	65535	64630.5
844.5023	894.3069	65535	64631.25
844.6475	896.3416	65535	64628.35
844.7926	898.3757	65535	64632.3
844.9377	900.4091	65535	64629.9
845.0829	902.4418	65535	64627.95
845.228	904.4739	65535	64629.8
845.3732	906.5052	65535	64631.05
845.5183	908.5358	65535	64630.1
845.6635	910.5658	65535	64628.5
845.8086	912.595	65535	64631.55
845.9538	914.6236	65535	64632.6
846.0989	916.6515	65535	64632.9
846.2441	918.6786	65535	64629
846.3892	920.7051	65535	64628.25
846.5344	922.7309	65535	64627.85
846.6795	924.756	65535	64629.3
846.8246	926.7804	65535	64628.5
846.9698	928.8041	65535	64628.2
847.1149	930.8272	65535	64629.05
847.2601	932.8495	65535	64630.1
847.4052	934.8711	65535	64628.1
847.5504	936.892	65535	64633.25
847.6955	938.9123	65535	64630.1
847.8407	940.9318	65535	64632.35
847.9858	942.9506	65535	64629.75
848.131	944.9688	65535	64632.65
848.2761	946.9862	65535	64628.55
848.4213	949.003	65535	64631.25
848.5664	951.019	65535	64629.5
848.7115	953.0344	65535	64631.6
848.8567	955.0491	65535	64630.75
849.0018	957.063	65535	64629
849.147	959.0763	65535	64632.7
849.2921	961.0888	65535	64626.85
849.4373	963.1007	65535	64630.75
849.5824	965.1119	65535	64632.9
849.7275	967.1223	65535	64632.65
849.8727	969.1321	65535	64631.35
850.0178	971.1412	65535	64630.9
850.1629	973.1495	65535	64632.55
850.3081	975.1572	65535	64583.25
850.4532	977.1641	65535	64630.5
850.5983	979.1704	65535	64630.9
850.7435	981.1759	65535	64625.4
850.8886	983.1808	65535	64629.35
851.0337	985.1849	65535	64619.45
851.1788	987.1884	65535	64626.9
851.324	989.1911	65535	64629.95
851.4691	991.1932	65535	64630.55
851.6142	993.1945	65535	64629.7
851.7593	995.1951	65535	64630.45
851.9045	997.1951	65535	64623.55
852.0496	999.1943	65535	64630.9
852.1947	1001.1928	65535	64629.3
852.3398	1003.1906	65535	64629.5
852.4849	1005.1877	65535	64627.65
852.63	1007.1841	65535	64629.8
852.7751	1009.1798	65535	64631.6
852.9202	1011.1748	65535	64629.05
853.0653	1013.1691	65535	64628.55
853.2104	1015.1627	65535	64627.7
853.3555	1017.1556	65535	64629.6
853.5006	1019.1477	65535	64630.35
853.6457	1021.1392	65535	64633.15
853.7908	1023.1299	65535	64630.65
853.9359	1025.12	65535	64629.7
854.081	1027.1093	65535	64632.25
854.2261	1029.0979	65535	64636.9
854.3712	1031.0859	65535	64633.05
854.5163	1033.0731	65535	64630.7
854.6613	1035.0596	65535	64633.9
854.8064	1037.0454	65535	64632
854.9515	1039.0304	65535	64632.75
855.0965	1041.0148	65535	64633.55
855.2416	1042.9985	65535	64628.75
855.3867	1044.9814	65535	64632.5
855.5317	1046.9636	65535	64629.7
855.6768	1048.9452	65535	64629.9
855.8219	1050.926	65535	64633
855.9669	1052.9061	65535	64629.6
856.112	1054.8855	65535	64630.85
856.257	1056.8642	65535	64629.9
856.4021	1058.8421	65535	64626.65
856.5471	1060.8194	65535	64631.15
856.6921	1062.7959	65535	64631.9
856.8372	1064.7717	65535	64627.9
856.9822	1066.7469	65535	64629.55
857.1272	1068.7213	65535	64627.35
857.2723	1070.695	65535	64629.35
857.4173	1072.6679	65535	64629.6
857.5623	1074.6402	65535	64631.3
857.7073	1076.6117	65535	64623.7
857.8523	1078.5826	65535	64630.1
857.9973	1080.5527	65535	64629.75
858.1423	1082.5221	65535	64628.1
858.2873	1084.4908	65535	64633.7
858.4323	1086.4587	65535	64632.05
858.5773	1088.426	65535	64632.05
858.7223	1090.3925	65535	64628.55
858.8673	1092.3584	65535	64630.05
859.0123	1094.3235	65535	64629.95
859.1573	1096.2879	65535	64630.3
859.3022	1098.2515	65535	64629.05
859.4472	1100.2145	65535	64631.8
859.5922	1102.1767	65535	64627.15
859.7371	1104.1382	65535	64632.7
859.8821	1106.099	65535	64627.95
860.027	1108.0591	65535	64628.9
860.172	1110.0185	65535	64628.4
860.3169	1111.9771	65535	64632.4
860.4619	1113.9351	65535	64631.2
860.6068	1115.8923	65535	64630.15
860.7517	1117.8488	65535	64629.9
860.8967	1119.8045	65535	64630.95
861.0416	1121.7596	65535	64630.35
861.1865	1123.7139	65535	64633.1
861.3314	1125.6675	65535	64634.45
861.4763	1127.6204	65535	64629.75
861.6212	1129.5726	65535	64629.45
861.7661	1131.524	65535	64632.5
861.911	1133.4748	65535	64629.55
862.0559	1135.4248	65535	64629.75
862.2008	1137.3741	65535	64630.85
862.3457	1139.3226	65535	64629.85
862.4905	1141.2705	65535	64631.05
862.6354	1143.2176	65535	64626.1
862.7803	1145.164	65535	64629.45
862.9251	1147.1097	65535	64631.65
863.07	1149.0546	65535	64629.35
863.2148	1150.9989	65535	64629.25
863.3597	1152.9424	65535	64629.75
863.5045	1154.8852	65535	64631.6
863.6493	1156.8272	65535	64632.1
863.7942	1158.7686	65535	64626.4
863.939	1160.7092	65535	64631.2
864.0838	1162.6491	65535	64626.5
864.2286	1164.5883	65535	64633.7
864.3734	1166.5267	65535	64631.1
864.5182	1168.4644	65535	64629.85
864.663	1170.4014	65535	64627.2
864.8078	1172.3377	65535	64631.9
864.9526	1174.2732	65535	64634.05
865.0974	1176.2081	65535	64634.15
865.2421	1178.1421	65535	64627.45
865.3869	1180.0755	65535	64633.3
865.5317	1182.0082	65535	64631.45
865.6764	1183.9401	65535	64630.55
865.8212	1185.8713	65535	64632.2
865.9659	1187.8017	65535	64633.1
866.1106	1189.7315	65535	64634.95
866.2554	1191.6605	65535	64606.25
866.4001	1193.5888	65535	64632.8
866.5448	1195.5163	65535	64629.75
866.6895	1197.4432	65535	64629.8
866.8342	1199.3693	65535	64632.15
866.9789	1201.2947	65535	64630.8
867.1236	1203.2193	65535	64631.85
867.2683	1205.1432	65535	64628.25
867.413	1207.0664	65535	64631.8
867.5576	1208.9889	65535	64629.65
867.7023	1210.9106	65535	64629.7
867.847	1212.8316	65535	64632.7
867.9916	1214.7519	65535	64620.5
868.1363	1216.6715	65535	64633.2
868.2809	1218.5903	65535	64632.85
868.4255	1220.5084	65535	64631.1
868.5701	1222.4257	65535	64631.15
868.7148	1224.3424	65535	64631.75
868.8594	1226.2583	65535	64628.35
869.004	1228.1735	65535	64632.95
869.1486	1230.0879	65535	64628.7
869.2932	1232.0016	65535	64635.45
869.4377	1233.9146	65535	64631.3
869.5823	1235.8269	65535	64632.4
869.7269	1237.7384	65535	64632.2
869.8715	1239.6492	65535	64631.85
870.016	1241.5592	65535	64631.2
870.1606	1243.4686	65535	64632.7
870.3051	1245.3772	65535	64633
870.4496	1247.285	65535	64631.1
870.5941	1249.1922	65535	64630.95
870.7387	1251.0986	65535	64633.6
870.8832	1253.0042	65535	64631.15
871.0277	1254.9092	65535	64632.45
871.1722	1256.8134	65535	64633.75
871.3167	1258.7169	65535	64628.45
871.4611	1260.6196	65535	64635.3
871.6056	1262.5216	65535	64630.85
871.7501	1264.4229	65535	64633.2
871.8945	1266.3234	65535	64632.4
872.039	1268.2232	65535	64630.7
872.1834	1270.1223	65535	64630.4
872.3278	1272.0207	65535	64630.9
872.4723	1273.9183	65535	64627.6
872.6167	1275.8151	65535	64632.1
872.7611	1277.7113	65535	64631.75
872.9055	1279.6067	65535	64630.6
873.0499	1281.5014	65535	64629.4
873.1943	1283.3953	65535	64628.95
873.3386	1285.2885	65535	64632.85
873.483	1287.181	65535	64632.4
873.6274	1289.0727	65535	64630.6
873.7717	1290.9637	65535	64631.4
873.9161	1292.854	65535	64630.9
874.0604	1294.7435	65535	64631.55
874.2047	1296.6323	65535	64630.6
874.349	1298.5204	65535	64627.5
874.4933	1300.4077	65535	64630.25
874.6376	1302.2943	65535	64633.6
874.7819	1304.1802	65535	64633.15
874.9262	1306.0653	65535	64630.15
875.0705	1307.9497	65535	64632.15
875.2147	1309.8333	65535	64634.25
875.359	1311.7162	65535	64630.8
875.5032	1313.5984	65535	64630.85
875.6475	1315.4798	65535	64617.85
875.7917	1317.3605	65535	64615.5
875.9359	1319.2405	65535	64630.65
876.0801	1321.1197	65535	64630.6
876.2243	1322.9982	65535	64627.25
876.3685	1324.876	65535	64632.6
876.5127	1326.753	65535	64631.05
876.6569	1328.6293	65535	64630.85
876.801	1330.5048	65535	64628.35
876.9452	1332.3796	65535	64634.25
877.0893	1334.2537	65535	64608.2
877.2335	1336.127	65535	64630.15
877.3776	1337.9996	65535	64634.3
877.5217	1339.8714	65535	64630.8
877.6658	1341.7426	65535	64588.35
877.8099	1343.6129	65535	64633.25
877.954	1345.4826	65535	64631.2
878.0981	1347.3515	65535	64629.7
878.2422	1349.2196	65535	64632.15
878.3862	1351.087	65535	64632.45
878.5303	1352.9537	65535	64631.65
878.6743	1354.8197	65535	64630.9
878.8184	1356.6849	65535	64630.55
878.9624	1358.5493	65535	64631.45
879.1064	1360.4131	65535	64633.6
879.2504	1362.276	65535	64630.3
879.3944	1364.1383	65535	64632.35
879.5384	1365.9998	65535	64627.95
879.6823	1367.8606	65535	64630.95
879.8263	1369.7206	65535	64632.5
879.9702	1371.5799	65535	64630.45
880.1142	1373.4384	65535	64632.55
880.2581	1375.2962	65535	64630.5
880.402	1377.1533	65535	64631
880.5459	1379.0096	65535	64630.55
880.6898	1380.8652	65535	64633.9
880.8337	1382.7201	65535	64631.8
880.9776	1384.5742	65535	64631.8
881.1215	1386.4275	65535	64631
881.2653	1388.2802	65535	64634.1
881.4092	1390.132	65535	64632.85
881.553	1391.9832	65535	64630.45
881.6968	1393.8336	65535	64631.8
881.8406	1395.6832	65535	64631.45
881.9844	1397.5322	65535	64632.5
882.1282	1399.3803	65535	64630.15
882.272	1401.2278	65535	64631.7
882.4158	1403.0745	65535	64634.05
882.5595	1404.9204	65535	64633.6
882.7033	1406.7656	65535	64633
882.847	1408.6101	65535	64632.4
882.9908	1410.4538	65535	64633.2
883.1345	1412.2968	65535	64632.75
883.2782	1414.139	65535	64629.65
883.4219	1415.9805	65535	64633.25
883.5656	1417.8213	65535	64627.3
883.7092	1419.6613	65535	64631.55
883.8529	1421.5006	65535	64631.35
883.9965	1423.3391	65535	64633.95
884.1402	1425.1769	65535	64632.2
884.2838	1427.0139	65535	64631.95
884.4274	1428.8502	65535	64634.15
884.571	1430.6858	65535	64633.15
884.7146	1432.5206	65535	64633.8
884.8582	1434.3547	65535	64631.4
885.0018	1436.188	65535	64632.8
885.1453	1438.0206	65535	64631.45
885.2889	1439.8524	65535	64631.75
885.4324	1441.6835	65535	64635.2
885.5759	1443.5139	65535	64629.75
885.7194	1445.3435	65535	64633.35
885.8629	1447.1724	65535	64633.3
886.0064	1449.0005	65535	64634.05
886.1499	1450.8279	65535	64632.65
886.2933	1452.6545	65535	64632.95
886.4368	1454.4804	65535	64633.3
886.5802	1456.3056	65535	64627.45
886.7237	1458.13	65535	64633.85
886.8671	1459.9536	65535	64634.45
887.0105	1461.7766	65535	64633.3
887.1539	1463.5987	65535	64631.05
887.2972	1465.4202	65535	64633.35
887.4406	1467.2409	65535	64629.8
887.584	1469.0608	65535	64632.35
887.7273	1470.88	65535	64633.3
887.8706	1472.6984	65535	64634.35
888.0139	1474.5161	65535	64629.35
888.1572	1476.3331	65535	64633.3
888.3005	1478.1493	65535	64633
888.4438	1479.9648	65535	64632.05
888.5871	1481.7795	65535	64633.35
888.7303	1483.5935	65535	64636
888.8736	1485.4067	65535	64632.45
889.0168	1487.2192	65535	64634.7
889.16	1489.031	65535	64630.7
889.3032	1490.842	65535	64634.75
889.4464	1492.6522	65535	64634.15
889.5896	1494.4618	65535	64633.55
889.7327	1496.2705	65535	64636.35
889.8759	1498.0785	65535	64633.1
890.019	1499.8858	65535	64635
890.1622	1501.6924	65535	64633.6
890.3053	1503.4981	65535	64631.05
890.4484	1505.3032	65535	64634.4
890.5914	1507.1075	65535	64633
890.7345	1508.911	65535	64633.2
890.8776	1510.7138	65535	64635
891.0206	1512.5159	65535	64632.4
891.1637	1514.3172	65535	64633
891.3067	1516.1178	65535	64634.5
891.4497	1517.9176	65535	64629.3
891.5927	1519.7166	65535	64633.85
891.7357	1521.515	65535	64628.45
891.8786	1523.3126	65535	64633.7
892.0216	1525.1094	65535	64635.45
892.1645	1526.9055	65535	64634.95
892.3074	1528.7008	65535	64636.4
892.4503	1530.4954	65535	64628.2
892.5932	1532.2893	65535	64635.6
892.7361	1534.0824	65535	64631.55
892.879	1535.8747	65535	64635.9
893.0218	1537.6663	65535	64634.15
893.1647	1539.4572	65535	64633.15
893.3075	1541.2473	65535	64633.15
893.4503	1543.0367	65535	64636.05
893.5931	1544.8253	65535	64627.85
893.7359	1546.6132	65535	64632.5
893.8787	1548.4003	65535	64626.5
894.0214	1550.1867	65535	64625.95
894.1642	1551.9723	65535	64628.35
894.3069	1553.7572	65535	64633.65
894.4496	1555.5414	65535	64635.3
894.5923	1557.3247	65535	64636.9
894.735	1559.1074	65535	64637.25
894.8777	1560.8893	65535	64637.55
895.0204	1562.6705	65535	64635.85
895.163	1564.4509	65535	64636.6
895.3056	1566.2305	65535	64636.3
895.4482	1568.0094	65535	64637.9
895.5908	1569.7876	65535	64637.95
895.7334	1571.565	65535	64637.15
895.876	1573.3417	65535	64637.6
896.0186	1575.1176	65535	64637.35
896.1611	1576.8928	65535	64637.5
896.3036	1578.6672	65535	64637.7
896.4461	1580.4409	65535	64637.25
896.5886	1582.2138	65535	64634.9
896.7311	1583.986	65535	64635.5
896.8736	1585.7575	65535	64637.7
897.0161	1587.5282	65535	64637.9
897.1585	1589.2981	65535	64638.25
897.3009	1591.0673	65535	64639.2
897.4433	1592.8358	65535	64638.55
897.5857	1594.6035	65535	64634.9
897.7281	1596.3704	65535	64638.05
897.8705	1598.1366	65535	64638.75
898.0128	1599.9021	65535	64638.15
898.1551	1601.6668	65535	64636.85
898.2975	1603.4308	65535	64638.55
898.4398	1605.194	65535	64633.4
898.5821	1606.9564	65535	64637.8
898.7243	1608.7182	65535	64635.65
898.8666	1610.4791	65535	64640.4
899.0088	1612.2394	65535	64640.7
899.1511	1613.9988	65535	64636.85
899.2933	1615.7576	65535	64639.25
899.4355	1617.5156	65535	64633
899.5776	1619.2728	65535	64638.45
899.7198	1621.0293	65535	64638.35
899.862	1622.785	65535	64636.75
900.0041	1624.54	65535	64633.85
900.1462	1626.2942	65535	64638.5
900.2883	1628.0477	65535	64636.5
900.4304	1629.8005	65535	64634.25
900.5725	1631.5525	65535	64638.9
900.7145	1633.3037	65535	64639.75
900.8566	1635.0542	65535	64640.95
900.9986	1636.804	65535	64638.35
901.1406	1638.553	65535	64546.4
901.2826	1640.3013	65535	64639.35
901.4245	1642.0488	65535	64638.3
901.5665	1643.7955	65535	64640.65
901.7085	1645.5416	65535	64641
901.8504	1647.2868	65535	64639.95
901.9923	1649.0313	65535	64639.8
902.1342	1650.7751	65535	64636.8
902.2761	1652.5181	65535	64639.65
902.4179	1654.2604	65535	64639.8
902.5598	1656.0019	65535	64641.65
902.7016	1657.7427	65535	64639.6
902.8434	1659.4828	65535	64639.65
902.9852	1661.222	65535	64638.65
903.127	1662.9606	65535	64638.9
903.2687	1664.6984	65535	64639.7
903.4105	1666.4354	65535	64639.75
903.5522	1668.1717	65535	64638.8
903.6939	1669.9072	65521.6	64628.55
903.8356	1671.642	65529.1	64630.7
903.9773	1673.3761	65523.15	64629.25
904.119	1675.1094	65518.65	64621.6
904.2606	1676.8419	65434.05	64539.75
904.4022	1678.5737	65500.7	64605.2
904.5439	1680.3048	65461.9	64565.75
904.6855	1682.0351	65421.35	64526.9
904.827	1683.7646	65360.95	64463.5
904.9686	1685.4934	65434.6	64540.1
905.1101	1687.2215	65077.75	64180.75
905.2517	1688.9488	65381.2	64485.6
905.3932	1690.6754	64651.25	63754.85
905.5347	1692.4012	65125.35	64231.1
905.6761	1694.1263	65219	64323.65
905.8176	1695.8506	64800.8	63905.5
905.9591	1697.5742	64916.2	64021.35
906.1005	1699.297	64827.55	63931.7
906.2419	1701.0191	64902.2	64008.35
906.3833	1702.7404	64275.2	63381.05
906.5246	1704.461	64054.5	63157.15
906.666	1706.1808	64611.9	63716.7
906.8073	1707.8999	64284	63389.1
906.9487	1709.6182	64157.1	63261.8
907.09	1711.3358	64024.3	63129.7
907.2313	1713.0527	63950.2	63057.95
907.3725	1714.7688	63992.4	63093.25
907.5138	1716.4841	63170.65	62274.1
907.655	1718.1987	63502.6	62602.75
907.7962	1719.9126	63266.85	62374.25
907.9374	1721.6257	63502.7	62605.4
908.0786	1723.338	63502.45	62610.25
908.2198	1725.0496	62326.65	61431
908.3609	1726.7605	62484.5	61589.2
908.502	1728.4706	62054.9	61161.15
908.6431	1730.18	62681.25	61785.6
908.7842	1731.8886	62072.9	61178.6
908.9253	1733.5964	61708	60794.25
909.0664	1735.3036	62364.35	61469.05
909.2074	1737.0099	61761.6	60871
909.3484	1738.7156	61224.85	60334.7
909.4894	1740.4204	61057.7	60162.15
909.6304	1742.1246	61294.1	60398.3
909.7714	1743.8279	61478	60585.45
909.9123	1745.5306	61290.15	60395.6
910.0532	1747.2325	59852.45	58961.45
910.1941	1748.9336	59872.2	58978.95
910.335	1750.634	60256.25	59360.25
910.4759	1752.3336	60616.45	59723.75
910.6168	1754.0325	59563.95	58671.4
910.7576	1755.7307	60538.75	59645.4
910.8984	1757.4281	59248.85	58356
911.0392	1759.1247	60128.8	59227.05
911.18	1760.8206	58856.85	57958.85
911.3208	1762.5158	58947.35	58048.85
911.4615	1764.2102	59219.45	58327.2
911.6022	1765.9039	58889.95	57995.3
911.7429	1767.5968	58681.6	57789.55
911.8836	1769.289	58518.05	57624.9
912.0243	1770.9804	58610.35	57715.85
912.1649	1772.6711	58413	57519.3
912.3056	1774.361	58161.35	57267.7
912.4462	1776.0502	58154.4	57259.5
912.5868	1777.7386	57434.25	56539.45
912.7274	1779.4263	57714	56822.45
912.8679	1781.1132	57712.1	56819.15
913.0084	1782.7994	57377.6	56482.9
913.149	1784.4849	57504.5	56612.65
913.2895	1786.1696	56540.5	55642.05
913.4299	1787.8535	56986.9	56094.7
913.5704	1789.5367	57060.45	56168.5
913.7108	1791.2192	56486.1	55592.95
913.8513	1792.9009	56168.75	55246.25
913.9917	1794.5818	56505.9	55610.15
914.132	1796.2621	56025.4	55132.2
914.2724	1797.9415	56020	55126.15
914.4128	1799.6202	55865.2	54972.2
914.5531	1801.2982	55915.7	55024.05
914.6934	1802.9755	55458.35	54562.55
914.8337	1804.6519	55280.1	54387.2
914.9739	1806.3277	55725.75	54833.25
915.1142	1808.0027	54669.55	53778.3
915.2544	1809.6769	54859.75	53966.95
915.3946	1811.3504	55018.6	54125
915.5348	1813.0231	54270.45	53376.75
915.675	1814.6951	54604.95	53711
915.8151	1816.3664	54341.15	53446.85
915.9553	1818.0369	54280.45	53384.65
916.0954	1819.7067	54061.85	53169.35
916.2355	1821.3757	54419.1	53523.95
916.3755	1823.044	53734	52840.4
916.5156	1824.7115	53511.55	52619.85
916.6556	1826.3783	53478.5	52584.6
916.7956	1828.0443	53402.1	52509
916.9356	1829.7096	53164.15	52269.65
917.0756	1831.3741	52888.3	51992.4
917.2155	1833.0379	52947.5	52055.55
917.3555	1834.701	52862.5	51969.55
917.4954	1836.3633	52539.15	51644.1
917.6353	1838.0248	52616.75	51723.15
917.7751	1839.6856	52437.25	51544.9
917.915	1841.3457	52218.05	51326.1
918.0548	1843.005	52319.6	51427.8
918.1946	1844.6636	52132.7	51243.15
918.3344	1846.3214	51798.1	50907.15
918.4742	1847.9785	51861.45	50967.9
918.6139	1849.6349	51707.9	50813.85
918.7537	1851.2904	51740.05	50837.9
918.8934	1852.9453	51417.35	50523.25
919.0331	1854.5994	51313.15	50420.65
919.1727	1856.2528	51420.9	50520.8
919.3124	1857.9054	51121.45	50227.6
919.452	1859.5572	50958.25	50066.2
919.5916	1861.2083	50924.1	50029.95
919.7312	1862.8587	51135.55	50241.45
919.8708	1864.5084	50481.05	49588
920.0103	1866.1572	50584.9	49693.4
920.1498	1867.8054	50207.2	49313.2
920.2893	1869.4528	50329.95	49437.2
920.4288	1871.0994	49938	49043.35
920.5683	1872.7453	49930.75	49038.4
920.7077	1874.3905	49903.4	49005.4
920.8471	1876.0349	49647.75	48752.95
920.9865	1877.6786	49688.25	48796.3
921.1259	1879.3215	49575.05	48681.35
921.2653	1880.9637	49551.75	48657.7
921.4046	1882.6051	49390	48497.8
921.5439	1884.2458	49146.85	48252.4
921.6832	1885.8858	48890.55	47997.95
921.8225	1887.525	48928.1	48035.6
921.9617	1889.1634	48682.15	47788
922.101	1890.8011	48506.9	47614.45
922.2402	1892.4381	48293.35	47402
922.3794	1894.0743	48340.4	47448.4
922.5185	1895.7098	48203.55	47311.9
922.6577	1897.3446	47972.8	47078
922.7968	1898.9786	47915.1	47020
922.9359	1900.6118	47779.25	46887
923.075	1902.2443	47489.85	46594.45
923.214	1903.8761	47472.85	46579.45
923.3531	1905.5071	47186.7	46294.4
923.4921	1907.1374	46949.55	46055.2
923.6311	1908.7669	46957.8	46066.2
923.77	1910.3957	46870.35	45979.55
923.909	1912.0237	46532.75	45640.75
924.0479	1913.651	46462.15	45568.9
924.1868	1915.2776	46321.85	45430.75
924.3257	1916.9034	46151.75	45260.05
924.4646	1918.5285	45860.65	44968.45
924.6034	1920.1528	45691.3	44798.35
924.7422	1921.7764	45687.95	44795.05
924.881	1923.3992	45496.95	44604.35
925.0198	1925.0213	45141.85	44247.85
925.1586	1926.6427	44989.15	44097.7
925.2973	1928.2633	44999.6	44000.5
925.436	1929.8832	44776.8	43882.95
925.5747	1931.5023	44592.1	43700.55
925.7134	1933.1207	44512.05	43620.25
925.852	1934.7383	44394.7	43502.9
925.9906	1936.3552	44182.5	43289.55
926.1292	1937.9714	44069.75	43177.6
926.2678	1939.5868	43887.05	42992.35
926.4064	1941.2015	43619.95	42726.85
926.5449	1942.8154	43524.7	42630.35
926.6834	1944.4286	43281.4	42387.35
926.8219	1946.041	43112.3	42201.65
926.9604	1947.6528	42879.95	41983.15
927.0988	1949.2637	42779.5	41889.5
927.2372	1950.8739	42655	41760.95
927.3756	1952.4834	42530.45	41639.15
927.514	1954.0921	42472.35	41580.75
927.6523	1955.7001	42281.25	41385.05
927.7907	1957.3074	42162.75	41270.95
927.929	1958.9139	41965	41073.9
928.0673	1960.5197	41838.3	40944.85
928.2055	1962.1247	41615.4	40723.65
928.3438	1963.729	41426.15	40537.15
928.482	1965.3325	41326.55	40412
928.6202	1966.9353	41157.35	40265.65
928.7584	1968.5374	40998.85	40108.45
928.8965	1970.1387	40898.5	40006.2
929.0346	1971.7393	40747	39854.9
929.1727	1973.3392	40601.2	39711.2
929.3108	1974.9383	40449.6	39558.1
929.4489	1976.5366	40264.5	39372.75
929.5869	1978.1342	40233.15	39341
929.7249	1979.7311	40082.75	39188.85
929.8629	1981.3273	40016	39122.25
930.0009	1982.9227	39817.95	38925.4
930.1388	1984.5173	39691.3	38801.85
930.2767	1986.1112	39522.9	38633.15
930.4146	1987.7044	39436.95	38547.2
930.5525	1989.2968	39256.75	38365.75
930.6904	1990.8885	39192.7	38299.55
930.8282	1992.4795	39110.35	38216.2
930.966	1994.0697	38897.65	38007.75
931.1038	1995.6592	38802	37910.5
931.2415	1997.2479	38680.65	37790.1
931.3793	1998.8359	38540.75	37652.1
931.517	2000.4232	38308.4	37419.9
931.6547	2002.0097	38199.55	37311.4
931.7923	2003.5955	38001.25	37110.05
931.93	2005.1805	38011.35	37118.4
932.0676	2006.7648	37893.35	37002.35
932.2052	2008.3484	37751.1	36859.45
932.3427	2009.9312	37818.8	36926.5
932.4803	2011.5133	37597.2	36707.45
932.6178	2013.0946	37476.8	36586.7
932.7553	2014.6752	37346.3	36457.45
932.8928	2016.2551	37275.2	36384.45
933.0302	2017.8342	37058.7	36167.6
933.1676	2019.4126	36938.9	36049.05
933.305	2020.9902	36816.95	35926.5
933.4424	2022.5672	36740.1	35848.85
933.5798	2024.1433	36619.5	35722.45
933.7171	2025.7188	36528.15	35638.7
933.8544	2027.2935	36358.9	35468.15
933.9917	2028.8674	36261.2	35372.4
934.129	2030.4406	36156.6	35268.95
934.2662	2032.0131	35953.65	35065.15
934.4034	2033.5849	35840.65	34946.6
934.5406	2035.1559	35764.75	34872.85
934.6778	2036.7261	35707.6	34818.7
934.8149	2038.2957	35605.55	34713.65
934.952	2039.8645	35478.5	34588.3
935.0891	2041.4325	35454.1	34560.55
935.2262	2042.9998	35271.35	34381.75
935.3632	2044.5664	35198.95	34307.25
935.5002	2046.1323	35097.35	34206.85
935.6372	2047.6974	34960.55	34070.15
935.7742	2049.2617	34856.9	33968.25
935.9111	2050.8254	34809.4	33896.45
936.048	2052.3883	34784.7	33892.55
936.1849	2053.9504	34660.65	33770.8
936.3218	2055.5118	34462.2	33571.05
936.4586	2057.0725	34375.9	33481.2
936.5955	2058.6325	34269.2	33377
936.7323	2060.1917	34123.85	33234.1
936.869	2061.7502	34077.85	33183.55
937.0058	2063.3079	33920.6	33029.1
937.1425	2064.8649	33800.15	32906.25
937.2792	2066.4212	33743.1	32851.65
937.4159	2067.9767	33637.5	32747.25
937.5525	2069.5315	33474.9	32586
937.6891	2071.0856	33309.55	32418.75
937.8257	2072.6389	33163.4	32271.05
937.9623	2074.1915	33025.1	32137.35
938.0989	2075.7433	32838	31946.35
938.2354	2077.2945	32798.4	31908.9
938.3719	2078.8448	32672.75	31782.45
938.5084	2080.3945	32579.7	31690.2
938.6448	2081.9434	32530.95	31640.6
938.7812	2083.4916	32417.5	31528
938.9176	2085.039	32292.25	31398.65
939.054	2086.5857	32245.55	31352.2
939.1903	2088.1317	32124.05	31233.9
939.3267	2089.677	32021.2	31130.55
939.463	2091.2215	31947.15	31055.85
939.5992	2092.7652	31847.3	30953.75
939.7355	2094.3083	31747.65	30855.4
939.8717	2095.8506	31691.35	30801.5
940.0079	2097.3921	31643.75	30753.4
940.1441	2098.933	31513.75	30621.15
940.2802	2100.4731	31476.55	30585.75
940.4163	2102.0124	31419.05	30520.5
940.5524	2103.5511	31300.95	30409
940.6885	2105.089	31220.6	30330.4
940.8245	2106.6261	31149	30258.45
940.9606	2108.1626	31046.3	30153.3
941.0965	2109.6983	30988.45	30070.45
941.2325	2111.2332	30889.05	29998.45
941.3684	2112.7675	30769.85	29877.75
941.5044	2114.301	30656.75	29763.4
941.6403	2115.8337	30635.6	29743.9
941.7761	2117.3657	30487.3	29597.3
941.912	2118.897	30438.5	29546.95
942.0478	2120.4276	30362.65	29465.5
942.1835	2121.9575	30185	29292.95
942.3193	2123.4866	30170.7	29265.15
942.455	2125.0149	30085.1	29189.25
942.5907	2126.5426	29930.75	29041
942.7264	2128.0695	29850.95	28957.3
942.8621	2129.5956	29756.2	28866
942.9977	2131.1211	29716.4	28823.5
943.1333	2132.6458	29621.4	28731.05
943.2689	2134.1698	29530.1	28639.55
943.4044	2135.693	29456.8	28563.35
943.54	2137.2155	29352.9	28458.05
943.6755	2138.7373	29270.25	28379.3
943.8109	2140.2584	29235.15	28344.4
943.9464	2141.7787	29090.6	28195.85
944.0818	2143.2983	28963.05	28074.35
944.2172	2144.8171	28795.6	27907.15
944.3526	2146.3353	28751.8	27859.7
944.4879	2147.8527	28563.7	27673.05
944.6232	2149.3693	28594.4	27702.65
944.7585	2150.8853	28441.25	27549.9
944.8938	2152.4005	28312.6	27420.2
945.029	2153.9149	28296.1	27405.5
945.1642	2155.4287	28202.1	27311.9
945.2994	2156.9417	28143.25	27251.2
945.4346	2158.454	28007.15	27114.7
945.5697	2159.9655	27957.15	27066.65
945.7048	2161.4764	27927.95	27038.45
945.8399	2162.9865	27769.85	26877.95
945.9749	2164.4958	27698.15	26806.25
946.1099	2166.0045	27607.5	26713.25
946.2449	2167.5124	27605.25	26714.3
946.3799	2169.0195	27498.8	26609.75
946.5148	2170.526	27476.55	26585.3
946.6498	2172.0317	27361.2	26470.35
946.7846	2173.5367	27261.85	26370.2
946.9195	2175.0409	27217.05	26326.4
947.0543	2176.5445	27158.45	26267.85
947.1891	2178.0473	27036.8	26145.4
947.3239	2179.5494	26917.55	26023.15
947.4587	2181.0507	26838.5	25947.4
947.5934	2182.5513	26732.95	25840.1
947.7281	2184.0512	26676.75	25787.5
947.8628	2185.5504	26577.05	25687.4
947.9974	2187.0488	26426.35	25537.1
948.132	2188.5465	26362.55	25470.65
948.2666	2190.0435	26272.3	25379.35
948.4012	2191.5397	26146.65	25253.5
948.5357	2193.0353	26119.9	25228.85
948.6702	2194.5301	25958.95	25066.3
948.8047	2196.0241	25822.6	24931.85
948.9392	2197.5175	25763.25	24870.8
949.0736	2199.0101	25676.6	24783.65
949.208	2200.502	25576.85	24688
949.3424	2201.9931	25463.3	24572.4
949.4767	2203.4835	25349.6	24458
949.611	2204.9733	25320.8	24424.9
949.7453	2206.4622	25242.2	24352.9
949.8796	2207.9505	25139.75	24246.2
950.0138	2209.438	25010.95	24119.75
950.148	2210.9248	24931.2	24038
950.2822	2212.4109	24846.25	23954.3
950.4164	2213.8962	24765.5	23872.95
950.5505	2215.3809	24688.55	23797.1
950.6846	2216.8648	24635.2	23745.6
950.8186	2218.3479	24553.5	23657.6
950.9527	2219.8304	24454.75	23561.55
951.0867	2221.3121	24334	23441.6
951.2207	2222.7931	24269.6	23380.2
951.3546	2224.2733	24134.5	23245
951.4886	2225.7529	24076.75	23186.15
951.6225	2227.2317	24008.05	23114
951.7563	2228.7098	23977.8	23086.55
951.8902	2230.1872	23830.25	22938.15
952.024	2231.6638	23834.3	22943.35
952.1578	2233.1397	23712.25	22814.75
952.2916	2234.6149	23619.85	22729.3
952.4253	2236.0894	23482.05	22591.2
952.559	2237.5632	23451.9	22559.7
952.6927	2239.0362	23326	22436.95
952.8263	2240.5085	23303.4	22413.6
952.9599	2241.9801	23229.65	22336.8
953.0935	2243.4509	23141.2	22250.65
953.2271	2244.921	23044.8	22154.05
953.3606	2246.3904	22967.25	22074.7
953.4941	2247.8591	22875.5	21984.95
953.6276	2249.3271	22819.2	21929.3
953.7611	2250.7943	22727.3	21836.75
953.8945	2252.2608	22665.4	21775.15
954.0279	2253.7266	22598.3	21708.2
954.1612	2255.1917	22543.7	21652.8
954.2946	2256.656	22460.25	21569.45
954.4279	2258.1197	22378.55	21488.6
954.5612	2259.5826	22333.2	21441.85
954.6944	2261.0447	22277.15	21387.8
954.8276	2262.5062	22154.75	21260.95
954.9608	2263.9669	22121	21228.25
955.094	2265.4269	22014.9	21121.3
955.2271	2266.8862	21991.55	21100.45
955.3602	2268.3448	21922.7	21033.05
955.4933	2269.8026	21871.8	20980
955.6264	2271.2598	21776.05	20884.95
955.7594	2272.7162	21734.55	20844.45
955.8924	2274.1719	21660.65	20769.35
956.0253	2275.6268	21602.55	20711.3
956.1583	2277.0811	21583.55	20692.2
956.2912	2278.5346	21486.25	20595.9
956.4241	2279.9874	21412.8	20521.5
956.5569	2281.4395	21376.95	20487
956.6897	2282.8908	21254.1	20359.85
956.8225	2284.3414	21255.85	20362.9
956.9553	2285.7914	21137.65	20249.15
957.088	2287.2406	21059.85	20168.55
957.2207	2288.689	21038.95	20148
957.3534	2290.1368	20941	20050.25
957.486	2291.5838	20872	19978.95
957.6186	2293.0302	20794.2	19900.6
957.7512	2294.4758	20699.6	19807.4
957.8838	2295.9206	20660.6	19766.1
958.0163	2297.3648	20565.05	19673.9
958.1488	2298.8082	20529.85	19639
958.2813	2300.251	20463.65	19572.45
958.4137	2301.693	20378.95	19486.7
958.5461	2303.1343	20347.15	19455.6
958.6785	2304.5748	20279.2	19389.5
958.8108	2306.0147	20210.15	19318.55
958.9432	2307.4538	20180.15	19287
959.0754	2308.8922	20079.55	19190.1
959.2077	2310.3299	20012.45	19121.1
959.3399	2311.7669	19934.15	19046.65
959.4721	2313.2031	19856	18964.7
959.6043	2314.6387	19773.05	18882.55
959.7365	2316.0735	19734.4	18843.85
959.8686	2317.5076	19680.1	18787.7
960.0006	2318.941	19586.75	18694.8
960.1327	2320.3737	19546.5	18654.6
960.2647	2321.8056	19505.4	18613
960.3967	2323.2369	19433.55	18541.35
960.5287	2324.6674	19359.85	18466.3
960.6606	2326.0972	19337.35	18447.3
960.7925	2327.5263	19240.3	18351.35
960.9244	2328.9547	19165.55	18275.1
961.0562	2330.3823	19096.8	18206.1
961.1881	2331.8092	19105	18209.6
961.3198	2333.2355	18992.8	18101.1
961.4516	2334.661	18964.05	18072.55
961.5833	2336.0858	18961.65	18069.7
961.715	2337.5098	18895.55	18005.65
961.8467	2338.9332	18834.15	17943
961.9783	2340.3558	18745.4	17851.95
962.1099	2341.7778	18654.5	17762.6
962.2415	2343.199	18600.25	17706.75
962.373	2344.6195	18538.25	17647.8
962.5045	2346.0393	18502.95	17613.3
962.636	2347.4583	18466.05	17575.55
962.7675	2348.8767	18379.15	17487
962.8989	2350.2943	18340.6	17449.8
963.0303	2351.7113	18320.65	17428.2
963.1617	2353.1275	18227.95	17337.1
963.293	2354.543	18189.8	17290.3
963.4243	2355.9578	18101.9	17210.8
963.5556	2357.3718	17988.4	17098.75
963.6868	2358.7852	17908.7	17016.95
963.818	2360.1978	17868.8	16977.7
963.9492	2361.6098	17807.75	16917.15
964.0803	2363.021	17738.3	16844.3
964.2114	2364.4315	17688.3	16798.1
964.3425	2365.8413	17634.8	16743.95
964.4736	2367.2504	17588.85	16698.8
964.6046	2368.6587	17490.4	16599.2
964.7356	2370.0664	17408.35	16518.35
964.8666	2371.4733	17349.45	16458.25
964.9975	2372.8795	17289	16400.15
965.1284	2374.285	17226.85	16333.45
965.2593	2375.6899	17135.3	16245.85
965.3901	2377.0939	17045.2	16154.85
965.5209	2378.4973	16987.35	16097.3
965.6517	2379.9	16925.6	16033.9
965.7825	2381.3019	16865.6	15975.1
965.9132	2382.7032	16822.25	15932.5
966.0439	2384.1037	16764.85	15877
966.1745	2385.5035	16703.5	15813.45
966.3051	2386.9027	16673.7	15784.25
966.4357	2388.3011	16604.9	15712.45
966.5663	2389.6987	16564.6	15674
966.6968	2391.0957	16487.15	15597.65
966.8273	2392.492	16408.45	15520.4
966.9578	2393.8876	16307.05	15416.35
967.0882	2395.2824	16246.95	15355.45
967.2186	2396.6765	16186.95	15296.25
967.349	2398.07	16125.95	15236.75
967.4793	2399.4627	16081.25	15188.15
967.6097	2400.8547	16045.2	15155.05
967.7399	2402.246	15997	15101.6
967.8702	2403.6366	15879.05	14988.6
968.0004	2405.0265	15788.45	14899.85
968.1306	2406.4156	15751.75	14860.25
968.2607	2407.8041	15650.1	14759.75
968.3909	2409.1918	15601.55	14706.7
968.521	2410.5789	15550.3	14660.35
968.651	2411.9652	15502.9	14610.1
968.781	2413.3508	15442.25	14550.3
968.911	2414.7358	15359.45	14469
969.041	2416.12	15329.5	14441
969.1709	2417.5035	15303.05	14413.5
969.3008	2418.8863	15220.05	14328.25
969.4307	2420.2684	15186.4	14297.25
969.5606	2421.6497	15114.8	14225.15
969.6904	2423.0304	15032.35	14142.15
969.8201	2424.4104	14998.85	14108.25
969.9499	2425.7896	14934.4	14042.35
970.0796	2427.1682	14909.05	14017.4
970.2093	2428.546	14865.8	13973.55
970.3389	2429.9232	14834.4	13942.45
970.4685	2431.2996	14768	13877.4
970.5981	2432.6753	14746.35	13856.2
970.7277	2434.0503	14686	13794.7
970.8572	2435.4246	14609.4	13719.85
970.9867	2436.7982	14555.2	13663.75
971.1161	2438.1711	14490	13601.3
971.2456	2439.5433	14472	13580.95
971.375	2440.9148	14393	13495.85
971.5043	2442.2856	14329.1	13440.15
971.6336	2443.6557	14320.8	13429.5
971.7629	2445.025	14265.25	13375.45
971.8922	2446.3937	14228.8	13337.15
972.0214	2447.7617	14167.9	13277.05
972.1506	2449.1289	14163.55	13274.65
972.2798	2450.4955	14078.7	13186.35
972.4089	2451.8613	14021.8	13132.4
972.538	2453.2265	14000.3	13109.15
972.6671	2454.5909	13955.45	13064
972.7961	2455.9546	13938.85	13049.8
972.9251	2457.3177	13894.9	13005.9
973.0541	2458.68	13849.65	12958.7
973.1831	2460.0416	13817.85	12928.35
973.312	2461.4025	13741.8	12850.2
973.4408	2462.7627	13726	12825.2
973.5697	2464.1222	13674.55	12786
973.6985	2465.4811	13639.1	12748.15
973.8273	2466.8392	13554.55	12665.85
973.956	2468.1966	13550.1	12657.7
974.0847	2469.5533	13551.85	12658.6
974.2134	2470.9093	13495.15	12604
974.3421	2472.2645	13419.4	12529.1
974.4707	2473.6191	13424.65	12534.25
974.5993	2474.973	13359.45	12469.95
974.7278	2476.3262	13290.6	12398.8
974.8563	2477.6787	13274	12382.55
974.9848	2479.0305	13150.6	12258.85
975.1132	2480.3816	13123.9	12232.15
975.2417	2481.7319	13073.05	12182.75
975.37	2483.0816	13011.95	12120.85
975.4984	2484.4306	12988.7	12098.25
975.6267	2485.7789	12950.35	12062
975.755	2487.1264	12873.55	11981.4
975.8833	2488.4733	12818	11928.8
976.0115	2489.8195	12784.8	11876.2
976.1397	2491.165	12734.9	11839.9
976.2678	2492.5097	12711.65	11821
976.3959	2493.8538	12653.95	11764.25
976.524	2495.1972	12556.05	11666.15
976.6521	2496.5398	12525.45	11633.4
976.7801	2497.8818	12529.9	11636.15
976.9081	2499.2231	12458.8	11566.5
977.036	2500.5637	12403.4	11512.1
977.164	2501.9035	12337.95	11446.1
977.2918	2503.2427	12320.6	11425.55
977.4197	2504.5812	12258.85	11368.9
977.5475	2505.919	12232.8	11341.6
977.6753	2507.256	12229.2	11337.45
977.8031	2508.5924	12157	11266.95
977.9308	2509.9281	12111.7	11216.35
978.0585	2511.2631	12058	11166.4
978.1861	2512.5974	12044.1	11154.05
978.3137	2513.9309	11975.95	11086.15
978.4413	2515.2638	11971.25	11054.6
978.5689	2516.596	11908.75	11018.05
978.6964	2517.9275	11847.6	10956.7
978.8239	2519.2583	11835.25	10944.15
978.9513	2520.5884	11769.05	10877.45
979.0788	2521.9178	11740.9	10851.4
979.2062	2523.2465	11708.9	10818.35
979.3335	2524.5745	11637.05	10746.05
979.4608	2525.9018	11599.45	10707.15
979.5881	2527.2284	11560.25	10670.4
979.7154	2528.5543	11547.45	10659.4
979.8426	2529.8796	11481.3	10591.9
979.9698	2531.2041	11476.8	10587.75
980.0969	2532.5279	11443.95	10555.95
980.224	2533.851	11424.1	10532.4
980.3511	2535.1735	11381.3	10491.25
980.4781	2536.4952	11328.95	10438.25
980.6052	2537.8163	11303	10411.75
980.7321	2539.1366	11278.7	10389.45
980.8591	2540.4562	11219.8	10328.45
980.986	2541.7752	11208.7	10318.25
981.1129	2543.0935	11181.85	10291.9
981.2397	2544.411	11171.45	10280.35
981.3665	2545.7279	11139.8	10250.55
981.4933	2547.0441	11108.5	10219.05
981.62	2548.3596	11071.15	10178.3
981.7467	2549.6744	11053.5	10162.9
981.8734	2550.9885	11007.35	10107.45
982.0001	2552.3019	10976.9	10086.2
982.1267	2553.6146	10953.05	10063.85
982.2532	2554.9266	10927.8	10038.8
982.3798	2556.2379	10868	9978.35
982.5063	2557.5485	10856.75	9969.5
982.6327	2558.8585	10821.5	9924.1
982.7592	2560.1677	10802.1	9904.65
982.8856	2561.4762	10788.7	9898.4
983.0119	2562.7841	10761.9	9869.25
983.1383	2564.0913	10724.65	9836.15
983.2646	2565.3977	10733.4	9844.85
983.3908	2566.7035	10666.05	9777.05
983.517	2568.0086	10668.85	9776.5
983.6432	2569.313	10659.4	9767.1
983.7694	2570.6167	10614.15	9723.15
983.8955	2571.9197	10569.25	9681
984.0216	2573.222	10574.4	9678.85
984.1476	2574.5236	10527.65	9636.55
984.2737	2575.8246	10504.6	9612.85
984.3996	2577.1248	10469.15	9574.6
984.5256	2578.4244	10469.6	9578.55
984.6515	2579.7232	10477.85	9587.9
984.7774	2581.0214	10423.1	9505.15
984.9032	2582.3189	10377	9487.75
985.029	2583.6157	10358.7	9463.1
985.1548	2584.9118	10329	9438.05
985.2806	2586.2072	10315.85	9426.7
985.4063	2587.5019	10282.65	9392.6
985.5319	2588.7959	10250.05	9359.05
985.6576	2590.0893	10239.75	9349.95
985.7832	2591.3819	10215.75	9326.3
985.9087	2592.6739	10146.45	9257.6
986.0343	2593.9652	10104.9	9214.2
986.1597	2595.2557	10071.45	9182.85
986.2852	2596.5456	10050.25	9157.1
986.4106	2597.8348	10023.9	9133.3
986.536	2599.1234	9973.45	9083.25
986.6614	2600.4112	9956.2	9065.65
986.7867	2601.6983	9906.3	9012.95
986.912	2602.9848	9851.15	8960.3
987.0372	2604.2705	9829.4	8932.25
987.1624	2605.5556	9817.2	8925.75
987.2876	2606.84	9789.15	8900.25
987.4128	2608.1237	9726.05	8834.75
987.5379	2609.4067	9691.05	8800.5
987.6629	2610.689	9675.75	8778
987.788	2611.9707	9648.05	8753.45
987.913	2613.2516	9595.95	8700.8
988.0379	2614.5319	9563.05	8672.5
988.1629	2615.8115	9516.25	8626.55
988.2878	2617.0903	9458.45	8566.4
988.4126	2618.3685	9438.7	8547.5
988.5375	2619.6461	9417.3	8526.25
988.6622	2620.9229	9373.3	8483
988.787	2622.199	9352.35	8461.3
988.9117	2623.4745	9348	8456.9
989.0364	2624.7493	9277	8388.8
989.161	2626.0234	9249.55	8361.6
989.2857	2627.2968	9206.85	8317.5
989.4102	2628.5695	9173.65	8282.85
989.5348	2629.8415	9130.05	8240.45
989.6593	2631.1128	9097.65	8206.7
989.7837	2632.3835	9065.7	8175.8
989.9082	2633.6535	9027.45	8137.95
990.0326	2634.9228	9005.5	8114.85
990.1569	2636.1914	8964.25	8072.6
990.2812	2637.4593	8926.1	8033.25
990.4055	2638.7265	8905.95	8015.25
990.5298	2639.9931	8870	7980.2
990.654	2641.259	8861.4	7970.95
990.7782	2642.5242	8828.15	7936.55
990.9023	2643.7887	8820.3	7929.55
991.0264	2645.0525	8767.15	7875.9
991.1505	2646.3156	8749.35	7858.2
991.2745	2647.5781	8709.4	7819.05
991.3985	2648.8398	8681.65	7791.05
991.5225	2650.1009	8666.55	7769.1
991.6464	2651.3613	8639.1	7748.95
991.7703	2652.6211	8590.1	7698.25
991.8942	2653.8801	8562.25	7671.8
992.018	2655.1385	8571.05	7678.45
992.1418	2656.3961	8521.4	7632.4
992.2655	2657.6531	8508.05	7618.55
992.3892	2658.9094	8508	7617.6
992.5129	2660.1651	8456.25	7566.5
992.6366	2661.42	8443.75	7552.4
992.7602	2662.6743	8419.25	7525.85
992.8837	2663.9279	8386.25	7494.8
993.0073	2665.1808	8350.85	7462.9
993.1307	2666.433	8349.15	7459.7
993.2542	2667.6846	8325.1	7434.65
993.3776	2668.9354	8293.3	7400.15
993.501	2670.1856	8290.5	7398.9
993.6244	2671.4351	8250.05	7359.8
993.7477	2672.6839	8232.45	7341.5
993.8709	2673.9321	8202.3	7312.25
993.9942	2675.1795	8196.35	7305.55
994.1174	2676.4263	8160.7	7271.7
994.2405	2677.6724	8130.8	7240.15
994.3637	2678.9179	8112.8	7223.2
994.4868	2680.1626	8068.15	7178.9
994.6098	2681.4067	8051	7160.5
994.7328	2682.6501	8036	7146.05
994.8558	2683.8928	8003.7	7112.35
994.9788	2685.1348	7967.1	7078.3
995.1017	2686.3761	7940.55	7049.55
995.2245	2687.6168	7918	7029.25
995.3474	2688.8568	7891.3	7002.65
995.4702	2690.0961	7857.65	6968.55
995.5929	2691.3348	7849.3	6959.25
995.7156	2692.5727	7809.55	6919.4
995.8383	2693.81	7771.7	6881.55
995.961	2695.0466	7771.95	6882.45
996.0836	2696.2826	7745.5	6854.7
996.2062	2697.5178	7735.25	6842.75
996.3287	2698.7524	7696.45	6803.75
996.4512	2699.9863	7672.1	6781.4
996.5737	2701.2195	7655.75	6766.85
996.6961	2702.452	7635.65	6742.45
996.8185	2703.6839	7607.15	6715.35
996.9408	2704.9151	7583.2	6694.95
997.0631	2706.1456	7561.15	6670.4
997.1854	2707.3755	7526.15	6636.15
997.3077	2708.6046	7512.55	6619.5
997.4299	2709.8331	7521.65	6629.1
997.552	2711.0609	7477.2	6586.35
997.6742	2712.2881	7463	6571.1
997.7963	2713.5145	7452.4	6559.9
997.9183	2714.7403	7436.6	6547.9
998.0403	2715.9654	7389.45	6500.25
998.1623	2717.1899	7399.95	6496.6
998.2842	2718.4136	7388.45	6499.75
998.4062	2719.6367	7360.8	6469.5
998.528	2720.8591	7337.3	6441.75
998.6498	2722.0809	7310.65	6419.7
998.7716	2723.3019	7296.55	6401.8
998.8934	2724.5223	7280.05	6390.3
999.0151	2725.7421	7260.2	6368.15
999.1368	2726.9611	7241.45	6351.4
999.2584	2728.1795	7214.5	6320.25
999.38	2729.3972	7185.2	6294.9
999.5016	2730.6142	7149.4	6246.5
999.6231	2731.8306	7116.8	6225.55
999.7446	2733.0462	7093.75	6200.15
999.8661	2734.2612	7046.4	6150.65
999.9875	2735.4756	6999.45	6108.05
1000.1089	2736.6892	6952.35	6061.35
1000.2302	2737.9022	6908.05	6020.2
1000.3515	2739.1145	6863.55	5973.9
1000.4728	2740.3262	6840.3	5942
1000.594	2741.5372	6821.2	5929.95
1000.7152	2742.7475	6771.3	5879.8
1000.8363	2743.9571	6745.6	5853.3
1000.9575	2745.1661	6733.85	5837.9
1001.0785	2746.3744	6700.6	5809.05
1001.1996	2747.582	6663.4	5775.2
1001.3206	2748.7889	6644.45	5752.2
1001.4415	2749.9952	6617.7	5729.95
1001.5625	2751.2008	6580.95	5688.8
1001.6833	2752.4057	6566.65	5672.6
1001.8042	2753.61	6549.2	5655.3
1001.925	2754.8136	6512.4	5619.45
1002.0458	2756.0165	6501.8	5612.3
1002.1665	2757.2188	6474.25	5585.3
1002.2872	2758.4204	6465	5574.4
1002.4078	2759.6213	6418.5	5526.5
1002.5285	2760.8215	6414.5	5519.8
1002.649	2762.0211	6397.75	5505.6
1002.7696	2763.22	6371.85	5478.7
1002.8901	2764.4182	6346.75	5454.25
1003.0106	2765.6158	6324.6	5434.1
1003.131	2766.8127	6309.95	5418.65
1003.2514	2768.009	6301.6	5412.6
1003.3717	2769.2045	6271.2	5380.85
1003.492	2770.3994	6260.15	5368.55
1003.6123	2771.5936	6233.3	5341.1
1003.7325	2772.7872	6199.05	5308.95
1003.8527	2773.9801	6178	5287
1003.9729	2775.1723	6167.15	5261.95
1004.093	2776.3639	6118.85	5229.65
1004.2131	2777.5548	6096.65	5203.7
1004.3331	2778.745	6081.55	5191.15
1004.4531	2779.9346	6079.55	5189.8
1004.5731	2781.1235	6051.55	5159.45
1004.693	2782.3117	6036.55	5147.6
1004.8129	2783.4992	6013.75	5122.5
1004.9328	2784.6861	6013.3	5123.7
1005.0526	2785.8723	6000	5108.8
1005.1723	2787.0579	5958.25	5066.75
1005.2921	2788.2428	5972.65	5084.95
1005.4118	2789.427	5964.3	5073.55
1005.5314	2790.6106	5939.65	5051.75
1005.651	2791.7935	5923.6	5032.4
1005.7706	2792.9757	5909.4	5021.4
1005.8902	2794.1573	5902.7	5011.2
1006.0097	2795.3382	5891.25	5001
1006.1291	2796.5184	5867.65	4978.95
1006.2485	2797.698	5877.2	4986.6
1006.3679	2798.8769	5878.85	4989.9
1006.4873	2800.0551	5877.9	4988.8
1006.6066	2801.2327	5854.65	4961.75
1006.7258	2802.4096	5875.6	4984.95
1006.8451	2803.5859	5868	4975.55
1006.9642	2804.7615	5861.85	4970
1007.0834	2805.9364	5867.05	4977.8
1007.2025	2807.1106	5884.3	4996.65
1007.3216	2808.2842	5902	5012.7
1007.4406	2809.4572	5893.45	5003.5
1007.5596	2810.6294	5902.75	5012.55
1007.6785	2811.801	5952.2	5062.4
1007.7975	2812.972	5958.6	5071.45
1007.9163	2814.1423	5988.2	5096.95
1008.0352	2815.3119	6004.5	5115.05
1008.154	2816.4808	6048.55	5160.35
1008.2727	2817.6491	6070.4	5180.3
1008.3914	2818.8167	6122.6	5231.05
1008.5101	2819.9837	6143.25	5247.65
1008.6288	2821.15	6163.5	5274
1008.7474	2822.3157	6182.05	5292.95
1008.8659	2823.4807	6225.35	5334.55
1008.9844	2824.645	6238.1	5349.1
1009.1029	2825.8086	6302.3	5414.4
1009.2214	2826.9716	6313.35	5423.25
1009.3398	2828.134	6372.65	5482.75
1009.4581	2829.2957	6385.05	5495.25
1009.5764	2830.4567	6382.15	5492.5
1009.6947	2831.617	6403.2	5513.85
1009.813	2832.7767	6397.55	5506.5
1009.9312	2833.9358	6396.7	5507.75
1010.0493	2835.0941	6355.85	5464.05
1010.1675	2836.2519	6345	5456.95
1010.2855	2837.4089	6325.2	5435.25
1010.4036	2838.5653	6294.3	5404.25
1010.5216	2839.7211	6276.25	5388.5
1010.6396	2840.8761	6291.55	5402.65
1010.7575	2842.0306	6303.7	5415.3
1010.8754	2843.1843	6305.05	5415.9
1010.9932	2844.3374	6368.8	5479.45
1011.111	2845.4899	6415.05	5525.65
1011.2288	2846.6417	6455.1	5564.5
1011.3465	2847.7928	6520	5631.85
1011.4642	2848.9433	6586.85	5696.8
1011.5818	2850.0931	6630.45	5740.3
1011.6995	2851.2422	6722.15	5831.9
1011.817	2852.3907	6770.5	5881.4
1011.9345	2853.5385	6821.8	5930.25
1012.052	2854.6857	6854	5937.05
1012.1695	2855.8323	6889.45	5999.9
1012.2869	2856.9781	6927.7	6039.9
1012.4042	2858.1233	6941.35	6051.4
1012.5216	2859.2679	6974.65	6087.1
1012.6389	2860.4118	7008.65	6119.95
1012.7561	2861.555	7036.35	6143.3
1012.8733	2862.6976	7055.95	6164.05
1012.9905	2863.8395	7055.3	6164.8
1013.1076	2864.9808	7061	6173.65
1013.2247	2866.1214	7060.8	6174.05
1013.3417	2867.2614	7062.05	6172.45
1013.4587	2868.4007	7066	6175.2
1013.5757	2869.5393	7050.35	6157.65
1013.6926	2870.6773	7065.65	6172.9
1013.8095	2871.8146	7041.85	6150.9
1013.9263	2872.9513	7021.35	6130.45
1014.0431	2874.0874	7018.25	6131.35
1014.1599	2875.2227	6984.35	6095.35
1014.2766	2876.3574	6975.6	6087.85
1014.3933	2877.4915	6922.9	6032.4
1014.51	2878.6249	6879.85	5989.1
1014.6266	2879.7577	6819.9	5928.9
1014.7431	2880.8898	6823.8	5923.8
1014.8596	2882.0212	6795.7	5907
1014.9761	2883.152	6752	5863.75
1015.0925	2884.2821	6709.1	5822.4
1015.2089	2885.4116	6689.6	5801.4
1015.3253	2886.5405	6682.3	5793.3
1015.4416	2887.6686	6670.85	5778.95
1015.5579	2888.7962	6653.55	5766.4
1015.6741	2889.923	6645.65	5756.5
1015.7903	2891.0493	6653.15	5763.6
1015.9065	2892.1748	6637.15	5747.55
1016.0226	2893.2997	6625.25	5735.25
1016.1387	2894.424	6635.9	5747.5
1016.2547	2895.5476	6644.8	5756.5
1016.3707	2896.6706	6633.15	5745.7
1016.4866	2897.7929	6651.95	5759.9
1016.6025	2898.9145	6682.2	5789.65
1016.7184	2900.0355	6706.75	5815.8
1016.8342	2901.1559	6692.45	5802.2
1016.95	2902.2756	6713.85	5825.45
1017.0658	2903.3946	6747.7	5858.6
1017.1815	2904.513	6753.25	5861.45
1017.2971	2905.6308	6746.25	5858.65
1017.4127	2906.7479	6772.25	5882.15
1017.5283	2907.8643	6792.65	5901.1
1017.6439	2908.9801	6787.4	5897.6
1017.7594	2910.0953	6781.5	5892.35
1017.8748	2911.2098	6741.8	5849.1
1017.9902	2912.3236	6750.3	5852
1018.1056	2913.4368	6733.1	5837.85
1018.2209	2914.5494	6683.35	5795.9
1018.3362	2915.6613	6643.5	5749.9
1018.4515	2916.7725	6588.15	5697.45
1018.5667	2917.8831	6564.3	5673.95
1018.6819	2918.9931	6512.8	5621.6
1018.797	2920.1024	6477.6	5586.65
1018.9121	2921.211	6451.05	5561.15
1019.0271	2922.319	6411.85	5523.05
1019.1421	2923.4264	6405.4	5517.05
1019.2571	2924.5331	6380.35	5491.5
1019.372	2925.6391	6349.55	5460.4
1019.4869	2926.7445	6345.2	5457.15
1019.6017	2927.8493	6312.95	5424.3
1019.7165	2928.9534	6285.65	5397.1
1019.8313	2930.0569	6276.7	5384.65
1019.946	2931.1597	6258.25	5367.95
1020.0606	2932.2619	6244.6	5353.75
1020.1753	2933.3634	6232.8	5342.25
1020.2899	2934.4643	6219.35	5325
1020.4044	2935.5645	6178.6	5283.5
1020.5189	2936.6641	6148.9	5253.85
1020.6334	2937.763	6065.15	5175.8
1020.7478	2938.8613	6018.35	5131.05
1020.8622	2939.959	5951.55	5055.3
1020.9765	2941.056	5862.55	4974.9
1021.0908	2942.1523	5770.7	4879.8
1021.2051	2943.248	5694.75	4805.05
1021.3193	2944.3431	5590	4700.15
1021.4334	2945.4375	5477.5	4587.4
1021.5476	2946.5313	5361.15	4473.05
1021.6617	2947.6244	5245.6	4354.35
1021.7757	2948.7169	5139.15	4248.1
1021.8897	2949.8087	5035.2	4144.45
1022.0037	2950.8999	4922.1	4032.1
1022.1176	2951.9904	4847.1	3958.85
1022.2315	2953.0803	4771.65	3881
1022.3453	2954.1696	4678.25	3790.25
1022.4591	2955.2582	4625.2	3735.05
1022.5728	2956.3462	4570	3681.45
1022.6865	2957.4335	4520.75	3631.85
1022.8002	2958.5202	4454.45	3563.4
1022.9138	2959.6062	4423.2	3532.8
1023.0274	2960.6916	4398.25	3508.9
1023.141	2961.7764	4376.2	3486.55
1023.2545	2962.8605	4350.4	3461.35
1023.3679	2963.9439	4324.65	3437.45
1023.4813	2965.0267	4276	3386.35
1023.5947	2966.1089	4297.55	3383.3
1023.708	2967.1905	4259.05	3370.65
1023.8213	2968.2714	4236.4	3348.1
1023.9346	2969.3516	4219.5	3331.7
1024.0478	2970.4312	4224.8	3329.2
1024.1609	2971.5102	4216.7	3326.95
1024.274	2972.5885	4202.35	3313.1
1024.3871	2973.6662	4194.65	3300.85
1024.5002	2974.7432	4175	3287.35
1024.6132	2975.8196	4161.6	3272.6
1024.7261	2976.8954	4140.8	3252.95
1024.839	2977.9705	4113.3	3224.55
1024.9519	2979.045	4089.9	3204.6
1025.0647	2980.1188	4063.3	3174.75
1025.1775	2981.192	4034.25	3146
1025.2902	2982.2645	4007.8	3116.7
1025.4029	2983.3364	3983.5	3095.35
1025.5156	2984.4077	3938.4	3049.65
1025.6282	2985.4783	3899.05	3007.35
1025.7407	2986.5483	3851.4	2963.65
1025.8532	2987.6177	3826.25	2937.75
1025.9657	2988.6864	3769.55	2880.85
1026.0782	2989.7545	3743.15	2851.1
1026.1906	2990.8219	3714.25	2825.45
1026.3029	2991.8887	3658.85	2767.15
1026.4152	2992.9548	3630.65	2740.2
1026.5275	2994.0204	3590.05	2701.85
1026.6397	2995.0852	3550.35	2660.55
1026.7519	2996.1495	3520.75	2631.8
1026.864	2997.2131	3496	2605
1026.9761	2998.276	3457.5	2568.35
1027.0882	2999.3383	3434.65	2546.5
1027.2002	3000.4	3395.8	2507.4
1027.3122	3001.4611	3371.05	2482.9
1027.4241	3002.5215	3361.05	2472.4
1027.536	3003.5812	3334.65	2446.9
1027.6478	3004.6404	3321.9	2432.4
1027.7596	3005.6989	3314.25	2424.15
1027.8714	3006.7567	3286.5	2396.85
1027.9831	3007.8139	3283.55	2374.5
1028.0947	3008.8705	3246.9	2357.1
1028.2064	3009.9264	3246.05	2354.8
1028.3179	3010.9818	3242.25	2354.15
1028.4295	3012.0364	3235.1	2345.9
1028.541	3013.0905	3214.65	2326.7
1028.6524	3014.1439	3200.85	2312
1028.7638	3015.1966	3187.85	2299.25
1028.8752	3016.2487	3171.55	2283.3
1028.9865	3017.3002	3179.85	2287.55
1029.0978	3018.3511	3170.15	2280.35
1029.209	3019.4013	3146.3	2256.05
1029.3202	3020.4509	3132.45	2243.45
1029.4314	3021.4998	3133.05	2244.2
1029.5425	3022.5481	3132.85	2244.75
1029.6535	3023.5958	3130	2241.6
1029.7645	3024.6428	3120.2	2230.1
1029.8755	3025.6892	3104.1	2216.2
1029.9864	3026.735	3104.75	2214.85
1030.0973	3027.7802	3094.05	2204.7
1030.2082	3028.8247	3090.65	2201.45
1030.319	3029.8685	3072.8	2182.2
1030.4297	3030.9118	3076.45	2185.1
1030.5404	3031.9544	3077.2	2190.1
1030.6511	3032.9963	3076.75	2188.6
1030.7617	3034.0376	3062.3	2175.05
1030.8723	3035.0783	3060.05	2168.8
1030.9829	3036.1184	3067.95	2175
1031.0934	3037.1578	3046.5	2159.25
1031.2038	3038.1966	3056.7	2166.55
1031.3142	3039.2348	3043.9	2156.85
1031.4246	3040.2723	3042.95	2147.25
1031.5349	3041.3092	3026.85	2139.75
1031.6452	3042.3455	3015.5	2126.6
1031.7554	3043.3811	3017	2126.7
1031.8656	3044.4161	2988.85	2100.65
1031.9758	3045.4505	2977.7	2088.15
1032.0859	3046.4842	2972.5	2083.7
1032.1959	3047.5173	2961.45	2073.55
1032.3059	3048.5498	2943.4	2054.65
1032.4159	3049.5816	2929.15	2040.65
1032.5258	3050.6128	2926.95	2038.8
1032.6357	3051.6434	2901.1	2010.45
1032.7455	3052.6734	2893.15	2003.85
1032.8553	3053.7027	2884.7	1995.25
1032.9651	3054.7314	2866.85	1978.75
1033.0748	3055.7594	2862.7	1973.95
1033.1845	3056.7868	2849.1	1959.85
1033.2941	3057.8136	2838.25	1951.05
1033.4037	3058.8398	2831.95	1946.05
1033.5132	3059.8653	2822.35	1934.95
1033.6227	3060.8902	2803.95	1916.15
1033.7321	3061.9145	2793.4	1903.65
1033.8415	3062.9381	2770.35	1880.7
1033.9509	3063.9612	2780.85	1876.95
1034.0602	3064.9835	2751.95	1862.95
1034.1694	3066.0053	2739.2	1848.75
1034.2787	3067.0264	2737.55	1848.75
1034.3878	3068.0469	2726.6	1836.3
1034.497	3069.0668	2703.1	1810.4
1034.6061	3070.086	2685.8	1797.35
1034.7151	3071.1046	2681.65	1791.4
1034.8241	3072.1226	2653.3	1764.8
1034.9331	3073.1399	2655.05	1765.5
1035.042	3074.1567	2634.85	1746.65
1035.1508	3075.1727	2613.2	1722.4
1035.2597	3076.1882	2602	1712.4
1035.3684	3077.203	2577.6	1690.5
1035.4772	3078.2173	2567.8	1678.4
1035.5859	3079.2308	2564.05	1672.05
1035.6945	3080.2438	2554.9	1665.6
1035.8031	3081.2561	2530.6	1643
1035.9117	3082.2678	2531.45	1643.5
1036.0202	3083.2789	2521.35	1632.05
1036.1286	3084.2893	2500.65	1611.9
1036.2371	3085.2991	2495.6	1606.55
1036.3454	3086.3083	2491.5	1599.6
1036.4538	3087.3169	2470.6	1579.65
1036.562	3088.3248	2458.95	1569
1036.6703	3089.3321	2445.9	1555.5
1036.7785	3090.3388	2431.85	1544.3
1036.8866	3091.3449	2422.05	1534.45
1036.9948	3092.3503	2409.9	1519
1037.1028	3093.3551	2414.7	1527.65
1037.2108	3094.3593	2391.95	1504
1037.3188	3095.3629	2386.9	1499.4
1037.4267	3096.3658	2378.15	1488.4
1037.5346	3097.3681	2369.5	1480.7
1037.6425	3098.3698	2357.65	1469.15
1037.7503	3099.3708	2364.05	1470.4
1037.858	3100.3713	2347	1460.15
1037.9657	3101.3711	2347.55	1459.2
1038.0734	3102.3702	2451.05	1425.55
1038.181	3103.3688	2325.25	1433.7
1038.2886	3104.3667	2302.7	1414.85
1038.3961	3105.364	2303.85	1418.35
1038.5036	3106.3607	2286.95	1397.4
1038.611	3107.3568	2276.5	1385.65
1038.7184	3108.3522	2268.6	1380.4
1038.8257	3109.347	2260.25	1372.85
1038.933	3110.3412	2268.25	1376.65
1039.0403	3111.3348	2240.85	1351.9
1039.1475	3112.3277	2236.35	1348.2
1039.2547	3113.32	2234.15	1346.2
1039.3618	3114.3117	2226.6	1336.65
1039.4689	3115.3028	2214.45	1327.45
1039.5759	3116.2932	2211.35	1320.6
1039.6829	3117.2831	2204.9	1310.1
1039.7898	3118.2723	2193.65	1303.3
1039.8967	3119.2608	2191.65	1301.85
1040.0035	3120.2488	2177.7	1289
1040.1103	3121.2361	2176.95	1287
1040.2171	3122.2229	2158.55	1271.9
1040.3238	3123.209	2156.45	1266.6
1040.4305	3124.1944	2140.55	1251.55
1040.5371	3125.1793	2158.95	1269.3
1040.6437	3126.1635	2134.4	1246.3
1040.7502	3127.1471	2126.2	1236.45
1040.8567	3128.1301	2117.5	1230.05
1040.9631	3129.1125	2115.4	1228.25
1041.0695	3130.0942	2110.15	1220.85
1041.1759	3131.0753	2107.8	1211.35
1041.2822	3132.0558	2098.25	1207.5
1041.3884	3133.0357	2099.55	1209.4
1041.4946	3134.015	2080.55	1189.95
1041.6008	3134.9936	2086.4	1196.6
1041.7069	3135.9716	2090.3	1181.85
1041.813	3136.949	2074.85	1187.65
1041.919	3137.9258	2084.4	1190.4
1042.025	3138.902	2065.35	1171.6
1042.1309	3139.8775	2050.6	1162.3
1042.2368	3140.8524	2045.65	1158.35
1042.3427	3141.8267	2047.65	1157.55
1042.4485	3142.8004	2041.65	1150.75
1042.5542	3143.7735	2038.1	1142.25
1042.6599	3144.7459	2030.35	1140.3
1042.7656	3145.7178	2024.65	1136.1
1042.8712	3146.689	2015.95	1129.1
1042.9768	3147.6596	2013.05	1124.7
1043.0823	3148.6295	1998.25	1107.4
1043.1878	3149.5989	2001.65	1112.65
1043.2932	3150.5676	1996.55	1108.95
1043.3986	3151.5357	1985.1	1095.9
1043.5039	3152.5032	1980.55	1091.8
1043.6092	3153.4701	1969.15	1081.55
1043.7145	3154.4364	1965.6	1075.25
1043.8197	3155.402	1949.1	1062.45
1043.9248	3156.367	1961.3	1071.55
1044.03	3157.3315	1987.5	1057.15
1044.135	3158.2952	1941	1052.75
1044.24	3159.2584	1939.4	1051.55
1044.345	3160.221	1940.8	1051.1
1044.4499	3161.1829	1922.1	1033.15
1044.5548	3162.1442	1913.1	1025.95
1044.6596	3163.105	1922.7	1033.95
1044.7644	3164.065	1904.2	1016.15
1044.8692	3165.0245	1898.65	1008.2
1044.9739	3165.9834	1887.95	1002
1045.0785	3166.9416	1888	1001.75
1045.1831	3167.8993	1878.4	989.5
1045.2877	3168.8563	1875	987.7
1045.3922	3169.8127	1874.75	984.7
1045.4966	3170.7684	1867.95	979.1
1045.6011	3171.7236	1857.55	968.35
1045.7054	3172.6782	1857.8	969.15
1045.8098	3173.6321	1846.95	957.75
1045.914	3174.5854	1845.05	948.85
1046.0183	3175.5381	1836.15	947.65
1046.1224	3176.4902	1834.45	946.3
1046.2266	3177.4417	1825.45	936.6
1046.3307	3178.3926	1829.35	940.6
1046.4347	3179.3428	1821.7	936.1
1046.5387	3180.2924	1817.45	930.2
1046.6427	3181.2415	1809.4	919.85
1046.7466	3182.1899	1805.95	917.05
1046.8504	3183.1377	1797.65	909.65
1046.9542	3184.0848	1795.9	904.75
1047.058	3185.0314	1786.4	896.4
1047.1617	3185.9773	1781.8	892.4
1047.2654	3186.9227	1782.15	893.5
1047.369	3187.8674	1773.45	884.85
1047.4726	3188.8115	1774.85	883.2
1047.5761	3189.755	1764.4	877.55
1047.6796	3190.6979	1760.8	871.25
1047.783	3191.6402	1748.15	859.55
1047.8864	3192.5818	1746.15	857.35
1047.9898	3193.5229	1769.45	857.4
1048.0931	3194.4633	1740.7	851.65
1048.1963	3195.4031	1732.6	842.8
1048.2995	3196.3423	1739.05	850.9
1048.4027	3197.2809	1737.3	848.15
1048.5058	3198.2189	1726.6	838.05
1048.6089	3199.1563	1725.5	829.3
1048.7119	3200.0931	1715.3	828.3
1048.8148	3201.0292	1710.85	826.7
1048.9178	3201.9648	1707.2	820.05
1049.0206	3202.8997	1703.25	812.8
1049.1235	3203.834	1709.6	821.8
1049.2262	3204.7677	1694.05	804.1
1049.329	3205.7008	1689.65	799.25
1049.4317	3206.6333	1693.3	807.5
1049.5343	3207.5652	1692.5	803.6
1049.6369	3208.4964	1682.2	793.05
1049.7394	3209.4271	1677.15	788.1
1049.8419	3210.3571	1677	790.8
1049.9444	3211.2865	1671.7	780.95
1050.0468	3212.2154	1666.6	778.2
1050.1491	3213.1436	1670.55	780.3
1050.2514	3214.0712	1667.5	771.85
1050.3537	3214.9982	1650.95	761.75
1050.4559	3215.9246	1648.45	760.5
1050.5581	3216.8503	1648.85	761.55
1050.6602	3217.7755	1649.5	762.6
1050.7623	3218.7001	1637.7	748.15
1050.8643	3219.624	1639.05	749.65
1050.9663	3220.5473	1634.5	744.55
1051.0682	3221.4701	1629.1	737.95
1051.1701	3222.3922	1626.75	737.3
1051.2719	3223.3137	1617.85	730.25
1051.3737	3224.2346	1616.95	729.35
1051.4754	3225.1549	1612.15	723.35
1051.5771	3226.0746	1607	718.9
1051.6788	3226.9937	1609.7	722.15
1051.7804	3227.9121	1601.35	713.2
1051.8819	3228.83	1600.3	712.1
1051.9834	3229.7473	1596	707.05
1052.0849	3230.6639	1588.85	700.55
1052.1863	3231.5799	1583.95	695.4
1052.2876	3232.4954	1584.8	695.9
1052.3889	3233.4102	1574.25	685.25
1052.4902	3234.3244	1567.35	677.45
1052.5914	3235.238	1569.15	682.15
1052.6926	3236.151	1580.75	667.65
1052.7937	3237.0634	1566.25	677.35
1052.8948	3237.9752	1554.6	667.65
1052.9958	3238.8864	1550.5	659.95
1053.0968	3239.797	1550	660.9
1053.1977	3240.7069	1543.75	655.9
1053.2986	3241.6163	1542.7	652.45
1053.3994	3242.5251	1536.95	650.05
1053.5002	3243.4332	1531.75	644.15
1053.6009	3244.3408	1536.8	648.55
1053.7016	3245.2477	1532.65	645.15
1053.8022	3246.154	1520.35	629.8
1053.9028	3247.0598	1514.75	626.65
1054.0034	3247.9649	1514.15	626.8
1054.1039	3248.8694	1510	621.55
1054.2043	3249.7733	1501.5	612.6
1054.3047	3250.6766	1503	611.7
1054.4051	3251.5793	1499.25	609.1
1054.5054	3252.4814	1498.65	610.85
1054.6056	3253.3829	1489.15	601.25
1054.7058	3254.2838	1489.35	601.2
1054.806	3255.1841	1475.9	588.7
1054.9061	3256.0838	1480.85	592.1
1055.0061	3256.9829	1469.85	581.3
1055.1062	3257.8814	1477.65	588.55
1055.2061	3258.7792	1465.05	575.6
1055.306	3259.6765	1461.95	572.55
1055.4059	3260.5731	1449.95	561.95
1055.5057	3261.4692	1438.3	550.6
1055.6055	3262.3647	1438.25	549.8
1055.7052	3263.2595	1424.75	537.2
1055.8049	3264.1538	1421.6	532.1
1055.9045	3265.0474	1416.15	526.75
1056.0041	3265.9404	1403.85	515
1056.1036	3266.8329	1400	511.85
1056.2031	3267.7247	1403.1	505.3
1056.3025	3268.616	1375.7	488.75
1056.4019	3269.5066	1370.1	481.45
1056.5013	3270.3966	1354.7	465.25
1056.6005	3271.286	1335.8	448.35
