Software Version:	3.9.2.0
Unit SN:	10000200
Spectrometer SN:	6960
Date:	3/6/2024 10:15:27 AM
Data Line Index:	25
Spectral Points:	2048
Integration time (ms):	125
Averages:	20
Delay (ms):	30
Sequence Number:	1
Processing:	dark subtract
Laser Power (mW):	305
Laser Current (mA):	825
Laser Diode Temp (C):	25.1
Laser Case Temp (C):	25
System Temp (C):	24.8
Spectrometer Temp (C):	22.4
CCD Temp (C):	-0.005
Secondary Temp (C):	20.008
Heatsink Temp (C):	19.476
CCDPCB Temp (C):	32.05
SecondaryPCB Temp (C):	25.947

Wavelength	RamanShift	Raw Counts	Dark Subtracted
787.061	30.1047	1025.35	616.05
787.2016	32.3739	1059.4	652.5
787.3422	34.6426	1092.35	684.3
787.4828	36.9109	1127.5	715.8
787.6235	39.1787	1178.15	762.35
787.7642	41.4461	1235.9	817.45
787.9049	43.7131	1286.55	864.5
788.0456	45.9796	1333.35	908.65
788.1863	48.2456	1391.3	963.1
788.3271	50.5112	1459.75	1026.1
788.4679	52.7764	1512.75	1077.85
788.6087	55.0411	1576.65	1138.4
788.7496	57.3054	1656.6	1211.75
788.8904	59.5692	1732.8	1286.7
789.0313	61.8326	1813.5	1363.3
789.1722	64.0955	1908	1457.2
789.3132	66.3579	2012.15	1555.45
789.4541	68.6199	2147.1	1687.6
789.5951	70.8815	2379.8	1916.6
789.7361	73.1426	2868.9	2400.05
789.8771	75.4032	4131.15	3659.4
790.0181	77.6634	7351.6	6875.35
790.1592	79.9231	15749.25	15267.35
790.3003	82.1824	48628.15	48139.7
790.4414	84.4412	65535	65029.1
790.5825	86.6995	65535	65008.2
790.7237	88.9574	65535	64992.2
790.8648	91.2148	65535	64979.4
791.006	93.4717	65535	64969.45
791.1472	95.7282	65535	64967.4
791.2885	97.9842	65535	64965.2
791.4297	100.2398	65535	64963.2
791.571	102.4949	65535	64959.1
791.7123	104.7495	65535	64957.1
791.8536	107.0036	65535	64956
791.9949	109.2573	65535	64958.8
792.1363	111.5105	65535	64950.75
792.2777	113.7632	65535	64951
792.4191	116.0154	65535	64942.3
792.5605	118.2672	65535	64950.7
792.7019	120.5185	65535	64941.7
792.8434	122.7693	65535	64942.55
792.9849	125.0197	65535	64937
793.1264	127.2696	65535	64935.6
793.2679	129.519	65535	64930.35
793.4094	131.7679	65535	64925.6
793.551	134.0163	65535	64923.4
793.6926	136.2642	65535	64923.25
793.8342	138.5117	65535	64917.25
793.9758	140.7587	65535	64920.35
794.1175	143.0052	65535	64913.65
794.2591	145.2512	65535	64915.85
794.4008	147.4967	65535	64915.3
794.5425	149.7417	65535	64913.1
794.6842	151.9863	65535	64908.55
794.826	154.2304	65535	64905.3
794.9677	156.4739	65535	64899.05
795.1095	158.717	65535	64898.25
795.2513	160.9596	65535	64892.35
795.3931	163.2017	65535	64893.45
795.535	165.4433	65535	64890.5
795.6768	167.6844	65535	64886.95
795.8187	169.925	65535	64885.7
795.9606	172.1651	65535	64879.1
796.1025	174.4047	65535	64877.4
796.2445	176.6439	65535	64875.15
796.3864	178.8825	65535	64873.7
796.5284	181.1206	65535	64868.35
796.6704	183.3582	65535	64865
796.8124	185.5954	65535	64865.6
796.9544	187.832	65535	64863.25
797.0965	190.0681	65535	64856.8
797.2386	192.3037	65535	64852.7
797.3806	194.5388	65535	64845.5
797.5228	196.7734	65535	64848.75
797.6649	199.0075	65535	64847.95
797.807	201.2411	65535	64849.95
797.9492	203.4742	65535	64847.75
798.0914	205.7068	65535	64842.1
798.2336	207.9389	65535	64839.2
798.3758	210.1704	65535	64842.85
798.518	212.4015	65535	64854.3
798.6603	214.632	65535	64861.05
798.8025	216.862	65535	64864.55
798.9448	219.0915	65535	64859.9
799.0871	221.3205	65535	64860.4
799.2294	223.549	65535	64865.1
799.3718	225.777	65535	64861
799.5141	228.0044	65535	64853.9
799.6565	230.2314	65535	64851.4
799.7989	232.4578	65535	64847.85
799.9413	234.6837	65535	64841.05
800.0837	236.909	65535	64837.7
800.2262	239.1339	65535	64815.4
800.3687	241.3582	65535	64830.55
800.5111	243.582	65535	64798.9
800.6536	245.8053	65535	64814.5
800.7961	248.0281	65535	64814.35
800.9387	250.2503	65535	64814.8
801.0812	252.472	65535	64810.95
801.2238	254.6932	65535	64812.8
801.3664	256.9139	65535	64806.7
801.509	259.134	65535	64805.3
801.6516	261.3536	65535	64811.75
801.7942	263.5727	65535	64809
801.9369	265.7912	65535	64809.1
802.0795	268.0092	65535	64806.65
802.2222	270.2267	65535	64807.4
802.3649	272.4436	65535	64807.05
802.5076	274.6601	65535	64793.7
802.6504	276.8759	65535	64798.65
802.7931	279.0913	65535	64794.65
802.9359	281.3061	65535	64799.6
803.0787	283.5204	65535	64795.55
803.2215	285.7341	65535	64790.75
803.3643	287.9473	65535	64779.5
803.5071	290.16	65535	64787.65
803.6499	292.3721	65535	64795.8
803.7928	294.5837	65535	64792.15
803.9357	296.7947	65535	64790.6
804.0786	299.0052	65535	64791.6
804.2215	301.2152	65535	64786.95
804.3644	303.4246	65535	64790.2
804.5074	305.6334	65535	64791.75
804.6503	307.8418	65535	64786.7
804.7933	310.0495	65535	64786.4
804.9363	312.2568	65535	64787
805.0793	314.4635	65535	64785.45
805.2223	316.6696	65535	64783.35
805.3653	318.8752	65535	64773.35
805.5084	321.0802	65535	64781
805.6514	323.2847	65535	64777.8
805.7945	325.4887	65535	64777.05
805.9376	327.692	65535	64775.4
806.0807	329.8949	65535	64775.2
806.2238	332.0972	65535	64772.6
806.367	334.2989	65535	64770.45
806.5101	336.5001	65535	64767
806.6533	338.7007	65535	64770.2
806.7965	340.9008	65535	64767.35
806.9397	343.1003	65535	64767.2
807.0829	345.2992	65535	64766.35
807.2261	347.4976	65535	64762.85
807.3693	349.6955	65535	64757.95
807.5126	351.8927	65535	64757.35
807.6559	354.0895	65535	64748.5
807.7991	356.2856	65535	64757.85
807.9424	358.4812	65535	64757.95
808.0857	360.6763	65535	64752.9
808.2291	362.8707	65535	64754.95
808.3724	365.0646	65535	64749.6
808.5158	367.258	65535	64749.35
808.6591	369.4508	65535	64744.45
808.8025	371.643	65535	64747.2
808.9459	373.8346	65535	64746.5
809.0893	376.0257	65535	64740.35
809.2327	378.2162	65535	64741.85
809.3762	380.4062	65535	64742.1
809.5196	382.5956	65535	64742.4
809.6631	384.7844	65535	64745.2
809.8066	386.9726	65535	64744.6
809.9501	389.1603	65535	64748.8
810.0936	391.3474	65535	64703.8
810.2371	393.5339	65535	64746.4
810.3806	395.7199	65535	64748.8
810.5241	397.9052	65535	64749.45
810.6677	400.09	65535	64745.9
810.8113	402.2743	65535	64748
810.9548	404.4579	65535	64744.9
811.0984	406.641	65535	64741.7
811.2421	408.8235	65535	64737.85
811.3857	411.0054	65535	64740
811.5293	413.1868	65535	64736.5
811.673	415.3675	65535	64734.1
811.8166	417.5477	65535	64733.95
811.9603	419.7273	65535	64731.3
812.104	421.9064	65535	64725.1
812.2477	424.0848	65535	64726.45
812.3914	426.2627	65535	64729.45
812.5351	428.4399	65535	64729.85
812.6788	430.6166	65535	64724.7
812.8226	432.7928	65535	64720.85
812.9663	434.9683	65535	64724.55
813.1101	437.1432	65535	64720.7
813.2539	439.3176	65535	64725.1
813.3977	441.4914	65535	64720.7
813.5415	443.6645	65535	64723.35
813.6853	445.8371	65535	64722.95
813.8291	448.0091	65535	64721.1
813.973	450.1806	65535	64719.15
814.1168	452.3514	65535	64720
814.2607	454.5216	65535	64711.2
814.4046	456.6913	65535	64716.9
814.5485	458.8603	65535	64719.35
814.6924	461.0288	65535	64721.15
814.8363	463.1967	65535	64717.15
814.9802	465.3639	65535	64715.85
815.1241	467.5306	65535	64715.95
815.2681	469.6967	65535	64717.2
815.412	471.8622	65535	64717.95
815.556	474.0271	65535	64717.5
815.7	476.1914	65535	64711.85
815.844	478.3551	65535	64715
815.988	480.5182	65535	64713.3
816.132	482.6807	65535	64713.4
816.276	484.8426	65535	64715.05
816.4201	487.0039	65535	64712.9
816.5641	489.1647	65535	64710.45
816.7082	491.3248	65535	64708.2
816.8522	493.4843	65535	64712.35
816.9963	495.6432	65535	64710.2
817.1404	497.8015	65535	64710.1
817.2845	499.9592	65535	64707.45
817.4286	502.1163	65535	64709.3
817.5727	504.2728	65535	64704.05
817.7168	506.4287	65535	64704.75
817.861	508.5839	65535	64708.55
818.0051	510.7386	65535	64707.75
818.1493	512.8927	65535	64700.2
818.2935	515.0461	65535	64704
818.4377	517.199	65535	64704.5
818.5818	519.3512	65535	64702.85
818.726	521.5029	65535	64694.9
818.8703	523.6539	65535	64699.8
819.0145	525.8043	65535	64702.4
819.1587	527.9541	65535	64701.25
819.303	530.1033	65535	64699.05
819.4472	532.2519	65535	64700.5
819.5915	534.3999	65535	64698.2
819.7357	536.5472	65535	64699.8
819.88	538.694	65535	64699.4
820.0243	540.8401	65535	64697.3
820.1686	542.9856	65535	64694.45
820.3129	545.1305	65535	64694.7
820.4572	547.2748	65535	64694.35
820.6016	549.4185	65535	64693.8
820.7459	551.5615	65535	64697.9
820.8902	553.704	65535	64695.45
821.0346	555.8458	65535	64693.95
821.1789	557.987	65535	64695.7
821.3233	560.1276	65535	64695.5
821.4677	562.2675	65535	64693.8
821.6121	564.4069	65535	64698.4
821.7565	566.5456	65535	64694.65
821.9009	568.6837	65535	64692.6
822.0453	570.8212	65535	64694.3
822.1897	572.958	65535	64691.65
822.3342	575.0942	65535	64691.85
822.4786	577.2299	65535	64690.8
822.6231	579.3648	65535	64691.75
822.7675	581.4992	65535	64695.15
822.912	583.6329	65535	64691.65
823.0565	585.766	65535	64694.2
823.201	587.8985	65535	64692.95
823.3454	590.0304	65535	64665.2
823.4899	592.1616	65535	64686.05
823.6345	594.2922	65535	64686.9
823.779	596.4222	65535	64687.35
823.9235	598.5515	65535	64686.25
824.068	600.6802	65535	64688.9
824.2126	602.8083	65535	64687.65
824.3571	604.9358	65535	64687.15
824.5017	607.0626	65535	64686.25
824.6462	609.1888	65535	64686.7
824.7908	611.3144	65535	64684.35
824.9354	613.4393	65535	64686.55
825.08	615.5636	65535	64686.65
825.2246	617.6873	65535	64687.15
825.3692	619.8103	65535	64682.55
825.5138	621.9327	65535	64681.65
825.6584	624.0544	65535	64683.85
825.803	626.1756	65535	64683.3
825.9477	628.2961	65535	64684.25
826.0923	630.4159	65535	64682.5
826.237	632.5351	65535	64682
826.3816	634.6537	65535	64681.65
826.5263	636.7716	65535	64680.15
826.6709	638.8889	65535	64677.45
826.8156	641.0056	65535	64679.6
826.9603	643.1216	65535	64677.2
827.105	645.237	65535	64677.05
827.2497	647.3518	65535	64678.35
827.3944	649.4659	65535	64677.9
827.5391	651.5793	65535	64678.45
827.6838	653.6922	65535	64678.55
827.8285	655.8043	65535	64678.7
827.9733	657.9159	65535	64678.55
828.118	660.0268	65535	64676.25
828.2627	662.137	65535	64677.6
828.4075	664.2466	65535	64675.25
828.5522	666.3556	65535	64677.55
828.697	668.4639	65535	64671.45
828.8418	670.5716	65535	64675.9
828.9865	672.6786	65535	64675.45
829.1313	674.785	65535	64673
829.2761	676.8907	65535	64676.4
829.4209	678.9958	65535	64676.9
829.5657	681.1002	65535	64672.35
829.7105	683.204	65535	64668.2
829.8553	685.3072	65535	64671.3
830.0001	687.4097	65535	64674.35
830.1449	689.5115	65535	64673.35
830.2898	691.6127	65535	64672.8
830.4346	693.7132	65535	64673.75
830.5794	695.8131	65535	64653.4
830.7243	697.9123	65535	64671
830.8691	700.0109	65535	64670.15
831.014	702.1089	65535	64672.95
831.1588	704.2061	65535	64670.8
831.3037	706.3028	65535	64667.9
831.4486	708.3987	65535	64669.45
831.5935	710.4941	65535	64669.8
831.7383	712.5887	65535	64670.85
831.8832	714.6827	65535	64664
832.0281	716.7761	65535	64668.35
832.173	718.8688	65535	64669.9
832.3179	720.9608	65535	64663.2
832.4628	723.0522	65535	64665.45
832.6077	725.1429	65535	64669
832.7527	727.233	65535	64667.5
832.8976	729.3224	65535	64669.6
833.0425	731.4112	65535	64670.15
833.1874	733.4993	65535	64666.45
833.3324	735.5867	65535	64667.7
833.4773	737.6735	65535	64665.5
833.6222	739.7596	65535	64663.7
833.7672	741.845	65535	64668.05
833.9122	743.9298	65535	64662.85
834.0571	746.014	65535	64668.95
834.2021	748.0974	65535	64662.55
834.347	750.1802	65535	64666.3
834.492	752.2624	65535	64663.95
834.637	754.3439	65535	64666
834.782	756.4247	65535	64655.85
834.9269	758.5048	65535	64663.85
835.0719	760.5843	65535	64663.8
835.2169	762.6631	65535	64664.2
835.3619	764.7413	65535	64665.1
835.5069	766.8188	65535	64663.3
835.6519	768.8956	65535	64663.15
835.7969	770.9718	65535	64666.1
835.9419	773.0473	65535	64665.2
836.0869	775.1221	65535	64662
836.232	777.1962	65535	64663.3
836.377	779.2697	65535	64659.8
836.522	781.3426	65535	64642.9
836.667	783.4147	65535	64663.25
836.8121	785.4862	65535	64664.9
836.9571	787.557	65535	64662.05
837.1021	789.6271	65535	64662.15
837.2472	791.6966	65535	64661.85
837.3922	793.7654	65535	64663.85
837.5373	795.8335	65535	64664.3
837.6823	797.901	65535	64662.5
837.8274	799.9678	65535	64659.45
837.9724	802.0339	65535	64664.45
838.1175	804.0993	65535	64651.85
838.2626	806.1641	65535	64659.2
838.4076	808.2282	65535	64661.9
838.5527	810.2916	65535	64656.1
838.6978	812.3544	65535	64662.95
838.8428	814.4164	65535	64661.2
838.9879	816.4778	65535	64660.1
839.133	818.5385	65535	64660.75
839.2781	820.5986	65535	64662.4
839.4232	822.658	65535	64660.4
839.5682	824.7166	65535	64660.35
839.7133	826.7747	65535	64658.85
839.8584	828.832	65535	64660.95
840.0035	830.8886	65535	64658.25
840.1486	832.9446	65535	64656.4
840.2937	834.9999	65535	64660.1
840.4388	837.0545	65535	64655.95
840.5839	839.1085	65535	64658.6
840.729	841.1618	65535	64658.2
840.8741	843.2143	65535	64661.05
841.0192	845.2662	65535	64659.4
841.1643	847.3175	65535	64658.55
841.3095	849.368	65535	64657.65
841.4546	851.4179	65535	64660.55
841.5997	853.467	65535	64656.75
841.7448	855.5155	65535	64660.2
841.8899	857.5633	65535	64658.1
842.0351	859.6105	65535	64659.1
842.1802	861.6569	65535	64659.85
842.3253	863.7027	65535	64656.35
842.4704	865.7478	65535	64659.1
842.6156	867.7922	65535	64656.8
842.7607	869.8359	65535	64655.4
842.9058	871.8789	65535	64657.3
843.0509	873.9212	65535	64623.3
843.1961	875.9629	65535	64658.4
843.3412	878.0039	65535	64652.8
843.4863	880.0441	65535	64656.45
843.6315	882.0837	65535	64656.45
843.7766	884.1226	65535	64655.15
843.9218	886.1609	65535	64656.65
844.0669	888.1984	65535	64656.3
844.212	890.2352	65535	64658.25
844.3572	892.2714	65535	64652.3
844.5023	894.3069	65535	64657.05
844.6475	896.3416	65535	64653.8
844.7926	898.3757	65535	64656.05
844.9377	900.4091	65535	64653.35
845.0829	902.4418	65535	64651.5
845.228	904.4739	65535	64655.35
845.3732	906.5052	65535	64652.15
845.5183	908.5358	65535	64654.85
845.6635	910.5658	65535	64652.8
845.8086	912.595	65535	64656.8
845.9538	914.6236	65535	64656.5
846.0989	916.6515	65535	64656.9
846.2441	918.6786	65535	64653.6
846.3892	920.7051	65535	64652.4
846.5344	922.7309	65535	64655.65
846.6795	924.756	65535	64655.35
846.8246	926.7804	65535	64650.5
846.9698	928.8041	65535	64651.1
847.1149	930.8272	65535	64652.7
847.2601	932.8495	65535	64654.1
847.4052	934.8711	65535	64651.95
847.5504	936.892	65535	64651.3
847.6955	938.9123	65535	64653.15
847.8407	940.9318	65535	64654.15
847.9858	942.9506	65535	64651.6
848.131	944.9688	65535	64654.15
848.2761	946.9862	65535	64653.15
848.4213	949.003	65535	64655.25
848.5664	951.019	65535	64653.75
848.7115	953.0344	65535	64652.9
848.8567	955.0491	65535	64652.65
849.0018	957.063	65535	64653.45
849.147	959.0763	65535	64655.9
849.2921	961.0888	65535	64649.65
849.4373	963.1007	65535	64655.6
849.5824	965.1119	65535	64651.05
849.7275	967.1223	65535	64651.8
849.8727	969.1321	65535	64654.5
850.0178	971.1412	65535	64651.95
850.1629	973.1495	65535	64651.3
850.3081	975.1572	65535	64620.95
850.4532	977.1641	65535	64652.5
850.5983	979.1704	65535	64653.7
850.7435	981.1759	65535	64649.55
850.8886	983.1808	65535	64649.85
851.0337	985.1849	65535	64640.7
851.1788	987.1884	65535	64648.45
851.324	989.1911	65535	64647.8
851.4691	991.1932	65535	64651.6
851.6142	993.1945	65535	64650.25
851.7593	995.1951	65535	64652.4
851.9045	997.1951	65535	64647.8
852.0496	999.1943	65535	64651.95
852.1947	1001.1928	65535	64648.4
852.3398	1003.1906	65535	64653.55
852.4849	1005.1877	65535	64650
852.63	1007.1841	65535	64650.4
852.7751	1009.1798	65535	64650.7
852.9202	1011.1748	65535	64652.6
853.0653	1013.1691	65535	64650.8
853.2104	1015.1627	65535	64650.75
853.3555	1017.1556	65535	64652.9
853.5006	1019.1477	65535	64652.15
853.6457	1021.1392	65535	64654.05
853.7908	1023.1299	65535	64651.4
853.9359	1025.12	65535	64648.7
854.081	1027.1093	65535	64652.5
854.2261	1029.0979	65535	64653.05
854.3712	1031.0859	65535	64651.4
854.5163	1033.0731	65535	64651.2
854.6613	1035.0596	65535	64650.95
854.8064	1037.0454	65535	64651
854.9515	1039.0304	65535	64651.15
855.0965	1041.0148	65535	64653.85
855.2416	1042.9985	65535	64653.05
855.3867	1044.9814	65535	64651.95
855.5317	1046.9636	65535	64649.65
855.6768	1048.9452	65535	64652.4
855.8219	1050.926	65535	64650.8
855.9669	1052.9061	65535	64652.25
856.112	1054.8855	65535	64651.15
856.257	1056.8642	65535	64651.15
856.4021	1058.8421	65535	64647.2
856.5471	1060.8194	65535	64651.35
856.6921	1062.7959	65535	64651.6
856.8372	1064.7717	65535	64647.8
856.9822	1066.7469	65535	64650.7
857.1272	1068.7213	65535	64648.5
857.2723	1070.695	65535	64650.45
857.4173	1072.6679	65535	64651.55
857.5623	1074.6402	65535	64650.8
857.7073	1076.6117	65535	64643.1
857.8523	1078.5826	65535	64651.8
857.9973	1080.5527	65535	64646.55
858.1423	1082.5221	65535	64650.95
858.2873	1084.4908	65535	64649.05
858.4323	1086.4587	65535	64651.35
858.5773	1088.426	65535	64649.25
858.7223	1090.3925	65535	64646.25
858.8673	1092.3584	65535	64648.45
859.0123	1094.3235	65535	64651.15
859.1573	1096.2879	65535	64650.8
859.3022	1098.2515	65535	64649.5
859.4472	1100.2145	65535	64650.95
859.5922	1102.1767	65535	64645.7
859.7371	1104.1382	65535	64648.75
859.8821	1106.099	65535	64647
860.027	1108.0591	65535	64649.05
860.172	1110.0185	65535	64648.45
860.3169	1111.9771	65535	64649.85
860.4619	1113.9351	65535	64650.5
860.6068	1115.8923	65535	64650.25
860.7517	1117.8488	65535	64647.35
860.8967	1119.8045	65535	64650.65
861.0416	1121.7596	65535	64648.9
861.1865	1123.7139	65535	64649.3
861.3314	1125.6675	65535	64651.45
861.4763	1127.6204	65535	64651.2
861.6212	1129.5726	65535	64648.15
861.7661	1131.524	65535	64648.6
861.911	1133.4748	65535	64649.35
862.0559	1135.4248	65535	64646.65
862.2008	1137.3741	65535	64649
862.3457	1139.3226	65535	64646.75
862.4905	1141.2705	65535	64648.4
862.6354	1143.2176	65535	64643.2
862.7803	1145.164	65535	64648.05
862.9251	1147.1097	65535	64648.6
863.07	1149.0546	65535	64647.1
863.2148	1150.9989	65535	64649.85
863.3597	1152.9424	65535	64650.15
863.5045	1154.8852	65535	64648.15
863.6493	1156.8272	65535	64650.5
863.7942	1158.7686	65535	64642.05
863.939	1160.7092	65535	64649.8
864.0838	1162.6491	65535	64647.65
864.2286	1164.5883	65535	64650.85
864.3734	1166.5267	65535	64648.5
864.5182	1168.4644	65535	64649.45
864.663	1170.4014	65535	64646.15
864.8078	1172.3377	65535	64650.85
864.9526	1174.2732	65535	64652.75
865.0974	1176.2081	65535	64647.8
865.2421	1178.1421	65535	64644.15
865.3869	1180.0755	65535	64649.6
865.5317	1182.0082	65535	64648.95
865.6764	1183.9401	65535	64649.05
865.8212	1185.8713	65535	64651.4
865.9659	1187.8017	65535	64652.05
866.1106	1189.7315	65535	64650.25
866.2554	1191.6605	65535	64620.85
866.4001	1193.5888	65535	64648.95
866.5448	1195.5163	65535	64649.6
866.6895	1197.4432	65535	64649.25
866.8342	1199.3693	65535	64649.05
866.9789	1201.2947	65535	64646.7
867.1236	1203.2193	65535	64646.3
867.2683	1205.1432	65535	64649.7
867.413	1207.0664	65535	64650.25
867.5576	1208.9889	65535	64644.95
867.7023	1210.9106	65535	64648.1
867.847	1212.8316	65535	64650.9
867.9916	1214.7519	65535	64641.05
868.1363	1216.6715	65535	64649.2
868.2809	1218.5903	65535	64650.4
868.4255	1220.5084	65535	64649.45
868.5701	1222.4257	65535	64649.55
868.7148	1224.3424	65535	64649.95
868.8594	1226.2583	65535	64646.55
869.004	1228.1735	65535	64648.8
869.1486	1230.0879	65535	64648.7
869.2932	1232.0016	65535	64653.85
869.4377	1233.9146	65535	64646.85
869.5823	1235.8269	65535	64650.6
869.7269	1237.7384	65535	64648.5
869.8715	1239.6492	65535	64650.45
870.016	1241.5592	65535	64647.55
870.1606	1243.4686	65535	64648.75
870.3051	1245.3772	65535	64650.8
870.4496	1247.285	65535	64649.05
870.5941	1249.1922	65535	64647.65
870.7387	1251.0986	65535	64651.8
870.8832	1253.0042	65535	64649.05
871.0277	1254.9092	65535	64649.4
871.1722	1256.8134	65535	64649.15
871.3167	1258.7169	65535	64646.75
871.4611	1260.6196	65535	64649.6
871.6056	1262.5216	65535	64649
871.7501	1264.4229	65535	64651.35
871.8945	1266.3234	65535	64648.1
872.039	1268.2232	65535	64647.95
872.1834	1270.1223	65535	64649.1
872.3278	1272.0207	65535	64646.95
872.4723	1273.9183	65535	64641.85
872.6167	1275.8151	65535	64649.7
872.7611	1277.7113	65535	64646.75
872.9055	1279.6067	65535	64649.95
873.0499	1281.5014	65535	64646.5
873.1943	1283.3953	65535	64647.5
873.3386	1285.2885	65535	64650.8
873.483	1287.181	65535	64647.4
873.6274	1289.0727	65535	64651.1
873.7717	1290.9637	65535	64649.65
873.9161	1292.854	65535	64647.3
874.0604	1294.7435	65535	64648.2
874.2047	1296.6323	65535	64646.1
874.349	1298.5204	65535	64645.35
874.4933	1300.4077	65535	64646.9
874.6376	1302.2943	65535	64649.1
874.7819	1304.1802	65535	64650.3
874.9262	1306.0653	65535	64645.45
875.0705	1307.9497	65535	64648.3
875.2147	1309.8333	65535	64650.5
875.359	1311.7162	65535	64647.05
875.5032	1313.5984	65535	64644.4
875.6475	1315.4798	65535	64637.75
875.7917	1317.3605	65535	64634.75
875.9359	1319.2405	65535	64646.7
876.0801	1321.1197	65535	64644.3
876.2243	1322.9982	65535	64644.4
876.3685	1324.876	65535	64647.95
876.5127	1326.753	65535	64648.5
876.6569	1328.6293	65535	64647
876.801	1330.5048	65535	64644.1
876.9452	1332.3796	65535	64648.65
877.0893	1334.2537	65535	64622.8
877.2335	1336.127	65535	64648.4
877.3776	1337.9996	65535	64651.05
877.5217	1339.8714	65535	64647.6
877.6658	1341.7426	65535	64603.7
877.8099	1343.6129	65535	64648.45
877.954	1345.4826	65535	64648.3
878.0981	1347.3515	65535	64648.4
878.2422	1349.2196	65535	64646.25
878.3862	1351.087	65535	64645.05
878.5303	1352.9537	65535	64647.3
878.6743	1354.8197	65535	64648.25
878.8184	1356.6849	65535	64648.1
878.9624	1358.5493	65535	64646.75
879.1064	1360.4131	65535	64648.15
879.2504	1362.276	65535	64649
879.3944	1364.1383	65535	64646.65
879.5384	1365.9998	65535	64640.15
879.6823	1367.8606	65535	64648.8
879.8263	1369.7206	65535	64648.65
879.9702	1371.5799	65535	64646.8
880.1142	1373.4384	65535	64645.5
880.2581	1375.2962	65535	64648.6
880.402	1377.1533	65535	64647.2
880.5459	1379.0096	65535	64647.45
880.6898	1380.8652	65535	64647.75
880.8337	1382.7201	65535	64647.95
880.9776	1384.5742	65535	64647.3
881.1215	1386.4275	65535	64647.1
881.2653	1388.2802	65535	64649.9
881.4092	1390.132	65535	64647.4
881.553	1391.9832	65535	64647.45
881.6968	1393.8336	65535	64647.35
881.8406	1395.6832	65535	64648.4
881.9844	1397.5322	65535	64648.5
882.1282	1399.3803	65535	64641.25
882.272	1401.2278	65535	64647.25
882.4158	1403.0745	65535	64648.05
882.5595	1404.9204	65535	64650.05
882.7033	1406.7656	65535	64648.2
882.847	1408.6101	65535	64650.15
882.9908	1410.4538	65535	64648
883.1345	1412.2968	65535	64648.4
883.2782	1414.139	65535	64648.65
883.4219	1415.9805	65535	64648.55
883.5656	1417.8213	65535	64642.3
883.7092	1419.6613	65535	64649.8
883.8529	1421.5006	65535	64647.2
883.9965	1423.3391	65535	64648.25
884.1402	1425.1769	65535	64644.7
884.2838	1427.0139	65535	64647.3
884.4274	1428.8502	65535	64644.75
884.571	1430.6858	65535	64650.45
884.7146	1432.5206	65535	64648.1
884.8582	1434.3547	65535	64647.7
885.0018	1436.188	65535	64648.95
885.1453	1438.0206	65535	64645.7
885.2889	1439.8524	65535	64648
885.4324	1441.6835	65535	64646.9
885.5759	1443.5139	65535	64643.6
885.7194	1445.3435	65535	64647.85
885.8629	1447.1724	65535	64649.7
886.0064	1449.0005	65535	64647.7
886.1499	1450.8279	65535	64647.5
886.2933	1452.6545	65535	64646.2
886.4368	1454.4804	65535	64648.6
886.5802	1456.3056	65535	64641.4
886.7237	1458.13	65535	64647.75
886.8671	1459.9536	65535	64648.25
887.0105	1461.7766	65535	64648.45
887.1539	1463.5987	65535	64646.55
887.2972	1465.4202	65535	64646.35
887.4406	1467.2409	65535	64647.6
887.584	1469.0608	65535	64647.85
887.7273	1470.88	65535	64647.75
887.8706	1472.6984	65535	64649.4
888.0139	1474.5161	65535	64646.35
888.1572	1476.3331	65535	64648.75
888.3005	1478.1493	65535	64648.5
888.4438	1479.9648	65535	64649.2
888.5871	1481.7795	65535	64647.8
888.7303	1483.5935	65535	64649.85
888.8736	1485.4067	65535	64647.15
889.0168	1487.2192	65535	64648.65
889.16	1489.031	65535	64646.6
889.3032	1490.842	65535	64647.95
889.4464	1492.6522	65535	64648.5
889.5896	1494.4618	65535	64648.3
889.7327	1496.2705	65535	64649.7
889.8759	1498.0785	65535	64647
890.019	1499.8858	65535	64645.95
890.1622	1501.6924	65535	64648.8
890.3053	1503.4981	65535	64650
890.4484	1505.3032	65535	64649.3
890.5914	1507.1075	65535	64647.8
890.7345	1508.911	65535	64647.4
890.8776	1510.7138	65535	64647.85
891.0206	1512.5159	65535	64646.65
891.1637	1514.3172	65535	64649.2
891.3067	1516.1178	65535	64648.25
891.4497	1517.9176	65535	64645.45
891.5927	1519.7166	65535	64647.55
891.7357	1521.515	65535	64641.95
891.8786	1523.3126	65535	64649.15
892.0216	1525.1094	65535	64646.35
892.1645	1526.9055	65535	64650.05
892.3074	1528.7008	65535	64649.25
892.4503	1530.4954	65535	64647.65
892.5932	1532.2893	65535	64650.05
892.7361	1534.0824	65535	64645.05
892.879	1535.8747	65535	64647.9
893.0218	1537.6663	65535	64649.2
893.1647	1539.4572	65535	64647.4
893.3075	1541.2473	65535	64648.4
893.4503	1543.0367	65535	64649
893.5931	1544.8253	65535	64642.75
893.7359	1546.6132	65535	64646.6
893.8787	1548.4003	65535	64640.2
894.0214	1550.1867	65535	64639.75
894.1642	1551.9723	65535	64645.2
894.3069	1553.7572	65535	64645.65
894.4496	1555.5414	65535	64647.85
894.5923	1557.3247	65535	64649.35
894.735	1559.1074	65535	64650.4
894.8777	1560.8893	65535	64649.85
895.0204	1562.6705	65535	64648.3
895.163	1564.4509	65535	64649.8
895.3056	1566.2305	65535	64651.05
895.4482	1568.0094	65535	64649.5
895.5908	1569.7876	65535	64649.85
895.7334	1571.565	65535	64650
895.876	1573.3417	65535	64650.65
896.0186	1575.1176	65535	64649.2
896.1611	1576.8928	65535	64650.3
896.3036	1578.6672	65535	64648.75
896.4461	1580.4409	65535	64651.45
896.5886	1582.2138	65532.9	64645.2
896.7311	1583.986	65535	64649.95
896.8736	1585.7575	65530.85	64649
897.0161	1587.5282	65535	64652
897.1585	1589.2981	65535	64650.35
897.3009	1591.0673	65529.45	64644.25
897.4433	1592.8358	65520.3	64635.55
897.5857	1594.6035	65528.75	64640.2
897.7281	1596.3704	65530.65	64647.8
897.8705	1598.1366	65511.35	64627.85
898.0128	1599.9021	65484	64600.95
898.1551	1601.6668	65525.25	64637.8
898.2975	1603.4308	65515	64627.7
898.4398	1605.194	65510.7	64622.1
898.5821	1606.9564	65453.2	64567.75
898.7243	1608.7182	65496.9	64607.75
898.8666	1610.4791	65469.9	64586.6
899.0088	1612.2394	65509.8	64627.05
899.1511	1613.9988	65453.2	64569.55
899.2933	1615.7576	65494.55	64609.6
899.4355	1617.5156	65488.4	64599.6
899.5776	1619.2728	65521	64636.15
899.7198	1621.0293	65429.75	64547.35
899.862	1622.785	65436.95	64549.9
900.0041	1624.54	65476.65	64591.1
900.1462	1626.2942	65412.1	64527.9
900.2883	1628.0477	65328.2	64441.85
900.4304	1629.8005	65237.4	64349.5
900.5725	1631.5525	65346.9	64464.9
900.7145	1633.3037	65212.75	64328.9
900.8566	1635.0542	65190.05	64306.25
900.9986	1636.804	65275.15	64392.65
901.1406	1638.553	65113.45	64149.35
901.2826	1640.3013	65186.35	64304.6
901.4245	1642.0488	65081.75	64195.8
901.5665	1643.7955	65184.1	64303.05
901.7085	1645.5416	65102.5	64218.6
901.8504	1647.2868	64996.15	64112.4
901.9923	1649.0313	65171.25	64288.65
902.1342	1650.7751	65059.9	64172.4
902.2761	1652.5181	64984.45	64101.45
902.4179	1654.2604	64999.1	64114.85
902.5598	1656.0019	65024.6	64140
902.7016	1657.7427	64976.55	64095.25
902.8434	1659.4828	65080.45	64197.05
902.9852	1661.222	64877.1	63992.4
903.127	1662.9606	65078.05	64197.25
903.2687	1664.6984	64825.05	63940.6
903.4105	1666.4354	64984.8	64101.3
903.5522	1668.1717	64656.35	63773.85
903.6939	1669.9072	64350.3	63469.05
903.8356	1671.642	64346.25	63460.3
903.9773	1673.3761	64286.75	63403.35
904.119	1675.1094	64243.2	63359.65
904.2606	1676.8419	63937	63052.4
904.4022	1678.5737	64047.8	63164.95
904.5439	1680.3048	63945.85	63060.45
904.6855	1682.0351	63787.65	62904.75
904.827	1683.7646	63712.8	62825.5
904.9686	1685.4934	63820.35	62939.15
905.1101	1687.2215	63338.85	62455.75
905.2517	1688.9488	63683.55	62800.65
905.3932	1690.6754	62902.75	62021.45
905.5347	1692.4012	63339	62455.6
905.6761	1694.1263	63376.55	62495.15
905.8176	1695.8506	63093.7	62208.75
905.9591	1697.5742	63101.9	62220.4
906.1005	1699.297	63011.1	62126.75
906.2419	1701.0191	63071.05	62189.25
906.3833	1702.7404	62643.55	61762
906.5246	1704.461	62510.9	61627.45
906.666	1706.1808	62716.65	61832.1
906.8073	1707.8999	62548.8	61664.2
906.9487	1709.6182	62452.45	61568.65
907.09	1711.3358	62412.25	61529
907.2313	1713.0527	62325.75	61442.75
907.3725	1714.7688	62394.6	61505.25
907.5138	1716.4841	61858.35	60975.3
907.655	1718.1987	62017.8	61128.8
907.7962	1719.9126	61835.95	60954.95
907.9374	1721.6257	61961.05	61075.7
908.0786	1723.338	61997.05	61115.85
908.2198	1725.0496	61392.45	60508.85
908.3609	1726.7605	61464.6	60581.1
908.502	1728.4706	61287.45	60404.25
908.6431	1730.18	61431	60545.85
908.7842	1731.8886	61230.1	60347.1
908.9253	1733.5964	61035.7	60146.85
909.0664	1735.3036	61297.3	60411.65
909.2074	1737.0099	61093.4	60212.1
909.3484	1738.7156	60817.9	59933.3
909.4894	1740.4204	60725.7	59841.5
909.6304	1742.1246	60868.35	59983.8
909.7714	1743.8279	60906.25	60024.65
909.9123	1745.5306	60859.05	59973.4
910.0532	1747.2325	60202.3	59318.6
910.1941	1748.9336	60205	59323.8
910.335	1750.634	60300.5	59416.3
910.4759	1752.3336	60485.55	59604.25
910.6168	1754.0325	59970.5	59088.95
910.7576	1755.7307	60410.4	59527.3
910.8984	1757.4281	59804.55	58921.55
911.0392	1759.1247	60238	59347.85
911.18	1760.8206	59561.95	58675.05
911.3208	1762.5158	59646.4	58759.35
911.4615	1764.2102	59715.15	58833.2
911.6022	1765.9039	59540.2	58657.35
911.7429	1767.5968	59408.2	58525.95
911.8836	1769.289	59326.8	58444.75
912.0243	1770.9804	59392.95	58509.45
912.1649	1772.6711	59250.05	58366.35
912.3056	1774.361	59127.4	58241.35
912.4462	1776.0502	59102	58215.3
912.5868	1777.7386	58625.4	57739.3
912.7274	1779.4263	58815.85	57930.55
912.8679	1781.1132	58771.4	57887.9
913.0084	1782.7994	58664.25	57780
913.149	1784.4849	58709.8	57829.1
913.2895	1786.1696	58106.9	57216.95
913.4299	1787.8535	58374.3	57493.65
913.5704	1789.5367	58443	57559.25
913.7108	1791.2192	58025.75	57142.55
913.8513	1792.9009	57770.8	56858.9
913.9917	1794.5818	58033.85	57151.8
914.132	1796.2621	57699.8	56818.55
914.2724	1797.9415	57661.05	56778.3
914.4128	1799.6202	57582.3	56701.2
914.5531	1801.2982	57601.6	56721.3
914.6934	1802.9755	57223.35	56340.45
914.8337	1804.6519	57058.65	56175.55
914.9739	1806.3277	57470	56589.25
915.1142	1808.0027	56526.85	55646.7
915.2544	1809.6769	56891.3	56009.35
915.3946	1811.3504	56937.05	56051.95
915.5348	1813.0231	56198.6	55314.35
915.675	1814.6951	56674.75	55791.4
915.8151	1816.3664	56385.45	55500.25
915.9553	1818.0369	56414.3	55532.9
916.0954	1819.7067	56146.45	55264.55
916.2355	1821.3757	56467.9	55584.7
916.3755	1823.044	55876.85	54994.35
916.5156	1824.7115	55538.55	54656.2
916.6556	1826.3783	55703.5	54823.2
916.7956	1828.0443	55707.85	54825.8
916.9356	1829.7096	55411.2	54528.95
917.0756	1831.3741	54913	54026.1
917.2155	1833.0379	55147.3	54265.95
917.3555	1834.701	55097.6	54212.45
917.4954	1836.3633	54726.1	53842.05
917.6353	1838.0248	54935.2	54048.3
917.7751	1839.6856	54724.2	53842.8
917.915	1841.3457	54357.95	53477.3
918.0548	1843.005	54763.35	53880.3
918.1946	1844.6636	54446.8	53565.2
918.3344	1846.3214	53922.3	53040.55
918.4742	1847.9785	54037.1	53155.85
918.6139	1849.6349	53950.15	53066.95
918.7537	1851.2904	54263.2	53371.05
918.8934	1852.9453	53633.3	52749.45
919.0331	1854.5994	53745.5	52863.05
919.1727	1856.2528	53759.1	52871.8
919.3124	1857.9054	53365.35	52484.35
919.452	1859.5572	53256.7	52375.4
919.5916	1861.2083	53395.45	52513.8
919.7312	1862.8587	53709.6	52827.05
919.8708	1864.5084	52665.8	51784.65
920.0103	1866.1572	53105.3	52224.45
920.1498	1867.8054	52476.15	51595.6
920.2893	1869.4528	52761.1	51879.15
920.4288	1871.0994	52350.75	51467.2
920.5683	1872.7453	52282.7	51398.45
920.7077	1874.3905	52392.6	51503.85
920.8471	1876.0349	52029.7	51146.65
920.9865	1877.6786	52236.9	51353.75
921.1259	1879.3215	51842.5	50960.65
921.2653	1880.9637	52133.55	51250.25
921.4046	1882.6051	51736.2	50853.55
921.5439	1884.2458	51518.35	50634.4
921.6832	1885.8858	51338	50456.05
921.8225	1887.525	51389	50506.3
921.9617	1889.1634	51201.5	50320.85
922.101	1890.8011	51047.55	50163.25
922.2402	1892.4381	50602.6	49720.8
922.3794	1894.0743	51039.5	50153.65
922.5185	1895.7098	50749.3	49867.85
922.6577	1897.3446	50452.55	49569.65
922.7968	1898.9786	50482.05	49597.95
922.9359	1900.6118	50238.65	49357.65
923.075	1902.2443	49900.8	49016.1
923.214	1903.8761	50164.05	49281.8
923.3531	1905.5071	49793.1	48909.7
923.4921	1907.1374	49255.1	48370.85
923.6311	1908.7669	49432.2	48549.25
923.77	1910.3957	49543.8	48661.7
923.909	1912.0237	49055.65	48172.6
924.0479	1913.651	48848.95	47967.2
924.1868	1915.2776	48715.35	47834.5
924.3257	1916.9034	48685.9	47805.35
924.4646	1918.5285	48407.1	47524.1
924.6034	1920.1528	48297.55	47414.45
924.7422	1921.7764	48196.85	47316.55
924.881	1923.3992	48058.05	47176
925.0198	1925.0213	47767.9	46885.1
925.1586	1926.6427	47423.2	46543.65
925.2973	1928.2633	47516.3	46552.9
925.436	1929.8832	47291.65	46410.8
925.5747	1931.5023	47106.55	46222.6
925.7134	1933.1207	46907	46024
925.852	1934.7383	46959.65	46076.45
925.9906	1936.3552	46725.7	45843.95
926.1292	1937.9714	46577.6	45696.3
926.2678	1939.5868	46501.15	45617.05
926.4064	1941.2015	46179.1	45296.45
926.5449	1942.8154	45967.25	45084.55
926.6834	1944.4286	45790.35	44907.9
926.8219	1946.041	45723.4	44822.15
926.9604	1947.6528	45419.65	44533.3
927.0988	1949.2637	45335.8	44453.1
927.2372	1950.8739	45138.9	44256.2
927.3756	1952.4834	45088.1	44206.6
927.514	1954.0921	44984.05	44100.4
927.6523	1955.7001	44778.1	43892.7
927.7907	1957.3074	44778.95	43896
927.929	1958.9139	44496.8	43615.1
928.0673	1960.5197	44397.55	43513.6
928.2055	1962.1247	44212.65	43331.55
928.3438	1963.729	43995.3	43116.3
928.482	1965.3325	43843.55	42937.8
928.6202	1966.9353	43678.05	42797.3
928.7584	1968.5374	43537.65	42655.6
928.8965	1970.1387	43398.7	42517.4
929.0346	1971.7393	43261.4	42378.85
929.1727	1973.3392	43135.85	42252.5
929.3108	1974.9383	42931.2	42049.9
929.4489	1976.5366	42695.2	41813.1
929.5869	1978.1342	42720.9	41839.8
929.7249	1979.7311	42569.35	41685.5
929.8629	1981.3273	42464.95	41583.05
930.0009	1982.9227	42331.6	41449.6
930.1388	1984.5173	42211.35	41328.85
930.2767	1986.1112	41983.55	41102.7
930.4146	1987.7044	41990.65	41110.15
930.5525	1989.2968	41729.1	40845.8
930.6904	1990.8885	41694.4	40807.8
930.8282	1992.4795	41588.35	40704.5
930.966	1994.0697	41365.3	40484.6
931.1038	1995.6592	41276.85	40395.05
931.2415	1997.2479	41154.55	40272.6
931.3793	1998.8359	40998.25	40115.65
931.517	2000.4232	40858.4	39977.8
931.6547	2002.0097	40696.2	39815.3
931.7923	2003.5955	40566.2	39682.6
931.93	2005.1805	40529.15	39645.05
932.0676	2006.7648	40423.55	39542.05
932.2052	2008.3484	40293.9	39411.25
932.3427	2009.9312	40320.25	39438.8
932.4803	2011.5133	40063.55	39184.15
932.6178	2013.0946	39961.55	39081.75
932.7553	2014.6752	39832.2	38952.55
932.8928	2016.2551	39759.45	38874.9
933.0302	2017.8342	39544.8	38661.85
933.1676	2019.4126	39398.85	38517.05
933.305	2020.9902	39209.65	38326.35
933.4424	2022.5672	39188.95	38305.1
933.5798	2024.1433	39083.8	38197.25
933.7171	2025.7188	38930.95	38051.6
933.8544	2027.2935	38857.8	37976.1
933.9917	2028.8674	38700.3	37819.55
934.129	2030.4406	38566.3	37684.7
934.2662	2032.0131	38348.55	37468.6
934.4034	2033.5849	38268.05	37377.05
934.5406	2035.1559	38193.95	37311.55
934.6778	2036.7261	38133.25	37252.5
934.8149	2038.2957	38012.3	37131.2
934.952	2039.8645	37945.05	37065.3
935.0891	2041.4325	37982.8	37099.3
935.2262	2042.9998	37751.6	36871.9
935.3632	2044.5664	37605.9	36723.55
935.5002	2046.1323	37516.4	36635.55
935.6372	2047.6974	37384.4	36502.3
935.7742	2049.2617	37329.7	36447.55
935.9111	2050.8254	37299.55	36414.5
936.048	2052.3883	37139.8	36256.4
936.1849	2053.9504	37041.65	36158.3
936.3218	2055.5118	36977.85	36095.5
936.4586	2057.0725	36718.8	35834.1
936.5955	2058.6325	36687.05	35805.75
936.7323	2060.1917	36528.55	35648.5
936.869	2061.7502	36436.7	35551.85
937.0058	2063.3079	36319.15	35437.35
937.1425	2064.8649	36214.5	35328.65
937.2792	2066.4212	36132.85	35250.65
937.4159	2067.9767	36013.55	35132.8
937.5525	2069.5315	35789.3	34907.65
937.6891	2071.0856	35700.75	34818.95
937.8257	2072.6389	35552.35	34669
937.9623	2074.1915	35409.8	34529.8
938.0989	2075.7433	35209.6	34325.95
938.2354	2077.2945	35167.6	34287.3
938.3719	2078.8448	35042.5	34161.65
938.5084	2080.3945	34961.15	34081.15
938.6448	2081.9434	34870.9	33989.8
938.7812	2083.4916	34769.35	33888.35
938.9176	2085.039	34647.3	33764
939.054	2086.5857	34586.55	33705.25
939.1903	2088.1317	34492.85	33610.45
939.3267	2089.677	34403.3	33521.1
939.463	2091.2215	34310.1	33427.9
939.5992	2092.7652	34221.7	33338.95
939.7355	2094.3083	34095.65	33215
939.8717	2095.8506	34064.2	33183.75
940.0079	2097.3921	34003.75	33124.35
940.1441	2098.933	33880.25	32997.9
940.2802	2100.4731	33812.5	32932.8
940.4163	2102.0124	33716.25	32818.05
940.5524	2103.5511	33644.05	32762.8
940.6885	2105.089	33581.25	32698.1
940.8245	2106.6261	33457.25	32575.15
940.9606	2108.1626	33382	32499.65
941.0965	2109.6983	33318.15	32406.15
941.2325	2111.2332	33188.8	32306.65
941.3684	2112.7675	33124.05	32243.3
941.5044	2114.301	33025.65	32141.85
941.6403	2115.8337	32991.9	32113.15
941.7761	2117.3657	32806.05	31927.1
941.912	2118.897	32767.25	31885.1
942.0478	2120.4276	32654.6	31767.2
942.1835	2121.9575	32551.85	31670.2
942.3193	2123.4866	32540.4	31644.25
942.455	2125.0149	32408.2	31524
942.5907	2126.5426	32210.65	31326.8
942.7264	2128.0695	32148.15	31263.95
942.8621	2129.5956	32075.95	31196.7
942.9977	2131.1211	32011.9	31126.6
943.1333	2132.6458	31931.7	31051.75
943.2689	2134.1698	31833.6	30952.55
943.4044	2135.693	31759.95	30877.8
943.54	2137.2155	31696.15	30813.5
943.6755	2138.7373	31694.05	30812.6
943.8109	2140.2584	31494.8	30613.7
943.9464	2141.7787	31409.1	30521.75
944.0818	2143.2983	31250.1	30367.95
944.2172	2144.8171	31095.2	30215.85
944.3526	2146.3353	31012.15	30129.7
944.4879	2147.8527	30877.5	29996
944.6232	2149.3693	30863.55	29982.7
944.7585	2150.8853	30720.05	29836.25
944.8938	2152.4005	30592.25	29712.3
945.029	2153.9149	30544.45	29661.85
945.1642	2155.4287	30445.65	29564.25
945.2994	2156.9417	30382.6	29499.85
945.4346	2158.454	30281	29396.6
945.5697	2159.9655	30219.95	29337.85
945.7048	2161.4764	30191.25	29309.85
945.8399	2162.9865	30048.8	29166.65
945.9749	2164.4958	29985.15	29103.5
946.1099	2166.0045	29844.4	28959.1
946.2449	2167.5124	29790.4	28909.7
946.3799	2169.0195	29759.25	28878.55
946.5148	2170.526	29732.75	28850.6
946.6498	2172.0317	29600.05	28719
946.7846	2173.5367	29475.6	28593.25
946.9195	2175.0409	29379.2	28497.35
947.0543	2176.5445	29360.5	28479.95
947.1891	2178.0473	29231.95	28348.35
947.3239	2179.5494	29122.2	28237.65
947.4587	2181.0507	28991.05	28110.9
947.5934	2182.5513	28936.7	28054.45
947.7281	2184.0512	28914.9	28033.95
947.8628	2185.5504	28787.8	27907.25
947.9974	2187.0488	28593.25	27711.95
948.132	2188.5465	28524.5	27641.5
948.2666	2190.0435	28409.45	27529.15
948.4012	2191.5397	28310.75	27429.35
948.5357	2193.0353	28227.45	27345.6
948.6702	2194.5301	28080.05	27197.9
948.8047	2196.0241	28033.8	27151.6
948.9392	2197.5175	27899.8	27020.55
949.0736	2199.0101	27813	26928.6
949.208	2200.502	27690.7	26810.5
949.3424	2201.9931	27570.7	26690.3
949.4767	2203.4835	27513.85	26629.75
949.611	2204.9733	27444.5	26556.3
949.7453	2206.4622	27374.75	26495.1
949.8796	2207.9505	27274.35	26389.1
950.0138	2209.438	27158.25	26276.35
950.148	2210.9248	27050.45	26170.35
950.2822	2212.4109	26998.3	26117.5
950.4164	2213.8962	26839.7	25954.9
950.5505	2215.3809	26773.6	25890.9
950.6846	2216.8648	26708.4	25827.85
950.8186	2218.3479	26617.65	25731.8
950.9527	2219.8304	26547.8	25663.65
951.0867	2221.3121	26437.6	25553.65
951.2207	2222.7931	26336.7	25456.75
951.3546	2224.2733	26231.85	25350
951.4886	2225.7529	26131.75	25248.2
951.6225	2227.2317	26078.4	25193.55
951.7563	2228.7098	26025.8	25143.9
951.8902	2230.1872	25850.85	24969.35
952.024	2231.6638	25811.95	24931.65
952.1578	2233.1397	25727.1	24838.6
952.2916	2234.6149	25647.65	24767.3
952.4253	2236.0894	25588.9	24706.65
952.559	2237.5632	25522.65	24639.5
952.6927	2239.0362	25413.4	24530.25
952.8263	2240.5085	25352.8	24469.2
952.9599	2241.9801	25223.55	24341.8
953.0935	2243.4509	25122.15	24242
953.2271	2244.921	25057.5	24175.45
953.3606	2246.3904	24941.7	24058.8
953.4941	2247.8591	24892.95	24011.6
953.6276	2249.3271	24811.85	23930.15
953.7611	2250.7943	24742.6	23862
953.8945	2252.2608	24639.6	23756.15
954.0279	2253.7266	24559.25	23678.8
954.1612	2255.1917	24501.7	23620.25
954.2946	2256.656	24413.55	23531.1
954.4279	2258.1197	24319.55	23437.45
954.5612	2259.5826	24275.7	23393.25
954.6944	2261.0447	24228.15	23344.5
954.8276	2262.5062	24123.05	23238.65
954.9608	2263.9669	24105.1	23218.4
955.094	2265.4269	24015.65	23135.25
955.2271	2266.8862	23895.85	23015.25
955.3602	2268.3448	23905.6	23023.85
955.4933	2269.8026	23804.9	22925.25
955.6264	2271.2598	23747.45	22866.25
955.7594	2272.7162	23643.5	22762.55
955.8924	2274.1719	23568	22686.55
956.0253	2275.6268	23515	22633.45
956.1583	2277.0811	23463	22581.4
956.2912	2278.5346	23411.75	22532.7
956.4241	2279.9874	23352.2	22470.2
956.5569	2281.4395	23302.6	22422.7
956.6897	2282.8908	23196.4	22310.15
956.8225	2284.3414	23188.1	22307.45
956.9553	2285.7914	23040.35	22161.1
957.088	2287.2406	22964.55	22081.75
957.2207	2288.689	22897	22015.25
957.3534	2290.1368	22875.1	21991.5
957.486	2291.5838	22780.65	21896.5
957.6186	2293.0302	22685.65	21802.2
957.7512	2294.4758	22593.55	21712.75
957.8838	2295.9206	22510.45	21624.6
958.0163	2297.3648	22454.1	21573.7
958.1488	2298.8082	22415.9	21533.6
958.2813	2300.251	22333.8	21452.4
958.4137	2301.693	22233.35	21349.9
958.5461	2303.1343	22219.2	21336.5
958.6785	2304.5748	22120.9	21239.55
958.8108	2306.0147	22106.55	21223.65
958.9432	2307.4538	22005.7	21122.1
959.0754	2308.8922	21954.45	21073.3
959.2077	2310.3299	21903.2	21021.6
959.3399	2311.7669	21803.45	20924.5
959.4721	2313.2031	21724.4	20844
959.6043	2314.6387	21607.4	20726.25
959.7365	2316.0735	21507.3	20626.8
959.8686	2317.5076	21469.75	20589.15
960.0006	2318.941	21424.2	20542.9
960.1327	2320.3737	21386.5	20506
960.2647	2321.8056	21338.65	20454.05
960.3967	2323.2369	21244.25	20363.3
960.5287	2324.6674	21201.85	20318.65
960.6606	2326.0972	21111.35	20228.4
960.7925	2327.5263	21003.45	20123
960.9244	2328.9547	20979.7	20096.9
961.0562	2330.3823	20911.1	20030.3
961.1881	2331.8092	20894.8	20010.2
961.3198	2333.2355	20748.05	19867.05
961.4516	2334.661	20728.55	19847.05
961.5833	2336.0858	20668	19783.25
961.715	2337.5098	20666.35	19784.8
961.8467	2338.9332	20623.7	19742.8
961.9783	2340.3558	20520.15	19635.4
962.1099	2341.7778	20390.95	19509.25
962.2415	2343.199	20353.4	19470.25
962.373	2344.6195	20291.9	19412.25
962.5045	2346.0393	20255.15	19373.1
962.636	2347.4583	20213.75	19329.15
962.7675	2348.8767	20135.15	19254.25
962.8989	2350.2943	20092.4	19210
963.0303	2351.7113	20049.2	19167.1
963.1617	2353.1275	19932.65	19051.5
963.293	2354.543	19903.55	19013.55
963.4243	2355.9578	19824.45	18942.8
963.5556	2357.3718	19687	18806
963.6868	2358.7852	19636.8	18753.3
963.818	2360.1978	19611.45	18729
963.9492	2361.6098	19544.6	18664.05
964.0803	2363.021	19429.8	18544.25
964.2114	2364.4315	19400.65	18519.55
964.3425	2365.8413	19341.65	18458.5
964.4736	2367.2504	19302.1	18421.15
964.6046	2368.6587	19173.1	18290.9
964.7356	2370.0664	19105.25	18224
964.8666	2371.4733	19046.6	18164.45
964.9975	2372.8795	18993.95	18113.7
965.1284	2374.285	18944.1	18063
965.2593	2375.6899	18820.85	17939.75
965.3901	2377.0939	18710.7	17829.55
965.5209	2378.4973	18714.9	17836.8
965.6517	2379.9	18613.85	17730.65
965.7825	2381.3019	18570.7	17689.05
965.9132	2382.7032	18514.8	17632.85
966.0439	2384.1037	18458.9	17579.1
966.1745	2385.5035	18394	17512.1
966.3051	2386.9027	18330.9	17449
966.4357	2388.3011	18279.7	17395.2
966.5663	2389.6987	18261.35	17379.45
966.6968	2391.0957	18137.85	17256.35
966.8273	2392.492	18065.35	17185.45
966.9578	2393.8876	17961.55	17079.15
967.0882	2395.2824	17930.1	17048.15
967.2186	2396.6765	17855	16974.85
967.349	2398.07	17787.55	16906.3
967.4793	2399.4627	17730.6	16850.7
967.6097	2400.8547	17690.7	16808.1
967.7399	2402.246	17622.95	16735
967.8702	2403.6366	17498.4	16616.65
968.0004	2405.0265	17459.3	16579.5
968.1306	2406.4156	17375.45	16489.4
968.2607	2407.8041	17277.8	16394.25
968.3909	2409.1918	17220.5	16335.9
968.521	2410.5789	17162.4	16282.25
968.651	2411.9652	17077.7	16191.55
968.781	2413.3508	17071.1	16191.1
968.911	2414.7358	16955.9	16075.3
969.041	2416.12	16893.9	16014.1
969.1709	2417.5035	16880.3	16002.1
969.3008	2418.8863	16817.2	15935.55
969.4307	2420.2684	16771.75	15891.65
969.5606	2421.6497	16646.45	15765.5
969.6904	2423.0304	16547.1	15665.6
969.8201	2424.4104	16528.25	15646.8
969.9499	2425.7896	16487.65	15602.85
970.0796	2427.1682	16443.4	15565.05
970.2093	2428.546	16416.95	15534.95
970.3389	2429.9232	16343.45	15462.6
970.4685	2431.2996	16323.3	15442.25
970.5981	2432.6753	16247.3	15366.05
970.7277	2434.0503	16186.85	15307.65
970.8572	2435.4246	16102.75	15221.35
970.9867	2436.7982	16089.55	15206.4
971.1161	2438.1711	16046.85	15166.65
971.2456	2439.5433	16022.7	15140.3
971.375	2440.9148	15878.5	14998.5
971.5043	2442.2856	15823.35	14942
971.6336	2443.6557	15809.1	14927.1
971.7629	2445.025	15761.6	14879.9
971.8922	2446.3937	15696.65	14814.05
972.0214	2447.7617	15660.3	14778.35
972.1506	2449.1289	15647.2	14766.35
972.2798	2450.4955	15593.75	14707.5
972.4089	2451.8613	15529.05	14649.75
972.538	2453.2265	15484.85	14604
972.6671	2454.5909	15417.3	14534.3
972.7961	2455.9546	15356.9	14476.6
972.9251	2457.3177	15306.05	14425.5
973.0541	2458.68	15260.45	14378.3
973.1831	2460.0416	15239.95	14359.4
973.312	2461.4025	15205.1	14320.65
973.4408	2462.7627	15165.9	14272.6
973.5697	2464.1222	15122.95	14244.55
973.6985	2465.4811	15045.35	14163.6
973.8273	2466.8392	14985.6	14103.9
973.956	2468.1966	14965.2	14080.35
974.0847	2469.5533	14944.9	14061.45
974.2134	2470.9093	14868.8	13986.55
974.3421	2472.2645	14849.7	13965.6
974.4707	2473.6191	14787.35	13907.7
974.5993	2474.973	14738.7	13857.6
974.7278	2476.3262	14677.8	13795
974.8563	2477.6787	14597.35	13717.45
974.9848	2479.0305	14558.15	13677.95
975.1132	2480.3816	14507.7	13625.75
975.2417	2481.7319	14453.85	13572.35
975.37	2483.0816	14370.65	13488.3
975.4984	2484.4306	14350.3	13469.9
975.6267	2485.7789	14287.35	13407.6
975.755	2487.1264	14220.1	13337.75
975.8833	2488.4733	14187.6	13307.95
976.0115	2489.8195	14154.45	13266.45
976.1397	2491.165	14070.5	13185.1
976.2678	2492.5097	14023.3	13142.4
976.3959	2493.8538	13969.25	13088.1
976.524	2495.1972	13921.9	13039.85
976.6521	2496.5398	13854.8	12972.45
976.7801	2497.8818	13826.8	12944.05
976.9081	2499.2231	13775.35	12893.9
977.036	2500.5637	13703.2	12818.35
977.164	2501.9035	13642.9	12760.45
977.2918	2503.2427	13631.2	12747.15
977.4197	2504.5812	13581	12699.65
977.5475	2505.919	13530.25	12646.6
977.6753	2507.256	13527.25	12645.4
977.8031	2508.5924	13451.85	12572.3
977.9308	2509.9281	13407.6	12521.15
978.0585	2511.2631	13377.45	12497
978.1861	2512.5974	13352.05	12471.45
978.3137	2513.9309	13272.65	12391.05
978.4413	2515.2638	13224.3	12314.05
978.5689	2516.596	13154.55	12275.5
978.6964	2517.9275	13095.2	12211.85
978.8239	2519.2583	13089.55	12206.6
978.9513	2520.5884	13049.3	12167.25
979.0788	2521.9178	12986.6	12105.95
979.2062	2523.2465	12938.25	12058.35
979.3335	2524.5745	12868.8	11986.55
979.4608	2525.9018	12826.6	11946.4
979.5881	2527.2284	12773.9	11894.7
979.7154	2528.5543	12777.75	11896.45
979.8426	2529.8796	12716.15	11835.35
979.9698	2531.2041	12692.7	11809.3
980.0969	2532.5279	12639.5	11760.15
980.224	2533.851	12636.65	11754.75
980.3511	2535.1735	12578.15	11698.45
980.4781	2536.4952	12553.55	11672.45
980.6052	2537.8163	12550.95	11669.35
980.7321	2539.1366	12463.6	11585.3
980.8591	2540.4562	12455.1	11572.15
980.986	2541.7752	12435.55	11554.6
981.1129	2543.0935	12412.7	11533.2
981.2397	2544.411	12370.8	11489
981.3665	2545.7279	12315.45	11435.5
981.4933	2547.0441	12313.95	11431.1
981.62	2548.3596	12313	11429.2
981.7467	2549.6744	12246.8	11366.1
981.8734	2550.9885	12218.55	11328.95
982.0001	2552.3019	12161	11283.2
982.1267	2553.6146	12164.9	11283.8
982.2532	2554.9266	12105.15	11222.5
982.3798	2556.2379	12070.35	11187.7
982.5063	2557.5485	12034.75	11155.55
982.6327	2558.8585	12004.3	11114.65
982.7592	2560.1677	11987	11103.8
982.8856	2561.4762	11989.7	11105.6
983.0119	2562.7841	11942.9	11059.4
983.1383	2564.0913	11896.5	11017.5
983.2646	2565.3977	11893.2	11011.05
983.3908	2566.7035	11839.5	10956.9
983.517	2568.0086	11844.45	10961.7
983.6432	2569.313	11792.35	10912.05
983.7694	2570.6167	11742.3	10857.9
983.8955	2571.9197	11725.7	10845.65
984.0216	2573.222	11716	10831.15
984.1476	2574.5236	11721.2	10840.95
984.2737	2575.8246	11659.05	10774.3
984.3996	2577.1248	11613.85	10731.35
984.5256	2578.4244	11608.45	10727.75
984.6515	2579.7232	11579.25	10697.25
984.7774	2581.0214	11576.05	10668.6
984.9032	2582.3189	11534.5	10653.45
985.029	2583.6157	11502.05	10616.15
985.1548	2584.9118	11476	10591.5
985.2806	2586.2072	11414.55	10536.3
985.4063	2587.5019	11401.35	10521.65
985.5319	2588.7959	11349.5	10467.9
985.6576	2590.0893	11335.8	10452.4
985.7832	2591.3819	11312	10430.55
985.9087	2592.6739	11254.45	10374.35
986.0343	2593.9652	11236.1	10354.5
986.1597	2595.2557	11215.2	10335.4
986.2852	2596.5456	11143.75	10261.45
986.4106	2597.8348	11102.1	10221.05
986.536	2599.1234	11064.6	10183.05
986.6614	2600.4112	11043.9	10163.8
986.7867	2601.6983	11016.2	10130.95
986.912	2602.9848	10938.2	10057.15
987.0372	2604.2705	10890.5	10003.1
987.1624	2605.5556	10866.6	9986.2
987.2876	2606.84	10809.65	9927.9
987.4128	2608.1237	10783.5	9902.2
987.5379	2609.4067	10747.7	9866.2
987.6629	2610.689	10705.85	9816.6
987.788	2611.9707	10685.1	9802.45
987.913	2613.2516	10622.3	9735.7
988.0379	2614.5319	10607.75	9727.5
988.1629	2615.8115	10540.95	9658.8
988.2878	2617.0903	10488.75	9606.85
988.4126	2618.3685	10469.85	9588.6
988.5375	2619.6461	10408.2	9528.4
988.6622	2620.9229	10380.5	9498.55
988.787	2622.199	10366.6	9485.65
988.9117	2623.4745	10342.8	9461.95
989.0364	2624.7493	10329.2	9449.05
989.161	2626.0234	10269.35	9389.65
989.2857	2627.2968	10226	9343.2
989.4102	2628.5695	10174.35	9293.7
989.5348	2629.8415	10138.4	9258.15
989.6593	2631.1128	10066.05	9183.3
989.7837	2632.3835	10048.6	9167.1
989.9082	2633.6535	9984.35	9103.75
990.0326	2634.9228	9979.9	9098.35
990.1569	2636.1914	9932.95	9052.95
990.2812	2637.4593	9906.95	9019.5
990.4055	2638.7265	9860.3	8979
990.5298	2639.9931	9818.95	8938.55
990.654	2641.259	9789.85	8909
990.7782	2642.5242	9784.5	8902.9
990.9023	2643.7887	9772.8	8891.85
991.0264	2645.0525	9741.35	8859.25
991.1505	2646.3156	9681.2	8798.6
991.2745	2647.5781	9653.2	8773.35
991.3985	2648.8398	9598.75	8718.85
991.5225	2650.1009	9613.15	8695.65
991.6464	2651.3613	9568.6	8686.9
991.7703	2652.6211	9521	8640.95
991.8942	2653.8801	9491.75	8610.45
992.018	2655.1385	9474.05	8588.95
992.1418	2656.3961	9460.25	8578.95
992.2655	2657.6531	9446	8564.2
992.3892	2658.9094	9409.7	8529.85
992.5129	2660.1651	9369.9	8489.35
992.6366	2661.42	9346.05	8463.9
992.7602	2662.6743	9321.5	8441.45
992.8837	2663.9279	9312.25	8432.45
993.0073	2665.1808	9268.35	8387.3
993.1307	2666.433	9243.55	8361.45
993.2542	2667.6846	9204.65	8324.45
993.3776	2668.9354	9198.25	8315.7
993.501	2670.1856	9166.95	8283.8
993.6244	2671.4351	9142.8	8261.15
993.7477	2672.6839	9100.35	8217.05
993.8709	2673.9321	9080.3	8199.65
993.9942	2675.1795	9048.9	8168.6
994.1174	2676.4263	9025.9	8144.45
994.2405	2677.6724	9002.7	8124.5
994.3637	2678.9179	8950.65	8069
994.4868	2680.1626	8936.4	8055.95
994.6098	2681.4067	8910.65	8030.1
994.7328	2682.6501	8908.1	8027.75
994.8558	2683.8928	8855.4	7974.75
994.9788	2685.1348	8826.65	7946.4
995.1017	2686.3761	8776.5	7894.4
995.2245	2687.6168	8747.8	7867
995.3474	2688.8568	8739.65	7857.55
995.4702	2690.0961	8709.45	7830.3
995.5929	2691.3348	8695.05	7814.05
995.7156	2692.5727	8679.8	7800.55
995.8383	2693.81	8655.45	7775.4
995.961	2695.0466	8599.5	7719.2
996.0836	2696.2826	8575.1	7693.55
996.2062	2697.5178	8551.5	7668.2
996.3287	2698.7524	8512.55	7632
996.4512	2699.9863	8514.2	7630.1
996.5737	2701.2195	8446.45	7565.8
996.6961	2702.452	8453.8	7570.95
996.8185	2703.6839	8414	7529.6
996.9408	2704.9151	8398.85	7519.4
997.0631	2706.1456	8347.4	7466.1
997.1854	2707.3755	8338.55	7458.85
997.3077	2708.6046	8296.65	7413.5
997.4299	2709.8331	8282.5	7401.6
997.552	2711.0609	8263.35	7381.05
997.6742	2712.2881	8248.4	7367.5
997.7963	2713.5145	8217.5	7335.6
997.9183	2714.7403	8197.45	7316.3
998.0403	2715.9654	8162.15	7281.95
998.1623	2717.1899	8144.5	7260.5
998.2842	2718.4136	8126.8	7246.75
998.4062	2719.6367	8082.2	7199.9
998.528	2720.8591	8088.35	7201.75
998.6498	2722.0809	8053.85	7172.05
998.7716	2723.3019	8010.95	7126.45
998.8934	2724.5223	7988.5	7106.6
999.0151	2725.7421	7975.85	7092.8
999.1368	2726.9611	7929.45	7046.8
999.2584	2728.1795	7925.35	7039.65
999.38	2729.3972	7882.25	7001.05
999.5016	2730.6142	7851.3	6964.05
999.6231	2731.8306	7790.35	6909.6
999.7446	2733.0462	7782.4	6897.7
999.8661	2734.2612	7713.05	6827.2
999.9875	2735.4756	7697.05	6814.55
1000.1089	2736.6892	7646.4	6765.2
1000.2302	2737.9022	7588.4	6707.95
1000.3515	2739.1145	7574.65	6692.55
1000.4728	2740.3262	7571.7	6683.95
1000.594	2741.5372	7524.6	6646.2
1000.7152	2742.7475	7468.45	6585.4
1000.8363	2743.9571	7451.95	6570.1
1000.9575	2745.1661	7414.95	6528.35
1001.0785	2746.3744	7400.3	6518.3
1001.1996	2747.582	7360.15	6478.6
1001.3206	2748.7889	7333.1	6449.65
1001.4415	2749.9952	7327.05	6447.15
1001.5625	2751.2008	7290.3	6410.1
1001.6833	2752.4057	7266.8	6385.05
1001.8042	2753.61	7236.1	6355.8
1001.925	2754.8136	7189.35	6304.9
1002.0458	2756.0165	7155.15	6273
1002.1665	2757.2188	7144.55	6264.05
1002.2872	2758.4204	7141.85	6260.45
1002.4078	2759.6213	7108.8	6224.25
1002.5285	2760.8215	7078.65	6194.35
1002.649	2762.0211	7058.5	6175.65
1002.7696	2763.22	7020.4	6135.55
1002.8901	2764.4182	7009	6126.95
1003.0106	2765.6158	6982.9	6102.5
1003.131	2766.8127	6935.7	6054.7
1003.2514	2768.009	6949.2	6068.85
1003.3717	2769.2045	6930.7	6047.3
1003.492	2770.3994	6923.05	6040.3
1003.6123	2771.5936	6881.4	5998.1
1003.7325	2772.7872	6845.75	5963.55
1003.8527	2773.9801	6819.6	5937.85
1003.9729	2775.1723	6798.25	5901.75
1004.093	2776.3639	6760.2	5879
1004.2131	2777.5548	6731.85	5847.55
1004.3331	2778.745	6728.15	5846.05
1004.4531	2779.9346	6713.1	5831.35
1004.5731	2781.1235	6717.8	5834.45
1004.693	2782.3117	6683	5802.5
1004.8129	2783.4992	6644.4	5763.85
1004.9328	2784.6861	6625.95	5744.7
1005.0526	2785.8723	6601.8	5717.75
1005.1723	2787.0579	6590.15	5710
1005.2921	2788.2428	6579.15	5696.25
1005.4118	2789.427	6549.75	5670.05
1005.5314	2790.6106	6538	5657.15
1005.651	2791.7935	6521.4	5638.9
1005.7706	2792.9757	6473.4	5594.35
1005.8902	2794.1573	6462.55	5579.35
1006.0097	2795.3382	6451.1	5571.4
1006.1291	2796.5184	6416.2	5539
1006.2485	2797.698	6419.45	5536.8
1006.3679	2798.8769	6428.5	5549.9
1006.4873	2800.0551	6411.05	5529.8
1006.6066	2801.2327	6366.2	5484.85
1006.7258	2802.4096	6353.95	5473.25
1006.8451	2803.5859	6344.45	5462.7
1006.9642	2804.7615	6353.55	5471.35
1007.0834	2805.9364	6335.9	5456.5
1007.2025	2807.1106	6337.65	5455.65
1007.3216	2808.2842	6331.55	5449.5
1007.4406	2809.4572	6308.95	5426.8
1007.5596	2810.6294	6330.1	5450.2
1007.6785	2811.801	6348.25	5469.1
1007.7975	2812.972	6355.75	5474.9
1007.9163	2814.1423	6385.45	5502.8
1008.0352	2815.3119	6381.25	5499.9
1008.154	2816.4808	6404.85	5525.85
1008.2727	2817.6491	6415.35	5534.1
1008.3914	2818.8167	6434.75	5556.1
1008.5101	2819.9837	6485.25	5600.1
1008.6288	2821.15	6492.9	5612.3
1008.7474	2822.3157	6518.35	5639.65
1008.8659	2823.4807	6531.65	5650.45
1008.9844	2824.645	6565.4	5685.65
1009.1029	2825.8086	6593.4	5713.85
1009.2214	2826.9716	6604.3	5723.5
1009.3398	2828.134	6656	5776.8
1009.4581	2829.2957	6689.1	5807.6
1009.5764	2830.4567	6674.35	5795.65
1009.6947	2831.617	6659.75	5778.7
1009.813	2832.7767	6673.35	5794.35
1009.9312	2833.9358	6667.3	5786.6
1010.0493	2835.0941	6645.8	5763.65
1010.1675	2836.2519	6626.15	5745.45
1010.2855	2837.4089	6587.75	5707.45
1010.4036	2838.5653	6563.8	5682.85
1010.5216	2839.7211	6546.1	5667.6
1010.6396	2840.8761	6530.8	5649.75
1010.7575	2842.0306	6512.4	5633.9
1010.8754	2843.1843	6529.75	5648.2
1010.9932	2844.3374	6563.95	5683.3
1011.111	2845.4899	6582	5699.4
1011.2288	2846.6417	6614.1	5734.25
1011.3465	2847.7928	6634.55	5757.1
1011.4642	2848.9433	6666.1	5786.6
1011.5818	2850.0931	6714.45	5834.45
1011.6995	2851.2422	6761.75	5879.05
1011.817	2852.3907	6784.2	5902.95
1011.9345	2853.5385	6816.7	5935.2
1012.052	2854.6857	6843.4	5950.95
1012.1695	2855.8323	6858.7	5980.3
1012.2869	2856.9781	6870.1	5988
1012.4042	2858.1233	6886.05	6004.05
1012.5216	2859.2679	6905.25	6025.15
1012.6389	2860.4118	6929.15	6048.9
1012.7561	2861.555	6956.2	6071.1
1012.8733	2862.6976	6957.1	6074.25
1012.9905	2863.8395	6974.5	6095.45
1013.1076	2864.9808	6985.25	6103.2
1013.2247	2866.1214	6956.9	6077.2
1013.3417	2867.2614	6965.75	6084.95
1013.4587	2868.4007	6957.7	6075.25
1013.5757	2869.5393	6930	6048.05
1013.6926	2870.6773	6927.15	6043.5
1013.8095	2871.8146	6936.4	6053.55
1013.9263	2872.9513	6915.4	6032.85
1014.0431	2874.0874	6890.3	6010.3
1014.1599	2875.2227	6857.9	5977.8
1014.2766	2876.3574	6832.8	5951.95
1014.3933	2877.4915	6788.45	5907.35
1014.51	2878.6249	6742.75	5861.5
1014.6266	2879.7577	6704.9	5824.1
1014.7431	2880.8898	6679.15	5787.8
1014.8596	2882.0212	6645.55	5766.2
1014.9761	2883.152	6623.45	5742.45
1015.0925	2884.2821	6594.4	5716.6
1015.2089	2885.4116	6552.9	5673.05
1015.3253	2886.5405	6544.8	5664.8
1015.4416	2887.6686	6547.25	5666.1
1015.5579	2888.7962	6534.05	5655.3
1015.6741	2889.923	6513.1	5634.8
1015.7903	2891.0493	6507.85	5627.4
1015.9065	2892.1748	6487.25	5604.9
1016.0226	2893.2997	6482.95	5603.45
1016.1387	2894.424	6488.5	5607.6
1016.2547	2895.5476	6458.85	5579.2
1016.3707	2896.6706	6468.1	5589.5
1016.4866	2897.7929	6461.8	5579.15
1016.6025	2898.9145	6477.15	5597.35
1016.7184	2900.0355	6465.75	5583.05
1016.8342	2901.1559	6475.05	5593.45
1016.95	2902.2756	6482.6	5602.2
1017.0658	2903.3946	6518.45	5636.4
1017.1815	2904.513	6514.2	5629.7
1017.2971	2905.6308	6507.15	5625.55
1017.4127	2906.7479	6492.4	5611.9
1017.5283	2907.8643	6511.05	5629.8
1017.6439	2908.9801	6488.5	5607.75
1017.7594	2910.0953	6494.95	5614.75
1017.8748	2911.2098	6475.85	5589.5
1017.9902	2912.3236	6444.55	5556.15
1018.1056	2913.4368	6418.05	5536.4
1018.2209	2914.5494	6406.65	5525.05
1018.3362	2915.6613	6372.35	5485.9
1018.4515	2916.7725	6335.5	5453.45
1018.5667	2917.8831	6286.4	5403.1
1018.6819	2918.9931	6257	5373.4
1018.797	2920.1024	6202.1	5319.55
1018.9121	2921.211	6195.3	5316.15
1019.0271	2922.319	6156.9	5276.55
1019.1421	2923.4264	6121.3	5240.6
1019.2571	2924.5331	6105.85	5226.75
1019.372	2925.6391	6096	5216.65
1019.4869	2926.7445	6080.6	5201.85
1019.6017	2927.8493	6069.6	5190.35
1019.7165	2928.9534	6036.15	5155.55
1019.8313	2930.0569	6036.65	5152.2
1019.946	2931.1597	6024.55	5144.7
1020.0606	2932.2619	6029.8	5148.5
1020.1753	2933.3634	6006.9	5125.4
1020.2899	2934.4643	6000.9	5112.5
1020.4044	2935.5645	5971.55	5084.25
1020.5189	2936.6641	5939.3	5055.7
1020.6334	2937.763	5895.85	5016.75
1020.7478	2938.8613	5858.4	4976.75
1020.8622	2939.959	5819.35	4933.15
1020.9765	2941.056	5744.35	4866.25
1021.0908	2942.1523	5679.35	4795.5
1021.2051	2943.248	5596.75	4715.35
1021.3193	2944.3431	5522.95	4642.8
1021.4334	2945.4375	5410.2	4531.1
1021.5476	2946.5313	5335.25	4454.6
1021.6617	2947.6244	5262.45	4381.5
1021.7757	2948.7169	5174.5	4291.9
1021.8897	2949.8087	5080.4	4200.55
1022.0037	2950.8999	4999.25	4120.15
1022.1176	2951.9904	4911.1	4030.95
1022.2315	2953.0803	4836.25	3955.85
1022.3453	2954.1696	4781.75	3899.4
1022.4591	2955.2582	4749.8	3869.4
1022.5728	2956.3462	4680.45	3798.1
1022.6865	2957.4335	4640.75	3760.75
1022.8002	2958.5202	4589.15	3707.85
1022.9138	2959.6062	4568.75	3686.65
1023.0274	2960.6916	4543.85	3662.15
1023.141	2961.7764	4491.65	3610.3
1023.2545	2962.8605	4494.9	3612.65
1023.3679	2963.9439	4471.6	3590
1023.4813	2965.0267	4436.9	3554.5
1023.5947	2966.1089	4444.2	3540.3
1023.708	2967.1905	4390.95	3512.2
1023.8213	2968.2714	4372.5	3492.65
1023.9346	2969.3516	4375.75	3496.2
1024.0478	2970.4312	4373.55	3485.8
1024.1609	2971.5102	4346.35	3465.6
1024.274	2972.5885	4342.45	3464.3
1024.3871	2973.6662	4326.05	3439.1
1024.5002	2974.7432	4298.5	3421.9
1024.6132	2975.8196	4295.05	3413.35
1024.7261	2976.8954	4278.5	3398.8
1024.839	2977.9705	4245.8	3366.7
1024.9519	2979.045	4245.55	3364.95
1025.0647	2980.1188	4215.6	3337
1025.1775	2981.192	4189.95	3309.4
1025.2902	2982.2645	4175.95	3296.15
1025.4029	2983.3364	4135.8	3253.4
1025.5156	2984.4077	4091.8	3210.15
1025.6282	2985.4783	4057.45	3170.85
1025.7407	2986.5483	4035.4	3154.6
1025.8532	2987.6177	3995.7	3117.35
1025.9657	2988.6864	3971.4	3091
1026.0782	2989.7545	3933.4	3050.05
1026.1906	2990.8219	3899.55	3022.35
1026.3029	2991.8887	3863.3	2980.75
1026.4152	2992.9548	3846.95	2966.75
1026.5275	2994.0204	3807.75	2928.25
1026.6397	2995.0852	3764.2	2884.65
1026.7519	2996.1495	3734.35	2853.6
1026.864	2997.2131	3696.1	2817.05
1026.9761	2998.276	3676.2	2796.55
1027.0882	2999.3383	3652.1	2769.3
1027.2002	3000.4	3637.35	2756.5
1027.3122	3001.4611	3611.4	2732.1
1027.4241	3002.5215	3578.3	2696.9
1027.536	3003.5812	3559.85	2680
1027.6478	3004.6404	3543.6	2663.7
1027.7596	3005.6989	3542	2659.05
1027.8714	3006.7567	3512.6	2633.2
1027.9831	3007.8139	3514.7	2606.15
1028.0947	3008.8705	3460.1	2578.65
1028.2064	3009.9264	3451.8	2567.4
1028.3179	3010.9818	3438.95	2558.3
1028.4295	3012.0364	3436.55	2555.55
1028.541	3013.0905	3415.8	2535.8
1028.6524	3014.1439	3407.05	2527.55
1028.7638	3015.1966	3388.7	2508.5
1028.8752	3016.2487	3386.1	2505.2
1028.9865	3017.3002	3380.6	2495.4
1029.0978	3018.3511	3364.15	2484.75
1029.209	3019.4013	3341.5	2460.15
1029.3202	3020.4509	3345.75	2466.7
1029.4314	3021.4998	3334.65	2454.5
1029.5425	3022.5481	3321.35	2443
1029.6535	3023.5958	3313.05	2434.8
1029.7645	3024.6428	3309.1	2428.1
1029.8755	3025.6892	3284.95	2407.75
1029.9864	3026.735	3287.85	2407.85
1030.0973	3027.7802	3275.5	2392.35
1030.2082	3028.8247	3252.8	2372.6
1030.319	3029.8685	3236.1	2354.95
1030.4297	3030.9118	3254.2	2372.4
1030.5404	3031.9544	3237.75	2359.2
1030.6511	3032.9963	3224.05	2344.1
1030.7617	3034.0376	3221.1	2340.05
1030.8723	3035.0783	3216.7	2332.5
1030.9829	3036.1184	3215.15	2335.2
1031.0934	3037.1578	3199.4	2321.95
1031.2038	3038.1966	3189.75	2307.6
1031.3142	3039.2348	3186.85	2307.7
1031.4246	3040.2723	3173.1	2283.1
1031.5349	3041.3092	3163.35	2284.05
1031.6452	3042.3455	3156.35	2274.25
1031.7554	3043.3811	3142.8	2263
1031.8656	3044.4161	3140.95	2258.9
1031.9758	3045.4505	3114.9	2237.3
1032.0859	3046.4842	3113.2	2230.85
1032.1959	3047.5173	3097.05	2217.85
1032.3059	3048.5498	3087.7	2207.1
1032.4159	3049.5816	3074.15	2195
1032.5258	3050.6128	3077.15	2195.9
1032.6357	3051.6434	3063.65	2180.85
1032.7455	3052.6734	3054.1	2172.55
1032.8553	3053.7027	3038.5	2157.65
1032.9651	3054.7314	3025	2145.65
1033.0748	3055.7594	3012.2	2134.2
1033.1845	3056.7868	3017.7	2136.65
1033.2941	3057.8136	3001.6	2121.45
1033.4037	3058.8398	2983.8	2105.6
1033.5132	3059.8653	2980.95	2100.4
1033.6227	3060.8902	2959.9	2080.75
1033.7321	3061.9145	2954.75	2074.75
1033.8415	3062.9381	2946.35	2064.9
1033.9509	3063.9612	2956.25	2059.2
1034.0602	3064.9835	2915.6	2035.7
1034.1694	3066.0053	2918.4	2036.1
1034.2787	3067.0264	2900.55	2021.6
1034.3878	3068.0469	2891.45	2011.6
1034.497	3069.0668	2893.2	2009.85
1034.6061	3070.086	2879.75	2001.85
1034.7151	3071.1046	2866.2	1987.5
1034.8241	3072.1226	2846.2	1965.9
1034.9331	3073.1399	2840.1	1960.35
1035.042	3074.1567	2826.6	1945.1
1035.1508	3075.1727	2812.05	1929.3
1035.2597	3076.1882	2801.95	1921.8
1035.3684	3077.203	2771.65	1892
1035.4772	3078.2173	2761.45	1880.15
1035.5859	3079.2308	2766.9	1882.85
1035.6945	3080.2438	2757.95	1876.1
1035.8031	3081.2561	2732.45	1851.4
1035.9117	3082.2678	2723.3	1843.25
1036.0202	3083.2789	2712.7	1831.8
1036.1286	3084.2893	2706.5	1828.2
1036.2371	3085.2991	2692.05	1813.1
1036.3454	3086.3083	2690.3	1805.6
1036.4538	3087.3169	2678.5	1797.45
1036.562	3088.3248	2670.65	1789.75
1036.6703	3089.3321	2651.15	1768.25
1036.7785	3090.3388	2639	1760.25
1036.8866	3091.3449	2623.5	1742.45
1036.9948	3092.3503	2623	1741.05
1037.1028	3093.3551	2602.35	1724.35
1037.2108	3094.3593	2612.3	1733.45
1037.3188	3095.3629	2592.4	1714.1
1037.4267	3096.3658	2591.55	1710.8
1037.5346	3097.3681	2567.1	1687.65
1037.6425	3098.3698	2566.9	1686.05
1037.7503	3099.3708	2574.5	1686.5
1037.858	3100.3713	2539.7	1660
1037.9657	3101.3711	2531.05	1649.4
1038.0734	3102.3702	2631.7	1618.7
1038.181	3103.3688	2526.45	1642.95
1038.2886	3104.3667	2497.4	1618.35
1038.3961	3105.364	2491.45	1612.5
1038.5036	3106.3607	2484.75	1604.25
1038.611	3107.3568	2467.55	1586.15
1038.7184	3108.3522	2464.15	1585.1
1038.8257	3109.347	2448.75	1568.1
1038.933	3110.3412	2441.65	1556.45
1039.0403	3111.3348	2433.35	1555.1
1039.1475	3112.3277	2415.4	1535.3
1039.2547	3113.32	2415.2	1535.7
1039.3618	3114.3117	2400.35	1519.8
1039.4689	3115.3028	2402.05	1522.45
1039.5759	3116.2932	2390.5	1507.8
1039.6829	3117.2831	2372	1485.35
1039.7898	3118.2723	2371.3	1493.25
1039.8967	3119.2608	2360.4	1480.1
1040.0035	3120.2488	2357.65	1476.5
1040.1103	3121.2361	2340.7	1459.65
1040.2171	3122.2229	2335.65	1454.45
1040.3238	3123.209	2342.15	1463.45
1040.4305	3124.1944	2322.95	1444.75
1040.5371	3125.1793	2324.35	1443.65
1040.6437	3126.1635	2299.1	1420.25
1040.7502	3127.1471	2293.8	1412.55
1040.8567	3128.1301	2279.25	1397.15
1040.9631	3129.1125	2281.75	1402.35
1041.0695	3130.0942	2278.9	1399.1
1041.1759	3131.0753	2284.45	1395.7
1041.2822	3132.0558	2275.8	1393.6
1041.3884	3133.0357	2258.45	1378.05
1041.4946	3134.015	2245.25	1362.6
1041.6008	3134.9936	2251.4	1367.7
1041.7069	3135.9716	2263.75	1364.55
1041.813	3136.949	2238.2	1359.2
1041.919	3137.9258	2239.7	1355.5
1042.025	3138.902	2227.6	1343
1042.1309	3139.8775	2219	1338.95
1042.2368	3140.8524	2213.4	1334.85
1042.3427	3141.8267	2199.65	1316.45
1042.4485	3142.8004	2193.35	1312.35
1042.5542	3143.7735	2190.25	1302.75
1042.6599	3144.7459	2187.55	1304.9
1042.7656	3145.7178	2183.6	1301.65
1042.8712	3146.689	2178.95	1299.05
1042.9768	3147.6596	2174.1	1291.7
1043.0823	3148.6295	2159.8	1280.85
1043.1878	3149.5989	2159.35	1279.25
1043.2932	3150.5676	2135.45	1256.4
1043.3986	3151.5357	2139.25	1258.95
1043.5039	3152.5032	2141.55	1263.8
1043.6092	3153.4701	2117.65	1236.8
1043.7145	3154.4364	2123.9	1241.35
1043.8197	3155.402	2111.85	1234.45
1043.9248	3156.367	2111.05	1228.05
1044.03	3157.3315	2135.55	1219.2
1044.135	3158.2952	2098.4	1218.3
1044.24	3159.2584	2086.9	1205.4
1044.345	3160.221	2075.25	1194.4
1044.4499	3161.1829	2063.95	1183.95
1044.5548	3162.1442	2067.75	1188.2
1044.6596	3163.105	2057.95	1177.6
1044.7644	3164.065	2058.6	1176.45
1044.8692	3165.0245	2056.65	1173.05
1044.9739	3165.9834	2039.75	1159.8
1045.0785	3166.9416	2038.6	1160.1
1045.1831	3167.8993	2028.5	1148.3
1045.2877	3168.8563	2012.15	1130.55
1045.3922	3169.8127	2008.7	1128.9
1045.4966	3170.7684	1998.95	1118.9
1045.6011	3171.7236	1994.25	1112.75
1045.7054	3172.6782	1996.85	1116.4
1045.8098	3173.6321	1982.2	1101.2
1045.914	3174.5854	1989	1105.35
1046.0183	3175.5381	1973.3	1092.55
1046.1224	3176.4902	1980.8	1101.55
1046.2266	3177.4417	1964	1084.4
1046.3307	3178.3926	1960.95	1079.9
1046.4347	3179.3428	1958.15	1077.4
1046.5387	3180.2924	1930.25	1050.3
1046.6427	3181.2415	1942.35	1061.2
1046.7466	3182.1899	1941.3	1059.45
1046.8504	3183.1377	1930.75	1051.45
1046.9542	3184.0848	1924.85	1041.85
1047.058	3185.0314	1909.75	1027.8
1047.1617	3185.9773	1896.5	1016.3
1047.2654	3186.9227	1898.9	1017.6
1047.369	3187.8674	1902.1	1021.9
1047.4726	3188.8115	1892.45	1009.7
1047.5761	3189.755	1888.35	1010.05
1047.6796	3190.6979	1877.45	997.3
1047.783	3191.6402	1879.3	999.55
1047.8864	3192.5818	1870.95	989.7
1047.9898	3193.5229	1888.45	989.7
1048.0931	3194.4633	1867.2	988
1048.1963	3195.4031	1855.65	974.45
1048.2995	3196.3423	1851.55	971.95
1048.4027	3197.2809	1844.65	962.5
1048.5058	3198.2189	1840.2	959.5
1048.6089	3199.1563	1858.4	959.8
1048.7119	3200.0931	1825.4	947.85
1048.8148	3201.0292	1822.7	943.55
1048.9178	3201.9648	1821.45	942.35
1049.0206	3202.8997	1822	939.35
1049.1235	3203.834	1806.1	926
1049.2262	3204.7677	1808	928.75
1049.329	3205.7008	1798.3	917.45
1049.4317	3206.6333	1794.85	914.05
1049.5343	3207.5652	1795.7	915.3
1049.6369	3208.4964	1791.25	910.7
1049.7394	3209.4271	1781.7	901.1
1049.8419	3210.3571	1773.95	896.05
1049.9444	3211.2865	1774.15	893.6
1050.0468	3212.2154	1775.35	894.4
1050.1491	3213.1436	1769.95	885.95
1050.2514	3214.0712	1766.95	878.55
1050.3537	3214.9982	1767.1	889.2
1050.4559	3215.9246	1759.55	879.85
1050.5581	3216.8503	1748.85	871.4
1050.6602	3217.7755	1755.2	872.6
1050.7623	3218.7001	1746.8	868.2
1050.8643	3219.624	1747.55	865.95
1050.9663	3220.5473	1731.6	852.05
1051.0682	3221.4701	1733.35	851.85
1051.1701	3222.3922	1722.4	841.1
1051.2719	3223.3137	1721.4	840.2
1051.3737	3224.2346	1716.25	835.15
1051.4754	3225.1549	1711.8	830.65
1051.5771	3226.0746	1701.65	822.05
1051.6788	3226.9937	1705.3	825.75
1051.7804	3227.9121	1688.05	807.15
1051.8819	3228.83	1691.35	812.6
1051.9834	3229.7473	1684.5	803
1052.0849	3230.6639	1689.15	807.2
1052.1863	3231.5799	1680.15	800.5
1052.2876	3232.4954	1669.9	787.35
1052.3889	3233.4102	1660.1	779.55
1052.4902	3234.3244	1662.9	783.35
1052.5914	3235.238	1657.55	777.05
1052.6926	3236.151	1678.45	775.2
1052.7937	3237.0634	1647.6	768.9
1052.8948	3237.9752	1643.4	763
1052.9958	3238.8864	1639.3	759.2
1053.0968	3239.797	1634.45	755.75
1053.1977	3240.7069	1624.4	744.6
1053.2986	3241.6163	1625.25	744.85
1053.3994	3242.5251	1631.95	751.8
1053.5002	3243.4332	1620.9	740.2
1053.6009	3244.3408	1616	735.35
1053.7016	3245.2477	1605.85	727.1
1053.8022	3246.154	1607.45	726.55
1053.9028	3247.0598	1600	719.75
1054.0034	3247.9649	1591.85	711.25
1054.1039	3248.8694	1590.05	709.3
1054.2043	3249.7733	1590.25	711.8
1054.3047	3250.6766	1575.9	694.6
1054.4051	3251.5793	1569.75	688.45
1054.5054	3252.4814	1570.85	691.3
1054.6056	3253.3829	1567.65	687.1
1054.7058	3254.2838	1562.5	682.3
1054.806	3255.1841	1545.05	665.9
1054.9061	3256.0838	1562.75	681.95
1055.0061	3256.9829	1551.7	673.3
1055.1062	3257.8814	1547	665.1
1055.2061	3258.7792	1537.1	655.45
1055.306	3259.6765	1535.1	655.7
1055.4059	3260.5731	1528.1	648.8
1055.5057	3261.4692	1518	636.05
1055.6055	3262.3647	1499.85	619.6
1055.7052	3263.2595	1503.95	623.55
1055.8049	3264.1538	1487.5	607.25
1055.9045	3265.0474	1484.85	603.9
1056.0041	3265.9404	1469.9	589.95
1056.1036	3266.8329	1459.8	579.95
1056.2031	3267.7247	1460.75	569.15
1056.3025	3268.616	1438.25	560.7
1056.4019	3269.5066	1424.7	543.2
1056.5013	3270.3966	1413.75	531.7
1056.6005	3271.286	1399.9	519.5
