Software Version:	3.9.2.0
Unit SN:	10000200
Spectrometer SN:	6960
Date:	3/6/2024 10:25:12 AM
Data Line Index:	25
Spectral Points:	2048
Integration time (ms):	125
Averages:	20
Delay (ms):	30
Sequence Number:	1
Processing:	dark subtract
Laser Power (mW):	305
Laser Current (mA):	825
Laser Diode Temp (C):	25.1
Laser Case Temp (C):	25.8
System Temp (C):	25.6
Spectrometer Temp (C):	23
CCD Temp (C):	-0.002
Secondary Temp (C):	20.004
Heatsink Temp (C):	21.12
CCDPCB Temp (C):	34.817
SecondaryPCB Temp (C):	28.593

Wavelength	RamanShift	Raw Counts	Dark Subtracted
787.061	30.1047	1073.55	660.85
787.2016	32.3739	1111.1	701.5
787.3422	34.6426	1140.2	727.65
787.4828	36.9109	1188.35	774.3
787.6235	39.1787	1239.95	823.75
787.7642	41.4461	1297.1	874.95
787.9049	43.7131	1355	930.85
788.0456	45.9796	1406.95	980.95
788.1863	48.2456	1470.1	1037.4
788.3271	50.5112	1539.7	1103.5
788.4679	52.7764	1605.05	1165.9
788.6087	55.0411	1667.2	1225.1
788.7496	57.3054	1751	1303.55
788.8904	59.5692	1826.4	1377.05
789.0313	61.8326	1921.15	1469.5
789.1722	64.0955	2008.8	1553.5
789.3132	66.3579	2135.95	1677.15
789.4541	68.6199	2281.2	1819.75
789.5951	70.8815	2529.15	2065.9
789.7361	73.1426	3022.1	2551.75
789.8771	75.4032	4295.1	3819.6
790.0181	77.6634	7619.6	7138.55
790.1592	79.9231	16256.9	15771.6
790.3003	82.1824	51435.4	50936.65
790.4414	84.4412	65535	65017.95
790.5825	86.6995	65535	64988.8
790.7237	88.9574	65535	64961.65
790.8648	91.2148	65535	64947.35
791.006	93.4717	65535	64934.3
791.1472	95.7282	65535	64927.2
791.2885	97.9842	65535	64924.05
791.4297	100.2398	65535	64919.05
791.571	102.4949	65535	64917.9
791.7123	104.7495	65535	64918.25
791.8536	107.0036	65535	64914.2
791.9949	109.2573	65535	64915.5
792.1363	111.5105	65535	64913.15
792.2777	113.7632	65535	64913.5
792.4191	116.0154	65535	64903.05
792.5605	118.2672	65535	64907.05
792.7019	120.5185	65535	64909.5
792.8434	122.7693	65535	64906.55
792.9849	125.0197	65535	64902.8
793.1264	127.2696	65535	64896.45
793.2679	129.519	65535	64890
793.4094	131.7679	65535	64887.85
793.551	134.0163	65535	64888.05
793.6926	136.2642	65535	64885.2
793.8342	138.5117	65535	64872.85
793.9758	140.7587	65535	64879.65
794.1175	143.0052	65535	64877.05
794.2591	145.2512	65535	64877.25
794.4008	147.4967	65535	64873.25
794.5425	149.7417	65535	64872.45
794.6842	151.9863	65535	64869.2
794.826	154.2304	65535	64862.55
794.9677	156.4739	65535	64860.7
795.1095	158.717	65535	64858.05
795.2513	160.9596	65535	64859.85
795.3931	163.2017	65535	64855.1
795.535	165.4433	65535	64850.6
795.6768	167.6844	65535	64853.05
795.8187	169.925	65535	64847.9
795.9606	172.1651	65535	64845.8
796.1025	174.4047	65535	64841.05
796.2445	176.6439	65535	64839.4
796.3864	178.8825	65535	64832.5
796.5284	181.1206	65535	64832.4
796.6704	183.3582	65535	64831.5
796.8124	185.5954	65535	64828.7
796.9544	187.832	65535	64821.65
797.0965	190.0681	65535	64823.55
797.2386	192.3037	65535	64818.85
797.3806	194.5388	65535	64814.2
797.5228	196.7734	65535	64815
797.6649	199.0075	65535	64816
797.807	201.2411	65535	64810.15
797.9492	203.4742	65535	64807.5
798.0914	205.7068	65535	64803.3
798.2336	207.9389	65535	64802.9
798.3758	210.1704	65535	64803.1
798.518	212.4015	65535	64809.25
798.6603	214.632	65535	64818.95
798.8025	216.862	65535	64826.15
798.9448	219.0915	65535	64827.05
799.0871	221.3205	65535	64822.65
799.2294	223.549	65535	64822.55
799.3718	225.777	65535	64825.6
799.5141	228.0044	65535	64816
799.6565	230.2314	65535	64820.2
799.7989	232.4578	65535	64814.9
799.9413	234.6837	65535	64806.15
800.0837	236.909	65535	64809.3
800.2262	239.1339	65535	64783.5
800.3687	241.3582	65535	64795.35
800.5111	243.582	65535	64763.95
800.6536	245.8053	65535	64777.2
800.7961	248.0281	65535	64782
800.9387	250.2503	65535	64778.45
801.0812	252.472	65535	64775.35
801.2238	254.6932	65535	64776.25
801.3664	256.9139	65535	64773.45
801.509	259.134	65535	64768.95
801.6516	261.3536	65535	64769.05
801.7942	263.5727	65535	64770.3
801.9369	265.7912	65535	64771.55
802.0795	268.0092	65535	64767.4
802.2222	270.2267	65535	64769.3
802.3649	272.4436	65535	64769.05
802.5076	274.6601	65535	64757.8
802.6504	276.8759	65535	64763.05
802.7931	279.0913	65535	64761.85
802.9359	281.3061	65535	64763.05
803.0787	283.5204	65535	64756.2
803.2215	285.7341	65535	64752.6
803.3643	287.9473	65535	64740.65
803.5071	290.16	65535	64751.1
803.6499	292.3721	65535	64757.2
803.7928	294.5837	65535	64760.4
803.9357	296.7947	65535	64756.8
804.0786	299.0052	65535	64758.2
804.2215	301.2152	65535	64752.5
804.3644	303.4246	65535	64755.05
804.5074	305.6334	65535	64752.55
804.6503	307.8418	65535	64748.45
804.7933	310.0495	65535	64752.3
804.9363	312.2568	65535	64748.1
805.0793	314.4635	65535	64751.7
805.2223	316.6696	65535	64747.7
805.3653	318.8752	65535	64732
805.5084	321.0802	65535	64745
805.6514	323.2847	65535	64742.85
805.7945	325.4887	65535	64744.75
805.9376	327.692	65535	64745.15
806.0807	329.8949	65535	64738.7
806.2238	332.0972	65535	64740.2
806.367	334.2989	65535	64734.1
806.5101	336.5001	65535	64733
806.6533	338.7007	65535	64736
806.7965	340.9008	65535	64734.2
806.9397	343.1003	65535	64730.9
807.0829	345.2992	65535	64733.4
807.2261	347.4976	65535	64730.85
807.3693	349.6955	65535	64724.15
807.5126	351.8927	65535	64724.55
807.6559	354.0895	65535	64714.3
807.7991	356.2856	65535	64721.35
807.9424	358.4812	65535	64724.3
808.0857	360.6763	65535	64724
808.2291	362.8707	65535	64719.4
808.3724	365.0646	65535	64717.1
808.5158	367.258	65535	64713.35
808.6591	369.4508	65535	64711.05
808.8025	371.643	65535	64712.25
808.9459	373.8346	65535	64711.75
809.0893	376.0257	65535	64706.05
809.2327	378.2162	65535	64706.5
809.3762	380.4062	65535	64709.05
809.5196	382.5956	65535	64706.2
809.6631	384.7844	65535	64708.2
809.8066	386.9726	65535	64710.65
809.9501	389.1603	65535	64713.9
810.0936	391.3474	65535	64678.5
810.2371	393.5339	65535	64715.3
810.3806	395.7199	65535	64719.9
810.5241	397.9052	65535	64718.15
810.6677	400.09	65535	64716.3
810.8113	402.2743	65535	64716.3
810.9548	404.4579	65535	64715.6
811.0984	406.641	65535	64713.65
811.2421	408.8235	65535	64711.6
811.3857	411.0054	65535	64714.2
811.5293	413.1868	65535	64707.7
811.673	415.3675	65535	64703.9
811.8166	417.5477	65535	64701.2
811.9603	419.7273	65535	64701.2
812.104	421.9064	65535	64694.55
812.2477	424.0848	65535	64697.05
812.3914	426.2627	65535	64694.35
812.5351	428.4399	65535	64697.35
812.6788	430.6166	65535	64694.1
812.8226	432.7928	65535	64694.25
812.9663	434.9683	65535	64693.6
813.1101	437.1432	65535	64687.25
813.2539	439.3176	65535	64694.15
813.3977	441.4914	65535	64693.15
813.5415	443.6645	65535	64689.6
813.6853	445.8371	65535	64689.95
813.8291	448.0091	65535	64694.25
813.973	450.1806	65535	64691.65
814.1168	452.3514	65535	64689.1
814.2607	454.5216	65535	64679.95
814.4046	456.6913	65535	64687.1
814.5485	458.8603	65535	64688.75
814.6924	461.0288	65535	64687.8
814.8363	463.1967	65535	64688.05
814.9802	465.3639	65535	64687.35
815.1241	467.5306	65535	64686.15
815.2681	469.6967	65535	64686.25
815.412	471.8622	65535	64686.7
815.556	474.0271	65535	64686.3
815.7	476.1914	65535	64686.25
815.844	478.3551	65535	64684.15
815.988	480.5182	65535	64687.5
816.132	482.6807	65535	64685.15
816.276	484.8426	65535	64687.85
816.4201	487.0039	65535	64685.75
816.5641	489.1647	65535	64681.95
816.7082	491.3248	65535	64681.05
816.8522	493.4843	65535	64681.8
816.9963	495.6432	65535	64683.65
817.1404	497.8015	65535	64679.7
817.2845	499.9592	65535	64677.6
817.4286	502.1163	65535	64679.5
817.5727	504.2728	65535	64675.45
817.7168	506.4287	65535	64678.6
817.861	508.5839	65535	64677.8
818.0051	510.7386	65535	64677.7
818.1493	512.8927	65535	64673.35
818.2935	515.0461	65535	64677.6
818.4377	517.199	65535	64674.05
818.5818	519.3512	65535	64674.7
818.726	521.5029	65535	64668.65
818.8703	523.6539	65535	64675.3
819.0145	525.8043	65535	64672.8
819.1587	527.9541	65535	64665.9
819.303	530.1033	65535	64670.95
819.4472	532.2519	65535	64673.65
819.5915	534.3999	65535	64669.8
819.7357	536.5472	65535	64669
819.88	538.694	65535	64672.1
820.0243	540.8401	65535	64666.9
820.1686	542.9856	65535	64667.05
820.3129	545.1305	65535	64665.55
820.4572	547.2748	65535	64668.05
820.6016	549.4185	65535	64666.25
820.7459	551.5615	65535	64666.55
820.8902	553.704	65535	64668.15
821.0346	555.8458	65535	64669.05
821.1789	557.987	65535	64664.15
821.3233	560.1276	65535	64666.85
821.4677	562.2675	65535	64669.55
821.6121	564.4069	65535	64664.2
821.7565	566.5456	65535	64668.25
821.9009	568.6837	65535	64665.9
822.0453	570.8212	65535	64667.8
822.1897	572.958	65535	64662.1
822.3342	575.0942	65535	64669.55
822.4786	577.2299	65535	64665.5
822.6231	579.3648	65535	64665.8
822.7675	581.4992	65535	64668.25
822.912	583.6329	65535	64666.55
823.0565	585.766	65535	64664.1
823.201	587.8985	65535	64664.65
823.3454	590.0304	65535	64642.2
823.4899	592.1616	65535	64661.75
823.6345	594.2922	65535	64663.85
823.779	596.4222	65535	64658
823.9235	598.5515	65535	64661.05
824.068	600.6802	65535	64661.9
824.2126	602.8083	65535	64660.35
824.3571	604.9358	65535	64660.35
824.5017	607.0626	65535	64661.3
824.6462	609.1888	65535	64655.75
824.7908	611.3144	65535	64659.45
824.9354	613.4393	65535	64659.3
825.08	615.5636	65535	64660.45
825.2246	617.6873	65535	64660.6
825.3692	619.8103	65535	64654.4
825.5138	621.9327	65535	64658.8
825.6584	624.0544	65535	64659
825.803	626.1756	65535	64659.45
825.9477	628.2961	65535	64652.95
826.0923	630.4159	65535	64658.55
826.237	632.5351	65535	64657.65
826.3816	634.6537	65535	64658.75
826.5263	636.7716	65535	64654.45
826.6709	638.8889	65535	64653.7
826.8156	641.0056	65535	64653.5
826.9603	643.1216	65535	64655.7
827.105	645.237	65535	64653.5
827.2497	647.3518	65535	64654.05
827.3944	649.4659	65535	64656.05
827.5391	651.5793	65535	64652.65
827.6838	653.6922	65535	64655.05
827.8285	655.8043	65535	64652.9
827.9733	657.9159	65535	64652.7
828.118	660.0268	65535	64651.75
828.2627	662.137	65535	64650.6
828.4075	664.2466	65535	64651.3
828.5522	666.3556	65535	64652.15
828.697	668.4639	65535	64646.65
828.8418	670.5716	65535	64652.95
828.9865	672.6786	65535	64650.05
829.1313	674.785	65535	64648.1
829.2761	676.8907	65535	64650.15
829.4209	678.9958	65535	64654.6
829.5657	681.1002	65535	64648.5
829.7105	683.204	65535	64644.6
829.8553	685.3072	65535	64650.1
830.0001	687.4097	65535	64649.95
830.1449	689.5115	65535	64650.15
830.2898	691.6127	65535	64649.45
830.4346	693.7132	65535	64648.2
830.5794	695.8131	65535	64640.2
830.7243	697.9123	65535	64647.15
830.8691	700.0109	65535	64647
831.014	702.1089	65535	64649.5
831.1588	704.2061	65535	64646.1
831.3037	706.3028	65535	64645.25
831.4486	708.3987	65535	64643.65
831.5935	710.4941	65535	64648.85
831.7383	712.5887	65535	64644.75
831.8832	714.6827	65535	64640.15
832.0281	716.7761	65535	64646.8
832.173	718.8688	65535	64645.9
832.3179	720.9608	65535	64640.8
832.4628	723.0522	65535	64642.75
832.6077	725.1429	65535	64642.85
832.7527	727.233	65535	64643.05
832.8976	729.3224	65535	64644.15
833.0425	731.4112	65535	64643.25
833.1874	733.4993	65535	64640.3
833.3324	735.5867	65535	64642.85
833.4773	737.6735	65535	64639.9
833.6222	739.7596	65535	64641.5
833.7672	741.845	65535	64642.05
833.9122	743.9298	65535	64640.3
834.0571	746.014	65535	64643.5
834.2021	748.0974	65535	64639.55
834.347	750.1802	65535	64643
834.492	752.2624	65535	64641
834.637	754.3439	65535	64638.05
834.782	756.4247	65535	64631.65
834.9269	758.5048	65535	64640.6
835.0719	760.5843	65535	64640.35
835.2169	762.6631	65535	64639.6
835.3619	764.7413	65535	64640.45
835.5069	766.8188	65535	64639.95
835.6519	768.8956	65535	64640
835.7969	770.9718	65535	64641.8
835.9419	773.0473	65535	64643.2
836.0869	775.1221	65535	64642.2
836.232	777.1962	65535	64640.9
836.377	779.2697	65535	64638.75
836.522	781.3426	65535	64621.85
836.667	783.4147	65535	64639.3
836.8121	785.4862	65535	64638.7
836.9571	787.557	65535	64641.6
837.1021	789.6271	65535	64635.55
837.2472	791.6966	65535	64637.05
837.3922	793.7654	65535	64641.5
837.5373	795.8335	65535	64637.55
837.6823	797.901	65535	64637.6
837.8274	799.9678	65535	64636.8
837.9724	802.0339	65535	64642.85
838.1175	804.0993	65535	64628.65
838.2626	806.1641	65535	64638.8
838.4076	808.2282	65535	64640.75
838.5527	810.2916	65535	64635.1
838.6978	812.3544	65535	64640.05
838.8428	814.4164	65535	64636.9
838.9879	816.4778	65535	64640.4
839.133	818.5385	65535	64640.75
839.2781	820.5986	65535	64637.45
839.4232	822.658	65535	64638.35
839.5682	824.7166	65535	64636.75
839.7133	826.7747	65535	64636.25
839.8584	828.832	65535	64639.3
840.0035	830.8886	65535	64638
840.1486	832.9446	65535	64635.45
840.2937	834.9999	65535	64640.55
840.4388	837.0545	65535	64634.85
840.5839	839.1085	65535	64637.95
840.729	841.1618	65535	64632.8
840.8741	843.2143	65535	64638.1
841.0192	845.2662	65535	64635.15
841.1643	847.3175	65535	64637.95
841.3095	849.368	65535	64637.2
841.4546	851.4179	65535	64635.65
841.5997	853.467	65535	64636.85
841.7448	855.5155	65535	64635.9
841.8899	857.5633	65535	64636.45
842.0351	859.6105	65535	64635
842.1802	861.6569	65535	64636.15
842.3253	863.7027	65535	64635.8
842.4704	865.7478	65535	64636.9
842.6156	867.7922	65535	64634.6
842.7607	869.8359	65535	64636.8
842.9058	871.8789	65535	64633.35
843.0509	873.9212	65535	64603.85
843.1961	875.9629	65535	64637.4
843.3412	878.0039	65535	64632.95
843.4863	880.0441	65535	64636.55
843.6315	882.0837	65535	64636.7
843.7766	884.1226	65535	64634.3
843.9218	886.1609	65535	64634.85
844.0669	888.1984	65535	64636.5
844.212	890.2352	65535	64639.65
844.3572	892.2714	65535	64631.4
844.5023	894.3069	65535	64631.7
844.6475	896.3416	65535	64633.65
844.7926	898.3757	65535	64633.85
844.9377	900.4091	65535	64634.9
845.0829	902.4418	65535	64626.6
845.228	904.4739	65535	64630.65
845.3732	906.5052	65535	64636.45
845.5183	908.5358	65535	64635.5
845.6635	910.5658	65535	64631.45
845.8086	912.595	65535	64634.7
845.9538	914.6236	65535	64633.1
846.0989	916.6515	65535	64635.15
846.2441	918.6786	65535	64632.9
846.3892	920.7051	65535	64632.8
846.5344	922.7309	65535	64633.7
846.6795	924.756	65535	64630.65
846.8246	926.7804	65535	64632.45
846.9698	928.8041	65535	64626.15
847.1149	930.8272	65535	64633.75
847.2601	932.8495	65535	64632.7
847.4052	934.8711	65535	64631.55
847.5504	936.892	65535	64633
847.6955	938.9123	65535	64631.2
847.8407	940.9318	65535	64633.75
847.9858	942.9506	65535	64633.15
848.131	944.9688	65535	64633.6
848.2761	946.9862	65535	64633.3
848.4213	949.003	65535	64632.4
848.5664	951.019	65535	64632.9
848.7115	953.0344	65535	64635.55
848.8567	955.0491	65535	64632.85
849.0018	957.063	65535	64634.35
849.147	959.0763	65535	64632.45
849.2921	961.0888	65535	64631.05
849.4373	963.1007	65535	64633.4
849.5824	965.1119	65535	64634.25
849.7275	967.1223	65535	64635.7
849.8727	969.1321	65535	64635.3
850.0178	971.1412	65535	64635.55
850.1629	973.1495	65535	64633.3
850.3081	975.1572	65535	64600.15
850.4532	977.1641	65535	64633.2
850.5983	979.1704	65535	64634.85
850.7435	981.1759	65535	64629.15
850.8886	983.1808	65535	64631
851.0337	985.1849	65535	64622.5
851.1788	987.1884	65535	64629.75
851.324	989.1911	65535	64629.55
851.4691	991.1932	65535	64632.8
851.6142	993.1945	65535	64635.85
851.7593	995.1951	65535	64632.45
851.9045	997.1951	65535	64631.1
852.0496	999.1943	65535	64634.3
852.1947	1001.1928	65535	64630.2
852.3398	1003.1906	65535	64634.05
852.4849	1005.1877	65535	64628.4
852.63	1007.1841	65535	64634.25
852.7751	1009.1798	65535	64633.3
852.9202	1011.1748	65535	64635.15
853.0653	1013.1691	65535	64631.75
853.2104	1015.1627	65535	64630.65
853.3555	1017.1556	65535	64633.2
853.5006	1019.1477	65535	64633
853.6457	1021.1392	65535	64633.7
853.7908	1023.1299	65535	64634.9
853.9359	1025.12	65535	64631.35
854.081	1027.1093	65535	64638.35
854.2261	1029.0979	65535	64640.4
854.3712	1031.0859	65535	64636.05
854.5163	1033.0731	65535	64630.25
854.6613	1035.0596	65535	64635.85
854.8064	1037.0454	65535	64632.45
854.9515	1039.0304	65535	64631.5
855.0965	1041.0148	65535	64634.1
855.2416	1042.9985	65535	64634.2
855.3867	1044.9814	65535	64631.95
855.5317	1046.9636	65535	64630.2
855.6768	1048.9452	65535	64633.05
855.8219	1050.926	65535	64634.65
855.9669	1052.9061	65535	64636.3
856.112	1054.8855	65535	64633.35
856.257	1056.8642	65535	64631.8
856.4021	1058.8421	65535	64628.45
856.5471	1060.8194	65535	64631.2
856.6921	1062.7959	65535	64633.25
856.8372	1064.7717	65535	64633.7
856.9822	1066.7469	65535	64632.5
857.1272	1068.7213	65535	64630.6
857.2723	1070.695	65535	64633.35
857.4173	1072.6679	65535	64632.65
857.5623	1074.6402	65535	64633.9
857.7073	1076.6117	65535	64626.15
857.8523	1078.5826	65535	64634.5
857.9973	1080.5527	65535	64630.7
858.1423	1082.5221	65535	64633.75
858.2873	1084.4908	65535	64635.55
858.4323	1086.4587	65535	64633.55
858.5773	1088.426	65535	64633.65
858.7223	1090.3925	65535	64625.35
858.8673	1092.3584	65535	64633.8
859.0123	1094.3235	65535	64633.6
859.1573	1096.2879	65535	64631.2
859.3022	1098.2515	65535	64632.95
859.4472	1100.2145	65535	64634
859.5922	1102.1767	65535	64630.95
859.7371	1104.1382	65535	64631.85
859.8821	1106.099	65535	64630.75
860.027	1108.0591	65535	64634.2
860.172	1110.0185	65535	64629.8
860.3169	1111.9771	65535	64636.05
860.4619	1113.9351	65535	64633
860.6068	1115.8923	65535	64633.3
860.7517	1117.8488	65535	64629.95
860.8967	1119.8045	65535	64633.2
861.0416	1121.7596	65535	64634.75
861.1865	1123.7139	65535	64635.3
861.3314	1125.6675	65535	64635.6
861.4763	1127.6204	65535	64634.7
861.6212	1129.5726	65535	64630.95
861.7661	1131.524	65535	64634
861.911	1133.4748	65535	64633.65
862.0559	1135.4248	65535	64630.2
862.2008	1137.3741	65535	64633.95
862.3457	1139.3226	65535	64633.2
862.4905	1141.2705	65535	64632.85
862.6354	1143.2176	65535	64627.2
862.7803	1145.164	65535	64631.35
862.9251	1147.1097	65535	64632.6
863.07	1149.0546	65535	64633.15
863.2148	1150.9989	65535	64632.85
863.3597	1152.9424	65535	64632.4
863.5045	1154.8852	65535	64630.5
863.6493	1156.8272	65535	64634.25
863.7942	1158.7686	65535	64625.3
863.939	1160.7092	65535	64631.15
864.0838	1162.6491	65535	64631.8
864.2286	1164.5883	65535	64631.85
864.3734	1166.5267	65535	64631.35
864.5182	1168.4644	65535	64635.5
864.663	1170.4014	65535	64629.6
864.8078	1172.3377	65535	64634.7
864.9526	1174.2732	65535	64633.75
865.0974	1176.2081	65535	64632.35
865.2421	1178.1421	65535	64629.15
865.3869	1180.0755	65535	64633.25
865.5317	1182.0082	65535	64633.25
865.6764	1183.9401	65535	64630.65
865.8212	1185.8713	65535	64636
865.9659	1187.8017	65535	64634.65
866.1106	1189.7315	65535	64635.8
866.2554	1191.6605	65535	64611.15
866.4001	1193.5888	65535	64635.8
866.5448	1195.5163	65535	64634.15
866.6895	1197.4432	65535	64630.55
866.8342	1199.3693	65535	64635
866.9789	1201.2947	65535	64631.3
867.1236	1203.2193	65535	64631.65
867.2683	1205.1432	65535	64634.1
867.413	1207.0664	65535	64634.95
867.5576	1208.9889	65535	64629.45
867.7023	1210.9106	65535	64634.6
867.847	1212.8316	65535	64635.85
867.9916	1214.7519	65535	64625.45
868.1363	1216.6715	65535	64635.4
868.2809	1218.5903	65535	64634.4
868.4255	1220.5084	65535	64633.85
868.5701	1222.4257	65535	64633
868.7148	1224.3424	65535	64634.75
868.8594	1226.2583	65535	64629.95
869.004	1228.1735	65535	64631.5
869.1486	1230.0879	65535	64633.4
869.2932	1232.0016	65535	64636.1
869.4377	1233.9146	65535	64631
869.5823	1235.8269	65535	64633.85
869.7269	1237.7384	65535	64634.35
869.8715	1239.6492	65535	64635.55
870.016	1241.5592	65535	64634.95
870.1606	1243.4686	65535	64636.1
870.3051	1245.3772	65535	64636.8
870.4496	1247.285	65535	64635.3
870.5941	1249.1922	65535	64635.75
870.7387	1251.0986	65535	64635.1
870.8832	1253.0042	65535	64633.65
871.0277	1254.9092	65535	64633.75
871.1722	1256.8134	65535	64635.4
871.3167	1258.7169	65535	64631.15
871.4611	1260.6196	65535	64634.1
871.6056	1262.5216	65535	64631.5
871.7501	1264.4229	65535	64635.45
871.8945	1266.3234	65535	64633.25
872.039	1268.2232	65535	64631.85
872.1834	1270.1223	65535	64631.55
872.3278	1272.0207	65535	64633.7
872.4723	1273.9183	65535	64630.95
872.6167	1275.8151	65535	64635.4
872.7611	1277.7113	65535	64634.1
872.9055	1279.6067	65535	64636.05
873.0499	1281.5014	65535	64632.95
873.1943	1283.3953	65535	64631.85
873.3386	1285.2885	65535	64636.1
873.483	1287.181	65535	64635.25
873.6274	1289.0727	65535	64634.6
873.7717	1290.9637	65535	64634.3
873.9161	1292.854	65535	64635.05
874.0604	1294.7435	65535	64634.3
874.2047	1296.6323	65535	64634.45
874.349	1298.5204	65535	64631.95
874.4933	1300.4077	65535	64633.05
874.6376	1302.2943	65535	64633.25
874.7819	1304.1802	65535	64636.45
874.9262	1306.0653	65535	64633.35
875.0705	1307.9497	65535	64635.2
875.2147	1309.8333	65535	64635.9
875.359	1311.7162	65535	64633.95
875.5032	1313.5984	65535	64629.65
875.6475	1315.4798	65535	64633.9
875.7917	1317.3605	65535	64617.75
875.9359	1319.2405	65535	64633.25
876.0801	1321.1197	65535	64632.35
876.2243	1322.9982	65535	64630.15
876.3685	1324.876	65535	64635.3
876.5127	1326.753	65535	64634.7
876.6569	1328.6293	65535	64633.5
876.801	1330.5048	65535	64635
876.9452	1332.3796	65535	64636.65
877.0893	1334.2537	65535	64608.25
877.2335	1336.127	65535	64636.25
877.3776	1337.9996	65535	64635.6
877.5217	1339.8714	65535	64633.7
877.6658	1341.7426	65535	64592.45
877.8099	1343.6129	65535	64635.7
877.954	1345.4826	65535	64635.75
878.0981	1347.3515	65535	64631.65
878.2422	1349.2196	65535	64634.65
878.3862	1351.087	65535	64634.45
878.5303	1352.9537	65535	64633.6
878.6743	1354.8197	65535	64635
878.8184	1356.6849	65535	64631.85
878.9624	1358.5493	65535	64632.8
879.1064	1360.4131	65535	64634.65
879.2504	1362.276	65535	64633.95
879.3944	1364.1383	65535	64633.7
879.5384	1365.9998	65535	64629.6
879.6823	1367.8606	65535	64632.75
879.8263	1369.7206	65535	64633.4
879.9702	1371.5799	65535	64631.55
880.1142	1373.4384	65535	64635.5
880.2581	1375.2962	65535	64632.9
880.402	1377.1533	65535	64633.75
880.5459	1379.0096	65535	64634.7
880.6898	1380.8652	65535	64635.4
880.8337	1382.7201	65535	64635.85
880.9776	1384.5742	65535	64633.25
881.1215	1386.4275	65535	64636.3
881.2653	1388.2802	65535	64636.5
881.4092	1390.132	65535	64634.85
881.553	1391.9832	65535	64636.85
881.6968	1393.8336	65535	64632.55
881.8406	1395.6832	65535	64631.65
881.9844	1397.5322	65535	64633.95
882.1282	1399.3803	65535	64628.7
882.272	1401.2278	65535	64635.55
882.4158	1403.0745	65535	64635.75
882.5595	1404.9204	65535	64636.8
882.7033	1406.7656	65535	64633.75
882.847	1408.6101	65535	64632.5
882.9908	1410.4538	65535	64635.05
883.1345	1412.2968	65535	64634.25
883.2782	1414.139	65535	64635.1
883.4219	1415.9805	65535	64636.25
883.5656	1417.8213	65535	64628.15
883.7092	1419.6613	65535	64635
883.8529	1421.5006	65535	64632.9
883.9965	1423.3391	65535	64634.5
884.1402	1425.1769	65535	64633.5
884.2838	1427.0139	65535	64634.25
884.4274	1428.8502	65535	64635.7
884.571	1430.6858	65535	64634.75
884.7146	1432.5206	65535	64634.35
884.8582	1434.3547	65535	64635.2
885.0018	1436.188	65535	64633.4
885.1453	1438.0206	65535	64636.1
885.2889	1439.8524	65535	64635.1
885.4324	1441.6835	65535	64634.95
885.5759	1443.5139	65535	64633
885.7194	1445.3435	65535	64634.7
885.8629	1447.1724	65535	64637.25
886.0064	1449.0005	65535	64635.55
886.1499	1450.8279	65535	64632.1
886.2933	1452.6545	65535	64632.6
886.4368	1454.4804	65535	64637.65
886.5802	1456.3056	65535	64627.35
886.7237	1458.13	65535	64636.15
886.8671	1459.9536	65535	64636.35
887.0105	1461.7766	65535	64637.45
887.1539	1463.5987	65535	64633.95
887.2972	1465.4202	65535	64634.25
887.4406	1467.2409	65535	64634
887.584	1469.0608	65535	64637.55
887.7273	1470.88	65535	64634.15
887.8706	1472.6984	65535	64635.85
888.0139	1474.5161	65535	64632.05
888.1572	1476.3331	65535	64636.75
888.3005	1478.1493	65535	64635.75
888.4438	1479.9648	65535	64635.25
888.5871	1481.7795	65535	64634.9
888.7303	1483.5935	65535	64635.75
888.8736	1485.4067	65535	64636
889.0168	1487.2192	65535	64634.65
889.16	1489.031	65535	64633.85
889.3032	1490.842	65535	64634.4
889.4464	1492.6522	65535	64636.9
889.5896	1494.4618	65535	64633.7
889.7327	1496.2705	65535	64635.8
889.8759	1498.0785	65535	64635.15
890.019	1499.8858	65535	64635.65
890.1622	1501.6924	65535	64636.7
890.3053	1503.4981	65535	64636.35
890.4484	1505.3032	65535	64634.5
890.5914	1507.1075	65535	64637.15
890.7345	1508.911	65535	64636.7
890.8776	1510.7138	65535	64634.4
891.0206	1512.5159	65535	64637.55
891.1637	1514.3172	65535	64635.7
891.3067	1516.1178	65535	64637.8
891.4497	1517.9176	65535	64633.25
891.5927	1519.7166	65535	64637.1
891.7357	1521.515	65535	64630.9
891.8786	1523.3126	65535	64634.5
892.0216	1525.1094	65535	64636.15
892.1645	1526.9055	65535	64637.75
892.3074	1528.7008	65535	64637.3
892.4503	1530.4954	65535	64634.1
892.5932	1532.2893	65535	64638.75
892.7361	1534.0824	65535	64632.15
892.879	1535.8747	65535	64637.7
893.0218	1537.6663	65535	64636.6
893.1647	1539.4572	65535	64637.85
893.3075	1541.2473	65535	64635.3
893.4503	1543.0367	65535	64638.55
893.5931	1544.8253	65535	64634.4
893.7359	1546.6132	65535	64635.1
893.8787	1548.4003	65535	64628.3
894.0214	1550.1867	65535	64626.95
894.1642	1551.9723	65533.75	64632.7
894.3069	1553.7572	65531.15	64631.2
894.4496	1555.5414	65535	64636.75
894.5923	1557.3247	65493.35	64595.6
894.735	1559.1074	65535	64638.7
894.8777	1560.8893	65526	64629.85
895.0204	1562.6705	65533.25	64636.8
895.163	1564.4509	65510.7	64615.75
895.3056	1566.2305	65523.5	64625.6
895.4482	1568.0094	65533.9	64639.75
895.5908	1569.7876	65522.7	64628.05
895.7334	1571.565	65503.8	64605.7
895.876	1573.3417	65520.9	64626.35
896.0186	1575.1176	65518.35	64622.15
896.1611	1576.8928	65506.75	64609.7
896.3036	1578.6672	65470.2	64573.85
896.4461	1580.4409	65512.85	64620.45
896.5886	1582.2138	65454.35	64558.3
896.7311	1583.986	65474.6	64578.35
896.8736	1585.7575	65443.35	64547.45
897.0161	1587.5282	65467.2	64572.9
897.1585	1589.2981	65468.4	64575
897.3009	1591.0673	65430.2	64535.7
897.4433	1592.8358	65407.35	64513.15
897.5857	1594.6035	65441.65	64544.2
897.7281	1596.3704	65441.25	64546.15
897.8705	1598.1366	65386	64489.1
898.0128	1599.9021	65365.7	64470.35
898.1551	1601.6668	65416.5	64519.9
898.2975	1603.4308	65393.8	64495.1
898.4398	1605.194	65399	64497.4
898.5821	1606.9564	65339.5	64444.3
898.7243	1608.7182	65359.7	64462.25
898.8666	1610.4791	65339.45	64446
899.0088	1612.2394	65369.2	64477.15
899.1511	1613.9988	65340.95	64447.25
899.2933	1615.7576	65388.5	64494.85
899.4355	1617.5156	65379.95	64479.8
899.5776	1619.2728	65412.2	64514.9
899.7198	1621.0293	65338.3	64444.55
899.862	1622.785	65332.35	64431.95
900.0041	1624.54	65356.85	64460.55
900.1462	1626.2942	65332.65	64436.45
900.2883	1628.0477	65288	64391.8
900.4304	1629.8005	65256	64359.95
900.5725	1631.5525	65300.7	64406.4
900.7145	1633.3037	65244.95	64352.05
900.8566	1635.0542	65242.2	64347.45
900.9986	1636.804	65263.3	64368.25
901.1406	1638.553	65218	64235.25
901.2826	1640.3013	65240.15	64345.6
901.4245	1642.0488	65189.8	64294.45
901.5665	1643.7955	65221.5	64329.35
901.7085	1645.5416	65204.95	64312.5
901.8504	1647.2868	65185.75	64292.85
901.9923	1649.0313	65219.6	64326.2
902.1342	1650.7751	65200.55	64302.15
902.2761	1652.5181	65171.75	64278.7
902.4179	1654.2604	65171.2	64276.35
902.5598	1656.0019	65193.4	64299.15
902.7016	1657.7427	65178.75	64285.05
902.8434	1659.4828	65193	64300.05
902.9852	1661.222	65168.3	64273.7
903.127	1662.9606	65187.65	64295.35
903.2687	1664.6984	65159.5	64266.25
903.4105	1666.4354	65167.25	64272.8
903.5522	1668.1717	65116.3	64222.35
903.6939	1669.9072	65072.5	64177.7
903.8356	1671.642	65072.5	64174.55
903.9773	1673.3761	65064.5	64172.3
904.119	1675.1094	65045.4	64152.6
904.2606	1676.8419	64930.4	64037.95
904.4022	1678.5737	64976.2	64083.45
904.5439	1680.3048	64942.4	64047.95
904.6855	1682.0351	64876.6	63983.45
904.827	1683.7646	64823.4	63929.35
904.9686	1685.4934	64894.15	64001.65
905.1101	1687.2215	64530.55	63638.35
905.2517	1688.9488	64809.9	63919.05
905.3932	1690.6754	64265	63373.65
905.5347	1692.4012	64571.7	63678.65
905.6761	1694.1263	64641.9	63748.9
905.8176	1695.8506	64362.45	63468.05
905.9591	1697.5742	64405.75	63512.7
906.1005	1699.297	64348.35	63456.35
906.2419	1701.0191	64389.6	63497
906.3833	1702.7404	64089.15	63199.15
906.5246	1704.461	63984.6	63089.85
906.666	1706.1808	64158.75	63265
906.8073	1707.8999	64072.7	63178.7
906.9487	1709.6182	63981.3	63088.55
907.09	1711.3358	63982.25	63090.15
907.2313	1713.0527	63960.9	63070.75
907.3725	1714.7688	63977.25	63079.25
907.5138	1716.4841	63637.8	62742.55
907.655	1718.1987	63741.3	62843.7
907.7962	1719.9126	63641.35	62750.95
907.9374	1721.6257	63721.45	62827.35
908.0786	1723.338	63749.4	62855.9
908.2198	1725.0496	63368.25	62474.2
908.3609	1726.7605	63412.65	62518.05
908.502	1728.4706	63298	62405.9
908.6431	1730.18	63428.15	62535.1
908.7842	1731.8886	63238.15	62347.65
908.9253	1733.5964	63141.95	62244.4
909.0664	1735.3036	63317.4	62423.6
909.2074	1737.0099	63185.65	62295.4
909.3484	1738.7156	62991.4	62101.85
909.4894	1740.4204	62908.25	62014.3
909.6304	1742.1246	62983	62090.55
909.7714	1743.8279	63035.45	62142.05
909.9123	1745.5306	63028.1	62138.05
910.0532	1747.2325	62501.3	61610
910.1941	1748.9336	62526.3	61633.7
910.335	1750.634	62622.85	61728.6
910.4759	1752.3336	62796	61902.75
910.6168	1754.0325	62398.7	61509.65
910.7576	1755.7307	62772.3	61881.75
910.8984	1757.4281	62294	61403.2
911.0392	1759.1247	62644.35	61744.55
911.18	1760.8206	62104.6	61208.5
911.3208	1762.5158	62151	61253.85
911.4615	1764.2102	62238.35	61345.4
911.6022	1765.9039	62128.45	61237.15
911.7429	1767.5968	61989.7	61099
911.8836	1769.289	61948.5	61058.2
912.0243	1770.9804	61974.3	61080.8
912.1649	1772.6711	61899.9	61008.55
912.3056	1774.361	61809.85	60918.45
912.4462	1776.0502	61814.25	60923.15
912.5868	1777.7386	61437.75	60541.95
912.7274	1779.4263	61617	60724.15
912.8679	1781.1132	61598.7	60707.4
913.0084	1782.7994	61473.55	60581
913.149	1784.4849	61495.35	60605.35
913.2895	1786.1696	61017.05	60120.15
913.4299	1787.8535	61280.8	60390.5
913.5704	1789.5367	61299.05	60409.35
913.7108	1791.2192	60969.7	60079.15
913.8513	1792.9009	60801.9	59883.4
913.9917	1794.5818	61010.3	60116.25
914.132	1796.2621	60767.3	59877.55
914.2724	1797.9415	60730.45	59839.7
914.4128	1799.6202	60717.7	59826.3
914.5531	1801.2982	60727.9	59836.2
914.6934	1802.9755	60449.55	59556.85
914.8337	1804.6519	60339.75	59447.9
914.9739	1806.3277	60666.8	59776.45
915.1142	1808.0027	59991.25	59102.55
915.2544	1809.6769	60209.45	59318.1
915.3946	1811.3504	60278.75	59385.85
915.5348	1813.0231	59749.05	58858.15
915.675	1814.6951	60104.6	59213.2
915.8151	1816.3664	59890.65	58996.9
915.9553	1818.0369	59874.9	58984
916.0954	1819.7067	59719.9	58830.15
916.2355	1821.3757	59942.8	59051.35
916.3755	1823.044	59513.45	58622.85
916.5156	1824.7115	59236.25	58344.85
916.6556	1826.3783	59420.65	58531.25
916.7956	1828.0443	59373.25	58484.3
916.9356	1829.7096	59185.2	58292.2
917.0756	1831.3741	58660.1	57764.15
917.2155	1833.0379	58998.2	58107.25
917.3555	1834.701	58998.7	58107.25
917.4954	1836.3633	58552.5	57661.5
917.6353	1838.0248	58789.05	57897.7
917.7751	1839.6856	58676.85	57783.5
917.915	1841.3457	58213.8	57323.8
918.0548	1843.005	58706.95	57816.25
918.1946	1844.6636	58378.85	57489.25
918.3344	1846.3214	57624.95	56733.6
918.4742	1847.9785	57831.2	56941.25
918.6139	1849.6349	57734.15	56841.45
918.7537	1851.2904	58248.45	57350.3
918.8934	1852.9453	57355.8	56463.8
919.0331	1854.5994	57794.55	56901.8
919.1727	1856.2528	57754.45	56859.9
919.3124	1857.9054	57212.2	56320.7
919.452	1859.5572	56938.05	56046.55
919.5916	1861.2083	57262.8	56372.95
919.7312	1862.8587	57747.05	56856.7
919.8708	1864.5084	56303.2	55411.75
920.0103	1866.1572	56965.5	56073.45
920.1498	1867.8054	56187.55	55295.4
920.2893	1869.4528	56526.65	55634.9
920.4288	1871.0994	56058.3	55167.15
920.5683	1872.7453	55943.45	55051.2
920.7077	1874.3905	56258.2	55359.5
920.8471	1876.0349	55665.8	54774.15
920.9865	1877.6786	56036.1	55143.35
921.1259	1879.3215	55484.45	54594.65
921.2653	1880.9637	56017.85	55126.65
921.4046	1882.6051	55397.3	54505.45
921.5439	1884.2458	55173.7	54280.1
921.6832	1885.8858	54857.9	53965.2
921.8225	1887.525	55137.4	54244.45
921.9617	1889.1634	54993.3	54101.1
922.101	1890.8011	54689.55	53798.75
922.2402	1892.4381	54076.8	53185.8
922.3794	1894.0743	54729.2	53840.15
922.5185	1895.7098	54243.05	53353.35
922.6577	1897.3446	53933.2	53039.55
922.7968	1898.9786	54066.95	53173.45
922.9359	1900.6118	53759.5	52869.2
923.075	1902.2443	53432.35	52540.2
923.214	1903.8761	53787.25	52896.9
923.3531	1905.5071	53370.75	52477.7
923.4921	1907.1374	52668.4	51776.85
923.6311	1908.7669	52981.7	52091.8
923.77	1910.3957	53200.25	52309
923.909	1912.0237	52602	51711.4
924.0479	1913.651	52293.4	51401.7
924.1868	1915.2776	52130.85	51241.85
924.3257	1916.9034	52145.9	51256.35
924.4646	1918.5285	51849.5	50959.2
924.6034	1920.1528	51841.7	50950.65
924.7422	1921.7764	51617.9	50726.2
924.881	1923.3992	51494.8	50603.2
925.0198	1925.0213	51172.6	50282.25
925.1586	1926.6427	50700.95	49812.1
925.2973	1928.2633	50890.85	49924.1
925.436	1929.8832	50668.05	49776.15
925.5747	1931.5023	50510.4	49618.8
925.7134	1933.1207	50119.85	49229.5
925.852	1934.7383	50318.55	49428.65
925.9906	1936.3552	49962.9	49073
926.1292	1937.9714	49833.35	48942.65
926.2678	1939.5868	49801.65	48910.6
926.4064	1941.2015	49376.75	48486.1
926.5449	1942.8154	49088.7	48197.95
926.6834	1944.4286	49035.7	48144.6
926.8219	1946.041	48979.25	48067.9
926.9604	1947.6528	48691.5	47794.5
927.0988	1949.2637	48514.9	47624.5
927.2372	1950.8739	48301.55	47411.55
927.3756	1952.4834	48415.5	47526.75
927.514	1954.0921	48268.9	47377.8
927.6523	1955.7001	47897.85	47003.85
927.7907	1957.3074	47939.5	47050.95
927.929	1958.9139	47550.65	46661.8
928.0673	1960.5197	47554	46661.85
928.2055	1962.1247	47392.1	46499
928.3438	1963.729	47087.5	46199.85
928.482	1965.3325	46950.75	46036.6
928.6202	1966.9353	46905.35	46015.95
928.7584	1968.5374	46596.8	45706.3
928.8965	1970.1387	46429.3	45539
929.0346	1971.7393	46321.3	45430.1
929.1727	1973.3392	46127.25	45237.9
929.3108	1974.9383	45932.35	45043.6
929.4489	1976.5366	45696.8	44806.6
929.5869	1978.1342	45706.7	44817.4
929.7249	1979.7311	45641.35	44750.1
929.8629	1981.3273	45484.45	44593.5
930.0009	1982.9227	45242.75	44352.75
930.1388	1984.5173	45195.1	44307.5
930.2767	1986.1112	44939.5	44050.9
930.4146	1987.7044	44937	44048.8
930.5525	1989.2968	44547.7	43656.9
930.6904	1990.8885	44630.85	43738.65
930.8282	1992.4795	44415.65	43524.7
930.966	1994.0697	44287.7	43399.3
931.1038	1995.6592	44170.15	43281.7
931.2415	1997.2479	44050.7	43162.4
931.3793	1998.8359	43925.9	43037.55
931.517	2000.4232	43678.6	42791.5
931.6547	2002.0097	43565.75	42678.9
931.7923	2003.5955	43375.2	42485.6
931.93	2005.1805	43311.9	42420.45
932.0676	2006.7648	43190.5	42301.4
932.2052	2008.3484	43017.75	42126.6
932.3427	2009.9312	43109.8	42219.35
932.4803	2011.5133	42906.25	42018.75
932.6178	2013.0946	42749.3	41860.45
932.7553	2014.6752	42590.3	41704.5
932.8928	2016.2551	42512.85	41623.9
933.0302	2017.8342	42306.55	41418.75
933.1676	2019.4126	42131.25	41243.25
933.305	2020.9902	41950.2	41063.45
933.4424	2022.5672	41903.7	41012.3
933.5798	2024.1433	41793.95	40898.65
933.7171	2025.7188	41684.3	40796.9
933.8544	2027.2935	41553.6	40665.25
933.9917	2028.8674	41359.6	40473.5
934.129	2030.4406	41281.95	40395.35
934.2662	2032.0131	41039.95	40153.1
934.4034	2033.5849	40955.75	40059.45
934.5406	2035.1559	40851.45	39962.8
934.6778	2036.7261	40775.85	39885.85
934.8149	2038.2957	40661.95	39773.7
934.952	2039.8645	40568.7	39679.6
935.0891	2041.4325	40577.3	39686.75
935.2262	2042.9998	40375.95	39486.05
935.3632	2044.5664	40281.8	39390.35
935.5002	2046.1323	40163.2	39274.4
935.6372	2047.6974	40096.95	39207.7
935.7742	2049.2617	39922.25	39035.65
935.9111	2050.8254	39902.2	39009.8
936.048	2052.3883	39752.45	38864.05
936.1849	2053.9504	39667.75	38779.05
936.3218	2055.5118	39469.35	38579.7
936.4586	2057.0725	39326.05	38434.55
936.5955	2058.6325	39245.75	38356.6
936.7323	2060.1917	39118.2	38230.95
936.869	2061.7502	39027.6	38134.9
937.0058	2063.3079	38877.75	37988.2
937.1425	2064.8649	38704.3	37813.4
937.2792	2066.4212	38648.75	37759.2
937.4159	2067.9767	38568.3	37678.35
937.5525	2069.5315	38419.35	37531.25
937.6891	2071.0856	38193.05	37304.7
937.8257	2072.6389	38082.05	37192.95
937.9623	2074.1915	37930	37043.7
938.0989	2075.7433	37702.2	36810.45
938.2354	2077.2945	37606.05	36717.75
938.3719	2078.8448	37520.9	36631.9
938.5084	2080.3945	37416.95	36529.85
938.6448	2081.9434	37386.25	36498.05
938.7812	2083.4916	37234.2	36345.15
938.9176	2085.039	37069	36178.5
939.054	2086.5857	37000.15	36110.95
939.1903	2088.1317	36866.7	35975.4
939.3267	2089.677	36804.15	35913.85
939.463	2091.2215	36723.1	35832.8
939.5992	2092.7652	36605.15	35713.05
939.7355	2094.3083	36474.8	35583.85
939.8717	2095.8506	36446.95	35560.25
940.0079	2097.3921	36430.95	35542.35
940.1441	2098.933	36258.05	35369.1
940.2802	2100.4731	36173	35284.7
940.4163	2102.0124	36092.55	35186.8
940.5524	2103.5511	35985.9	35095.55
940.6885	2105.089	35878.65	34990.3
940.8245	2106.6261	35813	34926.25
940.9606	2108.1626	35683.75	34794.9
941.0965	2109.6983	35685.1	34768.65
941.2325	2111.2332	35556.35	34666.45
941.3684	2112.7675	35431.05	34540.15
941.5044	2114.301	35314.7	34424.6
941.6403	2115.8337	35298.6	34408.1
941.7761	2117.3657	35119.95	34228.55
941.912	2118.897	35099.9	34208.05
942.0478	2120.4276	34975.9	34081.6
942.1835	2121.9575	34795.6	33907.1
942.3193	2123.4866	34780.35	33879.55
942.455	2125.0149	34686.7	33795.95
942.5907	2126.5426	34441.15	33551.75
942.7264	2128.0695	34391.05	33497.6
942.8621	2129.5956	34354.7	33466.8
942.9977	2131.1211	34244.35	33352.25
943.1333	2132.6458	34126.35	33237.5
943.2689	2134.1698	34041.85	33152.5
943.4044	2135.693	33950.4	33059.2
943.54	2137.2155	33874.75	32983.35
943.6755	2138.7373	33823.3	32933.5
943.8109	2140.2584	33693.35	32805.35
943.9464	2141.7787	33549.1	32654.8
944.0818	2143.2983	33435.9	32546.4
944.2172	2144.8171	33239.55	32352.3
944.3526	2146.3353	33222.6	32330
944.4879	2147.8527	33037.9	32149.7
944.6232	2149.3693	33050.15	32159.05
944.7585	2150.8853	32883.8	31995.15
944.8938	2152.4005	32678	31788.05
945.029	2153.9149	32665.1	31775.7
945.1642	2155.4287	32545.2	31656.75
945.2994	2156.9417	32523.6	31631.95
945.4346	2158.454	32425.4	31534.45
945.5697	2159.9655	32302.1	31412.8
945.7048	2161.4764	32247.4	31359.1
945.8399	2162.9865	32107.35	31218.2
945.9749	2164.4958	32044.6	31155.65
946.1099	2166.0045	31926	31034.3
946.2449	2167.5124	31885.25	30996.65
946.3799	2169.0195	31831.1	30942.85
946.5148	2170.526	31762.05	30873.15
946.6498	2172.0317	31682.25	30794.15
946.7846	2173.5367	31552.35	30661.25
946.9195	2175.0409	31451.15	30560.85
947.0543	2176.5445	31389.8	30500.85
947.1891	2178.0473	31289.8	30399.4
947.3239	2179.5494	31117.7	30223.4
947.4587	2181.0507	31011.4	30120.45
947.5934	2182.5513	30952.7	30064.2
947.7281	2184.0512	30889.35	30000.95
947.8628	2185.5504	30724.55	29836.05
947.9974	2187.0488	30553.9	29667.6
948.132	2188.5465	30498.85	29610
948.2666	2190.0435	30415.65	29526
948.4012	2191.5397	30304.3	29415.15
948.5357	2193.0353	30207.4	29318.5
948.6702	2194.5301	30021.55	29130.45
948.8047	2196.0241	29934.95	29044.6
948.9392	2197.5175	29870.95	28981.5
949.0736	2199.0101	29740.05	28847.8
949.208	2200.502	29557.85	28671.75
949.3424	2201.9931	29477.65	28590.6
949.4767	2203.4835	29351.5	28460.8
949.611	2204.9733	29327.25	28432.8
949.7453	2206.4622	29247.75	28358.45
949.8796	2207.9505	29125	28235
950.0138	2209.438	29008.55	28121.7
950.148	2210.9248	28905.85	28016.6
950.2822	2212.4109	28765.65	27879.8
950.4164	2213.8962	28675.5	27784.45
950.5505	2215.3809	28633.65	27742.1
950.6846	2216.8648	28572.15	27682.45
950.8186	2218.3479	28468.6	27575.3
950.9527	2219.8304	28348.7	27457.05
951.0867	2221.3121	28222.1	27332.55
951.2207	2222.7931	28182.8	27294.45
951.3546	2224.2733	28086.25	27197.65
951.4886	2225.7529	27940.4	27049.75
951.6225	2227.2317	27829.5	26936.15
951.7563	2228.7098	27846.8	26957.75
951.8902	2230.1872	27710	26821.75
952.024	2231.6638	27641.15	26753.35
952.1578	2233.1397	27543.2	26648.7
952.2916	2234.6149	27473.7	26585.6
952.4253	2236.0894	27337.35	26448.5
952.559	2237.5632	27256.7	26365.65
952.6927	2239.0362	27130.05	26240.95
952.8263	2240.5085	27080.85	26194.05
952.9599	2241.9801	26981.75	26091.45
953.0935	2243.4509	26936.15	26049
953.2271	2244.921	26795.95	25907.4
953.3606	2246.3904	26683.75	25791.8
953.4941	2247.8591	26646.2	25757.6
953.6276	2249.3271	26537.55	25648.05
953.7611	2250.7943	26395.55	25505.9
953.8945	2252.2608	26329	25439.9
954.0279	2253.7266	26257.75	25369.55
954.1612	2255.1917	26177.55	25288.6
954.2946	2256.656	26087.8	25200.4
954.4279	2258.1197	25998.25	25109.55
954.5612	2259.5826	25976.15	25085.3
954.6944	2261.0447	25887.6	24998.45
954.8276	2262.5062	25743.25	24850.7
954.9608	2263.9669	25695.3	24804.2
955.094	2265.4269	25668.85	24780
955.2271	2266.8862	25551.8	24660.4
955.3602	2268.3448	25513.75	24623.75
955.4933	2269.8026	25425.85	24537.35
955.6264	2271.2598	25354.75	24465.05
955.7594	2272.7162	25277.15	24389.1
955.8924	2274.1719	25188.6	24300.7
956.0253	2275.6268	25131.35	24242.7
956.1583	2277.0811	25048.7	24158.95
956.2912	2278.5346	24997.85	24110.2
956.4241	2279.9874	24899.8	24011.6
956.5569	2281.4395	24882.65	23995.3
956.6897	2282.8908	24743	23849.4
956.8225	2284.3414	24713	23822.75
956.9553	2285.7914	24668.9	23781.6
957.088	2287.2406	24576	23685.05
957.2207	2288.689	24492.65	23604.45
957.3534	2290.1368	24406.85	23518.65
957.486	2291.5838	24329.7	23437.55
957.6186	2293.0302	24267.15	23376.85
957.7512	2294.4758	24118	23228.7
957.8838	2295.9206	24000.35	23110.05
958.0163	2297.3648	23974.35	23084.5
958.1488	2298.8082	23945	23055.7
958.2813	2300.251	23828.25	22938.65
958.4137	2301.693	23787.6	22896.85
958.5461	2303.1343	23738.55	22848.7
958.6785	2304.5748	23667.45	22778.9
958.8108	2306.0147	23540.25	22651.65
958.9432	2307.4538	23523.55	22632.6
959.0754	2308.8922	23433.6	22545.55
959.2077	2310.3299	23362.85	22474.5
959.3399	2311.7669	23290.85	22404.3
959.4721	2313.2031	23194.8	22306.45
959.6043	2314.6387	23053.05	22164.2
959.7365	2316.0735	23007.3	22117.7
959.8686	2317.5076	22983.1	22094.7
960.0006	2318.941	22888.9	21999.65
960.1327	2320.3737	22827.15	21939.65
960.2647	2321.8056	22786.1	21897.1
960.3967	2323.2369	22728.3	21838.4
960.5287	2324.6674	22674.2	21783.2
960.6606	2326.0972	22555.9	21666.75
960.7925	2327.5263	22448.95	21562.85
960.9244	2328.9547	22379	21489.3
961.0562	2330.3823	22299.55	21408.85
961.1881	2331.8092	22282.75	21392.25
961.3198	2333.2355	22185	21296.05
961.4516	2334.661	22185.95	21295.35
961.5833	2336.0858	22123.6	21234.2
961.715	2337.5098	22032.35	21143.65
961.8467	2338.9332	22009.55	21119.65
961.9783	2340.3558	21891.85	21000.25
962.1099	2341.7778	21810.8	20922.35
962.2415	2343.199	21731.25	20841.1
962.373	2344.6195	21690.05	20801.55
962.5045	2346.0393	21610.7	20723.95
962.636	2347.4583	21560.3	20671.1
962.7675	2348.8767	21475.1	20586.5
962.8989	2350.2943	21448.25	20559.25
963.0303	2351.7113	21388.95	20497.2
963.1617	2353.1275	21291.45	20402
963.293	2354.543	21281.95	20386.1
963.4243	2355.9578	21197.05	20309.1
963.5556	2357.3718	21051.6	20163.9
963.6868	2358.7852	20972.95	20080.85
963.818	2360.1978	20900.6	20008.6
963.9492	2361.6098	20899.35	20011.8
964.0803	2363.021	20796	19903.9
964.2114	2364.4315	20718.9	19829.1
964.3425	2365.8413	20657.8	19768.8
964.4736	2367.2504	20553.4	19666.05
964.6046	2368.6587	20454.45	19566.1
964.7356	2370.0664	20381.4	19492.1
964.8666	2371.4733	20342.3	19454.2
964.9975	2372.8795	20268.6	19380.7
965.1284	2374.285	20171.4	19282.4
965.2593	2375.6899	20078.2	19192.1
965.3901	2377.0939	19969.15	19080.05
965.5209	2378.4973	19918.6	19030.75
965.6517	2379.9	19856.25	18968.75
965.7825	2381.3019	19764.95	18876.55
965.9132	2382.7032	19736.25	18849.4
966.0439	2384.1037	19689.2	18803.65
966.1745	2385.5035	19596.75	18706.5
966.3051	2386.9027	19525.3	18637.5
966.4357	2388.3011	19489.25	18596.9
966.5663	2389.6987	19431.5	18543.2
966.6968	2391.0957	19371.25	18484.05
966.8273	2392.492	19275.75	18389.6
966.9578	2393.8876	19155.95	18268.05
967.0882	2395.2824	19085.2	18198
967.2186	2396.6765	19021.1	18132.35
967.349	2398.07	18909.35	18021.2
967.4793	2399.4627	18890.35	18000.5
967.6097	2400.8547	18818.65	17930.7
967.7399	2402.246	18763.15	17869.3
967.8702	2403.6366	18656.1	17768.35
968.0004	2405.0265	18583.6	17695.9
968.1306	2406.4156	18541.8	17650.9
968.2607	2407.8041	18446.6	17555.4
968.3909	2409.1918	18372.95	17483.75
968.521	2410.5789	18286.2	17397.35
968.651	2411.9652	18193.05	17300.45
968.781	2413.3508	18159.4	17270.1
968.911	2414.7358	18053.95	17166.25
969.041	2416.12	18031.8	17146.45
969.1709	2417.5035	17968.85	17080.75
969.3008	2418.8863	17913.2	17023.6
969.4307	2420.2684	17843.15	16953.6
969.5606	2421.6497	17808.7	16919.7
969.6904	2423.0304	17669.4	16782.45
969.8201	2424.4104	17621.8	16732.3
969.9499	2425.7896	17585.1	16695
970.0796	2427.1682	17508.15	16620.8
970.2093	2428.546	17471.15	16583.25
970.3389	2429.9232	17435.6	16546.35
970.4685	2431.2996	17382.35	16493.85
970.5981	2432.6753	17333.35	16444.9
970.7277	2434.0503	17264.15	16373.9
970.8572	2435.4246	17181.65	16293.15
970.9867	2436.7982	17167.85	16276.95
971.1161	2438.1711	17101.9	16214.85
971.2456	2439.5433	17054.3	16164.6
971.375	2440.9148	16975.05	16082.75
971.5043	2442.2856	16891.45	16003.95
971.6336	2443.6557	16851	15961.95
971.7629	2445.025	16790.8	15904.15
971.8922	2446.3937	16744.6	15856.5
972.0214	2447.7617	16678.35	15790.1
972.1506	2449.1289	16657.75	15771
972.2798	2450.4955	16609.25	15717
972.4089	2451.8613	16543.7	15654.65
972.538	2453.2265	16487.65	15599.3
972.6671	2454.5909	16453.65	15564.5
972.7961	2455.9546	16409.6	15523.5
972.9251	2457.3177	16365.4	15479.5
973.0541	2458.68	16275.9	15387.15
973.1831	2460.0416	16269	15381
973.312	2461.4025	16225.75	15337.7
973.4408	2462.7627	16200.2	15300.4
973.5697	2464.1222	16126.3	15240.05
973.6985	2465.4811	16090.8	15201.95
973.8273	2466.8392	15992.85	15104.45
973.956	2468.1966	15945.25	15054.4
974.0847	2469.5533	15954	15061.85
974.2134	2470.9093	15906.9	15018
974.3421	2472.2645	15833.25	14943.65
974.4707	2473.6191	15771.8	14883.85
974.5993	2474.973	15698.1	14810.1
974.7278	2476.3262	15650.75	14760.4
974.8563	2477.6787	15599.85	14709.35
974.9848	2479.0305	15510.3	14621.8
975.1132	2480.3816	15487.95	14597.95
975.2417	2481.7319	15415.05	14526.7
975.37	2483.0816	15348.65	14459.25
975.4984	2484.4306	15298.35	14407.35
975.6267	2485.7789	15257.05	14369.95
975.755	2487.1264	15168.5	14279.1
975.8833	2488.4733	15122.5	14235.25
976.0115	2489.8195	15049.1	14155.25
976.1397	2491.165	15011.95	14121.8
976.2678	2492.5097	14963	14072.75
976.3959	2493.8538	14876.65	13988.85
976.524	2495.1972	14803.35	13915.15
976.6521	2496.5398	14739.85	13851.5
976.7801	2497.8818	14707.15	13818.05
976.9081	2499.2231	14658	13768
977.036	2500.5637	14587.85	13697.85
977.164	2501.9035	14568.85	13680.35
977.2918	2503.2427	14536.2	13644
977.4197	2504.5812	14454.55	13568.2
977.5475	2505.919	14413.05	13523.3
977.6753	2507.256	14414.9	13528.5
977.8031	2508.5924	14311.05	13423.65
977.9308	2509.9281	14287.05	13393.35
978.0585	2511.2631	14222.25	13334.85
978.1861	2512.5974	14194.45	13306.15
978.3137	2513.9309	14130.6	13242.25
978.4413	2515.2638	14087.45	13171.95
978.5689	2516.596	14035.45	13146.95
978.6964	2517.9275	13975.95	13086.95
978.8239	2519.2583	13907	13019.7
978.9513	2520.5884	13865.35	12975.3
979.0788	2521.9178	13811.3	12924.4
979.2062	2523.2465	13745.8	12857.85
979.3335	2524.5745	13712.65	12826.35
979.4608	2525.9018	13663.85	12775
979.5881	2527.2284	13622.85	12735.5
979.7154	2528.5543	13581.35	12696.3
979.8426	2529.8796	13536.75	12646.05
979.9698	2531.2041	13491.6	12602.65
980.0969	2532.5279	13470.45	12582.8
980.224	2533.851	13471.15	12581.6
980.3511	2535.1735	13410.4	12522.9
980.4781	2536.4952	13368.15	12480.95
980.6052	2537.8163	13348.6	12460.8
980.7321	2539.1366	13291.9	12404.05
980.8591	2540.4562	13243.9	12355.5
980.986	2541.7752	13238.55	12350.5
981.1129	2543.0935	13201.45	12314.45
981.2397	2544.411	13148.55	12258.75
981.3665	2545.7279	13141.5	12253.45
981.4933	2547.0441	13100.8	12211.1
981.62	2548.3596	13092.85	12203.45
981.7467	2549.6744	13048.75	12159.85
981.8734	2550.9885	12978.55	12082.7
982.0001	2552.3019	12931.8	12043.4
982.1267	2553.6146	12917.8	12028.3
982.2532	2554.9266	12867.85	11979.55
982.3798	2556.2379	12826.65	11936.45
982.5063	2557.5485	12820	11932.5
982.6327	2558.8585	12765.3	11870.45
982.7592	2560.1677	12762.5	11869.15
982.8856	2561.4762	12728.1	11839.15
983.0119	2562.7841	12688.35	11795.35
983.1383	2564.0913	12666.75	11778.75
983.2646	2565.3977	12626.7	11740.45
983.3908	2566.7035	12610.1	11721.9
983.517	2568.0086	12575.3	11684.85
983.6432	2569.313	12550.55	11660.25
983.7694	2570.6167	12517.45	11626.2
983.8955	2571.9197	12484.75	11597
984.0216	2573.222	12478.85	11588.6
984.1476	2574.5236	12418.5	11529.95
984.2737	2575.8246	12380.55	11489.95
984.3996	2577.1248	12386.65	11496.7
984.5256	2578.4244	12329.3	11441.4
984.6515	2579.7232	12339.5	11451.15
984.7774	2581.0214	12311	11398.75
984.9032	2582.3189	12270.25	11381.1
985.029	2583.6157	12251.4	11358.55
985.1548	2584.9118	12190	11301.3
985.2806	2586.2072	12166.15	11278.65
985.4063	2587.5019	12128.05	11240.8
985.5319	2588.7959	12103.7	11215.8
985.6576	2590.0893	12092.4	11201.85
985.7832	2591.3819	12044.9	11157.75
985.9087	2592.6739	11975.45	11088.95
986.0343	2593.9652	11969.25	11080.4
986.1597	2595.2557	11934.2	11045.2
986.2852	2596.5456	11871.55	10981.7
986.4106	2597.8348	11824.35	10937.2
986.536	2599.1234	11762	10875.7
986.6614	2600.4112	11725.7	10836.5
986.7867	2601.6983	11689.6	10797.75
986.912	2602.9848	11666.95	10779.55
987.0372	2604.2705	11595.4	10700.15
987.1624	2605.5556	11569.4	10679.6
987.2876	2606.84	11543.2	10656.05
987.4128	2608.1237	11481.7	10594.05
987.5379	2609.4067	11435.55	10547.5
987.6629	2610.689	11390.55	10495.3
987.788	2611.9707	11374.55	10482.5
987.913	2613.2516	11295.25	10402.05
988.0379	2614.5319	11244.1	10357.15
988.1629	2615.8115	11236.75	10348.65
988.2878	2617.0903	11174.7	10285.45
988.4126	2618.3685	11125.25	10237.2
988.5375	2619.6461	11078.65	10190.65
988.6622	2620.9229	11051	10162.7
988.787	2622.199	11046.05	10156.05
988.9117	2623.4745	11009	10119.8
989.0364	2624.7493	10958.2	10068.75
989.161	2626.0234	10915.5	10028
989.2857	2627.2968	10869.35	9981.55
989.4102	2628.5695	10859.8	9968.75
989.5348	2629.8415	10776.4	9888.1
989.6593	2631.1128	10731.2	9842.25
989.7837	2632.3835	10674.15	9787.6
989.9082	2633.6535	10633.2	9746.6
990.0326	2634.9228	10635.7	9748.1
990.1569	2636.1914	10589.1	9702.05
990.2812	2637.4593	10553.3	9661.75
990.4055	2638.7265	10517.35	9628.95
990.5298	2639.9931	10478.1	9590.55
990.654	2641.259	10470.45	9580.6
990.7782	2642.5242	10425.9	9536.05
990.9023	2643.7887	10383.05	9494.8
991.0264	2645.0525	10346.9	9459.75
991.1505	2646.3156	10291	9400.9
991.2745	2647.5781	10254.95	9366.4
991.3985	2648.8398	10232.55	9343.8
991.5225	2650.1009	10228.55	9304.35
991.6464	2651.3613	10190.25	9300.55
991.7703	2652.6211	10148.3	9260
991.8942	2653.8801	10099.1	9212.9
992.018	2655.1385	10067	9177.7
992.1418	2656.3961	10050.8	9162.65
992.2655	2657.6531	10035.65	9148.25
992.3892	2658.9094	9996.1	9109
992.5129	2660.1651	9957.2	9070.45
992.6366	2661.42	9931.1	9042.55
992.7602	2662.6743	9911.7	9022.45
992.8837	2663.9279	9913.6	9025.05
993.0073	2665.1808	9876.7	8987.35
993.1307	2666.433	9836.65	8946.65
993.2542	2667.6846	9797.75	8911.15
993.3776	2668.9354	9769.25	8878.1
993.501	2670.1856	9744.6	8854.95
993.6244	2671.4351	9726	8837.45
993.7477	2672.6839	9698.95	8809.4
993.8709	2673.9321	9679.5	8791.65
993.9942	2675.1795	9641.3	8752
994.1174	2676.4263	9597.35	8710.3
994.2405	2677.6724	9563.6	8676.25
994.3637	2678.9179	9520.35	8631.45
994.4868	2680.1626	9506.8	8619.85
994.6098	2681.4067	9471.9	8581.5
994.7328	2682.6501	9451.45	8561.85
994.8558	2683.8928	9419.15	8530.7
994.9788	2685.1348	9382.25	8493.35
995.1017	2686.3761	9338.45	8450.95
995.2245	2687.6168	9327.8	8441
995.3474	2688.8568	9302.2	8414
995.4702	2690.0961	9255.2	8368.9
995.5929	2691.3348	9260.3	8371.45
995.7156	2692.5727	9198.35	8311.55
995.8383	2693.81	9172.5	8282.55
995.961	2695.0466	9152.5	8266.5
996.0836	2696.2826	9118.85	8229.15
996.2062	2697.5178	9110.75	8219.8
996.3287	2698.7524	9080.1	8192.4
996.4512	2699.9863	9054.95	8167.05
996.5737	2701.2195	9006.2	8120.05
996.6961	2702.452	9009.05	8119.15
996.8185	2703.6839	8963.8	8075.4
996.9408	2704.9151	8935.9	8050.8
997.0631	2706.1456	8901.75	8015.1
997.1854	2707.3755	8875.65	7986.75
997.3077	2708.6046	8854.75	7964.25
997.4299	2709.8331	8829.45	7940.95
997.552	2711.0609	8772.1	7885.35
997.6742	2712.2881	8760.9	7873.55
997.7963	2713.5145	8753.2	7864.45
997.9183	2714.7403	8711.25	7826.4
998.0403	2715.9654	8668.1	7779.75
998.1623	2717.1899	8660.7	7758.35
998.2842	2718.4136	8653.35	7766.25
998.4062	2719.6367	8635.65	7748.5
998.528	2720.8591	8620.7	7726.8
998.6498	2722.0809	8569.35	7681.3
998.7716	2723.3019	8556.45	7665.15
998.8934	2724.5223	8534.1	7645.65
999.0151	2725.7421	8520.15	7630.25
999.1368	2726.9611	8489.05	7598.95
999.2584	2728.1795	8453.8	7560.9
999.38	2729.3972	8427.9	7541
999.5016	2730.6142	8358.35	7462.3
999.6231	2731.8306	8330.65	7441.6
999.7446	2733.0462	8284.55	7396.6
999.8661	2734.2612	8235.55	7341.75
999.9875	2735.4756	8186.7	7296.25
1000.1089	2736.6892	8140.6	7250.9
1000.2302	2737.9022	8107.1	7221.1
1000.3515	2739.1145	8065.7	7178.9
1000.4728	2740.3262	8030.9	7135.05
1000.594	2741.5372	7982.2	7093.65
1000.7152	2742.7475	7964.05	7076.5
1000.8363	2743.9571	7950.25	7060.6
1000.9575	2745.1661	7898.95	7006.85
1001.0785	2746.3744	7882.7	6992.95
1001.1996	2747.582	7844.7	6955.7
1001.3206	2748.7889	7816.15	6926.3
1001.4415	2749.9952	7788.45	6902.35
1001.5625	2751.2008	7752.6	6862.7
1001.6833	2752.4057	7707.9	6818.45
1001.8042	2753.61	7676.7	6787.25
1001.925	2754.8136	7641.25	6753.8
1002.0458	2756.0165	7616.65	6730.6
1002.1665	2757.2188	7595.7	6710.6
1002.2872	2758.4204	7576.9	6689.8
1002.4078	2759.6213	7568.6	6679.3
1002.5285	2760.8215	7539.6	6648.4
1002.649	2762.0211	7502.15	6612.6
1002.7696	2763.22	7479.75	6589.3
1002.8901	2764.4182	7488.95	6599.75
1003.0106	2765.6158	7427.85	6539.65
1003.131	2766.8127	7435.45	6548.7
1003.2514	2768.009	7384.85	6498.45
1003.3717	2769.2045	7378.6	6489.15
1003.492	2770.3994	7343.95	6452.85
1003.6123	2771.5936	7305.3	6416.75
1003.7325	2772.7872	7276.05	6389.5
1003.8527	2773.9801	7234.45	6343.45
1003.9729	2775.1723	7226.4	6322.1
1004.093	2776.3639	7197	6310.5
1004.2131	2777.5548	7160	6269.8
1004.3331	2778.745	7153.7	6264.6
1004.4531	2779.9346	7112.85	6226.5
1004.5731	2781.1235	7102.95	6214.9
1004.693	2782.3117	7081.6	6195.2
1004.8129	2783.4992	7060.05	6172.35
1004.9328	2784.6861	7043.9	6156.05
1005.0526	2785.8723	7023.65	6134.05
1005.1723	2787.0579	7001.75	6113.2
1005.2921	2788.2428	6978.05	6090.75
1005.4118	2789.427	6953.8	6067.6
1005.5314	2790.6106	6951.75	6062.65
1005.651	2791.7935	6934.7	6048
1005.7706	2792.9757	6885	5998.95
1005.8902	2794.1573	6891.4	6002.3
1006.0097	2795.3382	6868.85	5981.2
1006.1291	2796.5184	6845.25	5958.35
1006.2485	2797.698	6844.65	5956.65
1006.3679	2798.8769	6829.35	5942.4
1006.4873	2800.0551	6794.45	5909.15
1006.6066	2801.2327	6790.45	5897.75
1006.7258	2802.4096	6799.75	5911.5
1006.8451	2803.5859	6788.85	5900.95
1006.9642	2804.7615	6773	5884.85
1007.0834	2805.9364	6766.6	5880
1007.2025	2807.1106	6746.75	5858.55
1007.3216	2808.2842	6779.3	5891.2
1007.4406	2809.4572	6791.9	5903.3
1007.5596	2810.6294	6773.45	5884.75
1007.6785	2811.801	6816.1	5930
1007.7975	2812.972	6806.25	5919.15
1007.9163	2814.1423	6836.75	5948.6
1008.0352	2815.3119	6878.9	5992.65
1008.154	2816.4808	6887.85	6000.6
1008.2727	2817.6491	6919.2	6032.5
1008.3914	2818.8167	6919.4	6034.65
1008.5101	2819.9837	6972.3	6081.8
1008.6288	2821.15	6975.55	6087.9
1008.7474	2822.3157	6997.05	6109.2
1008.8659	2823.4807	7011.3	6124.25
1008.9844	2824.645	7055.55	6167.05
1009.1029	2825.8086	7102.9	6216.3
1009.2214	2826.9716	7115.8	6229
1009.3398	2828.134	7146.15	6258.45
1009.4581	2829.2957	7167.55	6278.5
1009.5764	2830.4567	7183.6	6299.3
1009.6947	2831.617	7183.35	6294.85
1009.813	2832.7767	7170.4	6284.7
1009.9312	2833.9358	7174.75	6287.05
1010.0493	2835.0941	7156.75	6267.75
1010.1675	2836.2519	7134.3	6248.1
1010.2855	2837.4089	7091.7	6203.05
1010.4036	2838.5653	7081.65	6196.2
1010.5216	2839.7211	7048.8	6163
1010.6396	2840.8761	7029.9	6142.9
1010.7575	2842.0306	7031	6145.5
1010.8754	2843.1843	7076.45	6188.7
1010.9932	2844.3374	7075.55	6189
1011.111	2845.4899	7105.05	6217.35
1011.2288	2846.6417	7148.15	6262.35
1011.3465	2847.7928	7197.2	6310.8
1011.4642	2848.9433	7243.1	6354.95
1011.5818	2850.0931	7278.55	6393.3
1011.6995	2851.2422	7333.9	6444.95
1011.817	2852.3907	7397.2	6511.9
1011.9345	2853.5385	7429	6539
1012.052	2854.6857	7463.75	6566.2
1012.1695	2855.8323	7468.55	6581.95
1012.2869	2856.9781	7498.9	6613.3
1012.4042	2858.1233	7524.3	6637.1
1012.5216	2859.2679	7552.9	6667.1
1012.6389	2860.4118	7594.35	6705.75
1012.7561	2861.555	7595.45	6704.3
1012.8733	2862.6976	7606	6716.1
1012.9905	2863.8395	7620.1	6732.9
1013.1076	2864.9808	7631.05	6744
1013.2247	2866.1214	7616.4	6731.15
1013.3417	2867.2614	7631.5	6745.25
1013.4587	2868.4007	7634.3	6744.75
1013.5757	2869.5393	7603.45	6713.7
1013.6926	2870.6773	7592.7	6705.4
1013.8095	2871.8146	7602.1	6711
1013.9263	2872.9513	7575.55	6688.25
1014.0431	2874.0874	7543.2	6657.4
1014.1599	2875.2227	7528.45	6640.4
1014.2766	2876.3574	7484.5	6598.2
1014.3933	2877.4915	7426.35	6538.7
1014.51	2878.6249	7398.45	6512.3
1014.6266	2879.7577	7358.55	6470
1014.7431	2880.8898	7309.4	6412.55
1014.8596	2882.0212	7271.4	6383.15
1014.9761	2883.152	7271.45	6383.5
1015.0925	2884.2821	7223.8	6338.8
1015.2089	2885.4116	7189.2	6301.95
1015.3253	2886.5405	7176.55	6289.5
1015.4416	2887.6686	7191.8	6302.5
1015.5579	2888.7962	7175.1	6288.45
1015.6741	2889.923	7160.8	6275.45
1015.7903	2891.0493	7139.9	6253.5
1015.9065	2892.1748	7136.85	6249.85
1016.0226	2893.2997	7096.25	6209.2
1016.1387	2894.424	7121.85	6235.35
1016.2547	2895.5476	7126.85	6241.3
1016.3707	2896.6706	7109.25	6222.85
1016.4866	2897.7929	7088.9	6201.9
1016.6025	2898.9145	7103.85	6216.4
1016.7184	2900.0355	7100	6212.65
1016.8342	2901.1559	7113.2	6224.1
1016.95	2902.2756	7130.3	6245.05
1017.0658	2903.3946	7154.6	6266.8
1017.1815	2904.513	7147.5	6257.6
1017.2971	2905.6308	7167.1	6279.35
1017.4127	2906.7479	7167.05	6278.8
1017.5283	2907.8643	7174.1	6285.85
1017.6439	2908.9801	7171.2	6283.75
1017.7594	2910.0953	7145.25	6259
1017.8748	2911.2098	7136.3	6244.5
1017.9902	2912.3236	7105.2	6208.3
1018.1056	2913.4368	7084	6191.75
1018.2209	2914.5494	7049.05	6162.15
1018.3362	2915.6613	7003.1	6111.65
1018.4515	2916.7725	6977.6	6087.2
1018.5667	2917.8831	6935.8	6047.35
1018.6819	2918.9931	6892	6002.5
1018.797	2920.1024	6847.65	5958.9
1018.9121	2921.211	6818.8	5933.35
1019.0271	2922.319	6761.3	5873.8
1019.1421	2923.4264	6765.85	5878.85
1019.2571	2924.5331	6745.1	5859.4
1019.372	2925.6391	6719	5830.3
1019.4869	2926.7445	6688.85	5803.35
1019.6017	2927.8493	6658.25	5771.75
1019.7165	2928.9534	6659.45	5769
1019.8313	2930.0569	6630.5	5740.35
1019.946	2931.1597	6605.95	5716.95
1020.0606	2932.2619	6606.15	5718.35
1020.1753	2933.3634	6595.05	5707.25
1020.2899	2934.4643	6596.85	5701.35
1020.4044	2935.5645	6570.4	5677.55
1020.5189	2936.6641	6525.4	5633.85
1020.6334	2937.763	6476.75	5589.5
1020.7478	2938.8613	6432.65	5544.5
1020.8622	2939.959	6359.4	5468.7
1020.9765	2941.056	6296.45	5411.45
1021.0908	2942.1523	6206.2	5319.15
1021.2051	2943.248	6104.9	5216.35
1021.3193	2944.3431	6022.2	5134.55
1021.4334	2945.4375	5916.6	5028.75
1021.5476	2946.5313	5829.45	4942.3
1021.6617	2947.6244	5714.8	4829.25
1021.7757	2948.7169	5608.3	4720.55
1021.8897	2949.8087	5506.05	4617.85
1022.0037	2950.8999	5411.2	4524.55
1022.1176	2951.9904	5311.9	4425.35
1022.2315	2953.0803	5224.35	4339.1
1022.3453	2954.1696	5169.45	4282.6
1022.4591	2955.2582	5097.35	4209.95
1022.5728	2956.3462	5058.8	4171.1
1022.6865	2957.4335	5005.15	4118.05
1022.8002	2958.5202	4949	4058.95
1022.9138	2959.6062	4908.65	4020.05
1023.0274	2960.6916	4864.3	3977.75
1023.141	2961.7764	4844	3954.85
1023.2545	2962.8605	4816.7	3929.45
1023.3679	2963.9439	4795.05	3909.95
1023.4813	2965.0267	4763.2	3874.65
1023.5947	2966.1089	4771.7	3862.5
1023.708	2967.1905	4718.3	3832.9
1023.8213	2968.2714	4715.8	3828.1
1023.9346	2969.3516	4694.25	3806.7
1024.0478	2970.4312	4670.75	3778.55
1024.1609	2971.5102	4675.45	3788.3
1024.274	2972.5885	4636.4	3750.95
1024.3871	2973.6662	4651.4	3759.25
1024.5002	2974.7432	4635.9	3750.45
1024.6132	2975.8196	4609.9	3721.6
1024.7261	2976.8954	4594.25	3707.95
1024.839	2977.9705	4562.5	3674.55
1024.9519	2979.045	4553.7	3666.75
1025.0647	2980.1188	4510.05	3622.05
1025.1775	2981.192	4494.45	3607.6
1025.2902	2982.2645	4467.15	3579.15
1025.4029	2983.3364	4427.45	3541.4
1025.5156	2984.4077	4379.1	3493
1025.6282	2985.4783	4369.35	3476.1
1025.7407	2986.5483	4310.5	3424.4
1025.8532	2987.6177	4263.3	3377.45
1025.9657	2988.6864	4230.3	3341.6
1026.0782	2989.7545	4204.9	3316.5
1026.1906	2990.8219	4165.9	3280.55
1026.3029	2991.8887	4122.15	3231.1
1026.4152	2992.9548	4084.7	3198.35
1026.5275	2994.0204	4047.45	3161.4
1026.6397	2995.0852	3999.7	3114.55
1026.7519	2996.1495	3986.1	3099.5
1026.864	2997.2131	3931.05	3044.2
1026.9761	2998.276	3907.2	3020.75
1027.0882	2999.3383	3883.35	2996.65
1027.2002	3000.4	3836.85	2948.4
1027.3122	3001.4611	3830.1	2943.95
1027.4241	3002.5215	3793.85	2906.4
1027.536	3003.5812	3768.55	2882.85
1027.6478	3004.6404	3752.4	2865.05
1027.7596	3005.6989	3743.95	2855.25
1027.8714	3006.7567	3710.95	2823.1
1027.9831	3007.8139	3704.95	2796.05
1028.0947	3008.8705	3682.3	2797.3
1028.2064	3009.9264	3672.05	2783.05
1028.3179	3010.9818	3662.95	2776.55
1028.4295	3012.0364	3644.4	2757.65
1028.541	3013.0905	3610.15	2721.9
1028.6524	3014.1439	3622.7	2737.6
1028.7638	3015.1966	3600.6	2714.85
1028.8752	3016.2487	3588.5	2702.3
1028.9865	3017.3002	3586.5	2697.2
1029.0978	3018.3511	3560.1	2672.4
1029.209	3019.4013	3547	2659.6
1029.3202	3020.4509	3543.7	2659.05
1029.4314	3021.4998	3530.7	2643.2
1029.5425	3022.5481	3521.6	2636.4
1029.6535	3023.5958	3513.25	2626.2
1029.7645	3024.6428	3499.05	2613.9
1029.8755	3025.6892	3488.15	2603.05
1029.9864	3026.735	3473.55	2586.35
1030.0973	3027.7802	3466.95	2580
1030.2082	3028.8247	3450.9	2565.3
1030.319	3029.8685	3437.25	2550.55
1030.4297	3030.9118	3446.3	2558.8
1030.5404	3031.9544	3443.85	2557.15
1030.6511	3032.9963	3429.45	2543.75
1030.7617	3034.0376	3419.2	2534.1
1030.8723	3035.0783	3415.1	2524.5
1030.9829	3036.1184	3405.05	2518.3
1031.0934	3037.1578	3401.15	2513.4
1031.2038	3038.1966	3393.35	2505.9
1031.3142	3039.2348	3385.85	2500.35
1031.4246	3040.2723	3383.45	2489.7
1031.5349	3041.3092	3372.3	2486.35
1031.6452	3042.3455	3361.85	2474.45
1031.7554	3043.3811	3354.45	2467.25
1031.8656	3044.4161	3330.75	2441.3
1031.9758	3045.4505	3323.1	2437.2
1032.0859	3046.4842	3314.85	2426.75
1032.1959	3047.5173	3298.9	2413.65
1032.3059	3048.5498	3291.4	2406.9
1032.4159	3049.5816	3271.4	2386.25
1032.5258	3050.6128	3269.15	2381.2
1032.6357	3051.6434	3276.1	2387.65
1032.7455	3052.6734	3262.85	2375.1
1032.8553	3053.7027	3222.25	2336.45
1032.9651	3054.7314	3202.35	2313.9
1033.0748	3055.7594	3194.6	2307.9
1033.1845	3056.7868	3201.3	2314.45
1033.2941	3057.8136	3175	2288.9
1033.4037	3058.8398	3162.9	2278.15
1033.5132	3059.8653	3167.4	2280.35
1033.6227	3060.8902	3139.35	2252.7
1033.7321	3061.9145	3111.7	2226.4
1033.8415	3062.9381	3122.05	2235.25
1033.9509	3063.9612	3113.25	2209.55
1034.0602	3064.9835	3103.3	2214.05
1034.1694	3066.0053	3072.9	2185.55
1034.2787	3067.0264	3056.6	2170.15
1034.3878	3068.0469	3067.1	2179.05
1034.497	3069.0668	3049.2	2160.35
1034.6061	3070.086	3031.75	2147
1034.7151	3071.1046	3012.55	2124.95
1034.8241	3072.1226	2999.5	2111.85
1034.9331	3073.1399	2977.8	2091.15
1035.042	3074.1567	2979.05	2092.8
1035.1508	3075.1727	2955.6	2067.25
1035.2597	3076.1882	2950.05	2063.7
1035.3684	3077.203	2926.3	2040.55
1035.4772	3078.2173	2921.65	2032.45
1035.5859	3079.2308	2893.75	2002.85
1035.6945	3080.2438	2891.85	2002.85
1035.8031	3081.2561	2882.3	1996.85
1035.9117	3082.2678	2855.05	1970
1036.0202	3083.2789	2846.9	1960
1036.1286	3084.2893	2835.6	1950.3
1036.2371	3085.2991	2844.9	1957.65
1036.3454	3086.3083	2818.6	1925.95
1036.4538	3087.3169	2795.15	1906.2
1036.562	3088.3248	2782.75	1894.2
1036.6703	3089.3321	2785.6	1897.4
1036.7785	3090.3388	2779.85	1894.75
1036.8866	3091.3449	2753.4	1864.95
1036.9948	3092.3503	2745.3	1858.2
1037.1028	3093.3551	2732.85	1849.1
1037.2108	3094.3593	2729.95	1845.55
1037.3188	3095.3629	2710.1	1825.3
1037.4267	3096.3658	2699.3	1811.05
1037.5346	3097.3681	2685.55	1798.65
1037.6425	3098.3698	2685.75	1798.05
1037.7503	3099.3708	2677.85	1785.55
1037.858	3100.3713	2650.45	1764
1037.9657	3101.3711	2649.7	1760.55
1038.0734	3102.3702	2763.15	1735.45
1038.181	3103.3688	2644.15	1756.3
1038.2886	3104.3667	2614.75	1728
1038.3961	3105.364	2619.75	1734.65
1038.5036	3106.3607	2593.25	1705.5
1038.611	3107.3568	2584.85	1696.4
1038.7184	3108.3522	2568.75	1684.65
1038.8257	3109.347	2566.05	1679.3
1038.933	3110.3412	2561.5	1671.2
1039.0403	3111.3348	2538.1	1650.35
1039.1475	3112.3277	2538.75	1652.4
1039.2547	3113.32	2529.5	1645.45
1039.3618	3114.3117	2522.15	1635.3
1039.4689	3115.3028	2509.55	1623.2
1039.5759	3116.2932	2506.65	1617.65
1039.6829	3117.2831	2489.6	1596.95
1039.7898	3118.2723	2470.8	1586.2
1039.8967	3119.2608	2458.85	1573
1040.0035	3120.2488	2475.4	1589.1
1040.1103	3121.2361	2450.6	1563.2
1040.2171	3122.2229	2443.7	1559.05
1040.3238	3123.209	2436.7	1549.55
1040.4305	3124.1944	2424.4	1537.65
1040.5371	3125.1793	2424.25	1536.85
1040.6437	3126.1635	2416.4	1530.2
1040.7502	3127.1471	2405.75	1520.6
1040.8567	3128.1301	2391.4	1504.3
1040.9631	3129.1125	2391.2	1504.95
1041.0695	3130.0942	2384.05	1499
1041.1759	3131.0753	2373.1	1477.9
1041.2822	3132.0558	2370.45	1482.35
1041.3884	3133.0357	2356.4	1468.85
1041.4946	3134.015	2354.85	1469.3
1041.6008	3134.9936	2342.85	1454.3
1041.7069	3135.9716	2348.25	1442.1
1041.813	3136.949	2331.6	1443.65
1041.919	3137.9258	2339.15	1449.05
1042.025	3138.902	2332.4	1439.75
1042.1309	3139.8775	2315.5	1428.5
1042.2368	3140.8524	2305.7	1420.35
1042.3427	3141.8267	2304.2	1416.1
1042.4485	3142.8004	2288.8	1402.3
1042.5542	3143.7735	2291	1398.45
1042.6599	3144.7459	2290.4	1401.5
1042.7656	3145.7178	2275.95	1387.3
1042.8712	3146.689	2275.3	1390.6
1042.9768	3147.6596	2265.45	1378
1043.0823	3148.6295	2249.9	1364.15
1043.1878	3149.5989	2244.1	1357.15
1043.2932	3150.5676	2239.95	1354.9
1043.3986	3151.5357	2230.25	1344.2
1043.5039	3152.5032	2230.15	1345.15
1043.6092	3153.4701	2228	1341.4
1043.7145	3154.4364	2209.7	1321.55
1043.8197	3155.402	2202.65	1317.05
1043.9248	3156.367	2197.4	1308.45
1044.03	3157.3315	2220.1	1291.8
1044.135	3158.2952	2180.05	1293.85
1044.24	3159.2584	2178.8	1293.4
1044.345	3160.221	2159.25	1273.45
1044.4499	3161.1829	2157.3	1269.45
1044.5548	3162.1442	2147.75	1260.5
1044.6596	3163.105	2142.05	1255.6
1044.7644	3164.065	2130.6	1245.1
1044.8692	3165.0245	2125.75	1237.9
1044.9739	3165.9834	2117.15	1230.35
1045.0785	3166.9416	2113.75	1228.15
1045.1831	3167.8993	2108.75	1220.9
1045.2877	3168.8563	2105.2	1219.35
1045.3922	3169.8127	2095.1	1211.1
1045.4966	3170.7684	2082.5	1195.85
1045.6011	3171.7236	2091.75	1205.5
1045.7054	3172.6782	2067.25	1180.8
1045.8098	3173.6321	2075.6	1189.45
1045.914	3174.5854	2069.25	1177.05
1046.0183	3175.5381	2054.85	1168.75
1046.1224	3176.4902	2038.2	1154
1046.2266	3177.4417	2044.75	1158.3
1046.3307	3178.3926	2040.55	1155.45
1046.4347	3179.3428	2023.55	1138.9
1046.5387	3180.2924	2025.9	1140.05
1046.6427	3181.2415	2018.1	1131.3
1046.7466	3182.1899	2007.25	1119.1
1046.8504	3183.1377	2010.65	1124.6
1046.9542	3184.0848	1999.35	1110.9
1047.058	3185.0314	1983.5	1097.25
1047.1617	3185.9773	1987.4	1100.2
1047.2654	3186.9227	1978.5	1090.4
1047.369	3187.8674	1984	1097
1047.4726	3188.8115	1971.45	1080.05
1047.5761	3189.755	1963.55	1077.85
1047.6796	3190.6979	1957	1070.35
1047.783	3191.6402	1953.6	1068.95
1047.8864	3192.5818	1943.35	1058.2
1047.9898	3193.5229	1967.5	1057
1048.0931	3194.4633	1940.35	1053.85
1048.1963	3195.4031	1929.25	1042.25
1048.2995	3196.3423	1920.65	1035.65
1048.4027	3197.2809	1923.4	1038.65
1048.5058	3198.2189	1933.95	1048.5
1048.6089	3199.1563	1915.2	1022.15
1048.7119	3200.0931	1898.55	1012.6
1048.8148	3201.0292	1887.55	1001.7
1048.9178	3201.9648	1894.75	1006.65
1049.0206	3202.8997	1900.4	1011.5
1049.1235	3203.834	1887.1	1000.25
1049.2262	3204.7677	1869.85	984.45
1049.329	3205.7008	1872.95	983.8
1049.4317	3206.6333	1870.05	983.85
1049.5343	3207.5652	1876.95	989.05
1049.6369	3208.4964	1858.35	969.95
1049.7394	3209.4271	1858.65	972.05
1049.8419	3210.3571	1849.35	964.8
1049.9444	3211.2865	1847.9	960.7
1050.0468	3212.2154	1840.35	954.6
1050.1491	3213.1436	1838.6	949
1050.2514	3214.0712	1832.1	940.4
1050.3537	3214.9982	1819.9	932.7
1050.4559	3215.9246	1823.3	936.3
1050.5581	3216.8503	1810.6	924.1
1050.6602	3217.7755	1807.25	919.35
1050.7623	3218.7001	1811.15	925.15
1050.8643	3219.624	1795.5	908.95
1050.9663	3220.5473	1796.15	908.75
1051.0682	3221.4701	1794.9	908.05
1051.1701	3222.3922	1794.5	906.9
1051.2719	3223.3137	1780.3	895.9
1051.3737	3224.2346	1785	898.75
1051.4754	3225.1549	1773.2	888.5
1051.5771	3226.0746	1764.8	878.5
1051.6788	3226.9937	1760.05	872.7
1051.7804	3227.9121	1761.65	875.35
1051.8819	3228.83	1754.2	867.45
1051.9834	3229.7473	1748.05	860.5
1052.0849	3230.6639	1743.6	857.55
1052.1863	3231.5799	1739.6	853.75
1052.2876	3232.4954	1730.5	843.3
1052.3889	3233.4102	1732.85	848.25
1052.4902	3234.3244	1726.7	838.95
1052.5914	3235.238	1720	834.05
1052.6926	3236.151	1737.1	825.6
1052.7937	3237.0634	1707.25	821.7
1052.8948	3237.9752	1702.9	817.75
1052.9958	3238.8864	1697.7	811
1053.0968	3239.797	1690.85	803.1
1053.1977	3240.7069	1689.45	801.7
1053.2986	3241.6163	1687.6	799.95
1053.3994	3242.5251	1680.3	794.1
1053.5002	3243.4332	1674.3	786.45
1053.6009	3244.3408	1681.35	795.6
1053.7016	3245.2477	1672.3	786.45
1053.8022	3246.154	1664.55	776.55
1053.9028	3247.0598	1655.2	769.65
1054.0034	3247.9649	1649.2	762.5
1054.1039	3248.8694	1648.7	763.85
1054.2043	3249.7733	1641.3	755.55
1054.3047	3250.6766	1633.1	745.9
1054.4051	3251.5793	1630.3	744.1
1054.5054	3252.4814	1621.4	733.95
1054.6056	3253.3829	1614.6	728.3
1054.7058	3254.2838	1629.25	742.6
1054.806	3255.1841	1615.8	728.55
1054.9061	3256.0838	1609.15	724.05
1055.0061	3256.9829	1598.75	712.35
1055.1062	3257.8814	1597	708.4
1055.2061	3258.7792	1590.85	702.8
1055.306	3259.6765	1584.6	696.55
1055.4059	3260.5731	1572.15	686
1055.5057	3261.4692	1568.75	682.8
1055.6055	3262.3647	1552.5	663.95
1055.7052	3263.2595	1543.4	657.95
1055.8049	3264.1538	1542.75	656.45
1055.9045	3265.0474	1536	649.4
1056.0041	3265.9404	1519.4	634.75
1056.1036	3266.8329	1510.55	623.1
1056.2031	3267.7247	1507.9	611.1
1056.3025	3268.616	1482.95	597.6
1056.4019	3269.5066	1472.8	587.85
1056.5013	3270.3966	1461.4	572.2
1056.6005	3271.286	1439.75	555.6
