Software Version:	3.9.2.0
Unit SN:	10000200
Spectrometer SN:	6960
Date:	3/6/2024 9:56:16 AM
Data Line Index:	25
Spectral Points:	2048
Integration time (ms):	125
Averages:	20
Delay (ms):	30
Sequence Number:	1
Processing:	dark subtract
Laser Power (mW):	300
Laser Current (mA):	826
Laser Diode Temp (C):	25.1
Laser Case Temp (C):	24.5
System Temp (C):	24.3
Spectrometer Temp (C):	22
CCD Temp (C):	0.002
Secondary Temp (C):	20.011
Heatsink Temp (C):	18.31
CCDPCB Temp (C):	31.038
SecondaryPCB Temp (C):	26.225

Wavelength	RamanShift	Raw Counts	Dark Subtracted
787.061	30.1047	720.8	311.4
787.2016	32.3739	728.8	319.95
787.3422	34.6426	751.8	344.35
787.4828	36.9109	775.8	365.15
787.6235	39.1787	803.15	388.85
787.7642	41.4461	828.3	411.05
787.9049	43.7131	854.35	431.9
788.0456	45.9796	882	458.95
788.1863	48.2456	914.3	487.2
788.3271	50.5112	949.5	517.8
788.4679	52.7764	973.75	540.65
788.6087	55.0411	1015.65	576.4
788.7496	57.3054	1047.75	604.6
788.8904	59.5692	1088.2	643.8
789.0313	61.8326	1132.25	685.15
789.1722	64.0955	1181.85	730.45
789.3132	66.3579	1239.6	785.15
789.4541	68.6199	1310.85	851.4
789.5951	70.8815	1439.6	974.65
789.7361	73.1426	1719.45	1251.2
789.8771	75.4032	2414.5	1942.15
790.0181	77.6634	4196.5	3722.45
790.1592	79.9231	8637.3	8158
790.3003	82.1824	19357.4	18870.4
790.4414	84.4412	44663.5	44160.75
790.5825	86.6995	60016.7	59497.95
790.7237	88.9574	63463.95	62930.65
790.8648	91.2148	64559.1	64016.5
791.006	93.4717	64772.1	64221.2
791.1472	95.7282	64850.2	64297.65
791.2885	97.9842	64881.65	64326.8
791.4297	100.2398	64895.4	64334.6
791.571	102.4949	64887.1	64323.05
791.7123	104.7495	64899.6	64334.1
791.8536	107.0036	64876.85	64307.9
791.9949	109.2573	64913.95	64349.65
792.1363	111.5105	64875.1	64308.95
792.2777	113.7632	64899.05	64329.4
792.4191	116.0154	64918.3	64336.95
792.5605	118.2672	64940.25	64365.4
792.7019	120.5185	64938.1	64359.1
792.8434	122.7693	64939.25	64360
792.9849	125.0197	64905.1	64320
793.1264	127.2696	64983.8	64395.5
793.2679	129.519	64976.1	64383.85
793.4094	131.7679	65005.55	64411.15
793.551	134.0163	64931.95	64334.35
793.6926	136.2642	64959.75	64360.1
793.8342	138.5117	65010.85	64400.15
793.9758	140.7587	64987.05	64382.8
794.1175	143.0052	64985.7	64379.65
794.2591	145.2512	64947.3	64336.25
794.4008	147.4967	65007.05	64395.9
794.5425	149.7417	64988.65	64376
794.6842	151.9863	64989.2	64374.1
794.826	154.2304	64963.55	64341.45
794.9677	156.4739	64985.2	64357.65
795.1095	158.717	65010.05	64384.55
795.2513	160.9596	64996	64363.9
795.3931	163.2017	64959.85	64326.95
795.535	165.4433	65009.85	64374.55
795.6768	167.6844	64986.5	64350.7
795.8187	169.925	65007.65	64370.1
795.9606	172.1651	64991.15	64352.3
796.1025	174.4047	65009.05	64361.65
796.2445	176.6439	65005.7	64357.2
796.3864	178.8825	64998.8	64345.4
796.5284	181.1206	65024.6	64366.65
796.6704	183.3582	65024.8	64366.2
796.8124	185.5954	65004.95	64343.7
796.9544	187.832	65021	64357.05
797.0965	190.0681	64988.45	64319.65
797.2386	192.3037	65029.85	64358.7
797.3806	194.5388	65075.75	64405.35
797.5228	196.7734	64969.05	64291.9
797.6649	199.0075	65074.55	64399.45
797.807	201.2411	65032.5	64354.85
797.9492	203.4742	65089.1	64408.15
798.0914	205.7068	65082	64393.9
798.2336	207.9389	65080.25	64396.35
798.3758	210.1704	65068.55	64387.95
798.518	212.4015	65116.6	64446.55
798.6603	214.632	65060.95	64395.95
798.8025	216.862	65118.2	64455.05
798.9448	219.0915	65087.8	64422.4
799.0871	221.3205	65082.85	64414.65
799.2294	223.549	65129.75	64465.65
799.3718	225.777	65131.85	64468.25
799.5141	228.0044	65151.6	64480.85
799.6565	230.2314	65117.9	64447.55
799.7989	232.4578	65118.8	64444.25
799.9413	234.6837	65136.05	64451.8
800.0837	236.909	65233.4	64545.25
800.2262	239.1339	65107.3	64395.05
800.3687	241.3582	65164.1	64464.1
800.5111	243.582	65160.7	64434.4
800.6536	245.8053	65166.7	64452.45
800.7961	248.0281	65174.1	64464.85
800.9387	250.2503	65188.9	64474.35
801.0812	252.472	65144	64430.45
801.2238	254.6932	65174	64457.65
801.3664	256.9139	65166.55	64449.1
801.509	259.134	65245.9	64524.15
801.6516	261.3536	65146.3	64428
801.7942	263.5727	65199.9	64477.8
801.9369	265.7912	65193.5	64473.7
802.0795	268.0092	65187.15	64467.3
802.2222	270.2267	65200.75	64480.75
802.3649	272.4436	65157.95	64432.9
802.5076	274.6601	65196.05	64460
802.6504	276.8759	65222.75	64493.75
802.7931	279.0913	65195	64464.25
802.9359	281.3061	65217.05	64487.35
803.0787	283.5204	65210.9	64476.3
803.2215	285.7341	65204.15	64465.9
803.3643	287.9473	65254.8	64507.15
803.5071	290.16	65218.05	64476.5
803.6499	292.3721	65233.7	64500.2
803.7928	294.5837	65199.95	64462.5
803.9357	296.7947	65172.4	64434.6
804.0786	299.0052	65243.45	64504.65
804.2215	301.2152	65217.55	64479.2
804.3644	303.4246	65245.95	64508.45
804.5074	305.6334	65250.6	64511.25
804.6503	307.8418	65200.05	64459
804.7933	310.0495	65202.05	64455.7
804.9363	312.2568	65199.4	64457
805.0793	314.4635	65202.9	64458.35
805.2223	316.6696	65220.75	64469.35
805.3653	318.8752	65254.95	64499.35
805.5084	321.0802	65161.3	64406.6
805.6514	323.2847	65191.45	64440.25
805.7945	325.4887	65194	64439.05
805.9376	327.692	65176.8	64418.85
806.0807	329.8949	65207.6	64448.85
806.2238	332.0972	65183.95	64424.25
806.367	334.2989	65193.35	64429.95
806.5101	336.5001	65225.35	64465
806.6533	338.7007	65161.2	64398.45
806.7965	340.9008	65197.1	64432.35
806.9397	343.1003	65203.15	64435.15
807.0829	345.2992	65236.65	64470
807.2261	347.4976	65197.95	64430.4
807.3693	349.6955	65208.35	64435.1
807.5126	351.8927	65184.85	64413.95
807.6559	354.0895	65218.85	64435.5
807.7991	356.2856	65205.5	64429.8
807.9424	358.4812	65239.1	64464
808.0857	360.6763	65185.4	64406.85
808.2291	362.8707	65232.85	64454.8
808.3724	365.0646	65192.5	64410.7
808.5158	367.258	65203.5	64422.85
808.6591	369.4508	65171.7	64383.9
808.8025	371.643	65220.8	64433.05
808.9459	373.8346	65199.75	64413
809.0893	376.0257	65196.9	64404.95
809.2327	378.2162	65185.95	64396.3
809.3762	380.4062	65138.1	64346
809.5196	382.5956	65182.35	64395.9
809.6631	384.7844	65180	64396.75
809.8066	386.9726	65205	64425.65
809.9501	389.1603	65203.85	64422.15
810.0936	391.3474	65152.1	64339
810.2371	393.5339	65195.45	64410.45
810.3806	395.7199	65144.9	64362.15
810.5241	397.9052	65153.9	64371.95
810.6677	400.09	65168	64382.8
810.8113	402.2743	65205.75	64420.5
810.9548	404.4579	65163.35	64377.35
811.0984	406.641	65163.6	64376.4
811.2421	408.8235	65181.55	64390.3
811.3857	411.0054	65185	64390.3
811.5293	413.1868	65177.15	64381.6
811.673	415.3675	65170.75	64368.45
811.8166	417.5477	65174.45	64375.1
811.9603	419.7273	65166.65	64364.55
812.104	421.9064	65160.35	64349.45
812.2477	424.0848	65169	64366.8
812.3914	426.2627	65199.6	64393.25
812.5351	428.4399	65147.05	64342.4
812.6788	430.6166	65116.8	64308.7
812.8226	432.7928	65172.6	64362
812.9663	434.9683	65124.4	64314.15
813.1101	437.1432	65127.65	64317.75
813.2539	439.3176	65150.65	64342.35
813.3977	441.4914	65100.1	64296.55
813.5415	443.6645	65103.95	64294.5
813.6853	445.8371	65106.3	64295.95
813.8291	448.0091	65097.2	64286.4
813.973	450.1806	65083.4	64272.45
814.1168	452.3514	65084.05	64272.05
814.2607	454.5216	65063.8	64242.3
814.4046	456.6913	65087.3	64271
814.5485	458.8603	65096.95	64285.25
814.6924	461.0288	65061.6	64249.05
814.8363	463.1967	65085.15	64275.9
814.9802	465.3639	65080.5	64267
815.1241	467.5306	65022.75	64208.4
815.2681	469.6967	65053.8	64239.1
815.412	471.8622	65070.05	64256.5
815.556	474.0271	65050.55	64239.15
815.7	476.1914	65055.85	64237.95
815.844	478.3551	65065.65	64245.6
815.988	480.5182	65087.4	64272.8
816.132	482.6807	65042.3	64227.8
816.276	484.8426	65055.8	64243.6
816.4201	487.0039	65089.4	64274.2
816.5641	489.1647	65078	64258.95
816.7082	491.3248	65036.55	64218.5
816.8522	493.4843	65090.1	64271.4
816.9963	495.6432	65097	64278.55
817.1404	497.8015	65045.7	64223.15
817.2845	499.9592	65060.15	64232
817.4286	502.1163	65059.5	64231.05
817.5727	504.2728	65061.5	64233.8
817.7168	506.4287	65066.65	64248.4
817.861	508.5839	65026.95	64204.05
818.0051	510.7386	65045.55	64222
818.1493	512.8927	65052.5	64223.85
818.2935	515.0461	65040.45	64208.65
818.4377	517.199	65074.75	64244.5
818.5818	519.3512	65053.05	64222.3
818.726	521.5029	65038.7	64202.05
818.8703	523.6539	65042.9	64211.7
819.0145	525.8043	65010	64175.25
819.1587	527.9541	65057.5	64221.3
819.303	530.1033	65052.3	64218
819.4472	532.2519	65021.05	64186.65
819.5915	534.3999	65044.15	64206.7
819.7357	536.5472	65064.7	64229.65
819.88	538.694	65017.3	64183.6
820.0243	540.8401	65048.75	64211.05
820.1686	542.9856	65040.45	64201.05
820.3129	545.1305	65042.2	64201.55
820.4572	547.2748	65019.9	64175.6
820.6016	549.4185	65023.1	64180.35
820.7459	551.5615	65036.3	64192.95
820.8902	553.704	65030.6	64187.25
821.0346	555.8458	65017	64179
821.1789	557.987	65010.25	64171.2
821.3233	560.1276	65032.45	64191.8
821.4677	562.2675	65014.05	64174
821.6121	564.4069	65017.7	64178.8
821.7565	566.5456	65026.25	64188.8
821.9009	568.6837	65003.4	64167.75
822.0453	570.8212	65024.15	64182.8
822.1897	572.958	64979.75	64137.4
822.3342	575.0942	64995.35	64156.2
822.4786	577.2299	64971.45	64130.05
822.6231	579.3648	64974.3	64138.45
822.7675	581.4992	64963.4	64129.8
822.912	583.6329	64960.55	64128.25
823.0565	585.766	64956.7	64119.7
823.201	587.8985	64960.5	64121.6
823.3454	590.0304	64914.05	64062.15
823.4899	592.1616	64940.75	64092.55
823.6345	594.2922	64930.6	64084.6
823.779	596.4222	64916.05	64066.4
823.9235	598.5515	64920.45	64070.25
824.068	600.6802	64918.2	64069.9
824.2126	602.8083	64900.55	64054.75
824.3571	604.9358	64906.1	64057.7
824.5017	607.0626	64907.75	64060.2
824.6462	609.1888	64880.55	64026.95
824.7908	611.3144	64897.95	64043.85
824.9354	613.4393	64892.65	64038.45
825.08	615.5636	64867.95	64011.6
825.2246	617.6873	64878.9	64025.05
825.3692	619.8103	64876.15	64021.65
825.5138	621.9327	64875	64019.45
825.6584	624.0544	64894.85	64042.65
825.803	626.1756	64873.6	64022.7
825.9477	628.2961	64869.05	64012.1
826.0923	630.4159	64866.55	64009.9
826.237	632.5351	64862.65	64006.3
826.3816	634.6537	64881.4	64022.75
826.5263	636.7716	64840.4	63977.25
826.6709	638.8889	64859	63997.05
826.8156	641.0056	64861.15	64002.2
826.9603	643.1216	64853.9	63993.95
827.105	645.237	64860.4	64000.7
827.2497	647.3518	64846.5	63989.35
827.3944	649.4659	64841.1	63984.5
827.5391	651.5793	64836.4	63982.7
827.6838	653.6922	64839.9	63986.05
827.8285	655.8043	64823.95	63965.3
827.9733	657.9159	64847.15	63988.3
828.118	660.0268	64814.25	63953.55
828.2627	662.137	64825.4	63964.05
828.4075	664.2466	64821.55	63956.8
828.5522	666.3556	64821.8	63960.45
828.697	668.4639	64810.75	63947.4
828.8418	670.5716	64811.9	63950.7
828.9865	672.6786	64814.8	63953.55
829.1313	674.785	64789.4	63922.65
829.2761	676.8907	64796.6	63933.4
829.4209	678.9958	64803.45	63939.75
829.5657	681.1002	64804.45	63940.5
829.7105	683.204	64788.6	63918.85
829.8553	685.3072	64782.55	63918.3
830.0001	687.4097	64776.45	63912.95
830.1449	689.5115	64781.35	63912.65
830.2898	691.6127	64783.15	63916.6
830.4346	693.7132	64770.5	63905.45
830.5794	695.8131	64769.55	63880.25
830.7243	697.9123	64777.15	63908.2
830.8691	700.0109	64780	63908.85
831.014	702.1089	64770.9	63904.45
831.1588	704.2061	64767.8	63899.3
831.3037	706.3028	64765	63895.1
831.4486	708.3987	64753.75	63885.05
831.5935	710.4941	64746.7	63875.35
831.7383	712.5887	64744.45	63874.3
831.8832	714.6827	64753.25	63877.15
832.0281	716.7761	64755.45	63887.55
832.173	718.8688	64747.55	63877.15
832.3179	720.9608	64746.8	63870.95
832.4628	723.0522	64744.5	63866.05
832.6077	725.1429	64742.4	63867.6
832.7527	727.233	64752.7	63881.05
832.8976	729.3224	64739.8	63867.45
833.0425	731.4112	64738.55	63865.6
833.1874	733.4993	64722.05	63846.65
833.3324	735.5867	64712.25	63837.4
833.4773	737.6735	64715.05	63838.65
833.6222	739.7596	64715.05	63838.55
833.7672	741.845	64695	63821.5
833.9122	743.9298	64699	63824.2
834.0571	746.014	64692.75	63815
834.2021	748.0974	64682.25	63806.65
834.347	750.1802	64673.2	63793.8
834.492	752.2624	64663.1	63786.55
834.637	754.3439	64656.05	63776.35
834.782	756.4247	64658.65	63771.35
834.9269	758.5048	64660.3	63782.8
835.0719	760.5843	64647.75	63766.5
835.2169	762.6631	64656.75	63776.75
835.3619	764.7413	64640.55	63761.9
835.5069	766.8188	64636.85	63756.9
835.6519	768.8956	64637.45	63754.95
835.7969	770.9718	64645.45	63767.45
835.9419	773.0473	64636.95	63756.75
836.0869	775.1221	64611.2	63733.7
836.232	777.1962	64601.05	63721.45
836.377	779.2697	64567.25	63687.55
836.522	781.3426	64597.85	63699.15
836.667	783.4147	64582.05	63701.05
836.8121	785.4862	64594.9	63715.45
836.9571	787.557	64542.1	63660.1
837.1021	789.6271	64589.55	63704.85
837.2472	791.6966	64535.85	63654.25
837.3922	793.7654	64486.15	63603.75
837.5373	795.8335	64500	63617.65
837.6823	797.901	64512.4	63632.55
837.8274	799.9678	64502.35	63617.35
837.9724	802.0339	64472.1	63590.65
838.1175	804.0993	64466.7	63573.3
838.2626	806.1641	64435.8	63554.65
838.4076	808.2282	64438.05	63555.3
838.5527	810.2916	64415.55	63527.7
838.6978	812.3544	64473.2	63593.25
838.8428	814.4164	64392.25	63510.4
838.9879	816.4778	64388.9	63503.2
839.133	818.5385	64395.95	63510.95
839.2781	820.5986	64402.5	63518.2
839.4232	822.658	64395.05	63507.35
839.5682	824.7166	64390.4	63505.75
839.7133	826.7747	64342.9	63456.75
839.8584	828.832	64374.2	63489.2
840.0035	830.8886	64385.35	63494.8
840.1486	832.9446	64393.15	63504.5
840.2937	834.9999	64298	63414.55
840.4388	837.0545	64334.7	63447.3
840.5839	839.1085	64363.2	63476.35
840.729	841.1618	64340.15	63451.05
840.8741	843.2143	64261.5	63375.55
841.0192	845.2662	64259.45	63372.15
841.1643	847.3175	64285.1	63398.9
841.3095	849.368	64147.6	63259.35
841.4546	851.4179	64271.2	63382.35
841.5997	853.467	64205.8	63318.4
841.7448	855.5155	64233	63345.45
841.8899	857.5633	64175.35	63287.95
842.0351	859.6105	64163.65	63276.9
842.1802	861.6569	64206.75	63316.9
842.3253	863.7027	64094.45	63202.3
842.4704	865.7478	64143.15	63253.2
842.6156	867.7922	64118.3	63229.65
842.7607	869.8359	64134.4	63243.85
842.9058	871.8789	64030.85	63140.2
843.0509	873.9212	64073.25	63154.2
843.1961	875.9629	64098.25	63207.95
843.3412	878.0039	64065.2	63175.35
843.4863	880.0441	64040.55	63152.8
843.6315	882.0837	64042.55	63155.3
843.7766	884.1226	64044.05	63153.05
843.9218	886.1609	64036.55	63145.4
844.0669	888.1984	64001.5	63112.5
844.212	890.2352	64086.4	63198.05
844.3572	892.2714	63989.65	63092.55
844.5023	894.3069	64036.8	63145.9
844.6475	896.3416	63977.5	63086.65
844.7926	898.3757	63987	63094.2
844.9377	900.4091	63861.45	62967.55
845.0829	902.4418	64001.75	63104.5
845.228	904.4739	63917.1	63024.3
845.3732	906.5052	63948.95	63053.15
845.5183	908.5358	63884.05	62996.5
845.6635	910.5658	63844.25	62951.4
845.8086	912.595	63863.45	62967.65
845.9538	914.6236	63761.55	62869.05
846.0989	916.6515	63905.8	63012.75
846.2441	918.6786	63742	62847.75
846.3892	920.7051	63794.15	62897.8
846.5344	922.7309	63761.2	62868.4
846.6795	924.756	63766.7	62875.7
846.8246	926.7804	63722.65	62830
846.9698	928.8041	63636	62739.95
847.1149	930.8272	63684.85	62790.4
847.2601	932.8495	63683.7	62786.95
847.4052	934.8711	63614.15	62716
847.5504	936.892	63579.35	62683.45
847.6955	938.9123	63623.35	62726.45
847.8407	940.9318	63562.6	62667.9
847.9858	942.9506	63566.15	62669.6
848.131	944.9688	63560.2	62664.7
848.2761	946.9862	63446.5	62551.9
848.4213	949.003	63482.15	62587.35
848.5664	951.019	63404.2	62511.05
848.7115	953.0344	63408.65	62512.85
848.8567	955.0491	63385.65	62487.5
849.0018	957.063	63409.55	62515.7
849.147	959.0763	63426.4	62531.25
849.2921	961.0888	63354.7	62458.1
849.4373	963.1007	63416.05	62516.9
849.5824	965.1119	63383.75	62491.4
849.7275	967.1223	63343.5	62453.6
849.8727	969.1321	63372.95	62482.75
850.0178	971.1412	63321.35	62428.25
850.1629	973.1495	63282.65	62388.45
850.3081	975.1572	63302.35	62375.2
850.4532	977.1641	63277.85	62383.3
850.5983	979.1704	63252.2	62353
850.7435	981.1759	63246.65	62346.75
850.8886	983.1808	63213.35	62315.1
851.0337	985.1849	63213.4	62305.9
851.1788	987.1884	63218.35	62321.1
851.324	989.1911	63201.9	62304.15
851.4691	991.1932	63100.6	62203.75
851.6142	993.1945	63112.45	62216.75
851.7593	995.1951	63118.5	62219.4
851.9045	997.1951	63071	62168.85
852.0496	999.1943	63033	62135.4
852.1947	1001.1928	63000.85	62101.2
852.3398	1003.1906	63032.55	62136.1
852.4849	1005.1877	62897.3	61999.6
852.63	1007.1841	62872.1	61977.7
852.7751	1009.1798	62880.8	61984.95
852.9202	1011.1748	62858.4	61959.45
853.0653	1013.1691	62857.7	61959.4
853.2104	1015.1627	62579.55	61681.75
853.3555	1017.1556	62700.5	61805.05
853.5006	1019.1477	62717.2	61822.35
853.6457	1021.1392	62604.25	61710.8
853.7908	1023.1299	62400	61507.9
853.9359	1025.12	62508.2	61615.1
854.081	1027.1093	62425.9	61538.8
854.2261	1029.0979	62395.55	61509.9
854.3712	1031.0859	62351.85	61462.6
854.5163	1033.0731	62206.6	61316.1
854.6613	1035.0596	62282.15	61385.7
854.8064	1037.0454	62249.3	61355.25
854.9515	1039.0304	62146.5	61248.6
855.0965	1041.0148	61953.45	61053.05
855.2416	1042.9985	62020.65	61120.7
855.3867	1044.9814	62115.25	61220.85
855.5317	1046.9636	61907.9	61007.9
855.6768	1048.9452	61962.35	61065
855.8219	1050.926	61924.85	61028.3
855.9669	1052.9061	61912.9	61016.45
856.112	1054.8855	61892.2	60996.35
856.257	1056.8642	61807.35	60910.2
856.4021	1058.8421	61693.75	60794.1
856.5471	1060.8194	61707.7	60807.4
856.6921	1062.7959	61577.3	60677
856.8372	1064.7717	61727.95	60828.45
856.9822	1066.7469	61673.95	60775.65
857.1272	1068.7213	61666.85	60768.4
857.2723	1070.695	61571.35	60671.9
857.4173	1072.6679	61418.55	60521.45
857.5623	1074.6402	61543.2	60644.85
857.7073	1076.6117	61426.55	60522.35
857.8523	1078.5826	61427.45	60526.25
857.9973	1080.5527	61409.65	60507.45
858.1423	1082.5221	61244.25	60347.35
858.2873	1084.4908	61303.7	60404.4
858.4323	1086.4587	61192.35	60296.55
858.5773	1088.426	61163.5	60264.05
858.7223	1090.3925	61166.7	60263.15
858.8673	1092.3584	61120.7	60224.45
859.0123	1094.3235	60993.55	60095.35
859.1573	1096.2879	61003.25	60103.3
859.3022	1098.2515	61076.75	60179.6
859.4472	1100.2145	60971.95	60074.8
859.5922	1102.1767	60925.1	60024.75
859.7371	1104.1382	60990.3	60094.2
859.8821	1106.099	60896.4	59992.85
860.027	1108.0591	60833.75	59937.95
860.172	1110.0185	60643.2	59740.85
860.3169	1111.9771	60880.25	59982.85
860.4619	1113.9351	60762.5	59863.75
860.6068	1115.8923	60689.25	59789.65
860.7517	1117.8488	60600.35	59700.15
860.8967	1119.8045	60435.95	59534.6
861.0416	1121.7596	60521.8	59624.6
861.1865	1123.7139	60409.85	59511.4
861.3314	1125.6675	60412.05	59513.55
861.4763	1127.6204	60334.7	59435.05
861.6212	1129.5726	60204.1	59302.45
861.7661	1131.524	60307.15	59408.9
861.911	1133.4748	60298.05	59400
862.0559	1135.4248	60149.35	59249.2
862.2008	1137.3741	60120.85	59222
862.3457	1139.3226	60098.55	59198.3
862.4905	1141.2705	60083.4	59183.15
862.6354	1143.2176	60013.5	59109.3
862.7803	1145.164	59902.45	59002.15
862.9251	1147.1097	59945.8	59046.35
863.07	1149.0546	59909.5	59007.65
863.2148	1150.9989	59942.65	59042.75
863.3597	1152.9424	59807.55	58907.85
863.5045	1154.8852	59898.25	59000.65
863.6493	1156.8272	59767.1	58866.35
863.7942	1158.7686	59893.15	58985.5
863.939	1160.7092	59657.75	58755.2
864.0838	1162.6491	59644	58741.9
864.2286	1164.5883	59697.4	58800.7
864.3734	1166.5267	59554.1	58654.15
864.5182	1168.4644	59636.7	58735.55
864.663	1170.4014	59624.95	58718.8
864.8078	1172.3377	59672.5	58774.9
864.9526	1174.2732	59736.1	58833.35
865.0974	1176.2081	59625.95	58726.05
865.2421	1178.1421	59624.85	58721.05
865.3869	1180.0755	59730.55	58835
865.5317	1182.0082	59629.85	58733
865.6764	1183.9401	59662.55	58763.5
865.8212	1185.8713	59509.95	58613.55
865.9659	1187.8017	59505.25	58609.6
866.1106	1189.7315	59489.05	58596.7
866.2554	1191.6605	59360.15	58468.65
866.4001	1193.5888	59274.45	58380.35
866.5448	1195.5163	59148.95	58253.3
866.6895	1197.4432	59112	58213.6
866.8342	1199.3693	59114.45	58214.4
866.9789	1201.2947	59036.75	58133.85
867.1236	1203.2193	59036.7	58138.25
867.2683	1205.1432	58865.25	57965.9
867.413	1207.0664	58838.4	57939.35
867.5576	1208.9889	58807.4	57906.4
867.7023	1210.9106	58810.1	57911.5
867.847	1212.8316	58682.1	57782.55
867.9916	1214.7519	58674.6	57764.9
868.1363	1216.6715	58626.9	57728
868.2809	1218.5903	58585	57687.35
868.4255	1220.5084	58542.6	57642.2
868.5701	1222.4257	58568	57669.15
868.7148	1224.3424	58463.8	57567.15
868.8594	1226.2583	58336.5	57432.9
869.004	1228.1735	58404.4	57506.25
869.1486	1230.0879	58193.05	57294
869.2932	1232.0016	58351.1	57451.8
869.4377	1233.9146	58178.25	57276
869.5823	1235.8269	58170.7	57272.35
869.7269	1237.7384	58168.95	57266.7
869.8715	1239.6492	58080.25	57180.95
870.016	1241.5592	57868.05	56968.1
870.1606	1243.4686	58001.8	57104.8
870.3051	1245.3772	57783.4	56886.55
870.4496	1247.285	57932.85	57029.75
870.5941	1249.1922	57745.7	56847.7
870.7387	1251.0986	57863.4	56965.25
870.8832	1253.0042	57717.15	56817.15
871.0277	1254.9092	57824.15	56925.6
871.1722	1256.8134	57499.35	56602.1
871.3167	1258.7169	57772.85	56875.05
871.4611	1260.6196	57544.55	56651.2
871.6056	1262.5216	57538.45	56639.2
871.7501	1264.4229	57556.45	56660.4
871.8945	1266.3234	57685.55	56787.3
872.039	1268.2232	57596.25	56695.9
872.1834	1270.1223	57448.5	56547.85
872.3278	1272.0207	57416.35	56516.9
872.4723	1273.9183	57377.45	56473.65
872.6167	1275.8151	57350.15	56450.4
872.7611	1277.7113	57358.35	56458.7
872.9055	1279.6067	57191	56292.2
873.0499	1281.5014	57173.85	56273.45
873.1943	1283.3953	57348.45	56448
873.3386	1285.2885	57323.4	56424.9
873.483	1287.181	57360.4	56461.55
873.6274	1289.0727	57416	56520.6
873.7717	1290.9637	57119.9	56223.3
873.9161	1292.854	57536.5	56641.55
874.0604	1294.7435	57383.1	56482.95
874.2047	1296.6323	57342.65	56443.5
874.349	1298.5204	57196.6	56292.8
874.4933	1300.4077	57305.15	56404.05
874.6376	1302.2943	57078.95	56181.55
874.7819	1304.1802	56938.7	56041.1
874.9262	1306.0653	56803.7	55901.15
875.0705	1307.9497	56683.6	55786.7
875.2147	1309.8333	56679.85	55781.7
875.359	1311.7162	56552.7	55655.45
875.5032	1313.5984	56628.45	55726.2
875.6475	1315.4798	56388.6	55487.7
875.7917	1317.3605	56360.9	55445.6
875.9359	1319.2405	56335.2	55433.55
876.0801	1321.1197	56106.95	55205.85
876.2243	1322.9982	56163.6	55257.2
876.3685	1324.876	55990.8	55092.5
876.5127	1326.753	55800.25	54902.05
876.6569	1328.6293	56092.6	55189.55
876.801	1330.5048	55884.5	54982.75
876.9452	1332.3796	55634.85	54735.75
877.0893	1334.2537	55547.7	54624.55
877.2335	1336.127	55653.85	54753.9
877.3776	1337.9996	55394.55	54493.3
877.5217	1339.8714	55612.65	54714.35
877.6658	1341.7426	55131.4	54188.3
877.8099	1343.6129	55384.7	54484.05
877.954	1345.4826	55386.45	54488.25
878.0981	1347.3515	54959.25	54056.1
878.2422	1349.2196	55241.75	54338.45
878.3862	1351.087	55175.85	54278.45
878.5303	1352.9537	55129.55	54229.3
878.6743	1354.8197	55214	54314.2
878.8184	1356.6849	55172.3	54269.5
878.9624	1358.5493	55088.4	54188.25
879.1064	1360.4131	54917.25	54016
879.2504	1362.276	55263.2	54364.8
879.3944	1364.1383	54827.5	53927.6
879.5384	1365.9998	54631.05	53724.9
879.6823	1367.8606	54759.55	53858.85
879.8263	1369.7206	54500.3	53599.9
879.9702	1371.5799	54352.4	53448.8
880.1142	1373.4384	54183.25	53283.95
880.2581	1375.2962	54222.5	53323.05
880.402	1377.1533	53723.75	52824.75
880.5459	1379.0096	53519.1	52621.5
880.6898	1380.8652	53467.65	52568.5
880.8337	1382.7201	53253.8	52353.85
880.9776	1384.5742	53208.55	52309.05
881.1215	1386.4275	52785.8	51886.6
881.2653	1388.2802	52824.1	51924.25
881.4092	1390.132	52949.05	52047.6
881.553	1391.9832	52476.05	51574.8
881.6968	1393.8336	52318.75	51417.95
881.8406	1395.6832	52310.45	51409.55
881.9844	1397.5322	52364.4	51466.6
882.1282	1399.3803	51984.25	51079.85
882.272	1401.2278	51925.2	51024.05
882.4158	1403.0745	51814.25	50914.4
882.5595	1404.9204	51716.35	50817.7
882.7033	1406.7656	51705.85	50808.05
882.847	1408.6101	51394.85	50495.35
882.9908	1410.4538	51392	50491.2
883.1345	1412.2968	51427.1	50530.3
883.2782	1414.139	51082.15	50183.4
883.4219	1415.9805	51170	50270.4
883.5656	1417.8213	50952.2	50048.2
883.7092	1419.6613	51134.85	50236.95
883.8529	1421.5006	50933.6	50033.9
883.9965	1423.3391	50808.3	49907.1
884.1402	1425.1769	50811	49912.15
884.2838	1427.0139	51042.75	50145.7
884.4274	1428.8502	50955	50052.55
884.571	1430.6858	51005.15	50107.9
884.7146	1432.5206	51178.65	50280.75
884.8582	1434.3547	50997.65	50098.55
885.0018	1436.188	50859.05	49961.45
885.1453	1438.0206	50987.8	50088.2
885.2889	1439.8524	50798	49898.2
885.4324	1441.6835	50625.6	49723.25
885.5759	1443.5139	50714.3	49813.8
885.7194	1445.3435	50453.5	49556.7
885.8629	1447.1724	50542.45	49645.5
886.0064	1449.0005	50245	49348.45
886.1499	1450.8279	50363.75	49462.55
886.2933	1452.6545	50306.25	49407.9
886.4368	1454.4804	50225.4	49327.9
886.5802	1456.3056	50038.75	49132.4
886.7237	1458.13	50049.95	49154.2
886.8671	1459.9536	50196.1	49297.25
887.0105	1461.7766	49849.15	48949.65
887.1539	1463.5987	49538.7	48636.95
887.2972	1465.4202	49529.7	48629.2
887.4406	1467.2409	49310.25	48411.5
887.584	1469.0608	48991	48092.3
887.7273	1470.88	49017.8	48119.8
887.8706	1472.6984	48988.6	48094.05
888.0139	1474.5161	48593.2	47693.75
888.1572	1476.3331	48642.35	47746.8
888.3005	1478.1493	48405	47507.4
888.4438	1479.9648	48282.05	47383.75
888.5871	1481.7795	48341.7	47440.9
888.7303	1483.5935	48321.8	47423.2
888.8736	1485.4067	47991.05	47095.3
889.0168	1487.2192	48106.55	47207.85
889.16	1489.031	47839.2	46937.85
889.3032	1490.842	47940.95	47042
889.4464	1492.6522	47978.8	47082.65
889.5896	1494.4618	47729.75	46832.6
889.7327	1496.2705	47814.4	46916.15
889.8759	1498.0785	47406.75	46508.6
890.019	1499.8858	47465.6	46567.7
890.1622	1501.6924	47562.5	46663.2
890.3053	1503.4981	47244.45	46348.75
890.4484	1505.3032	47283.45	46386.6
890.5914	1507.1075	47012.1	46113.45
890.7345	1508.911	47054.55	46159.65
890.8776	1510.7138	47005.25	46107.4
891.0206	1512.5159	46944.5	46048.2
891.1637	1514.3172	46420.65	45522.95
891.3067	1516.1178	46443.8	45548.95
891.4497	1517.9176	46624.95	45723.85
891.5927	1519.7166	46369.25	45474.1
891.7357	1521.515	46222.8	45321.3
891.8786	1523.3126	46042.1	45145.7
892.0216	1525.1094	46141.85	45243.8
892.1645	1526.9055	45944.35	45048.85
892.3074	1528.7008	45834.45	44939
892.4503	1530.4954	45469.8	44571.1
892.5932	1532.2893	45655.05	44761.6
892.7361	1534.0824	45298.5	44398.35
892.879	1535.8747	45158.45	44265.25
893.0218	1537.6663	45433.2	44537.5
893.1647	1539.4572	44756.85	43859.75
893.3075	1541.2473	44970.95	44074.85
893.4503	1543.0367	44790.05	43895.85
893.5931	1544.8253	44620.75	43720.2
893.7359	1546.6132	44697.5	43798
893.8787	1548.4003	44422.55	43517.8
894.0214	1550.1867	44350.85	43447.8
894.1642	1551.9723	44262.85	43365.05
894.3069	1553.7572	44281.55	43386.65
894.4496	1555.5414	44366.6	43472.85
894.5923	1557.3247	43990.55	43096.35
894.735	1559.1074	44164	43271.3
894.8777	1560.8893	44067.3	43176.25
895.0204	1562.6705	44053.1	43162.65
895.163	1564.4509	43879.4	42988.3
895.3056	1566.2305	43836.6	42946.1
895.4482	1568.0094	44052.8	43164.3
895.5908	1569.7876	43886.65	42995
895.7334	1571.565	43673.4	42779.8
895.876	1573.3417	43734.1	42843.65
896.0186	1575.1176	43579.85	42687.9
896.1611	1576.8928	43483.9	42593.7
896.3036	1578.6672	43258.55	42371.8
896.4461	1580.4409	43245.1	42357.55
896.5886	1582.2138	43119.2	42227.65
896.7311	1583.986	43048	42156.7
896.8736	1585.7575	42974.1	42083.8
897.0161	1587.5282	42933.75	42046.85
897.1585	1589.2981	42942.7	42055.35
897.3009	1591.0673	42771	41881.8
897.4433	1592.8358	42689.2	41799.85
897.5857	1594.6035	42719.65	41827.5
897.7281	1596.3704	42711.65	41822.9
897.8705	1598.1366	42464.35	41572.75
898.0128	1599.9021	42386.8	41498.05
898.1551	1601.6668	42347.95	41455.25
898.2975	1603.4308	42313.75	41425.45
898.4398	1605.194	42415.05	41518.1
898.5821	1606.9564	42088	41203.6
898.7243	1608.7182	42284.1	41393.8
898.8666	1610.4791	42232	41346.15
899.0088	1612.2394	42304.6	41421.8
899.1511	1613.9988	42242.4	41359.95
899.2933	1615.7576	42379.85	41491
899.4355	1617.5156	42403.45	41508
899.5776	1619.2728	42464.15	41576.75
899.7198	1621.0293	42123.9	41234.9
899.862	1622.785	42069.7	41179.35
900.0041	1624.54	41849.7	40959.05
900.1462	1626.2942	41627.2	40739.6
900.2883	1628.0477	41101.1	40210.65
900.4304	1629.8005	40841.05	39950.85
900.5725	1631.5525	40816.65	39928.3
900.7145	1633.3037	40382.15	39493.55
900.8566	1635.0542	40281.5	39396.15
900.9986	1636.804	40242.55	39355
901.1406	1638.553	39977.5	39043.4
901.2826	1640.3013	39878.95	38992.15
901.4245	1642.0488	39689.25	38802.2
901.5665	1643.7955	39735.9	38851.1
901.7085	1645.5416	39578.6	38691.45
901.8504	1647.2868	39494.3	38607
901.9923	1649.0313	39485.8	38600.7
902.1342	1650.7751	39466.75	38576.95
902.2761	1652.5181	39340.6	38454.35
902.4179	1654.2604	39229	38339.85
902.5598	1656.0019	39294.3	38408.2
902.7016	1657.7427	39323.05	38437.15
902.8434	1659.4828	39413.8	38527.9
902.9852	1661.222	39344.95	38457.3
903.127	1662.9606	39317.5	38430.2
903.2687	1664.6984	39115.6	38224.7
903.4105	1666.4354	38949.5	38062.1
903.5522	1668.1717	38500.45	37611.3
903.6939	1669.9072	38146.5	37257.3
903.8356	1671.642	37935.65	37043.8
903.9773	1673.3761	37671.7	36784.3
904.119	1675.1094	37513.9	36625.2
904.2606	1676.8419	37207.1	36319.65
904.4022	1678.5737	37014.45	36127.1
904.5439	1680.3048	36896.15	36009.4
904.6855	1682.0351	36664.6	35778.2
904.827	1683.7646	36496.55	35606.2
904.9686	1685.4934	36383.5	35497.5
905.1101	1687.2215	36139.15	35252.1
905.2517	1688.9488	36042.75	35156.3
905.3932	1690.6754	35735.35	34849.5
905.5347	1692.4012	35720.35	34833.55
905.6761	1694.1263	35659.05	34771
905.8176	1695.8506	35530.65	34643.6
905.9591	1697.5742	35449	34563.1
906.1005	1699.297	35359.95	34473.9
906.2419	1701.0191	35164.65	34280.9
906.3833	1702.7404	34957.5	34073.95
906.5246	1704.461	34810.15	33922.95
906.666	1706.1808	34668.95	33780.25
906.8073	1707.8999	34634.5	33749.05
906.9487	1709.6182	34512.45	33625.05
907.09	1711.3358	34409.55	33527.05
907.2313	1713.0527	34249.55	33365.55
907.3725	1714.7688	34166.55	33277.05
907.5138	1716.4841	34004.75	33118.1
907.655	1718.1987	33962.15	33074.4
907.7962	1719.9126	33851.15	32966.35
907.9374	1721.6257	33739.8	32851.85
908.0786	1723.338	33680.35	32796
908.2198	1725.0496	33501.25	32615.8
908.3609	1726.7605	33452.6	32566.8
908.502	1728.4706	33347.8	32461.65
908.6431	1730.18	33185.95	32298.15
908.7842	1731.8886	33146.55	32261.6
908.9253	1733.5964	33057.85	32167.25
909.0664	1735.3036	32999.55	32113.4
909.2074	1737.0099	32910.3	32027.2
909.3484	1738.7156	32845.75	31963.1
909.4894	1740.4204	32745.3	31857.15
909.6304	1742.1246	32708.85	31821
909.7714	1743.8279	32621.3	31737.25
909.9123	1745.5306	32537.45	31654.55
910.0532	1747.2325	32389.15	31505.85
910.1941	1748.9336	32313.3	31429.75
910.335	1750.634	32174.95	31287.55
910.4759	1752.3336	32141.5	31258.85
910.6168	1754.0325	32067.65	31184.6
910.7576	1755.7307	31966.95	31084.55
910.8984	1757.4281	31944.25	31059.55
911.0392	1759.1247	31970.25	31074.15
911.18	1760.8206	31830.95	30941
911.3208	1762.5158	31830.9	30941.6
911.4615	1764.2102	31678.5	30793.25
911.6022	1765.9039	31610.1	30727.3
911.7429	1767.5968	31547.45	30663.45
911.8836	1769.289	31417.05	30534.5
912.0243	1770.9804	31377.1	30490.05
912.1649	1772.6711	31355.75	30467.9
912.3056	1774.361	31227.75	30342.2
912.4462	1776.0502	31211.6	30324.5
912.5868	1777.7386	31120.45	30231.75
912.7274	1779.4263	31026.9	30143.15
912.8679	1781.1132	31022.4	30138.95
913.0084	1782.7994	30874.15	29988.05
913.149	1784.4849	30799.85	29916.25
913.2895	1786.1696	30718	29815.45
913.4299	1787.8535	30630.75	29749.3
913.5704	1789.5367	30621.3	29736.8
913.7108	1791.2192	30502.65	29620.05
913.8513	1792.9009	30395.65	29482.65
913.9917	1794.5818	30351.85	29465.75
914.132	1796.2621	30265.4	29380.75
914.2724	1797.9415	30187.45	29301.75
914.4128	1799.6202	30124.65	29239.3
914.5531	1801.2982	30056.9	29170.75
914.6934	1802.9755	30027.3	29139
914.8337	1804.6519	29972.25	29088.3
914.9739	1806.3277	29793.3	28910.95
915.1142	1808.0027	29710.5	28826.1
915.2544	1809.6769	29704.15	28820.6
915.3946	1811.3504	29576.85	28692.8
915.5348	1813.0231	29552.9	28670.05
915.675	1814.6951	29494.45	28612.35
915.8151	1816.3664	29546	28661.75
915.9553	1818.0369	29388.3	28502.45
916.0954	1819.7067	29337.2	28452.4
916.2355	1821.3757	29274.75	28390
916.3755	1823.044	29200.3	28316.35
916.5156	1824.7115	29149.85	28263.85
916.6556	1826.3783	29023.1	28137.35
916.7956	1828.0443	28958.1	28075.05
916.9356	1829.7096	28930.15	28044.7
917.0756	1831.3741	28884.5	27995.75
917.2155	1833.0379	28798.2	27917.1
917.3555	1834.701	28719.3	27833.7
917.4954	1836.3633	28661.75	27778.05
917.6353	1838.0248	28564.8	27679.75
917.7751	1839.6856	28536	27649.8
917.915	1841.3457	28524.2	27641.95
918.0548	1843.005	28478.55	27593.7
918.1946	1844.6636	28431.45	27549.2
918.3344	1846.3214	28297.4	27413.1
918.4742	1847.9785	28312.75	27428.55
918.6139	1849.6349	28267.1	27382.45
918.7537	1851.2904	28164.75	27269.05
918.8934	1852.9453	28064.6	27177.95
919.0331	1854.5994	27991.35	27106.6
919.1727	1856.2528	27998.65	27106.45
919.3124	1857.9054	27894.4	27010.1
919.452	1859.5572	27925.95	27041.45
919.5916	1861.2083	27834.05	26948.65
919.7312	1862.8587	27804.85	26922.55
919.8708	1864.5084	27789.65	26902.55
920.0103	1866.1572	27667.75	26782.9
920.1498	1867.8054	27548.6	26661.35
920.2893	1869.4528	27496.8	26614.45
920.4288	1871.0994	27439.2	26553.45
920.5683	1872.7453	27388.05	26501.6
920.7077	1874.3905	27304.25	26412.95
920.8471	1876.0349	27209.6	26324.5
920.9865	1877.6786	27171.2	26283.75
921.1259	1879.3215	27128.9	26247.6
921.2653	1880.9637	27112.85	26226.8
921.4046	1882.6051	27096	26211.2
921.5439	1884.2458	26981	26095.55
921.6832	1885.8858	26900.5	26015
921.8225	1887.525	26788.65	25903.55
921.9617	1889.1634	26716.95	25833.35
922.101	1890.8011	26614.2	25726.6
922.2402	1892.4381	26617.15	25731.15
922.3794	1894.0743	26602.55	25714.05
922.5185	1895.7098	26535.7	25653.2
922.6577	1897.3446	26511.15	25626.1
922.7968	1898.9786	26392.45	25505.5
922.9359	1900.6118	26345.3	25461.95
923.075	1902.2443	26208.1	25322.2
923.214	1903.8761	26109.5	25225.05
923.3531	1905.5071	26017.15	25131.7
923.4921	1907.1374	25928.75	25044.9
923.6311	1908.7669	25903.75	25021.35
923.77	1910.3957	25873.6	24989
923.909	1912.0237	25668.55	24784.7
924.0479	1913.651	25703.85	24818.85
924.1868	1915.2776	25604.9	24720.2
924.3257	1916.9034	25529.9	24647.05
924.4646	1918.5285	25415.75	24533.3
924.6034	1920.1528	25318.5	24433.15
924.7422	1921.7764	25292.3	24407.9
924.881	1923.3992	25152.85	24268.05
925.0198	1925.0213	25044.15	24162.5
925.1586	1926.6427	24954.45	24071.7
925.2973	1928.2633	25082.65	23955.35
925.436	1929.8832	24854.45	23967.35
925.5747	1931.5023	24709.35	23823.5
925.7134	1933.1207	24658.5	23774.4
925.852	1934.7383	24604.15	23718.85
925.9906	1936.3552	24509.25	23628.1
926.1292	1937.9714	24459.4	23574.8
926.2678	1939.5868	24372.65	23487
926.4064	1941.2015	24245.95	23359.1
926.5449	1942.8154	24153.35	23268.75
926.6834	1944.4286	24105.95	23220.7
926.8219	1946.041	23959.95	23054.65
926.9604	1947.6528	23843.95	22955.15
927.0988	1949.2637	23848.65	22964.95
927.2372	1950.8739	23760.25	22875.7
927.3756	1952.4834	23727.95	22842
927.514	1954.0921	23657.8	22773.4
927.6523	1955.7001	23573	22683.45
927.7907	1957.3074	23538.1	22656.5
927.929	1958.9139	23420.5	22539.05
928.0673	1960.5197	23335.5	22450.6
928.2055	1962.1247	23253.1	22371.55
928.3438	1963.729	23136.8	22253.65
928.482	1965.3325	23095.05	22188.75
928.6202	1966.9353	23004.5	22121.5
928.7584	1968.5374	22916.4	22033.1
928.8965	1970.1387	22925.4	22042.2
929.0346	1971.7393	22780	21896.95
929.1727	1973.3392	22687.25	21805.7
929.3108	1974.9383	22608.05	21728.3
929.4489	1976.5366	22502.85	21620
929.5869	1978.1342	22479.55	21598.65
929.7249	1979.7311	22456.05	21574.45
929.8629	1981.3273	22353.45	21471.2
930.0009	1982.9227	22295.7	21414.5
930.1388	1984.5173	22206.2	21323.3
930.2767	1986.1112	22151.4	21268.8
930.4146	1987.7044	22096.15	21213.45
930.5525	1989.2968	22026.55	21144.65
930.6904	1990.8885	22040.1	21155.05
930.8282	1992.4795	21967	21084.1
930.966	1994.0697	21857.95	20977.3
931.1038	1995.6592	21800.55	20919.4
931.2415	1997.2479	21727.25	20845.15
931.3793	1998.8359	21673.35	20791.45
931.517	2000.4232	21601.25	20719.7
931.6547	2002.0097	21535.75	20655.5
931.7923	2003.5955	21424.35	20545.5
931.93	2005.1805	21435.7	20553
932.0676	2006.7648	21352.7	20473.6
932.2052	2008.3484	21285.8	20405.6
932.3427	2009.9312	21307.45	20425.05
932.4803	2011.5133	21203.25	20325.05
932.6178	2013.0946	21139.85	20260.3
932.7553	2014.6752	21071.25	20193.55
932.8928	2016.2551	20991.05	20109.55
933.0302	2017.8342	20937.4	20056.35
933.1676	2019.4126	20842.4	19962.6
933.305	2020.9902	20790.1	19910.3
933.4424	2022.5672	20746.1	19866.6
933.5798	2024.1433	20706.1	19822.6
933.7171	2025.7188	20617.4	19738.75
933.8544	2027.2935	20589.05	19709.5
933.9917	2028.8674	20507.35	19627.65
934.129	2030.4406	20451.25	19572.3
934.2662	2032.0131	20314.7	19437.7
934.4034	2033.5849	20253.05	19370.15
934.5406	2035.1559	20241.55	19361.2
934.6778	2036.7261	20221.85	19341.55
934.8149	2038.2957	20122.35	19242.5
934.952	2039.8645	20129.35	19246.65
935.0891	2041.4325	20147.75	19264.55
935.2262	2042.9998	20004.8	19126.25
935.3632	2044.5664	19982.05	19100.25
935.5002	2046.1323	19901.3	19021.5
935.6372	2047.6974	19862.9	18983.9
935.7742	2049.2617	19822.35	18942.8
935.9111	2050.8254	19799.1	18915.8
936.048	2052.3883	19794	18909.1
936.1849	2053.9504	19726.3	18843.85
936.3218	2055.5118	19652.25	18769.9
936.4586	2057.0725	19546.55	18661.3
936.5955	2058.6325	19489	18608.9
936.7323	2060.1917	19439.9	18559.75
936.869	2061.7502	19398.75	18514.6
937.0058	2063.3079	19326.45	18446.4
937.1425	2064.8649	19237	18355.3
937.2792	2066.4212	19219.45	18335.7
937.4159	2067.9767	19202.55	18323.85
937.5525	2069.5315	19100.7	18222.2
937.6891	2071.0856	19036.65	18157.05
937.8257	2072.6389	18942.9	18062.15
937.9623	2074.1915	18848.65	17971.15
938.0989	2075.7433	18763.1	17881.15
938.2354	2077.2945	18726.3	17845.55
938.3719	2078.8448	18685.2	17804.15
938.5084	2080.3945	18614.3	17732.3
938.6448	2081.9434	18635.85	17753.9
938.7812	2083.4916	18558.9	17676.4
938.9176	2085.039	18496.35	17612.7
939.054	2086.5857	18418.3	17535.25
939.1903	2088.1317	18402.1	17519.65
939.3267	2089.677	18383.7	17500.4
939.463	2091.2215	18339.65	17456.3
939.5992	2092.7652	18294.25	17410.05
939.7355	2094.3083	18207.9	17324.55
939.8717	2095.8506	18173.2	17291.2
940.0079	2097.3921	18181.25	17300.5
940.1441	2098.933	18101.05	17218.55
940.2802	2100.4731	18062.3	17181.15
940.4163	2102.0124	18061.45	17164.15
940.5524	2103.5511	17999.55	17119.95
940.6885	2105.089	17969.3	17086.85
940.8245	2106.6261	17921.65	17042.3
940.9606	2108.1626	17845.8	16962.95
941.0965	2109.6983	17841	16930.85
941.2325	2111.2332	17765.7	16883.8
941.3684	2112.7675	17716.4	16832
941.5044	2114.301	17650.15	16767.75
941.6403	2115.8337	17662.9	16781.7
941.7761	2117.3657	17601.7	16718.5
941.912	2118.897	17550.7	16667.55
942.0478	2120.4276	17499.8	16612.25
942.1835	2121.9575	17400.5	16517.15
942.3193	2123.4866	17424.35	16529.25
942.455	2125.0149	17386.2	16501.75
942.5907	2126.5426	17283.8	16404.55
942.7264	2128.0695	17219.9	16335.75
942.8621	2129.5956	17225.1	16348.7
942.9977	2131.1211	17193.85	16310.35
943.1333	2132.6458	17137.35	16257.7
943.2689	2134.1698	17107.5	16223.8
943.4044	2135.693	17017.2	16131.15
943.54	2137.2155	17008.1	16123.65
943.6755	2138.7373	16973.7	16091.1
943.8109	2140.2584	16915.65	16034.45
943.9464	2141.7787	16864.4	15979.5
944.0818	2143.2983	16797.75	15920.15
944.2172	2144.8171	16719.85	15839.9
944.3526	2146.3353	16666.8	15785.15
944.4879	2147.8527	16557.4	15676.75
944.6232	2149.3693	16572.4	15689.65
944.7585	2150.8853	16515.6	15633.9
944.8938	2152.4005	16425.85	15544.7
945.029	2153.9149	16440.45	15555.95
945.1642	2155.4287	16388.75	15505.85
945.2994	2156.9417	16372.4	15489
945.4346	2158.454	16277.75	15392.55
945.5697	2159.9655	16257.05	15376.25
945.7048	2161.4764	16216.95	15335.35
945.8399	2162.9865	16152.55	15272.15
945.9749	2164.4958	16134.95	15252.15
946.1099	2166.0045	16072.55	15188.15
946.2449	2167.5124	16057.25	15176.8
946.3799	2169.0195	16001.6	15119.75
946.5148	2170.526	15984.75	15101.35
946.6498	2172.0317	15925.4	15044
946.7846	2173.5367	15871.5	14988.3
946.9195	2175.0409	15829.45	14949.65
947.0543	2176.5445	15836.95	14955.6
947.1891	2178.0473	15754.9	14872.65
947.3239	2179.5494	15724.75	14838.55
947.4587	2181.0507	15652.35	14769.5
947.5934	2182.5513	15585.45	14702.3
947.7281	2184.0512	15598.2	14718.1
947.8628	2185.5504	15524.05	14640.7
947.9974	2187.0488	15453.7	14574.15
948.132	2188.5465	15420.4	14538.85
948.2666	2190.0435	15353.2	14472.35
948.4012	2191.5397	15286.6	14403.75
948.5357	2193.0353	15271.95	14392.4
948.6702	2194.5301	15196.05	14313.5
948.8047	2196.0241	15130.5	14248.55
948.9392	2197.5175	15125.6	14245.05
949.0736	2199.0101	15054.1	14166.4
949.208	2200.502	14981.2	14101.05
949.3424	2201.9931	14953.25	14070.7
949.4767	2203.4835	14886.55	14004.2
949.611	2204.9733	14873.95	13985.55
949.7453	2206.4622	14816.15	13935.95
949.8796	2207.9505	14766.1	13883.05
950.0138	2209.438	14691.25	13813.2
950.148	2210.9248	14643.65	13762.25
950.2822	2212.4109	14578.75	13697.25
950.4164	2213.8962	14524.45	13637.85
950.5505	2215.3809	14527.8	13643.35
950.6846	2216.8648	14466.75	13582.75
950.8186	2218.3479	14442	13553.7
950.9527	2219.8304	14376.2	13487.45
951.0867	2221.3121	14326.1	13440.65
951.2207	2222.7931	14259.55	13376.35
951.3546	2224.2733	14222.6	13339.6
951.4886	2225.7529	14187.6	13304.15
951.6225	2227.2317	14178.4	13295.6
951.7563	2228.7098	14153.95	13273.15
951.8902	2230.1872	14048.15	13169.45
952.024	2231.6638	14021.7	13140.8
952.1578	2233.1397	13979.1	13091.5
952.2916	2234.6149	13946.3	13064.15
952.4253	2236.0894	13894	13012.1
952.559	2237.5632	13901.1	13010.85
952.6927	2239.0362	13799.45	12917.4
952.8263	2240.5085	13772.4	12890.25
952.9599	2241.9801	13724.35	12843.35
953.0935	2243.4509	13705.35	12820
953.2271	2244.921	13620.7	12737.15
953.3606	2246.3904	13582.75	12698.05
953.4941	2247.8591	13530.3	12649.5
953.6276	2249.3271	13512	12630.5
953.7611	2250.7943	13458.75	12576.9
953.8945	2252.2608	13401.85	12518.75
954.0279	2253.7266	13384.35	12501.65
954.1612	2255.1917	13295.8	12412.6
954.2946	2256.656	13299.35	12417.2
954.4279	2258.1197	13237.8	12355.25
954.5612	2259.5826	13224.95	12341.85
954.6944	2261.0447	13195	12311.05
954.8276	2262.5062	13123.1	12238.85
954.9608	2263.9669	13103.35	12217.95
955.094	2265.4269	13087.6	12206.95
955.2271	2266.8862	13029.1	12144.9
955.3602	2268.3448	13029.9	12147.65
955.4933	2269.8026	13004.8	12124.7
955.6264	2271.2598	12928.85	12047.35
955.7594	2272.7162	12918.45	12036.65
955.8924	2274.1719	12897.45	12014.4
956.0253	2275.6268	12801.55	11919.5
956.1583	2277.0811	12763.7	11881.85
956.2912	2278.5346	12761	11879.05
956.4241	2279.9874	12718.3	11835.7
956.5569	2281.4395	12702.45	11821.9
956.6897	2282.8908	12685.45	11798.3
956.8225	2284.3414	12649.45	11766.25
956.9553	2285.7914	12576.65	11695.75
957.088	2287.2406	12576.35	11694.1
957.2207	2288.689	12532.15	11648.2
957.3534	2290.1368	12483.7	11599.7
957.486	2291.5838	12488.9	11603.75
957.6186	2293.0302	12416.85	11531.8
957.7512	2294.4758	12382.55	11497.8
957.8838	2295.9206	12334.65	11448.3
958.0163	2297.3648	12290.35	11409.35
958.1488	2298.8082	12273.8	11388.85
958.2813	2300.251	12216.3	11334.4
958.4137	2301.693	12203.5	11318.55
958.5461	2303.1343	12161.15	11276.05
958.6785	2304.5748	12131	11249.55
958.8108	2306.0147	12087.1	11206.25
958.9432	2307.4538	12062.2	11178.3
959.0754	2308.8922	12011.45	11130.75
959.2077	2310.3299	11979.6	11098.1
959.3399	2311.7669	11902.55	11020.25
959.4721	2313.2031	11893.75	11012.6
959.6043	2314.6387	11861.7	10978.8
959.7365	2316.0735	11842.65	10960.25
959.8686	2317.5076	11821.8	10937.45
960.0006	2318.941	11775.9	10892.8
960.1327	2320.3737	11747.05	10862.25
960.2647	2321.8056	11704.8	10818.15
960.3967	2323.2369	11675.4	10792.05
960.5287	2324.6674	11649.4	10766.45
960.6606	2326.0972	11601.05	10716.5
960.7925	2327.5263	11545.65	10664.3
960.9244	2328.9547	11505.7	10621.15
961.0562	2330.3823	11475.5	10592.8
961.1881	2331.8092	11487.95	10599.6
961.3198	2333.2355	11420.45	10536.4
961.4516	2334.661	11411.8	10527.6
961.5833	2336.0858	11399.5	10511.85
961.715	2337.5098	11346.45	10463.1
961.8467	2338.9332	11331.05	10446.6
961.9783	2340.3558	11290.2	10404.3
962.1099	2341.7778	11265.3	10382.6
962.2415	2343.199	11208.2	10322.55
962.373	2344.6195	11172.4	10290.35
962.5045	2346.0393	11149.6	10267.55
962.636	2347.4583	11141.55	10258.4
962.7675	2348.8767	11073	10190.8
962.8989	2350.2943	11043.95	10158.55
963.0303	2351.7113	11035.6	10151.45
963.1617	2353.1275	10985.05	10098.5
963.293	2354.543	10952	10059.65
963.4243	2355.9578	10939.75	10055.55
963.5556	2357.3718	10854.4	9972.8
963.6868	2358.7852	10828.05	9941.6
963.818	2360.1978	10789.25	9905.3
963.9492	2361.6098	10780	9899.3
964.0803	2363.021	10713.95	9827.65
964.2114	2364.4315	10695.45	9811.4
964.3425	2365.8413	10662.25	9777.05
964.4736	2367.2504	10615.95	9732.85
964.6046	2368.6587	10568.5	9686.05
964.7356	2370.0664	10541.85	9660.3
964.8666	2371.4733	10495.95	9611.65
964.9975	2372.8795	10462.35	9579.7
965.1284	2374.285	10421.2	9537.3
965.2593	2375.6899	10377.15	9493.6
965.3901	2377.0939	10299.8	9417.8
965.5209	2378.4973	10286.4	9404.55
965.6517	2379.9	10283.8	9401.15
965.7825	2381.3019	10241.45	9358.45
965.9132	2382.7032	10176.7	9295.1
966.0439	2384.1037	10197	9317.1
966.1745	2385.5035	10159.15	9278.5
966.3051	2386.9027	10091.55	9210.5
966.4357	2388.3011	10083.65	9198.4
966.5663	2389.6987	10037.15	9154.8
966.6968	2391.0957	10018.95	9138.35
966.8273	2392.492	9952.1	9069.9
966.9578	2393.8876	9914.5	9028.75
967.0882	2395.2824	9898.1	9015.15
967.2186	2396.6765	9883.2	8999.15
967.349	2398.07	9816.25	8932.55
967.4793	2399.4627	9821.95	8937.7
967.6097	2400.8547	9777.9	8893.15
967.7399	2402.246	9740.75	8850.05
967.8702	2403.6366	9697.65	8814.75
968.0004	2405.0265	9645.65	8764.2
968.1306	2406.4156	9606.4	8719.4
968.2607	2407.8041	9552.55	8665.45
968.3909	2409.1918	9543.7	8658.95
968.521	2410.5789	9481.3	8598.15
968.651	2411.9652	9473.75	8586.2
968.781	2413.3508	9446.55	8560.65
968.911	2414.7358	9390.65	8506.85
969.041	2416.12	9357	8473.3
969.1709	2417.5035	9354.85	8472.6
969.3008	2418.8863	9305.15	8422.7
969.4307	2420.2684	9280.15	8396
969.5606	2421.6497	9243.5	8358.25
969.6904	2423.0304	9201.95	8320
969.8201	2424.4104	9223.85	8340.25
969.9499	2425.7896	9167.15	8281.15
970.0796	2427.1682	9128.1	8244.1
970.2093	2428.546	9105.4	8222.1
970.3389	2429.9232	9062.05	8178.4
970.4685	2431.2996	9040.3	8156.4
970.5981	2432.6753	9024.9	8140.9
970.7277	2434.0503	8997.9	8115.75
970.8572	2435.4246	8969.75	8086.55
970.9867	2436.7982	8954.3	8067.9
971.1161	2438.1711	8923.8	8041.35
971.2456	2439.5433	8899.6	8013.8
971.375	2440.9148	8844.65	7956.15
971.5043	2442.2856	8809.25	7927.95
971.6336	2443.6557	8813.05	7929.9
971.7629	2445.025	8770.15	7887.35
971.8922	2446.3937	8755.6	7874.1
972.0214	2447.7617	8730.25	7846.05
972.1506	2449.1289	8730.85	7848.25
972.2798	2450.4955	8683.35	7794.85
972.4089	2451.8613	8624.45	7742.65
972.538	2453.2265	8610.85	7727.75
972.6671	2454.5909	8604.9	7721.1
972.7961	2455.9546	8595.8	7712.45
972.9251	2457.3177	8547.65	7664.55
973.0541	2458.68	8514.9	7628.65
973.1831	2460.0416	8514.15	7629.2
973.312	2461.4025	8506.35	7622.15
973.4408	2462.7627	8493.05	7597.05
973.5697	2464.1222	8423.95	7543.1
973.6985	2465.4811	8429.5	7548.5
973.8273	2466.8392	8412.8	7529.1
973.956	2468.1966	8369.4	7483.8
974.0847	2469.5533	8368.55	7484.4
974.2134	2470.9093	8332.2	7450.1
974.3421	2472.2645	8314.25	7429.15
974.4707	2473.6191	8271.15	7389.3
974.5993	2474.973	8231.55	7347.7
974.7278	2476.3262	8207.95	7322.85
974.8563	2477.6787	8201.6	7318.65
974.9848	2479.0305	8181.1	7297
975.1132	2480.3816	8131.75	7247.6
975.2417	2481.7319	8111.1	7226.75
975.37	2483.0816	8086.8	7202.25
975.4984	2484.4306	8064.1	7179.25
975.6267	2485.7789	8017.85	7137.55
975.755	2487.1264	7993.65	7109.1
975.8833	2488.4733	7946.15	7063.2
976.0115	2489.8195	7930.65	7041.3
976.1397	2491.165	7902.7	7016.35
976.2678	2492.5097	7873.25	6987
976.3959	2493.8538	7818.6	6936.25
976.524	2495.1972	7806.3	6922.3
976.6521	2496.5398	7765.1	6881.45
976.7801	2497.8818	7766.4	6880.45
976.9081	2499.2231	7742.35	6858.75
977.036	2500.5637	7704.6	6820.1
977.164	2501.9035	7695.9	6810.85
977.2918	2503.2427	7668.8	6782.85
977.4197	2504.5812	7658.8	6774.85
977.5475	2505.919	7635.6	6749.35
977.6753	2507.256	7600.4	6717.35
977.8031	2508.5924	7575.55	6691.9
977.9308	2509.9281	7563.85	6676
978.0585	2511.2631	7527.65	6647.05
978.1861	2512.5974	7517.9	6636.05
978.3137	2513.9309	7472.05	6590.85
978.4413	2515.2638	7469.15	6550.85
978.5689	2516.596	7454.9	6572.1
978.6964	2517.9275	7393.1	6509.85
978.8239	2519.2583	7373.25	6489.15
978.9513	2520.5884	7360.3	6476.5
979.0788	2521.9178	7338.75	6455.45
979.2062	2523.2465	7328	6445.25
979.3335	2524.5745	7286.55	6403.75
979.4608	2525.9018	7264.05	6379.6
979.5881	2527.2284	7244.15	6360.4
979.7154	2528.5543	7229.5	6348.8
979.8426	2529.8796	7197.3	6314.8
979.9698	2531.2041	7183.85	6301.9
980.0969	2532.5279	7180.5	6298.75
980.224	2533.851	7183.25	6301.5
980.3511	2535.1735	7142.45	6259.35
980.4781	2536.4952	7116.4	6235
980.6052	2537.8163	7095.2	6210.9
980.7321	2539.1366	7072.4	6186.95
980.8591	2540.4562	7075.2	6188.05
980.986	2541.7752	7068	6182.05
981.1129	2543.0935	7045.9	6164.85
981.2397	2544.411	7022	6138.65
981.3665	2545.7279	7009.05	6126.1
981.4933	2547.0441	6995	6111.15
981.62	2548.3596	6972.8	6088.15
981.7467	2549.6744	6978.7	6095.95
981.8734	2550.9885	6950.95	6061.15
982.0001	2552.3019	6915.2	6032.15
982.1267	2553.6146	6915.65	6032
982.2532	2554.9266	6880.25	5997.3
982.3798	2556.2379	6861.55	5976.7
982.5063	2557.5485	6840.5	5957.8
982.6327	2558.8585	6830.15	5937.95
982.7592	2560.1677	6830.65	5942.9
982.8856	2561.4762	6787.7	5901.35
983.0119	2562.7841	6779.9	5891.8
983.1383	2564.0913	6774.45	5894.45
983.2646	2565.3977	6752.45	5868.7
983.3908	2566.7035	6755.75	5871.95
983.517	2568.0086	6742.95	5858
983.6432	2569.313	6737.4	5855.05
983.7694	2570.6167	6698.95	5809.95
983.8955	2571.9197	6673.4	5792.7
984.0216	2573.222	6672.85	5783.7
984.1476	2574.5236	6673	5790.95
984.2737	2575.8246	6643.95	5756.05
984.3996	2577.1248	6633.95	5748.5
984.5256	2578.4244	6623.1	5737.85
984.6515	2579.7232	6607.8	5724.45
984.7774	2581.0214	6598.65	5687.8
984.9032	2582.3189	6579.7	5697.65
985.029	2583.6157	6555.7	5669.9
985.1548	2584.9118	6552	5669.45
985.2806	2586.2072	6534.75	5652.95
985.4063	2587.5019	6508.85	5626.8
985.5319	2588.7959	6485.25	5599.65
985.6576	2590.0893	6483.3	5598.5
985.7832	2591.3819	6453.7	5569.45
985.9087	2592.6739	6422.3	5539.5
986.0343	2593.9652	6429.35	5544.4
986.1597	2595.2557	6416.6	5531.35
986.2852	2596.5456	6367.8	5483.6
986.4106	2597.8348	6363.25	5481.25
986.536	2599.1234	6322.85	5439
986.6614	2600.4112	6286.85	5402.35
986.7867	2601.6983	6292.6	5406.65
986.912	2602.9848	6249.95	5367
987.0372	2604.2705	6240.9	5350.3
987.1624	2605.5556	6249.2	5369.3
987.2876	2606.84	6221.65	5339.35
987.4128	2608.1237	6186.75	5303.35
987.5379	2609.4067	6159.45	5276.7
987.6629	2610.689	6145.8	5252.6
987.788	2611.9707	6116.5	5229.35
987.913	2613.2516	6105.25	5218.45
988.0379	2614.5319	6073.25	5191.45
988.1629	2615.8115	6064	5179
988.2878	2617.0903	6016.9	5132.85
988.4126	2618.3685	5996.4	5114
988.5375	2619.6461	5999.6	5115.15
988.6622	2620.9229	5967.85	5083.15
988.787	2622.199	5940.75	5057.3
988.9117	2623.4745	5938.45	5053.4
989.0364	2624.7493	5920.75	5037.35
989.161	2626.0234	5901.2	5019
989.2857	2627.2968	5882.3	4998.6
989.4102	2628.5695	5857.45	4972.6
989.5348	2629.8415	5814.35	4932.75
989.6593	2631.1128	5804.5	4921.3
989.7837	2632.3835	5779.75	4896.75
989.9082	2633.6535	5770.95	4889.45
990.0326	2634.9228	5750.55	4869.8
990.1569	2636.1914	5736	4854.4
990.2812	2637.4593	5717.7	4828.1
990.4055	2638.7265	5698.75	4813.95
990.5298	2639.9931	5670.1	4788.05
990.654	2641.259	5671.25	4786.65
990.7782	2642.5242	5643.55	4759.75
990.9023	2643.7887	5633.25	4750.95
991.0264	2645.0525	5622.35	4739.15
991.1505	2646.3156	5596.45	4711.85
991.2745	2647.5781	5567.15	4686
991.3985	2648.8398	5545.95	4664.9
991.5225	2650.1009	5536.7	4645.6
991.6464	2651.3613	5524.9	4641
991.7703	2652.6211	5532.65	4647.7
991.8942	2653.8801	5508.4	4627.75
992.018	2655.1385	5478.1	4592.25
992.1418	2656.3961	5473.6	4590.2
992.2655	2657.6531	5475.6	4591.9
992.3892	2658.9094	5457.95	4576.45
992.5129	2660.1651	5444.15	4561.25
992.6366	2661.42	5399.15	4515.15
992.7602	2662.6743	5405.5	4520.55
992.8837	2663.9279	5402.5	4521.3
993.0073	2665.1808	5383.55	4499.55
993.1307	2666.433	5370.95	4487.3
993.2542	2667.6846	5347.6	4465.45
993.3776	2668.9354	5341.6	4454.95
993.501	2670.1856	5314.85	4431.25
993.6244	2671.4351	5320.3	4437.7
993.7477	2672.6839	5304.25	4422
993.8709	2673.9321	5278.6	4395.65
993.9942	2675.1795	5259.8	4377.7
994.1174	2676.4263	5257.9	4376.6
994.2405	2677.6724	5256.1	4374.15
994.3637	2678.9179	5218.55	4335.5
994.4868	2680.1626	5221.25	4338.9
994.6098	2681.4067	5184.75	4302.05
994.7328	2682.6501	5187.2	4305.1
994.8558	2683.8928	5161.15	4278.05
994.9788	2685.1348	5106.45	4224.05
995.1017	2686.3761	5125	4242.6
995.2245	2687.6168	5120.55	4238.2
995.3474	2688.8568	5081.9	4199.95
995.4702	2690.0961	5087.35	4205.4
995.5929	2691.3348	5069.05	4186.9
995.7156	2692.5727	5052.1	4170.1
995.8383	2693.81	5030.05	4148.8
995.961	2695.0466	5020	4138.85
996.0836	2696.2826	5003	4117.5
996.2062	2697.5178	4988.15	4100.4
996.3287	2698.7524	4987.15	4103.75
996.4512	2699.9863	4991.45	4107.1
996.5737	2701.2195	4957.05	4076.55
996.6961	2702.452	4928.1	4043.5
996.8185	2703.6839	4923.05	4041.15
996.9408	2704.9151	4923.05	4040.75
997.0631	2706.1456	4894.7	4011.4
997.1854	2707.3755	4886.95	4005.4
997.3077	2708.6046	4863.15	3979
997.4299	2709.8331	4853.75	3968.65
997.552	2711.0609	4853.25	3971.4
997.6742	2712.2881	4838.7	3955
997.7963	2713.5145	4824.45	3938.5
997.9183	2714.7403	4812.45	3931.8
998.0403	2715.9654	4788.5	3903.2
998.1623	2717.1899	4796.5	3901.2
998.2842	2718.4136	4758.6	3877.8
998.4062	2719.6367	4754.95	3872.1
998.528	2720.8591	4743.5	3856
998.6498	2722.0809	4724.55	3841
998.7716	2723.3019	4721.25	3835.7
998.8934	2724.5223	4708.5	3826.3
999.0151	2725.7421	4696.95	3812.9
999.1368	2726.9611	4676.15	3792.15
999.2584	2728.1795	4668.7	3782.9
999.38	2729.3972	4646.3	3767.55
999.5016	2730.6142	4643.6	3749
999.6231	2731.8306	4606.25	3724.05
999.7446	2733.0462	4588.25	3704.85
999.8661	2734.2612	4568.05	3681.35
999.9875	2735.4756	4538.35	3656
1000.1089	2736.6892	4521.3	3638.4
1000.2302	2737.9022	4499.8	3616.85
1000.3515	2739.1145	4491.2	3609.45
1000.4728	2740.3262	4477.4	3588.95
1000.594	2741.5372	4458	3576.5
1000.7152	2742.7475	4416.7	3534.4
1000.8363	2743.9571	4426.65	3542.4
1000.9575	2745.1661	4407.15	3522
1001.0785	2746.3744	4396.2	3513.8
1001.1996	2747.582	4377.4	3495.45
1001.3206	2748.7889	4354.9	3468.95
1001.4415	2749.9952	4344.2	3461.9
1001.5625	2751.2008	4338.2	3457.65
1001.6833	2752.4057	4338.75	3454.95
1001.8042	2753.61	4293.15	3411.15
1001.925	2754.8136	4292.65	3408.45
1002.0458	2756.0165	4263.3	3381.75
1002.1665	2757.2188	4261.9	3381.05
1002.2872	2758.4204	4249.5	3368.15
1002.4078	2759.6213	4242.9	3358.4
1002.5285	2760.8215	4236.8	3351.05
1002.649	2762.0211	4204.1	3320.55
1002.7696	2763.22	4189.65	3305.85
1002.8901	2764.4182	4199.85	3316.2
1003.0106	2765.6158	4188.6	3307.65
1003.131	2766.8127	4176.65	3294.6
1003.2514	2768.009	4155.6	3274.15
1003.3717	2769.2045	4133.65	3250.8
1003.492	2770.3994	4130.9	3245.9
1003.6123	2771.5936	4118.5	3235.05
1003.7325	2772.7872	4081.8	3202.25
1003.8527	2773.9801	4076.3	3192.35
1003.9729	2775.1723	4063.25	3164.6
1004.093	2776.3639	4056.05	3175.6
1004.2131	2777.5548	4031.75	3148.3
1004.3331	2778.745	4029.45	3148.7
1004.4531	2779.9346	4024.25	3142.35
1004.5731	2781.1235	4018.8	3135.1
1004.693	2782.3117	4009.85	3128.75
1004.8129	2783.4992	4002.5	3120.65
1004.9328	2784.6861	3985.65	3103.5
1005.0526	2785.8723	3985.05	3103.7
1005.1723	2787.0579	3954.25	3071.75
1005.2921	2788.2428	3940.75	3059.15
1005.4118	2789.427	3924.05	3043.2
1005.5314	2790.6106	3921.85	3040.65
1005.651	2791.7935	3902.85	3019.45
1005.7706	2792.9757	3892.6	3014.2
1005.8902	2794.1573	3892.85	3008.85
1006.0097	2795.3382	3873.6	2989.95
1006.1291	2796.5184	3865.7	2985.55
1006.2485	2797.698	3864.2	2978.8
1006.3679	2798.8769	3860.05	2979.05
1006.4873	2800.0551	3845.8	2963
1006.6066	2801.2327	3834.3	2951.55
1006.7258	2802.4096	3823.55	2944.2
1006.8451	2803.5859	3826.4	2944.65
1006.9642	2804.7615	3814.6	2933.15
1007.0834	2805.9364	3811.1	2930.7
1007.2025	2807.1106	3812.95	2932.35
1007.3216	2808.2842	3803.95	2923.9
1007.4406	2809.4572	3816.2	2932.3
1007.5596	2810.6294	3804.45	2920.25
1007.6785	2811.801	3815.4	2934.7
1007.7975	2812.972	3829.3	2948.95
1007.9163	2814.1423	3827.15	2947.05
1008.0352	2815.3119	3839.75	2957.55
1008.154	2816.4808	3848.5	2968.95
1008.2727	2817.6491	3860	2977.9
1008.3914	2818.8167	3871.65	2992.15
1008.5101	2819.9837	3887.2	3001.1
1008.6288	2821.15	3902.1	3020.85
1008.7474	2822.3157	3907.3	3026.3
1008.8659	2823.4807	3938	3055.65
1008.9844	2824.645	3950.9	3069.2
1009.1029	2825.8086	3969.6	3089.65
1009.2214	2826.9716	3993.4	3112.4
1009.3398	2828.134	4002	3122.05
1009.4581	2829.2957	4022.75	3142.7
1009.5764	2830.4567	4027.2	3146.35
1009.6947	2831.617	4022.2	3141.3
1009.813	2832.7767	4019.25	3140.45
1009.9312	2833.9358	4020	3140.75
1010.0493	2835.0941	4004.05	3120.55
1010.1675	2836.2519	3991	3112.15
1010.2855	2837.4089	3985.1	3102.85
1010.4036	2838.5653	3966.55	3086.3
1010.5216	2839.7211	3937.55	3056.8
1010.6396	2840.8761	3939.75	3057.95
1010.7575	2842.0306	3931.85	3050.25
1010.8754	2843.1843	3931.9	3051.45
1010.9932	2844.3374	3947.45	3066.3
1011.111	2845.4899	3955.05	3072.2
1011.2288	2846.6417	3955.35	3074.05
1011.3465	2847.7928	3979.5	3099.55
1011.4642	2848.9433	4009.6	3129.45
1011.5818	2850.0931	4034.4	3152.6
1011.6995	2851.2422	4043.2	3161
1011.817	2852.3907	4076.75	3193.15
1011.9345	2853.5385	4079.5	3196.65
1012.052	2854.6857	4102.45	3213.45
1012.1695	2855.8323	4103.45	3225.6
1012.2869	2856.9781	4118.2	3236.45
1012.4042	2858.1233	4134.25	3252.5
1012.5216	2859.2679	4129.95	3249
1012.6389	2860.4118	4150.75	3270.35
1012.7561	2861.555	4150.6	3264.95
1012.8733	2862.6976	4161.45	3278.4
1012.9905	2863.8395	4157.45	3278.55
1013.1076	2864.9808	4180.55	3301.95
1013.2247	2866.1214	4181.85	3299.15
1013.3417	2867.2614	4184.1	3301.7
1013.4587	2868.4007	4179.05	3295.15
1013.5757	2869.5393	4169.15	3286.5
1013.6926	2870.6773	4156.45	3271.45
1013.8095	2871.8146	4157.9	3275.25
1013.9263	2872.9513	4154.35	3271.2
1014.0431	2874.0874	4129.55	3248.35
1014.1599	2875.2227	4110.6	3227.9
1014.2766	2876.3574	4104.2	3223.7
1014.3933	2877.4915	4083.5	3203.05
1014.51	2878.6249	4065	3185.5
1014.6266	2879.7577	4041.15	3158.1
1014.7431	2880.8898	4026.5	3136.2
1014.8596	2882.0212	4001.05	3122.4
1014.9761	2883.152	3991.7	3109.25
1015.0925	2884.2821	3985.05	3104.9
1015.2089	2885.4116	3955.75	3075.95
1015.3253	2886.5405	3954.2	3073.5
1015.4416	2887.6686	3956.95	3074.4
1015.5579	2888.7962	3948.4	3069.35
1015.6741	2889.923	3938.2	3059.35
1015.7903	2891.0493	3928	3048.2
1015.9065	2892.1748	3931.3	3050.8
1016.0226	2893.2997	3920.85	3039.3
1016.1387	2894.424	3914.8	3036.5
1016.2547	2895.5476	3917.7	3035.7
1016.3707	2896.6706	3904.75	3024.45
1016.4866	2897.7929	3913.5	3032.25
1016.6025	2898.9145	3909.75	3028.1
1016.7184	2900.0355	3905.55	3026.55
1016.8342	2901.1559	3913.05	3032.8
1016.95	2902.2756	3928.15	3048.5
1017.0658	2903.3946	3923	3042.45
1017.1815	2904.513	3931.85	3046.4
1017.2971	2905.6308	3919.05	3038.3
1017.4127	2906.7479	3923.8	3043.4
1017.5283	2907.8643	3936.8	3056.45
1017.6439	2908.9801	3935.1	3055.3
1017.7594	2910.0953	3908.15	3026.45
1017.8748	2911.2098	3910.3	3024.65
1017.9902	2912.3236	3902.15	3012.65
1018.1056	2913.4368	3878.25	2993.7
1018.2209	2914.5494	3873.25	2993.7
1018.3362	2915.6613	3857.2	2970.3
1018.4515	2916.7725	3836.1	2954.4
1018.5667	2917.8831	3815.5	2934.8
1018.6819	2918.9931	3790.35	2907.3
1018.797	2920.1024	3786.25	2903.95
1018.9121	2921.211	3761.9	2881
1019.0271	2922.319	3732.2	2851.55
1019.1421	2923.4264	3720.45	2840.7
1019.2571	2924.5331	3706.85	2825.15
1019.372	2925.6391	3711.4	2831.6
1019.4869	2926.7445	3712.65	2832.7
1019.6017	2927.8493	3698.05	2816.3
1019.7165	2928.9534	3687.7	2807.15
1019.8313	2930.0569	3691.2	2807.1
1019.946	2931.1597	3670.4	2789.1
1020.0606	2932.2619	3675.15	2796.2
1020.1753	2933.3634	3676.2	2795.95
1020.2899	2934.4643	3674.25	2786.85
1020.4044	2935.5645	3658.1	2771.4
1020.5189	2936.6641	3634.3	2750.25
1020.6334	2937.763	3610.9	2730.6
1020.7478	2938.8613	3598.85	2716.95
1020.8622	2939.959	3584.8	2700.95
1020.9765	2941.056	3538.3	2658.55
1021.0908	2942.1523	3489.65	2609.7
1021.2051	2943.248	3455.3	2573.5
1021.3193	2944.3431	3400.55	2519
1021.4334	2945.4375	3364.7	2483.5
1021.5476	2946.5313	3314.9	2436.2
1021.6617	2947.6244	3242.85	2362.05
1021.7757	2948.7169	3218.5	2335.8
1021.8897	2949.8087	3161.25	2279.5
1022.0037	2950.8999	3126.75	2246.5
1022.1176	2951.9904	3079	2200.15
1022.2315	2953.0803	3041.6	2160.9
1022.3453	2954.1696	3006.05	2124.35
1022.4591	2955.2582	2987.35	2106.8
1022.5728	2956.3462	2953.25	2072.35
1022.6865	2957.4335	2924.6	2043.4
1022.8002	2958.5202	2912.25	2028.45
1022.9138	2959.6062	2893.75	2012.85
1023.0274	2960.6916	2871.1	1991.4
1023.141	2961.7764	2851.95	1970.3
1023.2545	2962.8605	2842.55	1960.45
1023.3679	2963.9439	2829.55	1949.5
1023.4813	2965.0267	2814.7	1933.7
1023.5947	2966.1089	2833.6	1930.75
1023.708	2967.1905	2805.1	1924.5
1023.8213	2968.2714	2785.5	1906
1023.9346	2969.3516	2784.35	1903.9
1024.0478	2970.4312	2788.7	1900.8
1024.1609	2971.5102	2773.4	1892.2
1024.274	2972.5885	2758.9	1879.6
1024.3871	2973.6662	2778.4	1894.45
1024.5002	2974.7432	2763.9	1883.85
1024.6132	2975.8196	2753.2	1871.4
1024.7261	2976.8954	2736.4	1857.85
1024.839	2977.9705	2734.85	1854.1
1024.9519	2979.045	2721.2	1842
1025.0647	2980.1188	2703.7	1825.8
1025.1775	2981.192	2702.05	1824.6
1025.2902	2982.2645	2683	1801.8
1025.4029	2983.3364	2665.55	1784.05
1025.5156	2984.4077	2636.5	1757.2
1025.6282	2985.4783	2639.45	1752.6
1025.7407	2986.5483	2611.45	1733.8
1025.8532	2987.6177	2601.25	1721.65
1025.9657	2988.6864	2571.45	1691.1
1026.0782	2989.7545	2553.85	1671.7
1026.1906	2990.8219	2538.4	1659.85
1026.3029	2991.8887	2524.85	1642.8
1026.4152	2992.9548	2503.8	1622.6
1026.5275	2994.0204	2471.5	1592.55
1026.6397	2995.0852	2458.9	1578.75
1026.7519	2996.1495	2439.6	1559.05
1026.864	2997.2131	2423.65	1544.7
1026.9761	2998.276	2403.5	1521.3
1027.0882	2999.3383	2392.7	1511.2
1027.2002	3000.4	2377.9	1496.85
1027.3122	3001.4611	2364.35	1483.45
1027.4241	3002.5215	2355.95	1475.55
1027.536	3003.5812	2344.8	1464.3
1027.6478	3004.6404	2332.1	1451
1027.7596	3005.6989	2315.65	1433.8
1027.8714	3006.7567	2300.05	1420.6
1027.9831	3007.8139	2314.55	1413.8
1028.0947	3008.8705	2292.45	1414.5
1028.2064	3009.9264	2280.95	1396.95
1028.3179	3010.9818	2277.5	1397.3
1028.4295	3012.0364	2270.6	1389.65
1028.541	3013.0905	2251.35	1371.15
1028.6524	3014.1439	2248.2	1369.35
1028.7638	3015.1966	2238.75	1357.75
1028.8752	3016.2487	2238.25	1359.4
1028.9865	3017.3002	2236.65	1353.3
1029.0978	3018.3511	2221.55	1343.75
1029.209	3019.4013	2206.25	1328.3
1029.3202	3020.4509	2220.25	1340.95
1029.4314	3021.4998	2212.1	1332.5
1029.5425	3022.5481	2205.75	1328.3
1029.6535	3023.5958	2191.25	1310.6
1029.7645	3024.6428	2188.15	1308.9
1029.8755	3025.6892	2186.25	1308.2
1029.9864	3026.735	2180.7	1301.45
1030.0973	3027.7802	2169.8	1290.55
1030.2082	3028.8247	2160.35	1281.7
1030.319	3029.8685	2161.25	1280.4
1030.4297	3030.9118	2155.15	1273
1030.5404	3031.9544	2149.8	1272.95
1030.6511	3032.9963	2149.25	1269.3
1030.7617	3034.0376	2148.3	1266.7
1030.8723	3035.0783	2133.8	1252.4
1030.9829	3036.1184	2135.5	1254.15
1031.0934	3037.1578	2136.75	1257.2
1031.2038	3038.1966	2125.1	1244.9
1031.3142	3039.2348	2125.95	1246.85
1031.4246	3040.2723	2120.55	1232.45
1031.5349	3041.3092	2110.85	1231.25
1031.6452	3042.3455	2113.85	1234.35
1031.7554	3043.3811	2099.65	1219.4
1031.8656	3044.4161	2098.75	1217.9
1031.9758	3045.4505	2087.15	1207.45
1032.0859	3046.4842	2088.8	1206.55
1032.1959	3047.5173	2078.9	1201.9
1032.3059	3048.5498	2074.95	1194.7
1032.4159	3049.5816	2071.95	1192.25
1032.5258	3050.6128	2076.3	1198.35
1032.6357	3051.6434	2063.5	1180.6
1032.7455	3052.6734	2056.35	1177.05
1032.8553	3053.7027	2062.85	1183.6
1032.9651	3054.7314	2057.65	1179.55
1033.0748	3055.7594	2037.35	1159.25
1033.1845	3056.7868	2034.55	1152.3
1033.2941	3057.8136	2031.4	1153.8
1033.4037	3058.8398	2015.75	1136.7
1033.5132	3059.8653	2021.6	1139.6
1033.6227	3060.8902	2019.85	1141.15
1033.7321	3061.9145	2019.05	1138.8
1033.8415	3062.9381	1995.95	1117.6
1033.9509	3063.9612	2016.4	1123
1034.0602	3064.9835	1994	1114.55
1034.1694	3066.0053	1985.65	1104
1034.2787	3067.0264	1977	1096.7
1034.3878	3068.0469	1979.85	1100.95
1034.497	3069.0668	1970.55	1088.35
1034.6061	3070.086	1972.8	1094.85
1034.7151	3071.1046	1953.65	1075.4
1034.8241	3072.1226	1955.4	1075.75
1034.9331	3073.1399	1953.05	1072.5
1035.042	3074.1567	1936.55	1057.65
1035.1508	3075.1727	1941	1059.9
1035.2597	3076.1882	1914.6	1034.55
1035.3684	3077.203	1919.75	1040.05
1035.4772	3078.2173	1911.55	1030.55
1035.5859	3079.2308	1909.6	1029.5
1035.6945	3080.2438	1899.5	1016.85
1035.8031	3081.2561	1889.5	1010.8
1035.9117	3082.2678	1887.5	1008.1
1036.0202	3083.2789	1886.85	1006.3
1036.1286	3084.2893	1874.85	996.3
1036.2371	3085.2991	1865.05	982.8
1036.3454	3086.3083	1863.35	981.45
1036.4538	3087.3169	1860.85	980.55
1036.562	3088.3248	1848.9	968.2
1036.6703	3089.3321	1839.95	958.9
1036.7785	3090.3388	1848.15	970.35
1036.8866	3091.3449	1831.45	952.5
1036.9948	3092.3503	1833.2	950.4
1037.1028	3093.3551	1823.4	947.35
1037.2108	3094.3593	1810.75	931.75
1037.3188	3095.3629	1808.5	929.2
1037.4267	3096.3658	1803.8	923.1
1037.5346	3097.3681	1810.85	932.3
1037.6425	3098.3698	1799.7	918.65
1037.7503	3099.3708	1805.5	918.55
1037.858	3100.3713	1779.25	902.1
1037.9657	3101.3711	1779.8	900.85
1038.0734	3102.3702	1905.8	890.95
1038.181	3103.3688	1784.2	903.9
1038.2886	3104.3667	1767.4	887.2
1038.3961	3105.364	1754.85	873.95
1038.5036	3106.3607	1758.7	877.65
1038.611	3107.3568	1741.15	863.05
1038.7184	3108.3522	1749.25	869.6
1038.8257	3109.347	1732.45	852.25
1038.933	3110.3412	1735.65	853.5
1039.0403	3111.3348	1718.9	839.15
1039.1475	3112.3277	1722.6	842.2
1039.2547	3113.32	1713.8	833.9
1039.3618	3114.3117	1712.55	832.05
1039.4689	3115.3028	1705.85	827.5
1039.5759	3116.2932	1707.2	823.05
1039.6829	3117.2831	1705	819.5
1039.7898	3118.2723	1701.1	820.45
1039.8967	3119.2608	1689.45	810.6
1040.0035	3120.2488	1696.45	817.85
1040.1103	3121.2361	1683.1	803.7
1040.2171	3122.2229	1675.5	796.55
1040.3238	3123.209	1675.4	792.85
1040.4305	3124.1944	1663.05	784.25
1040.5371	3125.1793	1657.1	774.8
1040.6437	3126.1635	1665.85	786.25
1040.7502	3127.1471	1649.45	771.3
1040.8567	3128.1301	1645.9	765.6
1040.9631	3129.1125	1644.1	766.25
1041.0695	3130.0942	1642.45	764.7
1041.1759	3131.0753	1650.95	762.45
1041.2822	3132.0558	1641.25	759.4
1041.3884	3133.0357	1630.75	749.35
1041.4946	3134.015	1626.5	746.75
1041.6008	3134.9936	1624.35	741.9
1041.7069	3135.9716	1643.4	742.1
1041.813	3136.949	1624.45	745.7
1041.919	3137.9258	1630.75	747.15
1042.025	3138.902	1615	729.95
1042.1309	3139.8775	1612	734.2
1042.2368	3140.8524	1594.55	715.65
1042.3427	3141.8267	1605	724.15
1042.4485	3142.8004	1595.05	712.85
1042.5542	3143.7735	1604.15	718
1042.6599	3144.7459	1599.55	718.45
1042.7656	3145.7178	1594.55	715.9
1042.8712	3146.689	1584.4	707.85
1042.9768	3147.6596	1584.8	703.8
1043.0823	3148.6295	1576.7	695.75
1043.1878	3149.5989	1573.4	694.75
1043.2932	3150.5676	1566.35	685.15
1043.3986	3151.5357	1564.55	686.8
1043.5039	3152.5032	1562.85	685.6
1043.6092	3153.4701	1560.95	682.65
1043.7145	3154.4364	1558.5	677.9
1043.8197	3155.402	1554.5	676.3
1043.9248	3156.367	1544.65	661.95
1044.03	3157.3315	1579.2	663.7
1044.135	3158.2952	1543.1	663.85
1044.24	3159.2584	1534.95	655.5
1044.345	3160.221	1529.3	648.65
1044.4499	3161.1829	1529	650.65
1044.5548	3162.1442	1523.75	645.7
1044.6596	3163.105	1523.6	643.8
1044.7644	3164.065	1517.9	639.1
1044.8692	3165.0245	1508.05	626.65
1044.9739	3165.9834	1510.85	632.5
1045.0785	3166.9416	1502.6	623.65
1045.1831	3167.8993	1496.95	616.75
1045.2877	3168.8563	1499.5	618.25
1045.3922	3169.8127	1502.25	622
1045.4966	3170.7684	1491.65	612.5
1045.6011	3171.7236	1491.9	610.55
1045.7054	3172.6782	1486.25	606.6
1045.8098	3173.6321	1483.45	603.2
1045.914	3174.5854	1483.95	599.35
1046.0183	3175.5381	1474.7	594.7
1046.1224	3176.4902	1478.25	600.5
1046.2266	3177.4417	1474.65	595.05
1046.3307	3178.3926	1468.85	591.75
1046.4347	3179.3428	1459.45	581.6
1046.5387	3180.2924	1454.3	576.15
1046.6427	3181.2415	1450.05	569.9
1046.7466	3182.1899	1455.85	575.35
1046.8504	3183.1377	1447.1	569
1046.9542	3184.0848	1450.6	567.7
1047.058	3185.0314	1446.7	568.8
1047.1617	3185.9773	1437.95	559.8
1047.2654	3186.9227	1432.65	553.5
1047.369	3187.8674	1437.4	558.1
1047.4726	3188.8115	1439.15	555.5
1047.5761	3189.755	1428	548.75
1047.6796	3190.6979	1427.45	548.75
1047.783	3191.6402	1420.5	539.95
1047.8864	3192.5818	1420.25	540.8
1047.9898	3193.5229	1433.3	539.95
1048.0931	3194.4633	1412.15	534.25
1048.1963	3195.4031	1416.6	536.5
1048.2995	3196.3423	1411.7	533.05
1048.4027	3197.2809	1407.8	528.25
1048.5058	3198.2189	1407.9	528.85
1048.6089	3199.1563	1415.35	518.35
1048.7119	3200.0931	1407.4	530.25
1048.8148	3201.0292	1392.6	515.1
1048.9178	3201.9648	1391.85	513.05
1049.0206	3202.8997	1388.8	505.6
1049.1235	3203.834	1389.85	510.35
1049.2262	3204.7677	1385	506.6
1049.329	3205.7008	1391.05	511
1049.4317	3206.6333	1378.45	500.85
1049.5343	3207.5652	1379.15	500.05
1049.6369	3208.4964	1375.55	494.4
1049.7394	3209.4271	1372.85	494
1049.8419	3210.3571	1370.9	491.4
1049.9444	3211.2865	1368.2	489.4
1050.0468	3212.2154	1363.75	486.05
1050.1491	3213.1436	1366.3	484.7
1050.2514	3214.0712	1367.9	482.7
1050.3537	3214.9982	1355.35	478.1
1050.4559	3215.9246	1357.3	477.05
1050.5581	3216.8503	1353.5	475.55
1050.6602	3217.7755	1352.35	474.75
1050.7623	3218.7001	1346.35	468.7
1050.8643	3219.624	1345.3	466.2
1050.9663	3220.5473	1340.7	459.4
1051.0682	3221.4701	1343.65	462.55
1051.1701	3222.3922	1344.5	463.05
1051.2719	3223.3137	1332.55	454.35
1051.3737	3224.2346	1335.2	455.4
1051.4754	3225.1549	1329.35	450.65
1051.5771	3226.0746	1332.55	454.85
1051.6788	3226.9937	1323.05	443.5
1051.7804	3227.9121	1318.55	439.45
1051.8819	3228.83	1324.5	447.5
1051.9834	3229.7473	1316	438.25
1052.0849	3230.6639	1316.85	437.95
1052.1863	3231.5799	1318.95	439.85
1052.2876	3232.4954	1311	429.3
1052.3889	3233.4102	1303.5	425.7
1052.4902	3234.3244	1306.9	427.8
1052.5914	3235.238	1302.85	424.3
1052.6926	3236.151	1319.6	414.35
1052.7937	3237.0634	1301.8	423.7
1052.8948	3237.9752	1300.1	422.4
1052.9958	3238.8864	1292.45	413.55
1053.0968	3239.797	1289.4	409.3
1053.1977	3240.7069	1294.45	415
1053.2986	3241.6163	1292.45	412
1053.3994	3242.5251	1281.5	403.95
1053.5002	3243.4332	1286.6	409.35
1053.6009	3244.3408	1282.65	403.5
1053.7016	3245.2477	1275.6	398.9
1053.8022	3246.154	1272.45	392.3
1053.9028	3247.0598	1271.35	390.7
1054.0034	3247.9649	1267.3	390
1054.1039	3248.8694	1268.85	387.5
1054.2043	3249.7733	1265.25	388.3
1054.3047	3250.6766	1261.65	382.1
1054.4051	3251.5793	1256.45	375.8
1054.5054	3252.4814	1260.6	383.15
1054.6056	3253.3829	1259.5	379.75
1054.7058	3254.2838	1245.4	366.8
1054.806	3255.1841	1248.55	371.55
1054.9061	3256.0838	1248.55	368.95
1055.0061	3256.9829	1241.95	364.6
1055.1062	3257.8814	1240.55	359.5
1055.2061	3258.7792	1236.3	355.85
1055.306	3259.6765	1230.75	349.65
1055.4059	3260.5731	1228.65	348.85
1055.5057	3261.4692	1225.85	346.85
1055.6055	3262.3647	1218.15	336.95
1055.7052	3263.2595	1221.15	342.3
1055.8049	3264.1538	1211.8	332.45
1055.9045	3265.0474	1207.9	328.15
1056.0041	3265.9404	1205.15	325.5
1056.1036	3266.8329	1199.5	321.5
1056.2031	3267.7247	1202.15	313.7
1056.3025	3268.616	1182.15	304.9
1056.4019	3269.5066	1176.2	296.65
1056.5013	3270.3966	1172.9	291.7
1056.6005	3271.286	1153.8	274.85
