Software Version:	3.9.2.0
Unit SN:	10000200
Spectrometer SN:	6960
Date:	3/6/2024 10:11:21 AM
Data Line Index:	25
Spectral Points:	2048
Integration time (ms):	125
Averages:	20
Delay (ms):	30
Sequence Number:	1
Processing:	dark subtract
Laser Power (mW):	300
Laser Current (mA):	826
Laser Diode Temp (C):	25.1
Laser Case Temp (C):	24.9
System Temp (C):	24.7
Spectrometer Temp (C):	22.3
CCD Temp (C):	-0.005
Secondary Temp (C):	20.01
Heatsink Temp (C):	18.636
CCDPCB Temp (C):	32.25
SecondaryPCB Temp (C):	25.869

Wavelength	RamanShift	Raw Counts	Dark Subtracted
787.061	30.1047	964.15	558.25
787.2016	32.3739	989.85	583.2
787.3422	34.6426	1026.15	619.5
787.4828	36.9109	1060.7	651
787.6235	39.1787	1108.25	693.35
787.7642	41.4461	1156.5	738
787.9049	43.7131	1191.45	769.75
788.0456	45.9796	1250.3	826.45
788.1863	48.2456	1302.1	875.25
788.3271	50.5112	1354	922
788.4679	52.7764	1408.3	974.65
788.6087	55.0411	1479.85	1042.2
788.7496	57.3054	1534.2	1090.8
788.8904	59.5692	1613.4	1167.7
789.0313	61.8326	1671.95	1224.05
789.1722	64.0955	1760.1	1309.6
789.3132	66.3579	1859.05	1403.15
789.4541	68.6199	1980.15	1519.35
789.5951	70.8815	2197.05	1730.65
789.7361	73.1426	2649.3	2176.45
789.8771	75.4032	3794.1	3320.8
790.0181	77.6634	6762.3	6285
790.1592	79.9231	14355.9	13873.75
790.3003	82.1824	42814.45	42319.1
790.4414	84.4412	65025.15	64504.3
790.5825	86.6995	65535	64986.55
790.7237	88.9574	65535	64963.7
790.8648	91.2148	65535	64948.1
791.006	93.4717	65535	64938.9
791.1472	95.7282	65535	64929.6
791.2885	97.9842	65535	64931.5
791.4297	100.2398	65535	64923.75
791.571	102.4949	65535	64919.5
791.7123	104.7495	65535	64916.2
791.8536	107.0036	65535	64919.15
791.9949	109.2573	65535	64918.95
792.1363	111.5105	65535	64915.1
792.2777	113.7632	65535	64914.15
792.4191	116.0154	65535	64903.45
792.5605	118.2672	65535	64911.9
792.7019	120.5185	65535	64912.3
792.8434	122.7693	65535	64904.45
792.9849	125.0197	65535	64899.95
793.1264	127.2696	65535	64893.4
793.2679	129.519	65535	64892.9
793.4094	131.7679	65535	64891.95
793.551	134.0163	65535	64888.85
793.6926	136.2642	65535	64886.6
793.8342	138.5117	65535	64882.55
793.9758	140.7587	65535	64881.15
794.1175	143.0052	65535	64877.3
794.2591	145.2512	65535	64875.5
794.4008	147.4967	65535	64874.4
794.5425	149.7417	65535	64875.45
794.6842	151.9863	65535	64865.55
794.826	154.2304	65535	64862.95
794.9677	156.4739	65535	64857.55
795.1095	158.717	65535	64861.3
795.2513	160.9596	65535	64854.5
795.3931	163.2017	65535	64852.8
795.535	165.4433	65535	64850.6
795.6768	167.6844	65535	64848.75
795.8187	169.925	65535	64842.2
795.9606	172.1651	65535	64844.75
796.1025	174.4047	65535	64841.3
796.2445	176.6439	65535	64838.75
796.3864	178.8825	65535	64832.35
796.5284	181.1206	65535	64831.5
796.6704	183.3582	65535	64823.75
796.8124	185.5954	65535	64825.35
796.9544	187.832	65535	64820.45
797.0965	190.0681	65535	64816.75
797.2386	192.3037	65535	64815.25
797.3806	194.5388	65535	64812.6
797.5228	196.7734	65535	64810.8
797.6649	199.0075	65535	64809.3
797.807	201.2411	65535	64805.15
797.9492	203.4742	65535	64807.35
798.0914	205.7068	65535	64801.3
798.2336	207.9389	65535	64800.2
798.3758	210.1704	65535	64802.95
798.518	212.4015	65535	64811.45
798.6603	214.632	65535	64818.6
798.8025	216.862	65535	64823.8
798.9448	219.0915	65535	64820.15
799.0871	221.3205	65535	64818.1
799.2294	223.549	65535	64822.35
799.3718	225.777	65535	64822.65
799.5141	228.0044	65535	64814.65
799.6565	230.2314	65535	64816
799.7989	232.4578	65535	64812.3
799.9413	234.6837	65535	64803.6
800.0837	236.909	65535	64801.5
800.2262	239.1339	65535	64778.5
800.3687	241.3582	65535	64789.8
800.5111	243.582	65535	64757.6
800.6536	245.8053	65535	64774.8
800.7961	248.0281	65535	64778.9
800.9387	250.2503	65535	64772.25
801.0812	252.472	65535	64768.9
801.2238	254.6932	65535	64772.15
801.3664	256.9139	65535	64768.9
801.509	259.134	65535	64763.85
801.6516	261.3536	65535	64767.95
801.7942	263.5727	65535	64767.45
801.9369	265.7912	65535	64765.9
802.0795	268.0092	65535	64769.6
802.2222	270.2267	65535	64767.75
802.3649	272.4436	65535	64764.35
802.5076	274.6601	65535	64754.5
802.6504	276.8759	65535	64759.55
802.7931	279.0913	65535	64760.8
802.9359	281.3061	65535	64755.3
803.0787	283.5204	65535	64752.5
803.2215	285.7341	65535	64751.45
803.3643	287.9473	65535	64737.6
803.5071	290.16	65535	64745.95
803.6499	292.3721	65535	64756.1
803.7928	294.5837	65535	64750.65
803.9357	296.7947	65535	64751.35
804.0786	299.0052	65535	64751.65
804.2215	301.2152	65535	64746.8
804.3644	303.4246	65535	64749.9
804.5074	305.6334	65535	64750.05
804.6503	307.8418	65535	64745.2
804.7933	310.0495	65535	64743.75
804.9363	312.2568	65535	64743
805.0793	314.4635	65535	64741.65
805.2223	316.6696	65535	64739.1
805.3653	318.8752	65535	64727.15
805.5084	321.0802	65535	64739.3
805.6514	323.2847	65535	64730.9
805.7945	325.4887	65535	64738.8
805.9376	327.692	65535	64732.7
806.0807	329.8949	65535	64731.35
806.2238	332.0972	65535	64730.6
806.367	334.2989	65535	64725.2
806.5101	336.5001	65535	64727.8
806.6533	338.7007	65535	64731.3
806.7965	340.9008	65535	64726.3
806.9397	343.1003	65535	64726
807.0829	345.2992	65535	64722.6
807.2261	347.4976	65535	64719.45
807.3693	349.6955	65535	64717.25
807.5126	351.8927	65535	64715.7
807.6559	354.0895	65535	64704.6
807.7991	356.2856	65535	64717.9
807.9424	358.4812	65535	64713.85
808.0857	360.6763	65535	64710.95
808.2291	362.8707	65535	64713.75
808.3724	365.0646	65535	64708.8
808.5158	367.258	65535	64706.55
808.6591	369.4508	65535	64703.05
808.8025	371.643	65535	64702.6
808.9459	373.8346	65535	64700.35
809.0893	376.0257	65535	64701.8
809.2327	378.2162	65535	64704.05
809.3762	380.4062	65535	64702.35
809.5196	382.5956	65535	64702.25
809.6631	384.7844	65535	64709.15
809.8066	386.9726	65535	64704.8
809.9501	389.1603	65535	64707.9
810.0936	391.3474	65535	64667.25
810.2371	393.5339	65535	64704.45
810.3806	395.7199	65535	64708.25
810.5241	397.9052	65535	64708.45
810.6677	400.09	65535	64704.85
810.8113	402.2743	65535	64708.85
810.9548	404.4579	65535	64704.55
811.0984	406.641	65535	64705.2
811.2421	408.8235	65535	64705.75
811.3857	411.0054	65535	64698.1
811.5293	413.1868	65535	64692.05
811.673	415.3675	65535	64693.4
811.8166	417.5477	65535	64693.75
811.9603	419.7273	65535	64691.3
812.104	421.9064	65535	64686.15
812.2477	424.0848	65535	64688.25
812.3914	426.2627	65535	64687.6
812.5351	428.4399	65535	64687.45
812.6788	430.6166	65535	64684.45
812.8226	432.7928	65535	64684.45
812.9663	434.9683	65535	64687.25
813.1101	437.1432	65535	64685.9
813.2539	439.3176	65535	64687.25
813.3977	441.4914	65535	64688
813.5415	443.6645	65535	64687.35
813.6853	445.8371	65535	64682.65
813.8291	448.0091	65535	64686.2
813.973	450.1806	65535	64686.2
814.1168	452.3514	65535	64684.8
814.2607	454.5216	65535	64677.4
814.4046	456.6913	65535	64683.95
814.5485	458.8603	65535	64683.5
814.6924	461.0288	65535	64685.35
814.8363	463.1967	65535	64692.2
814.9802	465.3639	65535	64683.6
815.1241	467.5306	65535	64679.9
815.2681	469.6967	65535	64686.9
815.412	471.8622	65535	64683.8
815.556	474.0271	65535	64688.25
815.7	476.1914	65535	64679
815.844	478.3551	65535	64680.45
815.988	480.5182	65535	64680.35
816.132	482.6807	65535	64688.25
816.276	484.8426	65535	64689.4
816.4201	487.0039	65535	64686.2
816.5641	489.1647	65535	64676.8
816.7082	491.3248	65535	64677.45
816.8522	493.4843	65535	64682.9
816.9963	495.6432	65535	64681.45
817.1404	497.8015	65535	64674.65
817.2845	499.9592	65535	64668.65
817.4286	502.1163	65535	64670.5
817.5727	504.2728	65535	64671.5
817.7168	506.4287	65535	64679.75
817.861	508.5839	65535	64679.7
818.0051	510.7386	65535	64676.75
818.1493	512.8927	65535	64671.05
818.2935	515.0461	65535	64672.55
818.4377	517.199	65535	64667.35
818.5818	519.3512	65535	64667.7
818.726	521.5029	65535	64664.3
818.8703	523.6539	65535	64666.65
819.0145	525.8043	65535	64665.85
819.1587	527.9541	65535	64663.65
819.303	530.1033	65535	64666.3
819.4472	532.2519	65535	64663.5
819.5915	534.3999	65535	64663.35
819.7357	536.5472	65535	64662.85
819.88	538.694	65535	64664.8
820.0243	540.8401	65535	64664.7
820.1686	542.9856	65535	64659.9
820.3129	545.1305	65535	64654
820.4572	547.2748	65535	64652.05
820.6016	549.4185	65535	64651.2
820.7459	551.5615	65535	64653.9
820.8902	553.704	65535	64655.9
821.0346	555.8458	65535	64659.4
821.1789	557.987	65535	64654.9
821.3233	560.1276	65535	64656.95
821.4677	562.2675	65535	64656.55
821.6121	564.4069	65535	64657.9
821.7565	566.5456	65535	64661.4
821.9009	568.6837	65535	64662.75
822.0453	570.8212	65535	64657.35
822.1897	572.958	65535	64658.05
822.3342	575.0942	65535	64660.85
822.4786	577.2299	65535	64663.65
822.6231	579.3648	65535	64672.55
822.7675	581.4992	65535	64673.25
822.912	583.6329	65535	64670.15
823.0565	585.766	65535	64665.8
823.201	587.8985	65535	64665.2
823.3454	590.0304	65535	64639.7
823.4899	592.1616	65535	64658.65
823.6345	594.2922	65535	64650.9
823.779	596.4222	65535	64653.55
823.9235	598.5515	65535	64648.85
824.068	600.6802	65535	64650.8
824.2126	602.8083	65535	64652.5
824.3571	604.9358	65535	64652.5
824.5017	607.0626	65535	64650.85
824.6462	609.1888	65535	64643.75
824.7908	611.3144	65535	64644.35
824.9354	613.4393	65535	64646.5
825.08	615.5636	65535	64642.2
825.2246	617.6873	65535	64648.9
825.3692	619.8103	65535	64649.55
825.5138	621.9327	65535	64643.7
825.6584	624.0544	65535	64651.3
825.803	626.1756	65535	64648.5
825.9477	628.2961	65535	64646.75
826.0923	630.4159	65535	64649.25
826.237	632.5351	65535	64646.25
826.3816	634.6537	65535	64645.8
826.5263	636.7716	65535	64638.7
826.6709	638.8889	65535	64637.85
826.8156	641.0056	65535	64638.9
826.9603	643.1216	65535	64642.15
827.105	645.237	65535	64640.15
827.2497	647.3518	65535	64644.35
827.3944	649.4659	65535	64652
827.5391	651.5793	65535	64649.25
827.6838	653.6922	65535	64647.15
827.8285	655.8043	65535	64645.3
827.9733	657.9159	65535	64647.1
828.118	660.0268	65535	64645.3
828.2627	662.137	65535	64642.1
828.4075	664.2466	65535	64637.45
828.5522	666.3556	65535	64640.7
828.697	668.4639	65535	64642.1
828.8418	670.5716	65535	64643.7
828.9865	672.6786	65535	64638.95
829.1313	674.785	65535	64638.55
829.2761	676.8907	65535	64641.65
829.4209	678.9958	65535	64645.35
829.5657	681.1002	65535	64641
829.7105	683.204	65535	64632.2
829.8553	685.3072	65535	64636.75
830.0001	687.4097	65535	64638
830.1449	689.5115	65535	64636.35
830.2898	691.6127	65535	64642.35
830.4346	693.7132	65535	64640
830.5794	695.8131	65535	64622
830.7243	697.9123	65535	64632.05
830.8691	700.0109	65535	64633.15
831.014	702.1089	65535	64632.25
831.1588	704.2061	65535	64635
831.3037	706.3028	65535	64631
831.4486	708.3987	65535	64634.9
831.5935	710.4941	65535	64635.15
831.7383	712.5887	65535	64635.3
831.8832	714.6827	65535	64630.65
832.0281	716.7761	65535	64640.3
832.173	718.8688	65535	64632.9
832.3179	720.9608	65535	64628
832.4628	723.0522	65535	64626.3
832.6077	725.1429	65535	64632.55
832.7527	727.233	65535	64629.4
832.8976	729.3224	65535	64633.05
833.0425	731.4112	65535	64632.85
833.1874	733.4993	65535	64629.4
833.3324	735.5867	65535	64629.85
833.4773	737.6735	65535	64630.45
833.6222	739.7596	65535	64629.85
833.7672	741.845	65535	64633.6
833.9122	743.9298	65535	64629.9
834.0571	746.014	65535	64631.45
834.2021	748.0974	65535	64625.85
834.347	750.1802	65535	64627
834.492	752.2624	65535	64626.2
834.637	754.3439	65535	64626.35
834.782	756.4247	65535	64621.35
834.9269	758.5048	65535	64627.2
835.0719	760.5843	65535	64623.45
835.2169	762.6631	65535	64626.25
835.3619	764.7413	65535	64630.85
835.5069	766.8188	65535	64624.75
835.6519	768.8956	65535	64625.4
835.7969	770.9718	65535	64624.2
835.9419	773.0473	65535	64626.7
836.0869	775.1221	65535	64626.35
836.232	777.1962	65535	64627.3
836.377	779.2697	65535	64624.35
836.522	781.3426	65535	64606.75
836.667	783.4147	65535	64623.85
836.8121	785.4862	65535	64624.85
836.9571	787.557	65535	64622.1
837.1021	789.6271	65535	64624.9
837.2472	791.6966	65535	64623.6
837.3922	793.7654	65535	64625
837.5373	795.8335	65535	64626.55
837.6823	797.901	65535	64625.35
837.8274	799.9678	65535	64622.35
837.9724	802.0339	65535	64623.45
838.1175	804.0993	65535	64612.35
838.2626	806.1641	65535	64623.85
838.4076	808.2282	65535	64622.3
838.5527	810.2916	65535	64619.4
838.6978	812.3544	65535	64625
838.8428	814.4164	65535	64621.05
838.9879	816.4778	65535	64621.55
839.133	818.5385	65535	64622.4
839.2781	820.5986	65535	64623
839.4232	822.658	65535	64619.1
839.5682	824.7166	65535	64621.95
839.7133	826.7747	65535	64619.85
839.8584	828.832	65535	64621.4
840.0035	830.8886	65535	64620.75
840.1486	832.9446	65535	64621.2
840.2937	834.9999	65535	64621.55
840.4388	837.0545	65535	64619.8
840.5839	839.1085	65535	64620.4
840.729	841.1618	65535	64616.6
840.8741	843.2143	65535	64621.7
841.0192	845.2662	65535	64617.15
841.1643	847.3175	65535	64624.2
841.3095	849.368	65535	64621.3
841.4546	851.4179	65535	64619.7
841.5997	853.467	65535	64620.85
841.7448	855.5155	65535	64618.45
841.8899	857.5633	65535	64621.7
842.0351	859.6105	65535	64617.1
842.1802	861.6569	65535	64617.6
842.3253	863.7027	65535	64617.95
842.4704	865.7478	65535	64616.65
842.6156	867.7922	65535	64618.55
842.7607	869.8359	65535	64615.8
842.9058	871.8789	65535	64619.1
843.0509	873.9212	65535	64586.25
843.1961	875.9629	65535	64614.95
843.3412	878.0039	65535	64618.1
843.4863	880.0441	65535	64622.7
843.6315	882.0837	65535	64617.95
843.7766	884.1226	65535	64618.35
843.9218	886.1609	65535	64618
844.0669	888.1984	65535	64619.2
844.212	890.2352	65535	64617.8
844.3572	892.2714	65535	64612.25
844.5023	894.3069	65535	64619.1
844.6475	896.3416	65535	64617.75
844.7926	898.3757	65535	64615
844.9377	900.4091	65535	64619.25
845.0829	902.4418	65535	64609.3
845.228	904.4739	65535	64612.6
845.3732	906.5052	65535	64613.55
845.5183	908.5358	65535	64614.2
845.6635	910.5658	65535	64614.65
845.8086	912.595	65535	64612.55
845.9538	914.6236	65535	64615.05
846.0989	916.6515	65535	64614.95
846.2441	918.6786	65535	64608.5
846.3892	920.7051	65535	64613.9
846.5344	922.7309	65535	64613.1
846.6795	924.756	65535	64616.3
846.8246	926.7804	65535	64615.35
846.9698	928.8041	65535	64611
847.1149	930.8272	65535	64615.2
847.2601	932.8495	65535	64615.35
847.4052	934.8711	65535	64615.15
847.5504	936.892	65535	64612.65
847.6955	938.9123	65535	64616.6
847.8407	940.9318	65535	64615.15
847.9858	942.9506	65535	64615.55
848.131	944.9688	65535	64616.75
848.2761	946.9862	65535	64610.5
848.4213	949.003	65535	64615.55
848.5664	951.019	65535	64613.45
848.7115	953.0344	65535	64615.45
848.8567	955.0491	65535	64614.4
849.0018	957.063	65535	64614.95
849.147	959.0763	65535	64618.65
849.2921	961.0888	65535	64612.3
849.4373	963.1007	65535	64617.25
849.5824	965.1119	65535	64620.6
849.7275	967.1223	65535	64620.9
849.8727	969.1321	65535	64623.9
850.0178	971.1412	65535	64619.5
850.1629	973.1495	65535	64615.75
850.3081	975.1572	65535	64573.1
850.4532	977.1641	65535	64613.8
850.5983	979.1704	65535	64611.25
850.7435	981.1759	65535	64609.6
850.8886	983.1808	65535	64613.3
851.0337	985.1849	65535	64604.45
851.1788	987.1884	65535	64609.05
851.324	989.1911	65535	64610.4
851.4691	991.1932	65535	64614.4
851.6142	993.1945	65535	64613.9
851.7593	995.1951	65535	64613.85
851.9045	997.1951	65535	64607.95
852.0496	999.1943	65535	64612.9
852.1947	1001.1928	65535	64612.5
852.3398	1003.1906	65535	64616.5
852.4849	1005.1877	65535	64611.9
852.63	1007.1841	65535	64613.9
852.7751	1009.1798	65535	64616.95
852.9202	1011.1748	65535	64613.25
853.0653	1013.1691	65535	64612.55
853.2104	1015.1627	65535	64611.85
853.3555	1017.1556	65535	64617.35
853.5006	1019.1477	65535	64613.6
853.6457	1021.1392	65535	64617.1
853.7908	1023.1299	65535	64621.5
853.9359	1025.12	65535	64619.65
854.081	1027.1093	65535	64630.95
854.2261	1029.0979	65535	64629.8
854.3712	1031.0859	65535	64625.95
854.5163	1033.0731	65535	64622.05
854.6613	1035.0596	65535	64621.25
854.8064	1037.0454	65535	64619.7
854.9515	1039.0304	65535	64616.35
855.0965	1041.0148	65535	64616.35
855.2416	1042.9985	65535	64613
855.3867	1044.9814	65535	64617.7
855.5317	1046.9636	65535	64616.3
855.6768	1048.9452	65535	64617.55
855.8219	1050.926	65535	64616.1
855.9669	1052.9061	65535	64617.85
856.112	1054.8855	65535	64613.5
856.257	1056.8642	65535	64612.5
856.4021	1058.8421	65535	64612.9
856.5471	1060.8194	65535	64611.95
856.6921	1062.7959	65535	64612.6
856.8372	1064.7717	65535	64613
856.9822	1066.7469	65535	64616.15
857.1272	1068.7213	65535	64613.7
857.2723	1070.695	65535	64613.55
857.4173	1072.6679	65535	64614.85
857.5623	1074.6402	65535	64613.8
857.7073	1076.6117	65535	64607.35
857.8523	1078.5826	65535	64612.85
857.9973	1080.5527	65535	64612.8
858.1423	1082.5221	65535	64613.2
858.2873	1084.4908	65535	64615.5
858.4323	1086.4587	65535	64616.05
858.5773	1088.426	65535	64614.4
858.7223	1090.3925	65535	64612.65
858.8673	1092.3584	65535	64618.05
859.0123	1094.3235	65535	64613.85
859.1573	1096.2879	65535	64616.7
859.3022	1098.2515	65535	64615.8
859.4472	1100.2145	65535	64613.85
859.5922	1102.1767	65535	64614.1
859.7371	1104.1382	65535	64615.75
859.8821	1106.099	65535	64614.7
860.027	1108.0591	65535	64616.5
860.172	1110.0185	65535	64614.15
860.3169	1111.9771	65535	64614.25
860.4619	1113.9351	65535	64615.9
860.6068	1115.8923	65535	64616.95
860.7517	1117.8488	65535	64613.65
860.8967	1119.8045	65535	64617.65
861.0416	1121.7596	65535	64614.3
861.1865	1123.7139	65535	64615.45
861.3314	1125.6675	65535	64616.7
861.4763	1127.6204	65535	64618.6
861.6212	1129.5726	65535	64613.55
861.7661	1131.524	65535	64620.6
861.911	1133.4748	65535	64615.2
862.0559	1135.4248	65535	64618.05
862.2008	1137.3741	65535	64615.9
862.3457	1139.3226	65535	64616.25
862.4905	1141.2705	65535	64613.9
862.6354	1143.2176	65535	64611.75
862.7803	1145.164	65535	64613.95
862.9251	1147.1097	65535	64614.15
863.07	1149.0546	65535	64612.9
863.2148	1150.9989	65535	64616.5
863.3597	1152.9424	65535	64617.35
863.5045	1154.8852	65535	64615.35
863.6493	1156.8272	65535	64615.85
863.7942	1158.7686	65535	64606.45
863.939	1160.7092	65535	64614.6
864.0838	1162.6491	65535	64615.35
864.2286	1164.5883	65535	64616.4
864.3734	1166.5267	65535	64615.5
864.5182	1168.4644	65535	64613.65
864.663	1170.4014	65535	64612.9
864.8078	1172.3377	65535	64618.05
864.9526	1174.2732	65535	64618.65
865.0974	1176.2081	65535	64618.55
865.2421	1178.1421	65535	64612
865.3869	1180.0755	65535	64617.65
865.5317	1182.0082	65535	64615.5
865.6764	1183.9401	65535	64617.7
865.8212	1185.8713	65535	64619.75
865.9659	1187.8017	65535	64624.4
866.1106	1189.7315	65535	64627.55
866.2554	1191.6605	65535	64602.05
866.4001	1193.5888	65535	64623.3
866.5448	1195.5163	65535	64622.2
866.6895	1197.4432	65535	64618.15
866.8342	1199.3693	65535	64617.75
866.9789	1201.2947	65535	64614.4
867.1236	1203.2193	65535	64616.55
867.2683	1205.1432	65535	64617.1
867.413	1207.0664	65535	64617.7
867.5576	1208.9889	65535	64614.95
867.7023	1210.9106	65535	64616.35
867.847	1212.8316	65535	64616.7
867.9916	1214.7519	65535	64611.3
868.1363	1216.6715	65535	64617.4
868.2809	1218.5903	65535	64618.25
868.4255	1220.5084	65535	64618.25
868.5701	1222.4257	65535	64618.3
868.7148	1224.3424	65535	64619.85
868.8594	1226.2583	65535	64616.6
869.004	1228.1735	65535	64617.75
869.1486	1230.0879	65535	64618.35
869.2932	1232.0016	65535	64617
869.4377	1233.9146	65535	64615.35
869.5823	1235.8269	65535	64619
869.7269	1237.7384	65535	64618.35
869.8715	1239.6492	65535	64619.3
870.016	1241.5592	65535	64615.1
870.1606	1243.4686	65535	64618.95
870.3051	1245.3772	65535	64620.8
870.4496	1247.285	65535	64619.1
870.5941	1249.1922	65535	64618.9
870.7387	1251.0986	65535	64616.25
870.8832	1253.0042	65535	64620.35
871.0277	1254.9092	65535	64617.95
871.1722	1256.8134	65535	64621
871.3167	1258.7169	65535	64618.4
871.4611	1260.6196	65535	64619.6
871.6056	1262.5216	65535	64622.25
871.7501	1264.4229	65535	64621.1
871.8945	1266.3234	65535	64619.4
872.039	1268.2232	65535	64616.7
872.1834	1270.1223	65535	64617
872.3278	1272.0207	65535	64618.1
872.4723	1273.9183	65535	64613.4
872.6167	1275.8151	65535	64619.25
872.7611	1277.7113	65535	64617.5
872.9055	1279.6067	65535	64618.8
873.0499	1281.5014	65535	64615.2
873.1943	1283.3953	65535	64618
873.3386	1285.2885	65535	64619.85
873.483	1287.181	65535	64618.35
873.6274	1289.0727	65535	64623.05
873.7717	1290.9637	65535	64619.4
873.9161	1292.854	65535	64618.85
874.0604	1294.7435	65535	64617.05
874.2047	1296.6323	65535	64616.8
874.349	1298.5204	65535	64618.15
874.4933	1300.4077	65535	64619.1
874.6376	1302.2943	65535	64620.75
874.7819	1304.1802	65535	64617.15
874.9262	1306.0653	65535	64619.8
875.0705	1307.9497	65535	64620.1
875.2147	1309.8333	65535	64619.3
875.359	1311.7162	65535	64619.5
875.5032	1313.5984	65535	64618.2
875.6475	1315.4798	65535	64607.25
875.7917	1317.3605	65535	64603.15
875.9359	1319.2405	65535	64617.15
876.0801	1321.1197	65535	64616.15
876.2243	1322.9982	65535	64614.25
876.3685	1324.876	65535	64620.65
876.5127	1326.753	65535	64618.9
876.6569	1328.6293	65535	64616.8
876.801	1330.5048	65535	64614.75
876.9452	1332.3796	65535	64619.7
877.0893	1334.2537	65535	64591.3
877.2335	1336.127	65535	64618.75
877.3776	1337.9996	65535	64619
877.5217	1339.8714	65535	64619.4
877.6658	1341.7426	65535	64573.45
877.8099	1343.6129	65535	64617.5
877.954	1345.4826	65535	64620.3
878.0981	1347.3515	65535	64616.85
878.2422	1349.2196	65535	64617.9
878.3862	1351.087	65535	64618.1
878.5303	1352.9537	65535	64615.25
878.6743	1354.8197	65535	64618.75
878.8184	1356.6849	65535	64616.2
878.9624	1358.5493	65535	64620.3
879.1064	1360.4131	65535	64617.4
879.2504	1362.276	65535	64620.75
879.3944	1364.1383	65535	64620.05
879.5384	1365.9998	65535	64614
879.6823	1367.8606	65535	64617.95
879.8263	1369.7206	65535	64618.8
879.9702	1371.5799	65535	64617.15
880.1142	1373.4384	65535	64618.8
880.2581	1375.2962	65535	64616.1
880.402	1377.1533	65523.9	64609.3
880.5459	1379.0096	65526.25	64613.75
880.6898	1380.8652	65525.15	64611.8
880.8337	1382.7201	65518.7	64606
880.9776	1384.5742	65526.05	64610.4
881.1215	1386.4275	65463.55	64548.1
881.2653	1388.2802	65504.45	64590.8
881.4092	1390.132	65517.1	64601.65
881.553	1391.9832	65437.6	64522.6
881.6968	1393.8336	65418.3	64501.25
881.8406	1395.6832	65429.3	64512.7
881.9844	1397.5322	65472.25	64556.65
882.1282	1399.3803	65408	64489.95
882.272	1401.2278	65424.75	64512.05
882.4158	1403.0745	65398.45	64484.25
882.5595	1404.9204	65393.1	64482.5
882.7033	1406.7656	65377.55	64463
882.847	1408.6101	65342.25	64428.2
882.9908	1410.4538	65362.95	64447.5
883.1345	1412.2968	65367.95	64454.55
883.2782	1414.139	65326.4	64410.55
883.4219	1415.9805	65349	64436.35
883.5656	1417.8213	65321.15	64401.15
883.7092	1419.6613	65349.4	64436.65
883.8529	1421.5006	65309.5	64395.3
883.9965	1423.3391	65292.95	64379.45
884.1402	1425.1769	65283.4	64369.5
884.2838	1427.0139	65326.75	64413.6
884.4274	1428.8502	65308	64392.35
884.571	1430.6858	65307.8	64392.65
884.7146	1432.5206	65373.15	64456.8
884.8582	1434.3547	65309.55	64393.9
885.0018	1436.188	65282.8	64367.65
885.1453	1438.0206	65313.45	64399.5
885.2889	1439.8524	65306.25	64394
885.4324	1441.6835	65269.55	64353.85
885.5759	1443.5139	65298.2	64382.05
885.7194	1445.3435	65269.9	64357.1
885.8629	1447.1724	65289.65	64378.65
886.0064	1449.0005	65230.9	64316.05
886.1499	1450.8279	65262.15	64348.8
886.2933	1452.6545	65240.6	64326.7
886.4368	1454.4804	65224.85	64314.6
886.5802	1456.3056	65204.4	64286.25
886.7237	1458.13	65220.8	64310.15
886.8671	1459.9536	65267.15	64355.35
887.0105	1461.7766	65198.3	64284.95
887.1539	1463.5987	65144.25	64228.75
887.2972	1465.4202	65172.75	64261.45
887.4406	1467.2409	65171.15	64258.9
887.584	1469.0608	65067.9	64156.7
887.7273	1470.88	65089	64178.1
887.8706	1472.6984	65088.1	64176.5
888.0139	1474.5161	65006.7	64093.4
888.1572	1476.3331	65055.8	64145.15
888.3005	1478.1493	64989.7	64076.65
888.4438	1479.9648	64958.55	64047.35
888.5871	1481.7795	65023.65	64111.1
888.7303	1483.5935	65012.5	64099.25
888.8736	1485.4067	64919.55	64006.7
889.0168	1487.2192	64954	64042.05
889.16	1489.031	64897.3	63982.15
889.3032	1490.842	64937.75	64024.5
889.4464	1492.6522	64942.15	64030.5
889.5896	1494.4618	64877.1	63966.1
889.7327	1496.2705	64914.3	64003.55
889.8759	1498.0785	64781	63870.25
890.019	1499.8858	64851.2	63936.6
890.1622	1501.6924	64921.55	64010.7
890.3053	1503.4981	64808	63896.95
890.4484	1505.3032	64823.8	63914.35
890.5914	1507.1075	64774.8	63862.8
890.7345	1508.911	64795	63884.45
890.8776	1510.7138	64792.35	63880.7
891.0206	1512.5159	64813.55	63901.8
891.1637	1514.3172	64666.9	63754.25
891.3067	1516.1178	64693.55	63783.15
891.4497	1517.9176	64746.5	63833.75
891.5927	1519.7166	64701.25	63790.95
891.7357	1521.515	64657.6	63743.9
891.8786	1523.3126	64622.75	63711.6
892.0216	1525.1094	64667.35	63756.2
892.1645	1526.9055	64616.05	63705.7
892.3074	1528.7008	64615.15	63704.5
892.4503	1530.4954	64560.2	63651.3
892.5932	1532.2893	64601.85	63695.2
892.7361	1534.0824	64547.45	63636.95
892.879	1535.8747	64513.8	63606.85
893.0218	1537.6663	64596.35	63687.55
893.1647	1539.4572	64436	63527.85
893.3075	1541.2473	64501.55	63594.2
893.4503	1543.0367	64458.75	63552.7
893.5931	1544.8253	64460.15	63547.2
893.7359	1546.6132	64478	63570.6
893.8787	1548.4003	64431.4	63514.05
894.0214	1550.1867	64410.75	63496.05
894.1642	1551.9723	64384.7	63473.95
894.3069	1553.7572	64399.6	63492.15
894.4496	1555.5414	64406	63499.75
894.5923	1557.3247	64294.55	63387.85
894.735	1559.1074	64388.2	63484.6
894.8777	1560.8893	64353.25	63450.7
895.0204	1562.6705	64360.75	63458.6
895.163	1564.4509	64294.1	63391.2
895.3056	1566.2305	64316.3	63414.6
895.4482	1568.0094	64356.8	63457.35
895.5908	1569.7876	64318.05	63415.8
895.7334	1571.565	64246.8	63343.5
895.876	1573.3417	64276.7	63373.4
896.0186	1575.1176	64272.95	63371.45
896.1611	1576.8928	64246.95	63346.9
896.3036	1578.6672	64170.6	63273.8
896.4461	1580.4409	64205.05	63309.2
896.5886	1582.2138	64097.2	63195.5
896.7311	1583.986	64145.35	63242.15
896.8736	1585.7575	64081.4	63181
897.0161	1587.5282	64112.75	63216.85
897.1585	1589.2981	64114.95	63217.45
897.3009	1591.0673	64041.85	63144.2
897.4433	1592.8358	63977.45	63078.8
897.5857	1594.6035	64050.8	63148.8
897.7281	1596.3704	64060.8	63157.35
897.8705	1598.1366	63918.4	63017.6
898.0128	1599.9021	63844.95	62945.45
898.1551	1601.6668	63967.7	63066.95
898.2975	1603.4308	63911.75	63008.75
898.4398	1605.194	63936.35	63031.65
898.5821	1606.9564	63728.9	62831.5
898.7243	1608.7182	63854.25	62957.05
898.8666	1610.4791	63779.8	62891.2
899.0088	1612.2394	63868.9	62978.05
899.1511	1613.9988	63724.15	62830.15
899.2933	1615.7576	63884.35	62988.95
899.4355	1617.5156	63844.55	62940.85
899.5776	1619.2728	63961	63059.85
899.7198	1621.0293	63735.35	62836.15
899.862	1622.785	63700.95	62800.6
900.0041	1624.54	63709.8	62811.2
900.1462	1626.2942	63608.4	62711.2
900.2883	1628.0477	63399.05	62501.65
900.4304	1629.8005	63219.6	62320.7
900.5725	1631.5525	63390.55	62494.65
900.7145	1633.3037	63152.55	62257.9
900.8566	1635.0542	63098.95	62203.65
900.9986	1636.804	63223.3	62325.1
901.1406	1638.553	62899.8	61921.45
901.2826	1640.3013	62980.7	62084.4
901.4245	1642.0488	62749	61853.35
901.5665	1643.7955	62973.7	62081.2
901.7085	1645.5416	62827.35	61932.35
901.8504	1647.2868	62655.2	61762.2
901.9923	1649.0313	62946.8	62052
902.1342	1650.7751	62735.7	61836.95
902.2761	1652.5181	62611.9	61717.05
902.4179	1654.2604	62610.65	61714.2
902.5598	1656.0019	62713.15	61819.95
902.7016	1657.7427	62601.8	61704.15
902.8434	1659.4828	62731.05	61835.1
902.9852	1661.222	62541.7	61647.95
903.127	1662.9606	62764.8	61871.3
903.2687	1664.6984	62433.65	61536.85
903.4105	1666.4354	62511.5	61610.35
903.5522	1668.1717	62148.15	61249.1
903.6939	1669.9072	61830.4	60933.15
903.8356	1671.642	61809.75	60909.75
903.9773	1673.3761	61685.85	60788.95
904.119	1675.1094	61611.95	60716.3
904.2606	1676.8419	61296.75	60401.2
904.4022	1678.5737	61354.9	60458.5
904.5439	1680.3048	61207.15	60308.35
904.6855	1682.0351	61055.35	60159.15
904.827	1683.7646	60956.95	60057.95
904.9686	1685.4934	61044.15	60150.45
905.1101	1687.2215	60521.5	59626.55
905.2517	1688.9488	60865.95	59971.9
905.3932	1690.6754	60058.7	59165.1
905.5347	1692.4012	60444.55	59550.45
905.6761	1694.1263	60462.25	59568.05
905.8176	1695.8506	60165.4	59271.55
905.9591	1697.5742	60142.8	59246.55
906.1005	1699.297	60030.3	59137.5
906.2419	1701.0191	60039.35	59147.5
906.3833	1702.7404	59646.9	58755.15
906.5246	1704.461	59442.05	58545.9
906.666	1706.1808	59668.55	58771.55
906.8073	1707.8999	59495.95	58604.8
906.9487	1709.6182	59418.9	58528.55
907.09	1711.3358	59306.95	58417.6
907.2313	1713.0527	59206.5	58318
907.3725	1714.7688	59212.75	58317.75
907.5138	1716.4841	58682.15	57788.45
907.655	1718.1987	58846.45	57949.25
907.7962	1719.9126	58674.8	57783.8
907.9374	1721.6257	58731.5	57839.75
908.0786	1723.338	58739.25	57847.95
908.2198	1725.0496	58110.95	57219.15
908.3609	1726.7605	58228.65	57336.75
908.502	1728.4706	57981	57089.65
908.6431	1730.18	58095.05	57204.55
908.7842	1731.8886	57893.95	57003.35
908.9253	1733.5964	57711.65	56814.85
909.0664	1735.3036	57929.15	57037.05
909.2074	1737.0099	57734.75	56843
909.3484	1738.7156	57534.25	56646.75
909.4894	1740.4204	57393.45	56500.25
909.6304	1742.1246	57435.7	56542.5
909.7714	1743.8279	57479.6	56588.6
909.9123	1745.5306	57445.75	56554.95
910.0532	1747.2325	56766.65	55877.05
910.1941	1748.9336	56782.3	55890.45
910.335	1750.634	56872.2	55978.35
910.4759	1752.3336	57047.75	56157
910.6168	1754.0325	56588.2	55698.3
910.7576	1755.7307	56930.7	56042.4
910.8984	1757.4281	56463.35	55571.95
911.0392	1759.1247	56767.35	55865.45
911.18	1760.8206	56144.6	55246.2
911.3208	1762.5158	56228.45	55329.4
911.4615	1764.2102	56259.9	55370.85
911.6022	1765.9039	56065.85	55175.05
911.7429	1767.5968	55939.9	55051.05
911.8836	1769.289	55864.3	54973.85
912.0243	1770.9804	55893.95	55000.95
912.1649	1772.6711	55769.8	54879.25
912.3056	1774.361	55612.35	54718.75
912.4462	1776.0502	55607.25	54713.7
912.5868	1777.7386	55126.75	54231.45
912.7274	1779.4263	55366.2	54476.55
912.8679	1781.1132	55309.45	54421.05
913.0084	1782.7994	55100.95	54211.55
913.149	1784.4849	55150.3	54262.95
913.2895	1786.1696	54536.35	53642.45
913.4299	1787.8535	54874.55	53987.2
913.5704	1789.5367	54889.15	54000.15
913.7108	1791.2192	54473.55	53583.85
913.8513	1792.9009	54176.1	53256.1
913.9917	1794.5818	54451.4	53559.25
914.132	1796.2621	54124.2	53234.8
914.2724	1797.9415	54104.15	53213.35
914.4128	1799.6202	54005.15	53115.1
914.5531	1801.2982	54003.15	53111.95
914.6934	1802.9755	53576.35	52685.85
914.8337	1804.6519	53397.4	52508.1
914.9739	1806.3277	53874.5	52987.95
915.1142	1808.0027	52961.6	52074.05
915.2544	1809.6769	53292.25	52405.15
915.3946	1811.3504	53297.5	52408.5
915.5348	1813.0231	52604	51716.65
915.675	1814.6951	53015.5	52126.5
915.8151	1816.3664	52719	51828.1
915.9553	1818.0369	52684.65	51793.1
916.0954	1819.7067	52456.7	51567.5
916.2355	1821.3757	52775.3	51881.15
916.3755	1823.044	52211.85	51321.15
916.5156	1824.7115	51919.2	51029.1
916.6556	1826.3783	51993.25	51102.2
916.7956	1828.0443	51999.35	51112.2
916.9356	1829.7096	51750	50859.95
917.0756	1831.3741	51352.6	50459.65
917.2155	1833.0379	51482.65	50593.45
917.3555	1834.701	51393.5	50502.8
917.4954	1836.3633	51074.4	50185.45
917.6353	1838.0248	51219.1	50330.05
917.7751	1839.6856	51112.6	50221.6
917.915	1841.3457	50766.95	49876.85
918.0548	1843.005	51152.4	50263.45
918.1946	1844.6636	50766.05	49877.55
918.3344	1846.3214	50338.05	49447.75
918.4742	1847.9785	50492.8	49604.1
918.6139	1849.6349	50355	49461.9
918.7537	1851.2904	50539.2	49639.4
918.8934	1852.9453	49974.05	49081.85
919.0331	1854.5994	50172.6	49278.7
919.1727	1856.2528	50213.35	49318.45
919.3124	1857.9054	49882	48992.7
919.452	1859.5572	49709.75	48820.6
919.5916	1861.2083	49763.4	48871.45
919.7312	1862.8587	50046.6	49156.2
919.8708	1864.5084	49244.35	48351.4
920.0103	1866.1572	49525.35	48634.1
920.1498	1867.8054	49017.7	48125.45
920.2893	1869.4528	49249.15	48357.5
920.4288	1871.0994	48884.15	47995.3
920.5683	1872.7453	48765.75	47873.75
920.7077	1874.3905	48872.5	47976.55
920.8471	1876.0349	48523.75	47634.7
920.9865	1877.6786	48691.05	47799.6
921.1259	1879.3215	48477.2	47587
921.2653	1880.9637	48629.2	47737.55
921.4046	1882.6051	48299.95	47411.3
921.5439	1884.2458	48114	47224.3
921.6832	1885.8858	47901.4	47011.65
921.8225	1887.525	47963.35	47072.15
921.9617	1889.1634	47786	46895.35
922.101	1890.8011	47582.1	46690.2
922.2402	1892.4381	47274.85	46384.4
922.3794	1894.0743	47590.15	46699.95
922.5185	1895.7098	47310.25	46421.6
922.6577	1897.3446	47104.35	46214.15
922.7968	1898.9786	47099.95	46205.4
922.9359	1900.6118	46909.25	46019.9
923.075	1902.2443	46664.75	45772.05
923.214	1903.8761	46782.9	45893.1
923.3531	1905.5071	46474.3	45583.6
923.4921	1907.1374	46069.7	45180.15
923.6311	1908.7669	46214.5	45328
923.77	1910.3957	46254.75	45366.8
923.909	1912.0237	45800.75	44911.95
924.0479	1913.651	45709.7	44820.1
924.1868	1915.2776	45537.8	44647.4
924.3257	1916.9034	45466.55	44578
924.4646	1918.5285	45207.4	44319
924.6034	1920.1528	45086.5	44197.15
924.7422	1921.7764	45044.45	44155.85
924.881	1923.3992	44908.85	44018.25
925.0198	1925.0213	44613.75	43723.4
925.1586	1926.6427	44355.2	43467.3
925.2973	1928.2633	44525.6	43425.45
925.436	1929.8832	44201.55	43307.6
925.5747	1931.5023	44007.85	43117
925.7134	1933.1207	43840.85	42950.45
925.852	1934.7383	43903.65	43014.2
925.9906	1936.3552	43650.6	42763.55
926.1292	1937.9714	43526.25	42636.9
926.2678	1939.5868	43421.8	42531.15
926.4064	1941.2015	43112.1	42221.85
926.5449	1942.8154	43023.7	42134.7
926.6834	1944.4286	42869.8	41981.25
926.8219	1946.041	42730	41815.85
926.9604	1947.6528	42480.35	41586.2
927.0988	1949.2637	42441.05	41553.7
927.2372	1950.8739	42223.85	41335.5
927.3756	1952.4834	42192.7	41303.35
927.514	1954.0921	42116.1	41229.05
927.6523	1955.7001	41891.05	40998.85
927.7907	1957.3074	41814.35	40927.9
927.929	1958.9139	41604.65	40717.6
928.0673	1960.5197	41515.8	40627.85
928.2055	1962.1247	41305.45	40418.3
928.3438	1963.729	41089.8	40204.35
928.482	1965.3325	40962.4	40052.35
928.6202	1966.9353	40870.65	39984.25
928.7584	1968.5374	40691.45	39803.6
928.8965	1970.1387	40612	39723.5
929.0346	1971.7393	40463.7	39577.25
929.1727	1973.3392	40340.4	39455.55
929.3108	1974.9383	40135.45	39250.85
929.4489	1976.5366	39931.15	39045.35
929.5869	1978.1342	39977.2	39089.6
929.7249	1979.7311	39822.25	38936.8
929.8629	1981.3273	39748.25	38860.5
930.0009	1982.9227	39605.85	38718.45
930.1388	1984.5173	39471.2	38586.5
930.2767	1986.1112	39308.45	38423.25
930.4146	1987.7044	39285.6	38399.7
930.5525	1989.2968	38987.9	38101.85
930.6904	1990.8885	39024.35	38135.6
930.8282	1992.4795	38892.95	38007
930.966	1994.0697	38719.05	37833
931.1038	1995.6592	38623.25	37739.2
931.2415	1997.2479	38538.9	37653.7
931.3793	1998.8359	38414.85	37530.45
931.517	2000.4232	38234.2	37351.95
931.6547	2002.0097	38136.3	37254.55
931.7923	2003.5955	37984.1	37099.65
931.93	2005.1805	37963	37078.65
932.0676	2006.7648	37814.45	36930.55
932.2052	2008.3484	37679.25	36794.25
932.3427	2009.9312	37736.8	36852.95
932.4803	2011.5133	37554.35	36672.7
932.6178	2013.0946	37395.5	36512.85
932.7553	2014.6752	37331.6	36448.3
932.8928	2016.2551	37233	36350.25
933.0302	2017.8342	37056.1	36174.15
933.1676	2019.4126	36958.1	36076.75
933.305	2020.9902	36792	35910.1
933.4424	2022.5672	36718.75	35835.6
933.5798	2024.1433	36624.3	35738.6
933.7171	2025.7188	36508.6	35627.85
933.8544	2027.2935	36388.75	35506.2
933.9917	2028.8674	36270.75	35390.95
934.129	2030.4406	36157.45	35275.85
934.2662	2032.0131	35945.3	35066.6
934.4034	2033.5849	35868.1	34978.7
934.5406	2035.1559	35803.95	34923.8
934.6778	2036.7261	35735.85	34851.6
934.8149	2038.2957	35612.4	34729
934.952	2039.8645	35521.7	34637.2
935.0891	2041.4325	35517.9	34631.65
935.2262	2042.9998	35410.05	34526.15
935.3632	2044.5664	35298.2	34415.7
935.5002	2046.1323	35191.25	34309.15
935.6372	2047.6974	35093.45	34211.15
935.7742	2049.2617	34976.45	34095.75
935.9111	2050.8254	34912.95	34026
936.048	2052.3883	34849.6	33967.45
936.1849	2053.9504	34710.85	33827.95
936.3218	2055.5118	34632.5	33748.4
936.4586	2057.0725	34448.8	33563.95
936.5955	2058.6325	34330.45	33448.15
936.7323	2060.1917	34249.6	33369.35
936.869	2061.7502	34179.35	33294.75
937.0058	2063.3079	34055.45	33174.8
937.1425	2064.8649	33942.8	33059.15
937.2792	2066.4212	33897.75	33014.45
937.4159	2067.9767	33781.2	32898.2
937.5525	2069.5315	33616.7	32734.9
937.6891	2071.0856	33474.85	32591.9
937.8257	2072.6389	33357.2	32476.8
937.9623	2074.1915	33213.45	32333.8
938.0989	2075.7433	33035.75	32152.1
938.2354	2077.2945	32962.3	32079.7
938.3719	2078.8448	32891.45	32008.55
938.5084	2080.3945	32789.45	31906.7
938.6448	2081.9434	32747.95	31864.6
938.7812	2083.4916	32607	31723.05
938.9176	2085.039	32485.95	31599.6
939.054	2086.5857	32401.1	31512.85
939.1903	2088.1317	32366.65	31480
939.3267	2089.677	32264.95	31376.2
939.463	2091.2215	32171	31283.95
939.5992	2092.7652	32085.6	31198.25
939.7355	2094.3083	32002.65	31116.35
939.8717	2095.8506	31972.05	31088.85
940.0079	2097.3921	31914.9	31030.6
940.1441	2098.933	31776.15	30890.85
940.2802	2100.4731	31702.9	30816.95
940.4163	2102.0124	31689.05	30784.7
940.5524	2103.5511	31558.7	30672.7
940.6885	2105.089	31525.85	30640.85
940.8245	2106.6261	31439.6	30555.8
940.9606	2108.1626	31350.75	30465.05
941.0965	2109.6983	31291.85	30378.45
941.2325	2111.2332	31151.4	30266.35
941.3684	2112.7675	31041.25	30153.85
941.5044	2114.301	30982.05	30093.7
941.6403	2115.8337	30950.3	30065.1
941.7761	2117.3657	30878.8	29993.65
941.912	2118.897	30801.45	29915.9
942.0478	2120.4276	30687.1	29796.5
942.1835	2121.9575	30527.7	29642.8
942.3193	2123.4866	30537.5	29636.5
942.455	2125.0149	30377.8	29490.5
942.5907	2126.5426	30246.55	29363.05
942.7264	2128.0695	30243.3	29357.95
942.8621	2129.5956	30157.6	29277.2
942.9977	2131.1211	30058.9	29169.9
943.1333	2132.6458	29968.7	29085.35
943.2689	2134.1698	29923.55	29038.7
943.4044	2135.693	29833.95	28945.7
943.54	2137.2155	29772	28883.05
943.6755	2138.7373	29684.3	28798.7
943.8109	2140.2584	29584.1	28699.5
943.9464	2141.7787	29495.8	28608.5
944.0818	2143.2983	29375.65	28493.5
944.2172	2144.8171	29206.2	28326.5
944.3526	2146.3353	29141.9	28255.5
944.4879	2147.8527	29019.55	28136.25
944.6232	2149.3693	29009.95	28122.95
944.7585	2150.8853	28885.8	28000.75
944.8938	2152.4005	28715.7	27829.2
945.029	2153.9149	28709.55	27823.85
945.1642	2155.4287	28672.95	27788.15
945.2994	2156.9417	28568.25	27680.9
945.4346	2158.454	28500.4	27614.15
945.5697	2159.9655	28404.8	27520.5
945.7048	2161.4764	28399.6	27515.6
945.8399	2162.9865	28276.8	27391.7
945.9749	2164.4958	28173.4	27287.8
946.1099	2166.0045	28108.5	27221.65
946.2449	2167.5124	28063.7	27182.25
946.3799	2169.0195	27968.55	27084
946.5148	2170.526	27917.35	27029
946.6498	2172.0317	27821.85	26936.95
946.7846	2173.5367	27728.6	26843.45
946.9195	2175.0409	27644.05	26759.6
947.0543	2176.5445	27624.05	26739.2
947.1891	2178.0473	27516.6	26630.05
947.3239	2179.5494	27374.25	26483.85
947.4587	2181.0507	27275.3	26390.55
947.5934	2182.5513	27208.8	26323.8
947.7281	2184.0512	27166	26281.1
947.8628	2185.5504	27094	26208.25
947.9974	2187.0488	26893.45	26010.15
948.132	2188.5465	26833.4	25948.45
948.2666	2190.0435	26746.1	25858.9
948.4012	2191.5397	26644.35	25758.9
948.5357	2193.0353	26564.75	25679.4
948.6702	2194.5301	26443.7	25554.8
948.8047	2196.0241	26347.2	25460.2
948.9392	2197.5175	26291.55	25406.1
949.0736	2199.0101	26189.8	25298.65
949.208	2200.502	26043.25	25159.85
949.3424	2201.9931	25984.5	25097.05
949.4767	2203.4835	25889.15	25005.45
949.611	2204.9733	25824.65	24934.8
949.7453	2206.4622	25789	24907.5
949.8796	2207.9505	25658.7	24775.8
950.0138	2209.438	25545.6	24663.95
950.148	2210.9248	25493.4	24608.6
950.2822	2212.4109	25403.15	24520.35
950.4164	2213.8962	25263.65	24374.9
950.5505	2215.3809	25257.55	24371.6
950.6846	2216.8648	25201.35	24310.7
950.8186	2218.3479	25115.65	24223.4
950.9527	2219.8304	25042.65	24152.2
951.0867	2221.3121	24879.5	23989.8
951.2207	2222.7931	24763.3	23876.5
951.3546	2224.2733	24713.6	23826.35
951.4886	2225.7529	24590.95	23705.65
951.6225	2227.2317	24532.05	23644.05
951.7563	2228.7098	24535.4	23653.45
951.8902	2230.1872	24394	23512.9
952.024	2231.6638	24374.05	23489.7
952.1578	2233.1397	24224.65	23335.05
952.2916	2234.6149	24169.5	23285.2
952.4253	2236.0894	24087.55	23203.85
952.559	2237.5632	24045.25	23161.15
952.6927	2239.0362	23925.65	23041.8
952.8263	2240.5085	23842.1	22958.65
952.9599	2241.9801	23766.9	22880.25
953.0935	2243.4509	23685.2	22798.4
953.2271	2244.921	23632.7	22746.3
953.3606	2246.3904	23550.8	22660.05
953.4941	2247.8591	23491.35	22603.65
953.6276	2249.3271	23409	22522.85
953.7611	2250.7943	23302.6	22414.35
953.8945	2252.2608	23211.95	22325.7
954.0279	2253.7266	23187.9	22301.3
954.1612	2255.1917	23097.75	22212.6
954.2946	2256.656	23009.7	22124.4
954.4279	2258.1197	22952.8	22070.95
954.5612	2259.5826	22911.15	22023.9
954.6944	2261.0447	22871.25	21985.4
954.8276	2262.5062	22717.5	21829.85
954.9608	2263.9669	22709.9	21821.3
955.094	2265.4269	22659.5	21773
955.2271	2266.8862	22556.55	21671.1
955.3602	2268.3448	22523.35	21637.6
955.4933	2269.8026	22490.8	21606.15
955.6264	2271.2598	22350.65	21464.85
955.7594	2272.7162	22311.55	21426.25
955.8924	2274.1719	22243.75	21356.65
956.0253	2275.6268	22174.55	21286.2
956.1583	2277.0811	22112.35	21227.7
956.2912	2278.5346	22072.3	21187.4
956.4241	2279.9874	22010.8	21129.05
956.5569	2281.4395	21933.45	21049.2
956.6897	2282.8908	21858.85	20969.1
956.8225	2284.3414	21838.9	20951.7
956.9553	2285.7914	21681.55	20797
957.088	2287.2406	21684.4	20795.9
957.2207	2288.689	21605.05	20719.05
957.3534	2290.1368	21541.55	20653.9
957.486	2291.5838	21494.55	20605.15
957.6186	2293.0302	21424.15	20533.65
957.7512	2294.4758	21318.7	20431.05
957.8838	2295.9206	21231.15	20341.9
958.0163	2297.3648	21180.45	20296.3
958.1488	2298.8082	21131.15	20244.6
958.2813	2300.251	21074.6	20187.8
958.4137	2301.693	20995.9	20107.1
958.5461	2303.1343	20988.25	20100.15
958.6785	2304.5748	20890.3	20005.4
958.8108	2306.0147	20806.9	19922.8
958.9432	2307.4538	20788.2	19901.35
959.0754	2308.8922	20701.25	19819.2
959.2077	2310.3299	20621.9	19736.15
959.3399	2311.7669	20568	19683.9
959.4721	2313.2031	20509.75	19622.5
959.6043	2314.6387	20414.55	19529.1
959.7365	2316.0735	20330.1	19445.8
959.8686	2317.5076	20292.1	19408
960.0006	2318.941	20274.65	19386.8
960.1327	2320.3737	20209.15	19320.2
960.2647	2321.8056	20142.75	19254.7
960.3967	2323.2369	20044.95	19159.05
960.5287	2324.6674	19995.6	19107.35
960.6606	2326.0972	19939.25	19052
960.7925	2327.5263	19821.55	18936.25
960.9244	2328.9547	19780.35	18891.25
961.0562	2330.3823	19744.4	18855.75
961.1881	2331.8092	19729.65	18838.1
961.3198	2333.2355	19614.2	18727.6
961.4516	2334.661	19608.65	18721.05
961.5833	2336.0858	19552.1	18663.05
961.715	2337.5098	19508.85	18619.75
961.8467	2338.9332	19469.95	18583.2
961.9783	2340.3558	19352.9	18464.5
962.1099	2341.7778	19321.65	18435.75
962.2415	2343.199	19228.4	18341.3
962.373	2344.6195	19171.45	18286.25
962.5045	2346.0393	19148.6	18262.55
962.636	2347.4583	19096.35	18209.2
962.7675	2348.8767	19016.15	18128.8
962.8989	2350.2943	18967.2	18079.9
963.0303	2351.7113	18911.1	18022.1
963.1617	2353.1275	18848	17960.15
963.293	2354.543	18785.35	17888.55
963.4243	2355.9578	18742.4	17853.8
963.5556	2357.3718	18613.6	17727.4
963.6868	2358.7852	18567.65	17678.45
963.818	2360.1978	18503.3	17616.65
963.9492	2361.6098	18441.65	17555.7
964.0803	2363.021	18395.8	17504.75
964.2114	2364.4315	18322.55	17435.15
964.3425	2365.8413	18307.9	17415.2
964.4736	2367.2504	18207.35	17320.65
964.6046	2368.6587	18140.15	17253.75
964.7356	2370.0664	18074.05	17189.25
964.8666	2371.4733	18018.6	17132.45
964.9975	2372.8795	17965.3	17078.65
965.1284	2374.285	17885.45	16998.75
965.2593	2375.6899	17811.3	16925.3
965.3901	2377.0939	17684.65	16800.2
965.5209	2378.4973	17664.55	16776.75
965.6517	2379.9	17605.55	16720.55
965.7825	2381.3019	17552.6	16669.05
965.9132	2382.7032	17484	16600.35
966.0439	2384.1037	17451.4	16567.65
966.1745	2385.5035	17418.3	16534.05
966.3051	2386.9027	17324.55	16441.4
966.4357	2388.3011	17287.45	16400.55
966.5663	2389.6987	17254.05	16369.45
966.6968	2391.0957	17160.45	16275.05
966.8273	2392.492	17094.8	16211.95
966.9578	2393.8876	17025.8	16137.65
967.0882	2395.2824	16957.25	16071.9
967.2186	2396.6765	16881.05	15994.9
967.349	2398.07	16838.6	15952.4
967.4793	2399.4627	16829.2	15939.8
967.6097	2400.8547	16739.1	15849.25
967.7399	2402.246	16678.7	15788
967.8702	2403.6366	16577.95	15693.1
968.0004	2405.0265	16494.15	15609.2
968.1306	2406.4156	16468.3	15577.5
968.2607	2407.8041	16385.35	15498.7
968.3909	2409.1918	16319.3	15431.1
968.521	2410.5789	16246.25	15361.25
968.651	2411.9652	16211.8	15321.25
968.781	2413.3508	16137.55	15250.65
968.911	2414.7358	16057.15	15169.55
969.041	2416.12	16025.05	15137.7
969.1709	2417.5035	15960.05	15074.6
969.3008	2418.8863	15935.05	15048.6
969.4307	2420.2684	15857.25	14971.95
969.5606	2421.6497	15799.05	14912.35
969.6904	2423.0304	15667.45	14782.3
969.8201	2424.4104	15670.7	14785.2
969.9499	2425.7896	15615.95	14726.05
970.0796	2427.1682	15568.25	14681.9
970.2093	2428.546	15547.25	14661.75
970.3389	2429.9232	15487.55	14597.55
970.4685	2431.2996	15438.9	14554.25
970.5981	2432.6753	15417.5	14531
970.7277	2434.0503	15376.8	14490.25
970.8572	2435.4246	15262	14377.8
970.9867	2436.7982	15210.55	14320.6
971.1161	2438.1711	15191	14307
971.2456	2439.5433	15153	14264.65
971.375	2440.9148	15075.4	14187.85
971.5043	2442.2856	14985.7	14099.25
971.6336	2443.6557	14972.45	14084.9
971.7629	2445.025	14915.85	14032
971.8922	2446.3937	14842.8	13955.15
972.0214	2447.7617	14814.55	13928.8
972.1506	2449.1289	14791.75	13905.5
972.2798	2450.4955	14737.95	13849.3
972.4089	2451.8613	14711.05	13826.05
972.538	2453.2265	14668	13782.8
972.6671	2454.5909	14650.75	13763.15
972.7961	2455.9546	14602.55	13716.1
972.9251	2457.3177	14532.45	13645.95
973.0541	2458.68	14461.05	13573.5
973.1831	2460.0416	14466.1	13580.2
973.312	2461.4025	14455.95	13568.5
973.4408	2462.7627	14373	13475.35
973.5697	2464.1222	14305.1	13421.15
973.6985	2465.4811	14294.95	13409.15
973.8273	2466.8392	14219.85	13334.7
973.956	2468.1966	14195.6	13308.65
974.0847	2469.5533	14175.2	13286
974.2134	2470.9093	14140.6	13253.2
974.3421	2472.2645	14084.9	13195.45
974.4707	2473.6191	14052.85	13167.3
974.5993	2474.973	13960.3	13072.4
974.7278	2476.3262	13913.25	13027.6
974.8563	2477.6787	13907.35	13019.75
974.9848	2479.0305	13852.1	12967.45
975.1132	2480.3816	13775.85	12887.65
975.2417	2481.7319	13730.2	12844.9
975.37	2483.0816	13643.5	12758.45
975.4984	2484.4306	13615.45	12730.3
975.6267	2485.7789	13561.55	12677.85
975.755	2487.1264	13522.95	12635.95
975.8833	2488.4733	13439.1	12555.75
976.0115	2489.8195	13403.25	12509.9
976.1397	2491.165	13341.75	12455.05
976.2678	2492.5097	13283.9	12397
976.3959	2493.8538	13249	12365
976.524	2495.1972	13206.7	12319.9
976.6521	2496.5398	13150.25	12261.65
976.7801	2497.8818	13096.35	12206.9
976.9081	2499.2231	13066.1	12179.6
977.036	2500.5637	12995.95	12108.3
977.164	2501.9035	12973.15	12085.1
977.2918	2503.2427	12934.85	12045.85
977.4197	2504.5812	12856.6	11970.6
977.5475	2505.919	12848.75	11961.35
977.6753	2507.256	12803.55	11914.5
977.8031	2508.5924	12736.65	11850.45
977.9308	2509.9281	12712.15	11821.6
978.0585	2511.2631	12684	11800.4
978.1861	2512.5974	12676.9	11792.55
978.3137	2513.9309	12611.95	11725.5
978.4413	2515.2638	12598.15	11680.45
978.5689	2516.596	12503.15	11619.4
978.6964	2517.9275	12466.3	11578.95
978.8239	2519.2583	12428.2	11542.95
978.9513	2520.5884	12356.15	11468.15
979.0788	2521.9178	12318.4	11431.55
979.2062	2523.2465	12260.5	11376.35
979.3335	2524.5745	12221.5	11336.6
979.4608	2525.9018	12189.55	11301.1
979.5881	2527.2284	12169.55	11285.65
979.7154	2528.5543	12117.8	11233.4
979.8426	2529.8796	12119.95	11235
979.9698	2531.2041	12056.5	11170.05
980.0969	2532.5279	12005.9	11120.3
980.224	2533.851	12004.95	11119.65
980.3511	2535.1735	11979.85	11094
980.4781	2536.4952	11959.15	11072.45
980.6052	2537.8163	11933.65	11046.75
980.7321	2539.1366	11857.9	10969.8
980.8591	2540.4562	11836.75	10949.6
980.986	2541.7752	11841.85	10953.95
981.1129	2543.0935	11787.75	10901.4
981.2397	2544.411	11770	10883.3
981.3665	2545.7279	11746.75	10860.05
981.4933	2547.0441	11723.5	10837.05
981.62	2548.3596	11719.8	10831.75
981.7467	2549.6744	11667.9	10781.8
981.8734	2550.9885	11631.5	10736.75
982.0001	2552.3019	11589.15	10702.55
982.1267	2553.6146	11555.4	10669.2
982.2532	2554.9266	11520.35	10635.75
982.3798	2556.2379	11481.2	10592.5
982.5063	2557.5485	11475.05	10588.7
982.6327	2558.8585	11433.35	10540.3
982.7592	2560.1677	11385.15	10493
982.8856	2561.4762	11393.1	10506.1
983.0119	2562.7841	11355.35	10466.8
983.1383	2564.0913	11321	10436.25
983.2646	2565.3977	11297.45	10410.4
983.3908	2566.7035	11253.8	10367.4
983.517	2568.0086	11272	10386
983.6432	2569.313	11237.45	10348.95
983.7694	2570.6167	11179.3	10290.05
983.8955	2571.9197	11161.05	10275.75
984.0216	2573.222	11155.75	10267.2
984.1476	2574.5236	11124.85	10238.55
984.2737	2575.8246	11093.8	10204.9
984.3996	2577.1248	11073.7	10185.5
984.5256	2578.4244	11052.65	10167.5
984.6515	2579.7232	11049.85	10163.55
984.7774	2581.0214	11039.65	10129.5
984.9032	2582.3189	10974.15	10087.25
985.029	2583.6157	10932.35	10042.85
985.1548	2584.9118	10922.85	10034.75
985.2806	2586.2072	10862.5	9977.55
985.4063	2587.5019	10824.4	9938.1
985.5319	2588.7959	10826.2	9940.3
985.6576	2590.0893	10798.8	9910.65
985.7832	2591.3819	10790.8	9905.2
985.9087	2592.6739	10718.3	9831.5
986.0343	2593.9652	10664.95	9777.1
986.1597	2595.2557	10665.1	9779.4
986.2852	2596.5456	10602.05	9714
986.4106	2597.8348	10566.05	9680.5
986.536	2599.1234	10510.4	9625.45
986.6614	2600.4112	10483.15	9595
986.7867	2601.6983	10503.55	9613.2
986.912	2602.9848	10441.95	9557.35
987.0372	2604.2705	10384.7	9492.25
987.1624	2605.5556	10366.9	9481.7
987.2876	2606.84	10307	9422.15
987.4128	2608.1237	10253.55	9365.15
987.5379	2609.4067	10223.3	9337.5
987.6629	2610.689	10206.7	9310.55
987.788	2611.9707	10151.95	9263
987.913	2613.2516	10141.8	9251.8
988.0379	2614.5319	10076.8	9190.7
988.1629	2615.8115	10060.1	9172.9
988.2878	2617.0903	9990.8	9103.45
988.4126	2618.3685	9956.15	9070
988.5375	2619.6461	9918.9	9032.5
988.6622	2620.9229	9908.75	9023.25
988.787	2622.199	9881.15	8995.05
988.9117	2623.4745	9834.4	8948.65
989.0364	2624.7493	9817.55	8932.55
989.161	2626.0234	9788.9	8904.7
989.2857	2627.2968	9738.55	8852.4
989.4102	2628.5695	9710.05	8824.45
989.5348	2629.8415	9658.8	8775.1
989.6593	2631.1128	9622.75	8734.7
989.7837	2632.3835	9578.5	8692.2
989.9082	2633.6535	9530.55	8643.85
990.0326	2634.9228	9524.65	8641.6
990.1569	2636.1914	9461.9	8576.3
990.2812	2637.4593	9458.2	8566.35
990.4055	2638.7265	9414.85	8528.9
990.5298	2639.9931	9367.3	8482.4
990.654	2641.259	9369.1	8483.05
990.7782	2642.5242	9327.7	8439.45
990.9023	2643.7887	9300.2	8416.25
991.0264	2645.0525	9275.7	8391.1
991.1505	2646.3156	9240.9	8354.05
991.2745	2647.5781	9202.55	8317.9
991.3985	2648.8398	9168.35	8284.2
991.5225	2650.1009	9159.3	8236.15
991.6464	2651.3613	9120.15	8234.7
991.7703	2652.6211	9088.3	8202.3
991.8942	2653.8801	9051.75	8167.45
992.018	2655.1385	9049.9	8160.25
992.1418	2656.3961	9037.5	8151.55
992.2655	2657.6531	8993.75	8105.15
992.3892	2658.9094	8965.7	8080.6
992.5129	2660.1651	8959.2	8076.25
992.6366	2661.42	8917.45	8031.85
992.7602	2662.6743	8904.65	8019.25
992.8837	2663.9279	8907.1	8021.75
993.0073	2665.1808	8867.95	7982.5
993.1307	2666.433	8826.3	7940.2
993.2542	2667.6846	8796.75	7911.3
993.3776	2668.9354	8775.6	7888
993.501	2670.1856	8726.05	7842.75
993.6244	2671.4351	8718.2	7834.3
993.7477	2672.6839	8679.3	7792.5
993.8709	2673.9321	8674.5	7789.2
993.9942	2675.1795	8644.8	7759.5
994.1174	2676.4263	8614.8	7729
994.2405	2677.6724	8589.6	7705.95
994.3637	2678.9179	8547.55	7663.85
994.4868	2680.1626	8515.6	7632.35
994.6098	2681.4067	8526.6	7640.9
994.7328	2682.6501	8495.45	7611.15
994.8558	2683.8928	8463.35	7578.95
994.9788	2685.1348	8432.95	7547.5
995.1017	2686.3761	8381.5	7496
995.2245	2687.6168	8350.85	7467.5
995.3474	2688.8568	8336.5	7451.95
995.4702	2690.0961	8326.35	7441.1
995.5929	2691.3348	8283.6	7398.75
995.7156	2692.5727	8299.35	7414
995.8383	2693.81	8245.4	7359
995.961	2695.0466	8226.45	7341.45
996.0836	2696.2826	8194.15	7305.6
996.2062	2697.5178	8162.25	7276.2
996.3287	2698.7524	8143.35	7258.3
996.4512	2699.9863	8116.9	7228.65
996.5737	2701.2195	8083.2	7201.35
996.6961	2702.452	8072.15	7185.25
996.8185	2703.6839	8067.35	7180.85
996.9408	2704.9151	8051	7167.95
997.0631	2706.1456	7993.1	7109.4
997.1854	2707.3755	7982.15	7097.45
997.3077	2708.6046	7969.75	7082.45
997.4299	2709.8331	7928.9	7043.15
997.552	2711.0609	7896	7012.05
997.6742	2712.2881	7867.65	6982.5
997.7963	2713.5145	7872.25	6985.5
997.9183	2714.7403	7818.65	6935.75
998.0403	2715.9654	7804.9	6918.95
998.1623	2717.1899	7791.7	6906.6
998.2842	2718.4136	7784.5	6900.55
998.4062	2719.6367	7727.55	6843.25
998.528	2720.8591	7727.9	6838.95
998.6498	2722.0809	7681.75	6797.7
998.7716	2723.3019	7664.55	6776.15
998.8934	2724.5223	7675.5	6788.6
999.0151	2725.7421	7637.15	6751
999.1368	2726.9611	7612.3	6727.5
999.2584	2728.1795	7587.5	6699.2
999.38	2729.3972	7547.4	6664.85
999.5016	2730.6142	7521.95	6633.25
999.6231	2731.8306	7484.4	6599.95
999.7446	2733.0462	7464.05	6577.85
999.8661	2734.2612	7423.95	6533.85
999.9875	2735.4756	7377.95	6491.55
1000.1089	2736.6892	7324.7	6440.15
1000.2302	2737.9022	7288.35	6405.6
1000.3515	2739.1145	7265.7	6380.85
1000.4728	2740.3262	7248.8	6356.65
1000.594	2741.5372	7211.3	6327.95
1000.7152	2742.7475	7155.7	6270.9
1000.8363	2743.9571	7139.65	6253.45
1000.9575	2745.1661	7131.9	6241.15
1001.0785	2746.3744	7108.45	6223.15
1001.1996	2747.582	7062.65	6178.05
1001.3206	2748.7889	7043.55	6158.35
1001.4415	2749.9952	7004.25	6119.75
1001.5625	2751.2008	6983.5	6098.7
1001.6833	2752.4057	6973.55	6085.2
1001.8042	2753.61	6914.3	6029.7
1001.925	2754.8136	6903.2	6017.05
1002.0458	2756.0165	6847.1	5963.2
1002.1665	2757.2188	6843.7	5961.25
1002.2872	2758.4204	6840.15	5954.8
1002.4078	2759.6213	6813.05	5927
1002.5285	2760.8215	6790.4	5902.15
1002.649	2762.0211	6764.6	5879.25
1002.7696	2763.22	6725.75	5840.95
1002.8901	2764.4182	6737.25	5851.45
1003.0106	2765.6158	6716.45	5832.7
1003.131	2766.8127	6658.15	5772.8
1003.2514	2768.009	6645.2	5761.4
1003.3717	2769.2045	6622.95	5737.65
1003.492	2770.3994	6611.45	5725.6
1003.6123	2771.5936	6584.55	5700.05
1003.7325	2772.7872	6575.75	5694.4
1003.8527	2773.9801	6524.15	5638
1003.9729	2775.1723	6530.55	5631.8
1004.093	2776.3639	6486.7	5604.9
1004.2131	2777.5548	6466.6	5580.65
1004.3331	2778.745	6435.7	5552
1004.4531	2779.9346	6434.75	5553.6
1004.5731	2781.1235	6428.95	5544.45
1004.693	2782.3117	6402.7	5517.55
1004.8129	2783.4992	6369.9	5485.4
1004.9328	2784.6861	6347.55	5462.75
1005.0526	2785.8723	6340.6	5456.05
1005.1723	2787.0579	6327.45	5444.3
1005.2921	2788.2428	6300.75	5416.65
1005.4118	2789.427	6275.3	5393.15
1005.5314	2790.6106	6276.75	5394.3
1005.651	2791.7935	6257.4	5372.45
1005.7706	2792.9757	6221.5	5339.75
1005.8902	2794.1573	6210.7	5327.45
1006.0097	2795.3382	6206.75	5323.85
1006.1291	2796.5184	6180.2	5297.9
1006.2485	2797.698	6173.95	5288.2
1006.3679	2798.8769	6140.85	5257.55
1006.4873	2800.0551	6155.15	5269.95
1006.6066	2801.2327	6115.05	5229.7
1006.7258	2802.4096	6121.05	5237.6
1006.8451	2803.5859	6109.75	5225.2
1006.9642	2804.7615	6099.05	5214
1007.0834	2805.9364	6083.55	5200.1
1007.2025	2807.1106	6085.3	5200.05
1007.3216	2808.2842	6089.95	5207.1
1007.4406	2809.4572	6082.95	5200.4
1007.5596	2810.6294	6100	5214.85
1007.6785	2811.801	6106.5	5224.75
1007.7975	2812.972	6098.05	5215.65
1007.9163	2814.1423	6127.8	5243.3
1008.0352	2815.3119	6141.85	5258.2
1008.154	2816.4808	6159.95	5279.35
1008.2727	2817.6491	6175.2	5292.25
1008.3914	2818.8167	6200.5	5320.1
1008.5101	2819.9837	6229	5339.5
1008.6288	2821.15	6248.3	5366.5
1008.7474	2822.3157	6263.85	5382.15
1008.8659	2823.4807	6294.85	5410.95
1008.9844	2824.645	6327.45	5442
1009.1029	2825.8086	6345.8	5463.75
1009.2214	2826.9716	6375.45	5492.95
1009.3398	2828.134	6403.65	5520.95
1009.4581	2829.2957	6424.35	5541.4
1009.5764	2830.4567	6469	5586.95
1009.6947	2831.617	6457.15	5573.5
1009.813	2832.7767	6448	5566.5
1009.9312	2833.9358	6432.9	5552.85
1010.0493	2835.0941	6402.45	5517.25
1010.1675	2836.2519	6384.5	5503.7
1010.2855	2837.4089	6360.65	5477.95
1010.4036	2838.5653	6345.15	5461.7
1010.5216	2839.7211	6323	5440.1
1010.6396	2840.8761	6302	5418.25
1010.7575	2842.0306	6303.15	5420.95
1010.8754	2843.1843	6317.7	5433.85
1010.9932	2844.3374	6305.2	5422.8
1011.111	2845.4899	6334.75	5449.45
1011.2288	2846.6417	6361.8	5480.35
1011.3465	2847.7928	6409.15	5527.15
1011.4642	2848.9433	6445.75	5563.95
1011.5818	2850.0931	6466	5584.75
1011.6995	2851.2422	6523.95	5639.15
1011.817	2852.3907	6555.85	5672.35
1011.9345	2853.5385	6578.45	5692.6
1012.052	2854.6857	6608.8	5716.65
1012.1695	2855.8323	6613.05	5731.55
1012.2869	2856.9781	6630.15	5747.05
1012.4042	2858.1233	6679.2	5797.35
1012.5216	2859.2679	6672.8	5788.55
1012.6389	2860.4118	6703.25	5819.55
1012.7561	2861.555	6712.1	5825.55
1012.8733	2862.6976	6750.85	5865.95
1012.9905	2863.8395	6736.5	5854.2
1013.1076	2864.9808	6748.8	5866.4
1013.2247	2866.1214	6760.85	5878.6
1013.3417	2867.2614	6763.55	5879.8
1013.4587	2868.4007	6744.85	5861.55
1013.5757	2869.5393	6737.35	5853.25
1013.6926	2870.6773	6719.9	5834.8
1013.8095	2871.8146	6698.65	5812.55
1013.9263	2872.9513	6698	5814.9
1014.0431	2874.0874	6667.5	5784.8
1014.1599	2875.2227	6669.85	5787.25
1014.2766	2876.3574	6606.05	5723.25
1014.3933	2877.4915	6593.55	5712.7
1014.51	2878.6249	6545.45	5664.85
1014.6266	2879.7577	6499.05	5614.05
1014.7431	2880.8898	6505.1	5612.9
1014.8596	2882.0212	6456.7	5575.8
1014.9761	2883.152	6424.2	5541.35
1015.0925	2884.2821	6420.05	5537.8
1015.2089	2885.4116	6372.9	5490.75
1015.3253	2886.5405	6348.3	5465.55
1015.4416	2887.6686	6333.65	5448.1
1015.5579	2888.7962	6324.7	5445.5
1015.6741	2889.923	6320.6	5438
1015.7903	2891.0493	6307.6	5427.25
1015.9065	2892.1748	6299.6	5417.7
1016.0226	2893.2997	6288.15	5406.75
1016.1387	2894.424	6295.7	5413.45
1016.2547	2895.5476	6287.15	5404.75
1016.3707	2896.6706	6278.4	5398.05
1016.4866	2897.7929	6283.9	5400.3
1016.6025	2898.9145	6273	5393.4
1016.7184	2900.0355	6303.25	5420.1
1016.8342	2901.1559	6296.85	5413.1
1016.95	2902.2756	6302.35	5420.7
1017.0658	2903.3946	6308.2	5425.05
1017.1815	2904.513	6318.4	5434.15
1017.2971	2905.6308	6293.7	5413.1
1017.4127	2906.7479	6329.05	5448.65
1017.5283	2907.8643	6328.2	5446.6
1017.6439	2908.9801	6312.25	5430.45
1017.7594	2910.0953	6292.65	5410.95
1017.8748	2911.2098	6281.75	5396.35
1017.9902	2912.3236	6263.1	5374.05
1018.1056	2913.4368	6234.3	5348.45
1018.2209	2914.5494	6214.95	5331.4
1018.3362	2915.6613	6169.7	5282.45
1018.4515	2916.7725	6151.4	5267.1
1018.5667	2917.8831	6106.25	5224.5
1018.6819	2918.9931	6063.5	5179.75
1018.797	2920.1024	6045.7	5165.1
1018.9121	2921.211	6024.05	5142.85
1019.0271	2922.319	5999.15	5116.3
1019.1421	2923.4264	5968.35	5088.35
1019.2571	2924.5331	5940.3	5059.9
1019.372	2925.6391	5936.35	5053.8
1019.4869	2926.7445	5905.45	5024.15
1019.6017	2927.8493	5901.35	5017.55
1019.7165	2928.9534	5887.2	5004.55
1019.8313	2930.0569	5874.25	4988.95
1019.946	2931.1597	5865.15	4981.6
1020.0606	2932.2619	5855.1	4973.95
1020.1753	2933.3634	5850.85	4971.25
1020.2899	2934.4643	5865.6	4977.2
1020.4044	2935.5645	5823.95	4937.5
1020.5189	2936.6641	5802.1	4919
1020.6334	2937.763	5744	4860.75
1020.7478	2938.8613	5690.1	4808.35
1020.8622	2939.959	5675.55	4788.1
1020.9765	2941.056	5589.25	4709.4
1021.0908	2942.1523	5531.8	4647.75
1021.2051	2943.248	5453.4	4571.25
1021.3193	2944.3431	5372.5	4492.1
1021.4334	2945.4375	5280.15	4398.3
1021.5476	2946.5313	5182.25	4303.25
1021.6617	2947.6244	5098.1	4217.95
1021.7757	2948.7169	5018.55	4134.4
1021.8897	2949.8087	4945.6	4065.25
1022.0037	2950.8999	4847	3963.5
1022.1176	2951.9904	4769.4	3890.2
1022.2315	2953.0803	4706.45	3823.45
1022.3453	2954.1696	4654.6	3772.15
1022.4591	2955.2582	4587.15	3707.9
1022.5728	2956.3462	4538.15	3657.55
1022.6865	2957.4335	4505.7	3621.65
1022.8002	2958.5202	4457.55	3573.55
1022.9138	2959.6062	4428.6	3544.45
1023.0274	2960.6916	4395.95	3516.65
1023.141	2961.7764	4367.2	3485.4
1023.2545	2962.8605	4339.15	3460
1023.3679	2963.9439	4330.95	3451
1023.4813	2965.0267	4314.05	3430.6
1023.5947	2966.1089	4296.35	3391.35
1023.708	2967.1905	4258.35	3376.55
1023.8213	2968.2714	4250.3	3370.25
1023.9346	2969.3516	4236.95	3355.95
1024.0478	2970.4312	4238.25	3347.15
1024.1609	2971.5102	4229.5	3348.85
1024.274	2972.5885	4205.25	3324.55
1024.3871	2973.6662	4213.05	3326.85
1024.5002	2974.7432	4186.85	3305.05
1024.6132	2975.8196	4167.7	3286.4
1024.7261	2976.8954	4150.15	3271.9
1024.839	2977.9705	4131.7	3249.15
1024.9519	2979.045	4121.9	3242.95
1025.0647	2980.1188	4093.85	3211.65
1025.1775	2981.192	4077.3	3197.6
1025.2902	2982.2645	4034.95	3150.35
1025.4029	2983.3364	4016.55	3135.9
1025.5156	2984.4077	3962.45	3082.05
1025.6282	2985.4783	3957.6	3071.2
1025.7407	2986.5483	3921.15	3042.5
1025.8532	2987.6177	3879.05	3001.05
1025.9657	2988.6864	3868.95	2986.35
1026.0782	2989.7545	3837.15	2955.7
1026.1906	2990.8219	3782.2	2902.55
1026.3029	2991.8887	3755.05	2871.2
1026.4152	2992.9548	3733.7	2853.35
1026.5275	2994.0204	3692.95	2813.1
1026.6397	2995.0852	3655.7	2773.75
1026.7519	2996.1495	3612.15	2730.8
1026.864	2997.2131	3604.65	2723.75
1026.9761	2998.276	3568.35	2688.45
1027.0882	2999.3383	3543.6	2660.55
1027.2002	3000.4	3506.95	2624.75
1027.3122	3001.4611	3513.4	2632.45
1027.4241	3002.5215	3473.3	2592.65
1027.536	3003.5812	3458.75	2578.15
1027.6478	3004.6404	3434.3	2552.45
1027.7596	3005.6989	3413.25	2529.1
1027.8714	3006.7567	3390.7	2511.2
1027.9831	3007.8139	3404.7	2491.7
1028.0947	3008.8705	3357.15	2474.8
1028.2064	3009.9264	3359.35	2474.1
1028.3179	3010.9818	3340.85	2460.3
1028.4295	3012.0364	3329.1	2446.9
1028.541	3013.0905	3315.55	2435
1028.6524	3014.1439	3292.25	2412.65
1028.7638	3015.1966	3274.25	2392.95
1028.8752	3016.2487	3272.9	2392.1
1028.9865	3017.3002	3261.5	2377.75
1029.0978	3018.3511	3255.1	2374.2
1029.209	3019.4013	3227.7	2347.9
1029.3202	3020.4509	3256.9	2375.05
1029.4314	3021.4998	3230.5	2350.2
1029.5425	3022.5481	3209.45	2327.85
1029.6535	3023.5958	3204.2	2323
1029.7645	3024.6428	3200.6	2319.3
1029.8755	3025.6892	3189.2	2309.75
1029.9864	3026.735	3172.85	2292.15
1030.0973	3027.7802	3159.35	2278.15
1030.2082	3028.8247	3158	2276.95
1030.319	3029.8685	3142.8	2263.7
1030.4297	3030.9118	3142.9	2260.75
1030.5404	3031.9544	3121.15	2241.6
1030.6511	3032.9963	3111.25	2231.55
1030.7617	3034.0376	3115.45	2234.55
1030.8723	3035.0783	3109.6	2226.9
1030.9829	3036.1184	3104	2220.45
1031.0934	3037.1578	3092.85	2210.6
1031.2038	3038.1966	3094.65	2213.45
1031.3142	3039.2348	3084.25	2205.75
1031.4246	3040.2723	3084.55	2195.2
1031.5349	3041.3092	3066.75	2186.15
1031.6452	3042.3455	3049.65	2167.3
1031.7554	3043.3811	3047.75	2165.7
1031.8656	3044.4161	3033.25	2152
1031.9758	3045.4505	3038.9	2159.15
1032.0859	3046.4842	3037.6	2155.6
1032.1959	3047.5173	3004.65	2124.3
1032.3059	3048.5498	3002.1	2124.5
1032.4159	3049.5816	2997.3	2118.15
1032.5258	3050.6128	2989.2	2108
1032.6357	3051.6434	2978.9	2097.9
1032.7455	3052.6734	2963.1	2080.3
1032.8553	3053.7027	2952.65	2072.6
1032.9651	3054.7314	2925.65	2042.8
1033.0748	3055.7594	2931.35	2051.5
1033.1845	3056.7868	2926.9	2044.2
1033.2941	3057.8136	2908.05	2028.85
1033.4037	3058.8398	2901.95	2023.2
1033.5132	3059.8653	2895.1	2017.75
1033.6227	3060.8902	2883.65	2002.95
1033.7321	3061.9145	2871.25	1992.65
1033.8415	3062.9381	2858.95	1976.5
1033.9509	3063.9612	2871.55	1975.4
1034.0602	3064.9835	2846.7	1968.1
1034.1694	3066.0053	2827.25	1944.05
1034.2787	3067.0264	2812.15	1931.35
1034.3878	3068.0469	2821.05	1939.25
1034.497	3069.0668	2802.3	1919.35
1034.6061	3070.086	2787.8	1910.1
1034.7151	3071.1046	2778.2	1898.3
1034.8241	3072.1226	2772.4	1891.65
1034.9331	3073.1399	2750.35	1869.55
1035.042	3074.1567	2733.2	1854.55
1035.1508	3075.1727	2725.05	1842.05
1035.2597	3076.1882	2717.6	1839.05
1035.3684	3077.203	2695.7	1814.35
1035.4772	3078.2173	2689	1807.7
1035.5859	3079.2308	2674.55	1790.85
1035.6945	3080.2438	2666.65	1784.8
1035.8031	3081.2561	2660.1	1779.4
1035.9117	3082.2678	2634.8	1755.3
1036.0202	3083.2789	2644.05	1763.85
1036.1286	3084.2893	2626.65	1747.65
1036.2371	3085.2991	2618.05	1735.25
1036.3454	3086.3083	2598.95	1714.75
1036.4538	3087.3169	2606	1724.85
1036.562	3088.3248	2589.85	1707.55
1036.6703	3089.3321	2572.15	1691.35
1036.7785	3090.3388	2563.4	1683.55
1036.8866	3091.3449	2552	1672.35
1036.9948	3092.3503	2539.65	1658.45
1037.1028	3093.3551	2533.4	1654.65
1037.2108	3094.3593	2532.1	1653.55
1037.3188	3095.3629	2513.55	1633.2
1037.4267	3096.3658	2500.55	1619.9
1037.5346	3097.3681	2492.35	1614.65
1037.6425	3098.3698	2499.2	1616.45
1037.7503	3099.3708	2482.9	1596.45
1037.858	3100.3713	2459.1	1578.75
1037.9657	3101.3711	2451.75	1570.15
1038.0734	3102.3702	2551.9	1535.6
1038.181	3103.3688	2462.15	1579.45
1038.2886	3104.3667	2435.9	1555.5
1038.3961	3105.364	2415.8	1538.1
1038.5036	3106.3607	2412.05	1530.2
1038.611	3107.3568	2406.4	1526.95
1038.7184	3108.3522	2399.35	1520.2
1038.8257	3109.347	2387	1507.45
1038.933	3110.3412	2379.55	1495.25
1039.0403	3111.3348	2353.25	1472.8
1039.1475	3112.3277	2354	1473.05
1039.2547	3113.32	2344.7	1466.25
1039.3618	3114.3117	2334.2	1453.5
1039.4689	3115.3028	2342.85	1465.4
1039.5759	3116.2932	2323.6	1441.7
1039.6829	3117.2831	2324.95	1437.25
1039.7898	3118.2723	2300.15	1420.4
1039.8967	3119.2608	2301.15	1421.65
1040.0035	3120.2488	2290.5	1411.4
1040.1103	3121.2361	2283.5	1404.35
1040.2171	3122.2229	2271.35	1389.65
1040.3238	3123.209	2257.5	1377.05
1040.4305	3124.1944	2255.05	1375.45
1040.5371	3125.1793	2251.1	1370.8
1040.6437	3126.1635	2241.6	1362.7
1040.7502	3127.1471	2220.75	1342.05
1040.8567	3128.1301	2235.65	1355.6
1040.9631	3129.1125	2222.1	1343.1
1041.0695	3130.0942	2214.15	1335.15
1041.1759	3131.0753	2209.85	1322.55
1041.2822	3132.0558	2205.5	1322.65
1041.3884	3133.0357	2197.45	1316.1
1041.4946	3134.015	2196.2	1313.4
1041.6008	3134.9936	2195.7	1313.1
1041.7069	3135.9716	2193.9	1290.35
1041.813	3136.949	2176.4	1297.9
1041.919	3137.9258	2171.4	1286.15
1042.025	3138.902	2166.5	1281.6
1042.1309	3139.8775	2157.2	1278.25
1042.2368	3140.8524	2153.5	1272.8
1042.3427	3141.8267	2149.3	1266.25
1042.4485	3142.8004	2147.6	1267
1042.5542	3143.7735	2144.3	1258.55
1042.6599	3144.7459	2137.3	1256.55
1042.7656	3145.7178	2122.85	1242.45
1042.8712	3146.689	2112.65	1233.55
1042.9768	3147.6596	2114.25	1233.25
1043.0823	3148.6295	2109.75	1227.95
1043.1878	3149.5989	2100.35	1220.4
1043.2932	3150.5676	2087.05	1209
1043.3986	3151.5357	2099.1	1220
1043.5039	3152.5032	2078.65	1199.85
1043.6092	3153.4701	2075.75	1195.65
1043.7145	3154.4364	2069.4	1187.9
1043.8197	3155.402	2043.6	1165.9
1043.9248	3156.367	2054.25	1172.65
1044.03	3157.3315	2077.8	1159.25
1044.135	3158.2952	2041.25	1160.1
1044.24	3159.2584	2026.75	1145.6
1044.345	3160.221	2025.9	1145.2
1044.4499	3161.1829	2015.3	1132.4
1044.5548	3162.1442	2022.9	1145.05
1044.6596	3163.105	2000.25	1119.7
1044.7644	3164.065	1992.75	1112.45
1044.8692	3165.0245	1993.65	1110.1
1044.9739	3165.9834	1991.45	1113.5
1045.0785	3166.9416	1980.55	1101.8
1045.1831	3167.8993	1975.45	1095.85
1045.2877	3168.8563	1962.5	1080.65
1045.3922	3169.8127	1956.5	1078.5
1045.4966	3170.7684	1954.8	1072.45
1045.6011	3171.7236	1959.6	1080.95
1045.7054	3172.6782	1945.1	1064.4
1045.8098	3173.6321	1936.35	1056.15
1045.914	3174.5854	1933.15	1049.9
1046.0183	3175.5381	1930.35	1050.55
1046.1224	3176.4902	1925.75	1045.85
1046.2266	3177.4417	1921.65	1042.35
1046.3307	3178.3926	1917.5	1036.7
1046.4347	3179.3428	1902.45	1022.55
1046.5387	3180.2924	1902.5	1022.2
1046.6427	3181.2415	1898.65	1019.2
1046.7466	3182.1899	1887	1004.7
1046.8504	3183.1377	1885.9	1006.05
1046.9542	3184.0848	1877.35	992.9
1047.058	3185.0314	1869.05	990.55
1047.1617	3185.9773	1870.95	989.95
1047.2654	3186.9227	1858.9	979.15
1047.369	3187.8674	1857.15	977.15
1047.4726	3188.8115	1859.4	975.65
1047.5761	3189.755	1845.55	966.25
1047.6796	3190.6979	1836.75	956.7
1047.783	3191.6402	1823.35	945.55
1047.8864	3192.5818	1830.7	950.25
1047.9898	3193.5229	1838.9	943.45
1048.0931	3194.4633	1829.65	948.85
1048.1963	3195.4031	1818.85	939.45
1048.2995	3196.3423	1817.3	938.4
1048.4027	3197.2809	1808.5	927.45
1048.5058	3198.2189	1796.2	917.25
1048.6089	3199.1563	1814.05	918.3
1048.7119	3200.0931	1792.25	914.6
1048.8148	3201.0292	1777.9	898.45
1048.9178	3201.9648	1777.95	896.65
1049.0206	3202.8997	1781.75	899.5
1049.1235	3203.834	1775.25	896.75
1049.2262	3204.7677	1764.65	884.9
1049.329	3205.7008	1768.45	887.8
1049.4317	3206.6333	1766.1	885.8
1049.5343	3207.5652	1763.5	882.1
1049.6369	3208.4964	1750.05	869.85
1049.7394	3209.4271	1747.35	868.4
1049.8419	3210.3571	1740.15	863.3
1049.9444	3211.2865	1738.7	859.7
1050.0468	3212.2154	1735.65	856.95
1050.1491	3213.1436	1733.9	851.25
1050.2514	3214.0712	1733.9	847.7
1050.3537	3214.9982	1731.2	851.75
1050.4559	3215.9246	1718.65	837.95
1050.5581	3216.8503	1706.9	827.9
1050.6602	3217.7755	1717.3	838.45
1050.7623	3218.7001	1710.7	832.3
1050.8643	3219.624	1710.7	830
1050.9663	3220.5473	1688.05	807.6
1051.0682	3221.4701	1688.85	808.8
1051.1701	3222.3922	1683	803.2
1051.2719	3223.3137	1676.55	797.6
1051.3737	3224.2346	1681.8	802.5
1051.4754	3225.1549	1675.2	796.15
1051.5771	3226.0746	1661.65	782.15
1051.6788	3226.9937	1670.45	791.15
1051.7804	3227.9121	1653.3	772.55
1051.8819	3228.83	1658.15	778.7
1051.9834	3229.7473	1656.05	776.45
1052.0849	3230.6639	1645.65	765.8
1052.1863	3231.5799	1642.85	763.95
1052.2876	3232.4954	1634.95	753.75
1052.3889	3233.4102	1626.85	749.9
1052.4902	3234.3244	1631.45	751.65
1052.5914	3235.238	1630	750.45
1052.6926	3236.151	1643.85	742.5
1052.7937	3237.0634	1622.6	744
1052.8948	3237.9752	1612.15	733.3
1052.9958	3238.8864	1610.9	730.3
1053.0968	3239.797	1602.15	721.2
1053.1977	3240.7069	1603.7	722.55
1053.2986	3241.6163	1593.75	713.95
1053.3994	3242.5251	1589.3	711.55
1053.5002	3243.4332	1580.85	702.5
1053.6009	3244.3408	1584.75	703.2
1053.7016	3245.2477	1574.45	696.95
1053.8022	3246.154	1569.75	689
1053.9028	3247.0598	1567.35	686
1054.0034	3247.9649	1560.2	682
1054.1039	3248.8694	1559.1	679.5
1054.2043	3249.7733	1552.5	674.2
1054.3047	3250.6766	1558.9	678.35
1054.4051	3251.5793	1554.9	675.55
1054.5054	3252.4814	1544.4	664.65
1054.6056	3253.3829	1545.3	665.65
1054.7058	3254.2838	1539	660.75
1054.806	3255.1841	1536.55	658.7
1054.9061	3256.0838	1520.7	642.25
1055.0061	3256.9829	1516.95	638.25
1055.1062	3257.8814	1519.55	636
1055.2061	3258.7792	1512.3	631.7
1055.306	3259.6765	1502.8	621.6
1055.4059	3260.5731	1500.2	621.25
1055.5057	3261.4692	1494.15	612.65
1055.6055	3262.3647	1476.5	597.6
1055.7052	3263.2595	1473.6	595.1
1055.8049	3264.1538	1459.3	582.1
1055.9045	3265.0474	1454.6	576.55
1056.0041	3265.9404	1444.15	565.75
1056.1036	3266.8329	1438.15	559.55
1056.2031	3267.7247	1432.5	543.95
1056.3025	3268.616	1412.8	535.1
1056.4019	3269.5066	1405.2	524.1
1056.5013	3270.3966	1391.05	510.45
1056.6005	3271.286	1367.4	488.2
