Software Version:	3.9.2.0
Unit SN:	10000200
Spectrometer SN:	6960
Date:	3/6/2024 10:44:38 AM
Data Line Index:	25
Spectral Points:	2048
Integration time (ms):	125
Averages:	20
Delay (ms):	30
Sequence Number:	1
Processing:	dark subtract
Laser Power (mW):	305
Laser Current (mA):	821
Laser Diode Temp (C):	25.1
Laser Case Temp (C):	27.2
System Temp (C):	27
Spectrometer Temp (C):	24.4
CCD Temp (C):	-0.002
Secondary Temp (C):	20.011
Heatsink Temp (C):	22.805
CCDPCB Temp (C):	36.629
SecondaryPCB Temp (C):	34.017

Wavelength	RamanShift	Raw Counts	Dark Subtracted
787.061	30.1047	1142.25	730
787.2016	32.3739	1176.6	766.3
787.3422	34.6426	1214.35	800.95
787.4828	36.9109	1260.55	843.65
787.6235	39.1787	1332.45	912.9
787.7642	41.4461	1387.4	962.65
787.9049	43.7131	1448.5	1021.3
788.0456	45.9796	1524.4	1094.35
788.1863	48.2456	1589.65	1154.55
788.3271	50.5112	1664.6	1226.15
788.4679	52.7764	1729.25	1288.25
788.6087	55.0411	1802.05	1358.3
788.7496	57.3054	1897.8	1449.25
788.8904	59.5692	1999.45	1548.4
789.0313	61.8326	2094.75	1640.6
789.1722	64.0955	2207.6	1748.75
789.3132	66.3579	2329.45	1865.7
789.4541	68.6199	2492.05	2026.35
789.5951	70.8815	2752.45	2283.2
789.7361	73.1426	3261.95	2788.95
789.8771	75.4032	4596.35	4117.3
790.0181	77.6634	7996	7514.7
790.1592	79.9231	17047.35	16558.6
790.3003	82.1824	55857.25	55358.7
790.4414	84.4412	65535	65018.9
790.5825	86.6995	65535	64992.2
790.7237	88.9574	65535	64969.05
790.8648	91.2148	65535	64948.7
791.006	93.4717	65535	64938.9
791.1472	95.7282	65535	64934.75
791.2885	97.9842	65535	64929.1
791.4297	100.2398	65535	64926.9
791.571	102.4949	65535	64922.95
791.7123	104.7495	65535	64921.25
791.8536	107.0036	65535	64918.6
791.9949	109.2573	65535	64922
792.1363	111.5105	65535	64918.65
792.2777	113.7632	65535	64914.5
792.4191	116.0154	65535	64905.55
792.5605	118.2672	65535	64911.35
792.7019	120.5185	65535	64912.4
792.8434	122.7693	65535	64905.85
792.9849	125.0197	65535	64905
793.1264	127.2696	65535	64901.85
793.2679	129.519	65535	64899.2
793.4094	131.7679	65535	64893.9
793.551	134.0163	65535	64893.1
793.6926	136.2642	65535	64888.65
793.8342	138.5117	65535	64878.8
793.9758	140.7587	65535	64888.75
794.1175	143.0052	65535	64881.3
794.2591	145.2512	65535	64884.8
794.4008	147.4967	65535	64883.85
794.5425	149.7417	65535	64876.6
794.6842	151.9863	65535	64874.45
794.826	154.2304	65535	64871.75
794.9677	156.4739	65535	64862.35
795.1095	158.717	65535	64867.65
795.2513	160.9596	65535	64861.25
795.3931	163.2017	65535	64859.75
795.535	165.4433	65535	64857.8
795.6768	167.6844	65535	64858.45
795.8187	169.925	65535	64855.3
795.9606	172.1651	65535	64851
796.1025	174.4047	65535	64847.65
796.2445	176.6439	65535	64844.6
796.3864	178.8825	65535	64838.85
796.5284	181.1206	65535	64837.1
796.6704	183.3582	65535	64835.05
796.8124	185.5954	65535	64831.4
796.9544	187.832	65535	64830.3
797.0965	190.0681	65535	64827.5
797.2386	192.3037	65535	64823.5
797.3806	194.5388	65535	64822.05
797.5228	196.7734	65535	64820
797.6649	199.0075	65535	64818.75
797.807	201.2411	65535	64812.3
797.9492	203.4742	65535	64815.45
798.0914	205.7068	65535	64812.4
798.2336	207.9389	65535	64808.1
798.3758	210.1704	65535	64807.8
798.518	212.4015	65535	64806.75
798.6603	214.632	65535	64816.3
798.8025	216.862	65535	64825.1
798.9448	219.0915	65535	64829.15
799.0871	221.3205	65535	64823.25
799.2294	223.549	65535	64831.9
799.3718	225.777	65535	64827.95
799.5141	228.0044	65535	64827
799.6565	230.2314	65535	64821.55
799.7989	232.4578	65535	64821
799.9413	234.6837	65535	64813.3
800.0837	236.909	65535	64813.45
800.2262	239.1339	65535	64789.75
800.3687	241.3582	65535	64801.9
800.5111	243.582	65535	64770.4
800.6536	245.8053	65535	64785.75
800.7961	248.0281	65535	64788.8
800.9387	250.2503	65535	64782.1
801.0812	252.472	65535	64781.35
801.2238	254.6932	65535	64779.15
801.3664	256.9139	65535	64781.25
801.509	259.134	65535	64773.05
801.6516	261.3536	65535	64776.25
801.7942	263.5727	65535	64774.55
801.9369	265.7912	65535	64776
802.0795	268.0092	65535	64772.9
802.2222	270.2267	65535	64773.4
802.3649	272.4436	65535	64773.9
802.5076	274.6601	65535	64762.9
802.6504	276.8759	65535	64768.85
802.7931	279.0913	65535	64772.25
802.9359	281.3061	65535	64766.75
803.0787	283.5204	65535	64763.7
803.2215	285.7341	65535	64759.95
803.3643	287.9473	65535	64747.45
803.5071	290.16	65535	64753.1
803.6499	292.3721	65535	64759.55
803.7928	294.5837	65535	64755.7
803.9357	296.7947	65535	64760.75
804.0786	299.0052	65535	64760.35
804.2215	301.2152	65535	64758.2
804.3644	303.4246	65535	64758.85
804.5074	305.6334	65535	64761.1
804.6503	307.8418	65535	64756.05
804.7933	310.0495	65535	64753.65
804.9363	312.2568	65535	64752.65
805.0793	314.4635	65535	64755.15
805.2223	316.6696	65535	64751.2
805.3653	318.8752	65535	64744.25
805.5084	321.0802	65535	64751.95
805.6514	323.2847	65535	64749.95
805.7945	325.4887	65535	64747.95
805.9376	327.692	65535	64747.15
806.0807	329.8949	65535	64747.1
806.2238	332.0972	65535	64746.2
806.367	334.2989	65535	64740.7
806.5101	336.5001	65535	64736.65
806.6533	338.7007	65535	64741
806.7965	340.9008	65535	64740.45
806.9397	343.1003	65535	64737.8
807.0829	345.2992	65535	64736.9
807.2261	347.4976	65535	64735.1
807.3693	349.6955	65535	64731.1
807.5126	351.8927	65535	64728.05
807.6559	354.0895	65535	64720.6
807.7991	356.2856	65535	64727.35
807.9424	358.4812	65535	64730.2
808.0857	360.6763	65535	64722.9
808.2291	362.8707	65535	64724.15
808.3724	365.0646	65535	64722.65
808.5158	367.258	65535	64720.95
808.6591	369.4508	65535	64718.9
808.8025	371.643	65535	64717.5
808.9459	373.8346	65535	64718.85
809.0893	376.0257	65535	64715.2
809.2327	378.2162	65535	64711.2
809.3762	380.4062	65535	64709.45
809.5196	382.5956	65535	64709.05
809.6631	384.7844	65535	64710.15
809.8066	386.9726	65535	64706.7
809.9501	389.1603	65535	64711
810.0936	391.3474	65535	64673.7
810.2371	393.5339	65535	64714.9
810.3806	395.7199	65535	64717.4
810.5241	397.9052	65535	64716.35
810.6677	400.09	65535	64717.55
810.8113	402.2743	65535	64721.35
810.9548	404.4579	65535	64719.15
811.0984	406.641	65535	64719.5
811.2421	408.8235	65535	64718.95
811.3857	411.0054	65535	64714.3
811.5293	413.1868	65535	64714.25
811.673	415.3675	65535	64710.45
811.8166	417.5477	65535	64714.65
811.9603	419.7273	65535	64705.45
812.104	421.9064	65535	64697.5
812.2477	424.0848	65535	64707.2
812.3914	426.2627	65535	64700.4
812.5351	428.4399	65535	64701.8
812.6788	430.6166	65535	64697.5
812.8226	432.7928	65535	64698.5
812.9663	434.9683	65535	64695.05
813.1101	437.1432	65535	64694.95
813.2539	439.3176	65535	64694.4
813.3977	441.4914	65535	64695.85
813.5415	443.6645	65535	64694.5
813.6853	445.8371	65535	64693.55
813.8291	448.0091	65535	64694.3
813.973	450.1806	65535	64693.8
814.1168	452.3514	65535	64691.8
814.2607	454.5216	65535	64682.75
814.4046	456.6913	65535	64690.6
814.5485	458.8603	65535	64691.6
814.6924	461.0288	65535	64691.7
814.8363	463.1967	65535	64689.8
814.9802	465.3639	65535	64689.2
815.1241	467.5306	65535	64688.65
815.2681	469.6967	65535	64691.55
815.412	471.8622	65535	64688.5
815.556	474.0271	65535	64690.75
815.7	476.1914	65535	64687.25
815.844	478.3551	65535	64687.8
815.988	480.5182	65535	64686.4
816.132	482.6807	65535	64687.1
816.276	484.8426	65535	64691.45
816.4201	487.0039	65535	64686.9
816.5641	489.1647	65535	64687.3
816.7082	491.3248	65535	64687.5
816.8522	493.4843	65535	64687.35
816.9963	495.6432	65535	64686.05
817.1404	497.8015	65535	64680.95
817.2845	499.9592	65535	64685.3
817.4286	502.1163	65535	64682.6
817.5727	504.2728	65535	64681.6
817.7168	506.4287	65535	64683.55
817.861	508.5839	65535	64684.45
818.0051	510.7386	65535	64682
818.1493	512.8927	65535	64677.15
818.2935	515.0461	65535	64681.1
818.4377	517.199	65535	64682
818.5818	519.3512	65535	64678.75
818.726	521.5029	65535	64672.65
818.8703	523.6539	65535	64676.05
819.0145	525.8043	65535	64677.9
819.1587	527.9541	65535	64677.9
819.303	530.1033	65535	64676.55
819.4472	532.2519	65535	64676.9
819.5915	534.3999	65535	64675.2
819.7357	536.5472	65535	64676
819.88	538.694	65535	64677.5
820.0243	540.8401	65535	64669.35
820.1686	542.9856	65535	64669.1
820.3129	545.1305	65535	64667.4
820.4572	547.2748	65535	64667.15
820.6016	549.4185	65535	64666.95
820.7459	551.5615	65535	64670
820.8902	553.704	65535	64668.15
821.0346	555.8458	65535	64668.35
821.1789	557.987	65535	64668.4
821.3233	560.1276	65535	64669.25
821.4677	562.2675	65535	64671.7
821.6121	564.4069	65535	64672
821.7565	566.5456	65535	64671.2
821.9009	568.6837	65535	64669
822.0453	570.8212	65535	64670.45
822.1897	572.958	65535	64666.8
822.3342	575.0942	65535	64670.25
822.4786	577.2299	65535	64670.7
822.6231	579.3648	65535	64670.2
822.7675	581.4992	65535	64671.05
822.912	583.6329	65535	64670.75
823.0565	585.766	65535	64672.15
823.201	587.8985	65535	64669.1
823.3454	590.0304	65535	64643.3
823.4899	592.1616	65535	64662.7
823.6345	594.2922	65535	64663
823.779	596.4222	65535	64664.25
823.9235	598.5515	65535	64663.4
824.068	600.6802	65535	64661.85
824.2126	602.8083	65535	64665
824.3571	604.9358	65535	64662.4
824.5017	607.0626	65535	64662.15
824.6462	609.1888	65535	64659.8
824.7908	611.3144	65535	64663.75
824.9354	613.4393	65535	64662.75
825.08	615.5636	65535	64660.1
825.2246	617.6873	65535	64662.1
825.3692	619.8103	65535	64660.05
825.5138	621.9327	65535	64658
825.6584	624.0544	65535	64662.85
825.803	626.1756	65535	64658.15
825.9477	628.2961	65535	64658.85
826.0923	630.4159	65535	64663.05
826.237	632.5351	65535	64659.6
826.3816	634.6537	65535	64657.15
826.5263	636.7716	65535	64655.6
826.6709	638.8889	65535	64655.95
826.8156	641.0056	65535	64653.7
826.9603	643.1216	65535	64655.65
827.105	645.237	65535	64652.5
827.2497	647.3518	65535	64659.25
827.3944	649.4659	65535	64661.2
827.5391	651.5793	65535	64657.6
827.6838	653.6922	65535	64657.2
827.8285	655.8043	65535	64657.6
827.9733	657.9159	65535	64655.8
828.118	660.0268	65535	64654.85
828.2627	662.137	65535	64655.75
828.4075	664.2466	65535	64653.45
828.5522	666.3556	65535	64652.25
828.697	668.4639	65535	64649.75
828.8418	670.5716	65535	64652.95
828.9865	672.6786	65535	64652.35
829.1313	674.785	65535	64653.8
829.2761	676.8907	65535	64650.05
829.4209	678.9958	65535	64650.75
829.5657	681.1002	65535	64653.55
829.7105	683.204	65535	64649.4
829.8553	685.3072	65535	64648.8
830.0001	687.4097	65535	64651.2
830.1449	689.5115	65535	64648.05
830.2898	691.6127	65535	64651.95
830.4346	693.7132	65535	64650.35
830.5794	695.8131	65535	64636
830.7243	697.9123	65535	64649.9
830.8691	700.0109	65535	64647.85
831.014	702.1089	65535	64648.85
831.1588	704.2061	65535	64651.5
831.3037	706.3028	65535	64650.65
831.4486	708.3987	65535	64647.8
831.5935	710.4941	65535	64650.9
831.7383	712.5887	65535	64647.5
831.8832	714.6827	65535	64644.4
832.0281	716.7761	65535	64647.5
832.173	718.8688	65535	64648.8
832.3179	720.9608	65535	64648.3
832.4628	723.0522	65535	64645.8
832.6077	725.1429	65535	64648.1
832.7527	727.233	65535	64645.6
832.8976	729.3224	65535	64646.7
833.0425	731.4112	65535	64644
833.1874	733.4993	65535	64643.5
833.3324	735.5867	65535	64645.05
833.4773	737.6735	65535	64644.45
833.6222	739.7596	65535	64644
833.7672	741.845	65535	64644.2
833.9122	743.9298	65535	64645.7
834.0571	746.014	65535	64646.15
834.2021	748.0974	65535	64644
834.347	750.1802	65535	64642.05
834.492	752.2624	65535	64644
834.637	754.3439	65535	64641.7
834.782	756.4247	65535	64634.8
834.9269	758.5048	65535	64643.4
835.0719	760.5843	65535	64645.35
835.2169	762.6631	65535	64641.8
835.3619	764.7413	65535	64645.95
835.5069	766.8188	65535	64637.95
835.6519	768.8956	65535	64640.2
835.7969	770.9718	65535	64643.7
835.9419	773.0473	65535	64643.15
836.0869	775.1221	65535	64642.85
836.232	777.1962	65535	64643.85
836.377	779.2697	65535	64639.7
836.522	781.3426	65535	64622.05
836.667	783.4147	65535	64639.2
836.8121	785.4862	65535	64641.95
836.9571	787.557	65535	64641.7
837.1021	789.6271	65535	64641.05
837.2472	791.6966	65535	64643.9
837.3922	793.7654	65535	64641.65
837.5373	795.8335	65535	64640.05
837.6823	797.901	65535	64640.7
837.8274	799.9678	65535	64638.85
837.9724	802.0339	65535	64638.2
838.1175	804.0993	65535	64630.25
838.2626	806.1641	65535	64639.05
838.4076	808.2282	65535	64641.75
838.5527	810.2916	65535	64639.5
838.6978	812.3544	65535	64643.55
838.8428	814.4164	65535	64641.7
838.9879	816.4778	65535	64640.55
839.133	818.5385	65535	64638.9
839.2781	820.5986	65535	64640.4
839.4232	822.658	65535	64635.15
839.5682	824.7166	65535	64642
839.7133	826.7747	65535	64640.6
839.8584	828.832	65535	64635.75
840.0035	830.8886	65535	64638.2
840.1486	832.9446	65535	64636.85
840.2937	834.9999	65535	64640.3
840.4388	837.0545	65535	64634.35
840.5839	839.1085	65535	64636.9
840.729	841.1618	65535	64632.9
840.8741	843.2143	65535	64638.7
841.0192	845.2662	65535	64639.1
841.1643	847.3175	65535	64638.1
841.3095	849.368	65535	64636.95
841.4546	851.4179	65535	64641.15
841.5997	853.467	65535	64637.45
841.7448	855.5155	65535	64638.2
841.8899	857.5633	65535	64639.3
842.0351	859.6105	65535	64638.8
842.1802	861.6569	65535	64638.65
842.3253	863.7027	65535	64638.9
842.4704	865.7478	65535	64637.95
842.6156	867.7922	65535	64636.6
842.7607	869.8359	65535	64637.5
842.9058	871.8789	65535	64634.9
843.0509	873.9212	65535	64601.45
843.1961	875.9629	65535	64636.6
843.3412	878.0039	65535	64637.65
843.4863	880.0441	65535	64638.5
843.6315	882.0837	65535	64637.5
843.7766	884.1226	65535	64636.65
843.9218	886.1609	65535	64636.55
844.0669	888.1984	65535	64638.65
844.212	890.2352	65535	64637.2
844.3572	892.2714	65535	64633.9
844.5023	894.3069	65535	64632.55
844.6475	896.3416	65535	64633.7
844.7926	898.3757	65535	64633.35
844.9377	900.4091	65535	64633.3
845.0829	902.4418	65535	64630.7
845.228	904.4739	65535	64631.65
845.3732	906.5052	65535	64636.1
845.5183	908.5358	65535	64635.7
845.6635	910.5658	65535	64629.95
845.8086	912.595	65535	64636.1
845.9538	914.6236	65535	64634.4
846.0989	916.6515	65535	64634.85
846.2441	918.6786	65535	64630.35
846.3892	920.7051	65535	64633.85
846.5344	922.7309	65535	64635.3
846.6795	924.756	65535	64634.85
846.8246	926.7804	65535	64632.2
846.9698	928.8041	65535	64626.55
847.1149	930.8272	65535	64632.65
847.2601	932.8495	65535	64633.35
847.4052	934.8711	65535	64631.95
847.5504	936.892	65535	64635.7
847.6955	938.9123	65535	64631.55
847.8407	940.9318	65535	64631.3
847.9858	942.9506	65535	64634.15
848.131	944.9688	65535	64635.25
848.2761	946.9862	65535	64634.9
848.4213	949.003	65535	64632.6
848.5664	951.019	65535	64631.35
848.7115	953.0344	65535	64631
848.8567	955.0491	65535	64634.15
849.0018	957.063	65535	64635.3
849.147	959.0763	65535	64635.6
849.2921	961.0888	65535	64632
849.4373	963.1007	65535	64633.25
849.5824	965.1119	65535	64636.05
849.7275	967.1223	65535	64634.1
849.8727	969.1321	65535	64637.05
850.0178	971.1412	65535	64635.4
850.1629	973.1495	65535	64634.6
850.3081	975.1572	65535	64598.25
850.4532	977.1641	65535	64634.7
850.5983	979.1704	65535	64636.35
850.7435	981.1759	65535	64629.25
850.8886	983.1808	65535	64629.9
851.0337	985.1849	65535	64622.45
851.1788	987.1884	65535	64630.15
851.324	989.1911	65535	64632.4
851.4691	991.1932	65535	64629.6
851.6142	993.1945	65535	64632.25
851.7593	995.1951	65535	64631.7
851.9045	997.1951	65535	64626.7
852.0496	999.1943	65535	64637.2
852.1947	1001.1928	65535	64632.7
852.3398	1003.1906	65535	64635
852.4849	1005.1877	65535	64632.55
852.63	1007.1841	65535	64632.6
852.7751	1009.1798	65535	64636.1
852.9202	1011.1748	65535	64635.75
853.0653	1013.1691	65535	64633.3
853.2104	1015.1627	65535	64631.1
853.3555	1017.1556	65535	64634.35
853.5006	1019.1477	65535	64634.85
853.6457	1021.1392	65535	64633.25
853.7908	1023.1299	65535	64635.5
853.9359	1025.12	65535	64634.4
854.081	1027.1093	65535	64638.3
854.2261	1029.0979	65535	64639.65
854.3712	1031.0859	65535	64636.95
854.5163	1033.0731	65535	64636.35
854.6613	1035.0596	65535	64633.75
854.8064	1037.0454	65535	64634.4
854.9515	1039.0304	65535	64632.3
855.0965	1041.0148	65535	64632.45
855.2416	1042.9985	65535	64631.7
855.3867	1044.9814	65535	64633.25
855.5317	1046.9636	65535	64632.1
855.6768	1048.9452	65535	64634.6
855.8219	1050.926	65535	64633
855.9669	1052.9061	65535	64634.95
856.112	1054.8855	65535	64635.3
856.257	1056.8642	65535	64633.05
856.4021	1058.8421	65535	64627.1
856.5471	1060.8194	65535	64632.5
856.6921	1062.7959	65535	64631.35
856.8372	1064.7717	65535	64630.1
856.9822	1066.7469	65535	64631.6
857.1272	1068.7213	65535	64629.75
857.2723	1070.695	65535	64633.25
857.4173	1072.6679	65535	64633.7
857.5623	1074.6402	65535	64635.25
857.7073	1076.6117	65535	64629.6
857.8523	1078.5826	65535	64632.55
857.9973	1080.5527	65535	64628.5
858.1423	1082.5221	65535	64633.3
858.2873	1084.4908	65535	64632.4
858.4323	1086.4587	65535	64631.6
858.5773	1088.426	65535	64631.75
858.7223	1090.3925	65535	64629.5
858.8673	1092.3584	65535	64634.55
859.0123	1094.3235	65535	64636.05
859.1573	1096.2879	65535	64631.95
859.3022	1098.2515	65535	64633.35
859.4472	1100.2145	65535	64635.45
859.5922	1102.1767	65535	64632.45
859.7371	1104.1382	65535	64630.7
859.8821	1106.099	65535	64632.35
860.027	1108.0591	65535	64633.25
860.172	1110.0185	65535	64632.2
860.3169	1111.9771	65535	64636.7
860.4619	1113.9351	65535	64633.1
860.6068	1115.8923	65535	64633.25
860.7517	1117.8488	65535	64628.95
860.8967	1119.8045	65535	64632.15
861.0416	1121.7596	65535	64635.1
861.1865	1123.7139	65535	64632.15
861.3314	1125.6675	65535	64632.65
861.4763	1127.6204	65535	64633.85
861.6212	1129.5726	65535	64630.25
861.7661	1131.524	65535	64631.3
861.911	1133.4748	65535	64631.2
862.0559	1135.4248	65535	64631.35
862.2008	1137.3741	65535	64634.75
862.3457	1139.3226	65535	64632.85
862.4905	1141.2705	65535	64634.4
862.6354	1143.2176	65535	64626.1
862.7803	1145.164	65535	64631.85
862.9251	1147.1097	65535	64630.9
863.07	1149.0546	65535	64630.95
863.2148	1150.9989	65535	64629.95
863.3597	1152.9424	65535	64631.7
863.5045	1154.8852	65535	64630.15
863.6493	1156.8272	65535	64631.5
863.7942	1158.7686	65535	64624.95
863.939	1160.7092	65535	64630.75
864.0838	1162.6491	65535	64632.35
864.2286	1164.5883	65535	64633.4
864.3734	1166.5267	65535	64633.25
864.5182	1168.4644	65535	64633.4
864.663	1170.4014	65535	64626.35
864.8078	1172.3377	65535	64635.25
864.9526	1174.2732	65535	64633.45
865.0974	1176.2081	65535	64633.25
865.2421	1178.1421	65535	64628.45
865.3869	1180.0755	65535	64633.1
865.5317	1182.0082	65535	64632.9
865.6764	1183.9401	65535	64630
865.8212	1185.8713	65535	64631.55
865.9659	1187.8017	65535	64633.15
866.1106	1189.7315	65535	64636.8
866.2554	1191.6605	65535	64608
866.4001	1193.5888	65535	64633.05
866.5448	1195.5163	65535	64633.75
866.6895	1197.4432	65535	64633.3
866.8342	1199.3693	65535	64630.8
866.9789	1201.2947	65535	64630.85
867.1236	1203.2193	65535	64632
867.2683	1205.1432	65535	64630.1
867.413	1207.0664	65535	64633.75
867.5576	1208.9889	65535	64630.2
867.7023	1210.9106	65535	64634.55
867.847	1212.8316	65535	64635.9
867.9916	1214.7519	65535	64626.15
868.1363	1216.6715	65535	64631.75
868.2809	1218.5903	65535	64632.65
868.4255	1220.5084	65535	64632.8
868.5701	1222.4257	65535	64632.5
868.7148	1224.3424	65535	64634.35
868.8594	1226.2583	65535	64628.45
869.004	1228.1735	65535	64630.8
869.1486	1230.0879	65535	64632.35
869.2932	1232.0016	65535	64633.25
869.4377	1233.9146	65535	64631.75
869.5823	1235.8269	65535	64632.2
869.7269	1237.7384	65535	64633.25
869.8715	1239.6492	65535	64633.45
870.016	1241.5592	65535	64629.45
870.1606	1243.4686	65535	64630.6
870.3051	1245.3772	65535	64632.8
870.4496	1247.285	65535	64632.65
870.5941	1249.1922	65535	64634.05
870.7387	1251.0986	65535	64635.3
870.8832	1253.0042	65535	64634.8
871.0277	1254.9092	65535	64631.9
871.1722	1256.8134	65535	64634.4
871.3167	1258.7169	65535	64632
871.4611	1260.6196	65535	64635.25
871.6056	1262.5216	65535	64633.2
871.7501	1264.4229	65535	64634.45
871.8945	1266.3234	65535	64634.45
872.039	1268.2232	65535	64633.7
872.1834	1270.1223	65535	64632.05
872.3278	1272.0207	65535	64632.6
872.4723	1273.9183	65535	64628.25
872.6167	1275.8151	65535	64630.7
872.7611	1277.7113	65535	64632.65
872.9055	1279.6067	65535	64634.95
873.0499	1281.5014	65535	64631
873.1943	1283.3953	65535	64631.1
873.3386	1285.2885	65535	64634.75
873.483	1287.181	65535	64636.05
873.6274	1289.0727	65535	64636.35
873.7717	1290.9637	65535	64633.9
873.9161	1292.854	65535	64633.3
874.0604	1294.7435	65535	64633.15
874.2047	1296.6323	65535	64632
874.349	1298.5204	65535	64630.5
874.4933	1300.4077	65535	64634.3
874.6376	1302.2943	65535	64634.15
874.7819	1304.1802	65535	64634.1
874.9262	1306.0653	65535	64630.3
875.0705	1307.9497	65535	64632.65
875.2147	1309.8333	65535	64632.55
875.359	1311.7162	65535	64633.8
875.5032	1313.5984	65535	64629.95
875.6475	1315.4798	65535	64620.8
875.7917	1317.3605	65535	64619
875.9359	1319.2405	65535	64631.25
876.0801	1321.1197	65535	64629.1
876.2243	1322.9982	65535	64628.95
876.3685	1324.876	65535	64632.25
876.5127	1326.753	65535	64633.05
876.6569	1328.6293	65535	64632.05
876.801	1330.5048	65535	64631.5
876.9452	1332.3796	65535	64634.1
877.0893	1334.2537	65535	64606.8
877.2335	1336.127	65535	64632.5
877.3776	1337.9996	65535	64633.55
877.5217	1339.8714	65535	64631.25
877.6658	1341.7426	65535	64588.65
877.8099	1343.6129	65535	64631.9
877.954	1345.4826	65535	64630.85
878.0981	1347.3515	65535	64631.35
878.2422	1349.2196	65535	64632.75
878.3862	1351.087	65535	64633.85
878.5303	1352.9537	65535	64632.4
878.6743	1354.8197	65535	64630.15
878.8184	1356.6849	65535	64632.5
878.9624	1358.5493	65535	64631.8
879.1064	1360.4131	65535	64632.85
879.2504	1362.276	65535	64632.9
879.3944	1364.1383	65535	64632.25
879.5384	1365.9998	65535	64628.45
879.6823	1367.8606	65535	64630.35
879.8263	1369.7206	65535	64632.15
879.9702	1371.5799	65535	64630.2
880.1142	1373.4384	65535	64633.35
880.2581	1375.2962	65535	64634.8
880.402	1377.1533	65535	64635.25
880.5459	1379.0096	65535	64632.3
880.6898	1380.8652	65535	64633.45
880.8337	1382.7201	65535	64633.2
880.9776	1384.5742	65535	64632.3
881.1215	1386.4275	65535	64630.1
881.2653	1388.2802	65535	64635
881.4092	1390.132	65535	64633.8
881.553	1391.9832	65535	64631.55
881.6968	1393.8336	65535	64633
881.8406	1395.6832	65535	64630.15
881.9844	1397.5322	65535	64632.7
882.1282	1399.3803	65535	64628.4
882.272	1401.2278	65535	64630.65
882.4158	1403.0745	65535	64632.55
882.5595	1404.9204	65535	64637.2
882.7033	1406.7656	65535	64633.25
882.847	1408.6101	65535	64633.8
882.9908	1410.4538	65535	64632.2
883.1345	1412.2968	65535	64633.9
883.2782	1414.139	65535	64634.3
883.4219	1415.9805	65535	64634.05
883.5656	1417.8213	65535	64627.8
883.7092	1419.6613	65535	64634.8
883.8529	1421.5006	65535	64633
883.9965	1423.3391	65535	64632.8
884.1402	1425.1769	65535	64633.2
884.2838	1427.0139	65535	64633.95
884.4274	1428.8502	65535	64634.4
884.571	1430.6858	65535	64635.35
884.7146	1432.5206	65535	64634.75
884.8582	1434.3547	65535	64632.75
885.0018	1436.188	65535	64634.6
885.1453	1438.0206	65535	64632.45
885.2889	1439.8524	65535	64632.9
885.4324	1441.6835	65535	64630.8
885.5759	1443.5139	65535	64628.9
885.7194	1445.3435	65535	64634.45
885.8629	1447.1724	65535	64634.85
886.0064	1449.0005	65535	64633.8
886.1499	1450.8279	65535	64633.7
886.2933	1452.6545	65535	64634.95
886.4368	1454.4804	65535	64635.05
886.5802	1456.3056	65535	64627.15
886.7237	1458.13	65535	64635.5
886.8671	1459.9536	65535	64633.55
887.0105	1461.7766	65535	64632.95
887.1539	1463.5987	65535	64633.75
887.2972	1465.4202	65535	64635.15
887.4406	1467.2409	65535	64635
887.584	1469.0608	65535	64634.1
887.7273	1470.88	65535	64631.65
887.8706	1472.6984	65535	64635.65
888.0139	1474.5161	65535	64631.25
888.1572	1476.3331	65535	64634.55
888.3005	1478.1493	65535	64631.55
888.4438	1479.9648	65535	64632.8
888.5871	1481.7795	65535	64634.9
888.7303	1483.5935	65535	64635.85
888.8736	1485.4067	65535	64635
889.0168	1487.2192	65535	64633.15
889.16	1489.031	65535	64632.35
889.3032	1490.842	65535	64635.5
889.4464	1492.6522	65535	64633.55
889.5896	1494.4618	65535	64635.35
889.7327	1496.2705	65535	64634.1
889.8759	1498.0785	65535	64634.35
890.019	1499.8858	65535	64634.15
890.1622	1501.6924	65535	64633.65
890.3053	1503.4981	65535	64634.3
890.4484	1505.3032	65535	64632.1
890.5914	1507.1075	65535	64633.75
890.7345	1508.911	65535	64634.35
890.8776	1510.7138	65535	64634.95
891.0206	1512.5159	65535	64633.2
891.1637	1514.3172	65535	64631.65
891.3067	1516.1178	65535	64633.75
891.4497	1517.9176	65535	64632.7
891.5927	1519.7166	65535	64637.05
891.7357	1521.515	65535	64629.35
891.8786	1523.3126	65535	64636.55
892.0216	1525.1094	65535	64633.35
892.1645	1526.9055	65535	64637.5
892.3074	1528.7008	65535	64635.55
892.4503	1530.4954	65535	64629.2
892.5932	1532.2893	65535	64637.8
892.7361	1534.0824	65535	64630.85
892.879	1535.8747	65535	64635.15
893.0218	1537.6663	65535	64634.8
893.1647	1539.4572	65535	64632.85
893.3075	1541.2473	65535	64632.95
893.4503	1543.0367	65535	64637
893.5931	1544.8253	65535	64631.15
893.7359	1546.6132	65535	64633.4
893.8787	1548.4003	65535	64624.35
894.0214	1550.1867	65535	64626
894.1642	1551.9723	65535	64629.85
894.3069	1553.7572	65535	64633.6
894.4496	1555.5414	65535	64636.05
894.5923	1557.3247	65535	64636.4
894.735	1559.1074	65535	64639.05
894.8777	1560.8893	65535	64634.35
895.0204	1562.6705	65535	64634.95
895.163	1564.4509	65535	64636.4
895.3056	1566.2305	65535	64636.85
895.4482	1568.0094	65535	64636.25
895.5908	1569.7876	65535	64639.15
895.7334	1571.565	65535	64636.25
895.876	1573.3417	65535	64635.05
896.0186	1575.1176	65535	64637.2
896.1611	1576.8928	65535	64637.65
896.3036	1578.6672	65535	64638.45
896.4461	1580.4409	65535	64637.5
896.5886	1582.2138	65529.35	64630.9
896.7311	1583.986	65534.2	64635.75
896.8736	1585.7575	65519.3	64622.45
897.0161	1587.5282	65526.15	64629.9
897.1585	1589.2981	65526.55	64630.7
897.3009	1591.0673	65509.5	64611.95
897.4433	1592.8358	65454.1	64558.95
897.5857	1594.6035	65505.85	64607.05
897.7281	1596.3704	65506.6	64607.15
897.8705	1598.1366	65370.75	64472.45
898.0128	1599.9021	65254.55	64358.5
898.1551	1601.6668	65428.8	64529.8
898.2975	1603.4308	65337.05	64437.7
898.4398	1605.194	65316.85	64416.25
898.5821	1606.9564	64945.25	64050.45
898.7243	1608.7182	65225.7	64327.6
898.8666	1610.4791	65013.3	64116.75
899.0088	1612.2394	65242.7	64347.65
899.1511	1613.9988	64880.85	63983.05
899.2933	1615.7576	65265	64369
899.4355	1617.5156	65245	64344.05
899.5776	1619.2728	65435.1	64539.55
899.7198	1621.0293	65009.2	64111.7
899.862	1622.785	65037.4	64136.85
900.0041	1624.54	65203.35	64304.55
900.1462	1626.2942	64837.55	63941.3
900.2883	1628.0477	64247.85	63349.05
900.4304	1629.8005	63664.85	62764.15
900.5725	1631.5525	64290.3	63395.4
900.7145	1633.3037	63313	62417.9
900.8566	1635.0542	63164.65	62270.35
900.9986	1636.804	63684.05	62787.7
901.1406	1638.553	62489.75	61512.4
901.2826	1640.3013	62879.45	61983.8
901.4245	1642.0488	62133.15	61235.75
901.5665	1643.7955	62707.25	61813.85
901.7085	1645.5416	62113.2	61216.9
901.8504	1647.2868	61535.25	60640.85
901.9923	1649.0313	62443.35	61546.95
902.1342	1650.7751	61976	61078
902.2761	1652.5181	61563.35	60665.9
902.4179	1654.2604	61718.75	60821.65
902.5598	1656.0019	62087.05	61191.8
902.7016	1657.7427	61860.1	60963.7
902.8434	1659.4828	62517.7	61621.95
902.9852	1661.222	61916	61019.6
903.127	1662.9606	62643.8	61749.55
903.2687	1664.6984	61643.1	60744.65
903.4105	1666.4354	61968.95	61072.9
903.5522	1668.1717	60727.5	59832.55
903.6939	1669.9072	59785.9	58892
903.8356	1671.642	59581.1	58682.85
903.9773	1673.3761	59278.35	58383.1
904.119	1675.1094	58986.95	58091.15
904.2606	1676.8419	58283.55	57388.55
904.4022	1678.5737	58195.1	57296.35
904.5439	1680.3048	57875.15	56979.7
904.6855	1682.0351	57604.85	56708.85
904.827	1683.7646	57253	56354.65
904.9686	1685.4934	57392.25	56496.45
905.1101	1687.2215	56284.9	55390.6
905.2517	1688.9488	56949.6	56053.7
905.3932	1690.6754	55421.25	54525.5
905.5347	1692.4012	55966.2	55069.6
905.6761	1694.1263	55879.85	54982.65
905.8176	1695.8506	55489.1	54594.25
905.9591	1697.5742	55360.55	54465.65
906.1005	1699.297	55087.45	54191.6
906.2419	1701.0191	55033.1	54138.9
906.3833	1702.7404	54422.55	53529.7
906.5246	1704.461	54069.1	53172.55
906.666	1706.1808	54128.25	53230.75
906.8073	1707.8999	54044.15	53148.15
906.9487	1709.6182	53759.7	52867.65
907.09	1711.3358	53670	52777.8
907.2313	1713.0527	53428.65	52537.9
907.3725	1714.7688	53288.4	52389.4
907.5138	1716.4841	52656.45	51757.95
907.655	1718.1987	52879.15	51980.2
907.7962	1719.9126	52548.8	51655.75
907.9374	1721.6257	52466.05	51570.6
908.0786	1723.338	52552.85	51658.45
908.2198	1725.0496	51764.2	50869.4
908.3609	1726.7605	51790.7	50896.7
908.502	1728.4706	51538.5	50643.15
908.6431	1730.18	51363.35	50465.8
908.7842	1731.8886	51211.65	50317.75
908.9253	1733.5964	51025.4	50111.9
909.0664	1735.3036	50994.05	50097.85
909.2074	1737.0099	50843.25	49949.2
909.3484	1738.7156	50601.45	49708.05
909.4894	1740.4204	50378.7	49483.05
909.6304	1742.1246	50241.6	49347.05
909.7714	1743.8279	50222.65	49330.3
909.9123	1745.5306	50193.35	49299.9
910.0532	1747.2325	49707.2	48814.2
910.1941	1748.9336	49615.25	48721.55
910.335	1750.634	49371.85	48476.85
910.4759	1752.3336	49361.55	48469.65
910.6168	1754.0325	49172.8	48280.55
910.7576	1755.7307	49120.95	48228.4
910.8984	1757.4281	48933	48038.75
911.0392	1759.1247	48930.25	48028.15
911.18	1760.8206	48676.2	47777.5
911.3208	1762.5158	48541.05	47642.9
911.4615	1764.2102	48391.9	47498.65
911.6022	1765.9039	48207.75	47315.9
911.7429	1767.5968	48144.45	47251.9
911.8836	1769.289	47934.45	47041.25
912.0243	1770.9804	47888.15	46993.75
912.1649	1772.6711	47761.05	46865.95
912.3056	1774.361	47589.65	46694.45
912.4462	1776.0502	47469	46573.7
912.5868	1777.7386	47288.35	46391.55
912.7274	1779.4263	47156.05	46262.4
912.8679	1781.1132	47096.55	46203.65
913.0084	1782.7994	46893.6	45998.35
913.149	1784.4849	46832.4	45940.7
913.2895	1786.1696	46613.3	45715.35
913.4299	1787.8535	46514.85	45621.2
913.5704	1789.5367	46342.6	45449.15
913.7108	1791.2192	46268.05	45375.4
913.8513	1792.9009	46041.9	45119.2
913.9917	1794.5818	45920.1	45025.7
914.132	1796.2621	45780.4	44887.8
914.2724	1797.9415	45713.8	44820.2
914.4128	1799.6202	45524.85	44632.55
914.5531	1801.2982	45452.85	44557.95
914.6934	1802.9755	45277	44382.5
914.8337	1804.6519	45182.05	44287.65
914.9739	1806.3277	44968.85	44076.3
915.1142	1808.0027	44746.6	43855.35
915.2544	1809.6769	44703.65	43811.15
915.3946	1811.3504	44537.9	43643.05
915.5348	1813.0231	44411.45	43519.25
915.675	1814.6951	44389.6	43495.2
915.8151	1816.3664	44380.55	43483.5
915.9553	1818.0369	44226.75	43332.9
916.0954	1819.7067	44004.05	43112.05
916.2355	1821.3757	43913.95	43018.5
916.3755	1823.044	43847.3	42952.4
916.5156	1824.7115	43694	42800.75
916.6556	1826.3783	43452.45	42560.85
916.7956	1828.0443	43274.8	42382.55
916.9356	1829.7096	43190.85	42296.05
917.0756	1831.3741	43169.45	42269.95
917.2155	1833.0379	42981.6	42089
917.3555	1834.701	42812.65	41917.75
917.4954	1836.3633	42749.3	41855.2
917.6353	1838.0248	42628.3	41734.2
917.7751	1839.6856	42509.6	41615.6
917.915	1841.3457	42472.7	41580.2
918.0548	1843.005	42357.25	41463.9
918.1946	1844.6636	42242.45	41352.55
918.3344	1846.3214	42078.05	41184.7
918.4742	1847.9785	42051.95	41157.5
918.6139	1849.6349	41892.55	40998.3
918.7537	1851.2904	41777.25	40875.45
918.8934	1852.9453	41659.8	40766.05
919.0331	1854.5994	41550	40656.1
919.1727	1856.2528	41558.2	40658.8
919.3124	1857.9054	41431.25	40537.65
919.452	1859.5572	41381.75	40491.25
919.5916	1861.2083	41236.55	40342
919.7312	1862.8587	41127.95	40233.9
919.8708	1864.5084	41043.2	40148.9
920.0103	1866.1572	40858.75	39965.6
920.1498	1867.8054	40614.45	39722
920.2893	1869.4528	40608.9	39714.55
920.4288	1871.0994	40496.25	39604.05
920.5683	1872.7453	40393.2	39500.85
920.7077	1874.3905	40285.05	39384.65
920.8471	1876.0349	40120.95	39226.95
920.9865	1877.6786	40120.25	39226.95
921.1259	1879.3215	40027.45	39135.65
921.2653	1880.9637	39859.15	38964.85
921.4046	1882.6051	39785.05	38891.75
921.5439	1884.2458	39622.85	38729.1
921.6832	1885.8858	39500.55	38607.25
921.8225	1887.525	39451.95	38556.05
921.9617	1889.1634	39283.3	38392
922.101	1890.8011	39112.5	38220.75
922.2402	1892.4381	38923.6	38031.75
922.3794	1894.0743	38880.5	37989.9
922.5185	1895.7098	38777.95	37883.6
922.6577	1897.3446	38712.75	37818.95
922.7968	1898.9786	38576.2	37679.1
922.9359	1900.6118	38503.15	37609.95
923.075	1902.2443	38258.5	37361.65
923.214	1903.8761	38203.85	37312.2
923.3531	1905.5071	37970.4	37076.45
923.4921	1907.1374	37808.25	36914.5
923.6311	1908.7669	37800.3	36909.4
923.77	1910.3957	37661.2	36767.9
923.909	1912.0237	37452.75	36560.2
924.0479	1913.651	37354.65	36460.45
924.1868	1915.2776	37214.4	36323
924.3257	1916.9034	37086.95	36197.45
924.4646	1918.5285	36916.4	36024.7
924.6034	1920.1528	36729.4	35836.95
924.7422	1921.7764	36680.4	35788.3
924.881	1923.3992	36515.9	35623.2
925.0198	1925.0213	36239	35346.1
925.1586	1926.6427	36059.45	35169.9
925.2973	1928.2633	36130.3	35119.6
925.436	1929.8832	35922.55	35028.1
925.5747	1931.5023	35698.15	34804.2
925.7134	1933.1207	35666.95	34772.55
925.852	1934.7383	35562.6	34669.65
925.9906	1936.3552	35448.5	34556.5
926.1292	1937.9714	35392.95	34500.85
926.2678	1939.5868	35209.6	34315.55
926.4064	1941.2015	34953.2	34060
926.5449	1942.8154	34854.95	33963.1
926.6834	1944.4286	34699.2	33806.35
926.8219	1946.041	34544.85	33632.45
926.9604	1947.6528	34316.15	33417.9
927.0988	1949.2637	34280.5	33386.35
927.2372	1950.8739	34196.65	33303.95
927.3756	1952.4834	34088.65	33195.95
927.514	1954.0921	33968.75	33075.3
927.6523	1955.7001	33815.4	32920.3
927.7907	1957.3074	33715.3	32822.4
927.929	1958.9139	33564.8	32672.85
928.0673	1960.5197	33450.5	32555.3
928.2055	1962.1247	33298.2	32408.65
928.3438	1963.729	33146.05	32253.85
928.482	1965.3325	33041.4	32126.85
928.6202	1966.9353	32917.25	32024.15
928.7584	1968.5374	32802.8	31909.3
928.8965	1970.1387	32703.15	31812.35
929.0346	1971.7393	32579.15	31685.15
929.1727	1973.3392	32452.95	31558.9
929.3108	1974.9383	32325.45	31433.65
929.4489	1976.5366	32173.05	31279.9
929.5869	1978.1342	32111.55	31217.05
929.7249	1979.7311	31991.85	31098.05
929.8629	1981.3273	31896.4	31004.7
930.0009	1982.9227	31776.3	30882.25
930.1388	1984.5173	31652.9	30760.35
930.2767	1986.1112	31521.75	30630.95
930.4146	1987.7044	31436.15	30544.65
930.5525	1989.2968	31315.3	30420.6
930.6904	1990.8885	31217.45	30320.55
930.8282	1992.4795	31145	30251.95
930.966	1994.0697	31012.55	30122.6
931.1038	1995.6592	30887.5	29998.15
931.2415	1997.2479	30769.45	29877.45
931.3793	1998.8359	30717.7	29825.85
931.517	2000.4232	30542.35	29650.55
931.6547	2002.0097	30444.45	29553.9
931.7923	2003.5955	30273.5	29381.55
931.93	2005.1805	30267.8	29374.55
932.0676	2006.7648	30182.4	29291.8
932.2052	2008.3484	30013.1	29120.4
932.3427	2009.9312	30029.55	29135.5
932.4803	2011.5133	29892.45	29000.9
932.6178	2013.0946	29767.5	28875.45
932.7553	2014.6752	29679.7	28788.5
932.8928	2016.2551	29584.75	28691.85
933.0302	2017.8342	29479	28586.9
933.1676	2019.4126	29379.95	28490.25
933.305	2020.9902	29232.5	28341.55
933.4424	2022.5672	29177.5	28286.05
933.5798	2024.1433	29070.25	28174.05
933.7171	2025.7188	28976.35	28086.35
933.8544	2027.2935	28937.2	28044.7
933.9917	2028.8674	28762.4	27871.8
934.129	2030.4406	28673.55	27782.75
934.2662	2032.0131	28505.8	27616
934.4034	2033.5849	28431.2	27534.5
934.5406	2035.1559	28372.8	27482.25
934.6778	2036.7261	28304	27412.55
934.8149	2038.2957	28197.6	27307.75
934.952	2039.8645	28129.95	27238.3
935.0891	2041.4325	28161.85	27266.45
935.2262	2042.9998	27960.7	27070.55
935.3632	2044.5664	27901.15	27008.3
935.5002	2046.1323	27841.1	26950.9
935.6372	2047.6974	27681.8	26790.95
935.7742	2049.2617	27666.25	26774.8
935.9111	2050.8254	27610.9	26698.2
936.048	2052.3883	27551.05	26660.2
936.1849	2053.9504	27470.45	26578.85
936.3218	2055.5118	27303.35	26410.5
936.4586	2057.0725	27160.2	26264.75
936.5955	2058.6325	27116.55	26224
936.7323	2060.1917	27039.2	26146.15
936.869	2061.7502	26941.8	26047.7
937.0058	2063.3079	26837.8	25946.3
937.1425	2064.8649	26794.9	25900.95
937.2792	2066.4212	26718.7	25828.1
937.4159	2067.9767	26638.35	25747
937.5525	2069.5315	26510.1	25620.1
937.6891	2071.0856	26351.7	25458.85
937.8257	2072.6389	26269.05	25376.35
937.9623	2074.1915	26070.5	25181.1
938.0989	2075.7433	25964.8	25067.8
938.2354	2077.2945	25875.85	24985.35
938.3719	2078.8448	25820.75	24930.2
938.5084	2080.3945	25741.15	24850.1
938.6448	2081.9434	25730.7	24840.45
938.7812	2083.4916	25643.15	24751.85
938.9176	2085.039	25507.4	24615.15
939.054	2086.5857	25449.45	24556.15
939.1903	2088.1317	25364.15	24471.25
939.3267	2089.677	25293.3	24400.95
939.463	2091.2215	25160.95	24267.25
939.5992	2092.7652	25092.55	24198.95
939.7355	2094.3083	25103.5	24209.75
939.8717	2095.8506	24981.8	24090.15
940.0079	2097.3921	25007.9	24115.1
940.1441	2098.933	24863.4	23971.4
940.2802	2100.4731	24802.95	23913.1
940.4163	2102.0124	24726.6	23826.8
940.5524	2103.5511	24707.85	23815.25
940.6885	2105.089	24596.15	23704.45
940.8245	2106.6261	24510.65	23620.05
940.9606	2108.1626	24471.2	23579.35
941.0965	2109.6983	24419.5	23502.1
941.2325	2111.2332	24339.3	23445.7
941.3684	2112.7675	24229.9	23337.05
941.5044	2114.301	24131.15	23238.9
941.6403	2115.8337	24131.7	23237.5
941.7761	2117.3657	24049.95	23157.3
941.912	2118.897	23978.05	23085.25
942.0478	2120.4276	23863	22965.3
942.1835	2121.9575	23732.5	22839
942.3193	2123.4866	23760.35	22865.2
942.455	2125.0149	23686.8	22790.8
942.5907	2126.5426	23536.8	22643.45
942.7264	2128.0695	23450.5	22555
942.8621	2129.5956	23415.95	22525.4
942.9977	2131.1211	23347.05	22451.45
943.1333	2132.6458	23266.9	22376.95
943.2689	2134.1698	23244	22352.45
943.4044	2135.693	23149.15	22254.4
943.54	2137.2155	23119.15	22224.1
943.6755	2138.7373	23069.95	22175.4
943.8109	2140.2584	22954.25	22060.55
943.9464	2141.7787	22865.2	21967.25
944.0818	2143.2983	22730.7	21840.6
944.2172	2144.8171	22589.65	21700.7
944.3526	2146.3353	22567.1	21673.95
944.4879	2147.8527	22495.95	21607.1
944.6232	2149.3693	22462.25	21570.7
944.7585	2150.8853	22375.4	21480.8
944.8938	2152.4005	22273.7	21380.2
945.029	2153.9149	22221.25	21329.3
945.1642	2155.4287	22143.1	21253.1
945.2994	2156.9417	22105.75	21210.9
945.4346	2158.454	22000.5	21106.2
945.5697	2159.9655	21957.6	21066.7
945.7048	2161.4764	21918.55	21026
945.8399	2162.9865	21852.05	20960.85
945.9749	2164.4958	21760.1	20868.75
946.1099	2166.0045	21657.9	20762.05
946.2449	2167.5124	21644.75	20754.65
946.3799	2169.0195	21589.65	20697.3
946.5148	2170.526	21540.05	20647.55
946.6498	2172.0317	21429.1	20535.9
946.7846	2173.5367	21379.15	20486.1
946.9195	2175.0409	21288.8	20397.2
947.0543	2176.5445	21304.55	20412.6
947.1891	2178.0473	21194.4	20301.85
947.3239	2179.5494	21089.9	20195.6
947.4587	2181.0507	21021.3	20128.45
947.5934	2182.5513	20967.7	20077.05
947.7281	2184.0512	20902.6	20011.35
947.8628	2185.5504	20839.35	19946.35
947.9974	2187.0488	20707.6	19815.35
948.132	2188.5465	20650	19757
948.2666	2190.0435	20572.65	19681.4
948.4012	2191.5397	20482.75	19592.7
948.5357	2193.0353	20437	19543.35
948.6702	2194.5301	20301.95	19408.9
948.8047	2196.0241	20239.05	19347.7
948.9392	2197.5175	20181.25	19288.8
949.0736	2199.0101	20097.4	19202.1
949.208	2200.502	19989.65	19096.35
949.3424	2201.9931	19906.65	19015.3
949.4767	2203.4835	19832.75	18939.7
949.611	2204.9733	19783.15	18885.05
949.7453	2206.4622	19737.55	18845.35
949.8796	2207.9505	19656.1	18760.9
950.0138	2209.438	19546.35	18656
950.148	2210.9248	19497.7	18605.65
950.2822	2212.4109	19433.45	18541.55
950.4164	2213.8962	19366.3	18472
950.5505	2215.3809	19318.15	18425.05
950.6846	2216.8648	19276.05	18382.55
950.8186	2218.3479	19188.35	18290.95
950.9527	2219.8304	19081.65	18186
951.0867	2221.3121	19015.45	18118.75
951.2207	2222.7931	18978.1	18086.6
951.3546	2224.2733	18874.35	17980.3
951.4886	2225.7529	18804.65	17911.15
951.6225	2227.2317	18756.4	17863.75
951.7563	2228.7098	18755.3	17863.75
951.8902	2230.1872	18646.6	17756.35
952.024	2231.6638	18579	17686.9
952.1578	2233.1397	18509.45	17611.9
952.2916	2234.6149	18461.2	17571
952.4253	2236.0894	18372.8	17482.15
952.559	2237.5632	18319.65	17417.7
952.6927	2239.0362	18241.8	17351.25
952.8263	2240.5085	18173.9	17280.25
952.9599	2241.9801	18096.45	17203.55
953.0935	2243.4509	18075.25	17184.1
953.2271	2244.921	17999.7	17107
953.3606	2246.3904	17939.3	17043.05
953.4941	2247.8591	17843.65	16951.35
953.6276	2249.3271	17831.45	16938.95
953.7611	2250.7943	17755.4	16861.65
953.8945	2252.2608	17673.85	16781.5
954.0279	2253.7266	17634.8	16742.9
954.1612	2255.1917	17564.95	16673.95
954.2946	2256.656	17499.85	16606.05
954.4279	2258.1197	17460.1	16568.25
954.5612	2259.5826	17409.8	16515.65
954.6944	2261.0447	17353.8	16459.9
954.8276	2262.5062	17263.75	16371.4
954.9608	2263.9669	17203.65	16308.6
955.094	2265.4269	17176.3	16284.75
955.2271	2266.8862	17155.45	16264
955.3602	2268.3448	17132.75	16239.8
955.4933	2269.8026	17039.7	16148.65
955.6264	2271.2598	16950.55	16058.35
955.7594	2272.7162	16910.35	16020.1
955.8924	2274.1719	16861.25	15968.75
956.0253	2275.6268	16798.5	15905.45
956.1583	2277.0811	16778.5	15883.5
956.2912	2278.5346	16681.5	15789.6
956.4241	2279.9874	16670.95	15778.35
956.5569	2281.4395	16635.4	15743.3
956.6897	2282.8908	16574.4	15678.85
956.8225	2284.3414	16541.45	15648.9
956.9553	2285.7914	16457.15	15566.4
957.088	2287.2406	16364.3	15470.55
957.2207	2288.689	16338.55	15446.5
957.3534	2290.1368	16284.85	15391.55
957.486	2291.5838	16205.3	15310.65
957.6186	2293.0302	16172.15	15278.1
957.7512	2294.4758	16114.25	15221.95
957.8838	2295.9206	16029.55	15133.95
958.0163	2297.3648	15989.9	15099.2
958.1488	2298.8082	15978.6	15086.15
958.2813	2300.251	15924.4	15032.65
958.4137	2301.693	15869.7	14975.8
958.5461	2303.1343	15842.5	14949.4
958.6785	2304.5748	15784	14891.25
958.8108	2306.0147	15702.4	14808.9
958.9432	2307.4538	15654.4	14759.8
959.0754	2308.8922	15639.35	14749.85
959.2077	2310.3299	15597.95	14707.15
959.3399	2311.7669	15537.2	14645.55
959.4721	2313.2031	15443.75	14550.75
959.6043	2314.6387	15398.4	14505.35
959.7365	2316.0735	15349.1	14456.35
959.8686	2317.5076	15338.85	14446.1
960.0006	2318.941	15220.8	14328.25
960.1327	2320.3737	15174.55	14284.15
960.2647	2321.8056	15126.15	14230.55
960.3967	2323.2369	15070.2	14176.05
960.5287	2324.6674	15047.1	14152.15
960.6606	2326.0972	14976.6	14080.5
960.7925	2327.5263	14917.05	14025.2
960.9244	2328.9547	14879.05	13987.05
961.0562	2330.3823	14841.5	13949.3
961.1881	2331.8092	14849.2	13951.8
961.3198	2333.2355	14744.5	13850.95
961.4516	2334.661	14726.4	13832.8
961.5833	2336.0858	14681.85	13786.6
961.715	2337.5098	14636.2	13743.2
961.8467	2338.9332	14594.7	13701.4
961.9783	2340.3558	14523.8	13628
962.1099	2341.7778	14465.05	13572
962.2415	2343.199	14400.95	13506.1
962.373	2344.6195	14368.4	13476.75
962.5045	2346.0393	14351	13459.75
962.636	2347.4583	14319.3	13427.55
962.7675	2348.8767	14258.55	13365.1
962.8989	2350.2943	14196.75	13303.85
963.0303	2351.7113	14159.95	13266.8
963.1617	2353.1275	14117.75	13223.4
963.293	2354.543	14079.1	13179.1
963.4243	2355.9578	14037.85	13145.75
963.5556	2357.3718	13941.85	13051.05
963.6868	2358.7852	13900.85	13006.7
963.818	2360.1978	13836.05	12943.4
963.9492	2361.6098	13773.25	12881.25
964.0803	2363.021	13757.55	12861.6
964.2114	2364.4315	13724.6	12831.7
964.3425	2365.8413	13668.15	12772.2
964.4736	2367.2504	13609.1	12718.1
964.6046	2368.6587	13532.3	12639.95
964.7356	2370.0664	13453.1	12560.8
964.8666	2371.4733	13430.2	12537.45
964.9975	2372.8795	13372.95	12481.1
965.1284	2374.285	13328.2	12438.1
965.2593	2375.6899	13268.15	12377.7
965.3901	2377.0939	13179.9	12288.15
965.5209	2378.4973	13151.1	12260.1
965.6517	2379.9	13127.15	12234.6
965.7825	2381.3019	13061.7	12169.95
965.9132	2382.7032	12991.95	12099.85
966.0439	2384.1037	12987.85	12098.05
966.1745	2385.5035	12944.3	12052.65
966.3051	2386.9027	12894.25	12003.55
966.4357	2388.3011	12858.25	11963.55
966.5663	2389.6987	12829.55	11936.7
966.6968	2391.0957	12765.7	11874.8
966.8273	2392.492	12673.75	11781.45
966.9578	2393.8876	12608.75	11715.25
967.0882	2395.2824	12575.45	11683.85
967.2186	2396.6765	12514	11623.7
967.349	2398.07	12452.25	11562.55
967.4793	2399.4627	12434	11541.55
967.6097	2400.8547	12373.4	11482.95
967.7399	2402.246	12328	11429.4
967.8702	2403.6366	12258.1	11366.4
968.0004	2405.0265	12185	11294.3
968.1306	2406.4156	12178.15	11281.8
968.2607	2407.8041	12127.15	11231.4
968.3909	2409.1918	12076.9	11183.1
968.521	2410.5789	12008.7	11117.05
968.651	2411.9652	11979.05	11086.05
968.781	2413.3508	11926.75	11036.95
968.911	2414.7358	11907.55	11014.15
969.041	2416.12	11820.65	10930.75
969.1709	2417.5035	11835.55	10941.75
969.3008	2418.8863	11781.75	10889.65
969.4307	2420.2684	11736.6	10843.95
969.5606	2421.6497	11699.8	10807
969.6904	2423.0304	11593.95	10702.65
969.8201	2424.4104	11597.65	10706.95
969.9499	2425.7896	11569.45	10675.5
970.0796	2427.1682	11513.2	10622.55
970.2093	2428.546	11490.65	10599.75
970.3389	2429.9232	11449.05	10556.15
970.4685	2431.2996	11419.3	10528.35
970.5981	2432.6753	11386.25	10493.6
970.7277	2434.0503	11365.3	10473.4
970.8572	2435.4246	11294.5	10402.3
970.9867	2436.7982	11245.2	10352.65
971.1161	2438.1711	11211.05	10321.3
971.2456	2439.5433	11181.7	10288.45
971.375	2440.9148	11136.45	10243.5
971.5043	2442.2856	11063.2	10171.05
971.6336	2443.6557	11054.75	10160.25
971.7629	2445.025	11011.85	10119.8
971.8922	2446.3937	10961.7	10070.15
972.0214	2447.7617	10963	10072.25
972.1506	2449.1289	10940.6	10049.05
972.2798	2450.4955	10886.2	9991.15
972.4089	2451.8613	10837.9	9945.1
972.538	2453.2265	10791.85	9900.4
972.6671	2454.5909	10788.75	9897.5
972.7961	2455.9546	10744.35	9852.2
972.9251	2457.3177	10692.65	9800.8
973.0541	2458.68	10664.75	9772.25
973.1831	2460.0416	10678.4	9787.15
973.312	2461.4025	10638	9745.25
973.4408	2462.7627	10607.4	9702.7
973.5697	2464.1222	10562.25	9672.45
973.6985	2465.4811	10561.1	9668.5
973.8273	2466.8392	10494.05	9602.5
973.956	2468.1966	10480.8	9587.2
974.0847	2469.5533	10473.2	9577.25
974.2134	2470.9093	10432.35	9541.3
974.3421	2472.2645	10375.65	9485
974.4707	2473.6191	10351.7	9460.25
974.5993	2474.973	10310.5	9419.8
974.7278	2476.3262	10276.35	9382.65
974.8563	2477.6787	10202.4	9311.2
974.9848	2479.0305	10168.95	9275.95
975.1132	2480.3816	10125.4	9232.8
975.2417	2481.7319	10106.5	9214.45
975.37	2483.0816	10074.75	9181.6
975.4984	2484.4306	10028.6	9136.85
975.6267	2485.7789	9968.8	9078.45
975.755	2487.1264	9953.45	9060.45
975.8833	2488.4733	9908.45	9017.65
976.0115	2489.8195	9870	8960.3
976.1397	2491.165	9835.2	8940.35
976.2678	2492.5097	9788.75	8896.5
976.3959	2493.8538	9749.1	8856.5
976.524	2495.1972	9692.2	8799.35
976.6521	2496.5398	9657.5	8763.9
976.7801	2497.8818	9640.45	8747.35
976.9081	2499.2231	9608.1	8715.65
977.036	2500.5637	9567.85	8674.05
977.164	2501.9035	9537.15	8643.85
977.2918	2503.2427	9502.8	8607.3
977.4197	2504.5812	9476.75	8583.85
977.5475	2505.919	9444.35	8549.15
977.6753	2507.256	9436.95	8542.6
977.8031	2508.5924	9392.95	8501.85
977.9308	2509.9281	9360.1	8461.05
978.0585	2511.2631	9327.95	8437.7
978.1861	2512.5974	9298.85	8405.8
978.3137	2513.9309	9246.25	8353.65
978.4413	2515.2638	9228.1	8306.45
978.5689	2516.596	9185.05	8295.35
978.6964	2517.9275	9148.6	8256
978.8239	2519.2583	9130.8	8238.8
978.9513	2520.5884	9092.85	8198.95
979.0788	2521.9178	9042.05	8148.2
979.2062	2523.2465	9001.3	8110
979.3335	2524.5745	8959.85	8067.5
979.4608	2525.9018	8938.4	8046.25
979.5881	2527.2284	8889.7	7998.75
979.7154	2528.5543	8910.4	8019.75
979.8426	2529.8796	8880.65	7989.4
979.9698	2531.2041	8834.85	7941.5
980.0969	2532.5279	8824.25	7933.8
980.224	2533.851	8818.1	7925.25
980.3511	2535.1735	8755.5	7863.85
980.4781	2536.4952	8733.15	7842.45
980.6052	2537.8163	8724.2	7831.05
980.7321	2539.1366	8686.7	7797.05
980.8591	2540.4562	8667.1	7773.45
980.986	2541.7752	8660.55	7768.8
981.1129	2543.0935	8629.1	7737.05
981.2397	2544.411	8625.05	7730.85
981.3665	2545.7279	8586.9	7697.5
981.4933	2547.0441	8579.15	7688
981.62	2548.3596	8572.7	7677.6
981.7467	2549.6744	8514.2	7621.15
981.8734	2550.9885	8481.55	7588
982.0001	2552.3019	8484.7	7592.7
982.1267	2553.6146	8465.4	7574.6
982.2532	2554.9266	8411.5	7518.6
982.3798	2556.2379	8382.4	7489.5
982.5063	2557.5485	8376.35	7483.85
982.6327	2558.8585	8346.1	7446.25
982.7592	2560.1677	8356	7460.1
982.8856	2561.4762	8319.2	7427.9
983.0119	2562.7841	8293.35	7399.6
983.1383	2564.0913	8285.55	7395.05
983.2646	2565.3977	8257.5	7363.95
983.3908	2566.7035	8234.5	7343.15
983.517	2568.0086	8217.15	7322.15
983.6432	2569.313	8204.8	7309.85
983.7694	2570.6167	8189.6	7293.95
983.8955	2571.9197	8162.1	7269.45
984.0216	2573.222	8143.65	7247.65
984.1476	2574.5236	8132	7239.25
984.2737	2575.8246	8103.7	7208.35
984.3996	2577.1248	8078.75	7184.3
984.5256	2578.4244	8048.8	7157.9
984.6515	2579.7232	8066.15	7174.7
984.7774	2581.0214	8038.25	7123.05
984.9032	2582.3189	8001.75	7110.75
985.029	2583.6157	7986.35	7089.3
985.1548	2584.9118	7978.65	7086.4
985.2806	2586.2072	7961.1	7069.65
985.4063	2587.5019	7927.55	7036
985.5319	2588.7959	7898.15	7004.35
985.6576	2590.0893	7880.4	6986.7
985.7832	2591.3819	7861.95	6970.45
985.9087	2592.6739	7836.1	6944.35
986.0343	2593.9652	7802.6	6909
986.1597	2595.2557	7790.7	6898
986.2852	2596.5456	7775.45	6880.35
986.4106	2597.8348	7734.3	6841.55
986.536	2599.1234	7691.85	6800.4
986.6614	2600.4112	7680.45	6789.35
986.7867	2601.6983	7640.75	6744.55
986.912	2602.9848	7607.05	6714.1
987.0372	2604.2705	7592.15	6694.4
987.1624	2605.5556	7562.7	6670.05
987.2876	2606.84	7554.05	6661.25
987.4128	2608.1237	7493.5	6600.7
987.5379	2609.4067	7484.05	6591.2
987.6629	2610.689	7464.8	6564.7
987.788	2611.9707	7442.95	6546.1
987.913	2613.2516	7393.1	6496.8
988.0379	2614.5319	7373.05	6478.55
988.1629	2615.8115	7354.8	6462.35
988.2878	2617.0903	7327.85	6435.25
988.4126	2618.3685	7301.45	6409.4
988.5375	2619.6461	7256.9	6363.95
988.6622	2620.9229	7232.8	6339.9
988.787	2622.199	7223.35	6330.5
988.9117	2623.4745	7207.45	6314.05
989.0364	2624.7493	7193.1	6300.4
989.161	2626.0234	7154.05	6261.4
989.2857	2627.2968	7137.7	6246.1
989.4102	2628.5695	7100.5	6208.45
989.5348	2629.8415	7068.5	6177.15
989.6593	2631.1128	7055.9	6163.05
989.7837	2632.3835	7021.4	6129.5
989.9082	2633.6535	6999.3	6107.6
990.0326	2634.9228	6950	6057.7
990.1569	2636.1914	6927.15	6036.4
990.2812	2637.4593	6917.35	6019.75
990.4055	2638.7265	6913.6	6021.25
990.5298	2639.9931	6867.8	5974.55
990.654	2641.259	6847.05	5953
990.7782	2642.5242	6842.75	5950.55
990.9023	2643.7887	6824.35	5930.55
991.0264	2645.0525	6785.9	5893.9
991.1505	2646.3156	6759.65	5863.95
991.2745	2647.5781	6733.9	5842.65
991.3985	2648.8398	6698.3	5807.2
991.5225	2650.1009	6703.05	5801.65
991.6464	2651.3613	6670.75	5775.95
991.7703	2652.6211	6661.3	5769.4
991.8942	2653.8801	6638.05	5746.6
992.018	2655.1385	6604.45	5709.35
992.1418	2656.3961	6589.55	5696.7
992.2655	2657.6531	6597.25	5705.65
992.3892	2658.9094	6568.25	5677.1
992.5129	2660.1651	6540.45	5648.75
992.6366	2661.42	6529	5636.6
992.7602	2662.6743	6543.75	5650.3
992.8837	2663.9279	6526	5634.95
993.0073	2665.1808	6490.2	5599.1
993.1307	2666.433	6470.1	5576.35
993.2542	2667.6846	6436.2	5543.1
993.3776	2668.9354	6434.85	5540.05
993.501	2670.1856	6400.1	5507.3
993.6244	2671.4351	6390.15	5497.15
993.7477	2672.6839	6380.4	5487.05
993.8709	2673.9321	6354.85	5465.5
993.9942	2675.1795	6345.55	5452.9
994.1174	2676.4263	6342.3	5449.25
994.2405	2677.6724	6315.2	5423.65
994.3637	2678.9179	6300.25	5406.75
994.4868	2680.1626	6271.9	5379.1
994.6098	2681.4067	6266.75	5374.6
994.7328	2682.6501	6244.5	5351.75
994.8558	2683.8928	6213.2	5321.15
994.9788	2685.1348	6189	5296.7
995.1017	2686.3761	6159.8	5269.05
995.2245	2687.6168	6153.8	5261.65
995.3474	2688.8568	6130.3	5236.4
995.4702	2690.0961	6100.3	5210.8
995.5929	2691.3348	6090.85	5198.1
995.7156	2692.5727	6077.4	5184.85
995.8383	2693.81	6041.1	5150.55
995.961	2695.0466	6037.05	5146.15
996.0836	2696.2826	6016.1	5122.45
996.2062	2697.5178	5999.3	5103.65
996.3287	2698.7524	5979.5	5088.4
996.4512	2699.9863	5969.5	5074.85
996.5737	2701.2195	5936.05	5044.2
996.6961	2702.452	5924.95	5032.25
996.8185	2703.6839	5900.8	5009.45
996.9408	2704.9151	5907.95	5015.6
997.0631	2706.1456	5854.8	4962.95
997.1854	2707.3755	5865.7	4972.7
997.3077	2708.6046	5858.85	4963.2
997.4299	2709.8331	5841.05	4946
997.552	2711.0609	5830.1	4938.45
997.6742	2712.2881	5826.45	4933.5
997.7963	2713.5145	5807.45	4912.45
997.9183	2714.7403	5805.9	4915.75
998.0403	2715.9654	5787.9	4895.85
998.1623	2717.1899	5784.85	4881.15
998.2842	2718.4136	5755.05	4863.55
998.4062	2719.6367	5745.15	4852.7
998.528	2720.8591	5746.15	4845.55
998.6498	2722.0809	5744.65	4851.8
998.7716	2723.3019	5710.8	4815.85
998.8934	2724.5223	5728.9	4836
999.0151	2725.7421	5697.05	4802.85
999.1368	2726.9611	5680	4784.55
999.2584	2728.1795	5656.75	4759.3
999.38	2729.3972	5631.7	4739.35
999.5016	2730.6142	5605.35	4701.15
999.6231	2731.8306	5558.05	4664.05
999.7446	2733.0462	5546.65	4652.6
999.8661	2734.2612	5520.3	4624.15
999.9875	2735.4756	5475.65	4581.5
1000.1089	2736.6892	5433.55	4539.55
1000.2302	2737.9022	5392.2	4501.6
1000.3515	2739.1145	5378.95	4486.05
1000.4728	2740.3262	5349.75	4449.9
1000.594	2741.5372	5320.5	4426.2
1000.7152	2742.7475	5300.75	4407.25
1000.8363	2743.9571	5290.5	4397.5
1000.9575	2745.1661	5258.15	4361.35
1001.0785	2746.3744	5225.8	4333.8
1001.1996	2747.582	5194.05	4302.55
1001.3206	2748.7889	5187.55	4296.9
1001.4415	2749.9952	5153.25	4262.85
1001.5625	2751.2008	5123.35	4230.5
1001.6833	2752.4057	5118.3	4222.5
1001.8042	2753.61	5102.55	4209.75
1001.925	2754.8136	5091.9	4196.75
1002.0458	2756.0165	5070.15	4177.1
1002.1665	2757.2188	5045.15	4152.95
1002.2872	2758.4204	5046.05	4153.45
1002.4078	2759.6213	5015.65	4121.35
1002.5285	2760.8215	5012.35	4116.75
1002.649	2762.0211	4990.85	4097.4
1002.7696	2763.22	4969.45	4074.2
1002.8901	2764.4182	4955.3	4062.1
1003.0106	2765.6158	4931.8	4041.2
1003.131	2766.8127	4912.2	4017.85
1003.2514	2768.009	4898.05	4005.4
1003.3717	2769.2045	4893.7	4002.05
1003.492	2770.3994	4880.15	3987.2
1003.6123	2771.5936	4879.2	3986.25
1003.7325	2772.7872	4848.85	3958.4
1003.8527	2773.9801	4801.8	3906.8
1003.9729	2775.1723	4808.45	3899.75
1004.093	2776.3639	4793	3900.95
1004.2131	2777.5548	4792.45	3898.8
1004.3331	2778.745	4784.85	3888.1
1004.4531	2779.9346	4752.85	3860.45
1004.5731	2781.1235	4735.85	3842.8
1004.693	2782.3117	4747.45	3856.1
1004.8129	2783.4992	4714.1	3822
1004.9328	2784.6861	4704.5	3813.6
1005.0526	2785.8723	4706.3	3811.9
1005.1723	2787.0579	4685.65	3792.8
1005.2921	2788.2428	4683.35	3790.4
1005.4118	2789.427	4675.35	3783.1
1005.5314	2790.6106	4671.65	3778.55
1005.651	2791.7935	4664.85	3772.4
1005.7706	2792.9757	4652.55	3762.65
1005.8902	2794.1573	4648.55	3753.05
1006.0097	2795.3382	4639.15	3745.75
1006.1291	2796.5184	4647.5	3756.55
1006.2485	2797.698	4668.35	3775.2
1006.3679	2798.8769	4657.4	3765.25
1006.4873	2800.0551	4663.05	3771.7
1006.6066	2801.2327	4645.95	3751
1006.7258	2802.4096	4648.4	3754.65
1006.8451	2803.5859	4669.45	3777.9
1006.9642	2804.7615	4660.25	3766.5
1007.0834	2805.9364	4680	3788.25
1007.2025	2807.1106	4695.1	3803.3
1007.3216	2808.2842	4712.55	3820.65
1007.4406	2809.4572	4728	3835.85
1007.5596	2810.6294	4754.05	3862.5
1007.6785	2811.801	4780.1	3888.25
1007.7975	2812.972	4810.15	3919.45
1007.9163	2814.1423	4845.25	3952.65
1008.0352	2815.3119	4872.8	3981.55
1008.154	2816.4808	4910.75	4019.3
1008.2727	2817.6491	4942.6	4048.9
1008.3914	2818.8167	4993.85	4103.55
1008.5101	2819.9837	5041.75	4144.9
1008.6288	2821.15	5073.9	4181.9
1008.7474	2822.3157	5087.6	4197.05
1008.8659	2823.4807	5158.2	4266.5
1008.9844	2824.645	5161.3	4269.8
1009.1029	2825.8086	5199.6	4308.7
1009.2214	2826.9716	5219.65	4327.45
1009.3398	2828.134	5263.7	4372.85
1009.4581	2829.2957	5289	4396.1
1009.5764	2830.4567	5295.55	4404.95
1009.6947	2831.617	5305.25	4412.95
1009.813	2832.7767	5326.25	4435.4
1009.9312	2833.9358	5302.9	4412.2
1010.0493	2835.0941	5282.75	4389.1
1010.1675	2836.2519	5259.8	4369.5
1010.2855	2837.4089	5255	4362.05
1010.4036	2838.5653	5250.55	4360.05
1010.5216	2839.7211	5222.45	4331.4
1010.6396	2840.8761	5232.9	4339.3
1010.7575	2842.0306	5241.1	4350.95
1010.8754	2843.1843	5271.65	4380.65
1010.9932	2844.3374	5308.25	4417.4
1011.111	2845.4899	5348.4	4455.05
1011.2288	2846.6417	5430.15	4539.55
1011.3465	2847.7928	5500.45	4608.7
1011.4642	2848.9433	5576.4	4685.75
1011.5818	2850.0931	5633.1	4742.95
1011.6995	2851.2422	5712.7	4821.85
1011.817	2852.3907	5784.6	4892.4
1011.9345	2853.5385	5830.35	4936
1012.052	2854.6857	5882.25	4964
1012.1695	2855.8323	5908.95	5018.35
1012.2869	2856.9781	5960.25	5068.75
1012.4042	2858.1233	6003.8	5111.35
1012.5216	2859.2679	6025.8	5133.6
1012.6389	2860.4118	6031.75	5142.75
1012.7561	2861.555	6092.6	5196.5
1012.8733	2862.6976	6097.9	5202.75
1012.9905	2863.8395	6137.95	5245.3
1013.1076	2864.9808	6155.7	5262.85
1013.2247	2866.1214	6137.5	5246.6
1013.3417	2867.2614	6135.55	5242.4
1013.4587	2868.4007	6141.4	5249
1013.5757	2869.5393	6135.55	5242.6
1013.6926	2870.6773	6149.95	5256.6
1013.8095	2871.8146	6138.3	5245.45
1013.9263	2872.9513	6122.95	5227.6
1014.0431	2874.0874	6110.75	5219.2
1014.1599	2875.2227	6104.6	5213.1
1014.2766	2876.3574	6048.25	5156
1014.3933	2877.4915	6040.5	5148.85
1014.51	2878.6249	5976.6	5084.65
1014.6266	2879.7577	5963.7	5071.75
1014.7431	2880.8898	5936.4	5034.1
1014.8596	2882.0212	5906.45	5016.1
1014.9761	2883.152	5883.85	4991.9
1015.0925	2884.2821	5859.6	4969.85
1015.2089	2885.4116	5839.1	4948.55
1015.3253	2886.5405	5825.7	4932.85
1015.4416	2887.6686	5824.4	4928
1015.5579	2888.7962	5816.45	4924.85
1015.6741	2889.923	5813.9	4922.45
1015.7903	2891.0493	5817	4927
1015.9065	2892.1748	5812.45	4923
1016.0226	2893.2997	5801.6	4911.3
1016.1387	2894.424	5821.8	4930.65
1016.2547	2895.5476	5825.3	4934.05
1016.3707	2896.6706	5828.65	4936.9
1016.4866	2897.7929	5868.1	4976.55
1016.6025	2898.9145	5875.25	4983.85
1016.7184	2900.0355	5900.9	5007.05
1016.8342	2901.1559	5913.75	5021
1016.95	2902.2756	5945.05	5053.75
1017.0658	2903.3946	5963.9	5073.85
1017.1815	2904.513	5975.05	5080.3
1017.2971	2905.6308	5993.35	5100.75
1017.4127	2906.7479	6000.2	5109.4
1017.5283	2907.8643	6038.2	5146.9
1017.6439	2908.9801	6030.75	5141.15
1017.7594	2910.0953	6013.95	5122.65
1017.8748	2911.2098	6012.25	5118.35
1017.9902	2912.3236	5987.65	5088.5
1018.1056	2913.4368	5971.25	5075.8
1018.2209	2914.5494	5935.7	5043.85
1018.3362	2915.6613	5913	5016.65
1018.4515	2916.7725	5885.65	4992.45
1018.5667	2917.8831	5836.1	4944.05
1018.6819	2918.9931	5808.75	4913.45
1018.797	2920.1024	5760.5	4867.55
1018.9121	2921.211	5747.75	4859.7
1019.0271	2922.319	5717.55	4826.7
1019.1421	2923.4264	5691	4802.3
1019.2571	2924.5331	5659.8	4768.3
1019.372	2925.6391	5644.55	4753.05
1019.4869	2926.7445	5612.2	4722.75
1019.6017	2927.8493	5618.25	4726.55
1019.7165	2928.9534	5605.6	4713.45
1019.8313	2930.0569	5569.55	4676.4
1019.946	2931.1597	5557.1	4665.05
1020.0606	2932.2619	5549.3	4659.3
1020.1753	2933.3634	5527.8	4638.4
1020.2899	2934.4643	5534.15	4636.65
1020.4044	2935.5645	5490.4	4592.35
1020.5189	2936.6641	5447.15	4552.45
1020.6334	2937.763	5377.2	4487.1
1020.7478	2938.8613	5331.15	4439.05
1020.8622	2939.959	5262.7	4367.35
1020.9765	2941.056	5189.8	4299.8
1021.0908	2942.1523	5111.95	4219.1
1021.2051	2943.248	4996	4105
1021.3193	2944.3431	4890.75	3999.4
1021.4334	2945.4375	4782.2	3891.55
1021.5476	2946.5313	4672.35	3782.25
1021.6617	2947.6244	4551.1	3658.8
1021.7757	2948.7169	4462.45	3570
1021.8897	2949.8087	4337.9	3448.6
1022.0037	2950.8999	4243.5	3350.9
1022.1176	2951.9904	4164.8	3273.3
1022.2315	2953.0803	4084	3192.3
1022.3453	2954.1696	4009.45	3117.25
1022.4591	2955.2582	3947.35	3055.65
1022.5728	2956.3462	3894.3	3002.05
1022.6865	2957.4335	3836.3	2945.25
1022.8002	2958.5202	3802	2908.6
1022.9138	2959.6062	3767.5	2876.65
1023.0274	2960.6916	3733.55	2844.15
1023.141	2961.7764	3704.7	2812.35
1023.2545	2962.8605	3683.9	2792.75
1023.3679	2963.9439	3663.7	2771.55
1023.4813	2965.0267	3637.5	2745
1023.5947	2966.1089	3663.35	2749.75
1023.708	2967.1905	3616.65	2726.05
1023.8213	2968.2714	3613.75	2723.8
1023.9346	2969.3516	3595.2	2702.9
1024.0478	2970.4312	3588.6	2691.2
1024.1609	2971.5102	3568.35	2678.2
1024.274	2972.5885	3577.15	2686.8
1024.3871	2973.6662	3564.3	2668.9
1024.5002	2974.7432	3559.15	2666.7
1024.6132	2975.8196	3544.4	2653.45
1024.7261	2976.8954	3526.15	2635.05
1024.839	2977.9705	3502.65	2612.7
1024.9519	2979.045	3482	2592.8
1025.0647	2980.1188	3458.8	2569.15
1025.1775	2981.192	3440.8	2550.15
1025.2902	2982.2645	3406.5	2511.95
1025.4029	2983.3364	3381.8	2489.2
1025.5156	2984.4077	3339.05	2448.85
1025.6282	2985.4783	3308.95	2412.7
1025.7407	2986.5483	3274.85	2386.4
1025.8532	2987.6177	3232.25	2344.3
1025.9657	2988.6864	3194.3	2303.7
1026.0782	2989.7545	3157.6	2266.7
1026.1906	2990.8219	3115.6	2225.2
1026.3029	2991.8887	3071.45	2179.4
1026.4152	2992.9548	3042.05	2150.9
1026.5275	2994.0204	2998.95	2109.95
1026.6397	2995.0852	2976.75	2086.45
1026.7519	2996.1495	2938.45	2046.65
1026.864	2997.2131	2914.65	2024.1
1026.9761	2998.276	2878.6	1988.55
1027.0882	2999.3383	2855.75	1963.75
1027.2002	3000.4	2842.5	1951.4
1027.3122	3001.4611	2810.5	1918.1
1027.4241	3002.5215	2802.65	1912.2
1027.536	3003.5812	2765.1	1873.85
1027.6478	3004.6404	2753	1861.55
1027.7596	3005.6989	2729.95	1836.65
1027.8714	3006.7567	2724.7	1833.9
1027.9831	3007.8139	2740.1	1826.2
1028.0947	3008.8705	2697.65	1807.1
1028.2064	3009.9264	2693.55	1800.3
1028.3179	3010.9818	2676	1783.95
1028.4295	3012.0364	2675.45	1784.4
1028.541	3013.0905	2662.75	1772.3
1028.6524	3014.1439	2664.65	1774.65
1028.7638	3015.1966	2654.85	1765.2
1028.8752	3016.2487	2644.1	1755.05
1028.9865	3017.3002	2629.2	1735.5
1029.0978	3018.3511	2624.45	1734.4
1029.209	3019.4013	2633	1744.35
1029.3202	3020.4509	2616.15	1726.05
1029.4314	3021.4998	2614.8	1724.35
1029.5425	3022.5481	2612	1720.95
1029.6535	3023.5958	2605.8	1715.35
1029.7645	3024.6428	2603.3	1711.9
1029.8755	3025.6892	2600.85	1709.5
1029.9864	3026.735	2592.75	1703.15
1030.0973	3027.7802	2599.25	1707.95
1030.2082	3028.8247	2590.25	1700.4
1030.319	3029.8685	2593.85	1704.3
1030.4297	3030.9118	2577.9	1687.15
1030.5404	3031.9544	2583.5	1693.05
1030.6511	3032.9963	2572.6	1681.9
1030.7617	3034.0376	2583.4	1693.45
1030.8723	3035.0783	2575.4	1682.05
1030.9829	3036.1184	2576.45	1685.35
1031.0934	3037.1578	2569.5	1680.95
1031.2038	3038.1966	2574.25	1683.2
1031.3142	3039.2348	2569.5	1680.6
1031.4246	3040.2723	2558.3	1660.6
1031.5349	3041.3092	2553.55	1663.45
1031.6452	3042.3455	2538.3	1649.5
1031.7554	3043.3811	2537.3	1644.95
1031.8656	3044.4161	2522.85	1631.85
1031.9758	3045.4505	2513.3	1621.6
1032.0859	3046.4842	2503.9	1610.9
1032.1959	3047.5173	2495.55	1606.35
1032.3059	3048.5498	2486.6	1595.95
1032.4159	3049.5816	2467.65	1577.2
1032.5258	3050.6128	2470.05	1578.4
1032.6357	3051.6434	2433.75	1541.45
1032.7455	3052.6734	2447.8	1555.4
1032.8553	3053.7027	2435.85	1545.45
1032.9651	3054.7314	2429.45	1539.15
1033.0748	3055.7594	2404.6	1513.2
1033.1845	3056.7868	2407.55	1515.85
1033.2941	3057.8136	2394.3	1504.15
1033.4037	3058.8398	2377.85	1486.4
1033.5132	3059.8653	2362.45	1472.4
1033.6227	3060.8902	2352.2	1462.35
1033.7321	3061.9145	2361.95	1471.15
1033.8415	3062.9381	2337.85	1448.5
1033.9509	3063.9612	2336.95	1429.95
1034.0602	3064.9835	2311.95	1418.65
1034.1694	3066.0053	2311.7	1417.2
1034.2787	3067.0264	2288.25	1397.5
1034.3878	3068.0469	2290.8	1401.6
1034.497	3069.0668	2276.95	1385.1
1034.6061	3070.086	2264.4	1374.55
1034.7151	3071.1046	2250.05	1361.2
1034.8241	3072.1226	2230.25	1337.8
1034.9331	3073.1399	2221.3	1329.95
1035.042	3074.1567	2211.65	1320.55
1035.1508	3075.1727	2195.85	1303.75
1035.2597	3076.1882	2188.9	1297
1035.3684	3077.203	2182.45	1291.85
1035.4772	3078.2173	2166.7	1274.75
1035.5859	3079.2308	2144.8	1251.25
1035.6945	3080.2438	2140.75	1246.8
1035.8031	3081.2561	2109.65	1219.4
1035.9117	3082.2678	2117.75	1228.7
1036.0202	3083.2789	2103.2	1212.65
1036.1286	3084.2893	2094.55	1202.75
1036.2371	3085.2991	2075.85	1183.25
1036.3454	3086.3083	2075.25	1179.55
1036.4538	3087.3169	2065.3	1172.45
1036.562	3088.3248	2055.9	1162.75
1036.6703	3089.3321	2051.55	1159.05
1036.7785	3090.3388	2037.7	1147.9
1036.8866	3091.3449	2029.25	1138.95
1036.9948	3092.3503	2027.7	1134.7
1037.1028	3093.3551	2010.05	1120.95
1037.2108	3094.3593	2003.6	1113.75
1037.3188	3095.3629	1990.4	1101.45
1037.4267	3096.3658	1989.5	1098.5
1037.5346	3097.3681	1977.75	1088.9
1037.6425	3098.3698	1980.75	1088.75
1037.7503	3099.3708	1974.85	1076.8
1037.858	3100.3713	1950.95	1060.95
1037.9657	3101.3711	1946.45	1055.05
1038.0734	3102.3702	2068.3	1043.4
1038.181	3103.3688	1953.45	1060
1038.2886	3104.3667	1940.8	1051
1038.3961	3105.364	1929.35	1040.4
1038.5036	3106.3607	1920.35	1026.7
1038.611	3107.3568	1912.5	1020.9
1038.7184	3108.3522	1912.05	1022.15
1038.8257	3109.347	1898.9	1007
1038.933	3110.3412	1893.05	998.3
1039.0403	3111.3348	1883.5	992.1
1039.1475	3112.3277	1885.35	995.6
1039.2547	3113.32	1882.25	994.3
1039.3618	3114.3117	1876.1	986.55
1039.4689	3115.3028	1865.7	977.45
1039.5759	3116.2932	1863.65	971.45
1039.6829	3117.2831	1853.9	957.05
1039.7898	3118.2723	1841.3	949.1
1039.8967	3119.2608	1848.35	956.95
1040.0035	3120.2488	1839.35	949.05
1040.1103	3121.2361	1836.95	946.8
1040.2171	3122.2229	1827.7	938.8
1040.3238	3123.209	1825.65	935.65
1040.4305	3124.1944	1814.25	925.85
1040.5371	3125.1793	1815.75	926.2
1040.6437	3126.1635	1807.75	916.9
1040.7502	3127.1471	1802.75	914.25
1040.8567	3128.1301	1799.5	909.95
1040.9631	3129.1125	1790.45	899.9
1041.0695	3130.0942	1789.75	899.2
1041.1759	3131.0753	1784.05	884.45
1041.2822	3132.0558	1786.85	892
1041.3884	3133.0357	1772.6	880.75
1041.4946	3134.015	1760.65	868.45
1041.6008	3134.9936	1768.65	878.35
1041.7069	3135.9716	1776.4	865.75
1041.813	3136.949	1763.7	873.7
1041.919	3137.9258	1760.15	863.85
1042.025	3138.902	1754	858.05
1042.1309	3139.8775	1750.3	859.2
1042.2368	3140.8524	1743.3	854
1042.3427	3141.8267	1745.15	853.35
1042.4485	3142.8004	1735.85	844.15
1042.5542	3143.7735	1731.45	836
1042.6599	3144.7459	1721.75	829.2
1042.7656	3145.7178	1717.5	827.15
1042.8712	3146.689	1720.85	833.15
1042.9768	3147.6596	1715	823.2
1043.0823	3148.6295	1708.85	819.45
1043.1878	3149.5989	1706.8	817
1043.2932	3150.5676	1688.95	800.05
1043.3986	3151.5357	1691.65	803.25
1043.5039	3152.5032	1686.55	796.45
1043.6092	3153.4701	1689.4	800.6
1043.7145	3154.4364	1681.6	790.2
1043.8197	3155.402	1669.95	780.95
1043.9248	3156.367	1674.45	782.9
1044.03	3157.3315	1699.6	763.45
1044.135	3158.2952	1663.95	773.45
1044.24	3159.2584	1654.75	765.3
1044.345	3160.221	1648.55	757.15
1044.4499	3161.1829	1644.05	754.15
1044.5548	3162.1442	1644.55	752.75
1044.6596	3163.105	1640.45	750.5
1044.7644	3164.065	1632.65	741.75
1044.8692	3165.0245	1635.35	742.9
1044.9739	3165.9834	1622.95	734.5
1045.0785	3166.9416	1620.4	730.65
1045.1831	3167.8993	1610.45	718.3
1045.2877	3168.8563	1615.35	727.2
1045.3922	3169.8127	1605.95	716.8
1045.4966	3170.7684	1603	713.4
1045.6011	3171.7236	1599.55	708.3
1045.7054	3172.6782	1601.75	711.1
1045.8098	3173.6321	1591.05	699.7
1045.914	3174.5854	1599.1	704.9
1046.0183	3175.5381	1590.15	699.45
1046.1224	3176.4902	1584.45	694.75
1046.2266	3177.4417	1569.7	681.2
1046.3307	3178.3926	1565.5	676.3
1046.4347	3179.3428	1570.8	682.6
1046.5387	3180.2924	1567.35	678.4
1046.6427	3181.2415	1560.95	669.35
1046.7466	3182.1899	1552.75	662.35
1046.8504	3183.1377	1551.2	660.85
1046.9542	3184.0848	1553.4	660
1047.058	3185.0314	1549.85	658.4
1047.1617	3185.9773	1545.8	654
1047.2654	3186.9227	1539.95	650.25
1047.369	3187.8674	1538.95	649.25
1047.4726	3188.8115	1539.15	644.85
1047.5761	3189.755	1536.75	647.55
1047.6796	3190.6979	1530.35	641.25
1047.783	3191.6402	1525.45	635.55
1047.8864	3192.5818	1521.2	631.25
1047.9898	3193.5229	1530.9	626.6
1048.0931	3194.4633	1519	629.9
1048.1963	3195.4031	1512.65	621.35
1048.2995	3196.3423	1506.9	616.7
1048.4027	3197.2809	1512.15	622.85
1048.5058	3198.2189	1504.2	614.05
1048.6089	3199.1563	1507.8	611.35
1048.7119	3200.0931	1494.45	605.65
1048.8148	3201.0292	1495.85	607.15
1048.9178	3201.9648	1496.75	607.85
1049.0206	3202.8997	1483.3	590.5
1049.1235	3203.834	1486.4	596
1049.2262	3204.7677	1482.15	593
1049.329	3205.7008	1483.35	592.55
1049.4317	3206.6333	1474.75	584.7
1049.5343	3207.5652	1469.85	578.35
1049.6369	3208.4964	1474.05	582.45
1049.7394	3209.4271	1467.7	579.55
1049.8419	3210.3571	1461.5	572.35
1049.9444	3211.2865	1459.65	569.8
1050.0468	3212.2154	1457.8	567.1
1050.1491	3213.1436	1456.8	563.85
1050.2514	3214.0712	1460.9	564
1050.3537	3214.9982	1453.35	562.7
1050.4559	3215.9246	1438.15	547.8
1050.5581	3216.8503	1449.4	560.65
1050.6602	3217.7755	1448.2	557.4
1050.7623	3218.7001	1438.6	548.15
1050.8643	3219.624	1431	539.75
1050.9663	3220.5473	1429.1	538.75
1051.0682	3221.4701	1428.25	536.1
1051.1701	3222.3922	1426.85	534.9
1051.2719	3223.3137	1423.8	535.3
1051.3737	3224.2346	1424.8	534.6
1051.4754	3225.1549	1413.9	525.25
1051.5771	3226.0746	1413.85	524.25
1051.6788	3226.9937	1412.75	522
1051.7804	3227.9121	1412.5	522.05
1051.8819	3228.83	1408.7	518.9
1051.9834	3229.7473	1400.05	509.35
1052.0849	3230.6639	1399.65	509.35
1052.1863	3231.5799	1392.9	503.45
1052.2876	3232.4954	1397.1	508.6
1052.3889	3233.4102	1388.5	498.7
1052.4902	3234.3244	1387.45	497.75
1052.5914	3235.238	1385.3	497.8
1052.6926	3236.151	1402.05	488.95
1052.7937	3237.0634	1377.85	488.5
1052.8948	3237.9752	1371.25	482
1052.9958	3238.8864	1376.05	485.3
1053.0968	3239.797	1369.45	480.8
1053.1977	3240.7069	1370.45	481.4
1053.2986	3241.6163	1367.4	473.9
1053.3994	3242.5251	1366.5	477.65
1053.5002	3243.4332	1357.25	469.85
1053.6009	3244.3408	1359.2	468.85
1053.7016	3245.2477	1356.8	467.15
1053.8022	3246.154	1357.8	467.95
1053.9028	3247.0598	1349.65	457.35
1054.0034	3247.9649	1347.55	457
1054.1039	3248.8694	1345.9	457.25
1054.2043	3249.7733	1343.65	454.5
1054.3047	3250.6766	1338.45	448.95
1054.4051	3251.5793	1334.95	444.2
1054.5054	3252.4814	1332.35	443.6
1054.6056	3253.3829	1324.2	435.3
1054.7058	3254.2838	1327.2	439.75
1054.806	3255.1841	1331.35	444.05
1054.9061	3256.0838	1320.4	430.4
1055.0061	3256.9829	1317.85	427.9
1055.1062	3257.8814	1308.85	417.2
1055.2061	3258.7792	1312.3	420.4
1055.306	3259.6765	1305.5	415.1
1055.4059	3260.5731	1295.15	405.7
1055.5057	3261.4692	1298.75	409
1055.6055	3262.3647	1296.8	407.1
1055.7052	3263.2595	1286.05	397.5
1055.8049	3264.1538	1284.05	397.15
1055.9045	3265.0474	1276.85	385.35
1056.0041	3265.9404	1269.65	380.05
1056.1036	3266.8329	1254.4	364.05
1056.2031	3267.7247	1262.3	363.65
1056.3025	3268.616	1249.5	359.65
1056.4019	3269.5066	1235.25	345
1056.5013	3270.3966	1227.75	335.95
1056.6005	3271.286	1219.75	330.8
