Software Version:	3.9.2.0
Unit SN:	10000200
Spectrometer SN:	6960
Date:	3/6/2024 10:04:46 AM
Data Line Index:	25
Spectral Points:	2048
Integration time (ms):	125
Averages:	20
Delay (ms):	30
Sequence Number:	1
Processing:	dark subtract
Laser Power (mW):	305
Laser Current (mA):	827
Laser Diode Temp (C):	25
Laser Case Temp (C):	24.8
System Temp (C):	24.6
Spectrometer Temp (C):	22.1
CCD Temp (C):	0.004
Secondary Temp (C):	20.007
Heatsink Temp (C):	18.588
CCDPCB Temp (C):	31.827
SecondaryPCB Temp (C):	25.925

Wavelength	RamanShift	Raw Counts	Dark Subtracted
787.061	30.1047	681	273.45
787.2016	32.3739	691.9	285.95
787.3422	34.6426	711	303.9
787.4828	36.9109	725.7	315.65
787.6235	39.1787	751.2	337.75
787.7642	41.4461	779.95	361.95
787.9049	43.7131	803.65	381.3
788.0456	45.9796	833	409.5
788.1863	48.2456	857.25	428.7
788.3271	50.5112	889.1	458.4
788.4679	52.7764	914.45	479.05
788.6087	55.0411	950.05	511.75
788.7496	57.3054	981.65	538.6
788.8904	59.5692	1011.7	567.15
789.0313	61.8326	1054.75	605.15
789.1722	64.0955	1098.45	648.7
789.3132	66.3579	1148	692.85
789.4541	68.6199	1212.9	754.65
789.5951	70.8815	1320	856.8
789.7361	73.1426	1568.25	1099.25
789.8771	75.4032	2192.75	1720.7
790.0181	77.6634	3767.3	3292.7
790.1592	79.9231	7656.25	7175.8
790.3003	82.1824	16830.2	16340.85
790.4414	84.4412	38410.7	37904.7
790.5825	86.6995	55456.65	54928.95
790.7237	88.9574	60423.55	59878.25
790.8648	91.2148	62673.6	62118.35
791.006	93.4717	63258.5	62693.05
791.1472	95.7282	63577.95	63009.7
791.2885	97.9842	63731.3	63162.15
791.4297	100.2398	63709.75	63137.8
791.571	102.4949	63708	63132.7
791.7123	104.7495	63717.5	63137.3
791.8536	107.0036	63633.35	63052.05
791.9949	109.2573	63825.15	63248.75
792.1363	111.5105	63712.45	63131.25
792.2777	113.7632	63752.15	63166.45
792.4191	116.0154	63830.7	63236.2
792.5605	118.2672	63947.6	63355.1
792.7019	120.5185	63950.1	63360.2
792.8434	122.7693	63967	63372.55
792.9849	125.0197	63785.3	63185.4
793.1264	127.2696	64137.5	63533.9
793.2679	129.519	64062.3	63458.1
793.4094	131.7679	64191.85	63584.9
793.551	134.0163	63898.6	63287.35
793.6926	136.2642	64038.55	63426.75
793.8342	138.5117	64246.95	63627.9
793.9758	140.7587	64160.7	63541.65
794.1175	143.0052	64162.65	63539.5
794.2591	145.2512	63996.75	63373.8
794.4008	147.4967	64227.05	63603.05
794.5425	149.7417	64157.15	63531.5
794.6842	151.9863	64168.3	63538.8
794.826	154.2304	64078.8	63446
794.9677	156.4739	64137.7	63496.15
795.1095	158.717	64301.15	63661.55
795.2513	160.9596	64191.95	63544.2
795.3931	163.2017	64030.25	63383.8
795.535	165.4433	64217.85	63566.55
795.6768	167.6844	64136.9	63486.75
795.8187	169.925	64215.55	63562.9
795.9606	172.1651	64127.1	63469
796.1025	174.4047	64196.4	63538.95
796.2445	176.6439	64210.2	63547.35
796.3864	178.8825	64151.55	63489.8
796.5284	181.1206	64334.45	63662.5
796.6704	183.3582	64277.9	63603.6
796.8124	185.5954	64238.95	63561.75
796.9544	187.832	64274.1	63593.8
797.0965	190.0681	64136.95	63455.35
797.2386	192.3037	64326.35	63640.3
797.3806	194.5388	64537	63848.5
797.5228	196.7734	64050.2	63360.25
797.6649	199.0075	64506.5	63818.3
797.807	201.2411	64327.7	63636.95
797.9492	203.4742	64589.45	63896.05
798.0914	205.7068	64520.4	63820.05
798.2336	207.9389	64507.8	63806.45
798.3758	210.1704	64494.2	63800.1
798.518	212.4015	64654.4	63970.85
798.6603	214.632	64468.55	63790.2
798.8025	216.862	64677.65	63999.6
798.9448	219.0915	64557.5	63879.1
799.0871	221.3205	64544.3	63862.75
799.2294	223.549	64725.65	64051.75
799.3718	225.777	64682.65	64003.9
799.5141	228.0044	64766.05	64078.4
799.6565	230.2314	64707.45	64022.25
799.7989	232.4578	64720.2	64030.3
799.9413	234.6837	64746.1	64048.15
800.0837	236.909	64956.85	64257
800.2262	239.1339	64630.55	63905.25
800.3687	241.3582	64801.3	64091.85
800.5111	243.582	64796.7	64055.5
800.6536	245.8053	64796.9	64072.2
800.7961	248.0281	64810.85	64090.2
800.9387	250.2503	64855.35	64131.15
801.0812	252.472	64738.75	64010.35
801.2238	254.6932	64822.15	64093.7
801.3664	256.9139	64779.75	64051.25
801.509	259.134	64968.1	64233.15
801.6516	261.3536	64780.15	64051.5
801.7942	263.5727	64903.05	64168.95
801.9369	265.7912	64831.55	64100.95
802.0795	268.0092	64849.7	64114.15
802.2222	270.2267	64885.35	64149.45
802.3649	272.4436	64802.45	64066.85
802.5076	274.6601	64900.2	64151.25
802.6504	276.8759	64928.3	64185.4
802.7931	279.0913	64880.25	64136
802.9359	281.3061	64909.55	64167.3
803.0787	283.5204	64896	64148.65
803.2215	285.7341	64892.3	64142.45
803.3643	287.9473	64986.4	64225.15
803.5071	290.16	64910.1	64153.85
803.6499	292.3721	64944.3	64198.5
803.7928	294.5837	64889.35	64138.3
803.9357	296.7947	64829.9	64080.4
804.0786	299.0052	64970.8	64217.55
804.2215	301.2152	64910.55	64156.75
804.3644	303.4246	64976.25	64225.85
804.5074	305.6334	64966.4	64214.45
804.6503	307.8418	64872.25	64117.35
804.7933	310.0495	64888.3	64131.3
804.9363	312.2568	64876.35	64119.15
805.0793	314.4635	64875.05	64115.6
805.2223	316.6696	64918.75	64156.4
805.3653	318.8752	64976.25	64207.05
805.5084	321.0802	64781.85	64018.65
805.6514	323.2847	64859.6	64093.4
805.7945	325.4887	64863.05	64093.6
805.9376	327.692	64832	64064.8
806.0807	329.8949	64874.7	64104.55
806.2238	332.0972	64835.7	64064.5
806.367	334.2989	64880.6	64107.7
806.5101	336.5001	64945.35	64172.4
806.6533	338.7007	64797.95	64022.25
806.7965	340.9008	64869.25	64094.7
806.9397	343.1003	64889.1	64110.95
807.0829	345.2992	64929.9	64152.55
807.2261	347.4976	64842.35	64064.55
807.3693	349.6955	64894.55	64109.3
807.5126	351.8927	64831.9	64048.75
807.6559	354.0895	64908.95	64114.3
807.7991	356.2856	64902.7	64115.1
807.9424	358.4812	64953	64166.2
808.0857	360.6763	64827.85	64038.65
808.2291	362.8707	64943.8	64152.2
808.3724	365.0646	64874.2	64082.05
808.5158	367.258	64880.35	64085.75
808.6591	369.4508	64808.45	64009.4
808.8025	371.643	64917.25	64121.4
808.9459	373.8346	64862.45	64060.5
809.0893	376.0257	64890.95	64089.45
809.2327	378.2162	64858.4	64059.5
809.3762	380.4062	64775.9	63974.95
809.5196	382.5956	64851.3	64048.8
809.6631	384.7844	64850.95	64053.45
809.8066	386.9726	64883.5	64086.15
809.9501	389.1603	64871.4	64077.7
810.0936	391.3474	64811.05	63972.2
810.2371	393.5339	64885.75	64088.95
810.3806	395.7199	64760.3	63966.55
810.5241	397.9052	64790.45	63996.6
810.6677	400.09	64817.2	64018.65
810.8113	402.2743	64890.9	64096.5
810.9548	404.4579	64793.4	63994.4
811.0984	406.641	64802.6	64002.9
811.2421	408.8235	64835.2	64035.5
811.3857	411.0054	64856.55	64052.65
811.5293	413.1868	64860.2	64054.05
811.673	415.3675	64825.25	64014.6
811.8166	417.5477	64825.6	64016.75
811.9603	419.7273	64822.55	64011.85
812.104	421.9064	64802.4	63979
812.2477	424.0848	64825.35	64010.7
812.3914	426.2627	64887.35	64073.5
812.5351	428.4399	64775.95	63959.9
812.6788	430.6166	64682.1	63861.35
812.8226	432.7928	64802.2	63979.9
812.9663	434.9683	64720.95	63900.55
813.1101	437.1432	64725.2	63904.45
813.2539	439.3176	64798.95	63981.75
813.3977	441.4914	64637.65	63819.95
813.5415	443.6645	64670.1	63850.65
813.6853	445.8371	64705.55	63883.6
813.8291	448.0091	64619.5	63795.45
813.973	450.1806	64569.2	63748.35
814.1168	452.3514	64591.05	63769.1
814.2607	454.5216	64509.4	63679.45
814.4046	456.6913	64618.95	63793.55
814.5485	458.8603	64655.55	63831.45
814.6924	461.0288	64498.45	63678.5
814.8363	463.1967	64629.15	63808.15
814.9802	465.3639	64617.2	63793.45
815.1241	467.5306	64368.45	63544.2
815.2681	469.6967	64532.2	63708.05
815.412	471.8622	64595.45	63771.4
815.556	474.0271	64503.25	63680.1
815.7	476.1914	64541.45	63713.15
815.844	478.3551	64533.8	63705.95
815.988	480.5182	64674.2	63846.6
816.132	482.6807	64473	63648.35
816.276	484.8426	64484.4	63660.35
816.4201	487.0039	64642.65	63816.65
816.5641	489.1647	64635.95	63806.2
816.7082	491.3248	64432.25	63600
816.8522	493.4843	64656.8	63830.5
816.9963	495.6432	64665.6	63837.8
817.1404	497.8015	64443.45	63608.4
817.2845	499.9592	64577.75	63739.5
817.4286	502.1163	64566.15	63728.8
817.5727	504.2728	64554.4	63718.85
817.7168	506.4287	64532.6	63701.1
817.861	508.5839	64438.65	63606.85
818.0051	510.7386	64529.65	63695.2
818.1493	512.8927	64529.55	63689.05
818.2935	515.0461	64484.65	63645.5
818.4377	517.199	64600.05	63762.75
818.5818	519.3512	64494.35	63652.35
818.726	521.5029	64503.4	63660.45
818.8703	523.6539	64511.55	63669.85
819.0145	525.8043	64335.7	63496.3
819.1587	527.9541	64485.3	63641.3
819.303	530.1033	64497.35	63654.4
819.4472	532.2519	64425.95	63583.05
819.5915	534.3999	64523.15	63677.45
819.7357	536.5472	64565.45	63722.15
819.88	538.694	64334.5	63493.85
820.0243	540.8401	64460.9	63618.6
820.1686	542.9856	64495.3	63647.15
820.3129	545.1305	64555.2	63705.55
820.4572	547.2748	64431.5	63580.2
820.6016	549.4185	64411.95	63556.6
820.7459	551.5615	64526.15	63675.4
820.8902	553.704	64481.55	63631.05
821.0346	555.8458	64390	63539.4
821.1789	557.987	64431.4	63582.9
821.3233	560.1276	64480.05	63629.05
821.4677	562.2675	64427.55	63578
821.6121	564.4069	64451.2	63596.95
821.7565	566.5456	64504.55	63653.45
821.9009	568.6837	64343.25	63494.4
822.0453	570.8212	64438.2	63587.5
822.1897	572.958	64218.5	63365.85
822.3342	575.0942	64411.75	63564.6
822.4786	577.2299	64274.1	63423.9
822.6231	579.3648	64256.9	63411.7
822.7675	581.4992	64208.1	63366.65
822.912	583.6329	64191.65	63349.25
823.0565	585.766	64171.2	63326.95
823.201	587.8985	64241.4	63395.3
823.3454	590.0304	64018.9	63146.15
823.4899	592.1616	64174.9	63320.6
823.6345	594.2922	64099.55	63241.95
823.779	596.4222	63986.1	63127.15
823.9235	598.5515	64015.8	63155
824.068	600.6802	64078.8	63220.35
824.2126	602.8083	63930.7	63074.45
824.3571	604.9358	63916.2	63056.65
824.5017	607.0626	64071.7	63212.5
824.6462	609.1888	63837.7	62976.05
824.7908	611.3144	63978.75	63118.95
824.9354	613.4393	63896.55	63035.1
825.08	615.5636	63812.4	62950.8
825.2246	617.6873	63912.6	63052.1
825.3692	619.8103	63774.75	62909.95
825.5138	621.9327	63935.15	63070.4
825.6584	624.0544	63932.75	63074.7
825.803	626.1756	63832.05	62971.15
825.9477	628.2961	63848.65	62985.65
826.0923	630.4159	63775.45	62912.1
826.237	632.5351	63769.1	62904.3
826.3816	634.6537	63990.45	63125.45
826.5263	636.7716	63743.5	62874.65
826.6709	638.8889	63788.4	62920.65
826.8156	641.0056	63766.2	62896.95
826.9603	643.1216	63817.15	62949.2
827.105	645.237	63856.25	62988.1
827.2497	647.3518	63712.35	62844.85
827.3944	649.4659	63744.6	62882.95
827.5391	651.5793	63748.95	62887.1
827.6838	653.6922	63784.85	62921.1
827.8285	655.8043	63595.3	62731.1
827.9733	657.9159	63838.65	62972.55
828.118	660.0268	63414.65	62548.95
828.2627	662.137	63657.2	62788
828.4075	664.2466	63688.65	62813.7
828.5522	666.3556	63603.65	62732.85
828.697	668.4639	63656.25	62786.85
828.8418	670.5716	63545.8	62676.4
828.9865	672.6786	63624.55	62750.55
829.1313	674.785	63509.7	62635
829.2761	676.8907	63527.25	62655.3
829.4209	678.9958	63565.4	62697.4
829.5657	681.1002	63579.95	62706.85
829.7105	683.204	63431.7	62553.55
829.8553	685.3072	63374.6	62500.2
830.0001	687.4097	63445.7	62572.8
830.1449	689.5115	63410.7	62536.25
830.2898	691.6127	63530.25	62657.85
830.4346	693.7132	63353.65	62480.8
830.5794	695.8131	63401.45	62507.3
830.7243	697.9123	63434.5	62559.75
830.8691	700.0109	63449.15	62572.4
831.014	702.1089	63255.2	62377.95
831.1588	704.2061	63324.8	62450.6
831.3037	706.3028	63328.4	62452.65
831.4486	708.3987	63340.15	62463.9
831.5935	710.4941	63274.05	62399.95
831.7383	712.5887	63367.6	62491.25
831.8832	714.6827	63253.2	62371.55
832.0281	716.7761	63341.55	62466.3
832.173	718.8688	63350.65	62473.65
832.3179	720.9608	63230.6	62349.5
832.4628	723.0522	63250.45	62367.3
832.6077	725.1429	63119.85	62240.9
832.7527	727.233	63428.95	62549.05
832.8976	729.3224	63013.3	62132.45
833.0425	731.4112	63132.6	62250.95
833.1874	733.4993	63145.85	62260.2
833.3324	735.5867	63153.85	62271.4
833.4773	737.6735	63056.2	62170.95
833.6222	739.7596	62963.95	62082.7
833.7672	741.845	62973.35	62093
833.9122	743.9298	63092.85	62208.6
834.0571	746.014	62932.5	62051.3
834.2021	748.0974	62843.25	61957.1
834.347	750.1802	62998.95	62113.35
834.492	752.2624	62762.45	61878.7
834.637	754.3439	62782.2	61893.15
834.782	756.4247	62834.4	61938.5
834.9269	758.5048	62698.45	61813.35
835.0719	760.5843	62751.95	61868.75
835.2169	762.6631	62757.45	61871
835.3619	764.7413	62700.05	61815.55
835.5069	766.8188	62716.5	61829.4
835.6519	768.8956	62732.65	61842.1
835.7969	770.9718	62745.65	61861.5
835.9419	773.0473	62674.15	61787.95
836.0869	775.1221	62585.85	61701.25
836.232	777.1962	62550.35	61664.25
836.377	779.2697	62457.6	61569.4
836.522	781.3426	62489.55	61582.9
836.667	783.4147	62518.35	61632.3
836.8121	785.4862	62473.6	61587.85
836.9571	787.557	62404.55	61516.95
837.1021	789.6271	62456.4	61569.75
837.2472	791.6966	62346.05	61457.25
837.3922	793.7654	62271.4	61382.95
837.5373	795.8335	62286.75	61399.4
837.6823	797.901	62263.9	61375.55
837.8274	799.9678	62228.75	61337.4
837.9724	802.0339	62177.4	61288.85
838.1175	804.0993	62186.4	61288.75
838.2626	806.1641	62146.15	61255.45
838.4076	808.2282	62118.2	61228.3
838.5527	810.2916	62124.55	61234
838.6978	812.3544	62136.4	61252.85
838.8428	814.4164	62036.45	61146.95
838.9879	816.4778	62055.15	61161.15
839.133	818.5385	62027	61135.75
839.2781	820.5986	62031.75	61138.85
839.4232	822.658	62050.2	61158.15
839.5682	824.7166	61987.6	61095.4
839.7133	826.7747	61953.4	61061.8
839.8584	828.832	61989.55	61099.25
840.0035	830.8886	61994.4	61099.8
840.1486	832.9446	61991.45	61099.2
840.2937	834.9999	61866.8	60975.8
840.4388	837.0545	61859.85	60961
840.5839	839.1085	61883.05	60989.95
840.729	841.1618	61849.7	60953.1
840.8741	843.2143	61760	60867.8
841.0192	845.2662	61750	60858.65
841.1643	847.3175	61753.4	60859.15
841.3095	849.368	61678.15	60784.95
841.4546	851.4179	61687	60793.45
841.5997	853.467	61615.8	60725.5
841.7448	855.5155	61643.9	60750.25
841.8899	857.5633	61575.4	60683.85
842.0351	859.6105	61542.55	60649.75
842.1802	861.6569	61530.8	60639.4
842.3253	863.7027	61489.25	60593.9
842.4704	865.7478	61509.2	60615.35
842.6156	867.7922	61477.7	60582.3
842.7607	869.8359	61479.7	60585.7
842.9058	871.8789	61416.15	60519.6
843.0509	873.9212	61447	60516.95
843.1961	875.9629	61388.95	60495.05
843.3412	878.0039	61394.85	60496.6
843.4863	880.0441	61342.35	60447.65
843.6315	882.0837	61357	60460.55
843.7766	884.1226	61367.6	60472.45
843.9218	886.1609	61352.8	60460.35
844.0669	888.1984	61326.4	60432.2
844.212	890.2352	61404.5	60507.4
844.3572	892.2714	61299.9	60400.3
844.5023	894.3069	61326.55	60430
844.6475	896.3416	61258.15	60361.7
844.7926	898.3757	61236.6	60340.05
844.9377	900.4091	61203.05	60307.5
845.0829	902.4418	61209.8	60309.75
845.228	904.4739	61131.1	60234.25
845.3732	906.5052	61184.55	60289.9
845.5183	908.5358	61119.7	60222.9
845.6635	910.5658	61098	60198
845.8086	912.595	61040.2	60143.95
845.9538	914.6236	60987.65	60092.55
846.0989	916.6515	61052.9	60152.2
846.2441	918.6786	60947.65	60046.55
846.3892	920.7051	60950.15	60049.6
846.5344	922.7309	60967.75	60070.2
846.6795	924.756	60918.9	60019.3
846.8246	926.7804	60896.05	59994.4
846.9698	928.8041	60764.85	59863
847.1149	930.8272	60812.4	59911.8
847.2601	932.8495	60755.4	59854.5
847.4052	934.8711	60743.2	59840.25
847.5504	936.892	60669.25	59767.75
847.6955	938.9123	60656.65	59756.15
847.8407	940.9318	60623.3	59724.85
847.9858	942.9506	60580.35	59681.2
848.131	944.9688	60559.25	59663.3
848.2761	946.9862	60463.65	59564.25
848.4213	949.003	60451	59552
848.5664	951.019	60344.1	59443.2
848.7115	953.0344	60330.55	59430.05
848.8567	955.0491	60309.05	59409.4
849.0018	957.063	60326.95	59427.35
849.147	959.0763	60352.5	59453
849.2921	961.0888	60259.3	59358.55
849.4373	963.1007	60317.7	59418.2
849.5824	965.1119	60286.95	59388.4
849.7275	967.1223	60216.9	59322.65
849.8727	969.1321	60254.95	59360.8
850.0178	971.1412	60158.15	59262.1
850.1629	973.1495	60085.05	59188.55
850.3081	975.1572	60140.9	59204.05
850.4532	977.1641	60053.15	59153
850.5983	979.1704	60037.2	59137.05
850.7435	981.1759	60024.45	59121.5
850.8886	983.1808	59959.85	59056.2
851.0337	985.1849	59943.6	59034.5
851.1788	987.1884	59920.55	59020.35
851.324	989.1911	59939.45	59034.85
851.4691	991.1932	59774.85	58871.55
851.6142	993.1945	59740.9	58839.4
851.7593	995.1951	59742.8	58841.75
851.9045	997.1951	59653.3	58746.7
852.0496	999.1943	59595.95	58692.4
852.1947	1001.1928	59543.2	58642
852.3398	1003.1906	59516.8	58613.05
852.4849	1005.1877	59402.1	58498.85
852.63	1007.1841	59322	58423.85
852.7751	1009.1798	59325.45	58426.3
852.9202	1011.1748	59289.6	58390.9
853.0653	1013.1691	59279.3	58377.5
853.2104	1015.1627	58989.6	58088.25
853.3555	1017.1556	59048.85	58148.15
853.5006	1019.1477	59052.2	58150.55
853.6457	1021.1392	58910.6	58013.2
853.7908	1023.1299	58748.85	57851.8
853.9359	1025.12	58791.6	57892.15
854.081	1027.1093	58681.45	57790.85
854.2261	1029.0979	58634.15	57743.15
854.3712	1031.0859	58625.85	57734.25
854.5163	1033.0731	58489.5	57591.3
854.6613	1035.0596	58529.2	57633.15
854.8064	1037.0454	58433.1	57534
854.9515	1039.0304	58369.65	57469.85
855.0965	1041.0148	58131.6	57230.55
855.2416	1042.9985	58175.1	57274.75
855.3867	1044.9814	58289.9	57390.95
855.5317	1046.9636	58038.55	57135.75
855.6768	1048.9452	58056.4	57155.85
855.8219	1050.926	57995.55	57095.85
855.9669	1052.9061	57961.85	57061.75
856.112	1054.8855	57961.95	57058.15
856.257	1056.8642	57871.1	56971.4
856.4021	1058.8421	57777.9	56871.6
856.5471	1060.8194	57799.8	56897.3
856.6921	1062.7959	57709.7	56804.8
856.8372	1064.7717	57820.9	56919.7
856.9822	1066.7469	57745.2	56841.2
857.1272	1068.7213	57716.55	56814.4
857.2723	1070.695	57640.95	56740.5
857.4173	1072.6679	57525.45	56621.4
857.5623	1074.6402	57589.75	56684.1
857.7073	1076.6117	57486.2	56578.7
857.8523	1078.5826	57483.75	56577.95
857.9973	1080.5527	57455.55	56549.45
858.1423	1082.5221	57332.25	56430.95
858.2873	1084.4908	57334.8	56434.2
858.4323	1086.4587	57260.7	56357
858.5773	1088.426	57243.85	56340
858.7223	1090.3925	57179.35	56272.6
858.8673	1092.3584	57180.1	56276.85
859.0123	1094.3235	57035.4	56132.85
859.1573	1096.2879	56999.4	56094.45
859.3022	1098.2515	57038.9	56137
859.4472	1100.2145	56974.65	56071.4
859.5922	1102.1767	56892.65	55992.35
859.7371	1104.1382	56954.5	56054.05
859.8821	1106.099	56874.05	55969.45
860.027	1108.0591	56822.5	55920.5
860.172	1110.0185	56672.6	55769.05
860.3169	1111.9771	56802.3	55901.15
860.4619	1113.9351	56700.95	55797.4
860.6068	1115.8923	56613.2	55712.9
860.7517	1117.8488	56475.1	55569.25
860.8967	1119.8045	56350.2	55445.6
861.0416	1121.7596	56399.8	55498.55
861.1865	1123.7139	56322.8	55423.8
861.3314	1125.6675	56313.75	55411.55
861.4763	1127.6204	56285.45	55385.15
861.6212	1129.5726	56112.15	55208.25
861.7661	1131.524	56185	55283.5
861.911	1133.4748	56156.9	55254.1
862.0559	1135.4248	56017.3	55115.5
862.2008	1137.3741	55994.85	55091.45
862.3457	1139.3226	55914.95	55013.1
862.4905	1141.2705	55916.35	55012.75
862.6354	1143.2176	55811.65	54905.3
862.7803	1145.164	55714.35	54810.75
862.9251	1147.1097	55755.75	54853.85
863.07	1149.0546	55723.9	54822.15
863.2148	1150.9989	55737.75	54834.4
863.3597	1152.9424	55554.2	54651.35
863.5045	1154.8852	55666.85	54763.15
863.6493	1156.8272	55497.5	54594.9
863.7942	1158.7686	55651.7	54741.8
863.939	1160.7092	55408.4	54503.1
864.0838	1162.6491	55416.95	54512.35
864.2286	1164.5883	55435.45	54532.35
864.3734	1166.5267	55306.35	54401.2
864.5182	1168.4644	55380.4	54477.9
864.663	1170.4014	55321.45	54415.85
864.8078	1172.3377	55387.5	54486.9
864.9526	1174.2732	55489.65	54587.3
865.0974	1176.2081	55376.3	54476.45
865.2421	1178.1421	55331.7	54426.95
865.3869	1180.0755	55471	54568.95
865.5317	1182.0082	55387.75	54484.7
865.6764	1183.9401	55348.4	54446.55
865.8212	1185.8713	55196.6	54299.7
865.9659	1187.8017	55159.65	54263
866.1106	1189.7315	55094.45	54202.7
866.2554	1191.6605	55013.6	54093.6
866.4001	1193.5888	54811	53912.75
866.5448	1195.5163	54577.3	53679.2
866.6895	1197.4432	54593.15	53689.7
866.8342	1199.3693	54545.7	53645.4
866.9789	1201.2947	54455.85	53549.25
867.1236	1203.2193	54483.95	53581.5
867.2683	1205.1432	54162.25	53261.95
867.413	1207.0664	54138.6	53240.1
867.5576	1208.9889	54086.6	53181.9
867.7023	1210.9106	54070.15	53170.35
867.847	1212.8316	53868.8	52967.25
867.9916	1214.7519	53876.6	52965.65
868.1363	1216.6715	53731	52827.45
868.2809	1218.5903	53709.1	52806.6
868.4255	1220.5084	53604.6	52701
868.5701	1222.4257	53704.65	52803
868.7148	1224.3424	53554.15	52654.8
868.8594	1226.2583	53359.05	52453.5
869.004	1228.1735	53445.1	52543.15
869.1486	1230.0879	53242.2	52339.5
869.2932	1232.0016	53454.2	52555.3
869.4377	1233.9146	53150.2	52249.8
869.5823	1235.8269	53181.85	52280.3
869.7269	1237.7384	53139.8	52238.3
869.8715	1239.6492	53002.85	52102.8
870.016	1241.5592	52835.85	51932.55
870.1606	1243.4686	52939.5	52040.05
870.3051	1245.3772	52739.75	51838.35
870.4496	1247.285	52881.45	51980.15
870.5941	1249.1922	52627.35	51726.1
870.7387	1251.0986	52769.5	51869.9
870.8832	1253.0042	52569.8	51668.45
871.0277	1254.9092	52647.45	51743.45
871.1722	1256.8134	52327.15	51428.85
871.3167	1258.7169	52640.2	51737.05
871.4611	1260.6196	52394.3	51496.15
871.6056	1262.5216	52413.1	51512.4
871.7501	1264.4229	52449.75	51549.7
871.8945	1266.3234	52574.25	51672.75
872.039	1268.2232	52481.6	51579.6
872.1834	1270.1223	52324.15	51421.85
872.3278	1272.0207	52326	51423.25
872.4723	1273.9183	52253.35	51346.3
872.6167	1275.8151	52220.75	51320.65
872.7611	1277.7113	52155.15	51256.45
872.9055	1279.6067	52025.1	51124.8
873.0499	1281.5014	52015.45	51111.7
873.1943	1283.3953	52180	51278.25
873.3386	1285.2885	52136.3	51236.65
873.483	1287.181	52188.45	51287.6
873.6274	1289.0727	52237.05	51339.65
873.7717	1290.9637	51972.05	51066.55
873.9161	1292.854	52335.7	51433.4
874.0604	1294.7435	52169.5	51268.05
874.2047	1296.6323	52190.25	51288.8
874.349	1298.5204	52002.5	51098.05
874.4933	1300.4077	52096.85	51194.2
874.6376	1302.2943	51903.05	51000.75
874.7819	1304.1802	51764	50863.7
874.9262	1306.0653	51651.15	50747.4
875.0705	1307.9497	51508.3	50606.75
875.2147	1309.8333	51512.3	50613
875.359	1311.7162	51353.7	50452.95
875.5032	1313.5984	51282.6	50378.55
875.6475	1315.4798	51117.1	50214.9
875.7917	1317.3605	51111.2	50193.25
875.9359	1319.2405	51125.75	50221.3
876.0801	1321.1197	50786.35	49883.45
876.2243	1322.9982	50805.55	49900.6
876.3685	1324.876	50712.6	49811.35
876.5127	1326.753	50487.3	49584.95
876.6569	1328.6293	50733.5	49829.75
876.801	1330.5048	50505.6	49600.5
876.9452	1332.3796	50282.55	49383.05
877.0893	1334.2537	50239	49309.3
877.2335	1336.127	50341.4	49441.4
877.3776	1337.9996	50142.45	49240.3
877.5217	1339.8714	50260.95	49358.3
877.6658	1341.7426	49883	48937.1
877.8099	1343.6129	50041.9	49138.75
877.954	1345.4826	50038.6	49137
878.0981	1347.3515	49783.9	48876.6
878.2422	1349.2196	49974.4	49073.3
878.3862	1351.087	49858.3	48954.6
878.5303	1352.9537	49853.8	48948
878.6743	1354.8197	49870.5	48967.6
878.8184	1356.6849	49858.15	48955.55
878.9624	1358.5493	49810.55	48909.95
879.1064	1360.4131	49618.45	48717.15
879.2504	1362.276	49874.45	48972.8
879.3944	1364.1383	49508.6	48606.4
879.5384	1365.9998	49377.2	48469.15
879.6823	1367.8606	49332.65	48427.65
879.8263	1369.7206	49104.25	48201.9
879.9702	1371.5799	49029.85	48126.35
880.1142	1373.4384	48812.8	47911
880.2581	1375.2962	48831.65	47929.7
880.402	1377.1533	48447.4	47547.95
880.5459	1379.0096	48222.8	47322.15
880.6898	1380.8652	48154.65	47253.3
880.8337	1382.7201	47988.55	47089.55
880.9776	1384.5742	47876.85	46975.4
881.1215	1386.4275	47505.85	46602.15
881.2653	1388.2802	47525.4	46624.35
881.4092	1390.132	47515.55	46611.3
881.553	1391.9832	47235.25	46331.9
881.6968	1393.8336	47042.05	46140.65
881.8406	1395.6832	47087.9	46184.4
881.9844	1397.5322	46998.95	46098.5
882.1282	1399.3803	46757.55	45856
882.272	1401.2278	46646.75	45742.85
882.4158	1403.0745	46535.9	45632.75
882.5595	1404.9204	46443.1	45544.6
882.7033	1406.7656	46372.1	45471.55
882.847	1408.6101	46098.5	45198
882.9908	1410.4538	46112.15	45208.65
883.1345	1412.2968	46059.1	45157.25
883.2782	1414.139	45797.6	44894.95
883.4219	1415.9805	45905.95	45005.75
883.5656	1417.8213	45663.7	44757.85
883.7092	1419.6613	45764.8	44865.4
883.8529	1421.5006	45600.6	44699.7
883.9965	1423.3391	45585.3	44683.9
884.1402	1425.1769	45545.2	44643
884.2838	1427.0139	45785.85	44882.65
884.4274	1428.8502	45714.35	44809.5
884.571	1430.6858	45846.1	44946
884.7146	1432.5206	46034.95	45134.4
884.8582	1434.3547	45833.95	44931.65
885.0018	1436.188	45676.15	44775.75
885.1453	1438.0206	45736.1	44836.5
885.2889	1439.8524	45640.75	44739.4
885.4324	1441.6835	45434.45	44534.25
885.5759	1443.5139	45418.6	44516
885.7194	1445.3435	45186.55	44285.45
885.8629	1447.1724	45270	44371.25
886.0064	1449.0005	45020.35	44123.25
886.1499	1450.8279	45120.75	44220.1
886.2933	1452.6545	45035.3	44134.5
886.4368	1454.4804	44967.3	44065.2
886.5802	1456.3056	44835.15	43928.7
886.7237	1458.13	44809.1	43909.15
886.8671	1459.9536	44905.25	44006.05
887.0105	1461.7766	44543.35	43646.6
887.1539	1463.5987	44265.55	43363.35
887.2972	1465.4202	44251.05	43351.55
887.4406	1467.2409	44040.35	43139.2
887.584	1469.0608	43730.55	42828.8
887.7273	1470.88	43647.35	42745.05
887.8706	1472.6984	43646.4	42747.45
888.0139	1474.5161	43288.5	42384.75
888.1572	1476.3331	43282.15	42382.05
888.3005	1478.1493	43037.95	42138.65
888.4438	1479.9648	42963.05	42064.35
888.5871	1481.7795	42993.9	42094.6
888.7303	1483.5935	42960.5	42061.8
888.8736	1485.4067	42689.85	41790.6
889.0168	1487.2192	42782.4	41883.15
889.16	1489.031	42575.75	41672.2
889.3032	1490.842	42599.7	41698.05
889.4464	1492.6522	42555.35	41654.1
889.5896	1494.4618	42384.4	41481.75
889.7327	1496.2705	42448.75	41546.85
889.8759	1498.0785	42091.15	41192.2
890.019	1499.8858	42154.25	41256.05
890.1622	1501.6924	42237.1	41338.75
890.3053	1503.4981	41971.45	41072.5
890.4484	1505.3032	41973.8	41073.2
890.5914	1507.1075	41724.1	40825.85
890.7345	1508.911	41781.75	40883.3
890.8776	1510.7138	41721.45	40820.7
891.0206	1512.5159	41722.1	40822.8
891.1637	1514.3172	41252.9	40353.75
891.3067	1516.1178	41271.75	40374.95
891.4497	1517.9176	41353.75	40451.9
891.5927	1519.7166	41146.2	40248.1
891.7357	1521.515	40977.4	40073.75
891.8786	1523.3126	40878	39977.1
892.0216	1525.1094	40888	39987.7
892.1645	1526.9055	40698.6	39802.05
892.3074	1528.7008	40647.05	39747.1
892.4503	1530.4954	40312.35	39411.3
892.5932	1532.2893	40452.75	39555.3
892.7361	1534.0824	40132.2	39229.15
892.879	1535.8747	39953.8	39057.95
893.0218	1537.6663	40217.7	39322.05
893.1647	1539.4572	39581.8	38685.1
893.3075	1541.2473	39761.5	38862.5
893.4503	1543.0367	39638.6	38741.3
893.5931	1544.8253	39470.3	38569.55
893.7359	1546.6132	39504.05	38603.4
893.8787	1548.4003	39303.3	38396.9
894.0214	1550.1867	39246.95	38343.1
894.1642	1551.9723	39176.25	38273.35
894.3069	1553.7572	39185.45	38288.85
894.4496	1555.5414	39202.55	38305.3
894.5923	1557.3247	38900.55	38006.45
894.735	1559.1074	39103	38209.2
894.8777	1560.8893	38921.65	38026.5
895.0204	1562.6705	38879.35	37986
895.163	1564.4509	38767.1	37872.45
895.3056	1566.2305	38690.35	37798.4
895.4482	1568.0094	38949.05	38054.3
895.5908	1569.7876	38781.7	37889.15
895.7334	1571.565	38559.45	37666.55
895.876	1573.3417	38606.5	37713.6
896.0186	1575.1176	38508.8	37614.75
896.1611	1576.8928	38382.7	37491
896.3036	1578.6672	38213.05	37322.85
896.4461	1580.4409	38151.45	37261.85
896.5886	1582.2138	38006.25	37112.35
896.7311	1583.986	37991.1	37096
896.8736	1585.7575	37886.85	36995.95
897.0161	1587.5282	37882.65	36993.5
897.1585	1589.2981	37872.15	36981.7
897.3009	1591.0673	37699	36809.6
897.4433	1592.8358	37681.85	36790.6
897.5857	1594.6035	37712.3	36818.8
897.7281	1596.3704	37619.8	36725.4
897.8705	1598.1366	37482.45	36591.55
898.0128	1599.9021	37336.4	36444.95
898.1551	1601.6668	37375.8	36483.65
898.2975	1603.4308	37291.8	36399.3
898.4398	1605.194	37358	36460.25
898.5821	1606.9564	37116.05	36226.8
898.7243	1608.7182	37228.4	36338.8
898.8666	1610.4791	37198.75	36314.85
899.0088	1612.2394	37248.15	36362.85
899.1511	1613.9988	37264.5	36378.05
899.2933	1615.7576	37339.25	36451.85
899.4355	1617.5156	37350.95	36454.15
899.5776	1619.2728	37463.8	36572.35
899.7198	1621.0293	37196.45	36305.45
899.862	1622.785	37014.15	36120.6
900.0041	1624.54	36890.1	35999.5
900.1462	1626.2942	36653.4	35765.2
900.2883	1628.0477	36275.55	35385.15
900.4304	1629.8005	36117.95	35224.7
900.5725	1631.5525	35925	35037.3
900.7145	1633.3037	35671.5	34781.85
900.8566	1635.0542	35585.6	34696.3
900.9986	1636.804	35419.2	34531.45
901.1406	1638.553	35362.55	34429.9
901.2826	1640.3013	35187	34298.25
901.4245	1642.0488	35028.1	34137.75
901.5665	1643.7955	35064.5	34176.3
901.7085	1645.5416	34976.3	34087.65
901.8504	1647.2868	34909.25	34022.05
901.9923	1649.0313	34919.75	34030.7
902.1342	1650.7751	34872.75	33982.7
902.2761	1652.5181	34822.35	33938.65
902.4179	1654.2604	34756.9	33867.1
902.5598	1656.0019	34822	33934.65
902.7016	1657.7427	34797.4	33910.4
902.8434	1659.4828	34853.35	33967.15
902.9852	1661.222	34823.15	33934.35
903.127	1662.9606	34758.35	33870.1
903.2687	1664.6984	34586.7	33697.35
903.4105	1666.4354	34427.65	33534.8
903.5522	1668.1717	34053.65	33162.2
903.6939	1669.9072	33723.4	32833.75
903.8356	1671.642	33509.05	32613.45
903.9773	1673.3761	33343.25	32455.35
904.119	1675.1094	33103.25	32215.35
904.2606	1676.8419	32889.35	32002.1
904.4022	1678.5737	32701.15	31813.55
904.5439	1680.3048	32553.1	31661.7
904.6855	1682.0351	32372.45	31483.9
904.827	1683.7646	32193.3	31300
904.9686	1685.4934	32134.75	31246.65
905.1101	1687.2215	31930.25	31041.95
905.2517	1688.9488	31850.1	30962.4
905.3932	1690.6754	31627.65	30740.5
905.5347	1692.4012	31592.3	30705.1
905.6761	1694.1263	31498.8	30610
905.8176	1695.8506	31384	30495.7
905.9591	1697.5742	31306.05	30420.15
906.1005	1699.297	31195.8	30311.5
906.2419	1701.0191	30995.35	30108.7
906.3833	1702.7404	30908.1	30021.25
906.5246	1704.461	30730.55	29841.95
906.666	1706.1808	30649.5	29761.2
906.8073	1707.8999	30547.35	29659.1
906.9487	1709.6182	30451.55	29567
907.09	1711.3358	30361.45	29475.55
907.2313	1713.0527	30248.75	29365.3
907.3725	1714.7688	30183.15	29293.1
907.5138	1716.4841	30056.5	29170.05
907.655	1718.1987	30052.6	29161.05
907.7962	1719.9126	29949.9	29064.5
907.9374	1721.6257	29828.75	28940.35
908.0786	1723.338	29791.4	28905.75
908.2198	1725.0496	29618.05	28731.15
908.3609	1726.7605	29546.6	28660.35
908.502	1728.4706	29470.8	28583.6
908.6431	1730.18	29369.8	28483.55
908.7842	1731.8886	29274.2	28389.55
908.9253	1733.5964	29202.3	28311.7
909.0664	1735.3036	29145.45	28258.5
909.2074	1737.0099	29055.15	28170.8
909.3484	1738.7156	28991.5	28107.05
909.4894	1740.4204	28869.45	27982.85
909.6304	1742.1246	28864.7	27977
909.7714	1743.8279	28779.6	27894.05
909.9123	1745.5306	28716.95	27830.45
910.0532	1747.2325	28631.75	27746.1
910.1941	1748.9336	28560.55	27675
910.335	1750.634	28454.55	27568.65
910.4759	1752.3336	28436.85	27549.4
910.6168	1754.0325	28357.75	27472.2
910.7576	1755.7307	28269.65	27384.05
910.8984	1757.4281	28292.55	27407.1
911.0392	1759.1247	28250.95	27355.45
911.18	1760.8206	28149.75	27257.95
911.3208	1762.5158	28071.35	27179.6
911.4615	1764.2102	27988.95	27103.25
911.6022	1765.9039	27845.25	26959.75
911.7429	1767.5968	27852.2	26967.45
911.8836	1769.289	27783.5	26900
912.0243	1770.9804	27706.95	26820.6
912.1649	1772.6711	27691.1	26803.35
912.3056	1774.361	27576.75	26688.55
912.4462	1776.0502	27531.75	26643.85
912.5868	1777.7386	27488.05	26601.35
912.7274	1779.4263	27379.95	26495.8
912.8679	1781.1132	27371.35	26484.8
913.0084	1782.7994	27276.85	26390.9
913.149	1784.4849	27198.05	26313.5
913.2895	1786.1696	27134.5	26231.65
913.4299	1787.8535	27062.25	26179.55
913.5704	1789.5367	27024.3	26139.95
913.7108	1791.2192	26992.15	26108.1
913.8513	1792.9009	26889.05	25975.2
913.9917	1794.5818	26849.8	25962.35
914.132	1796.2621	26753.35	25866.9
914.2724	1797.9415	26655.6	25769.6
914.4128	1799.6202	26611.05	25724.7
914.5531	1801.2982	26578.7	25693
914.6934	1802.9755	26531.6	25645.15
914.8337	1804.6519	26496.55	25609.85
914.9739	1806.3277	26309.4	25423.05
915.1142	1808.0027	26233.6	25348.8
915.2544	1809.6769	26233.45	25347.65
915.3946	1811.3504	26178.1	25293.65
915.5348	1813.0231	26101.5	25216.2
915.675	1814.6951	26042.15	25158.7
915.8151	1816.3664	26046.5	25159.75
915.9553	1818.0369	25988.4	25101.2
916.0954	1819.7067	25866.45	24982.75
916.2355	1821.3757	25858.1	24970
916.3755	1823.044	25809.85	24922.65
916.5156	1824.7115	25750.7	24865.5
916.6556	1826.3783	25619.45	24734.15
916.7956	1828.0443	25571.4	24688.5
916.9356	1829.7096	25568.05	24681.05
917.0756	1831.3741	25496.65	24608.25
917.2155	1833.0379	25420.35	24538.85
917.3555	1834.701	25326.7	24439.25
917.4954	1836.3633	25333.45	24450.35
917.6353	1838.0248	25230.7	24343.15
917.7751	1839.6856	25224.9	24339.65
917.915	1841.3457	25177.5	24293.45
918.0548	1843.005	25101.9	24217.95
918.1946	1844.6636	25095.75	24212
918.3344	1846.3214	24969.95	24084.15
918.4742	1847.9785	25023.45	24140.55
918.6139	1849.6349	24959.2	24074
918.7537	1851.2904	24890	23994.85
918.8934	1852.9453	24819.1	23933.05
919.0331	1854.5994	24722.65	23834.4
919.1727	1856.2528	24750	23857.4
919.3124	1857.9054	24634.4	23747.85
919.452	1859.5572	24656.3	23771.9
919.5916	1861.2083	24592.9	23708.8
919.7312	1862.8587	24586.85	23703.55
919.8708	1864.5084	24515.45	23628.95
920.0103	1866.1572	24449.8	23564.9
920.1498	1867.8054	24349.2	23462.25
920.2893	1869.4528	24328.05	23440.85
920.4288	1871.0994	24258.5	23371.75
920.5683	1872.7453	24198.65	23313.2
920.7077	1874.3905	24163.15	23270.85
920.8471	1876.0349	24095.75	23208.35
920.9865	1877.6786	24074.45	23188.55
921.1259	1879.3215	24012.5	23125.45
921.2653	1880.9637	23969.9	23086.25
921.4046	1882.6051	23956.85	23071.65
921.5439	1884.2458	23861.35	22976.7
921.6832	1885.8858	23741.85	22856.2
921.8225	1887.525	23738.7	22853.35
921.9617	1889.1634	23595.9	22710.5
922.101	1890.8011	23567.55	22682.85
922.2402	1892.4381	23522.95	22636.7
922.3794	1894.0743	23487.25	22602.2
922.5185	1895.7098	23399.9	22514.35
922.6577	1897.3446	23379.35	22492.3
922.7968	1898.9786	23289.15	22399.05
922.9359	1900.6118	23269.1	22383.95
923.075	1902.2443	23171.85	22284.4
923.214	1903.8761	23128.15	22243.2
923.3531	1905.5071	23014.85	22128.25
923.4921	1907.1374	22903.55	22019.55
923.6311	1908.7669	22864.5	21981.55
923.77	1910.3957	22834.45	21950.5
923.909	1912.0237	22752.7	21865.8
924.0479	1913.651	22703.3	21816.45
924.1868	1915.2776	22677.95	21794.35
924.3257	1916.9034	22548.25	21664.75
924.4646	1918.5285	22491.4	21607.9
924.6034	1920.1528	22344	21457.95
924.7422	1921.7764	22336.4	21449.8
924.881	1923.3992	22263.75	21381.6
925.0198	1925.0213	22098.7	21212.35
925.1586	1926.6427	22043.75	21158.5
925.2973	1928.2633	22185.9	21049.5
925.436	1929.8832	21977.8	21089.95
925.5747	1931.5023	21830.85	20946.9
925.7134	1933.1207	21824	20938
925.852	1934.7383	21760.3	20873.75
925.9906	1936.3552	21693.2	20811.65
926.1292	1937.9714	21645.2	20761.05
926.2678	1939.5868	21540.6	20654.05
926.4064	1941.2015	21424.85	20540.25
926.5449	1942.8154	21382.7	20496.95
926.6834	1944.4286	21265.8	20381.15
926.8219	1946.041	21213.6	20305.9
926.9604	1947.6528	21119.7	20232
927.0988	1949.2637	21079.55	20196.7
927.2372	1950.8739	21012.65	20125.95
927.3756	1952.4834	20951.6	20065.55
927.514	1954.0921	20949.85	20066.6
927.6523	1955.7001	20842.35	19955.1
927.7907	1957.3074	20785.15	19904.05
927.929	1958.9139	20695	19812.6
928.0673	1960.5197	20619.55	19734.45
928.2055	1962.1247	20553.05	19670.2
928.3438	1963.729	20483.4	19603.6
928.482	1965.3325	20410.4	19504.15
928.6202	1966.9353	20352.75	19468.75
928.7584	1968.5374	20288.4	19405.35
928.8965	1970.1387	20227.75	19343.25
929.0346	1971.7393	20162.55	19279.55
929.1727	1973.3392	20077.95	19192.95
929.3108	1974.9383	20008.5	19125.65
929.4489	1976.5366	19864.65	18981.95
929.5869	1978.1342	19907.15	19023.85
929.7249	1979.7311	19846.85	18962.35
929.8629	1981.3273	19812.1	18931
930.0009	1982.9227	19702.05	18817.7
930.1388	1984.5173	19661.65	18778.6
930.2767	1986.1112	19606	18722.55
930.4146	1987.7044	19595.75	18716
930.5525	1989.2968	19483.65	18597.8
930.6904	1990.8885	19435.85	18550.25
930.8282	1992.4795	19425.05	18541.65
930.966	1994.0697	19320.35	18438.25
931.1038	1995.6592	19252.65	18369.9
931.2415	1997.2479	19203.55	18323.35
931.3793	1998.8359	19167.35	18284.65
931.517	2000.4232	19089.1	18207.2
931.6547	2002.0097	19051	18171.75
931.7923	2003.5955	18945.55	18064.2
931.93	2005.1805	18959.75	18076.75
932.0676	2006.7648	18920.2	18038.15
932.2052	2008.3484	18860.95	17979.75
932.3427	2009.9312	18815.35	17933.95
932.4803	2011.5133	18732.15	17851.55
932.6178	2013.0946	18694	17813.55
932.7553	2014.6752	18642.35	17762.9
932.8928	2016.2551	18587.25	17705.4
933.0302	2017.8342	18497.2	17615.7
933.1676	2019.4126	18422.3	17542.4
933.305	2020.9902	18378.05	17498.1
933.4424	2022.5672	18364.15	17482.05
933.5798	2024.1433	18340	17453.65
933.7171	2025.7188	18266.1	17388
933.8544	2027.2935	18218	17335.55
933.9917	2028.8674	18128.85	17248.2
934.129	2030.4406	18069.5	17190.45
934.2662	2032.0131	17983.5	17106.4
934.4034	2033.5849	17955	17067.25
934.5406	2035.1559	17923.05	17042.95
934.6778	2036.7261	17867.5	16986.8
934.8149	2038.2957	17800.3	16920.1
934.952	2039.8645	17788.85	16906.25
935.0891	2041.4325	17797.1	16915.15
935.2262	2042.9998	17721.25	16841.55
935.3632	2044.5664	17683.65	16801.6
935.5002	2046.1323	17611.6	16732.55
935.6372	2047.6974	17576.4	16697.4
935.7742	2049.2617	17531.05	16652.95
935.9111	2050.8254	17482.75	16596.25
936.048	2052.3883	17492.15	16610.85
936.1849	2053.9504	17440.65	16558.6
936.3218	2055.5118	17356	16475.45
936.4586	2057.0725	17278.7	16393.55
936.5955	2058.6325	17256.95	16376.75
936.7323	2060.1917	17177.45	16295.35
936.869	2061.7502	17120.3	16238.25
937.0058	2063.3079	17107.85	16226.95
937.1425	2064.8649	17053.4	16169
937.2792	2066.4212	17021.15	16138.95
937.4159	2067.9767	16908.35	16026.2
937.5525	2069.5315	16853.2	15972.75
937.6891	2071.0856	16801.75	15919.65
937.8257	2072.6389	16760.65	15879.7
937.9623	2074.1915	16688.1	15808.7
938.0989	2075.7433	16610.7	15728.85
938.2354	2077.2945	16588.2	15710.45
938.3719	2078.8448	16536.9	15655.45
938.5084	2080.3945	16498.9	15617.4
938.6448	2081.9434	16456.15	15575.6
938.7812	2083.4916	16374.5	15492.05
938.9176	2085.039	16300.75	15416.85
939.054	2086.5857	16311.7	15426.4
939.1903	2088.1317	16294.55	15410.3
939.3267	2089.677	16255.95	15372.2
939.463	2091.2215	16203.4	15319
939.5992	2092.7652	16154.95	15269.75
939.7355	2094.3083	16113.6	15230
939.8717	2095.8506	16092.4	15212.95
940.0079	2097.3921	16068.4	15187.35
940.1441	2098.933	15983.9	15101.45
940.2802	2100.4731	15959.7	15078.4
940.4163	2102.0124	15959.65	15060.25
940.5524	2103.5511	15937.8	15054.55
940.6885	2105.089	15874.75	14991
940.8245	2106.6261	15825.05	14940.95
940.9606	2108.1626	15751.9	14869.1
941.0965	2109.6983	15754.35	14844.05
941.2325	2111.2332	15713.25	14830.65
941.3684	2112.7675	15640.2	14755.7
941.5044	2114.301	15602.6	14718.65
941.6403	2115.8337	15624.95	14744.35
941.7761	2117.3657	15556.8	14673.85
941.912	2118.897	15505.4	14621.4
942.0478	2120.4276	15475.2	14587
942.1835	2121.9575	15399.5	14517
942.3193	2123.4866	15397.15	14499.9
942.455	2125.0149	15348.15	14463.15
942.5907	2126.5426	15284.6	14403
942.7264	2128.0695	15209.65	14324.2
942.8621	2129.5956	15186.45	14306.2
942.9977	2131.1211	15174.65	14286.9
943.1333	2132.6458	15155.55	14276
943.2689	2134.1698	15107.85	14223.95
943.4044	2135.693	15079.7	14197.15
943.54	2137.2155	15045.7	14160.25
943.6755	2138.7373	15014.3	14130.8
943.8109	2140.2584	14934.85	14054.1
943.9464	2141.7787	14887.95	14001.3
944.0818	2143.2983	14812.95	13932.6
944.2172	2144.8171	14784.75	13903.35
944.3526	2146.3353	14719.75	13837.05
944.4879	2147.8527	14671.95	13792
944.6232	2149.3693	14665.85	13782.8
944.7585	2150.8853	14598.1	13714.6
944.8938	2152.4005	14531.45	13649.45
945.029	2153.9149	14529.75	13646.7
945.1642	2155.4287	14443.8	13560.5
945.2994	2156.9417	14472.75	13589.2
945.4346	2158.454	14412.75	13528.05
945.5697	2159.9655	14374.95	13494.7
945.7048	2161.4764	14337.7	13455.95
945.8399	2162.9865	14290.2	13409.25
945.9749	2164.4958	14255.2	13371.8
946.1099	2166.0045	14206.4	13322.6
946.2449	2167.5124	14197.15	13315.05
946.3799	2169.0195	14154.75	13271.8
946.5148	2170.526	14147.5	13263.8
946.6498	2172.0317	14108.3	13225.1
946.7846	2173.5367	14043.05	13161.2
946.9195	2175.0409	14013.35	13131.9
947.0543	2176.5445	14016.95	13134.2
947.1891	2178.0473	13947.2	13063.75
947.3239	2179.5494	13874.7	12987.9
947.4587	2181.0507	13850.9	12967.2
947.5934	2182.5513	13802.75	12919.7
947.7281	2184.0512	13757.2	12875.8
947.8628	2185.5504	13730.35	12848.2
947.9974	2187.0488	13649.75	12769.2
948.132	2188.5465	13605.05	12723.65
948.2666	2190.0435	13558.25	12676
948.4012	2191.5397	13516.55	12635.1
948.5357	2193.0353	13493.1	12611.35
948.6702	2194.5301	13418.5	12534
948.8047	2196.0241	13377.55	12494.05
948.9392	2197.5175	13344.65	12460.55
949.0736	2199.0101	13328.95	12440
949.208	2200.502	13254.25	12373.8
949.3424	2201.9931	13204.9	12323
949.4767	2203.4835	13150.55	12268.05
949.611	2204.9733	13134.5	12246.15
949.7453	2206.4622	13111.85	12231.75
949.8796	2207.9505	13055.15	12169.95
950.0138	2209.438	12986.85	12107.65
950.148	2210.9248	12937.3	12053.5
950.2822	2212.4109	12900.9	12021.4
950.4164	2213.8962	12857.25	11971.95
950.5505	2215.3809	12835.05	11950.15
950.6846	2216.8648	12810.1	11925.05
950.8186	2218.3479	12785.1	11896
950.9527	2219.8304	12732	11843.9
951.0867	2221.3121	12661.45	11776.35
951.2207	2222.7931	12633.35	11749.55
951.3546	2224.2733	12605.4	11722.3
951.4886	2225.7529	12572.2	11689.6
951.6225	2227.2317	12496.55	11611.85
951.7563	2228.7098	12496.7	11616.4
951.8902	2230.1872	12420.2	11540.85
952.024	2231.6638	12418.45	11537.6
952.1578	2233.1397	12358.45	11471.45
952.2916	2234.6149	12354.8	11472.4
952.4253	2236.0894	12292.05	11408.35
952.559	2237.5632	12277.35	11386.4
952.6927	2239.0362	12216.55	11335.45
952.8263	2240.5085	12192.6	11311
952.9599	2241.9801	12132.1	11249.3
953.0935	2243.4509	12129.5	11245.75
953.2271	2244.921	12074.2	11190.3
953.3606	2246.3904	12027.75	11143.45
953.4941	2247.8591	11981.1	11099.8
953.6276	2249.3271	11954.2	11071.45
953.7611	2250.7943	11912.55	11027.75
953.8945	2252.2608	11861.75	10979.4
954.0279	2253.7266	11826	10944.7
954.1612	2255.1917	11786.9	10903.05
954.2946	2256.656	11746.55	10865.4
954.4279	2258.1197	11703.2	10819.55
954.5612	2259.5826	11694.75	10811.55
954.6944	2261.0447	11673.85	10789.9
954.8276	2262.5062	11601.3	10715.55
954.9608	2263.9669	11599.95	10715.05
955.094	2265.4269	11570.4	10686.9
955.2271	2266.8862	11560.45	10680.2
955.3602	2268.3448	11526.25	10643.05
955.4933	2269.8026	11515.75	10633.9
955.6264	2271.2598	11491.65	10608.5
955.7594	2272.7162	11427.7	10545.25
955.8924	2274.1719	11411.65	10529.05
956.0253	2275.6268	11354.75	10469.75
956.1583	2277.0811	11352.1	10469.75
956.2912	2278.5346	11305.45	10424.25
956.4241	2279.9874	11285.45	10401.1
956.5569	2281.4395	11286.95	10406.2
956.6897	2282.8908	11210	10324
956.8225	2284.3414	11219.4	10335.9
956.9553	2285.7914	11166.8	10284.8
957.088	2287.2406	11110.45	10223.6
957.2207	2288.689	11109.05	10224.45
957.3534	2290.1368	11090.35	10206.95
957.486	2291.5838	11030.5	10144.95
957.6186	2293.0302	11009.5	10123.9
957.7512	2294.4758	10975.7	10090.75
957.8838	2295.9206	10901.5	10017.65
958.0163	2297.3648	10901.85	10018.8
958.1488	2298.8082	10884.4	10001.75
958.2813	2300.251	10840.7	9956.6
958.4137	2301.693	10799.1	9911.15
958.5461	2303.1343	10790.3	9907
958.6785	2304.5748	10769.7	9887.55
958.8108	2306.0147	10708.15	9825.7
958.9432	2307.4538	10689.15	9807.1
959.0754	2308.8922	10680.8	9801.05
959.2077	2310.3299	10631.95	9750.2
959.3399	2311.7669	10587.25	9706.95
959.4721	2313.2031	10539.05	9656.1
959.6043	2314.6387	10512.65	9630.9
959.7365	2316.0735	10476.45	9592.35
959.8686	2317.5076	10454.5	9572.65
960.0006	2318.941	10419.55	9535.6
960.1327	2320.3737	10420.55	9535.55
960.2647	2321.8056	10354.2	9467.5
960.3967	2323.2369	10340.35	9455.8
960.5287	2324.6674	10317.1	9430.6
960.6606	2326.0972	10290.9	9406.35
960.7925	2327.5263	10253.25	9370.65
960.9244	2328.9547	10230.2	9344.95
961.0562	2330.3823	10209.25	9325.65
961.1881	2331.8092	10171.25	9283.25
961.3198	2333.2355	10144.3	9259.6
961.4516	2334.661	10123.45	9240.1
961.5833	2336.0858	10091.5	9205.3
961.715	2337.5098	10077.1	9194.45
961.8467	2338.9332	10046.1	9160.8
961.9783	2340.3558	9990.05	9104.85
962.1099	2341.7778	9974	9091.75
962.2415	2343.199	9941	9056.25
962.373	2344.6195	9903.85	9022.85
962.5045	2346.0393	9881.75	8998.85
962.636	2347.4583	9887.75	9002.25
962.7675	2348.8767	9815.15	8930
962.8989	2350.2943	9812.45	8925.9
963.0303	2351.7113	9784.05	8898.25
963.1617	2353.1275	9767.55	8880.75
963.293	2354.543	9720.85	8827.5
963.4243	2355.9578	9691.4	8805.6
963.5556	2357.3718	9647.75	8761.95
963.6868	2358.7852	9630.15	8745.65
963.818	2360.1978	9573.3	8690.2
963.9492	2361.6098	9565.05	8681.95
964.0803	2363.021	9520.3	8632.65
964.2114	2364.4315	9495.65	8612.85
964.3425	2365.8413	9473.05	8587.75
964.4736	2367.2504	9434	8552.55
964.6046	2368.6587	9382.45	8500.9
964.7356	2370.0664	9352.55	8469.6
964.8666	2371.4733	9328.9	8445.9
964.9975	2372.8795	9300.8	8418.9
965.1284	2374.285	9261.8	8376.9
965.2593	2375.6899	9210.85	8328.7
965.3901	2377.0939	9173.85	8289.15
965.5209	2378.4973	9142.7	8260.2
965.6517	2379.9	9132.4	8250.35
965.7825	2381.3019	9123.25	8240.3
965.9132	2382.7032	9083.4	8203
966.0439	2384.1037	9055.7	8174.4
966.1745	2385.5035	9059.25	8176.95
966.3051	2386.9027	9014.2	8134
966.4357	2388.3011	8995.8	8110
966.5663	2389.6987	8968.55	8084.55
966.6968	2391.0957	8920	8036.3
966.8273	2392.492	8894.15	8011.7
966.9578	2393.8876	8849.65	7964.35
967.0882	2395.2824	8794.25	7912.8
967.2186	2396.6765	8766.9	7885.05
967.349	2398.07	8740.85	7857.6
967.4793	2399.4627	8737.85	7854.8
967.6097	2400.8547	8701.9	7817.65
967.7399	2402.246	8664.4	7775.35
967.8702	2403.6366	8643.65	7761
968.0004	2405.0265	8583.05	7700.4
968.1306	2406.4156	8561.2	7674.9
968.2607	2407.8041	8561.75	7673.5
968.3909	2409.1918	8501.05	7617.35
968.521	2410.5789	8457.1	7573.75
968.651	2411.9652	8420.5	7535.75
968.781	2413.3508	8406.75	7523.1
968.911	2414.7358	8381.05	7497.95
969.041	2416.12	8352.75	7470.55
969.1709	2417.5035	8351.25	7467.25
969.3008	2418.8863	8300.1	7416.35
969.4307	2420.2684	8296.55	7410.1
969.5606	2421.6497	8262.85	7381.6
969.6904	2423.0304	8211.85	7328.85
969.8201	2424.4104	8180.1	7297.9
969.9499	2425.7896	8161.25	7277.95
970.0796	2427.1682	8159.35	7276.2
970.2093	2428.546	8123.8	7241.9
970.3389	2429.9232	8108.3	7224.4
970.4685	2431.2996	8076.25	7194.2
970.5981	2432.6753	8064.6	7181.5
970.7277	2434.0503	8028.75	7144.95
970.8572	2435.4246	8022.25	7140.2
970.9867	2436.7982	7969.85	7085.05
971.1161	2438.1711	7945.7	7063.5
971.2456	2439.5433	7914.4	7029.6
971.375	2440.9148	7901	7012.05
971.5043	2442.2856	7854.55	6970.6
971.6336	2443.6557	7848.35	6963.75
971.7629	2445.025	7811.25	6928.1
971.8922	2446.3937	7821.1	6936.6
972.0214	2447.7617	7797.1	6912
972.1506	2449.1289	7771.65	6889.4
972.2798	2450.4955	7759.1	6871.2
972.4089	2451.8613	7720.95	6837.25
972.538	2453.2265	7695.7	6811.65
972.6671	2454.5909	7669.25	6783.3
972.7961	2455.9546	7671.45	6788.1
972.9251	2457.3177	7631.75	6752.2
973.0541	2458.68	7595.9	6709.3
973.1831	2460.0416	7582.3	6699.15
973.312	2461.4025	7594.1	6709.7
973.4408	2462.7627	7568.95	6673.8
973.5697	2464.1222	7530.05	6646.1
973.6985	2465.4811	7535.1	6652
973.8273	2466.8392	7492.85	6609.4
973.956	2468.1966	7483.4	6597.2
974.0847	2469.5533	7474.95	6587.3
974.2134	2470.9093	7444	6558.95
974.3421	2472.2645	7404.95	6518.65
974.4707	2473.6191	7391.3	6508.9
974.5993	2474.973	7361.5	6476.6
974.7278	2476.3262	7339.4	6456.25
974.8563	2477.6787	7321.5	6441.55
974.9848	2479.0305	7290.45	6408.05
975.1132	2480.3816	7258.35	6375.35
975.2417	2481.7319	7221.15	6339.35
975.37	2483.0816	7206.55	6321.6
975.4984	2484.4306	7199.9	6317.15
975.6267	2485.7789	7175.35	6295.1
975.755	2487.1264	7120.05	6234.6
975.8833	2488.4733	7107.05	6223.6
976.0115	2489.8195	7089.05	6200.65
976.1397	2491.165	7062.95	6177.15
976.2678	2492.5097	7025.5	6143.2
976.3959	2493.8538	7019.7	6137.5
976.524	2495.1972	6992.2	6110.05
976.6521	2496.5398	6964.95	6078.65
976.7801	2497.8818	6948.05	6061.85
976.9081	2499.2231	6922.4	6039.1
977.036	2500.5637	6895.3	6009.55
977.164	2501.9035	6871.95	5988.35
977.2918	2503.2427	6874.65	5987.85
977.4197	2504.5812	6841.6	5959.2
977.5475	2505.919	6835.85	5950.5
977.6753	2507.256	6806.3	5922.4
977.8031	2508.5924	6779.25	5896.65
977.9308	2509.9281	6753.75	5865.35
978.0585	2511.2631	6720.4	5837.5
978.1861	2512.5974	6726.05	5844.9
978.3137	2513.9309	6693.35	5809.3
978.4413	2515.2638	6690.7	5779.95
978.5689	2516.596	6660	5775.2
978.6964	2517.9275	6627.75	5743.55
978.8239	2519.2583	6591.3	5707.55
978.9513	2520.5884	6557.65	5673.55
979.0788	2521.9178	6557.2	5673.2
979.2062	2523.2465	6532.9	5650.65
979.3335	2524.5745	6503.85	5620.9
979.4608	2525.9018	6497.9	5615.15
979.5881	2527.2284	6464.3	5583.55
979.7154	2528.5543	6442.5	5559.7
979.8426	2529.8796	6437.7	5556.5
979.9698	2531.2041	6415.2	5533.2
980.0969	2532.5279	6425.6	5543.15
980.224	2533.851	6389.9	5505.45
980.3511	2535.1735	6391.55	5508.75
980.4781	2536.4952	6355.05	5471.4
980.6052	2537.8163	6349.55	5464.75
980.7321	2539.1366	6332.9	5449.6
980.8591	2540.4562	6308.3	5423.5
980.986	2541.7752	6322.7	5439.15
981.1129	2543.0935	6300.45	5417.05
981.2397	2544.411	6292.85	5409.9
981.3665	2545.7279	6278.45	5395.2
981.4933	2547.0441	6241	5357.8
981.62	2548.3596	6260.25	5373.7
981.7467	2549.6744	6241.9	5358.2
981.8734	2550.9885	6212	5321.3
982.0001	2552.3019	6205.65	5320.35
982.1267	2553.6146	6175.95	5293.2
982.2532	2554.9266	6158.4	5274.6
982.3798	2556.2379	6145.45	5262.2
982.5063	2557.5485	6130.5	5250.5
982.6327	2558.8585	6110.9	5221.4
982.7592	2560.1677	6103.75	5217.95
982.8856	2561.4762	6092.1	5208.05
983.0119	2562.7841	6075.8	5191.5
983.1383	2564.0913	6066.2	5184.45
983.2646	2565.3977	6039.25	5156.6
983.3908	2566.7035	6039.45	5156.6
983.517	2568.0086	6034.8	5149
983.6432	2569.313	6018.5	5134.45
983.7694	2570.6167	5997.55	5110.4
983.8955	2571.9197	5980.2	5098.95
984.0216	2573.222	5985.3	5098.5
984.1476	2574.5236	5973.85	5090
984.2737	2575.8246	5940.5	5053
984.3996	2577.1248	5956.7	5070.55
984.5256	2578.4244	5934.1	5051.7
984.6515	2579.7232	5922.2	5037.65
984.7774	2581.0214	5920.3	5014.35
984.9032	2582.3189	5882.2	4999.75
985.029	2583.6157	5857.75	4968.65
985.1548	2584.9118	5862.75	4977.3
985.2806	2586.2072	5837	4954.7
985.4063	2587.5019	5820.05	4938
985.5319	2588.7959	5816.9	4931.6
985.6576	2590.0893	5816.1	4931.15
985.7832	2591.3819	5791.05	4908.75
985.9087	2592.6739	5765.45	4882.95
986.0343	2593.9652	5757.05	4872.75
986.1597	2595.2557	5756.2	4871.8
986.2852	2596.5456	5725.4	4839.95
986.4106	2597.8348	5714.25	4831.35
986.536	2599.1234	5675.35	4792.8
986.6614	2600.4112	5656.1	4774.85
986.7867	2601.6983	5654.6	4766.95
986.912	2602.9848	5632.8	4748.3
987.0372	2604.2705	5588.2	4698.7
987.1624	2605.5556	5604.2	4720.15
987.2876	2606.84	5570.25	4689.25
987.4128	2608.1237	5544.65	4661.6
987.5379	2609.4067	5533.65	4649.55
987.6629	2610.689	5511.55	4620.2
987.788	2611.9707	5481.4	4594.3
987.913	2613.2516	5480.55	4596.7
988.0379	2614.5319	5446.65	4562.7
988.1629	2615.8115	5434.5	4552.75
988.2878	2617.0903	5400.95	4516.35
988.4126	2618.3685	5416.05	4532.2
988.5375	2619.6461	5373.65	4489.35
988.6622	2620.9229	5352.3	4466.45
988.787	2622.199	5337.35	4453.8
988.9117	2623.4745	5326.25	4443.1
989.0364	2624.7493	5315	4433.35
989.161	2626.0234	5290.1	4408.3
989.2857	2627.2968	5276	4392.9
989.4102	2628.5695	5264.1	4380.7
989.5348	2629.8415	5259.35	4376.3
989.6593	2631.1128	5208.25	4325.65
989.7837	2632.3835	5198.35	4314.35
989.9082	2633.6535	5201.05	4318.25
990.0326	2634.9228	5181.4	4298.4
990.1569	2636.1914	5146.85	4265.75
990.2812	2637.4593	5145.5	4255.95
990.4055	2638.7265	5117.8	4235.85
990.5298	2639.9931	5102.9	4220.45
990.654	2641.259	5107.55	4224.1
990.7782	2642.5242	5088.5	4205.5
990.9023	2643.7887	5052.85	4169.25
991.0264	2645.0525	5044.15	4159
991.1505	2646.3156	5033.15	4149.1
991.2745	2647.5781	5006.9	4125.05
991.3985	2648.8398	5000.65	4117.15
991.5225	2650.1009	4984.3	4094.1
991.6464	2651.3613	4977.75	4095.4
991.7703	2652.6211	4960.95	4079.95
991.8942	2653.8801	4954.6	4072.3
992.018	2655.1385	4945.7	4059.15
992.1418	2656.3961	4925.65	4042
992.2655	2657.6531	4923.35	4039.85
992.3892	2658.9094	4892.75	4009.4
992.5129	2660.1651	4880.65	3999.4
992.6366	2661.42	4856.75	3974.65
992.7602	2662.6743	4882.75	4000.35
992.8837	2663.9279	4859.6	3977.7
993.0073	2665.1808	4837.15	3956.1
993.1307	2666.433	4844	3960.9
993.2542	2667.6846	4830.45	3947.15
993.3776	2668.9354	4815.2	3929.15
993.501	2670.1856	4792.85	3908.2
993.6244	2671.4351	4788.75	3907
993.7477	2672.6839	4774.7	3891.05
993.8709	2673.9321	4748.95	3867.15
993.9942	2675.1795	4751.1	3870.65
994.1174	2676.4263	4721.9	3838.35
994.2405	2677.6724	4713.6	3833.4
994.3637	2678.9179	4712.15	3826.45
994.4868	2680.1626	4686.4	3802.85
994.6098	2681.4067	4673.6	3790.55
994.7328	2682.6501	4658.5	3778.05
994.8558	2683.8928	4646.2	3762.4
994.9788	2685.1348	4639.45	3760.6
995.1017	2686.3761	4609.5	3728.1
995.2245	2687.6168	4587.05	3705.35
995.3474	2688.8568	4596.8	3713.5
995.4702	2690.0961	4581.1	3702.05
995.5929	2691.3348	4568.1	3684.5
995.7156	2692.5727	4546.7	3668
995.8383	2693.81	4549.3	3666.7
995.961	2695.0466	4530.55	3649.25
996.0836	2696.2826	4508.5	3624.9
996.2062	2697.5178	4521.85	3619.7
996.3287	2698.7524	4497.1	3614.75
996.4512	2699.9863	4492.4	3608.15
996.5737	2701.2195	4467.35	3587.2
996.6961	2702.452	4474.8	3589.35
996.8185	2703.6839	4461.85	3579.1
996.9408	2704.9151	4444.55	3563.05
997.0631	2706.1456	4435.25	3553.65
997.1854	2707.3755	4402.05	3518.25
997.3077	2708.6046	4409.25	3523.75
997.4299	2709.8331	4384.05	3501.55
997.552	2711.0609	4376.85	3495.4
997.6742	2712.2881	4376	3494.05
997.7963	2713.5145	4374.95	3489.8
997.9183	2714.7403	4363.45	3481.95
998.0403	2715.9654	4336.65	3453.1
998.1623	2717.1899	4335.8	3454.8
998.2842	2718.4136	4328.25	3446.95
998.4062	2719.6367	4304.9	3420.4
998.528	2720.8591	4295.5	3408.75
998.6498	2722.0809	4289.65	3405.2
998.7716	2723.3019	4279.2	3394.65
998.8934	2724.5223	4264.85	3380.95
999.0151	2725.7421	4249.05	3366.9
999.1368	2726.9611	4244.95	3361.55
999.2584	2728.1795	4222.6	3336.7
999.38	2729.3972	4196.4	3315.05
999.5016	2730.6142	4198.25	3309.05
999.6231	2731.8306	4175	3292.05
999.7446	2733.0462	4164.35	3281.05
999.8661	2734.2612	4131.95	3243.1
999.9875	2735.4756	4120.75	3237.1
1000.1089	2736.6892	4084.25	3201.5
1000.2302	2737.9022	4062.7	3182.1
1000.3515	2739.1145	4054.55	3171.25
1000.4728	2740.3262	4046	3156.75
1000.594	2741.5372	4013.75	3134.2
1000.7152	2742.7475	4001.6	3119.65
1000.8363	2743.9571	4001.45	3117.8
1000.9575	2745.1661	3996.8	3111
1001.0785	2746.3744	3975.4	3093.3
1001.1996	2747.582	3965.4	3085.35
1001.3206	2748.7889	3942	3059.15
1001.4415	2749.9952	3950.35	3069.3
1001.5625	2751.2008	3925.25	3042.4
1001.6833	2752.4057	3927.75	3045.05
1001.8042	2753.61	3894.3	3012.35
1001.925	2754.8136	3887.7	3004.55
1002.0458	2756.0165	3882.75	2999.85
1002.1665	2757.2188	3863.25	2981.55
1002.2872	2758.4204	3839.45	2958.3
1002.4078	2759.6213	3837	2954.15
1002.5285	2760.8215	3839.05	2953.25
1002.649	2762.0211	3824.25	2941.3
1002.7696	2763.22	3815	2929.8
1002.8901	2764.4182	3798.9	2916.35
1003.0106	2765.6158	3792.9	2909.75
1003.131	2766.8127	3785.1	2901.85
1003.2514	2768.009	3762.85	2880.35
1003.3717	2769.2045	3766.8	2884.6
1003.492	2770.3994	3745.3	2861.3
1003.6123	2771.5936	3723.5	2842.5
1003.7325	2772.7872	3714	2832.2
1003.8527	2773.9801	3696.3	2811.35
1003.9729	2775.1723	3705.85	2809.2
1004.093	2776.3639	3682.3	2800.15
1004.2131	2777.5548	3661	2773.95
1004.3331	2778.745	3661.1	2778.15
1004.4531	2779.9346	3654.6	2773.6
1004.5731	2781.1235	3643	2759.45
1004.693	2782.3117	3624.65	2743.15
1004.8129	2783.4992	3616.65	2736.4
1004.9328	2784.6861	3614.2	2732.2
1005.0526	2785.8723	3592.85	2710.35
1005.1723	2787.0579	3600.5	2717.55
1005.2921	2788.2428	3584.3	2702.5
1005.4118	2789.427	3570.5	2690.9
1005.5314	2790.6106	3561.2	2678.15
1005.651	2791.7935	3555	2672.6
1005.7706	2792.9757	3545	2665.15
1005.8902	2794.1573	3532.65	2650
1006.0097	2795.3382	3528.2	2646.75
1006.1291	2796.5184	3516.05	2635.35
1006.2485	2797.698	3516.3	2632.75
1006.3679	2798.8769	3510.2	2627.8
1006.4873	2800.0551	3505.05	2623.4
1006.6066	2801.2327	3489.2	2606
1006.7258	2802.4096	3482.55	2603.9
1006.8451	2803.5859	3491.05	2608.5
1006.9642	2804.7615	3479.35	2597.9
1007.0834	2805.9364	3480.8	2598.45
1007.2025	2807.1106	3469.6	2587.6
1007.3216	2808.2842	3481.65	2599.65
1007.4406	2809.4572	3475.8	2595.05
1007.5596	2810.6294	3472.25	2589.55
1007.6785	2811.801	3487.95	2607.4
1007.7975	2812.972	3483.65	2602.25
1007.9163	2814.1423	3472.6	2592.6
1008.0352	2815.3119	3499.95	2618.65
1008.154	2816.4808	3512.2	2633.25
1008.2727	2817.6491	3527.55	2646.8
1008.3914	2818.8167	3534.75	2654.4
1008.5101	2819.9837	3549.75	2663.65
1008.6288	2821.15	3564.4	2683.6
1008.7474	2822.3157	3571.65	2690.6
1008.8659	2823.4807	3607.4	2726.3
1008.9844	2824.645	3626.05	2742.55
1009.1029	2825.8086	3633.05	2751.5
1009.2214	2826.9716	3631.75	2749.15
1009.3398	2828.134	3656.3	2777.6
1009.4581	2829.2957	3655.05	2774.7
1009.5764	2830.4567	3669.45	2789.4
1009.6947	2831.617	3674.45	2792.7
1009.813	2832.7767	3673.45	2793.15
1009.9312	2833.9358	3671.95	2792.6
1010.0493	2835.0941	3657.15	2774.25
1010.1675	2836.2519	3637.6	2755.05
1010.2855	2837.4089	3628.2	2747.65
1010.4036	2838.5653	3624.25	2743.6
1010.5216	2839.7211	3614.8	2735
1010.6396	2840.8761	3599.55	2716.6
1010.7575	2842.0306	3593.25	2712.7
1010.8754	2843.1843	3607.65	2726.35
1010.9932	2844.3374	3616	2736.2
1011.111	2845.4899	3617.9	2736
1011.2288	2846.6417	3629.8	2750.8
1011.3465	2847.7928	3645.45	2767.9
1011.4642	2848.9433	3676.4	2796.9
1011.5818	2850.0931	3682.55	2802.7
1011.6995	2851.2422	3706.45	2824.05
1011.817	2852.3907	3724.7	2845.75
1011.9345	2853.5385	3752.05	2867.3
1012.052	2854.6857	3760.85	2869.9
1012.1695	2855.8323	3753.85	2873.05
1012.2869	2856.9781	3752.75	2871
1012.4042	2858.1233	3764.45	2882.5
1012.5216	2859.2679	3785.15	2904.9
1012.6389	2860.4118	3803.3	2920.05
1012.7561	2861.555	3822.65	2938.9
1012.8733	2862.6976	3833.55	2949.95
1012.9905	2863.8395	3839	2959.7
1013.1076	2864.9808	3839.05	2957.55
1013.2247	2866.1214	3837.9	2958.5
1013.3417	2867.2614	3850.85	2971.05
1013.4587	2868.4007	3846	2962.75
1013.5757	2869.5393	3832.45	2951.4
1013.6926	2870.6773	3843.6	2962.3
1013.8095	2871.8146	3833.55	2948
1013.9263	2872.9513	3810.3	2925.8
1014.0431	2874.0874	3799.95	2916.75
1014.1599	2875.2227	3782.85	2901.6
1014.2766	2876.3574	3765	2885.4
1014.3933	2877.4915	3767.5	2888.75
1014.51	2878.6249	3728.9	2849.45
1014.6266	2879.7577	3713.5	2831.35
1014.7431	2880.8898	3702.35	2811.95
1014.8596	2882.0212	3682.25	2803.95
1014.9761	2883.152	3688.7	2807.7
1015.0925	2884.2821	3660.95	2781.2
1015.2089	2885.4116	3635.5	2756.3
1015.3253	2886.5405	3634.55	2750.65
1015.4416	2887.6686	3643.25	2759.75
1015.5579	2888.7962	3633.3	2755
1015.6741	2889.923	3620.95	2742.45
1015.7903	2891.0493	3623.7	2742.35
1015.9065	2892.1748	3613.75	2732.6
1016.0226	2893.2997	3615	2734.15
1016.1387	2894.424	3605.3	2728.15
1016.2547	2895.5476	3601.95	2722.2
1016.3707	2896.6706	3599.9	2719.9
1016.4866	2897.7929	3594.75	2714.65
1016.6025	2898.9145	3600.75	2719.8
1016.7184	2900.0355	3604.9	2724.1
1016.8342	2901.1559	3614.55	2733.95
1016.95	2902.2756	3621.05	2740.45
1017.0658	2903.3946	3624.95	2746.35
1017.1815	2904.513	3625.4	2743
1017.2971	2905.6308	3621.55	2741.15
1017.4127	2906.7479	3633.5	2752.05
1017.5283	2907.8643	3621.35	2740.55
1017.6439	2908.9801	3608.25	2728.25
1017.7594	2910.0953	3613.65	2732.7
1017.8748	2911.2098	3616.35	2733
1017.9902	2912.3236	3606.6	2720.45
1018.1056	2913.4368	3603.4	2721.8
1018.2209	2914.5494	3567.6	2688.35
1018.3362	2915.6613	3555.4	2670.75
1018.4515	2916.7725	3528.45	2646.4
1018.5667	2917.8831	3528.7	2646.9
1018.6819	2918.9931	3487.45	2603.85
1018.797	2920.1024	3484.05	2601.9
1018.9121	2921.211	3475.7	2596.15
1019.0271	2922.319	3458.9	2576.9
1019.1421	2923.4264	3449.8	2571.65
1019.2571	2924.5331	3442.65	2562.7
1019.372	2925.6391	3431	2550.9
1019.4869	2926.7445	3423.1	2543.8
1019.6017	2927.8493	3408.65	2527.55
1019.7165	2928.9534	3415.95	2535.3
1019.8313	2930.0569	3405.2	2522.7
1019.946	2931.1597	3402.65	2521.55
1020.0606	2932.2619	3401.7	2520.4
1020.1753	2933.3634	3385.55	2505.15
1020.2899	2934.4643	3393.05	2506.6
1020.4044	2935.5645	3387.15	2501.65
1020.5189	2936.6641	3361.7	2477.55
1020.6334	2937.763	3326.75	2447.55
1020.7478	2938.8613	3330.6	2449.65
1020.8622	2939.959	3300.7	2415.25
1020.9765	2941.056	3254.9	2376.4
1021.0908	2942.1523	3215.5	2331.85
1021.2051	2943.248	3179.45	2300.5
1021.3193	2944.3431	3138.75	2259.65
1021.4334	2945.4375	3098.7	2217
1021.5476	2946.5313	3058.05	2179.35
1021.6617	2947.6244	3010.7	2128.85
1021.7757	2948.7169	2971.9	2092.35
1021.8897	2949.8087	2927.55	2046.95
1022.0037	2950.8999	2880.75	2000.15
1022.1176	2951.9904	2841	1961.35
1022.2315	2953.0803	2809.45	1929.1
1022.3453	2954.1696	2785.95	1906.05
1022.4591	2955.2582	2750.1	1870.05
1022.5728	2956.3462	2726	1846.95
1022.6865	2957.4335	2709.4	1828.45
1022.8002	2958.5202	2687.95	1804.3
1022.9138	2959.6062	2677.95	1798.2
1023.0274	2960.6916	2657.05	1777.75
1023.141	2961.7764	2655.4	1771.55
1023.2545	2962.8605	2644.45	1764.05
1023.3679	2963.9439	2624.55	1744.3
1023.4813	2965.0267	2603.75	1723.1
1023.5947	2966.1089	2616.35	1715.4
1023.708	2967.1905	2576.45	1696.8
1023.8213	2968.2714	2582.55	1702.7
1023.9346	2969.3516	2569.5	1690.15
1024.0478	2970.4312	2580.7	1692.85
1024.1609	2971.5102	2574.7	1695.85
1024.274	2972.5885	2549.7	1669.15
1024.3871	2973.6662	2543.4	1660.55
1024.5002	2974.7432	2556	1674.65
1024.6132	2975.8196	2543.4	1664.45
1024.7261	2976.8954	2541.6	1663.35
1024.839	2977.9705	2544.15	1665.35
1024.9519	2979.045	2514.45	1635.9
1025.0647	2980.1188	2507.3	1626.75
1025.1775	2981.192	2503	1622.8
1025.2902	2982.2645	2477.55	1597.65
1025.4029	2983.3364	2468.45	1589.3
1025.5156	2984.4077	2448.9	1570.55
1025.6282	2985.4783	2448.85	1561.3
1025.7407	2986.5483	2422.85	1544.4
1025.8532	2987.6177	2390.35	1512.7
1025.9657	2988.6864	2374.65	1493.5
1026.0782	2989.7545	2362.3	1481.7
1026.1906	2990.8219	2347.55	1467.85
1026.3029	2991.8887	2323.55	1442.05
1026.4152	2992.9548	2304.1	1425.45
1026.5275	2994.0204	2287.95	1407.95
1026.6397	2995.0852	2275.35	1397.1
1026.7519	2996.1495	2261	1379.6
1026.864	2997.2131	2247.5	1368.25
1026.9761	2998.276	2229.75	1350.5
1027.0882	2999.3383	2221	1338.85
1027.2002	3000.4	2203.85	1321.5
1027.3122	3001.4611	2195.85	1316.05
1027.4241	3002.5215	2185.8	1303.6
1027.536	3003.5812	2171	1293.05
1027.6478	3004.6404	2161.85	1282.8
1027.7596	3005.6989	2155.35	1273.5
1027.8714	3006.7567	2147.5	1268.9
1027.9831	3007.8139	2168.1	1257.65
1028.0947	3008.8705	2127.7	1248.95
1028.2064	3009.9264	2127.25	1244.2
1028.3179	3010.9818	2116.65	1236.9
1028.4295	3012.0364	2109.5	1227.15
1028.541	3013.0905	2095.8	1218.9
1028.6524	3014.1439	2099.45	1221.05
1028.7638	3015.1966	2093.2	1214
1028.8752	3016.2487	2083.7	1204.75
1028.9865	3017.3002	2076.65	1193.4
1029.0978	3018.3511	2070.25	1190.9
1029.209	3019.4013	2064.3	1184.6
1029.3202	3020.4509	2059.9	1181.2
1029.4314	3021.4998	2059.8	1180.25
1029.5425	3022.5481	2041.75	1163.3
1029.6535	3023.5958	2055.55	1174.6
1029.7645	3024.6428	2039.25	1158.45
1029.8755	3025.6892	2036.15	1157.15
1029.9864	3026.735	2038.2	1155.65
1030.0973	3027.7802	2025.65	1146.45
1030.2082	3028.8247	2020.6	1141
1030.319	3029.8685	2019.5	1140.7
1030.4297	3030.9118	2016.05	1136.1
1030.5404	3031.9544	2017.4	1138.95
1030.6511	3032.9963	2012.55	1134.5
1030.7617	3034.0376	2007.1	1125.95
1030.8723	3035.0783	2000.05	1118.3
1030.9829	3036.1184	1989.7	1110.1
1031.0934	3037.1578	1994.2	1114.75
1031.2038	3038.1966	1990.45	1110.5
1031.3142	3039.2348	1988.5	1110.3
1031.4246	3040.2723	1985.15	1094.9
1031.5349	3041.3092	1975.8	1097.1
1031.6452	3042.3455	1967.9	1088.3
1031.7554	3043.3811	1964.75	1086.3
1031.8656	3044.4161	1968.95	1087.9
1031.9758	3045.4505	1958.15	1079.2
1032.0859	3046.4842	1960.35	1079.55
1032.1959	3047.5173	1947.2	1067.2
1032.3059	3048.5498	1945.45	1065.55
1032.4159	3049.5816	1947.65	1068.3
1032.5258	3050.6128	1933.25	1054
1032.6357	3051.6434	1934.05	1053.65
1032.7455	3052.6734	1922.6	1042.1
1032.8553	3053.7027	1929.25	1049.35
1032.9651	3054.7314	1920.9	1042.1
1033.0748	3055.7594	1900.5	1023.65
1033.1845	3056.7868	1912.4	1031.7
1033.2941	3057.8136	1905.85	1026.4
1033.4037	3058.8398	1887.55	1009.1
1033.5132	3059.8653	1881.45	1000.85
1033.6227	3060.8902	1883.1	1004.65
1033.7321	3061.9145	1876.05	998
1033.8415	3062.9381	1870.8	991.25
1033.9509	3063.9612	1888.95	993.45
1034.0602	3064.9835	1859.95	981.7
1034.1694	3066.0053	1872.1	991
1034.2787	3067.0264	1847.3	967.8
1034.3878	3068.0469	1854.4	972.95
1034.497	3069.0668	1851	967.4
1034.6061	3070.086	1826.05	947.7
1034.7151	3071.1046	1830.95	952.75
1034.8241	3072.1226	1815.4	937.5
1034.9331	3073.1399	1820	941.55
1035.042	3074.1567	1823.8	943.65
1035.1508	3075.1727	1816.75	936.05
1035.2597	3076.1882	1805.15	926.9
1035.3684	3077.203	1793.6	914.3
1035.4772	3078.2173	1791.9	909.6
1035.5859	3079.2308	1781.15	900.1
1035.6945	3080.2438	1775.5	892
1035.8031	3081.2561	1762.6	882.9
1035.9117	3082.2678	1774.05	895.25
1036.0202	3083.2789	1764.3	883.7
1036.1286	3084.2893	1754	875.95
1036.2371	3085.2991	1750.35	869.3
1036.3454	3086.3083	1759.05	873.7
1036.4538	3087.3169	1741.1	860.65
1036.562	3088.3248	1737.8	856.05
1036.6703	3089.3321	1736.9	857.75
1036.7785	3090.3388	1730.8	852.2
1036.8866	3091.3449	1721.7	842.6
1036.9948	3092.3503	1715.65	833.8
1037.1028	3093.3551	1712.7	834.45
1037.2108	3094.3593	1706.75	829.05
1037.3188	3095.3629	1695.85	819.25
1037.4267	3096.3658	1697.15	818.15
1037.5346	3097.3681	1699.7	821.8
1037.6425	3098.3698	1687.3	806.9
1037.7503	3099.3708	1689.5	803.05
1037.858	3100.3713	1682.05	803.75
1037.9657	3101.3711	1670.3	791.35
1038.0734	3102.3702	1799.1	784.05
1038.181	3103.3688	1667.85	786.75
1038.2886	3104.3667	1665.45	785.95
1038.3961	3105.364	1656.7	777.35
1038.5036	3106.3607	1640.95	758.35
1038.611	3107.3568	1643.15	762.95
1038.7184	3108.3522	1644.55	768.3
1038.8257	3109.347	1632.45	753.4
1038.933	3110.3412	1642.55	762.15
1039.0403	3111.3348	1626.9	747.95
1039.1475	3112.3277	1617.95	739.5
1039.2547	3113.32	1610.1	730.95
1039.3618	3114.3117	1610.35	731.05
1039.4689	3115.3028	1612.45	732
1039.5759	3116.2932	1605.45	723.85
1039.6829	3117.2831	1599	713.65
1039.7898	3118.2723	1596.75	720.5
1039.8967	3119.2608	1590.55	710.6
1040.0035	3120.2488	1589.3	708.5
1040.1103	3121.2361	1589.7	708.4
1040.2171	3122.2229	1579.85	702.25
1040.3238	3123.209	1580.7	699.55
1040.4305	3124.1944	1569.2	690.2
1040.5371	3125.1793	1572.05	690.85
1040.6437	3126.1635	1563.45	683.45
1040.7502	3127.1471	1560.75	684.65
1040.8567	3128.1301	1547.05	668.25
1040.9631	3129.1125	1554.4	676.1
1041.0695	3130.0942	1546.05	665.9
1041.1759	3131.0753	1551.15	662.95
1041.2822	3132.0558	1545	664.5
1041.3884	3133.0357	1542.15	662.15
1041.4946	3134.015	1536.2	657.5
1041.6008	3134.9936	1537	657.65
1041.7069	3135.9716	1551.7	652.2
1041.813	3136.949	1531.25	652.9
1041.919	3137.9258	1528.6	643.85
1042.025	3138.902	1531.4	647.9
1042.1309	3139.8775	1522.5	642.25
1042.2368	3140.8524	1516.55	637.2
1042.3427	3141.8267	1516.6	636.65
1042.4485	3142.8004	1507.95	627.95
1042.5542	3143.7735	1519.75	632.05
1042.6599	3144.7459	1506.4	624.95
1042.7656	3145.7178	1497.75	616.15
1042.8712	3146.689	1501.05	621.55
1042.9768	3147.6596	1498.55	618.4
1043.0823	3148.6295	1495.4	614.95
1043.1878	3149.5989	1492.8	616
1043.2932	3150.5676	1482.6	605.4
1043.3986	3151.5357	1481.5	603.8
1043.5039	3152.5032	1475.7	598.7
1043.6092	3153.4701	1481.7	602.95
1043.7145	3154.4364	1470.85	590.1
1043.8197	3155.402	1471.2	593.15
1043.9248	3156.367	1466.6	585.9
1044.03	3157.3315	1501.25	583.7
1044.135	3158.2952	1461.55	582.3
1044.24	3159.2584	1458.15	579.15
1044.345	3160.221	1454.55	573.8
1044.4499	3161.1829	1448.75	568.15
1044.5548	3162.1442	1447.9	570.05
1044.6596	3163.105	1447.8	569.3
1044.7644	3164.065	1434.75	556.35
1044.8692	3165.0245	1439.6	558.6
1044.9739	3165.9834	1437.95	559.85
1045.0785	3166.9416	1432.15	555.7
1045.1831	3167.8993	1426.35	546.25
1045.2877	3168.8563	1424.9	546.9
1045.3922	3169.8127	1424.55	543.5
1045.4966	3170.7684	1414.3	534.9
1045.6011	3171.7236	1423.6	542.95
1045.7054	3172.6782	1413.05	533.85
1045.8098	3173.6321	1413.65	535.1
1045.914	3174.5854	1414.45	533.15
1046.0183	3175.5381	1403.25	525.5
1046.1224	3176.4902	1407.3	528.55
1046.2266	3177.4417	1399.35	520.7
1046.3307	3178.3926	1394.5	515.6
1046.4347	3179.3428	1392.55	513.65
1046.5387	3180.2924	1387.95	508.35
1046.6427	3181.2415	1390.1	510.85
1046.7466	3182.1899	1384.45	501.3
1046.8504	3183.1377	1383.1	505.25
1046.9542	3184.0848	1382.85	499.75
1047.058	3185.0314	1375.7	497.85
1047.1617	3185.9773	1379.8	501.5
1047.2654	3186.9227	1371.45	491.95
1047.369	3187.8674	1370.05	489.8
1047.4726	3188.8115	1369.25	485
1047.5761	3189.755	1369.75	491.8
1047.6796	3190.6979	1358.55	479.7
1047.783	3191.6402	1356.65	479.5
1047.8864	3192.5818	1360.55	480.6
1047.9898	3193.5229	1373.55	478.9
1048.0931	3194.4633	1354.65	476.45
1048.1963	3195.4031	1352.2	472.7
1048.2995	3196.3423	1351.6	472.85
1048.4027	3197.2809	1344	465.85
1048.5058	3198.2189	1334.45	454.8
1048.6089	3199.1563	1356.65	461.45
1048.7119	3200.0931	1334.5	456.55
1048.8148	3201.0292	1334.9	458.2
1048.9178	3201.9648	1336.2	459
1049.0206	3202.8997	1335.1	452.7
1049.1235	3203.834	1324.2	445.25
1049.2262	3204.7677	1325.55	449.4
1049.329	3205.7008	1326.7	445.5
1049.4317	3206.6333	1317.55	439.4
1049.5343	3207.5652	1312.65	431.25
1049.6369	3208.4964	1314.8	433.9
1049.7394	3209.4271	1317.3	438.55
1049.8419	3210.3571	1310.2	433.4
1049.9444	3211.2865	1314.05	435.45
1050.0468	3212.2154	1306.55	427.75
1050.1491	3213.1436	1309.65	428.75
1050.2514	3214.0712	1310.25	426.3
1050.3537	3214.9982	1298.95	420.75
1050.4559	3215.9246	1303.25	423.05
1050.5581	3216.8503	1289.75	411.05
1050.6602	3217.7755	1297.8	416.3
1050.7623	3218.7001	1288.1	409.55
1050.8643	3219.624	1289.8	411.65
1050.9663	3220.5473	1289.85	410.65
1051.0682	3221.4701	1288.95	409.4
1051.1701	3222.3922	1291.6	412.2
1051.2719	3223.3137	1283.2	406.6
1051.3737	3224.2346	1283.05	404.2
1051.4754	3225.1549	1276.7	398.9
1051.5771	3226.0746	1270.45	392.5
1051.6788	3226.9937	1274.95	395.5
1051.7804	3227.9121	1272.5	394.9
1051.8819	3228.83	1276.2	397.25
1051.9834	3229.7473	1265.65	388.5
1052.0849	3230.6639	1260.65	381.8
1052.1863	3231.5799	1261.15	382.9
1052.2876	3232.4954	1263.65	384.05
1052.3889	3233.4102	1258.4	378.6
1052.4902	3234.3244	1255.55	376.55
1052.5914	3235.238	1258.15	378.65
1052.6926	3236.151	1274.5	370.7
1052.7937	3237.0634	1244.95	367.45
1052.8948	3237.9752	1252.45	376.3
1052.9958	3238.8864	1242.85	362.4
1053.0968	3239.797	1242.6	363.3
1053.1977	3240.7069	1242.45	363.5
1053.2986	3241.6163	1239.1	360.65
1053.3994	3242.5251	1238.3	358.4
1053.5002	3243.4332	1237.75	358.4
1053.6009	3244.3408	1234.45	355.25
1053.7016	3245.2477	1227.05	349.8
1053.8022	3246.154	1232.6	353.5
1053.9028	3247.0598	1227.9	347.95
1054.0034	3247.9649	1221.55	344.2
1054.1039	3248.8694	1225.15	346.95
1054.2043	3249.7733	1217.85	338.2
1054.3047	3250.6766	1215.75	335.1
1054.4051	3251.5793	1218.3	338.8
1054.5054	3252.4814	1211.8	333.1
1054.6056	3253.3829	1213.25	335.05
1054.7058	3254.2838	1208.95	331
1054.806	3255.1841	1208.5	330.7
1054.9061	3256.0838	1206.1	327
1055.0061	3256.9829	1203.9	327.1
1055.1062	3257.8814	1199.55	320.6
1055.2061	3258.7792	1197.1	316.55
1055.306	3259.6765	1192.25	310.6
1055.4059	3260.5731	1189.8	312.15
1055.5057	3261.4692	1191.35	313.6
1055.6055	3262.3647	1180	301.75
1055.7052	3263.2595	1180.25	302.95
1055.8049	3264.1538	1167.9	289.45
1055.9045	3265.0474	1165.3	285.75
1056.0041	3265.9404	1165.2	288.6
1056.1036	3266.8329	1156.4	279.35
1056.2031	3267.7247	1163.6	273.05
1056.3025	3268.616	1150.85	271.8
1056.4019	3269.5066	1141.65	261.65
1056.5013	3270.3966	1134.75	253
1056.6005	3271.286	1127.05	249.1
