Software Version:	3.9.2.0
Unit SN:	10000200
Spectrometer SN:	6960
Date:	3/6/2024 9:36:37 AM
Data Line Index:	25
Spectral Points:	2048
Integration time (ms):	125
Averages:	20
Delay (ms):	30
Sequence Number:	1
Processing:	dark subtract
Laser Power (mW):	300
Laser Current (mA):	824
Laser Diode Temp (C):	25.1
Laser Case Temp (C):	23.9
System Temp (C):	23.7
Spectrometer Temp (C):	21.3
CCD Temp (C):	-0.031
Secondary Temp (C):	20.006
Heatsink Temp (C):	17.324
CCDPCB Temp (C):	30.527
SecondaryPCB Temp (C):	25.525

Wavelength	RamanShift	Raw Counts	Dark Subtracted
787.061	30.1047	520.95	112.6
787.2016	32.3739	522.85	116.95
787.3422	34.6426	532.05	125.45
787.4828	36.9109	539.85	132.7
787.6235	39.1787	555	143
787.7642	41.4461	563.9	148.6
787.9049	43.7131	576.1	156.2
788.0456	45.9796	589.6	167.6
788.1863	48.2456	605.45	179.1
788.3271	50.5112	615.6	185.4
788.4679	52.7764	633.1	199.45
788.6087	55.0411	645.3	207.45
788.7496	57.3054	662.65	219.8
788.8904	59.5692	678.6	234.55
789.0313	61.8326	696.4	251.45
789.1722	64.0955	715.25	267.7
789.3132	66.3579	741.65	287.75
789.4541	68.6199	772.45	315.7
789.5951	70.8815	825.85	363.7
789.7361	73.1426	933.2	467.2
789.8771	75.4032	1218.5	748.2
790.0181	77.6634	1932.2	1460.3
790.1592	79.9231	3618.45	3145.25
790.3003	82.1824	7325.3	6847.6
790.4414	84.4412	13926.6	13441.9
790.5825	86.6995	23304.4	22815.8
790.7237	88.9574	31603.65	31110.8
790.8648	91.2148	37409	36913.2
791.006	93.4717	39808.15	39308.2
791.1472	95.7282	40924.05	40420.6
791.2885	97.9842	41500.95	40994.9
791.4297	100.2398	41649.45	41141.1
791.571	102.4949	41753.4	41242.8
791.7123	104.7495	41870.55	41354.95
791.8536	107.0036	41790.9	41277.5
791.9949	109.2573	42079.75	41565.05
792.1363	111.5105	41952.25	41434.1
792.2777	113.7632	42052.65	41534.65
792.4191	116.0154	42223.25	41693.9
792.5605	118.2672	42417.3	41894.1
792.7019	120.5185	42434.4	41910.75
792.8434	122.7693	42497	41969.6
792.9849	125.0197	42344.35	41808.5
793.1264	127.2696	42772.8	42233.1
793.2679	129.519	42789.35	42250.95
793.4094	131.7679	43011.55	42470.6
793.551	134.0163	42697.25	42153.6
793.6926	136.2642	42982.75	42434.95
793.8342	138.5117	43236.9	42686.45
793.9758	140.7587	43127.85	42578.65
794.1175	143.0052	43196.05	42642.15
794.2591	145.2512	43006.65	42450.4
794.4008	147.4967	43276.4	42719.9
794.5425	149.7417	43227	42664.75
794.6842	151.9863	43243.55	42679.1
794.826	154.2304	43171.05	42603.95
794.9677	156.4739	43242.3	42668.1
795.1095	158.717	43454.7	42883.35
795.2513	160.9596	43399.5	42821.8
795.3931	163.2017	43274.25	42692.45
795.535	165.4433	43561.95	42979.25
795.6768	167.6844	43422.15	42835.55
795.8187	169.925	43611.8	43022.75
795.9606	172.1651	43444.7	42852.25
796.1025	174.4047	43528.35	42931.75
796.2445	176.6439	43568.6	42972.75
796.3864	178.8825	43553.55	42953.1
796.5284	181.1206	43774.75	43173.2
796.6704	183.3582	43774.35	43165.95
796.8124	185.5954	43708.4	43099.3
796.9544	187.832	43808.75	43196
797.0965	190.0681	43719.25	43104.35
797.2386	192.3037	44026.7	43407.5
797.3806	194.5388	44252.25	43629.45
797.5228	196.7734	43759.3	43134.4
797.6649	199.0075	44358.25	43735.45
797.807	201.2411	44311.65	43684.6
797.9492	203.4742	44614.5	43986.85
798.0914	205.7068	44671.25	44036.65
798.2336	207.9389	44672.2	44040.35
798.3758	210.1704	44693.75	44072.45
798.518	212.4015	44853.75	44238.25
798.6603	214.632	44722.8	44110.85
798.8025	216.862	44981.55	44371.2
798.9448	219.0915	44861.9	44249.6
799.0871	221.3205	44872.8	44257.1
799.2294	223.549	45126.45	44514.05
799.3718	225.777	45193.45	44579.7
799.5141	228.0044	45301.7	44680.6
799.6565	230.2314	45303.75	44679.95
799.7989	232.4578	45223.3	44596.35
799.9413	234.6837	45322.25	44685.8
800.0837	236.909	45754.55	45117.15
800.2262	239.1339	45280.3	44619.55
800.3687	241.3582	45487	44841.15
800.5111	243.582	45550.3	44874
800.6536	245.8053	45568.4	44903.85
800.7961	248.0281	45567.75	44909.1
800.9387	250.2503	45716.85	45056.35
801.0812	252.472	45551.2	44888.45
801.2238	254.6932	45708.75	45046.4
801.3664	256.9139	45641.5	44975.9
801.509	259.134	46030.35	45361.3
801.6516	261.3536	45706.15	45041.1
801.7942	263.5727	45930	45261.2
801.9369	265.7912	45815.8	45148.45
802.0795	268.0092	45952.1	45282.85
802.2222	270.2267	46080.5	45408.45
802.3649	272.4436	46000.2	45327.05
802.5076	274.6601	46146.05	45464.4
802.6504	276.8759	46213.2	45533.8
802.7931	279.0913	46148.1	45468.95
802.9359	281.3061	46228.3	45547.6
803.0787	283.5204	46290.05	45607.8
803.2215	285.7341	46326.3	45642.85
803.3643	287.9473	46505.15	45808.15
803.5071	290.16	46381.7	45690.75
803.6499	292.3721	46396.15	45714.4
803.7928	294.5837	46276.1	45591.55
803.9357	296.7947	46172.25	45486.2
804.0786	299.0052	46376.65	45689.85
804.2215	301.2152	46288.65	45598.25
804.3644	303.4246	46402.8	45716.1
804.5074	305.6334	46366.3	45678.85
804.6503	307.8418	46192.8	45498.65
804.7933	310.0495	46198.7	45506.65
804.9363	312.2568	46220.4	45526.2
805.0793	314.4635	46130.3	45434.3
805.2223	316.6696	46219.15	45524.4
805.3653	318.8752	46200.1	45494.05
805.5084	321.0802	45874.45	45174.8
805.6514	323.2847	46050.1	45349.25
805.7945	325.4887	45974.9	45273.3
805.9376	327.692	45894.8	45188.9
806.0807	329.8949	46126	45420.85
806.2238	332.0972	46068.95	45360.5
806.367	334.2989	46204.85	45494.15
806.5101	336.5001	46263.8	45554.25
806.6533	338.7007	46024.45	45314.25
806.7965	340.9008	46191.4	45479.95
806.9397	343.1003	46170.4	45455.2
807.0829	345.2992	46217.8	45501.4
807.2261	347.4976	46098.5	45379.4
807.3693	349.6955	46108.7	45388.7
807.5126	351.8927	46035	45313.25
807.6559	354.0895	46121.05	45390.55
807.7991	356.2856	46097.4	45373.3
807.9424	358.4812	46175.05	45449.3
808.0857	360.6763	46042.15	45314.2
808.2291	362.8707	46190.9	45462.45
808.3724	365.0646	46061.6	45327.9
808.5158	367.258	46058.8	45325.2
808.6591	369.4508	45879	45142.1
808.8025	371.643	46097.5	45361.35
808.9459	373.8346	45996.15	45255.2
809.0893	376.0257	46008.55	45268
809.2327	378.2162	45969.1	45226.8
809.3762	380.4062	45812.15	45072.4
809.5196	382.5956	45901.85	45164.4
809.6631	384.7844	45897.7	45164.05
809.8066	386.9726	45895.25	45159.7
809.9501	389.1603	45879.05	45146.85
810.0936	391.3474	45723.45	44941.2
810.2371	393.5339	45830	45094.55
810.3806	395.7199	45529.1	44795.1
810.5241	397.9052	45561.05	44826.85
810.6677	400.09	45660.7	44923.75
810.8113	402.2743	45790.75	45054.35
810.9548	404.4579	45637.15	44900.25
811.0984	406.641	45694.5	44953.65
811.2421	408.8235	45777.6	45033.9
811.3857	411.0054	45831	45085.5
811.5293	413.1868	45905.1	45157.8
811.673	415.3675	45812.25	45059.2
811.8166	417.5477	45813.75	45062.25
811.9603	419.7273	45756.6	45002
812.104	421.9064	45635.95	44876.1
812.2477	424.0848	45601.6	44845.45
812.3914	426.2627	45634.2	44876.8
812.5351	428.4399	45411.35	44652.7
812.6788	430.6166	45217.8	44455.1
812.8226	432.7928	45313.1	44549.4
812.9663	434.9683	45146.6	44384.9
813.1101	437.1432	45087.7	44321.25
813.2539	439.3176	45156.55	44392.75
813.3977	441.4914	44834	44069.25
813.5415	443.6645	44869.25	44102.35
813.6853	445.8371	44807.5	44039.1
813.8291	448.0091	44647.3	43879.3
813.973	450.1806	44577.35	43811.3
814.1168	452.3514	44516.95	43745.85
814.2607	454.5216	44422.45	43646.45
814.4046	456.6913	44426.4	43654.9
814.5485	458.8603	44498.1	43726.75
814.6924	461.0288	44326.05	43555.7
814.8363	463.1967	44419.7	43648.25
814.9802	465.3639	44444.2	43672.85
815.1241	467.5306	44115.55	43342.1
815.2681	469.6967	44222.7	43449.25
815.412	471.8622	44268.75	43495.4
815.556	474.0271	44133.6	43359.2
815.7	476.1914	44169.8	43394.35
815.844	478.3551	44180.85	43403.7
815.988	480.5182	44341.6	43565.75
816.132	482.6807	44099	43321.85
816.276	484.8426	44100.75	43326.05
816.4201	487.0039	44323.15	43544.25
816.5641	489.1647	44280	43499.6
816.7082	491.3248	44156.6	43377.7
816.8522	493.4843	44339.85	43560.45
816.9963	495.6432	44330.4	43549.6
817.1404	497.8015	44040	43255.6
817.2845	499.9592	44177.6	43396.6
817.4286	502.1163	44133.8	43349.75
817.5727	504.2728	44009.2	43225.25
817.7168	506.4287	44063.7	43281.6
817.861	508.5839	43899.95	43114.9
818.0051	510.7386	43937.3	43150.35
818.1493	512.8927	43999.4	43206.35
818.2935	515.0461	43952.5	43164.8
818.4377	517.199	44062.5	43274.9
818.5818	519.3512	43934	43146.3
818.726	521.5029	43971.85	43177.8
818.8703	523.6539	43973.45	43181
819.0145	525.8043	43848.6	43059.45
819.1587	527.9541	43921.6	43129.45
819.303	530.1033	43766.4	42974.55
819.4472	532.2519	43699.2	42907.85
819.5915	534.3999	43751.25	42955.25
819.7357	536.5472	43774.6	42979.55
819.88	538.694	43542.25	42750.3
820.0243	540.8401	43674.5	42879.65
820.1686	542.9856	43632.8	42838.3
820.3129	545.1305	43697.85	42900.6
820.4572	547.2748	43615.85	42816.75
820.6016	549.4185	43601.4	42802.95
820.7459	551.5615	43647.05	42849.6
820.8902	553.704	43616.05	42817.45
821.0346	555.8458	43489.45	42692.5
821.1789	557.987	43499.6	42700.75
821.3233	560.1276	43556.45	42755.85
821.4677	562.2675	43524.95	42726.1
821.6121	564.4069	43508.05	42708.65
821.7565	566.5456	43611.1	42813.15
821.9009	568.6837	43395.9	42597.25
822.0453	570.8212	43391.7	42591.35
822.1897	572.958	43148.95	42348.25
822.3342	575.0942	43178.95	42380.45
822.4786	577.2299	43049.3	42247.75
822.6231	579.3648	42993.25	42191.6
822.7675	581.4992	42828.85	42027.95
822.912	583.6329	42766.95	41963.2
823.0565	585.766	42696.7	41893.35
823.201	587.8985	42726.9	41922.7
823.3454	590.0304	42511.85	41694.65
823.4899	592.1616	42669.15	41860.3
823.6345	594.2922	42566.45	41759.05
823.779	596.4222	42357.75	41549.9
823.9235	598.5515	42359.65	41552.5
824.068	600.6802	42324.5	41515.4
824.2126	602.8083	42068.75	41260.1
824.3571	604.9358	42020	41209.2
824.5017	607.0626	42067.15	41256.75
824.6462	609.1888	41869.5	41058.3
824.7908	611.3144	41987.7	41177.55
824.9354	613.4393	41879.65	41067
825.08	615.5636	41808.55	40997.6
825.2246	617.6873	41924.9	41114.9
825.3692	619.8103	41823.15	41009.2
825.5138	621.9327	41895.05	41079.3
825.6584	624.0544	41901.75	41089.75
825.803	626.1756	41729.8	40915.4
825.9477	628.2961	41682.9	40867.55
826.0923	630.4159	41530.7	40717.3
826.237	632.5351	41471.55	40657.25
826.3816	634.6537	41691.4	40875.05
826.5263	636.7716	41407.2	40589.85
826.6709	638.8889	41472.75	40654.5
826.8156	641.0056	41457.7	40641.15
826.9603	643.1216	41470.45	40651.55
827.105	645.237	41566.85	40746.15
827.2497	647.3518	41312.6	40495.5
827.3944	649.4659	41366.4	40549.55
827.5391	651.5793	41276	40456.9
827.6838	653.6922	41272.5	40454.7
827.8285	655.8043	41058.8	40238.3
827.9733	657.9159	41265.25	40444.2
828.118	660.0268	40898.15	40075
828.2627	662.137	41068.25	40245.9
828.4075	664.2466	41042	40219.05
828.5522	666.3556	40942.5	40119.85
828.697	668.4639	40887.45	40062.15
828.8418	670.5716	40852.85	40029.85
828.9865	672.6786	40913.2	40088.2
829.1313	674.785	40693.55	39865.8
829.2761	676.8907	40630.3	39805.4
829.4209	678.9958	40667.1	39844.35
829.5657	681.1002	40640.95	39816.25
829.7105	683.204	40461.15	39631
829.8553	685.3072	40393.6	39566.35
830.0001	687.4097	40400.65	39575
830.1449	689.5115	40383.35	39553.15
830.2898	691.6127	40431.2	39605.05
830.4346	693.7132	40279.7	39454.15
830.5794	695.8131	40287	39438.35
830.7243	697.9123	40311.35	39481.05
830.8691	700.0109	40303.95	39474.55
831.014	702.1089	40162.8	39333.2
831.1588	704.2061	40189.75	39360.85
831.3037	706.3028	40156.2	39326.3
831.4486	708.3987	40162.15	39332.35
831.5935	710.4941	40102	39271.55
831.7383	712.5887	40145.6	39313.45
831.8832	714.6827	40070.25	39236.25
832.0281	716.7761	40110.2	39279.8
832.173	718.8688	40068.95	39235.7
832.3179	720.9608	39921.3	39085.3
832.4628	723.0522	39958.5	39123.45
832.6077	725.1429	39766.55	38933.6
832.7527	727.233	40044.9	39210.75
832.8976	729.3224	39695.9	38862.25
833.0425	731.4112	39849.45	39012.2
833.1874	733.4993	39819.1	38981.8
833.3324	735.5867	39708.1	38872.45
833.4773	737.6735	39561.15	38724.3
833.6222	739.7596	39376	38540
833.7672	741.845	39301.85	38464.8
833.9122	743.9298	39389.55	38552
834.0571	746.014	39203.6	38369.55
834.2021	748.0974	39051.65	38213.9
834.347	750.1802	39223.85	38387.2
834.492	752.2624	38866.9	38030.45
834.637	754.3439	38812.05	37973.05
834.782	756.4247	38793.55	37945.1
834.9269	758.5048	38596.95	37758
835.0719	760.5843	38603.25	37765
835.2169	762.6631	38575.5	37736.1
835.3619	764.7413	38480.25	37642.65
835.5069	766.8188	38546.1	37704.8
835.6519	768.8956	38535.2	37693.4
835.7969	770.9718	38600.4	37760.7
835.9419	773.0473	38379.75	37538.4
836.0869	775.1221	38257.7	37418.1
836.232	777.1962	38171.25	37331.1
836.377	779.2697	38034.7	37189.9
836.522	781.3426	38185.65	37325
836.667	783.4147	38165.15	37321.4
836.8121	785.4862	38149.45	37308.6
836.9571	787.557	37874.1	37031.9
837.1021	789.6271	37929.2	37086.65
837.2472	791.6966	37658.8	36817.25
837.3922	793.7654	37395.45	36552.75
837.5373	795.8335	37407.65	36564.15
837.6823	797.901	37309.2	36468.25
837.8274	799.9678	37225.8	36381.8
837.9724	802.0339	37138.4	36297.3
838.1175	804.0993	37119.7	36266.85
838.2626	806.1641	36973.35	36128.55
838.4076	808.2282	36868.25	36025.25
838.5527	810.2916	36828.65	35981.25
838.6978	812.3544	36915.35	36074.8
838.8428	814.4164	36639.3	35797.15
838.9879	816.4778	36732.85	35886.55
839.133	818.5385	36655.4	35811.15
839.2781	820.5986	36664.85	35819.25
839.4232	822.658	36715.6	35867.65
839.5682	824.7166	36666.35	35822.4
839.7133	826.7747	36627.7	35784.6
839.8584	828.832	36716.4	35869.45
840.0035	830.8886	36761.2	35912.7
840.1486	832.9446	36717.1	35866.95
840.2937	834.9999	36326.4	35482.45
840.4388	837.0545	36403.05	35554.15
840.5839	839.1085	36371.7	35524.05
840.729	841.1618	36219.55	35367.65
840.8741	843.2143	35953.6	35104.35
841.0192	845.2662	35832.9	34985.7
841.1643	847.3175	35887.6	35042
841.3095	849.368	35663.3	34814
841.4546	851.4179	35785.75	34938.3
841.5997	853.467	35531.4	34683.9
841.7448	855.5155	35559.1	34710.25
841.8899	857.5633	35503.45	34654.9
842.0351	859.6105	35403.3	34555.45
842.1802	861.6569	35429.35	34580.3
842.3253	863.7027	35256.25	34405.45
842.4704	865.7478	35265.95	34416.4
842.6156	867.7922	35182.9	34334
842.7607	869.8359	35216.6	34364.9
842.9058	871.8789	34978.1	34127.35
843.0509	873.9212	35103.95	34222.45
843.1961	875.9629	34982	34133
843.3412	878.0039	34986.7	34134.15
843.4863	880.0441	34878.9	34028.15
843.6315	882.0837	34916.55	34063.85
843.7766	884.1226	34912.35	34058.05
843.9218	886.1609	34895.25	34046.15
844.0669	888.1984	34903	34051.7
844.212	890.2352	35068.2	34216.75
844.3572	892.2714	34844.1	33986.35
844.5023	894.3069	34891.35	34037.5
844.6475	896.3416	34700.95	33848.45
844.7926	898.3757	34662	33810.9
844.9377	900.4091	34488.3	33636.3
845.0829	902.4418	34595.7	33738.85
845.228	904.4739	34449.95	33593.6
845.3732	906.5052	34475.9	33622.7
845.5183	908.5358	34401.7	33549.15
845.6635	910.5658	34274.9	33419.25
845.8086	912.595	34196.75	33343.75
845.9538	914.6236	33992.85	33137.8
846.0989	916.6515	34152.15	33299.15
846.2441	918.6786	33836.5	32981.25
846.3892	920.7051	33880.2	33024.6
846.5344	922.7309	33832.4	32976.25
846.6795	924.756	33777.2	32923.2
846.8246	926.7804	33719.45	32862.6
846.9698	928.8041	33464.25	32608.15
847.1149	930.8272	33560.05	32703.55
847.2601	932.8495	33454.45	32597.15
847.4052	934.8711	33358.5	32501.35
847.5504	936.892	33261.9	32404
847.6955	938.9123	33212.5	32355.6
847.8407	940.9318	33128.1	32272.05
847.9858	942.9506	33098.85	32241.65
848.131	944.9688	33016.4	32159.25
848.2761	946.9862	32856.8	31998.75
848.4213	949.003	32738.05	31879.35
848.5664	951.019	32542.8	31685.25
848.7115	953.0344	32497.65	31639.45
848.8567	955.0491	32438.45	31581.15
849.0018	957.063	32477.65	31619.95
849.147	959.0763	32505.85	31649.6
849.2921	961.0888	32311.85	31454.2
849.4373	963.1007	32353.9	31496.35
849.5824	965.1119	32267.9	31411.05
849.7275	967.1223	32214	31353.35
849.8727	969.1321	32197.6	31340.25
850.0178	971.1412	32104.2	31247.15
850.1629	973.1495	32045.05	31186.55
850.3081	975.1572	32023.3	31117
850.4532	977.1641	32012.1	31152.2
850.5983	979.1704	31888.85	31028.95
850.7435	981.1759	31809.05	30945.55
850.8886	983.1808	31772	30910.95
851.0337	985.1849	31654.2	30788.55
851.1788	987.1884	31597.25	30732.6
851.324	989.1911	31612.55	30748.65
851.4691	991.1932	31494.7	30634.25
851.6142	993.1945	31369.05	30509.5
851.7593	995.1951	31268.05	30406.95
851.9045	997.1951	31198.75	30331.85
852.0496	999.1943	31069.6	30209.25
852.1947	1001.1928	30973.65	30111.65
852.3398	1003.1906	30916.95	30055.45
852.4849	1005.1877	30899.45	30035.8
852.63	1007.1841	30751.4	29889.25
852.7751	1009.1798	30668.3	29808.6
852.9202	1011.1748	30565.6	29705.35
853.0653	1013.1691	30495.1	29632.4
853.2104	1015.1627	30328.95	29468.65
853.3555	1017.1556	30130.3	29270.1
853.5006	1019.1477	30079	29215
853.6457	1021.1392	29886.3	29024.35
853.7908	1023.1299	29760.55	28897.7
853.9359	1025.12	29683.45	28820.6
854.081	1027.1093	29557.35	28699.05
854.2261	1029.0979	29526.65	28666.9
854.3712	1031.0859	29427.2	28566
854.5163	1033.0731	29352.4	28490.55
854.6613	1035.0596	29302.6	28441.2
854.8064	1037.0454	29141.05	28277.7
854.9515	1039.0304	29085.65	28221.05
855.0965	1041.0148	28902.35	28038.9
855.2416	1042.9985	28874.1	28008.65
855.3867	1044.9814	28850.7	27989.65
855.5317	1046.9636	28690.8	27825.3
855.6768	1048.9452	28603.85	27741.75
855.8219	1050.926	28605.5	27742.7
855.9669	1052.9061	28514.05	27650.9
856.112	1054.8855	28448.55	27585.5
856.257	1056.8642	28407.05	27542.95
856.4021	1058.8421	28407.95	27540.15
856.5471	1060.8194	28353.55	27489.85
856.6921	1062.7959	28282.45	27419.1
856.8372	1064.7717	28200.6	27335.2
856.9822	1066.7469	28168.65	27301.95
857.1272	1068.7213	28097.85	27230.1
857.2723	1070.695	28118.9	27253.85
857.4173	1072.6679	27986.8	27123
857.5623	1074.6402	28029.35	27164.7
857.7073	1076.6117	27992.95	27123.1
857.8523	1078.5826	27950.5	27085.6
857.9973	1080.5527	27851.95	26984.75
858.1423	1082.5221	27712.9	26845.15
858.2873	1084.4908	27620.4	26755.7
858.4323	1086.4587	27542.3	26673.4
858.5773	1088.426	27498.55	26633.95
858.7223	1090.3925	27403.9	26534.1
858.8673	1092.3584	27397.55	26532.5
859.0123	1094.3235	27291.8	26425.1
859.1573	1096.2879	27211.9	26346.45
859.3022	1098.2515	27225.6	26359.05
859.4472	1100.2145	27263.1	26398.95
859.5922	1102.1767	27213.85	26345.3
859.7371	1104.1382	27190.6	26322.7
859.8821	1106.099	27157.9	26289.8
860.027	1108.0591	27162.95	26295.85
860.172	1110.0185	27149.75	26281.75
860.3169	1111.9771	27141.7	26274.3
860.4619	1113.9351	27067.6	26200.1
860.6068	1115.8923	27054.9	26187.05
860.7517	1117.8488	27051.25	26181.8
860.8967	1119.8045	26927.5	26060.6
861.0416	1121.7596	26854.25	25985.3
861.1865	1123.7139	26606.75	25740
861.3314	1125.6675	26471.2	25604.05
861.4763	1127.6204	26502.35	25633.85
861.6212	1129.5726	26443.65	25573.2
861.7661	1131.524	26405	25537.1
861.911	1133.4748	26311.95	25445.15
862.0559	1135.4248	26200.95	25333.85
862.2008	1137.3741	26130.5	25264.2
862.3457	1139.3226	26049.6	25180.25
862.4905	1141.2705	26033.9	25165.05
862.6354	1143.2176	25892.05	25019
862.7803	1145.164	25852.35	24982.2
862.9251	1147.1097	25878.2	25009.8
863.07	1149.0546	25781.7	24912.3
863.2148	1150.9989	25763	24893.75
863.3597	1152.9424	25777.1	24908.5
863.5045	1154.8852	25682.2	24814.4
863.6493	1156.8272	25622.1	24755.05
863.7942	1158.7686	25638.5	24762.45
863.939	1160.7092	25507.35	24638.2
864.0838	1162.6491	25427.35	24556.25
864.2286	1164.5883	25411.8	24543.2
864.3734	1166.5267	25422	24553.1
864.5182	1168.4644	25405	24535.4
864.663	1170.4014	25395.1	24520.15
864.8078	1172.3377	25469.95	24602.15
864.9526	1174.2732	25444.15	24574.8
865.0974	1176.2081	25546.5	24677.95
865.2421	1178.1421	25651.6	24778.95
865.3869	1180.0755	25715.9	24849.65
865.5317	1182.0082	25680.9	24812.6
865.6764	1183.9401	25690.45	24820.45
865.8212	1185.8713	25525.4	24656.15
865.9659	1187.8017	25382.1	24513.35
866.1106	1189.7315	25210.2	24342.05
866.2554	1191.6605	24957.9	24089.95
866.4001	1193.5888	24833.7	23964.2
866.5448	1195.5163	24779.4	23907.3
866.6895	1197.4432	24643.55	23771.65
866.8342	1199.3693	24558.75	23688.45
866.9789	1201.2947	24477.45	23604.75
867.1236	1203.2193	24377.25	23505.65
867.2683	1205.1432	24361.75	23490.5
867.413	1207.0664	24280.3	23408.15
867.5576	1208.9889	24211.1	23337.95
867.7023	1210.9106	24120.95	23251.5
867.847	1212.8316	24018.15	23149.75
867.9916	1214.7519	24016.7	23137.3
868.1363	1216.6715	23971.25	23100.4
868.2809	1218.5903	23968.2	23098.65
868.4255	1220.5084	23902.15	23031.85
868.5701	1222.4257	23927.65	23054.75
868.7148	1224.3424	23817.95	22947.5
868.8594	1226.2583	23797.35	22922.95
869.004	1228.1735	23789.15	22914.15
869.1486	1230.0879	23733.9	22863.1
869.2932	1232.0016	23738.05	22868.8
869.4377	1233.9146	23715.45	22841.75
869.5823	1235.8269	23667.65	22796.05
869.7269	1237.7384	23669.7	22797.75
869.8715	1239.6492	23575.2	22704.1
870.016	1241.5592	23557.95	22684.9
870.1606	1243.4686	23524.2	22652.5
870.3051	1245.3772	23560.15	22691.3
870.4496	1247.285	23605.05	22732.45
870.5941	1249.1922	23636.4	22764.25
870.7387	1251.0986	23702.55	22831.5
870.8832	1253.0042	23721.3	22848.95
871.0277	1254.9092	23788.4	22916.3
871.1722	1256.8134	23828.4	22959
871.3167	1258.7169	23935.5	23062.8
871.4611	1260.6196	23927.25	23055.9
871.6056	1262.5216	23972.55	23099.6
871.7501	1264.4229	23886.35	23013.9
871.8945	1266.3234	23865.5	22993.9
872.039	1268.2232	23755.5	22883
872.1834	1270.1223	23648	22776
872.3278	1272.0207	23576.95	22703.4
872.4723	1273.9183	23475.9	22598.25
872.6167	1275.8151	23413.6	22541.6
872.7611	1277.7113	23443.55	22569.8
872.9055	1279.6067	23478.35	22606.1
873.0499	1281.5014	23656.9	22781.9
873.1943	1283.3953	23788.75	22913.35
873.3386	1285.2885	24028.7	23158.05
873.483	1287.181	24192.95	23320.05
873.6274	1289.0727	24286.65	23414.85
873.7717	1290.9637	24130.85	23257.65
873.9161	1292.854	24027.35	23154.15
874.0604	1294.7435	23848.35	22974.5
874.2047	1296.6323	23693.35	22818.65
874.349	1298.5204	23527.5	22650.1
874.4933	1300.4077	23434.75	22561.1
874.6376	1302.2943	23340.9	22467.45
874.7819	1304.1802	23313.9	22442.45
874.9262	1306.0653	23204.5	22330.85
875.0705	1307.9497	23136.9	22262.95
875.2147	1309.8333	23084.8	22212.75
875.359	1311.7162	23043.6	22169.4
875.5032	1313.5984	23008.7	22134.6
875.6475	1315.4798	22874.55	21999.25
875.7917	1317.3605	22882.8	22004.4
875.9359	1319.2405	22813.2	21938.85
876.0801	1321.1197	22804.8	21930.4
876.2243	1322.9982	22653.6	21776
876.3685	1324.876	22620.95	21746.85
876.5127	1326.753	22473.95	21600.65
876.6569	1328.6293	22391.5	21515.8
876.801	1330.5048	22308.75	21432.65
876.9452	1332.3796	22137.9	21265.35
877.0893	1334.2537	22085.2	21185.05
877.2335	1336.127	21930.85	21058.7
877.3776	1337.9996	21892.25	21018.65
877.5217	1339.8714	21841.55	20968.7
877.6658	1341.7426	21784.65	20867.8
877.8099	1343.6129	21716.55	20841.5
877.954	1345.4826	21683.65	20810.8
878.0981	1347.3515	21648.25	20771.8
878.2422	1349.2196	21562.55	20687.1
878.3862	1351.087	21570.6	20696.1
878.5303	1352.9537	21556.05	20680.95
878.6743	1354.8197	21516.95	20643.45
878.8184	1356.6849	21524.9	20648.7
878.9624	1358.5493	21485.35	20612.05
879.1064	1360.4131	21483.1	20608.25
879.2504	1362.276	21458.15	20584.8
879.3944	1364.1383	21486.6	20613.2
879.5384	1365.9998	21451.1	20571.05
879.6823	1367.8606	21407.45	20531.6
879.8263	1369.7206	21312.9	20438.2
879.9702	1371.5799	21270.65	20394.45
880.1142	1373.4384	21222.4	20347.6
880.2581	1375.2962	21208.5	20333.45
880.402	1377.1533	21018.05	20141.8
880.5459	1379.0096	20932.9	20057.95
880.6898	1380.8652	20868.5	19991.85
880.8337	1382.7201	20749	19873.55
880.9776	1384.5742	20612.45	19738.65
881.1215	1386.4275	20514.75	19637.6
881.2653	1388.2802	20415.7	19542.95
881.4092	1390.132	20376.2	19501.5
881.553	1391.9832	20353.2	19476.8
881.6968	1393.8336	20220.4	19345.2
881.8406	1395.6832	20219.6	19343.75
881.9844	1397.5322	20097.8	19221.55
882.1282	1399.3803	20057.75	19177.6
882.272	1401.2278	19928.2	19052.05
882.4158	1403.0745	19924.75	19048.45
882.5595	1404.9204	19804.45	18931
882.7033	1406.7656	19791.5	18916.5
882.847	1408.6101	19687.35	18812.85
882.9908	1410.4538	19661.4	18787.4
883.1345	1412.2968	19564.2	18689.4
883.2782	1414.139	19512.65	18636.95
883.4219	1415.9805	19508.45	18634.4
883.5656	1417.8213	19443	18546.15
883.7092	1419.6613	19378.7	18503.9
883.8529	1421.5006	19383.45	18507.45
883.9965	1423.3391	19397.6	18520.9
884.1402	1425.1769	19377.7	18501.2
884.2838	1427.0139	19435.15	18558.3
884.4274	1428.8502	19516.85	18640.5
884.571	1430.6858	19533.05	18657.4
884.7146	1432.5206	19462.6	18587.95
884.8582	1434.3547	19488.2	18611.1
885.0018	1436.188	19457.8	18582.5
885.1453	1438.0206	19422.8	18543.65
885.2889	1439.8524	19330.35	18455.4
885.4324	1441.6835	19287.3	18410.55
885.5759	1443.5139	19258.75	18378.45
885.7194	1445.3435	19184.1	18307.8
885.8629	1447.1724	19213.2	18336.85
886.0064	1449.0005	19172.35	18298.3
886.1499	1450.8279	19159.25	18281.5
886.2933	1452.6545	19099.85	18225.3
886.4368	1454.4804	19113.2	18237.95
886.5802	1456.3056	19077.55	18191.55
886.7237	1458.13	19013.8	18138.65
886.8671	1459.9536	18995.4	18119.6
887.0105	1461.7766	18920.7	18046.95
887.1539	1463.5987	18857.95	17980.65
887.2972	1465.4202	18778.8	17900.85
887.4406	1467.2409	18621.1	17745.5
887.584	1469.0608	18610.3	17735.55
887.7273	1470.88	18533.45	17658.3
887.8706	1472.6984	18470.5	17594.4
888.0139	1474.5161	18375.45	17496.55
888.1572	1476.3331	18329.65	17454.1
888.3005	1478.1493	18295.8	17419.75
888.4438	1479.9648	18283.15	17408.1
888.5871	1481.7795	18183.05	17305.15
888.7303	1483.5935	18212.15	17336.8
888.8736	1485.4067	18188.9	17313.3
889.0168	1487.2192	18196.75	17318.4
889.16	1489.031	18153.35	17275.3
889.3032	1490.842	18099.8	17225.35
889.4464	1492.6522	18090.1	17214.5
889.5896	1494.4618	18046.1	17170.45
889.7327	1496.2705	18000.35	17122.9
889.8759	1498.0785	17976.35	17098.55
890.019	1499.8858	17916.65	17039.7
890.1622	1501.6924	17886.7	17010.25
890.3053	1503.4981	17863.5	16986.2
890.4484	1505.3032	17797.6	16921.25
890.5914	1507.1075	17760.35	16881.95
890.7345	1508.911	17755.1	16880.6
890.8776	1510.7138	17680.35	16804.8
891.0206	1512.5159	17630.7	16753.9
891.1637	1514.3172	17578.25	16701.15
891.3067	1516.1178	17502.6	16624.8
891.4497	1517.9176	17474.4	16594.15
891.5927	1519.7166	17423.05	16547.25
891.7357	1521.515	17359.1	16476.9
891.8786	1523.3126	17310.25	16433.95
892.0216	1525.1094	17268.55	16389.9
892.1645	1526.9055	17203.55	16328
892.3074	1528.7008	17134.6	16257.3
892.4503	1530.4954	17086.5	16209.45
892.5932	1532.2893	17032.3	16158
892.7361	1534.0824	16931.6	16050.4
892.879	1535.8747	16933.05	16056.6
893.0218	1537.6663	16896.8	16019.35
893.1647	1539.4572	16846.1	15967.45
893.3075	1541.2473	16789.7	15912.05
893.4503	1543.0367	16725.75	15850.15
893.5931	1544.8253	16674.5	15794.05
893.7359	1546.6132	16641.45	15760.15
893.8787	1548.4003	16554.1	15666.4
894.0214	1550.1867	16557.8	15672.4
894.1642	1551.9723	16559.15	15677
894.3069	1553.7572	16490.2	15611.8
894.4496	1555.5414	16476.4	15598.75
894.5923	1557.3247	16436	15558.9
894.735	1559.1074	16465.85	15590.5
894.8777	1560.8893	16437.1	15561.45
895.0204	1562.6705	16415.5	15539
895.163	1564.4509	16393.6	15519.4
895.3056	1566.2305	16379.2	15505.25
895.4482	1568.0094	16419.25	15541.95
895.5908	1569.7876	16370.55	15491.3
895.7334	1571.565	16312.5	15435.5
895.876	1573.3417	16290.5	15412.9
896.0186	1575.1176	16255.8	15378.6
896.1611	1576.8928	16233.85	15356.8
896.3036	1578.6672	16218.8	15343.55
896.4461	1580.4409	16213.45	15339.4
896.5886	1582.2138	16171.05	15293.55
896.7311	1583.986	16170.85	15293.7
896.8736	1585.7575	16207	15331.15
897.0161	1587.5282	16186.6	15309.5
897.1585	1589.2981	16216.15	15340.85
897.3009	1591.0673	16139.15	15262.95
897.4433	1592.8358	16152.1	15276
897.5857	1594.6035	16131.25	15253.55
897.7281	1596.3704	16020.85	15143.8
897.8705	1598.1366	15932.5	15056.25
898.0128	1599.9021	15880.1	15004.85
898.1551	1601.6668	15803.3	14924.55
898.2975	1603.4308	15728.8	14851.5
898.4398	1605.194	15710.2	14828.55
898.5821	1606.9564	15673.7	14798.05
898.7243	1608.7182	15689.7	14809.35
898.8666	1610.4791	15761.95	14886.8
899.0088	1612.2394	15870.2	14994.15
899.1511	1613.9988	15913.45	15036.6
899.2933	1615.7576	15986.15	15110.65
899.4355	1617.5156	16026.8	15144.15
899.5776	1619.2728	15954.8	15077.3
899.7198	1621.0293	15828.25	14952.35
899.862	1622.785	15662.9	14781.9
900.0041	1624.54	15458.15	14578.35
900.1462	1626.2942	15263.95	14386.5
900.2883	1628.0477	15044.95	14165.4
900.4304	1629.8005	14929.1	14049.4
900.5725	1631.5525	14786.8	13910.65
900.7145	1633.3037	14642	13765.1
900.8566	1635.0542	14629.4	13753.6
900.9986	1636.804	14519.25	13640.8
901.1406	1638.553	14509.4	13542.3
901.2826	1640.3013	14348.7	13471.45
901.4245	1642.0488	14286.5	13408.75
901.5665	1643.7955	14236.9	13362.2
901.7085	1645.5416	14166.85	13288.5
901.8504	1647.2868	14145.35	13269.6
901.9923	1649.0313	14061.55	13185.2
902.1342	1650.7751	14040.1	13159.65
902.2761	1652.5181	14013.25	13136.5
902.4179	1654.2604	13956.5	13079
902.5598	1656.0019	13913.25	13036.55
902.7016	1657.7427	13890.3	13012.25
902.8434	1659.4828	13918.45	13041.55
902.9852	1661.222	13864.25	12987.75
903.127	1662.9606	13911.6	13034.8
903.2687	1664.6984	13901.55	13023.05
903.4105	1666.4354	13910.4	13032.6
903.5522	1668.1717	13817.05	12940.15
903.6939	1669.9072	13730.6	12854.05
903.8356	1671.642	13636.95	12757.75
903.9773	1673.3761	13566.7	12689.75
904.119	1675.1094	13470.9	12594.35
904.2606	1676.8419	13389.45	12513.25
904.4022	1678.5737	13325.65	12447.85
904.5439	1680.3048	13257.7	12380.6
904.6855	1682.0351	13213.35	12337
904.827	1683.7646	13114.25	12233.55
904.9686	1685.4934	13065.05	12188.6
905.1101	1687.2215	13039.15	12162.1
905.2517	1688.9488	12938.55	12062.3
905.3932	1690.6754	12886.65	12011.4
905.5347	1692.4012	12873.45	11997.25
905.6761	1694.1263	12830.95	11955.25
905.8176	1695.8506	12798.1	11920.55
905.9591	1697.5742	12768.6	11891.5
906.1005	1699.297	12701.55	11823.2
906.2419	1701.0191	12634.55	11758.7
906.3833	1702.7404	12576.2	11699.9
906.5246	1704.461	12526.2	11648.35
906.666	1706.1808	12467.55	11590.4
906.8073	1707.8999	12464.1	11585.5
906.9487	1709.6182	12395.7	11517.65
907.09	1711.3358	12356.4	11479.7
907.2313	1713.0527	12344.85	11469.05
907.3725	1714.7688	12304.3	11420.65
907.5138	1716.4841	12240.65	11359.2
907.655	1718.1987	12244.5	11363.75
907.7962	1719.9126	12177.1	11300.4
907.9374	1721.6257	12152.2	11272.85
908.0786	1723.338	12100.15	11222.75
908.2198	1725.0496	12061.05	11183.15
908.3609	1726.7605	12043.2	11165.5
908.502	1728.4706	12024.3	11147.3
908.6431	1730.18	11988.25	11108.75
908.7842	1731.8886	11941.35	11063.95
908.9253	1733.5964	11960.9	11062.1
909.0664	1735.3036	11917.4	11037.5
909.2074	1737.0099	11898.85	11020.2
909.3484	1738.7156	11888.55	11011.3
909.4894	1740.4204	11835.85	10955.45
909.6304	1742.1246	11825.2	10945.7
909.7714	1743.8279	11796.75	10919.15
909.9123	1745.5306	11816.15	10937.85
910.0532	1747.2325	11748.85	10873.1
910.1941	1748.9336	11728.8	10852.45
910.335	1750.634	11665.15	10786.45
910.4759	1752.3336	11667.6	10792.05
910.6168	1754.0325	11642.55	10765.8
910.7576	1755.7307	11598.9	10721.85
910.8984	1757.4281	11624.2	10747
911.0392	1759.1247	11582.2	10696.45
911.18	1760.8206	11579.55	10698.45
911.3208	1762.5158	11563.55	10683.45
911.4615	1764.2102	11515	10637.15
911.6022	1765.9039	11484.45	10607.85
911.7429	1767.5968	11448.9	10572.45
911.8836	1769.289	11432.55	10554.4
912.0243	1770.9804	11397.1	10518.05
912.1649	1772.6711	11393.8	10516.45
912.3056	1774.361	11364.95	10488.5
912.4462	1776.0502	11362	10482.85
912.5868	1777.7386	11337.15	10455.35
912.7274	1779.4263	11316.8	10439.95
912.8679	1781.1132	11260.85	10381.75
913.0084	1782.7994	11253.65	10374.9
913.149	1784.4849	11231	10354.7
913.2895	1786.1696	11212.15	10315.2
913.4299	1787.8535	11167.9	10290.15
913.5704	1789.5367	11153.15	10273.25
913.7108	1791.2192	11113.65	10234.8
913.8513	1792.9009	11076.95	10179.45
913.9917	1794.5818	11050.05	10171.65
914.132	1796.2621	11029.5	10152.35
914.2724	1797.9415	11027.15	10149.15
914.4128	1799.6202	10986.35	10109.75
914.5531	1801.2982	10939.2	10059.95
914.6934	1802.9755	10948.2	10070.9
914.8337	1804.6519	10941.55	10063.1
914.9739	1806.3277	10868.55	9992.35
915.1142	1808.0027	10837.6	9960.55
915.2544	1809.6769	10809.65	9932.1
915.3946	1811.3504	10814.45	9936
915.5348	1813.0231	10786.15	9909
915.675	1814.6951	10768.9	9890.8
915.8151	1816.3664	10768.8	9888.75
915.9553	1818.0369	10741	9862.75
916.0954	1819.7067	10695.15	9818.75
916.2355	1821.3757	10690.9	9812.6
916.3755	1823.044	10646.55	9768.1
916.5156	1824.7115	10622	9743.85
916.6556	1826.3783	10610.65	9734.75
916.7956	1828.0443	10574.25	9698.85
916.9356	1829.7096	10540.3	9660.9
917.0756	1831.3741	10538	9656.4
917.2155	1833.0379	10525.5	9647.65
917.3555	1834.701	10487.3	9606.3
917.4954	1836.3633	10461.2	9582.45
917.6353	1838.0248	10450.6	9571.45
917.7751	1839.6856	10417	9540.95
917.915	1841.3457	10403.95	9527.4
918.0548	1843.005	10397.05	9517.95
918.1946	1844.6636	10357.1	9480.05
918.3344	1846.3214	10322.8	9445.4
918.4742	1847.9785	10336.1	9459.05
918.6139	1849.6349	10306.85	9427.3
918.7537	1851.2904	10285.65	9397.3
918.8934	1852.9453	10242.15	9366.3
919.0331	1854.5994	10242.8	9361.75
919.1727	1856.2528	10208.35	9324.05
919.3124	1857.9054	10187.2	9308.75
919.452	1859.5572	10197.85	9319.1
919.5916	1861.2083	10166.35	9288.3
919.7312	1862.8587	10179.8	9303.35
919.8708	1864.5084	10138.7	9260.5
920.0103	1866.1572	10095	9218.4
920.1498	1867.8054	10057.4	9180.85
920.2893	1869.4528	10038.15	9160.05
920.4288	1871.0994	9998.25	9120.15
920.5683	1872.7453	10001.45	9122.6
920.7077	1874.3905	9998.1	9114.75
920.8471	1876.0349	9952.9	9075
920.9865	1877.6786	9944.15	9065
921.1259	1879.3215	9934.45	9057.3
921.2653	1880.9637	9914.45	9034.55
921.4046	1882.6051	9894.05	9018.4
921.5439	1884.2458	9890.85	9011.45
921.6832	1885.8858	9831.2	8951.15
921.8225	1887.525	9836.7	8958.5
921.9617	1889.1634	9781.15	8903.75
922.101	1890.8011	9758.85	8881.4
922.2402	1892.4381	9757.75	8882.1
922.3794	1894.0743	9722.8	8844.55
922.5185	1895.7098	9735.65	8858.85
922.6577	1897.3446	9708.2	8828.75
922.7968	1898.9786	9683.45	8801.2
922.9359	1900.6118	9664.35	8788.2
923.075	1902.2443	9591.8	8711.1
923.214	1903.8761	9606	8727.75
923.3531	1905.5071	9539.7	8660.15
923.4921	1907.1374	9544.05	8665.65
923.6311	1908.7669	9517.4	8639.45
923.77	1910.3957	9480.25	8604.2
923.909	1912.0237	9436.6	8558.05
924.0479	1913.651	9431.9	8552.1
924.1868	1915.2776	9402.2	8525.95
924.3257	1916.9034	9346.1	8468.75
924.4646	1918.5285	9320.6	8444.25
924.6034	1920.1528	9272.85	8394.4
924.7422	1921.7764	9281.45	8404.7
924.881	1923.3992	9263.4	8386.3
925.0198	1925.0213	9204.6	8325.85
925.1586	1926.6427	9147.75	8271.4
925.2973	1928.2633	9331.5	8243.2
925.436	1929.8832	9148.65	8268.05
925.5747	1931.5023	9117.8	8239.95
925.7134	1933.1207	9094.55	8216.95
925.852	1934.7383	9057.8	8177.85
925.9906	1936.3552	9036.15	8159.75
926.1292	1937.9714	9020	8142.2
926.2678	1939.5868	8972.3	8093.7
926.4064	1941.2015	8929.65	8050.3
926.5449	1942.8154	8926.8	8049.8
926.6834	1944.4286	8897.85	8018.8
926.8219	1946.041	8867	7967.6
926.9604	1947.6528	8815.3	7931.5
927.0988	1949.2637	8801.25	7922.4
927.2372	1950.8739	8772.55	7892.9
927.3756	1952.4834	8762.4	7882.8
927.514	1954.0921	8741.45	7862.3
927.6523	1955.7001	8730	7847.65
927.7907	1957.3074	8715.75	7840.25
927.929	1958.9139	8676.75	7799.5
928.0673	1960.5197	8653.15	7772.85
928.2055	1962.1247	8600.45	7723.8
928.3438	1963.729	8581	7702.7
928.482	1965.3325	8564.55	7662.7
928.6202	1966.9353	8535.35	7658.45
928.7584	1968.5374	8512.1	7632.6
928.8965	1970.1387	8473.55	7593.65
929.0346	1971.7393	8460.85	7580.65
929.1727	1973.3392	8431.7	7553.35
929.3108	1974.9383	8402.45	7524.4
929.4489	1976.5366	8352.85	7476.7
929.5869	1978.1342	8384.65	7508.15
929.7249	1979.7311	8386.15	7506.8
929.8629	1981.3273	8346	7468.1
930.0009	1982.9227	8330.9	7450.7
930.1388	1984.5173	8317.05	7440.25
930.2767	1986.1112	8260.55	7382.55
930.4146	1987.7044	8255.3	7378.4
930.5525	1989.2968	8242.05	7362.55
930.6904	1990.8885	8200.95	7318.45
930.8282	1992.4795	8183.8	7305.3
930.966	1994.0697	8170.15	7290.95
931.1038	1995.6592	8141.9	7265.45
931.2415	1997.2479	8143.4	7263.5
931.3793	1998.8359	8109.55	7231
931.517	2000.4232	8074.45	7197.25
931.6547	2002.0097	8050.05	7173.45
931.7923	2003.5955	8030.15	7152.3
931.93	2005.1805	8005.6	7126.25
932.0676	2006.7648	8021.45	7143.8
932.2052	2008.3484	7977.8	7099.9
932.3427	2009.9312	8000.4	7121.75
932.4803	2011.5133	7945.15	7067.7
932.6178	2013.0946	7947.95	7069.9
932.7553	2014.6752	7898.9	7023.15
932.8928	2016.2551	7876.15	6999.3
933.0302	2017.8342	7884.05	7006.7
933.1676	2019.4126	7871.4	6994.2
933.305	2020.9902	7815.9	6940.1
933.4424	2022.5672	7806.6	6928.7
933.5798	2024.1433	7805.95	6920.85
933.7171	2025.7188	7761.25	6883.8
933.8544	2027.2935	7772.6	6890.55
933.9917	2028.8674	7727.3	6851.45
934.129	2030.4406	7718.05	6840.45
934.2662	2032.0131	7684.05	6807.9
934.4034	2033.5849	7668.55	6782.55
934.5406	2035.1559	7672.65	6796
934.6778	2036.7261	7651.5	6774.95
934.8149	2038.2957	7614.85	6735.95
934.952	2039.8645	7599.6	6721.5
935.0891	2041.4325	7598.8	6719.35
935.2262	2042.9998	7590.35	6713.2
935.3632	2044.5664	7577.35	6699.1
935.5002	2046.1323	7571.35	6693.45
935.6372	2047.6974	7519.55	6643.45
935.7742	2049.2617	7527.85	6651.4
935.9111	2050.8254	7541.1	6643.25
936.048	2052.3883	7519.1	6641
936.1849	2053.9504	7475.85	6596.2
936.3218	2055.5118	7466.8	6588.75
936.4586	2057.0725	7431.1	6547.3
936.5955	2058.6325	7422.35	6543.65
936.7323	2060.1917	7396	6518.65
936.869	2061.7502	7398.05	6519.1
937.0058	2063.3079	7388.35	6512.25
937.1425	2064.8649	7355.4	6474.6
937.2792	2066.4212	7350.5	6472.7
937.4159	2067.9767	7361.25	6484
937.5525	2069.5315	7304.45	6427.45
937.6891	2071.0856	7291.5	6412.4
937.8257	2072.6389	7279.15	6400.1
937.9623	2074.1915	7236.35	6360.3
938.0989	2075.7433	7207.25	6328.35
938.2354	2077.2945	7183.75	6307.65
938.3719	2078.8448	7171.9	6296.25
938.5084	2080.3945	7155.75	6279.9
938.6448	2081.9434	7147.7	6271.15
938.7812	2083.4916	7149.85	6274.05
938.9176	2085.039	7139.8	6260.8
939.054	2086.5857	7099.8	6220.5
939.1903	2088.1317	7092.4	6214.4
939.3267	2089.677	7053.35	6175.05
939.463	2091.2215	7064.65	6187.65
939.5992	2092.7652	7039.6	6161.6
939.7355	2094.3083	7044.55	6166.8
939.8717	2095.8506	7029.05	6152.35
940.0079	2097.3921	7049.05	6173.65
940.1441	2098.933	7003.75	6127.55
940.2802	2100.4731	7001.8	6125.4
940.4163	2102.0124	7004.85	6109.1
940.5524	2103.5511	6999.75	6125
940.6885	2105.089	6975.1	6096.65
940.8245	2106.6261	6960	6082.3
940.9606	2108.1626	6922.35	6042.65
941.0965	2109.6983	6940.65	6034.6
941.2325	2111.2332	6925.3	6049.5
941.3684	2112.7675	6896.15	6017.5
941.5044	2114.301	6887.75	6008.7
941.6403	2115.8337	6888.65	6009.65
941.7761	2117.3657	6865.15	5987.95
941.912	2118.897	6846.25	5967.8
942.0478	2120.4276	6852.4	5968.95
942.1835	2121.9575	6816.55	5938.5
942.3193	2123.4866	6805.8	5926.25
942.455	2125.0149	6791.05	5909.75
942.5907	2126.5426	6733.05	5854.65
942.7264	2128.0695	6756	5874.75
942.8621	2129.5956	6736.85	5860.8
942.9977	2131.1211	6717.45	5835.5
943.1333	2132.6458	6707.35	5831.5
943.2689	2134.1698	6722	5843.6
943.4044	2135.693	6691.1	5812.15
943.54	2137.2155	6686.55	5806.35
943.6755	2138.7373	6654.8	5776.2
943.8109	2140.2584	6633.65	5755.65
943.9464	2141.7787	6622.5	5740.15
944.0818	2143.2983	6594.1	5717.6
944.2172	2144.8171	6587.2	5711.25
944.3526	2146.3353	6571.25	5691.85
944.4879	2147.8527	6535.9	5661.3
944.6232	2149.3693	6527.45	5651.05
944.7585	2150.8853	6531.7	5653.3
944.8938	2152.4005	6500.4	5622.45
945.029	2153.9149	6486.85	5608.05
945.1642	2155.4287	6476	5598.55
945.2994	2156.9417	6458.4	5579.75
945.4346	2158.454	6410.7	5532.25
945.5697	2159.9655	6417.7	5540.35
945.7048	2161.4764	6404.2	5528.55
945.8399	2162.9865	6408.05	5530.1
945.9749	2164.4958	6394	5514.8
946.1099	2166.0045	6364.9	5482.15
946.2449	2167.5124	6362.2	5485.1
946.3799	2169.0195	6344.4	5467.15
946.5148	2170.526	6349.35	5470.4
946.6498	2172.0317	6326	5447.85
946.7846	2173.5367	6327.55	5449.05
946.9195	2175.0409	6292.45	5416.15
947.0543	2176.5445	6287.65	5412.55
947.1891	2178.0473	6252.9	5375.6
947.3239	2179.5494	6233.65	5353.15
947.4587	2181.0507	6221.65	5343
947.5934	2182.5513	6191.55	5316.15
947.7281	2184.0512	6192.3	5313.95
947.8628	2185.5504	6190.55	5313.1
947.9974	2187.0488	6152.55	5275.6
948.132	2188.5465	6128.55	5249
948.2666	2190.0435	6147.2	5270.75
948.4012	2191.5397	6081.5	5204.5
948.5357	2193.0353	6085.85	5207.9
948.6702	2194.5301	6083.3	5205.75
948.8047	2196.0241	6046	5169.6
948.9392	2197.5175	6024.8	5148.15
949.0736	2199.0101	6028.8	5147.15
949.208	2200.502	5990.65	5114.65
949.3424	2201.9931	5976.1	5096.9
949.4767	2203.4835	5971	5093.1
949.611	2204.9733	5973	5089.2
949.7453	2206.4622	5942.55	5066.45
949.8796	2207.9505	5914.9	5034.35
950.0138	2209.438	5890.9	5016.15
950.148	2210.9248	5870.05	4992.35
950.2822	2212.4109	5876	4999.25
950.4164	2213.8962	5844.5	4964.1
950.5505	2215.3809	5836.1	4957.3
950.6846	2216.8648	5831.45	4952.8
950.8186	2218.3479	5790.55	4908.1
950.9527	2219.8304	5796.5	4917.15
951.0867	2221.3121	5784.3	4902.8
951.2207	2222.7931	5755.3	4876.3
951.3546	2224.2733	5743.9	4864
951.4886	2225.7529	5727.35	4849.35
951.6225	2227.2317	5704.3	4823.7
951.7563	2228.7098	5691.2	4816.15
951.8902	2230.1872	5671.25	4796.65
952.024	2231.6638	5663.5	4786.25
952.1578	2233.1397	5640.55	4757.15
952.2916	2234.6149	5634.05	4754.95
952.4253	2236.0894	5596.75	4718.35
952.559	2237.5632	5587.4	4705.95
952.6927	2239.0362	5574.7	4698.4
952.8263	2240.5085	5562.85	4685.5
952.9599	2241.9801	5547.25	4670.1
953.0935	2243.4509	5541.9	4664.75
953.2271	2244.921	5508.2	4632
953.3606	2246.3904	5505	4626.1
953.4941	2247.8591	5468.5	4590.6
953.6276	2249.3271	5471.35	4596.15
953.7611	2250.7943	5467.55	4590.15
953.8945	2252.2608	5460.35	4582.95
954.0279	2253.7266	5426.75	4548.35
954.1612	2255.1917	5421.65	4544.7
954.2946	2256.656	5397.3	4516.8
954.4279	2258.1197	5376.55	4499.85
954.5612	2259.5826	5364.1	4486.25
954.6944	2261.0447	5358.1	4479.25
954.8276	2262.5062	5345.3	4467
954.9608	2263.9669	5331.6	4452.75
955.094	2265.4269	5320.95	4442.8
955.2271	2266.8862	5305.95	4430.15
955.3602	2268.3448	5296.25	4418.8
955.4933	2269.8026	5268.75	4390.15
955.6264	2271.2598	5269.95	4391.15
955.7594	2272.7162	5278.6	4401.25
955.8924	2274.1719	5245.65	4366.95
956.0253	2275.6268	5223.6	4345.8
956.1583	2277.0811	5225.9	4348.95
956.2912	2278.5346	5211.5	4335.5
956.4241	2279.9874	5189.8	4310.85
956.5569	2281.4395	5186.25	4309.35
956.6897	2282.8908	5186.65	4304.25
956.8225	2284.3414	5168.2	4291.5
956.9553	2285.7914	5150.1	4272.2
957.088	2287.2406	5144.35	4265
957.2207	2288.689	5121.2	4243.45
957.3534	2290.1368	5120.95	4243.7
957.486	2291.5838	5097.1	4218.15
957.6186	2293.0302	5082.05	4201.6
957.7512	2294.4758	5058.75	4181.6
957.8838	2295.9206	5051	4170.2
958.0163	2297.3648	5034.45	4156.75
958.1488	2298.8082	5050.7	4172
958.2813	2300.251	5011.4	4132.9
958.4137	2301.693	5014.1	4134.4
958.5461	2303.1343	5008.9	4132.1
958.6785	2304.5748	4983.65	4107.75
958.8108	2306.0147	4966.35	4088.35
958.9432	2307.4538	4946.1	4064.7
959.0754	2308.8922	4931.9	4055.85
959.2077	2310.3299	4930.9	4053.45
959.3399	2311.7669	4907.15	4030.7
959.4721	2313.2031	4900.9	4021.75
959.6043	2314.6387	4888.7	4009.9
959.7365	2316.0735	4865.1	3988.85
959.8686	2317.5076	4859.1	3981.95
960.0006	2318.941	4860.45	3983.6
960.1327	2320.3737	4846.9	3969.2
960.2647	2321.8056	4826.35	3947.45
960.3967	2323.2369	4834.95	3957.1
960.5287	2324.6674	4810.65	3929.5
960.6606	2326.0972	4782.9	3903
960.7925	2327.5263	4757.85	3880.95
960.9244	2328.9547	4766.7	3888.9
961.0562	2330.3823	4768.15	3888.65
961.1881	2331.8092	4752.85	3869.9
961.3198	2333.2355	4734	3856.45
961.4516	2334.661	4725.9	3847.7
961.5833	2336.0858	4710.4	3832.25
961.715	2337.5098	4703.4	3826
961.8467	2338.9332	4700.25	3822.05
961.9783	2340.3558	4689.95	3810.7
962.1099	2341.7778	4658.8	3780.4
962.2415	2343.199	4651.6	3770
962.373	2344.6195	4636.3	3759.7
962.5045	2346.0393	4629	3751.95
962.636	2347.4583	4629.05	3752.9
962.7675	2348.8767	4611.15	3732
962.8989	2350.2943	4608.55	3730.45
963.0303	2351.7113	4589.35	3709.5
963.1617	2353.1275	4566.25	3689.4
963.293	2354.543	4558.4	3672.1
963.4243	2355.9578	4550.7	3673
963.5556	2357.3718	4526.75	3649.2
963.6868	2358.7852	4491.9	3612.7
963.818	2360.1978	4493.8	3615.4
963.9492	2361.6098	4488.75	3611.4
964.0803	2363.021	4476.95	3596.4
964.2114	2364.4315	4473.5	3595.65
964.3425	2365.8413	4457.25	3574.3
964.4736	2367.2504	4432.3	3554.65
964.6046	2368.6587	4418.3	3538.85
964.7356	2370.0664	4408.4	3531.55
964.8666	2371.4733	4395.2	3518.9
964.9975	2372.8795	4381.45	3504.5
965.1284	2374.285	4365.4	3487.2
965.2593	2375.6899	4356.35	3480.3
965.3901	2377.0939	4331.25	3453.3
965.5209	2378.4973	4314.45	3437.65
965.6517	2379.9	4313.15	3435.65
965.7825	2381.3019	4297.75	3420.75
965.9132	2382.7032	4295.55	3417.3
966.0439	2384.1037	4288.55	3410.7
966.1745	2385.5035	4247.45	3369.4
966.3051	2386.9027	4252.4	3375.05
966.4357	2388.3011	4257.1	3375.5
966.5663	2389.6987	4239.1	3361.85
966.6968	2391.0957	4235.75	3357.75
966.8273	2392.492	4204.7	3326.75
966.9578	2393.8876	4199.8	3322.5
967.0882	2395.2824	4175.7	3296.6
967.2186	2396.6765	4162.8	3287.2
967.349	2398.07	4138.05	3262.1
967.4793	2399.4627	4136.05	3255.95
967.6097	2400.8547	4113.25	3234.05
967.7399	2402.246	4123.7	3239.2
967.8702	2403.6366	4087.5	3207.65
968.0004	2405.0265	4088.65	3210.6
968.1306	2406.4156	4061.45	3178.65
968.2607	2407.8041	4060.2	3178.2
968.3909	2409.1918	4032.6	3152.1
968.521	2410.5789	4008.75	3130.85
968.651	2411.9652	4023.3	3143.2
968.781	2413.3508	4014.1	3136.7
968.911	2414.7358	4002.5	3122.5
969.041	2416.12	3976.45	3098.95
969.1709	2417.5035	3967.75	3089.65
969.3008	2418.8863	3956.75	3078
969.4307	2420.2684	3958.2	3078.75
969.5606	2421.6497	3926.65	3047.2
969.6904	2423.0304	3916.25	3039.8
969.8201	2424.4104	3907.9	3030.65
969.9499	2425.7896	3891.9	3010.2
970.0796	2427.1682	3898.65	3020.25
970.2093	2428.546	3884.7	3004.75
970.3389	2429.9232	3888.05	3007.15
970.4685	2431.2996	3870.05	2990.65
970.5981	2432.6753	3858.1	2979.4
970.7277	2434.0503	3847.55	2968.95
970.8572	2435.4246	3824.85	2948.05
970.9867	2436.7982	3828.8	2948.55
971.1161	2438.1711	3807.25	2930.5
971.2456	2439.5433	3810.9	2932.4
971.375	2440.9148	3794.75	2911.7
971.5043	2442.2856	3780.5	2901.5
971.6336	2443.6557	3777.15	2897.45
971.7629	2445.025	3756.55	2878.8
971.8922	2446.3937	3761.55	2882.2
972.0214	2447.7617	3728.85	2851.4
972.1506	2449.1289	3728.75	2851.05
972.2798	2450.4955	3734.05	2852.95
972.4089	2451.8613	3713.15	2836.8
972.538	2453.2265	3705.65	2828.35
972.6671	2454.5909	3696	2817.5
972.7961	2455.9546	3690.15	2813.2
972.9251	2457.3177	3675.75	2798.05
973.0541	2458.68	3673.6	2796
973.1831	2460.0416	3658.05	2778.35
973.312	2461.4025	3649.5	2770.6
973.4408	2462.7627	3641.45	2754.45
973.5697	2464.1222	3641.9	2765.9
973.6985	2465.4811	3624.75	2745.85
973.8273	2466.8392	3604.05	2725.9
973.956	2468.1966	3611.75	2731.65
974.0847	2469.5533	3610.55	2729.85
974.2134	2470.9093	3599.45	2718.15
974.3421	2472.2645	3592.65	2712.25
974.4707	2473.6191	3570.05	2690.9
974.5993	2474.973	3564.65	2688.25
974.7278	2476.3262	3554.75	2675.15
974.8563	2477.6787	3557.6	2679.95
974.9848	2479.0305	3533.8	2656.6
975.1132	2480.3816	3530	2650.7
975.2417	2481.7319	3502	2624.45
975.37	2483.0816	3499.15	2618.45
975.4984	2484.4306	3498.55	2618.65
975.6267	2485.7789	3486.2	2609.85
975.755	2487.1264	3464.8	2585.2
975.8833	2488.4733	3457.9	2581.3
976.0115	2489.8195	3444.5	2560.75
976.1397	2491.165	3439.2	2556.35
976.2678	2492.5097	3442.25	2562.45
976.3959	2493.8538	3402.35	2524.9
976.524	2495.1972	3416.75	2538.6
976.6521	2496.5398	3386.85	2508.3
976.7801	2497.8818	3405.85	2525.3
976.9081	2499.2231	3374.65	2496.35
977.036	2500.5637	3365.15	2484.85
977.164	2501.9035	3358.3	2479.45
977.2918	2503.2427	3365.45	2484.05
977.4197	2504.5812	3347.85	2471.3
977.5475	2505.919	3348.1	2468.4
977.6753	2507.256	3330.55	2452.15
977.8031	2508.5924	3322.55	2442.9
977.9308	2509.9281	3309.45	2426.45
978.0585	2511.2631	3300.65	2422
978.1861	2512.5974	3287.75	2410.75
978.3137	2513.9309	3291.6	2412.05
978.4413	2515.2638	3292.85	2386.65
978.5689	2516.596	3278.4	2401.6
978.6964	2517.9275	3253.8	2374.95
978.8239	2519.2583	3249.95	2371.55
978.9513	2520.5884	3244.5	2364.6
979.0788	2521.9178	3229.45	2349.7
979.2062	2523.2465	3226.6	2348.8
979.3335	2524.5745	3201.55	2323.05
979.4608	2525.9018	3196.2	2317.2
979.5881	2527.2284	3198.3	2321.3
979.7154	2528.5543	3185.1	2309.35
979.8426	2529.8796	3175.45	2297.2
979.9698	2531.2041	3167.85	2288.55
980.0969	2532.5279	3156.75	2278.45
980.224	2533.851	3154.15	2274.65
980.3511	2535.1735	3147.1	2268.6
980.4781	2536.4952	3127.45	2250.25
980.6052	2537.8163	3138.55	2258.95
980.7321	2539.1366	3126	2248.25
980.8591	2540.4562	3107.45	2225.85
980.986	2541.7752	3121.7	2244.1
981.1129	2543.0935	3106.95	2229
981.2397	2544.411	3107	2226.3
981.3665	2545.7279	3104.4	2226.7
981.4933	2547.0441	3098.7	2220.8
981.62	2548.3596	3098.15	2217.35
981.7467	2549.6744	3077.35	2200.65
981.8734	2550.9885	3073.5	2187.3
982.0001	2552.3019	3065.75	2188.1
982.1267	2553.6146	3066.2	2185.7
982.2532	2554.9266	3065.05	2187.2
982.3798	2556.2379	3049	2169.2
982.5063	2557.5485	3039.15	2162.6
982.6327	2558.8585	3032.35	2144.95
982.7592	2560.1677	3037.05	2156.95
982.8856	2561.4762	3021.05	2141.55
983.0119	2562.7841	3014.4	2131.9
983.1383	2564.0913	3013.35	2135.65
983.2646	2565.3977	3006.85	2130.9
983.3908	2566.7035	2997.25	2119.2
983.517	2568.0086	2996.95	2116.95
983.6432	2569.313	2995.25	2117.45
983.7694	2570.6167	2990.55	2110.45
983.8955	2571.9197	2977.75	2100.05
984.0216	2573.222	2971	2089.25
984.1476	2574.5236	2977.75	2100.9
984.2737	2575.8246	2962.35	2081.7
984.3996	2577.1248	2960.5	2079.5
984.5256	2578.4244	2943.55	2065.85
984.6515	2579.7232	2960.5	2082.95
984.7774	2581.0214	2960.15	2057.1
984.9032	2582.3189	2937.15	2061.4
985.029	2583.6157	2939.65	2055.65
985.1548	2584.9118	2928	2050.1
985.2806	2586.2072	2920.5	2042.9
985.4063	2587.5019	2900.4	2023.7
985.5319	2588.7959	2925.15	2045.85
985.6576	2590.0893	2900.4	2020.5
985.7832	2591.3819	2896.15	2019.8
985.9087	2592.6739	2878.15	1999.45
986.0343	2593.9652	2884	2004.25
986.1597	2595.2557	2863.55	1985.5
986.2852	2596.5456	2864.25	1985.85
986.4106	2597.8348	2856.1	1979.8
986.536	2599.1234	2848.85	1971.35
986.6614	2600.4112	2820.5	1941.85
986.7867	2601.6983	2829.4	1947.75
986.912	2602.9848	2817.5	1939.5
987.0372	2604.2705	2816.55	1930.05
987.1624	2605.5556	2803.65	1926
987.2876	2606.84	2804.15	1925.9
987.4128	2608.1237	2786.2	1908.6
987.5379	2609.4067	2761.35	1881.6
987.6629	2610.689	2784.95	1897.15
987.788	2611.9707	2766.55	1885.1
987.913	2613.2516	2761.55	1878.25
988.0379	2614.5319	2750.65	1872.65
988.1629	2615.8115	2736.75	1859.1
988.2878	2617.0903	2722.2	1842.75
988.4126	2618.3685	2721.35	1843.8
988.5375	2619.6461	2714	1835.35
988.6622	2620.9229	2703.3	1826.45
988.787	2622.199	2698.35	1819.9
988.9117	2623.4745	2687.5	1808.4
989.0364	2624.7493	2680	1801.45
989.161	2626.0234	2670.1	1792.15
989.2857	2627.2968	2658.6	1779.4
989.4102	2628.5695	2666.4	1787.5
989.5348	2629.8415	2649.45	1769.95
989.6593	2631.1128	2643.4	1763.05
989.7837	2632.3835	2645.1	1768.15
989.9082	2633.6535	2637.25	1760.45
990.0326	2634.9228	2614.8	1737
990.1569	2636.1914	2606.25	1730.6
990.2812	2637.4593	2613.45	1728.55
990.4055	2638.7265	2601.55	1722.05
990.5298	2639.9931	2597.8	1719.45
990.654	2641.259	2591.45	1713.3
990.7782	2642.5242	2588.85	1710.4
990.9023	2643.7887	2578.5	1701.1
991.0264	2645.0525	2580.05	1704.7
991.1505	2646.3156	2569.95	1691.05
991.2745	2647.5781	2565.1	1688.5
991.3985	2648.8398	2559.1	1681.95
991.5225	2650.1009	2553.8	1667.55
991.6464	2651.3613	2546.1	1667.55
991.7703	2652.6211	2545.1	1668.3
991.8942	2653.8801	2537.75	1661.1
992.018	2655.1385	2530.1	1649.5
992.1418	2656.3961	2527.65	1651.25
992.2655	2657.6531	2517.8	1641.5
992.3892	2658.9094	2513.05	1634.2
992.5129	2660.1651	2518.1	1638.6
992.6366	2661.42	2489.05	1609.8
992.7602	2662.6743	2491	1612.35
992.8837	2663.9279	2497.25	1618.1
993.0073	2665.1808	2479.8	1600.65
993.1307	2666.433	2480.3	1599.9
993.2542	2667.6846	2458.9	1581.3
993.3776	2668.9354	2465.4	1583.65
993.501	2670.1856	2453.65	1574.05
993.6244	2671.4351	2460.25	1582.4
993.7477	2672.6839	2461.6	1581.3
993.8709	2673.9321	2454.6	1576.8
993.9942	2675.1795	2433.55	1556.65
994.1174	2676.4263	2434.1	1557.45
994.2405	2677.6724	2423.05	1546.45
994.3637	2678.9179	2426.55	1548.7
994.4868	2680.1626	2411.2	1533.15
994.6098	2681.4067	2414.4	1535.1
994.7328	2682.6501	2404.95	1528.15
994.8558	2683.8928	2408.95	1529.5
994.9788	2685.1348	2399.55	1524.25
995.1017	2686.3761	2385.05	1507.3
995.2245	2687.6168	2385.6	1508.9
995.3474	2688.8568	2380.65	1502.6
995.4702	2690.0961	2357.3	1479.25
995.5929	2691.3348	2375	1495.1
995.7156	2692.5727	2366.3	1488.85
995.8383	2693.81	2351.15	1471.3
995.961	2695.0466	2350.8	1474.5
996.0836	2696.2826	2342.4	1462.7
996.2062	2697.5178	2339.45	1457.8
996.3287	2698.7524	2331	1453.25
996.4512	2699.9863	2334.6	1454.9
996.5737	2701.2195	2329.7	1453.5
996.6961	2702.452	2322.35	1443.4
996.8185	2703.6839	2315.9	1436.5
996.9408	2704.9151	2312.95	1435.1
997.0631	2706.1456	2299.55	1420.55
997.1854	2707.3755	2300.85	1421.2
997.3077	2708.6046	2284.35	1404.3
997.4299	2709.8331	2285.55	1405.3
997.552	2711.0609	2279.85	1399.45
997.6742	2712.2881	2267.8	1388.9
997.7963	2713.5145	2278.25	1397.7
997.9183	2714.7403	2271.95	1393.4
998.0403	2715.9654	2252.25	1372.75
998.1623	2717.1899	2261.2	1367.55
998.2842	2718.4136	2246.95	1372.15
998.4062	2719.6367	2238.8	1361.95
998.528	2720.8591	2243.2	1358.25
998.6498	2722.0809	2232.45	1351.65
998.7716	2723.3019	2244.5	1361.15
998.8934	2724.5223	2229.4	1349.9
999.0151	2725.7421	2213.65	1334.45
999.1368	2726.9611	2208.5	1329.7
999.2584	2728.1795	2203.6	1320.85
999.38	2729.3972	2201.3	1324.65
999.5016	2730.6142	2198.4	1308.2
999.6231	2731.8306	2185.6	1306.4
999.7446	2733.0462	2175.55	1295.35
999.8661	2734.2612	2175.15	1290.9
999.9875	2735.4756	2166.15	1286.1
1000.1089	2736.6892	2151.35	1272.55
1000.2302	2737.9022	2153.65	1276.85
1000.3515	2739.1145	2149.75	1272
1000.4728	2740.3262	2141.35	1255.5
1000.594	2741.5372	2134.1	1257.4
1000.7152	2742.7475	2130.45	1251.05
1000.8363	2743.9571	2131.45	1252
1000.9575	2745.1661	2136.4	1254.3
1001.0785	2746.3744	2110.7	1230.5
1001.1996	2747.582	2105.2	1227.4
1001.3206	2748.7889	2098.95	1217.55
1001.4415	2749.9952	2106.75	1227.35
1001.5625	2751.2008	2094.8	1215.75
1001.6833	2752.4057	2079.55	1198.3
1001.8042	2753.61	2085.55	1206.95
1001.925	2754.8136	2077.05	1198
1002.0458	2756.0165	2067.45	1188.15
1002.1665	2757.2188	2065.1	1189.75
1002.2872	2758.4204	2055	1176.5
1002.4078	2759.6213	2058	1178.5
1002.5285	2760.8215	2051.5	1168.5
1002.649	2762.0211	2052.95	1173.6
1002.7696	2763.22	2051.05	1169.6
1002.8901	2764.4182	2034.35	1154.4
1003.0106	2765.6158	2043.95	1164.65
1003.131	2766.8127	2036.5	1158.75
1003.2514	2768.009	2024.6	1147.1
1003.3717	2769.2045	2022.55	1142.55
1003.492	2770.3994	2022.45	1144.1
1003.6123	2771.5936	2012.65	1134.8
1003.7325	2772.7872	2013.75	1135.2
1003.8527	2773.9801	2002.8	1122.05
1003.9729	2775.1723	2007	1112
1004.093	2776.3639	1981.8	1105.4
1004.2131	2777.5548	1984.8	1105.05
1004.3331	2778.745	1984.6	1105.45
1004.4531	2779.9346	1984.9	1105.65
1004.5731	2781.1235	1973.2	1093.1
1004.693	2782.3117	1954.25	1076.65
1004.8129	2783.4992	1962.9	1084.2
1004.9328	2784.6861	1948	1068.2
1005.0526	2785.8723	1964.75	1085.05
1005.1723	2787.0579	1948.55	1069.3
1005.2921	2788.2428	1945.8	1067.05
1005.4118	2789.427	1941.9	1063.05
1005.5314	2790.6106	1940.05	1062.8
1005.651	2791.7935	1932.2	1053.4
1005.7706	2792.9757	1917.55	1040.65
1005.8902	2794.1573	1918.3	1038.25
1006.0097	2795.3382	1914.45	1036.65
1006.1291	2796.5184	1907.3	1028.3
1006.2485	2797.698	1912.25	1030.4
1006.3679	2798.8769	1901.1	1022.5
1006.4873	2800.0551	1896.4	1017.65
1006.6066	2801.2327	1894.9	1015.15
1006.7258	2802.4096	1895.65	1020.05
1006.8451	2803.5859	1887.4	1008.8
1006.9642	2804.7615	1893.9	1016.85
1007.0834	2805.9364	1876.9	999.5
1007.2025	2807.1106	1876.15	999.7
1007.3216	2808.2842	1872.2	993.3
1007.4406	2809.4572	1875.55	997
1007.5596	2810.6294	1875.9	997.05
1007.6785	2811.801	1868.75	990.15
1007.7975	2812.972	1866.85	989
1007.9163	2814.1423	1866.6	989
1008.0352	2815.3119	1866.3	985.95
1008.154	2816.4808	1860.35	984
1008.2727	2817.6491	1866.05	988.05
1008.3914	2818.8167	1863.55	987.75
1008.5101	2819.9837	1873.8	990.35
1008.6288	2821.15	1868.9	988.3
1008.7474	2822.3157	1878.25	1001.2
1008.8659	2823.4807	1881.8	1004.45
1008.9844	2824.645	1890.85	1012.75
1009.1029	2825.8086	1899.3	1023
1009.2214	2826.9716	1902.55	1026.9
1009.3398	2828.134	1929.5	1051.55
1009.4581	2829.2957	1931.3	1052.1
1009.5764	2830.4567	1932.3	1054.9
1009.6947	2831.617	1933.4	1054.5
1009.813	2832.7767	1933.15	1057.1
1009.9312	2833.9358	1927.9	1051.05
1010.0493	2835.0941	1928.4	1051.4
1010.1675	2836.2519	1917.55	1040.3
1010.2855	2837.4089	1911.05	1032.45
1010.4036	2838.5653	1898.85	1021.2
1010.5216	2839.7211	1898.5	1022.15
1010.6396	2840.8761	1887.9	1007.85
1010.7575	2842.0306	1887.8	1010.9
1010.8754	2843.1843	1890.75	1012.5
1010.9932	2844.3374	1886.1	1008.05
1011.111	2845.4899	1887.35	1007.8
1011.2288	2846.6417	1885.15	1009.25
1011.3465	2847.7928	1879	1001.95
1011.4642	2848.9433	1873.55	996.9
1011.5818	2850.0931	1890.5	1011.6
1011.6995	2851.2422	1872.35	994.5
1011.817	2852.3907	1871.9	993.05
1011.9345	2853.5385	1874.7	994.8
1012.052	2854.6857	1883.4	995.6
1012.1695	2855.8323	1867.15	990.2
1012.2869	2856.9781	1875.75	997.3
1012.4042	2858.1233	1871.6	993.35
1012.5216	2859.2679	1875.95	999.2
1012.6389	2860.4118	1876.9	998.45
1012.7561	2861.555	1872.15	989.15
1012.8733	2862.6976	1879.35	1001.75
1012.9905	2863.8395	1876.45	999.45
1013.1076	2864.9808	1881.3	1002.9
1013.2247	2866.1214	1879.5	1003.3
1013.3417	2867.2614	1874.9	998.65
1013.4587	2868.4007	1871.4	991.35
1013.5757	2869.5393	1876.05	996.45
1013.6926	2870.6773	1875.5	992.3
1013.8095	2871.8146	1869.5	990.6
1013.9263	2872.9513	1882.35	1001.45
1014.0431	2874.0874	1874.5	996.3
1014.1599	2875.2227	1870.95	991.75
1014.2766	2876.3574	1875.15	997.05
1014.3933	2877.4915	1866.2	988
1014.51	2878.6249	1862.55	983
1014.6266	2879.7577	1866.5	988.15
1014.7431	2880.8898	1879.05	991.45
1014.8596	2882.0212	1866.9	989.3
1014.9761	2883.152	1865.1	986.45
1015.0925	2884.2821	1855.85	978.45
1015.2089	2885.4116	1863.55	984.7
1015.3253	2886.5405	1862.3	984.3
1015.4416	2887.6686	1868.15	989.5
1015.5579	2888.7962	1865.9	989.35
1015.6741	2889.923	1853.6	979.15
1015.7903	2891.0493	1851.9	975.2
1015.9065	2892.1748	1837.05	960.6
1016.0226	2893.2997	1852.75	973.6
1016.1387	2894.424	1837.3	959.75
1016.2547	2895.5476	1838.5	962.05
1016.3707	2896.6706	1832.4	955
1016.4866	2897.7929	1839.05	961.05
1016.6025	2898.9145	1833.15	955.5
1016.7184	2900.0355	1823.4	945.05
1016.8342	2901.1559	1819.05	941.5
1016.95	2902.2756	1824.85	948.5
1017.0658	2903.3946	1817.05	941.1
1017.1815	2904.513	1805.95	925.5
1017.2971	2905.6308	1805.15	927.8
1017.4127	2906.7479	1807.15	928.7
1017.5283	2907.8643	1797.95	917.9
1017.6439	2908.9801	1789.55	910.6
1017.7594	2910.0953	1793	914.7
1017.8748	2911.2098	1784.9	903.55
1017.9902	2912.3236	1795.45	909.35
1018.1056	2913.4368	1780.9	898.75
1018.2209	2914.5494	1782.45	904.8
1018.3362	2915.6613	1774	889.4
1018.4515	2916.7725	1772.5	891.45
1018.5667	2917.8831	1763.5	884.95
1018.6819	2918.9931	1752.6	869.9
1018.797	2920.1024	1737.4	859.5
1018.9121	2921.211	1744.7	866.15
1019.0271	2922.319	1740.7	863
1019.1421	2923.4264	1728.5	851.8
1019.2571	2924.5331	1730.95	856.2
1019.372	2925.6391	1717.55	841.3
1019.4869	2926.7445	1719.75	844.45
1019.6017	2927.8493	1716.2	838.85
1019.7165	2928.9534	1704.7	826.35
1019.8313	2930.0569	1720.45	838.65
1019.946	2931.1597	1712.45	833.05
1020.0606	2932.2619	1715.1	838.6
1020.1753	2933.3634	1720.3	842.45
1020.2899	2934.4643	1726.7	842
1020.4044	2935.5645	1727	843.6
1020.5189	2936.6641	1723.2	842.45
1020.6334	2937.763	1714.05	837
1020.7478	2938.8613	1714.75	835.55
1020.8622	2939.959	1711.45	828.15
1020.9765	2941.056	1699.75	822.7
1021.0908	2942.1523	1684.85	806.45
1021.2051	2943.248	1673.85	797.25
1021.3193	2944.3431	1650.8	770.6
1021.4334	2945.4375	1650.85	775.1
1021.5476	2946.5313	1635.65	759.05
1021.6617	2947.6244	1612.7	735.5
1021.7757	2948.7169	1606.7	728.8
1021.8897	2949.8087	1598.65	720.7
1022.0037	2950.8999	1587.7	709
1022.1176	2951.9904	1564.3	685.6
1022.2315	2953.0803	1557.05	677.55
1022.3453	2954.1696	1552.8	673.5
1022.4591	2955.2582	1554.35	675.9
1022.5728	2956.3462	1530.55	654
1022.6865	2957.4335	1539.6	662
1022.8002	2958.5202	1531	650.55
1022.9138	2959.6062	1522.65	643.95
1023.0274	2960.6916	1534.35	657.5
1023.141	2961.7764	1521.9	643.5
1023.2545	2962.8605	1525.75	646.8
1023.3679	2963.9439	1511	632.7
1023.4813	2965.0267	1513.8	636.3
1023.5947	2966.1089	1530.55	629.85
1023.708	2967.1905	1503.35	627.5
1023.8213	2968.2714	1503.6	627.6
1023.9346	2969.3516	1492.8	615.9
1024.0478	2970.4312	1496.15	612
1024.1609	2971.5102	1496.35	618.4
1024.274	2972.5885	1498.8	621.05
1024.3871	2973.6662	1499.5	616.25
1024.5002	2974.7432	1489.4	612.75
1024.6132	2975.8196	1485.3	607.75
1024.7261	2976.8954	1488.15	610.95
1024.839	2977.9705	1482.2	603.75
1024.9519	2979.045	1474.95	598.15
1025.0647	2980.1188	1471.85	595.3
1025.1775	2981.192	1471	594.2
1025.2902	2982.2645	1471.2	592.25
1025.4029	2983.3364	1465.75	587.75
1025.5156	2984.4077	1461.45	584.8
1025.6282	2985.4783	1467.6	584.6
1025.7407	2986.5483	1455.35	578.65
1025.8532	2987.6177	1448.3	570.6
1025.9657	2988.6864	1435.8	556.8
1026.0782	2989.7545	1430.1	551.7
1026.1906	2990.8219	1430.15	550.7
1026.3029	2991.8887	1421.65	542.3
1026.4152	2992.9548	1423.85	543.25
1026.5275	2994.0204	1412.35	534.95
1026.6397	2995.0852	1403.2	525.65
1026.7519	2996.1495	1402.1	523.6
1026.864	2997.2131	1396.35	516.8
1026.9761	2998.276	1383.05	506.2
1027.0882	2999.3383	1382.9	504.15
1027.2002	3000.4	1376.3	497.6
1027.3122	3001.4611	1373.3	494.05
1027.4241	3002.5215	1372.2	494.8
1027.536	3003.5812	1361.05	482.7
1027.6478	3004.6404	1365.3	488.85
1027.7596	3005.6989	1363.15	486.5
1027.8714	3006.7567	1355.15	477.35
1027.9831	3007.8139	1375.45	473.8
1028.0947	3008.8705	1357.2	479.4
1028.2064	3009.9264	1348.85	470.1
1028.3179	3010.9818	1342.3	466.5
1028.4295	3012.0364	1349.25	469.9
1028.541	3013.0905	1346.15	468.3
1028.6524	3014.1439	1337.85	461.65
1028.7638	3015.1966	1338.6	460
1028.8752	3016.2487	1337.15	459.2
1028.9865	3017.3002	1338.95	456.5
1029.0978	3018.3511	1333.25	454.85
1029.209	3019.4013	1324.95	447.15
1029.3202	3020.4509	1325.6	448.75
1029.4314	3021.4998	1325.6	448.25
1029.5425	3022.5481	1326.65	450.35
1029.6535	3023.5958	1321.85	445.2
1029.7645	3024.6428	1323.45	444.75
1029.8755	3025.6892	1316.75	440
1029.9864	3026.735	1323.7	447.45
1030.0973	3027.7802	1314.55	435.8
1030.2082	3028.8247	1309.3	431.85
1030.319	3029.8685	1304.55	427.8
1030.4297	3030.9118	1304.35	425.95
1030.5404	3031.9544	1302.9	426.4
1030.6511	3032.9963	1302.7	426.55
1030.7617	3034.0376	1297.65	421.05
1030.8723	3035.0783	1300.4	422.35
1030.9829	3036.1184	1294.65	415.45
1031.0934	3037.1578	1298.15	422.3
1031.2038	3038.1966	1291.3	412.25
1031.3142	3039.2348	1292.95	416.8
1031.4246	3040.2723	1301.55	415.25
1031.5349	3041.3092	1282.7	405.1
1031.6452	3042.3455	1290.2	412.9
1031.7554	3043.3811	1284.5	406.7
1031.8656	3044.4161	1285.9	407.15
1031.9758	3045.4505	1281.2	405.4
1032.0859	3046.4842	1280.75	400.25
1032.1959	3047.5173	1274.35	399.25
1032.3059	3048.5498	1277.45	400.6
1032.4159	3049.5816	1278.8	400.8
1032.5258	3050.6128	1277.05	399.3
1032.6357	3051.6434	1279.95	400.8
1032.7455	3052.6734	1274.3	396.6
1032.8553	3053.7027	1267.05	389
1032.9651	3054.7314	1271.05	394.85
1033.0748	3055.7594	1267.25	389.75
1033.1845	3056.7868	1272.05	393.7
1033.2941	3057.8136	1264.1	385.9
1033.4037	3058.8398	1268.05	390.25
1033.5132	3059.8653	1264.2	387.1
1033.6227	3060.8902	1260.05	383.7
1033.7321	3061.9145	1263.05	384.5
1033.8415	3062.9381	1264.2	387.85
1033.9509	3063.9612	1275.35	383.2
1034.0602	3064.9835	1256.2	379.8
1034.1694	3066.0053	1254.55	374.3
1034.2787	3067.0264	1249.45	372
1034.3878	3068.0469	1260.2	381.8
1034.497	3069.0668	1251.6	371.3
1034.6061	3070.086	1251.75	375.85
1034.7151	3071.1046	1257.05	378.45
1034.8241	3072.1226	1252.75	374.4
1034.9331	3073.1399	1247.7	370.6
1035.042	3074.1567	1241.65	362.65
1035.1508	3075.1727	1244.8	367.4
1035.2597	3076.1882	1236.55	361.1
1035.3684	3077.203	1244.55	368.25
1035.4772	3078.2173	1243.2	365.2
1035.5859	3079.2308	1238.95	358.3
1035.6945	3080.2438	1233.15	352.9
1035.8031	3081.2561	1228.15	351.1
1035.9117	3082.2678	1225.65	346.35
1036.0202	3083.2789	1223.05	346.25
1036.1286	3084.2893	1227	349.2
1036.2371	3085.2991	1223.6	347.05
1036.3454	3086.3083	1224.35	344.15
1036.4538	3087.3169	1217.65	339.35
1036.562	3088.3248	1214.2	335.35
1036.6703	3089.3321	1217.85	337.4
1036.7785	3090.3388	1210.7	334.1
1036.8866	3091.3449	1205.6	327.6
1036.9948	3092.3503	1213.3	332.45
1037.1028	3093.3551	1206.3	330.15
1037.2108	3094.3593	1207.7	331.9
1037.3188	3095.3629	1199.9	322.05
1037.4267	3096.3658	1203.15	325.6
1037.5346	3097.3681	1201.05	323.45
1037.6425	3098.3698	1196.15	318.2
1037.7503	3099.3708	1202.3	319.5
1037.858	3100.3713	1191.6	314.45
1037.9657	3101.3711	1194.65	315.85
1038.0734	3102.3702	1321.05	308.3
1038.181	3103.3688	1186.65	307.1
1038.2886	3104.3667	1187.45	311.8
1038.3961	3105.364	1190.3	312.1
1038.5036	3106.3607	1182.3	302.05
1038.611	3107.3568	1184.6	305.95
1038.7184	3108.3522	1179.15	302.75
1038.8257	3109.347	1175.05	296.75
1038.933	3110.3412	1179.4	297.3
1039.0403	3111.3348	1178.25	301.55
1039.1475	3112.3277	1172.4	295.65
1039.2547	3113.32	1166.45	289.1
1039.3618	3114.3117	1166.1	288.1
1039.4689	3115.3028	1168.9	289.2
1039.5759	3116.2932	1164.05	285.9
1039.6829	3117.2831	1162.55	280.25
1039.7898	3118.2723	1165.2	289.5
1039.8967	3119.2608	1156.05	278.95
1040.0035	3120.2488	1154.25	276.6
1040.1103	3121.2361	1157.6	277.6
1040.2171	3122.2229	1152.3	276.2
1040.3238	3123.209	1153.75	274.65
1040.4305	3124.1944	1150.1	274.4
1040.5371	3125.1793	1153.1	272.9
1040.6437	3126.1635	1149.45	272
1040.7502	3127.1471	1143.65	266.5
1040.8567	3128.1301	1146.15	268.35
1040.9631	3129.1125	1145.5	267.05
1041.0695	3130.0942	1146.15	269.2
1041.1759	3131.0753	1147.5	261.35
1041.2822	3132.0558	1143	263.9
1041.3884	3133.0357	1140.85	264.75
1041.4946	3134.015	1142.55	264.3
1041.6008	3134.9936	1141.4	262.3
1041.7069	3135.9716	1158.6	259.15
1041.813	3136.949	1134.6	257.35
1041.919	3137.9258	1137.6	253.7
1042.025	3138.902	1139.95	258.6
1042.1309	3139.8775	1132.65	255.55
1042.2368	3140.8524	1132.65	253.55
1042.3427	3141.8267	1130	249.8
1042.4485	3142.8004	1129.55	252.05
1042.5542	3143.7735	1134.2	251
1042.6599	3144.7459	1128.85	249.9
1042.7656	3145.7178	1125.85	247.7
1042.8712	3146.689	1123.75	246.05
1042.9768	3147.6596	1125.15	246.7
1043.0823	3148.6295	1120.25	241.8
1043.1878	3149.5989	1117.5	238.55
1043.2932	3150.5676	1117.55	240.65
1043.3986	3151.5357	1112.1	236.25
1043.5039	3152.5032	1113.6	237.45
1043.6092	3153.4701	1118.5	241.35
1043.7145	3154.4364	1113.7	234.25
1043.8197	3155.402	1109	232.7
1043.9248	3156.367	1114.3	234.7
1044.03	3157.3315	1140.6	226.15
1044.135	3158.2952	1109.95	231.55
1044.24	3159.2584	1109.15	231.15
1044.345	3160.221	1102.8	226
1044.4499	3161.1829	1099.3	220.75
1044.5548	3162.1442	1102.25	224.3
1044.6596	3163.105	1103.1	224.7
1044.7644	3164.065	1102.15	224.1
1044.8692	3165.0245	1101.35	218.5
1044.9739	3165.9834	1095.1	218
1045.0785	3166.9416	1099.15	222
1045.1831	3167.8993	1096.6	218.6
1045.2877	3168.8563	1094.4	214.8
1045.3922	3169.8127	1092.4	215.05
1045.4966	3170.7684	1089.4	212.8
1045.6011	3171.7236	1092.55	213.35
1045.7054	3172.6782	1091.35	213.05
1045.8098	3173.6321	1089.9	213.9
1045.914	3174.5854	1087.05	204.05
1046.0183	3175.5381	1091.05	214.2
1046.1224	3176.4902	1082.45	205.15
1046.2266	3177.4417	1080.5	204.55
1046.3307	3178.3926	1082.15	205.4
1046.4347	3179.3428	1080.9	204.7
1046.5387	3180.2924	1080.25	203.05
1046.6427	3181.2415	1080.55	200.55
1046.7466	3182.1899	1079.85	199
1046.8504	3183.1377	1073.25	198.4
1046.9542	3184.0848	1079.8	198.65
1047.058	3185.0314	1075.25	196.15
1047.1617	3185.9773	1068.65	190.15
1047.2654	3186.9227	1075.75	198.55
1047.369	3187.8674	1069.6	192
1047.4726	3188.8115	1076.55	195.65
1047.5761	3189.755	1069.45	193.4
1047.6796	3190.6979	1068.75	191.1
1047.783	3191.6402	1064.2	186.75
1047.8864	3192.5818	1067.55	191.4
1047.9898	3193.5229	1070.85	186.45
1048.0931	3194.4633	1070.5	192.85
1048.1963	3195.4031	1067	189.35
1048.2995	3196.3423	1062.95	185.4
1048.4027	3197.2809	1059.95	183.05
1048.5058	3198.2189	1062.95	185.65
1048.6089	3199.1563	1064.8	179.35
1048.7119	3200.0931	1058.25	181.6
1048.8148	3201.0292	1056.45	177.5
1048.9178	3201.9648	1058.7	182.8
1049.0206	3202.8997	1057.25	177.5
1049.1235	3203.834	1054.05	175.05
1049.2262	3204.7677	1050.7	173.15
1049.329	3205.7008	1057.15	177.6
1049.4317	3206.6333	1050.3	173.05
1049.5343	3207.5652	1051.5	170.6
1049.6369	3208.4964	1054.55	177.5
1049.7394	3209.4271	1051.8	175.4
1049.8419	3210.3571	1050.2	173.35
1049.9444	3211.2865	1046.7	168.15
1050.0468	3212.2154	1046.65	168.95
1050.1491	3213.1436	1055.05	174.4
1050.2514	3214.0712	1051	167.65
1050.3537	3214.9982	1047.75	169.75
1050.4559	3215.9246	1045.25	167.75
1050.5581	3216.8503	1038.3	161.1
1050.6602	3217.7755	1044.45	166.3
1050.7623	3218.7001	1038.8	162.35
1050.8643	3219.624	1042.05	164.9
1050.9663	3220.5473	1040.3	162.3
1051.0682	3221.4701	1041.35	164.75
1051.1701	3222.3922	1044.1	165.2
1051.2719	3223.3137	1032.3	155.5
1051.3737	3224.2346	1034	158
1051.4754	3225.1549	1034.2	157.9
1051.5771	3226.0746	1029.85	153.6
1051.6788	3226.9937	1031.1	152.35
1051.7804	3227.9121	1033.6	157.35
1051.8819	3228.83	1032.6	154.15
1051.9834	3229.7473	1031.7	152.45
1052.0849	3230.6639	1032.35	153.65
1052.1863	3231.5799	1028.55	150.65
1052.2876	3232.4954	1028.5	149.25
1052.3889	3233.4102	1024.7	146.15
1052.4902	3234.3244	1025.4	146.7
1052.5914	3235.238	1024.9	147.95
1052.6926	3236.151	1047.65	147.6
1052.7937	3237.0634	1022.25	146.05
1052.8948	3237.9752	1020.7	144.35
1052.9958	3238.8864	1021.95	143.1
1053.0968	3239.797	1020.35	143.05
1053.1977	3240.7069	1022	143.1
1053.2986	3241.6163	1023.45	145.45
1053.3994	3242.5251	1018.4	140.9
1053.5002	3243.4332	1017.9	142.25
1053.6009	3244.3408	1015.65	137.25
1053.7016	3245.2477	1021.35	145.3
1053.8022	3246.154	1016.15	139.1
1053.9028	3247.0598	1016.75	137.55
1054.0034	3247.9649	1012.95	136
1054.1039	3248.8694	1012.95	135.75
1054.2043	3249.7733	1013.95	137
1054.3047	3250.6766	1012.2	136.5
1054.4051	3251.5793	1016.15	136.9
1054.5054	3252.4814	1005.8	125.85
1054.6056	3253.3829	1008.95	132.6
1054.7058	3254.2838	1008.45	130.55
1054.806	3255.1841	1005.8	127.5
1054.9061	3256.0838	1005	127.9
1055.0061	3256.9829	1004.35	127.7
1055.1062	3257.8814	999.85	121.3
1055.2061	3258.7792	1002.35	123.1
1055.306	3259.6765	1003.95	125.7
1055.4059	3260.5731	1005.3	128.95
1055.5057	3261.4692	999.1	119.95
1055.6055	3262.3647	997.75	121.35
1055.7052	3263.2595	997.35	119.05
1055.8049	3264.1538	989.45	111.35
1055.9045	3265.0474	989.3	109.75
1056.0041	3265.9404	988	111.75
1056.1036	3266.8329	989.4	113.8
1056.2031	3267.7247	994.45	109.55
1056.3025	3268.616	983.05	107.75
1056.4019	3269.5066	982.15	103.35
1056.5013	3270.3966	979	99.25
1056.6005	3271.286	973.45	98.7
