Software Version:	3.9.2.0
Unit SN:	10000200
Spectrometer SN:	6960
Date:	3/6/2024 10:30:48 AM
Data Line Index:	25
Spectral Points:	2048
Integration time (ms):	125
Averages:	20
Delay (ms):	30
Sequence Number:	1
Processing:	dark subtract
Laser Power (mW):	295
Laser Current (mA):	825
Laser Diode Temp (C):	25.1
Laser Case Temp (C):	26.3
System Temp (C):	26.1
Spectrometer Temp (C):	23.5
CCD Temp (C):	0.008
Secondary Temp (C):	20.008
Heatsink Temp (C):	21.49
CCDPCB Temp (C):	35.907
SecondaryPCB Temp (C):	29.359

Wavelength	RamanShift	Raw Counts	Dark Subtracted
787.061	30.1047	1123.65	709.9
787.2016	32.3739	1154.4	744.9
787.3422	34.6426	1201.15	790.7
787.4828	36.9109	1257	844.6
787.6235	39.1787	1301.25	883.15
787.7642	41.4461	1352.65	930.25
787.9049	43.7131	1423.8	999.65
788.0456	45.9796	1493.95	1066.6
788.1863	48.2456	1551.95	1119.15
788.3271	50.5112	1620.05	1182.85
788.4679	52.7764	1692.35	1255
788.6087	55.0411	1768.1	1324.3
788.7496	57.3054	1850.5	1403.85
788.8904	59.5692	1943.6	1492.7
789.0313	61.8326	2041.6	1589.3
789.1722	64.0955	2136.5	1679.4
789.3132	66.3579	2260	1799
789.4541	68.6199	2416.95	1952.65
789.5951	70.8815	2661.2	2193
789.7361	73.1426	3189.7	2719.9
789.8771	75.4032	4536.9	4059.5
790.0181	77.6634	7970.35	7488.15
790.1592	79.9231	17083	16596.95
790.3003	82.1824	55235.15	54740
790.4414	84.4412	65535	65021.05
790.5825	86.6995	65535	64994.5
790.7237	88.9574	65535	64977.45
790.8648	91.2148	65535	64958.1
791.006	93.4717	65535	64946
791.1472	95.7282	65535	64940.95
791.2885	97.9842	65535	64941.65
791.4297	100.2398	65535	64937.75
791.571	102.4949	65535	64937
791.7123	104.7495	65535	64930.95
791.8536	107.0036	65535	64933.1
791.9949	109.2573	65535	64931.05
792.1363	111.5105	65535	64931.15
792.2777	113.7632	65535	64929.6
792.4191	116.0154	65535	64917.05
792.5605	118.2672	65535	64924.55
792.7019	120.5185	65535	64924.25
792.8434	122.7693	65535	64919.6
792.9849	125.0197	65535	64917.05
793.1264	127.2696	65535	64911.1
793.2679	129.519	65535	64908.7
793.4094	131.7679	65535	64904
793.551	134.0163	65535	64902.05
793.6926	136.2642	65535	64898.1
793.8342	138.5117	65535	64888.65
793.9758	140.7587	65535	64897.9
794.1175	143.0052	65535	64893.8
794.2591	145.2512	65535	64890.85
794.4008	147.4967	65535	64889.9
794.5425	149.7417	65535	64886.75
794.6842	151.9863	65535	64885
794.826	154.2304	65535	64875.9
794.9677	156.4739	65535	64873.9
795.1095	158.717	65535	64874.8
795.2513	160.9596	65535	64869.5
795.3931	163.2017	65535	64868.3
795.535	165.4433	65535	64868.9
795.6768	167.6844	65535	64865.7
795.8187	169.925	65535	64863.15
795.9606	172.1651	65535	64859.8
796.1025	174.4047	65535	64856.05
796.2445	176.6439	65535	64858.2
796.3864	178.8825	65535	64851.05
796.5284	181.1206	65535	64847.65
796.6704	183.3582	65535	64843.35
796.8124	185.5954	65535	64841.4
796.9544	187.832	65535	64839.25
797.0965	190.0681	65535	64836.6
797.2386	192.3037	65535	64832.8
797.3806	194.5388	65535	64831.45
797.5228	196.7734	65535	64829.6
797.6649	199.0075	65535	64825.85
797.807	201.2411	65535	64821.25
797.9492	203.4742	65535	64826.6
798.0914	205.7068	65535	64823.05
798.2336	207.9389	65535	64820.3
798.3758	210.1704	65535	64820
798.518	212.4015	65535	64823.9
798.6603	214.632	65535	64829.3
798.8025	216.862	65535	64840.8
798.9448	219.0915	65535	64840.3
799.0871	221.3205	65535	64834.15
799.2294	223.549	65535	64839.8
799.3718	225.777	65535	64842.2
799.5141	228.0044	65535	64835.95
799.6565	230.2314	65535	64836.1
799.7989	232.4578	65535	64831.75
799.9413	234.6837	65535	64823.8
800.0837	236.909	65535	64820.65
800.2262	239.1339	65535	64796.25
800.3687	241.3582	65535	64809.8
800.5111	243.582	65535	64782.55
800.6536	245.8053	65535	64793.45
800.7961	248.0281	65535	64799.7
800.9387	250.2503	65535	64793.55
801.0812	252.472	65535	64790.05
801.2238	254.6932	65535	64793.4
801.3664	256.9139	65535	64793.1
801.509	259.134	65535	64785.25
801.6516	261.3536	65535	64786.95
801.7942	263.5727	65535	64785.5
801.9369	265.7912	65535	64791.15
802.0795	268.0092	65535	64783.75
802.2222	270.2267	65535	64783.25
802.3649	272.4436	65535	64789
802.5076	274.6601	65535	64773.9
802.6504	276.8759	65535	64776.15
802.7931	279.0913	65535	64774.75
802.9359	281.3061	65535	64776.75
803.0787	283.5204	65535	64775.1
803.2215	285.7341	65535	64771.2
803.3643	287.9473	65535	64757.6
803.5071	290.16	65535	64765.85
803.6499	292.3721	65535	64775.5
803.7928	294.5837	65535	64770.5
803.9357	296.7947	65535	64769.25
804.0786	299.0052	65535	64769.45
804.2215	301.2152	65535	64767.2
804.3644	303.4246	65535	64768.95
804.5074	305.6334	65535	64769.65
804.6503	307.8418	65535	64768
804.7933	310.0495	65535	64768.85
804.9363	312.2568	65535	64764.45
805.0793	314.4635	65535	64761.05
805.2223	316.6696	65535	64761.6
805.3653	318.8752	65535	64752.05
805.5084	321.0802	65535	64760.65
805.6514	323.2847	65535	64759.85
805.7945	325.4887	65535	64759.3
805.9376	327.692	65535	64755.9
806.0807	329.8949	65535	64753.55
806.2238	332.0972	65535	64753.6
806.367	334.2989	65535	64752.5
806.5101	336.5001	65535	64751.25
806.6533	338.7007	65535	64750.65
806.7965	340.9008	65535	64747.7
806.9397	343.1003	65535	64745
807.0829	345.2992	65535	64746.5
807.2261	347.4976	65535	64744.7
807.3693	349.6955	65535	64736.75
807.5126	351.8927	65535	64740.1
807.6559	354.0895	65535	64728.35
807.7991	356.2856	65535	64737.45
807.9424	358.4812	65535	64738.85
808.0857	360.6763	65535	64736.35
808.2291	362.8707	65535	64735.75
808.3724	365.0646	65535	64733.2
808.5158	367.258	65535	64728.9
808.6591	369.4508	65535	64724.8
808.8025	371.643	65535	64728.7
808.9459	373.8346	65535	64724.4
809.0893	376.0257	65535	64721.15
809.2327	378.2162	65535	64723.3
809.3762	380.4062	65535	64719.15
809.5196	382.5956	65535	64718.8
809.6631	384.7844	65535	64722
809.8066	386.9726	65535	64724.3
809.9501	389.1603	65535	64727.6
810.0936	391.3474	65535	64687.75
810.2371	393.5339	65535	64727.55
810.3806	395.7199	65535	64733.55
810.5241	397.9052	65535	64727.85
810.6677	400.09	65535	64729.75
810.8113	402.2743	65535	64729
810.9548	404.4579	65535	64730.4
811.0984	406.641	65535	64728.3
811.2421	408.8235	65535	64727.5
811.3857	411.0054	65535	64722.05
811.5293	413.1868	65535	64720.65
811.673	415.3675	65535	64718.05
811.8166	417.5477	65535	64715.9
811.9603	419.7273	65535	64713.6
812.104	421.9064	65535	64708.75
812.2477	424.0848	65535	64709.9
812.3914	426.2627	65535	64711.45
812.5351	428.4399	65535	64711
812.6788	430.6166	65535	64705.3
812.8226	432.7928	65535	64707.9
812.9663	434.9683	65535	64705.85
813.1101	437.1432	65535	64702.4
813.2539	439.3176	65535	64704.65
813.3977	441.4914	65535	64704.4
813.5415	443.6645	65535	64702.05
813.6853	445.8371	65535	64698.9
813.8291	448.0091	65535	64706
813.973	450.1806	65535	64702.4
814.1168	452.3514	65535	64703.4
814.2607	454.5216	65535	64697.05
814.4046	456.6913	65535	64701.3
814.5485	458.8603	65535	64700.3
814.6924	461.0288	65535	64699.3
814.8363	463.1967	65535	64701.2
814.9802	465.3639	65535	64696.5
815.1241	467.5306	65535	64696.7
815.2681	469.6967	65535	64699.25
815.412	471.8622	65535	64700.8
815.556	474.0271	65535	64698.25
815.7	476.1914	65535	64697.3
815.844	478.3551	65535	64695.1
815.988	480.5182	65535	64699.7
816.132	482.6807	65535	64698.5
816.276	484.8426	65535	64695.95
816.4201	487.0039	65535	64692.35
816.5641	489.1647	65535	64693.5
816.7082	491.3248	65535	64693.65
816.8522	493.4843	65535	64694.9
816.9963	495.6432	65535	64693.8
817.1404	497.8015	65535	64689.7
817.2845	499.9592	65535	64692.1
817.4286	502.1163	65535	64692.1
817.5727	504.2728	65535	64693.35
817.7168	506.4287	65535	64689.75
817.861	508.5839	65535	64692.15
818.0051	510.7386	65535	64688.65
818.1493	512.8927	65535	64687.25
818.2935	515.0461	65535	64688
818.4377	517.199	65535	64688.15
818.5818	519.3512	65535	64687.05
818.726	521.5029	65535	64684.15
818.8703	523.6539	65535	64683.55
819.0145	525.8043	65535	64684.05
819.1587	527.9541	65535	64680.75
819.303	530.1033	65535	64684.95
819.4472	532.2519	65535	64683.5
819.5915	534.3999	65535	64680.7
819.7357	536.5472	65535	64683.7
819.88	538.694	65535	64681.85
820.0243	540.8401	65535	64683.55
820.1686	542.9856	65535	64679.1
820.3129	545.1305	65535	64680.05
820.4572	547.2748	65535	64678.95
820.6016	549.4185	65535	64679.2
820.7459	551.5615	65535	64678.9
820.8902	553.704	65535	64679.2
821.0346	555.8458	65535	64680.35
821.1789	557.987	65535	64682.25
821.3233	560.1276	65535	64677.6
821.4677	562.2675	65535	64678.4
821.6121	564.4069	65535	64677.3
821.7565	566.5456	65535	64679.55
821.9009	568.6837	65535	64677.7
822.0453	570.8212	65535	64675.35
822.1897	572.958	65535	64672.9
822.3342	575.0942	65535	64678.4
822.4786	577.2299	65535	64675.1
822.6231	579.3648	65535	64676.05
822.7675	581.4992	65535	64680.95
822.912	583.6329	65535	64680
823.0565	585.766	65535	64676.05
823.201	587.8985	65535	64677.75
823.3454	590.0304	65535	64650.35
823.4899	592.1616	65535	64671.6
823.6345	594.2922	65535	64669.55
823.779	596.4222	65535	64674.15
823.9235	598.5515	65535	64671.1
824.068	600.6802	65535	64672.4
824.2126	602.8083	65535	64674.6
824.3571	604.9358	65535	64671.75
824.5017	607.0626	65535	64673.75
824.6462	609.1888	65535	64669.15
824.7908	611.3144	65535	64667.2
824.9354	613.4393	65535	64671.25
825.08	615.5636	65535	64672.55
825.2246	617.6873	65535	64671.2
825.3692	619.8103	65535	64668.4
825.5138	621.9327	65535	64666.9
825.6584	624.0544	65535	64671.85
825.803	626.1756	65535	64672.3
825.9477	628.2961	65535	64668.4
826.0923	630.4159	65535	64666.55
826.237	632.5351	65535	64666.65
826.3816	634.6537	65535	64666.35
826.5263	636.7716	65535	64665.55
826.6709	638.8889	65535	64664.55
826.8156	641.0056	65535	64665.6
826.9603	643.1216	65535	64663.9
827.105	645.237	65535	64664.1
827.2497	647.3518	65535	64664.6
827.3944	649.4659	65535	64665.1
827.5391	651.5793	65535	64663.45
827.6838	653.6922	65535	64665.95
827.8285	655.8043	65535	64665.2
827.9733	657.9159	65535	64660.2
828.118	660.0268	65535	64661.45
828.2627	662.137	65535	64662.3
828.4075	664.2466	65535	64657.8
828.5522	666.3556	65535	64664.1
828.697	668.4639	65535	64656.85
828.8418	670.5716	65535	64662
828.9865	672.6786	65535	64658.5
829.1313	674.785	65535	64659.05
829.2761	676.8907	65535	64659.7
829.4209	678.9958	65535	64663.5
829.5657	681.1002	65535	64656.85
829.7105	683.204	65535	64657.8
829.8553	685.3072	65535	64660.95
830.0001	687.4097	65535	64661
830.1449	689.5115	65535	64660.6
830.2898	691.6127	65535	64659.35
830.4346	693.7132	65535	64658.25
830.5794	695.8131	65535	64646.75
830.7243	697.9123	65535	64656.4
830.8691	700.0109	65535	64656.35
831.014	702.1089	65535	64655.55
831.1588	704.2061	65535	64659.65
831.3037	706.3028	65535	64656.2
831.4486	708.3987	65535	64659.15
831.5935	710.4941	65535	64657.2
831.7383	712.5887	65535	64656.5
831.8832	714.6827	65535	64654.1
832.0281	716.7761	65535	64654.75
832.173	718.8688	65535	64656.5
832.3179	720.9608	65535	64651
832.4628	723.0522	65535	64651.85
832.6077	725.1429	65535	64652.7
832.7527	727.233	65535	64652.7
832.8976	729.3224	65535	64653.2
833.0425	731.4112	65535	64652.5
833.1874	733.4993	65535	64651.15
833.3324	735.5867	65535	64651.15
833.4773	737.6735	65535	64647.85
833.6222	739.7596	65535	64652.05
833.7672	741.845	65535	64650.5
833.9122	743.9298	65535	64647.8
834.0571	746.014	65535	64651.35
834.2021	748.0974	65535	64647.45
834.347	750.1802	65535	64651.1
834.492	752.2624	65535	64655.3
834.637	754.3439	65535	64648.65
834.782	756.4247	65535	64640.6
834.9269	758.5048	65535	64650
835.0719	760.5843	65535	64649.7
835.2169	762.6631	65535	64651.2
835.3619	764.7413	65535	64649.15
835.5069	766.8188	65535	64650.75
835.6519	768.8956	65535	64648.85
835.7969	770.9718	65535	64648.1
835.9419	773.0473	65535	64650.85
836.0869	775.1221	65535	64649.9
836.232	777.1962	65535	64651
836.377	779.2697	65535	64647.85
836.522	781.3426	65535	64631.75
836.667	783.4147	65535	64649.75
836.8121	785.4862	65535	64649.85
836.9571	787.557	65535	64651.85
837.1021	789.6271	65535	64648.1
837.2472	791.6966	65535	64650.3
837.3922	793.7654	65535	64649
837.5373	795.8335	65535	64647.6
837.6823	797.901	65535	64649.9
837.8274	799.9678	65535	64645.4
837.9724	802.0339	65535	64649.7
838.1175	804.0993	65535	64641.15
838.2626	806.1641	65535	64645.95
838.4076	808.2282	65535	64648.6
838.5527	810.2916	65535	64646.3
838.6978	812.3544	65535	64645.7
838.8428	814.4164	65535	64648.35
838.9879	816.4778	65535	64646.95
839.133	818.5385	65535	64645.55
839.2781	820.5986	65535	64646.2
839.4232	822.658	65535	64646
839.5682	824.7166	65535	64649.5
839.7133	826.7747	65535	64647.25
839.8584	828.832	65535	64644.1
840.0035	830.8886	65535	64642.3
840.1486	832.9446	65535	64644.05
840.2937	834.9999	65535	64646.2
840.4388	837.0545	65535	64641.05
840.5839	839.1085	65535	64645.15
840.729	841.1618	65535	64641.95
840.8741	843.2143	65535	64643.85
841.0192	845.2662	65535	64647.8
841.1643	847.3175	65535	64646.55
841.3095	849.368	65535	64645.3
841.4546	851.4179	65535	64648.2
841.5997	853.467	65535	64644.9
841.7448	855.5155	65535	64644.55
841.8899	857.5633	65535	64645.95
842.0351	859.6105	65535	64645.55
842.1802	861.6569	65535	64645.7
842.3253	863.7027	65535	64641
842.4704	865.7478	65535	64645.15
842.6156	867.7922	65535	64645.6
842.7607	869.8359	65535	64644.6
842.9058	871.8789	65535	64642.95
843.0509	873.9212	65535	64613.15
843.1961	875.9629	65535	64642.8
843.3412	878.0039	65535	64643.85
843.4863	880.0441	65535	64645.65
843.6315	882.0837	65535	64644.75
843.7766	884.1226	65535	64642.45
843.9218	886.1609	65535	64645.3
844.0669	888.1984	65535	64646.3
844.212	890.2352	65535	64644.25
844.3572	892.2714	65535	64640.95
844.5023	894.3069	65535	64643.85
844.6475	896.3416	65535	64643.8
844.7926	898.3757	65535	64641.85
844.9377	900.4091	65535	64640.75
845.0829	902.4418	65535	64638.6
845.228	904.4739	65535	64640.05
845.3732	906.5052	65535	64642.75
845.5183	908.5358	65535	64644.75
845.6635	910.5658	65535	64640.05
845.8086	912.595	65535	64642.8
845.9538	914.6236	65535	64641.55
846.0989	916.6515	65535	64640.3
846.2441	918.6786	65535	64639.1
846.3892	920.7051	65535	64639.45
846.5344	922.7309	65535	64641.15
846.6795	924.756	65535	64643.75
846.8246	926.7804	65535	64640.05
846.9698	928.8041	65535	64636.2
847.1149	930.8272	65535	64639.95
847.2601	932.8495	65535	64640.15
847.4052	934.8711	65535	64642.45
847.5504	936.892	65535	64642
847.6955	938.9123	65535	64643.9
847.8407	940.9318	65535	64640.95
847.9858	942.9506	65535	64640.65
848.131	944.9688	65535	64640.55
848.2761	946.9862	65535	64641.3
848.4213	949.003	65535	64640.25
848.5664	951.019	65535	64641
848.7115	953.0344	65535	64641.45
848.8567	955.0491	65535	64639.65
849.0018	957.063	65535	64638.65
849.147	959.0763	65535	64643.55
849.2921	961.0888	65535	64639.1
849.4373	963.1007	65535	64641.2
849.5824	965.1119	65535	64638.05
849.7275	967.1223	65535	64641.3
849.8727	969.1321	65535	64645.3
850.0178	971.1412	65535	64640.95
850.1629	973.1495	65535	64642.1
850.3081	975.1572	65535	64606.55
850.4532	977.1641	65535	64641.65
850.5983	979.1704	65535	64641.2
850.7435	981.1759	65535	64636.6
850.8886	983.1808	65535	64639.2
851.0337	985.1849	65535	64633.65
851.1788	987.1884	65535	64637.55
851.324	989.1911	65535	64638.3
851.4691	991.1932	65535	64640.2
851.6142	993.1945	65535	64641.15
851.7593	995.1951	65535	64637.75
851.9045	997.1951	65535	64634.45
852.0496	999.1943	65535	64640.25
852.1947	1001.1928	65535	64640.7
852.3398	1003.1906	65535	64640.85
852.4849	1005.1877	65535	64639.8
852.63	1007.1841	65535	64640.5
852.7751	1009.1798	65535	64639.15
852.9202	1011.1748	65535	64639.9
853.0653	1013.1691	65535	64641.1
853.2104	1015.1627	65535	64638.55
853.3555	1017.1556	65535	64637.75
853.5006	1019.1477	65535	64638.75
853.6457	1021.1392	65535	64642.15
853.7908	1023.1299	65535	64640.7
853.9359	1025.12	65535	64638.1
854.081	1027.1093	65535	64641.45
854.2261	1029.0979	65535	64644.55
854.3712	1031.0859	65535	64640.7
854.5163	1033.0731	65535	64641
854.6613	1035.0596	65535	64640.6
854.8064	1037.0454	65535	64640.65
854.9515	1039.0304	65535	64639.9
855.0965	1041.0148	65535	64639.9
855.2416	1042.9985	65535	64638.05
855.3867	1044.9814	65535	64640.65
855.5317	1046.9636	65535	64636.15
855.6768	1048.9452	65535	64640.55
855.8219	1050.926	65535	64641.95
855.9669	1052.9061	65535	64640.85
856.112	1054.8855	65535	64640.9
856.257	1056.8642	65535	64640.45
856.4021	1058.8421	65535	64637.05
856.5471	1060.8194	65535	64638.6
856.6921	1062.7959	65535	64640.05
856.8372	1064.7717	65535	64637.2
856.9822	1066.7469	65535	64638.8
857.1272	1068.7213	65535	64636.3
857.2723	1070.695	65535	64641.55
857.4173	1072.6679	65535	64639.1
857.5623	1074.6402	65535	64641
857.7073	1076.6117	65535	64634.75
857.8523	1078.5826	65535	64638.9
857.9973	1080.5527	65535	64637.55
858.1423	1082.5221	65535	64640.05
858.2873	1084.4908	65535	64642.25
858.4323	1086.4587	65535	64636.8
858.5773	1088.426	65535	64640.4
858.7223	1090.3925	65535	64634.15
858.8673	1092.3584	65535	64639.45
859.0123	1094.3235	65535	64641.55
859.1573	1096.2879	65535	64638.25
859.3022	1098.2515	65535	64641.1
859.4472	1100.2145	65535	64639.7
859.5922	1102.1767	65535	64637.8
859.7371	1104.1382	65535	64638.95
859.8821	1106.099	65535	64636.4
860.027	1108.0591	65535	64640.2
860.172	1110.0185	65535	64637.25
860.3169	1111.9771	65535	64637.4
860.4619	1113.9351	65535	64639.6
860.6068	1115.8923	65535	64637.25
860.7517	1117.8488	65535	64637.9
860.8967	1119.8045	65535	64640.8
861.0416	1121.7596	65535	64640.65
861.1865	1123.7139	65535	64639.3
861.3314	1125.6675	65535	64638.55
861.4763	1127.6204	65535	64640.1
861.6212	1129.5726	65535	64637.5
861.7661	1131.524	65535	64640.95
861.911	1133.4748	65535	64638.4
862.0559	1135.4248	65535	64639
862.2008	1137.3741	65535	64637.55
862.3457	1139.3226	65535	64639
862.4905	1141.2705	65535	64638.95
862.6354	1143.2176	65535	64633.25
862.7803	1145.164	65535	64638.05
862.9251	1147.1097	65535	64640.3
863.07	1149.0546	65535	64636.7
863.2148	1150.9989	65535	64641.15
863.3597	1152.9424	65535	64635.5
863.5045	1154.8852	65535	64637.3
863.6493	1156.8272	65535	64638.95
863.7942	1158.7686	65535	64632.65
863.939	1160.7092	65535	64633.9
864.0838	1162.6491	65535	64635.35
864.2286	1164.5883	65535	64640.3
864.3734	1166.5267	65535	64636.7
864.5182	1168.4644	65535	64639.15
864.663	1170.4014	65535	64633.45
864.8078	1172.3377	65535	64641.15
864.9526	1174.2732	65535	64637.1
865.0974	1176.2081	65535	64640.4
865.2421	1178.1421	65535	64633.8
865.3869	1180.0755	65535	64640.75
865.5317	1182.0082	65535	64639.8
865.6764	1183.9401	65535	64639.5
865.8212	1185.8713	65535	64641.4
865.9659	1187.8017	65535	64639.05
866.1106	1189.7315	65535	64641.25
866.2554	1191.6605	65535	64610.35
866.4001	1193.5888	65535	64637.8
866.5448	1195.5163	65535	64639.15
866.6895	1197.4432	65535	64638.35
866.8342	1199.3693	65535	64638.7
866.9789	1201.2947	65535	64636.95
867.1236	1203.2193	65535	64639
867.2683	1205.1432	65535	64638.5
867.413	1207.0664	65535	64637
867.5576	1208.9889	65535	64637.3
867.7023	1210.9106	65535	64639.45
867.847	1212.8316	65535	64640.3
867.9916	1214.7519	65535	64629.9
868.1363	1216.6715	65535	64638
868.2809	1218.5903	65535	64638.35
868.4255	1220.5084	65535	64638.45
868.5701	1222.4257	65535	64638.45
868.7148	1224.3424	65535	64639.35
868.8594	1226.2583	65535	64638.95
869.004	1228.1735	65535	64638.8
869.1486	1230.0879	65535	64638.75
869.2932	1232.0016	65535	64640.4
869.4377	1233.9146	65535	64638.25
869.5823	1235.8269	65535	64640.65
869.7269	1237.7384	65535	64641.4
869.8715	1239.6492	65535	64638.75
870.016	1241.5592	65535	64636.6
870.1606	1243.4686	65535	64637.5
870.3051	1245.3772	65535	64640.75
870.4496	1247.285	65535	64638.5
870.5941	1249.1922	65535	64639.1
870.7387	1251.0986	65535	64640.35
870.8832	1253.0042	65535	64638.35
871.0277	1254.9092	65535	64639.6
871.1722	1256.8134	65535	64642.5
871.3167	1258.7169	65535	64638.95
871.4611	1260.6196	65535	64639.3
871.6056	1262.5216	65535	64635.95
871.7501	1264.4229	65535	64639.05
871.8945	1266.3234	65535	64641.8
872.039	1268.2232	65535	64636
872.1834	1270.1223	65535	64639.35
872.3278	1272.0207	65535	64637.35
872.4723	1273.9183	65535	64634
872.6167	1275.8151	65535	64637.55
872.7611	1277.7113	65535	64636.65
872.9055	1279.6067	65535	64638.55
873.0499	1281.5014	65535	64634.9
873.1943	1283.3953	65535	64635.6
873.3386	1285.2885	65535	64639.8
873.483	1287.181	65535	64637.6
873.6274	1289.0727	65535	64639.5
873.7717	1290.9637	65535	64639.25
873.9161	1292.854	65535	64639.6
874.0604	1294.7435	65535	64639.8
874.2047	1296.6323	65535	64639.1
874.349	1298.5204	65535	64635.1
874.4933	1300.4077	65535	64637.95
874.6376	1302.2943	65535	64639
874.7819	1304.1802	65535	64638.6
874.9262	1306.0653	65535	64637.35
875.0705	1307.9497	65535	64638.8
875.2147	1309.8333	65535	64639.45
875.359	1311.7162	65535	64639
875.5032	1313.5984	65535	64635.9
875.6475	1315.4798	65535	64636.4
875.7917	1317.3605	65535	64621.4
875.9359	1319.2405	65535	64636
876.0801	1321.1197	65535	64636.6
876.2243	1322.9982	65535	64630.95
876.3685	1324.876	65535	64638.4
876.5127	1326.753	65535	64636.75
876.6569	1328.6293	65535	64634.5
876.801	1330.5048	65535	64637.8
876.9452	1332.3796	65535	64639.45
877.0893	1334.2537	65535	64613.9
877.2335	1336.127	65535	64637.1
877.3776	1337.9996	65535	64640.15
877.5217	1339.8714	65535	64640.2
877.6658	1341.7426	65535	64595.85
877.8099	1343.6129	65535	64636.55
877.954	1345.4826	65535	64639.2
878.0981	1347.3515	65535	64636.95
878.2422	1349.2196	65535	64636.7
878.3862	1351.087	65535	64639.75
878.5303	1352.9537	65535	64637.25
878.6743	1354.8197	65535	64638.55
878.8184	1356.6849	65535	64639.7
878.9624	1358.5493	65535	64638.75
879.1064	1360.4131	65535	64639
879.2504	1362.276	65535	64640.95
879.3944	1364.1383	65535	64638.8
879.5384	1365.9998	65535	64634.45
879.6823	1367.8606	65535	64635.9
879.8263	1369.7206	65535	64637.1
879.9702	1371.5799	65535	64637.45
880.1142	1373.4384	65535	64636.55
880.2581	1375.2962	65535	64637.15
880.402	1377.1533	65535	64637.8
880.5459	1379.0096	65535	64638.3
880.6898	1380.8652	65535	64639.95
880.8337	1382.7201	65535	64638.4
880.9776	1384.5742	65535	64638.1
881.1215	1386.4275	65535	64636.2
881.2653	1388.2802	65535	64639.1
881.4092	1390.132	65535	64638.65
881.553	1391.9832	65535	64636.35
881.6968	1393.8336	65535	64636.85
881.8406	1395.6832	65535	64635.95
881.9844	1397.5322	65535	64637.6
882.1282	1399.3803	65535	64634.15
882.272	1401.2278	65535	64638.7
882.4158	1403.0745	65535	64638.7
882.5595	1404.9204	65535	64641.7
882.7033	1406.7656	65535	64639
882.847	1408.6101	65535	64638.35
882.9908	1410.4538	65535	64638.6
883.1345	1412.2968	65535	64640.35
883.2782	1414.139	65535	64638.7
883.4219	1415.9805	65535	64640.7
883.5656	1417.8213	65535	64632.5
883.7092	1419.6613	65535	64639.45
883.8529	1421.5006	65535	64637.5
883.9965	1423.3391	65535	64638.95
884.1402	1425.1769	65535	64637.1
884.2838	1427.0139	65535	64638.35
884.4274	1428.8502	65535	64638.15
884.571	1430.6858	65535	64638.1
884.7146	1432.5206	65535	64638.55
884.8582	1434.3547	65535	64635.35
885.0018	1436.188	65535	64640.8
885.1453	1438.0206	65535	64637.15
885.2889	1439.8524	65535	64638
885.4324	1441.6835	65535	64638.5
885.5759	1443.5139	65535	64633.85
885.7194	1445.3435	65535	64639.7
885.8629	1447.1724	65535	64639.7
886.0064	1449.0005	65535	64640.85
886.1499	1450.8279	65535	64639.25
886.2933	1452.6545	65535	64638.4
886.4368	1454.4804	65535	64638.1
886.5802	1456.3056	65535	64632
886.7237	1458.13	65535	64640.9
886.8671	1459.9536	65535	64638.35
887.0105	1461.7766	65535	64640.85
887.1539	1463.5987	65535	64638.1
887.2972	1465.4202	65535	64639.2
887.4406	1467.2409	65535	64639.35
887.584	1469.0608	65535	64638.4
887.7273	1470.88	65535	64636.9
887.8706	1472.6984	65535	64642.55
888.0139	1474.5161	65535	64635.7
888.1572	1476.3331	65535	64638.8
888.3005	1478.1493	65535	64636.35
888.4438	1479.9648	65535	64638.5
888.5871	1481.7795	65535	64640.65
888.7303	1483.5935	65535	64638.85
888.8736	1485.4067	65535	64638.8
889.0168	1487.2192	65535	64638.9
889.16	1489.031	65535	64636.6
889.3032	1490.842	65535	64638.9
889.4464	1492.6522	65535	64640.55
889.5896	1494.4618	65535	64637.95
889.7327	1496.2705	65535	64638.5
889.8759	1498.0785	65535	64639.65
890.019	1499.8858	65535	64639.75
890.1622	1501.6924	65535	64638.9
890.3053	1503.4981	65535	64639.85
890.4484	1505.3032	65535	64639.75
890.5914	1507.1075	65535	64639
890.7345	1508.911	65535	64638.75
890.8776	1510.7138	65535	64636.95
891.0206	1512.5159	65535	64638.65
891.1637	1514.3172	65535	64641.65
891.3067	1516.1178	65535	64641.85
891.4497	1517.9176	65535	64639.1
891.5927	1519.7166	65535	64640.9
891.7357	1521.515	65535	64634.95
891.8786	1523.3126	65535	64640.2
892.0216	1525.1094	65535	64640.65
892.1645	1526.9055	65535	64640.35
892.3074	1528.7008	65535	64640.8
892.4503	1530.4954	65535	64633.45
892.5932	1532.2893	65535	64643.2
892.7361	1534.0824	65535	64634.75
892.879	1535.8747	65535	64642.6
893.0218	1537.6663	65535	64640.7
893.1647	1539.4572	65535	64640.05
893.3075	1541.2473	65535	64638
893.4503	1543.0367	65535	64640.4
893.5931	1544.8253	65535	64637.9
893.7359	1546.6132	65535	64637.5
893.8787	1548.4003	65535	64630.05
894.0214	1550.1867	65535	64631.1
894.1642	1551.9723	65535	64634.95
894.3069	1553.7572	65535	64638.2
894.4496	1555.5414	65535	64641.2
894.5923	1557.3247	65535	64638.65
894.735	1559.1074	65535	64639.55
894.8777	1560.8893	65535	64640
895.0204	1562.6705	65535	64640.6
895.163	1564.4509	65535	64640.25
895.3056	1566.2305	65535	64641.9
895.4482	1568.0094	65535	64643.65
895.5908	1569.7876	65535	64641.45
895.7334	1571.565	65535	64639.35
895.876	1573.3417	65535	64639.85
896.0186	1575.1176	65535	64640.85
896.1611	1576.8928	65535	64640.35
896.3036	1578.6672	65535	64642
896.4461	1580.4409	65535	64644.2
896.5886	1582.2138	65535	64640.95
896.7311	1583.986	65535	64641.2
896.8736	1585.7575	65535	64642.75
897.0161	1587.5282	65535	64643.85
897.1585	1589.2981	65535	64642.75
897.3009	1591.0673	65535	64643.75
897.4433	1592.8358	65535	64641.05
897.5857	1594.6035	65535	64640.4
897.7281	1596.3704	65535	64640.95
897.8705	1598.1366	65535	64642.6
898.0128	1599.9021	65535	64642.15
898.1551	1601.6668	65535	64640.15
898.2975	1603.4308	65535	64640.95
898.4398	1605.194	65535	64636.1
898.5821	1606.9564	65535	64641
898.7243	1608.7182	65535	64640.65
898.8666	1610.4791	65535	64643.7
899.0088	1612.2394	65535	64644.95
899.1511	1613.9988	65535	64645.6
899.2933	1615.7576	65535	64644.25
899.4355	1617.5156	65535	64636.15
899.5776	1619.2728	65535	64642.2
899.7198	1621.0293	65535	64642.6
899.862	1622.785	65535	64639.35
900.0041	1624.54	65535	64641.3
900.1462	1626.2942	65535	64639.4
900.2883	1628.0477	65535	64639.05
900.4304	1629.8005	65535	64639.25
900.5725	1631.5525	65535	64641.35
900.7145	1633.3037	65535	64643.05
900.8566	1635.0542	65535	64642.25
900.9986	1636.804	65535	64643.25
901.1406	1638.553	65535	64551.25
901.2826	1640.3013	65535	64643.15
901.4245	1642.0488	65535	64642.75
901.5665	1643.7955	65535	64645.1
901.7085	1645.5416	65535	64640.9
901.8504	1647.2868	65535	64643.85
901.9923	1649.0313	65535	64640.7
902.1342	1650.7751	65535	64639.6
902.2761	1652.5181	65535	64644.6
902.4179	1654.2604	65535	64640.65
902.5598	1656.0019	65535	64644
902.7016	1657.7427	65535	64644
902.8434	1659.4828	65535	64641.8
902.9852	1661.222	65535	64641.85
903.127	1662.9606	65535	64642.4
903.2687	1664.6984	65535	64645.7
903.4105	1666.4354	65535	64642.4
903.5522	1668.1717	65535	64642.55
903.6939	1669.9072	65535	64640.35
903.8356	1671.642	65535	64641.2
903.9773	1673.3761	65535	64642.65
904.119	1675.1094	65535	64645.15
904.2606	1676.8419	65535	64643.55
904.4022	1678.5737	65535	64642.15
904.5439	1680.3048	65535	64644.2
904.6855	1682.0351	65535	64644.95
904.827	1683.7646	65535	64640.6
904.9686	1685.4934	65535	64641.75
905.1101	1687.2215	65535	64641.8
905.2517	1688.9488	65535	64643.05
905.3932	1690.6754	65527.1	64634.75
905.5347	1692.4012	65535	64643.3
905.6761	1694.1263	65535	64643.4
905.8176	1695.8506	65525.4	64633.95
905.9591	1697.5742	65532.85	64642.1
906.1005	1699.297	65529.4	64638.9
906.2419	1701.0191	65534.3	64643.95
906.3833	1702.7404	65504.4	64612.95
906.5246	1704.461	65482.1	64589.15
906.666	1706.1808	65527.4	64634.5
906.8073	1707.8999	65515.9	64622
906.9487	1709.6182	65503.25	64612.55
907.09	1711.3358	65495.05	64603.85
907.2313	1713.0527	65489.3	64599.15
907.3725	1714.7688	65500.6	64604.7
907.5138	1716.4841	65392.45	64501.05
907.655	1718.1987	65426.5	64530.6
907.7962	1719.9126	65387.55	64497.25
907.9374	1721.6257	65436.35	64541.2
908.0786	1723.338	65436.8	64545.3
908.2198	1725.0496	65226.9	64335.35
908.3609	1726.7605	65271.1	64379.6
908.502	1728.4706	65144.7	64254
908.6431	1730.18	65317.55	64425.3
908.7842	1731.8886	65138.3	64246.9
908.9253	1733.5964	65045.05	64150.15
909.0664	1735.3036	65236.3	64343
909.2074	1737.0099	65085.85	64193.8
909.3484	1738.7156	64975.55	64086.4
909.4894	1740.4204	64948.7	64055.8
909.6304	1742.1246	65012.05	64119.05
909.7714	1743.8279	65054.5	64164.9
909.9123	1745.5306	64999.4	64109.05
910.0532	1747.2325	64497.9	63608.25
910.1941	1748.9336	64545.4	63655
910.335	1750.634	64728.2	63834.9
910.4759	1752.3336	64847	63956.25
910.6168	1754.0325	64486.3	63597.5
910.7576	1755.7307	64827.15	63936.8
910.8984	1757.4281	64293.8	63402.5
911.0392	1759.1247	64703.35	63806.2
911.18	1760.8206	64064.4	63169
911.3208	1762.5158	64188.05	63293.75
911.4615	1764.2102	64406.5	63515.7
911.6022	1765.9039	64245.8	63354.4
911.7429	1767.5968	64084.4	63194.85
911.8836	1769.289	63985.9	63096.2
912.0243	1770.9804	64129.7	63237.95
912.1649	1772.6711	63944.85	63055
912.3056	1774.361	63841.65	62952.05
912.4462	1776.0502	63830.55	62940.25
912.5868	1777.7386	62978.15	62085.15
912.7274	1779.4263	63550.55	62658.85
912.8679	1781.1132	63539.55	62648.2
913.0084	1782.7994	63368.7	62477.45
913.149	1784.4849	63340.4	62451.65
913.2895	1786.1696	62343.25	61446.65
913.4299	1787.8535	63044.5	62155.5
913.5704	1789.5367	63192.75	62304.45
913.7108	1791.2192	62525.25	61635.85
913.8513	1792.9009	62010.25	61090.1
913.9917	1794.5818	62637.7	61745.4
914.132	1796.2621	61990.1	61101.45
914.2724	1797.9415	62079.9	61188
914.4128	1799.6202	62023.7	61133.8
914.5531	1801.2982	62043.2	61152.2
914.6934	1802.9755	61313.05	60421.95
914.8337	1804.6519	61128.45	60237.2
914.9739	1806.3277	62234.45	61346.4
915.1142	1808.0027	60611.65	59724.55
915.2544	1809.6769	61173.05	60284.05
915.3946	1811.3504	61331.6	60439.1
915.5348	1813.0231	60130.45	59240.25
915.675	1814.6951	60863.4	59974.2
915.8151	1816.3664	60361.5	59469.4
915.9553	1818.0369	60448.2	59558.2
916.0954	1819.7067	60083.65	59194.8
916.2355	1821.3757	60758.05	59867.3
916.3755	1823.044	59808.6	58919
916.5156	1824.7115	59351.25	58460.8
916.6556	1826.3783	59661.9	58773.05
916.7956	1828.0443	59684.7	58794.7
916.9356	1829.7096	59360.3	58468.15
917.0756	1831.3741	58669.7	57775.1
917.2155	1833.0379	59065.65	58175.4
917.3555	1834.701	59034.1	58142
917.4954	1836.3633	58480.1	57588.1
917.6353	1838.0248	58833.4	57943.1
917.7751	1839.6856	58612.7	57723.15
917.915	1841.3457	57947.85	57057.35
918.0548	1843.005	58736.45	57846.9
918.1946	1844.6636	58203.6	57315.1
918.3344	1846.3214	57473.5	56585
918.4742	1847.9785	57670.75	56780.15
918.6139	1849.6349	57580.25	56687.35
918.7537	1851.2904	58112.9	57213.5
918.8934	1852.9453	57181.3	56291.55
919.0331	1854.5994	57456.6	56564.65
919.1727	1856.2528	57548.25	56652.75
919.3124	1857.9054	56989.25	56099.1
919.452	1859.5572	56787.95	55899.3
919.5916	1861.2083	56965.7	56075.25
919.7312	1862.8587	57495.75	56606.05
919.8708	1864.5084	56091.5	55200.15
920.0103	1866.1572	56633.6	55742.4
920.1498	1867.8054	55873.6	54982.6
920.2893	1869.4528	56400.55	55509.6
920.4288	1871.0994	55732.7	54841.55
920.5683	1872.7453	55724	54833.35
920.7077	1874.3905	55934.05	55037.35
920.8471	1876.0349	55460.8	54570.65
920.9865	1877.6786	55778.6	54887.35
921.1259	1879.3215	55277.75	54389.1
921.2653	1880.9637	55719.85	54829.15
921.4046	1882.6051	55243.1	54352.5
921.5439	1884.2458	54913.4	54022.3
921.6832	1885.8858	54619.1	53726.9
921.8225	1887.525	54754.65	53862.9
921.9617	1889.1634	54619.4	53730.95
922.101	1890.8011	54447.05	53557.05
922.2402	1892.4381	53861.35	52972.9
922.3794	1894.0743	54444.5	53553.9
922.5185	1895.7098	54016.65	53127.6
922.6577	1897.3446	53620.45	52728.3
922.7968	1898.9786	53744.55	52850.15
922.9359	1900.6118	53433.7	52542.1
923.075	1902.2443	53119.7	52228.1
923.214	1903.8761	53367.4	52477.3
923.3531	1905.5071	53029.85	52137.95
923.4921	1907.1374	52440.35	51548.6
923.6311	1908.7669	52606.55	51718.1
923.77	1910.3957	52872.6	51984.4
923.909	1912.0237	52199.6	51311.3
924.0479	1913.651	51983.05	51092.2
924.1868	1915.2776	51831.2	50941.65
924.3257	1916.9034	51827.8	50939.35
924.4646	1918.5285	51567.55	50678.2
924.6034	1920.1528	51441	50550.8
924.7422	1921.7764	51311.25	50423.55
924.881	1923.3992	51059.85	50171.6
925.0198	1925.0213	50761.45	49871.7
925.1586	1926.6427	50421.45	49530.85
925.2973	1928.2633	50512.25	49542.2
925.436	1929.8832	50314.2	49423.4
925.5747	1931.5023	50094.1	49206
925.7134	1933.1207	49870.3	48980.2
925.852	1934.7383	49941.95	49050.95
925.9906	1936.3552	49656.85	48767.75
926.1292	1937.9714	49530.8	48642.55
926.2678	1939.5868	49432.65	48539.8
926.4064	1941.2015	49016	48124.65
926.5449	1942.8154	48844.3	47953.85
926.6834	1944.4286	48708.1	47817.65
926.8219	1946.041	48586.05	47677.85
926.9604	1947.6528	48309.05	47414.55
927.0988	1949.2637	48187.3	47297.4
927.2372	1950.8739	47953.45	47064.1
927.3756	1952.4834	47978.5	47088.75
927.514	1954.0921	47835	46945.8
927.6523	1955.7001	47547.95	46652.6
927.7907	1957.3074	47527.2	46638.15
927.929	1958.9139	47254.3	46364.9
928.0673	1960.5197	47183.3	46291.25
928.2055	1962.1247	46942.1	46053.05
928.3438	1963.729	46681.15	45792
928.482	1965.3325	46537.15	45625.2
928.6202	1966.9353	46425.5	45537.15
928.7584	1968.5374	46228.65	45340.8
928.8965	1970.1387	46068.85	45180.4
929.0346	1971.7393	45904.2	45016.9
929.1727	1973.3392	45832.25	44942.65
929.3108	1974.9383	45583.45	44694
929.4489	1976.5366	45352.05	44461.85
929.5869	1978.1342	45351.6	44462.25
929.7249	1979.7311	45260.35	44369.65
929.8629	1981.3273	45076.8	44186.6
930.0009	1982.9227	44899.55	44009.05
930.1388	1984.5173	44741.4	43852.75
930.2767	1986.1112	44541.85	43654
930.4146	1987.7044	44528.05	43639.4
930.5525	1989.2968	44316.8	43425
930.6904	1990.8885	44213.05	43318.2
930.8282	1992.4795	44121.9	43230.1
930.966	1994.0697	43919.25	43031.25
931.1038	1995.6592	43746.35	42858.8
931.2415	1997.2479	43647.25	42760.65
931.3793	1998.8359	43548.8	42659.25
931.517	2000.4232	43324.05	42435.55
931.6547	2002.0097	43138.05	42249.5
931.7923	2003.5955	42930	42040.8
931.93	2005.1805	42974.3	42083.55
932.0676	2006.7648	42782.95	41894.85
932.2052	2008.3484	42606.85	41717.05
932.3427	2009.9312	42656.75	41765.9
932.4803	2011.5133	42453.9	41566.55
932.6178	2013.0946	42307.75	41419.8
932.7553	2014.6752	42174.05	41287.15
932.8928	2016.2551	42063.15	41174.65
933.0302	2017.8342	41897.65	41008.75
933.1676	2019.4126	41752.15	40864
933.305	2020.9902	41567.45	40677.75
933.4424	2022.5672	41533.7	40642.9
933.5798	2024.1433	41385.85	40490.9
933.7171	2025.7188	41197.15	40308.65
933.8544	2027.2935	41128.2	40238.95
933.9917	2028.8674	40914.3	40027.4
934.129	2030.4406	40827.2	39940.05
934.2662	2032.0131	40648.95	39761.75
934.4034	2033.5849	40513.55	39617.95
934.5406	2035.1559	40436.65	39549.25
934.6778	2036.7261	40363.2	39474.15
934.8149	2038.2957	40204.75	39314.95
934.952	2039.8645	40184.15	39294.9
935.0891	2041.4325	40140.75	39250.65
935.2262	2042.9998	39963.1	39074.55
935.3632	2044.5664	39818.4	38927.9
935.5002	2046.1323	39712.7	38825.05
935.6372	2047.6974	39576.45	38687
935.7742	2049.2617	39476.5	38589.35
935.9111	2050.8254	39433.7	38539.5
936.048	2052.3883	39327.15	38437.2
936.1849	2053.9504	39209.9	38320.85
936.3218	2055.5118	39090.35	38201.5
936.4586	2057.0725	38883.3	37992.6
936.5955	2058.6325	38851.7	37962.5
936.7323	2060.1917	38698.65	37810.7
936.869	2061.7502	38609.3	37718.75
937.0058	2063.3079	38425.15	37536.65
937.1425	2064.8649	38333.6	37444.25
937.2792	2066.4212	38211.2	37322.05
937.4159	2067.9767	38090.25	37201.8
937.5525	2069.5315	37905.5	37020.7
937.6891	2071.0856	37775.95	36885.9
937.8257	2072.6389	37619	36730.15
937.9623	2074.1915	37443.2	36556.35
938.0989	2075.7433	37238.9	36350.7
938.2354	2077.2945	37200.45	36314.05
938.3719	2078.8448	37060.25	36173.8
938.5084	2080.3945	36948.05	36059.4
938.6448	2081.9434	36940.75	36051.55
938.7812	2083.4916	36779.85	35888.8
938.9176	2085.039	36601.2	35711.8
939.054	2086.5857	36535.2	35644.35
939.1903	2088.1317	36495.8	35605.95
939.3267	2089.677	36399.55	35511.6
939.463	2091.2215	36287.4	35399.65
939.5992	2092.7652	36139.1	35249.6
939.7355	2094.3083	36067.95	35180.4
939.8717	2095.8506	35927.15	35039.55
940.0079	2097.3921	35957.75	35070.75
940.1441	2098.933	35764.85	34873.9
940.2802	2100.4731	35690.8	34800.45
940.4163	2102.0124	35672.95	34777.1
940.5524	2103.5511	35515.45	34626.65
940.6885	2105.089	35444.9	34557.05
940.8245	2106.6261	35351.45	34462.25
940.9606	2108.1626	35232.45	34343.6
941.0965	2109.6983	35135.7	34218.45
941.2325	2111.2332	35079.7	34191.7
941.3684	2112.7675	34957.35	34069.5
941.5044	2114.301	34865.85	33974.85
941.6403	2115.8337	34819.25	33931.7
941.7761	2117.3657	34666.85	33777.65
941.912	2118.897	34611.4	33720.05
942.0478	2120.4276	34481.55	33586.6
942.1835	2121.9575	34306	33415.75
942.3193	2123.4866	34314.2	33412.6
942.455	2125.0149	34152.1	33259.25
942.5907	2126.5426	33981.75	33092.8
942.7264	2128.0695	33955.9	33064.25
942.8621	2129.5956	33844.95	32957.95
942.9977	2131.1211	33791.5	32898.1
943.1333	2132.6458	33700.5	32812.75
943.2689	2134.1698	33633.45	32745
943.4044	2135.693	33484	32593.95
943.54	2137.2155	33388.4	32495.3
943.6755	2138.7373	33305.35	32417.85
943.8109	2140.2584	33203.25	32316.6
943.9464	2141.7787	33067.2	32172.25
944.0818	2143.2983	32905	32016.3
944.2172	2144.8171	32757.05	31869.25
944.3526	2146.3353	32684.25	31795.5
944.4879	2147.8527	32518.4	31630.95
944.6232	2149.3693	32532.6	31642.2
944.7585	2150.8853	32392.8	31504.95
944.8938	2152.4005	32240.75	31351.35
945.029	2153.9149	32198.35	31311.25
945.1642	2155.4287	32104.4	31215.95
945.2994	2156.9417	32002.25	31112.45
945.4346	2158.454	31937.75	31045.8
945.5697	2159.9655	31824.8	30935
945.7048	2161.4764	31795.4	30905.55
945.8399	2162.9865	31691	30803.3
945.9749	2164.4958	31599.95	30709.85
946.1099	2166.0045	31452.2	30560.5
946.2449	2167.5124	31420.95	30530.25
946.3799	2169.0195	31347.7	30459.2
946.5148	2170.526	31299.05	30411.15
946.6498	2172.0317	31153.15	30263.9
946.7846	2173.5367	31114.5	30226.3
946.9195	2175.0409	30968.55	30080.4
947.0543	2176.5445	30979.4	30089.9
947.1891	2178.0473	30813.2	29924.9
947.3239	2179.5494	30671.55	29777.85
947.4587	2181.0507	30576.85	29687.5
947.5934	2182.5513	30458.25	29570.15
947.7281	2184.0512	30380.45	29491.05
947.8628	2185.5504	30291.25	29404.15
947.9974	2187.0488	30108.65	29219.5
948.132	2188.5465	30016.15	29127.45
948.2666	2190.0435	29942.45	29054.55
948.4012	2191.5397	29805.3	28915.75
948.5357	2193.0353	29751.75	28863.75
948.6702	2194.5301	29600.8	28708.6
948.8047	2196.0241	29447.15	28557
948.9392	2197.5175	29436.1	28548.55
949.0736	2199.0101	29321.55	28430
949.208	2200.502	29171.9	28285.65
949.3424	2201.9931	29003.25	28115.15
949.4767	2203.4835	28950.15	28059.25
949.611	2204.9733	28890.4	27996.05
949.7453	2206.4622	28829.1	27939.85
949.8796	2207.9505	28665.4	27773.55
950.0138	2209.438	28500.55	27613.3
950.148	2210.9248	28451	27563
950.2822	2212.4109	28350.75	27462.9
950.4164	2213.8962	28237.6	27345.95
950.5505	2215.3809	28185	27295.15
950.6846	2216.8648	28121.25	27230.45
950.8186	2218.3479	28056.25	27162.4
950.9527	2219.8304	27941.85	27050.3
951.0867	2221.3121	27824.95	26933.85
951.2207	2222.7931	27709.85	26823.9
951.3546	2224.2733	27564.15	26675.05
951.4886	2225.7529	27528.85	26640.2
951.6225	2227.2317	27410.9	26520.15
951.7563	2228.7098	27362.35	26472.15
951.8902	2230.1872	27231.95	26344.5
952.024	2231.6638	27192.9	26304.4
952.1578	2233.1397	27108.25	26211.85
952.2916	2234.6149	26998.4	26110.25
952.4253	2236.0894	26895.9	26005.7
952.559	2237.5632	26826.2	25937.8
952.6927	2239.0362	26718.25	25829.2
952.8263	2240.5085	26633.25	25745.05
952.9599	2241.9801	26521.4	25634.85
953.0935	2243.4509	26462.35	25573.4
953.2271	2244.921	26367.85	25480.4
953.3606	2246.3904	26254.3	25364.35
953.4941	2247.8591	26175.55	25288.6
953.6276	2249.3271	26124.45	25235
953.7611	2250.7943	26008.3	25118.25
953.8945	2252.2608	25866.8	24976.6
954.0279	2253.7266	25863.4	24974.15
954.1612	2255.1917	25752.5	24861.2
954.2946	2256.656	25608.25	24721.1
954.4279	2258.1197	25550	24663.55
954.5612	2259.5826	25531.05	24641.05
954.6944	2261.0447	25449.45	24560.25
954.8276	2262.5062	25308.05	24417.05
954.9608	2263.9669	25269.2	24376.65
955.094	2265.4269	25219.45	24330.3
955.2271	2266.8862	25134.6	24246.05
955.3602	2268.3448	25053.75	24167.25
955.4933	2269.8026	24969.8	24079.85
955.6264	2271.2598	24925.75	24036.2
955.7594	2272.7162	24839.9	23951.25
955.8924	2274.1719	24770.85	23882.6
956.0253	2275.6268	24696.2	23808.5
956.1583	2277.0811	24614.95	23724.65
956.2912	2278.5346	24566.3	23680.4
956.4241	2279.9874	24518.7	23630.15
956.5569	2281.4395	24468	23581
956.6897	2282.8908	24384.35	23491.55
956.8225	2284.3414	24301.45	23409.35
956.9553	2285.7914	24203.2	23315.85
957.088	2287.2406	24118.75	23228.3
957.2207	2288.689	24087.2	23200.35
957.3534	2290.1368	23977.8	23087.9
957.486	2291.5838	23907	23016.95
957.6186	2293.0302	23824.85	22936
957.7512	2294.4758	23726.5	22837.8
957.8838	2295.9206	23606.95	22716.6
958.0163	2297.3648	23577.45	22689.35
958.1488	2298.8082	23539.9	22649.55
958.2813	2300.251	23443.65	22554.05
958.4137	2301.693	23356.45	22464.75
958.5461	2303.1343	23311.3	22420.9
958.6785	2304.5748	23245.4	22357.95
958.8108	2306.0147	23178.2	22290
958.9432	2307.4538	23066.45	22175.95
959.0754	2308.8922	22997.3	22109.75
959.2077	2310.3299	22939.8	22050.5
959.3399	2311.7669	22860.85	21973.15
959.4721	2313.2031	22761.1	21873.65
959.6043	2314.6387	22680.6	21791.7
959.7365	2316.0735	22606.65	21718.05
959.8686	2317.5076	22530.2	21641.4
960.0006	2318.941	22498.35	21609.05
960.1327	2320.3737	22475.15	21586.6
960.2647	2321.8056	22380.3	21489
960.3967	2323.2369	22286.5	21395.85
960.5287	2324.6674	22226.4	21334.75
960.6606	2326.0972	22130.05	21239.9
960.7925	2327.5263	22018.05	21129.75
960.9244	2328.9547	21980.25	21090.85
961.0562	2330.3823	21954.6	21064.25
961.1881	2331.8092	21897.95	21006
961.3198	2333.2355	21741.6	20851.9
961.4516	2334.661	21734.7	20844.15
961.5833	2336.0858	21656.65	20764.4
961.715	2337.5098	21623.45	20735.15
961.8467	2338.9332	21589.6	20700.75
961.9783	2340.3558	21476.65	20585.15
962.1099	2341.7778	21403.3	20514.75
962.2415	2343.199	21342.2	20451.3
962.373	2344.6195	21286.95	20399.6
962.5045	2346.0393	21223.8	20336.6
962.636	2347.4583	21216.4	20326.55
962.7675	2348.8767	21082.75	20193.45
962.8989	2350.2943	21052.3	20162.45
963.0303	2351.7113	21005.05	20114.7
963.1617	2353.1275	20897.45	20009.05
963.293	2354.543	20853.1	19957.9
963.4243	2355.9578	20766.7	19879.15
963.5556	2357.3718	20629.8	19744.05
963.6868	2358.7852	20562.1	19673.2
963.818	2360.1978	20487.35	19597.55
963.9492	2361.6098	20473.8	19586.95
964.0803	2363.021	20396.05	19504.55
964.2114	2364.4315	20314.55	19426.55
964.3425	2365.8413	20249.65	19360.9
964.4736	2367.2504	20172.45	19284.35
964.6046	2368.6587	20115.7	19227.15
964.7356	2370.0664	20021.8	19133.05
964.8666	2371.4733	19931.85	19042.55
964.9975	2372.8795	19860.8	18971.9
965.1284	2374.285	19766.65	18876.3
965.2593	2375.6899	19661.45	18772.75
965.3901	2377.0939	19581.8	18693.2
965.5209	2378.4973	19521.6	18634.55
965.6517	2379.9	19452.85	18565.25
965.7825	2381.3019	19355.15	18466.45
965.9132	2382.7032	19337.8	18448.95
966.0439	2384.1037	19298.65	18412.85
966.1745	2385.5035	19208.3	18319.95
966.3051	2386.9027	19131.45	18242.55
966.4357	2388.3011	19087.6	18196.85
966.5663	2389.6987	19036.95	18147.85
966.6968	2391.0957	18947.65	18059.25
966.8273	2392.492	18852.9	17967.6
966.9578	2393.8876	18768.05	17879.8
967.0882	2395.2824	18682.8	17794.4
967.2186	2396.6765	18637.1	17751.85
967.349	2398.07	18529.35	17644.1
967.4793	2399.4627	18526.1	17637.05
967.6097	2400.8547	18449.4	17561.4
967.7399	2402.246	18383.3	17489.8
967.8702	2403.6366	18231.6	17341.65
968.0004	2405.0265	18161.45	17272.3
968.1306	2406.4156	18127.95	17235.4
968.2607	2407.8041	18008.7	17118.8
968.3909	2409.1918	17967.1	17076.2
968.521	2410.5789	17930.1	17040.9
968.651	2411.9652	17839.15	16947.15
968.781	2413.3508	17774.75	16885.45
968.911	2414.7358	17687.5	16798.6
969.041	2416.12	17640.2	16752.9
969.1709	2417.5035	17599.85	16713.1
969.3008	2418.8863	17542.1	16654.9
969.4307	2420.2684	17484.2	16596.5
969.5606	2421.6497	17388.5	16498.6
969.6904	2423.0304	17286.45	16397.55
969.8201	2424.4104	17253.25	16365.1
969.9499	2425.7896	17165.3	16275.8
970.0796	2427.1682	17139.85	16249.65
970.2093	2428.546	17081.1	16192.8
970.3389	2429.9232	17051.15	16162.25
970.4685	2431.2996	17006.5	16118.9
970.5981	2432.6753	16963.65	16076.8
970.7277	2434.0503	16901.7	16013.1
970.8572	2435.4246	16814.7	15925.7
970.9867	2436.7982	16725.4	15834.65
971.1161	2438.1711	16711.7	15823.95
971.2456	2439.5433	16667.85	15779.15
971.375	2440.9148	16572.15	15676.3
971.5043	2442.2856	16516.65	15629
971.6336	2443.6557	16481.8	15593.7
971.7629	2445.025	16398.3	15510.35
971.8922	2446.3937	16382.15	15493.5
972.0214	2447.7617	16300.4	15411.85
972.1506	2449.1289	16282.1	15395.9
972.2798	2450.4955	16263	15368
972.4089	2451.8613	16143.65	15254.55
972.538	2453.2265	16116.5	15229.25
972.6671	2454.5909	16119.35	15230.65
972.7961	2455.9546	16061.55	15173.2
972.9251	2457.3177	15981.1	15094.75
973.0541	2458.68	15913.1	15022
973.1831	2460.0416	15901.15	15012.05
973.312	2461.4025	15880.45	14991.9
973.4408	2462.7627	15817.6	14917
973.5697	2464.1222	15762.4	14873.95
973.6985	2465.4811	15683	14794.95
973.8273	2466.8392	15629.65	14741.7
973.956	2468.1966	15629	14738.9
974.0847	2469.5533	15613.8	14723.05
974.2134	2470.9093	15546.75	14659.4
974.3421	2472.2645	15508.9	14617.5
974.4707	2473.6191	15431.5	14544.4
974.5993	2474.973	15354.45	14467.25
974.7278	2476.3262	15308.7	14420
974.8563	2477.6787	15263.3	14377.85
974.9848	2479.0305	15175.05	14287.4
975.1132	2480.3816	15133.05	14242.5
975.2417	2481.7319	15075.7	14186.55
975.37	2483.0816	15000.55	14111.65
975.4984	2484.4306	14952.15	14063.95
975.6267	2485.7789	14903.45	14014.1
975.755	2487.1264	14813.1	13922.15
975.8833	2488.4733	14733.05	13846.05
976.0115	2489.8195	14714.35	13817.45
976.1397	2491.165	14657.35	13766.7
976.2678	2492.5097	14605.4	13715.65
976.3959	2493.8538	14545.5	13659.15
976.524	2495.1972	14465.15	13576.95
976.6521	2496.5398	14423.3	13533.2
976.7801	2497.8818	14387.55	13497.35
976.9081	2499.2231	14324.6	13437.1
977.036	2500.5637	14260.35	13370.9
977.164	2501.9035	14205.95	13316.5
977.2918	2503.2427	14206.35	13313.25
977.4197	2504.5812	14132.1	13246.6
977.5475	2505.919	14103.4	13212.3
977.6753	2507.256	14071.4	13185.2
977.8031	2508.5924	13985.6	13097.4
977.9308	2509.9281	13944.95	13051.6
978.0585	2511.2631	13917.8	13028.45
978.1861	2512.5974	13857.8	12968.35
978.3137	2513.9309	13836.35	12948.55
978.4413	2515.2638	13777.15	12863.65
978.5689	2516.596	13712.35	12824.1
978.6964	2517.9275	13653.5	12767.4
978.8239	2519.2583	13613.15	12723.4
978.9513	2520.5884	13539.7	12648.75
979.0788	2521.9178	13501.6	12612
979.2062	2523.2465	13452.25	12563.6
979.3335	2524.5745	13387.05	12499
979.4608	2525.9018	13350.95	12463
979.5881	2527.2284	13336.55	12448.6
979.7154	2528.5543	13290.05	12403.7
979.8426	2529.8796	13248.1	12360
979.9698	2531.2041	13208.4	12319.65
980.0969	2532.5279	13174.2	12286.95
980.224	2533.851	13158.9	12270.2
980.3511	2535.1735	13106.15	12219.6
980.4781	2536.4952	13081.5	12193.05
980.6052	2537.8163	13059.85	12171
980.7321	2539.1366	12965.05	12078.95
980.8591	2540.4562	12930.8	12041.3
980.986	2541.7752	12929.15	12041.5
981.1129	2543.0935	12913.25	12023.65
981.2397	2544.411	12870.7	11983.15
981.3665	2545.7279	12829.75	11942.25
981.4933	2547.0441	12815.8	11928.45
981.62	2548.3596	12774.4	11883.7
981.7467	2549.6744	12735.45	11846
981.8734	2550.9885	12688.15	11791.3
982.0001	2552.3019	12649.55	11760.95
982.1267	2553.6146	12628.85	11741.9
982.2532	2554.9266	12594.65	11706.4
982.3798	2556.2379	12576.8	11687.1
982.5063	2557.5485	12526.45	11639.45
982.6327	2558.8585	12480.9	11586.9
982.7592	2560.1677	12455.45	11563
982.8856	2561.4762	12437.7	11549.35
983.0119	2562.7841	12410.9	11518.35
983.1383	2564.0913	12393.5	11506
983.2646	2565.3977	12344.9	11458.6
983.3908	2566.7035	12322.9	11435.7
983.517	2568.0086	12310.4	11420.55
983.6432	2569.313	12263.15	11373.85
983.7694	2570.6167	12207.15	11314.1
983.8955	2571.9197	12212.45	11323.95
984.0216	2573.222	12201.9	11309.7
984.1476	2574.5236	12133.5	11246.35
984.2737	2575.8246	12092.55	11200.4
984.3996	2577.1248	12094.75	11204.65
984.5256	2578.4244	12061.05	11176.25
984.6515	2579.7232	12031.05	11143.05
984.7774	2581.0214	11995.6	11082.6
984.9032	2582.3189	11957.2	11068.95
985.029	2583.6157	11917.4	11024.3
985.1548	2584.9118	11921.05	11034.4
985.2806	2586.2072	11876.65	10988.9
985.4063	2587.5019	11854.45	10969.05
985.5319	2588.7959	11809.8	10919.75
985.6576	2590.0893	11784.45	10891.7
985.7832	2591.3819	11776	10887.45
985.9087	2592.6739	11677.4	10789.25
986.0343	2593.9652	11663	10774.95
986.1597	2595.2557	11635.2	10746.7
986.2852	2596.5456	11579.3	10686.7
986.4106	2597.8348	11543.55	10656.3
986.536	2599.1234	11478.55	10589.4
986.6614	2600.4112	11458.4	10570.4
986.7867	2601.6983	11408.75	10516.6
986.912	2602.9848	11358.15	10468.95
987.0372	2604.2705	11318.9	10424.95
987.1624	2605.5556	11286.15	10398.6
987.2876	2606.84	11291.9	10404.75
987.4128	2608.1237	11218.6	10328.55
987.5379	2609.4067	11176.45	10288.2
987.6629	2610.689	11125.95	10229.9
987.788	2611.9707	11087.25	10195.3
987.913	2613.2516	11038.25	10145
988.0379	2614.5319	11001.6	10112.7
988.1629	2615.8115	10951.4	10061.9
988.2878	2617.0903	10902.6	10013.55
988.4126	2618.3685	10870.85	9983.45
988.5375	2619.6461	10820.8	9931.3
988.6622	2620.9229	10778.7	9889.25
988.787	2622.199	10772.3	9881.95
988.9117	2623.4745	10735.55	9846.6
989.0364	2624.7493	10698.85	9810.55
989.161	2626.0234	10675.55	9788.95
989.2857	2627.2968	10618.1	9729.75
989.4102	2628.5695	10566.6	9676.15
989.5348	2629.8415	10517.65	9629.9
989.6593	2631.1128	10461.1	9571.15
989.7837	2632.3835	10427.55	9540.75
989.9082	2633.6535	10385.9	9497.75
990.0326	2634.9228	10370.05	9481
990.1569	2636.1914	10351.2	9464.8
990.2812	2637.4593	10320.9	9429.65
990.4055	2638.7265	10274.85	9385.25
990.5298	2639.9931	10247.15	9359.5
990.654	2641.259	10206.35	9318.15
990.7782	2642.5242	10167.9	9280.85
990.9023	2643.7887	10120.35	9231.65
991.0264	2645.0525	10103.35	9215.1
991.1505	2646.3156	10066.25	9178.3
991.2745	2647.5781	10031.25	9143.4
991.3985	2648.8398	9970.15	9085.3
991.5225	2650.1009	9955.85	9059
991.6464	2651.3613	9915.4	9025.85
991.7703	2652.6211	9897.2	9009.85
991.8942	2653.8801	9875.95	8988.3
992.018	2655.1385	9846.35	8957
992.1418	2656.3961	9802.35	8914.2
992.2655	2657.6531	9796.15	8907.35
992.3892	2658.9094	9758.75	8870.35
992.5129	2660.1651	9729.85	8840.25
992.6366	2661.42	9707.4	8819.9
992.7602	2662.6743	9689.95	8802.7
992.8837	2663.9279	9650.7	8763.55
993.0073	2665.1808	9624.1	8735.3
993.1307	2666.433	9618.15	8728.45
993.2542	2667.6846	9586.65	8696.3
993.3776	2668.9354	9563.5	8671.75
993.501	2670.1856	9505.4	8615.3
993.6244	2671.4351	9492.45	8605.4
993.7477	2672.6839	9460.65	8572.45
993.8709	2673.9321	9414.25	8526
993.9942	2675.1795	9410.5	8522.55
994.1174	2676.4263	9393.3	8504.2
994.2405	2677.6724	9337.95	8449.8
994.3637	2678.9179	9330	8440.75
994.4868	2680.1626	9305.75	8418.95
994.6098	2681.4067	9279.2	8391.2
994.7328	2682.6501	9254.75	8367.4
994.8558	2683.8928	9209.35	8320.7
994.9788	2685.1348	9160.7	8275
995.1017	2686.3761	9129.45	8241
995.2245	2687.6168	9119.6	8231.55
995.3474	2688.8568	9064.3	8176.6
995.4702	2690.0961	9042.15	8154.35
995.5929	2691.3348	9001.25	8113.75
995.7156	2692.5727	8979.65	8090.45
995.8383	2693.81	8958.6	8069.35
995.961	2695.0466	8922.4	8036.5
996.0836	2696.2826	8895.4	8007.1
996.2062	2697.5178	8883.15	7993.1
996.3287	2698.7524	8854.6	7962.6
996.4512	2699.9863	8838.6	7949.35
996.5737	2701.2195	8765.55	7878.3
996.6961	2702.452	8771.35	7882.05
996.8185	2703.6839	8744.55	7857.2
996.9408	2704.9151	8717.35	7830.2
997.0631	2706.1456	8695.75	7807.45
997.1854	2707.3755	8647.6	7758.35
997.3077	2708.6046	8642.85	7752.4
997.4299	2709.8331	8614.5	7727.05
997.552	2711.0609	8575.15	7688
997.6742	2712.2881	8560.2	7671.95
997.7963	2713.5145	8551.75	7661.15
997.9183	2714.7403	8514.2	7627.8
998.0403	2715.9654	8486.55	7598.5
998.1623	2717.1899	8471.5	7569.1
998.2842	2718.4136	8452.65	7563.85
998.4062	2719.6367	8414.95	7525.15
998.528	2720.8591	8403.45	7507.8
998.6498	2722.0809	8366.25	7477.05
998.7716	2723.3019	8360.05	7468.15
998.8934	2724.5223	8366.55	7478.35
999.0151	2725.7421	8301.65	7411.9
999.1368	2726.9611	8285.75	7394.65
999.2584	2728.1795	8275.95	7385.5
999.38	2729.3972	8219.85	7331.9
999.5016	2730.6142	8178.65	7281.55
999.6231	2731.8306	8139.7	7251.5
999.7446	2733.0462	8084.05	7192.15
999.8661	2734.2612	8064.1	7173.4
999.9875	2735.4756	8011.75	7121.2
1000.1089	2736.6892	7953.15	7065.05
1000.2302	2737.9022	7891.15	7003.45
1000.3515	2739.1145	7871.6	6983.6
1000.4728	2740.3262	7832.8	6935.35
1000.594	2741.5372	7829.3	6940.4
1000.7152	2742.7475	7757.4	6869.75
1000.8363	2743.9571	7745.1	6855.2
1000.9575	2745.1661	7723.6	6832
1001.0785	2746.3744	7681.35	6791.55
1001.1996	2747.582	7669.35	6781.5
1001.3206	2748.7889	7626.85	6738.4
1001.4415	2749.9952	7577.05	6688.3
1001.5625	2751.2008	7580.6	6690.6
1001.6833	2752.4057	7532.9	6641.65
1001.8042	2753.61	7491.05	6601.7
1001.925	2754.8136	7476.2	6587.6
1002.0458	2756.0165	7452.15	6563.6
1002.1665	2757.2188	7435.7	6549.7
1002.2872	2758.4204	7400.65	6515.35
1002.4078	2759.6213	7361.95	6472.35
1002.5285	2760.8215	7361.35	6469.1
1002.649	2762.0211	7318.3	6427.4
1002.7696	2763.22	7310.8	6420.4
1002.8901	2764.4182	7285.05	6395.35
1003.0106	2765.6158	7253.55	6365.6
1003.131	2766.8127	7243	6354.05
1003.2514	2768.009	7197.55	6310.3
1003.3717	2769.2045	7163.8	6273.9
1003.492	2770.3994	7151.65	6262.75
1003.6123	2771.5936	7140.3	6251.3
1003.7325	2772.7872	7116.15	6228.85
1003.8527	2773.9801	7072.55	6184.2
1003.9729	2775.1723	7060.25	6154.95
1004.093	2776.3639	7016.65	6128.85
1004.2131	2777.5548	6999.15	6109.15
1004.3331	2778.745	6966.7	6077.65
1004.4531	2779.9346	6956.7	6070.85
1004.5731	2781.1235	6937.8	6049.7
1004.693	2782.3117	6921.55	6032.65
1004.8129	2783.4992	6891.3	6003.65
1004.9328	2784.6861	6871.75	5984.85
1005.0526	2785.8723	6841.6	5952.3
1005.1723	2787.0579	6844.4	5955.9
1005.2921	2788.2428	6814.9	5927.35
1005.4118	2789.427	6787.05	5899.05
1005.5314	2790.6106	6775.55	5886.7
1005.651	2791.7935	6751.6	5863.1
1005.7706	2792.9757	6746.35	5860.55
1005.8902	2794.1573	6710.25	5820.85
1006.0097	2795.3382	6728.5	5841.15
1006.1291	2796.5184	6704.3	5815.7
1006.2485	2797.698	6699.45	5810.1
1006.3679	2798.8769	6684.5	5797.95
1006.4873	2800.0551	6677.9	5790.5
1006.6066	2801.2327	6666.45	5777.45
1006.7258	2802.4096	6662.6	5773.5
1006.8451	2803.5859	6641.15	5753.25
1006.9642	2804.7615	6636.1	5746.45
1007.0834	2805.9364	6659.65	5770.85
1007.2025	2807.1106	6655.55	5768.85
1007.3216	2808.2842	6637.3	5748.8
1007.4406	2809.4572	6647.9	5758.9
1007.5596	2810.6294	6664.8	5774.6
1007.6785	2811.801	6696.5	5809.5
1007.7975	2812.972	6708.8	5822.9
1007.9163	2814.1423	6719.75	5830.4
1008.0352	2815.3119	6780	5892.25
1008.154	2816.4808	6789.95	5903.8
1008.2727	2817.6491	6824.85	5936.9
1008.3914	2818.8167	6849.6	5962.7
1008.5101	2819.9837	6890.45	5998.15
1008.6288	2821.15	6913.2	6023.85
1008.7474	2822.3157	6926.35	6040.75
1008.8659	2823.4807	6981.75	6094.5
1008.9844	2824.645	7011.2	6121.9
1009.1029	2825.8086	7020.15	6132.6
1009.2214	2826.9716	7042.05	6154.1
1009.3398	2828.134	7096.4	6208.6
1009.4581	2829.2957	7111.85	6224.75
1009.5764	2830.4567	7103.3	6214.65
1009.6947	2831.617	7125.55	6237.55
1009.813	2832.7767	7104.5	6216.8
1009.9312	2833.9358	7100.75	6213.75
1010.0493	2835.0941	7090.05	6201.3
1010.1675	2836.2519	7057.2	6169.7
1010.2855	2837.4089	7027.75	6137.85
1010.4036	2838.5653	7010.3	6123.15
1010.5216	2839.7211	6979.75	6093.05
1010.6396	2840.8761	7003.8	6113.75
1010.7575	2842.0306	7002.5	6116.1
1010.8754	2843.1843	7034.55	6146.4
1010.9932	2844.3374	7030.8	6145.55
1011.111	2845.4899	7102.2	6214.5
1011.2288	2846.6417	7115.9	6228.45
1011.3465	2847.7928	7170.05	6284.15
1011.4642	2848.9433	7230.35	6342.3
1011.5818	2850.0931	7290.75	6403.55
1011.6995	2851.2422	7352.95	6463.75
1011.817	2852.3907	7390.65	6500.4
1011.9345	2853.5385	7462.2	6573.65
1012.052	2854.6857	7513.95	6599.55
1012.1695	2855.8323	7506.2	6620
1012.2869	2856.9781	7543.95	6656.05
1012.4042	2858.1233	7581.65	6692
1012.5216	2859.2679	7606.35	6718.85
1012.6389	2860.4118	7613	6726.5
1012.7561	2861.555	7638.25	6746.85
1012.8733	2862.6976	7661.7	6770.55
1012.9905	2863.8395	7675.85	6788.35
1013.1076	2864.9808	7659.65	6771.7
1013.2247	2866.1214	7662.65	6774.95
1013.3417	2867.2614	7684.3	6795.55
1013.4587	2868.4007	7658.25	6770.35
1013.5757	2869.5393	7636.35	6745.8
1013.6926	2870.6773	7641.85	6751.15
1013.8095	2871.8146	7639.8	6749.25
1013.9263	2872.9513	7618.95	6729.1
1014.0431	2874.0874	7600.05	6712.1
1014.1599	2875.2227	7577.1	6690.45
1014.2766	2876.3574	7528.55	6639.6
1014.3933	2877.4915	7493.45	6605.5
1014.51	2878.6249	7466.35	6578.6
1014.6266	2879.7577	7409.7	6519.85
1014.7431	2880.8898	7386.7	6489.2
1014.8596	2882.0212	7324.25	6437.5
1014.9761	2883.152	7296.7	6410.15
1015.0925	2884.2821	7263.9	6377.9
1015.2089	2885.4116	7235.7	6348.6
1015.3253	2886.5405	7211.75	6325.25
1015.4416	2887.6686	7236.15	6344.45
1015.5579	2888.7962	7214.15	6329.35
1015.6741	2889.923	7180.8	6294.2
1015.7903	2891.0493	7196.1	6309.85
1015.9065	2892.1748	7185.75	6297.1
1016.0226	2893.2997	7183.9	6295.9
1016.1387	2894.424	7166.05	6279.7
1016.2547	2895.5476	7159.25	6271.05
1016.3707	2896.6706	7178.5	6292
1016.4866	2897.7929	7152.9	6264.25
1016.6025	2898.9145	7184.4	6297.45
1016.7184	2900.0355	7183.45	6296.1
1016.8342	2901.1559	7195.8	6309
1016.95	2902.2756	7223.65	6337.35
1017.0658	2903.3946	7240.7	6355.35
1017.1815	2904.513	7240.75	6351
1017.2971	2905.6308	7239.45	6352.6
1017.4127	2906.7479	7250.2	6361.55
1017.5283	2907.8643	7272.15	6385.1
1017.6439	2908.9801	7243.35	6355.45
1017.7594	2910.0953	7246.8	6361.65
1017.8748	2911.2098	7221.5	6330.75
1017.9902	2912.3236	7183.3	6286.6
1018.1056	2913.4368	7185.9	6294.4
1018.2209	2914.5494	7162.8	6272.65
1018.3362	2915.6613	7110.35	6216.1
1018.4515	2916.7725	7081	6191.45
1018.5667	2917.8831	7047.95	6159.65
1018.6819	2918.9931	6987.25	6096.6
1018.797	2920.1024	6948.75	6060.7
1018.9121	2921.211	6922	6034.6
1019.0271	2922.319	6876.85	5990.55
1019.1421	2923.4264	6855.95	5968.7
1019.2571	2924.5331	6809.75	5923.8
1019.372	2925.6391	6804.4	5917.95
1019.4869	2926.7445	6774.3	5888.25
1019.6017	2927.8493	6754.4	5866.1
1019.7165	2928.9534	6737.9	5849.6
1019.8313	2930.0569	6740.4	5849.55
1019.946	2931.1597	6732.2	5842.55
1020.0606	2932.2619	6691.6	5802.6
1020.1753	2933.3634	6691.8	5803
1020.2899	2934.4643	6669.4	5774.85
1020.4044	2935.5645	6624.15	5729.5
1020.5189	2936.6641	6594.85	5702.15
1020.6334	2937.763	6529.9	5643.15
1020.7478	2938.8613	6484.05	5597.05
1020.8622	2939.959	6412.2	5520
1020.9765	2941.056	6329.25	5443.25
1021.0908	2942.1523	6230.45	5342.15
1021.2051	2943.248	6156.65	5268.8
1021.3193	2944.3431	6054.55	5169.45
1021.4334	2945.4375	5908.05	5020.5
1021.5476	2946.5313	5816.5	4930.05
1021.6617	2947.6244	5704.95	4818.3
1021.7757	2948.7169	5607.45	4716.45
1021.8897	2949.8087	5504.95	4618.55
1022.0037	2950.8999	5398.7	4509.45
1022.1176	2951.9904	5300.15	4413.2
1022.2315	2953.0803	5215.8	4327.15
1022.3453	2954.1696	5145.45	4258.55
1022.4591	2955.2582	5072.4	4186.8
1022.5728	2956.3462	5020.5	4133.45
1022.6865	2957.4335	4961.6	4074.5
1022.8002	2958.5202	4924.05	4034.1
1022.9138	2959.6062	4878.25	3990.8
1023.0274	2960.6916	4837.25	3950.15
1023.141	2961.7764	4793.9	3907.55
1023.2545	2962.8605	4760.7	3872.7
1023.3679	2963.9439	4746.95	3861.4
1023.4813	2965.0267	4714.8	3823.9
1023.5947	2966.1089	4722.1	3811.6
1023.708	2967.1905	4673.6	3785.3
1023.8213	2968.2714	4660.8	3773.8
1023.9346	2969.3516	4665.75	3777.8
1024.0478	2970.4312	4650.5	3756.55
1024.1609	2971.5102	4618.65	3731.75
1024.274	2972.5885	4609.35	3723.85
1024.3871	2973.6662	4632.65	3738.9
1024.5002	2974.7432	4591.35	3703.4
1024.6132	2975.8196	4569.15	3680.7
1024.7261	2976.8954	4542.7	3655
1024.839	2977.9705	4505.15	3618.7
1024.9519	2979.045	4503.5	3617.15
1025.0647	2980.1188	4468.25	3582.2
1025.1775	2981.192	4446.9	3561.15
1025.2902	2982.2645	4414.35	3526.05
1025.4029	2983.3364	4380.1	3492.2
1025.5156	2984.4077	4337.45	3451.75
1025.6282	2985.4783	4309.15	3416.1
1025.7407	2986.5483	4260.15	3373.25
1025.8532	2987.6177	4221.45	3335.3
1025.9657	2988.6864	4181.4	3295
1026.0782	2989.7545	4135.6	3247.35
1026.1906	2990.8219	4109.3	3222.85
1026.3029	2991.8887	4062.05	3172.1
1026.4152	2992.9548	4023.1	3135.55
1026.5275	2994.0204	3979.15	3093.65
1026.6397	2995.0852	3935.55	3050.2
1026.7519	2996.1495	3909.95	3023.5
1026.864	2997.2131	3865	2978.65
1026.9761	2998.276	3841.3	2953.3
1027.0882	2999.3383	3818.35	2930.15
1027.2002	3000.4	3791.95	2901.7
1027.3122	3001.4611	3771.15	2883.25
1027.4241	3002.5215	3736.35	2847.15
1027.536	3003.5812	3700.4	2811.9
1027.6478	3004.6404	3680.2	2793.6
1027.7596	3005.6989	3682	2790.8
1027.8714	3006.7567	3649.8	2762.7
1027.9831	3007.8139	3666.65	2758.95
1028.0947	3008.8705	3612.7	2723.4
1028.2064	3009.9264	3608.5	2718.65
1028.3179	3010.9818	3587.1	2701
1028.4295	3012.0364	3586.85	2701.95
1028.541	3013.0905	3561.25	2674.2
1028.6524	3014.1439	3561.15	2673.6
1028.7638	3015.1966	3548.95	2661.9
1028.8752	3016.2487	3527.25	2638.65
1028.9865	3017.3002	3513.7	2618.6
1029.0978	3018.3511	3514.65	2626.25
1029.209	3019.4013	3496.15	2610.1
1029.3202	3020.4509	3493.4	2607.95
1029.4314	3021.4998	3487.3	2602
1029.5425	3022.5481	3464.45	2577.4
1029.6535	3023.5958	3456.85	2569.9
1029.7645	3024.6428	3453.85	2566.85
1029.8755	3025.6892	3443.75	2556.3
1029.9864	3026.735	3431.1	2544.4
1030.0973	3027.7802	3429.85	2542.1
1030.2082	3028.8247	3420.35	2534.2
1030.319	3029.8685	3406.15	2520.15
1030.4297	3030.9118	3397.45	2509.25
1030.5404	3031.9544	3391.25	2502.35
1030.6511	3032.9963	3392.5	2505.9
1030.7617	3034.0376	3379.65	2492.05
1030.8723	3035.0783	3388.8	2499.95
1030.9829	3036.1184	3375.95	2487.7
1031.0934	3037.1578	3383.65	2497.3
1031.2038	3038.1966	3378.6	2487.65
1031.3142	3039.2348	3360.05	2472.4
1031.4246	3040.2723	3358.55	2462.7
1031.5349	3041.3092	3331.65	2444.35
1031.6452	3042.3455	3315.9	2426.15
1031.7554	3043.3811	3312.7	2426.35
1031.8656	3044.4161	3290.25	2404.4
1031.9758	3045.4505	3285.45	2400.15
1032.0859	3046.4842	3274.95	2387.95
1032.1959	3047.5173	3249.75	2363.65
1032.3059	3048.5498	3252.75	2365.5
1032.4159	3049.5816	3244.05	2358.05
1032.5258	3050.6128	3234.9	2346.9
1032.6357	3051.6434	3205.95	2317.8
1032.7455	3052.6734	3201.1	2312.4
1032.8553	3053.7027	3174.8	2286.25
1032.9651	3054.7314	3166	2279.45
1033.0748	3055.7594	3156.8	2272.9
1033.1845	3056.7868	3152.15	2262.75
1033.2941	3057.8136	3138.6	2252.75
1033.4037	3058.8398	3127.5	2241.75
1033.5132	3059.8653	3109.7	2222.3
1033.6227	3060.8902	3080.8	2194.35
1033.7321	3061.9145	3086.8	2198.25
1033.8415	3062.9381	3067	2177.95
1033.9509	3063.9612	3066.35	2163.45
1034.0602	3064.9835	3050.25	2161.7
1034.1694	3066.0053	3027.3	2139.35
1034.2787	3067.0264	3025.15	2139.1
1034.3878	3068.0469	3008.9	2121.05
1034.497	3069.0668	3001.15	2112.55
1034.6061	3070.086	2991.5	2104.95
1034.7151	3071.1046	2966.15	2079.45
1034.8241	3072.1226	2949.7	2060.25
1034.9331	3073.1399	2942.65	2055.35
1035.042	3074.1567	2916.2	2028.05
1035.1508	3075.1727	2915.95	2026.7
1035.2597	3076.1882	2880.9	1993.95
1035.3684	3077.203	2871.6	1984.7
1035.4772	3078.2173	2864.7	1975
1035.5859	3079.2308	2840.3	1949.9
1035.6945	3080.2438	2828	1938.95
1035.8031	3081.2561	2794.6	1906.95
1035.9117	3082.2678	2802.65	1915.9
1036.0202	3083.2789	2784.45	1897.45
1036.1286	3084.2893	2784.65	1897.15
1036.2371	3085.2991	2757.75	1868.95
1036.3454	3086.3083	2750.95	1860.3
1036.4538	3087.3169	2746.75	1856.35
1036.562	3088.3248	2738.6	1849.4
1036.6703	3089.3321	2716.85	1829.1
1036.7785	3090.3388	2708.9	1823.05
1036.8866	3091.3449	2692.45	1804.95
1036.9948	3092.3503	2689	1799.05
1037.1028	3093.3551	2672.55	1787.6
1037.2108	3094.3593	2665.65	1781.2
1037.3188	3095.3629	2650.75	1764.1
1037.4267	3096.3658	2658	1769.95
1037.5346	3097.3681	2628.2	1740.45
1037.6425	3098.3698	2628.95	1740.6
1037.7503	3099.3708	2606.1	1713
1037.858	3100.3713	2593.7	1707.7
1037.9657	3101.3711	2593.6	1706.4
1038.0734	3102.3702	2700.7	1674.9
1038.181	3103.3688	2589.75	1701.75
1038.2886	3104.3667	2561.35	1674.85
1038.3961	3105.364	2555.45	1669.9
1038.5036	3106.3607	2539.1	1650.45
1038.611	3107.3568	2535	1647.65
1038.7184	3108.3522	2513.25	1626.6
1038.8257	3109.347	2511.3	1623.3
1038.933	3110.3412	2500.35	1610.9
1039.0403	3111.3348	2488.45	1600.65
1039.1475	3112.3277	2472.75	1586.35
1039.2547	3113.32	2477.65	1591.15
1039.3618	3114.3117	2469.05	1582.65
1039.4689	3115.3028	2455	1569.2
1039.5759	3116.2932	2441.4	1550.7
1039.6829	3117.2831	2441.75	1550.3
1039.7898	3118.2723	2422.85	1535.4
1039.8967	3119.2608	2422.95	1537.5
1040.0035	3120.2488	2410.85	1522.75
1040.1103	3121.2361	2399.9	1513.7
1040.2171	3122.2229	2387.25	1500.25
1040.3238	3123.209	2375.9	1486.95
1040.4305	3124.1944	2377.8	1491.55
1040.5371	3125.1793	2365.9	1477.25
1040.6437	3126.1635	2364.15	1479
1040.7502	3127.1471	2350.15	1462.8
1040.8567	3128.1301	2342.1	1455.4
1040.9631	3129.1125	2336.25	1450.45
1041.0695	3130.0942	2320.05	1434.85
1041.1759	3131.0753	2336.75	1441.25
1041.2822	3132.0558	2326.4	1436.35
1041.3884	3133.0357	2310.05	1423.4
1041.4946	3134.015	2299	1410.5
1041.6008	3134.9936	2312.6	1422.5
1041.7069	3135.9716	2307.5	1400.15
1041.813	3136.949	2284.85	1396.8
1041.919	3137.9258	2286.15	1394.55
1042.025	3138.902	2279.95	1387.15
1042.1309	3139.8775	2269.45	1382.35
1042.2368	3140.8524	2261	1374.6
1042.3427	3141.8267	2252.95	1363.45
1042.4485	3142.8004	2245.9	1359.05
1042.5542	3143.7735	2237.4	1344.9
1042.6599	3144.7459	2240.9	1352.25
1042.7656	3145.7178	2230.65	1342.75
1042.8712	3146.689	2226.05	1340.2
1042.9768	3147.6596	2213.6	1324.5
1043.0823	3148.6295	2198.35	1308.8
1043.1878	3149.5989	2204.4	1315.95
1043.2932	3150.5676	2197.9	1313.4
1043.3986	3151.5357	2194.9	1308.85
1043.5039	3152.5032	2186.55	1299.6
1043.6092	3153.4701	2183.4	1297.4
1043.7145	3154.4364	2173.5	1283
1043.8197	3155.402	2158.7	1273.8
1043.9248	3156.367	2156.35	1268.4
1044.03	3157.3315	2184.65	1252.2
1044.135	3158.2952	2132.1	1244.1
1044.24	3159.2584	2133.4	1244.85
1044.345	3160.221	2118.25	1232
1044.4499	3161.1829	2109.9	1222.9
1044.5548	3162.1442	2114.85	1228.9
1044.6596	3163.105	2093.6	1206.45
1044.7644	3164.065	2088.95	1201.25
1044.8692	3165.0245	2086.75	1199.7
1044.9739	3165.9834	2084.4	1199.4
1045.0785	3166.9416	2068.3	1181.05
1045.1831	3167.8993	2077.5	1189.4
1045.2877	3168.8563	2066.65	1179.7
1045.3922	3169.8127	2060	1173.75
1045.4966	3170.7684	2051.25	1163.9
1045.6011	3171.7236	2039.8	1153.15
1045.7054	3172.6782	2043.45	1156.65
1045.8098	3173.6321	2029.85	1140.05
1045.914	3174.5854	2021.2	1130.35
1046.0183	3175.5381	2017.25	1130.65
1046.1224	3176.4902	2006.55	1120.7
1046.2266	3177.4417	2003.7	1117.25
1046.3307	3178.3926	1992.2	1105.6
1046.4347	3179.3428	1990.25	1104
1046.5387	3180.2924	1977.15	1090.8
1046.6427	3181.2415	1984.4	1095.65
1046.7466	3182.1899	1965.55	1076.6
1046.8504	3183.1377	1958.3	1074.6
1046.9542	3184.0848	1962	1072.25
1047.058	3185.0314	1951.65	1064.8
1047.1617	3185.9773	1954.9	1067.8
1047.2654	3186.9227	1931	1045.45
1047.369	3187.8674	1937.8	1051.55
1047.4726	3188.8115	1937.25	1045.1
1047.5761	3189.755	1925.65	1039.5
1047.6796	3190.6979	1918.1	1031.55
1047.783	3191.6402	1911.5	1026.7
1047.8864	3192.5818	1917.65	1031.65
1047.9898	3193.5229	1923.3	1013.4
1048.0931	3194.4633	1905.8	1017.85
1048.1963	3195.4031	1899.1	1012.85
1048.2995	3196.3423	1885.6	999.6
1048.4027	3197.2809	1900.35	1014.4
1048.5058	3198.2189	1880.95	990.6
1048.6089	3199.1563	1882.45	988.4
1048.7119	3200.0931	1867.45	982.05
1048.8148	3201.0292	1863.05	977.3
1048.9178	3201.9648	1856.9	969.8
1049.0206	3202.8997	1861.3	968.85
1049.1235	3203.834	1855.05	967.65
1049.2262	3204.7677	1842.25	956.1
1049.329	3205.7008	1847.75	957.9
1049.4317	3206.6333	1838.65	951.8
1049.5343	3207.5652	1835	943.8
1049.6369	3208.4964	1827.75	938.9
1049.7394	3209.4271	1827.75	940.7
1049.8419	3210.3571	1817.85	932.25
1049.9444	3211.2865	1810.5	924.45
1050.0468	3212.2154	1812.6	924.9
1050.1491	3213.1436	1808.6	919.45
1050.2514	3214.0712	1797	902.95
1050.3537	3214.9982	1794.85	907.7
1050.4559	3215.9246	1795.85	908.75
1050.5581	3216.8503	1782.95	895.75
1050.6602	3217.7755	1780.35	893.2
1050.7623	3218.7001	1772.75	886.1
1050.8643	3219.624	1773.95	886.8
1050.9663	3220.5473	1769.9	883.55
1051.0682	3221.4701	1763.1	873.8
1051.1701	3222.3922	1756.1	866.7
1051.2719	3223.3137	1755.4	870.4
1051.3737	3224.2346	1755.15	868.35
1051.4754	3225.1549	1737.55	850.35
1051.5771	3226.0746	1740.65	852.35
1051.6788	3226.9937	1725.6	838.85
1051.7804	3227.9121	1737.5	849.9
1051.8819	3228.83	1724.55	837.5
1051.9834	3229.7473	1716.9	831.5
1052.0849	3230.6639	1713.95	826.3
1052.1863	3231.5799	1707.65	820.85
1052.2876	3232.4954	1707.95	820.4
1052.3889	3233.4102	1697.95	810.5
1052.4902	3234.3244	1699.7	814.5
1052.5914	3235.238	1691.6	804.5
1052.6926	3236.151	1705.95	794.2
1052.7937	3237.0634	1680.8	796.1
1052.8948	3237.9752	1682.95	796.45
1052.9958	3238.8864	1672.8	786.6
1053.0968	3239.797	1673.45	788.35
1053.1977	3240.7069	1656.7	771.55
1053.2986	3241.6163	1656.85	769.9
1053.3994	3242.5251	1652.6	767.45
1053.5002	3243.4332	1645.55	758.85
1053.6009	3244.3408	1644.15	755.15
1053.7016	3245.2477	1648	760.35
1053.8022	3246.154	1630.4	743.85
1053.9028	3247.0598	1631.35	743.4
1054.0034	3247.9649	1633.15	745.65
1054.1039	3248.8694	1623.4	736.7
1054.2043	3249.7733	1627.2	741.55
1054.3047	3250.6766	1611.3	724.85
1054.4051	3251.5793	1609.5	722.05
1054.5054	3252.4814	1606.1	719.8
1054.6056	3253.3829	1597.9	710.7
1054.7058	3254.2838	1595.2	707.25
1054.806	3255.1841	1581.1	696.9
1054.9061	3256.0838	1585.35	697.95
1055.0061	3256.9829	1574.05	689.3
1055.1062	3257.8814	1577.75	689.7
1055.2061	3258.7792	1576	687.35
1055.306	3259.6765	1561.3	672.4
1055.4059	3260.5731	1549.55	664.65
1055.5057	3261.4692	1550.35	662.45
1055.6055	3262.3647	1531.15	643.2
1055.7052	3263.2595	1522.95	635.7
1055.8049	3264.1538	1520.75	634.55
1055.9045	3265.0474	1507.25	619.15
1056.0041	3265.9404	1499.85	613.4
1056.1036	3266.8329	1487.75	602.35
1056.2031	3267.7247	1485.1	587.85
1056.3025	3268.616	1461.5	576
1056.4019	3269.5066	1451.8	565.85
1056.5013	3270.3966	1441.3	553.7
1056.6005	3271.286	1422.75	536.4
