Software Version:	3.9.2.0
Unit SN:	10000200
Spectrometer SN:	6960
Date:	3/6/2024 10:44:55 AM
Data Line Index:	25
Spectral Points:	2048
Integration time (ms):	125
Averages:	20
Delay (ms):	30
Sequence Number:	1
Processing:	dark subtract
Laser Power (mW):	300
Laser Current (mA):	822
Laser Diode Temp (C):	25.1
Laser Case Temp (C):	27.2
System Temp (C):	27.1
Spectrometer Temp (C):	24.5
CCD Temp (C):	-0.002
Secondary Temp (C):	20.011
Heatsink Temp (C):	22.85
CCDPCB Temp (C):	36.629
SecondaryPCB Temp (C):	34.061

Wavelength	RamanShift	Raw Counts	Dark Subtracted
787.061	30.1047	1171.9	757
787.2016	32.3739	1204.75	790.25
787.3422	34.6426	1250.3	836.15
787.4828	36.9109	1298.5	882.6
787.6235	39.1787	1358.95	941.55
787.7642	41.4461	1430.15	1005.5
787.9049	43.7131	1491.65	1066.1
788.0456	45.9796	1566.65	1138.05
788.1863	48.2456	1640.6	1207.15
788.3271	50.5112	1707.05	1271.9
788.4679	52.7764	1777.3	1337.35
788.6087	55.0411	1867.55	1424.2
788.7496	57.3054	1952.1	1502.25
788.8904	59.5692	2043.1	1592.25
789.0313	61.8326	2143.65	1689.55
789.1722	64.0955	2273.1	1813.95
789.3132	66.3579	2412	1948.1
789.4541	68.6199	2562.45	2095.5
789.5951	70.8815	2829.95	2359.6
789.7361	73.1426	3375.85	2901.5
789.8771	75.4032	4749.85	4270.8
790.0181	77.6634	8275.2	7792
790.1592	79.9231	18121.6	17634.7
790.3003	82.1824	56220.15	55720.5
790.4414	84.4412	65535	65016.35
790.5825	86.6995	65535	64994.5
790.7237	88.9574	65535	64972.1
790.8648	91.2148	65535	64953.4
791.006	93.4717	65535	64944.6
791.1472	95.7282	65535	64935.9
791.2885	97.9842	65535	64933
791.4297	100.2398	65535	64931
791.571	102.4949	65535	64925.8
791.7123	104.7495	65535	64921.35
791.8536	107.0036	65535	64920.5
791.9949	109.2573	65535	64925.2
792.1363	111.5105	65535	64922.2
792.2777	113.7632	65535	64919.9
792.4191	116.0154	65535	64908.6
792.5605	118.2672	65535	64916.15
792.7019	120.5185	65535	64913
792.8434	122.7693	65535	64912.2
792.9849	125.0197	65535	64906.7
793.1264	127.2696	65535	64902.65
793.2679	129.519	65535	64902.45
793.4094	131.7679	65535	64898.4
793.551	134.0163	65535	64894.45
793.6926	136.2642	65535	64889.95
793.8342	138.5117	65535	64884
793.9758	140.7587	65535	64887
794.1175	143.0052	65535	64884.85
794.2591	145.2512	65535	64883
794.4008	147.4967	65535	64883.55
794.5425	149.7417	65535	64880.5
794.6842	151.9863	65535	64877.6
794.826	154.2304	65535	64875.2
794.9677	156.4739	65535	64872.3
795.1095	158.717	65535	64868.1
795.2513	160.9596	65535	64862.9
795.3931	163.2017	65535	64864.2
795.535	165.4433	65535	64860.25
795.6768	167.6844	65535	64858.65
795.8187	169.925	65535	64853.3
795.9606	172.1651	65535	64854.75
796.1025	174.4047	65535	64848.6
796.2445	176.6439	65535	64846.4
796.3864	178.8825	65535	64843.45
796.5284	181.1206	65535	64841.55
796.6704	183.3582	65535	64832.35
796.8124	185.5954	65535	64834.8
796.9544	187.832	65535	64831
797.0965	190.0681	65535	64829.3
797.2386	192.3037	65535	64829
797.3806	194.5388	65535	64822.8
797.5228	196.7734	65535	64821.65
797.6649	199.0075	65535	64818.45
797.807	201.2411	65535	64813.65
797.9492	203.4742	65535	64817.55
798.0914	205.7068	65535	64815.75
798.2336	207.9389	65535	64807.45
798.3758	210.1704	65535	64813.25
798.518	212.4015	65535	64810.2
798.6603	214.632	65535	64818.1
798.8025	216.862	65535	64827.45
798.9448	219.0915	65535	64829.95
799.0871	221.3205	65535	64828.65
799.2294	223.549	65535	64831.8
799.3718	225.777	65535	64829.75
799.5141	228.0044	65535	64831.15
799.6565	230.2314	65535	64827.8
799.7989	232.4578	65535	64822.85
799.9413	234.6837	65535	64817.9
800.0837	236.909	65535	64817
800.2262	239.1339	65535	64790.55
800.3687	241.3582	65535	64805.4
800.5111	243.582	65535	64774.25
800.6536	245.8053	65535	64784.8
800.7961	248.0281	65535	64794.75
800.9387	250.2503	65535	64786.6
801.0812	252.472	65535	64784.75
801.2238	254.6932	65535	64780.65
801.3664	256.9139	65535	64782.45
801.509	259.134	65535	64781.5
801.6516	261.3536	65535	64781.65
801.7942	263.5727	65535	64780.2
801.9369	265.7912	65535	64779.45
802.0795	268.0092	65535	64778.3
802.2222	270.2267	65535	64778.05
802.3649	272.4436	65535	64779.85
802.5076	274.6601	65535	64768.95
802.6504	276.8759	65535	64774.05
802.7931	279.0913	65535	64772.3
802.9359	281.3061	65535	64767.55
803.0787	283.5204	65535	64766.95
803.2215	285.7341	65535	64761.2
803.3643	287.9473	65535	64750.95
803.5071	290.16	65535	64756.15
803.6499	292.3721	65535	64763.15
803.7928	294.5837	65535	64761.55
803.9357	296.7947	65535	64763.65
804.0786	299.0052	65535	64762.4
804.2215	301.2152	65535	64760.7
804.3644	303.4246	65535	64762
804.5074	305.6334	65535	64763.4
804.6503	307.8418	65535	64758.05
804.7933	310.0495	65535	64756.3
804.9363	312.2568	65535	64757.65
805.0793	314.4635	65535	64755.65
805.2223	316.6696	65535	64755.55
805.3653	318.8752	65535	64745.1
805.5084	321.0802	65535	64749.65
805.6514	323.2847	65535	64754.1
805.7945	325.4887	65535	64746.05
805.9376	327.692	65535	64748.65
806.0807	329.8949	65535	64748.5
806.2238	332.0972	65535	64744
806.367	334.2989	65535	64743.35
806.5101	336.5001	65535	64742.65
806.6533	338.7007	65535	64743.1
806.7965	340.9008	65535	64742.2
806.9397	343.1003	65535	64739.05
807.0829	345.2992	65535	64738.55
807.2261	347.4976	65535	64737.9
807.3693	349.6955	65535	64729.95
807.5126	351.8927	65535	64732.9
807.6559	354.0895	65535	64720.05
807.7991	356.2856	65535	64731.4
807.9424	358.4812	65535	64732.4
808.0857	360.6763	65535	64730.85
808.2291	362.8707	65535	64729.05
808.3724	365.0646	65535	64723.1
808.5158	367.258	65535	64724.6
808.6591	369.4508	65535	64723.15
808.8025	371.643	65535	64720.45
808.9459	373.8346	65535	64720.5
809.0893	376.0257	65535	64716.1
809.2327	378.2162	65535	64713.7
809.3762	380.4062	65535	64716.55
809.5196	382.5956	65535	64716.15
809.6631	384.7844	65535	64714.3
809.8066	386.9726	65535	64716.45
809.9501	389.1603	65535	64718.8
810.0936	391.3474	65535	64682.85
810.2371	393.5339	65535	64718.8
810.3806	395.7199	65535	64722
810.5241	397.9052	65535	64722.8
810.6677	400.09	65535	64719.65
810.8113	402.2743	65535	64722.55
810.9548	404.4579	65535	64722
811.0984	406.641	65535	64717.95
811.2421	408.8235	65535	64718.7
811.3857	411.0054	65535	64716.8
811.5293	413.1868	65535	64713.6
811.673	415.3675	65535	64709.65
811.8166	417.5477	65535	64709.55
811.9603	419.7273	65535	64707.65
812.104	421.9064	65535	64700.8
812.2477	424.0848	65535	64705.55
812.3914	426.2627	65535	64704.8
812.5351	428.4399	65535	64704.3
812.6788	430.6166	65535	64702.6
812.8226	432.7928	65535	64700.4
812.9663	434.9683	65535	64701.15
813.1101	437.1432	65535	64698.15
813.2539	439.3176	65535	64693.6
813.3977	441.4914	65535	64694.4
813.5415	443.6645	65535	64697.05
813.6853	445.8371	65535	64694.45
813.8291	448.0091	65535	64697.8
813.973	450.1806	65535	64697.9
814.1168	452.3514	65535	64695.35
814.2607	454.5216	65535	64687.5
814.4046	456.6913	65535	64695
814.5485	458.8603	65535	64693.85
814.6924	461.0288	65535	64694.35
814.8363	463.1967	65535	64694.05
814.9802	465.3639	65535	64692.85
815.1241	467.5306	65535	64692.45
815.2681	469.6967	65535	64694.1
815.412	471.8622	65535	64691.5
815.556	474.0271	65535	64693.7
815.7	476.1914	65535	64693
815.844	478.3551	65535	64693.4
815.988	480.5182	65535	64690.15
816.132	482.6807	65535	64690.45
816.276	484.8426	65535	64689.75
816.4201	487.0039	65535	64689.5
816.5641	489.1647	65535	64686.85
816.7082	491.3248	65535	64688.7
816.8522	493.4843	65535	64689.2
816.9963	495.6432	65535	64685.9
817.1404	497.8015	65535	64684.6
817.2845	499.9592	65535	64681.8
817.4286	502.1163	65535	64684.85
817.5727	504.2728	65535	64679.65
817.7168	506.4287	65535	64685.75
817.861	508.5839	65535	64687
818.0051	510.7386	65535	64682.8
818.1493	512.8927	65535	64678.2
818.2935	515.0461	65535	64679.65
818.4377	517.199	65535	64680.4
818.5818	519.3512	65535	64680.35
818.726	521.5029	65535	64674.6
818.8703	523.6539	65535	64680.95
819.0145	525.8043	65535	64680.05
819.1587	527.9541	65535	64675.45
819.303	530.1033	65535	64678.35
819.4472	532.2519	65535	64677.55
819.5915	534.3999	65535	64674.7
819.7357	536.5472	65535	64675.75
819.88	538.694	65535	64674.5
820.0243	540.8401	65535	64675.5
820.1686	542.9856	65535	64672
820.3129	545.1305	65535	64668.25
820.4572	547.2748	65535	64671.9
820.6016	549.4185	65535	64670.85
820.7459	551.5615	65535	64671.5
820.8902	553.704	65535	64670.15
821.0346	555.8458	65535	64667.45
821.1789	557.987	65535	64670.45
821.3233	560.1276	65535	64666.8
821.4677	562.2675	65535	64672.45
821.6121	564.4069	65535	64674.35
821.7565	566.5456	65535	64674.1
821.9009	568.6837	65535	64672.25
822.0453	570.8212	65535	64671.85
822.1897	572.958	65535	64669.8
822.3342	575.0942	65535	64672.95
822.4786	577.2299	65535	64671.5
822.6231	579.3648	65535	64672.65
822.7675	581.4992	65535	64671
822.912	583.6329	65535	64673.2
823.0565	585.766	65535	64672.75
823.201	587.8985	65535	64669.6
823.3454	590.0304	65535	64644.75
823.4899	592.1616	65535	64665.95
823.6345	594.2922	65535	64668.45
823.779	596.4222	65535	64666.1
823.9235	598.5515	65535	64666.4
824.068	600.6802	65535	64664.45
824.2126	602.8083	65535	64667.15
824.3571	604.9358	65535	64664.2
824.5017	607.0626	65535	64662.9
824.6462	609.1888	65535	64664.1
824.7908	611.3144	65535	64663.2
824.9354	613.4393	65535	64662.85
825.08	615.5636	65535	64662.1
825.2246	617.6873	65535	64662.95
825.3692	619.8103	65535	64662.4
825.5138	621.9327	65535	64661.7
825.6584	624.0544	65535	64664.5
825.803	626.1756	65535	64662.75
825.9477	628.2961	65535	64663.6
826.0923	630.4159	65535	64659.7
826.237	632.5351	65535	64660.2
826.3816	634.6537	65535	64661.35
826.5263	636.7716	65535	64659.65
826.6709	638.8889	65535	64658.45
826.8156	641.0056	65535	64658.75
826.9603	643.1216	65535	64658.3
827.105	645.237	65535	64658.05
827.2497	647.3518	65535	64658.05
827.3944	649.4659	65535	64657.05
827.5391	651.5793	65535	64658.15
827.6838	653.6922	65535	64662.5
827.8285	655.8043	65535	64659.7
827.9733	657.9159	65535	64657.2
828.118	660.0268	65535	64656.05
828.2627	662.137	65535	64658.5
828.4075	664.2466	65535	64653.3
828.5522	666.3556	65535	64660.05
828.697	668.4639	65535	64655.4
828.8418	670.5716	65535	64657.05
828.9865	672.6786	65535	64657.05
829.1313	674.785	65535	64653.4
829.2761	676.8907	65535	64656.6
829.4209	678.9958	65535	64656.05
829.5657	681.1002	65535	64655.55
829.7105	683.204	65535	64651.8
829.8553	685.3072	65535	64650.6
830.0001	687.4097	65535	64653.4
830.1449	689.5115	65535	64651.65
830.2898	691.6127	65535	64655.65
830.4346	693.7132	65535	64654.75
830.5794	695.8131	65535	64635.65
830.7243	697.9123	65535	64646.55
830.8691	700.0109	65535	64651.7
831.014	702.1089	65535	64652.15
831.1588	704.2061	65535	64652.95
831.3037	706.3028	65535	64650.1
831.4486	708.3987	65535	64651.1
831.5935	710.4941	65535	64649.25
831.7383	712.5887	65535	64646.95
831.8832	714.6827	65535	64646.3
832.0281	716.7761	65535	64649.15
832.173	718.8688	65535	64648.55
832.3179	720.9608	65535	64645.65
832.4628	723.0522	65535	64644.4
832.6077	725.1429	65535	64652.75
832.7527	727.233	65535	64646.25
832.8976	729.3224	65535	64646.55
833.0425	731.4112	65535	64645.9
833.1874	733.4993	65535	64645.8
833.3324	735.5867	65535	64647.85
833.4773	737.6735	65535	64645.75
833.6222	739.7596	65535	64644.15
833.7672	741.845	65535	64646.65
833.9122	743.9298	65535	64643.3
834.0571	746.014	65535	64647.55
834.2021	748.0974	65535	64645.6
834.347	750.1802	65535	64646.65
834.492	752.2624	65535	64645.05
834.637	754.3439	65535	64644.15
834.782	756.4247	65535	64635.6
834.9269	758.5048	65535	64644.85
835.0719	760.5843	65535	64644.3
835.2169	762.6631	65535	64644.8
835.3619	764.7413	65535	64644.05
835.5069	766.8188	65535	64643
835.6519	768.8956	65535	64642.9
835.7969	770.9718	65535	64644.5
835.9419	773.0473	65535	64644.9
836.0869	775.1221	65535	64643.05
836.232	777.1962	65535	64643.35
836.377	779.2697	65535	64641.85
836.522	781.3426	65535	64623.95
836.667	783.4147	65535	64643.05
836.8121	785.4862	65535	64644.1
836.9571	787.557	65535	64643.9
837.1021	789.6271	65535	64643.8
837.2472	791.6966	65535	64642.8
837.3922	793.7654	65535	64644.35
837.5373	795.8335	65535	64641.85
837.6823	797.901	65535	64644.4
837.8274	799.9678	65535	64640.65
837.9724	802.0339	65535	64641.3
838.1175	804.0993	65535	64633.5
838.2626	806.1641	65535	64641.1
838.4076	808.2282	65535	64643.6
838.5527	810.2916	65535	64641.1
838.6978	812.3544	65535	64644.85
838.8428	814.4164	65535	64643.9
838.9879	816.4778	65535	64639.6
839.133	818.5385	65535	64642.25
839.2781	820.5986	65535	64641.05
839.4232	822.658	65535	64641.2
839.5682	824.7166	65535	64641
839.7133	826.7747	65535	64641.25
839.8584	828.832	65535	64638.45
840.0035	830.8886	65535	64639.2
840.1486	832.9446	65535	64638.85
840.2937	834.9999	65535	64643.65
840.4388	837.0545	65535	64637.05
840.5839	839.1085	65535	64637.85
840.729	841.1618	65535	64636.35
840.8741	843.2143	65535	64641.95
841.0192	845.2662	65535	64640.7
841.1643	847.3175	65535	64641.15
841.3095	849.368	65535	64640.45
841.4546	851.4179	65535	64643
841.5997	853.467	65535	64641.5
841.7448	855.5155	65535	64640.95
841.8899	857.5633	65535	64640.35
842.0351	859.6105	65535	64640.55
842.1802	861.6569	65535	64640.95
842.3253	863.7027	65535	64637.45
842.4704	865.7478	65535	64636.8
842.6156	867.7922	65535	64638.75
842.7607	869.8359	65535	64637.85
842.9058	871.8789	65535	64639.25
843.0509	873.9212	65535	64606.25
843.1961	875.9629	65535	64640.2
843.3412	878.0039	65535	64639.45
843.4863	880.0441	65535	64640.2
843.6315	882.0837	65535	64636.55
843.7766	884.1226	65535	64637.9
843.9218	886.1609	65535	64638.9
844.0669	888.1984	65535	64640.4
844.212	890.2352	65535	64639.85
844.3572	892.2714	65535	64633.2
844.5023	894.3069	65535	64637.55
844.6475	896.3416	65535	64637.35
844.7926	898.3757	65535	64637.3
844.9377	900.4091	65535	64636.95
845.0829	902.4418	65535	64634.6
845.228	904.4739	65535	64634.45
845.3732	906.5052	65535	64635.95
845.5183	908.5358	65535	64639.25
845.6635	910.5658	65535	64637.95
845.8086	912.595	65535	64638.45
845.9538	914.6236	65535	64635.65
846.0989	916.6515	65535	64638.3
846.2441	918.6786	65535	64636.4
846.3892	920.7051	65535	64636.2
846.5344	922.7309	65535	64636.9
846.6795	924.756	65535	64637.9
846.8246	926.7804	65535	64632.55
846.9698	928.8041	65535	64627.4
847.1149	930.8272	65535	64636
847.2601	932.8495	65535	64636.85
847.4052	934.8711	65535	64633.5
847.5504	936.892	65535	64634.85
847.6955	938.9123	65535	64634.6
847.8407	940.9318	65535	64638
847.9858	942.9506	65535	64634.55
848.131	944.9688	65535	64638.35
848.2761	946.9862	65535	64634.3
848.4213	949.003	65535	64633.4
848.5664	951.019	65535	64634.4
848.7115	953.0344	65535	64637.1
848.8567	955.0491	65535	64634.6
849.0018	957.063	65535	64635.25
849.147	959.0763	65535	64637.65
849.2921	961.0888	65535	64635.25
849.4373	963.1007	65535	64635.15
849.5824	965.1119	65535	64637.1
849.7275	967.1223	65535	64635.65
849.8727	969.1321	65535	64636.65
850.0178	971.1412	65535	64638.4
850.1629	973.1495	65535	64635.3
850.3081	975.1572	65535	64604
850.4532	977.1641	65535	64635
850.5983	979.1704	65535	64633.9
850.7435	981.1759	65535	64632.3
850.8886	983.1808	65535	64633.4
851.0337	985.1849	65535	64622.6
851.1788	987.1884	65535	64632.6
851.324	989.1911	65535	64633.45
851.4691	991.1932	65535	64633.9
851.6142	993.1945	65535	64637.5
851.7593	995.1951	65535	64635.8
851.9045	997.1951	65535	64630.5
852.0496	999.1943	65535	64632.95
852.1947	1001.1928	65535	64636
852.3398	1003.1906	65535	64636.6
852.4849	1005.1877	65535	64633
852.63	1007.1841	65535	64635.1
852.7751	1009.1798	65535	64633.65
852.9202	1011.1748	65535	64639.2
853.0653	1013.1691	65535	64632.4
853.2104	1015.1627	65535	64635.6
853.3555	1017.1556	65535	64635.95
853.5006	1019.1477	65535	64632.5
853.6457	1021.1392	65535	64637.8
853.7908	1023.1299	65535	64637.85
853.9359	1025.12	65535	64634.15
854.081	1027.1093	65535	64637.1
854.2261	1029.0979	65535	64638.2
854.3712	1031.0859	65535	64637.05
854.5163	1033.0731	65535	64635.45
854.6613	1035.0596	65535	64634.4
854.8064	1037.0454	65535	64633.95
854.9515	1039.0304	65535	64636.05
855.0965	1041.0148	65535	64636.65
855.2416	1042.9985	65535	64635.65
855.3867	1044.9814	65535	64636.7
855.5317	1046.9636	65535	64632.15
855.6768	1048.9452	65535	64636.5
855.8219	1050.926	65535	64637.4
855.9669	1052.9061	65535	64638.25
856.112	1054.8855	65535	64633.55
856.257	1056.8642	65535	64635.5
856.4021	1058.8421	65535	64628.55
856.5471	1060.8194	65535	64633.25
856.6921	1062.7959	65535	64636.15
856.8372	1064.7717	65535	64633.35
856.9822	1066.7469	65535	64633.7
857.1272	1068.7213	65535	64634.5
857.2723	1070.695	65535	64634.05
857.4173	1072.6679	65535	64634.35
857.5623	1074.6402	65535	64634.8
857.7073	1076.6117	65535	64629.2
857.8523	1078.5826	65535	64632.4
857.9973	1080.5527	65535	64629.8
858.1423	1082.5221	65535	64633.25
858.2873	1084.4908	65535	64634.7
858.4323	1086.4587	65535	64633.95
858.5773	1088.426	65535	64632.95
858.7223	1090.3925	65535	64630.85
858.8673	1092.3584	65535	64634.55
859.0123	1094.3235	65535	64634.65
859.1573	1096.2879	65535	64633.6
859.3022	1098.2515	65535	64636.05
859.4472	1100.2145	65535	64633.6
859.5922	1102.1767	65535	64632.1
859.7371	1104.1382	65535	64635.1
859.8821	1106.099	65535	64634.25
860.027	1108.0591	65535	64635.5
860.172	1110.0185	65535	64633.45
860.3169	1111.9771	65535	64634.6
860.4619	1113.9351	65535	64633.9
860.6068	1115.8923	65535	64633
860.7517	1117.8488	65535	64633.65
860.8967	1119.8045	65535	64635.3
861.0416	1121.7596	65535	64636.85
861.1865	1123.7139	65535	64637.05
861.3314	1125.6675	65535	64633.35
861.4763	1127.6204	65535	64634.95
861.6212	1129.5726	65535	64635.25
861.7661	1131.524	65535	64635.9
861.911	1133.4748	65535	64635.6
862.0559	1135.4248	65535	64633.55
862.2008	1137.3741	65535	64632.35
862.3457	1139.3226	65535	64633.9
862.4905	1141.2705	65535	64634.55
862.6354	1143.2176	65535	64630.55
862.7803	1145.164	65535	64633.1
862.9251	1147.1097	65535	64634.15
863.07	1149.0546	65535	64633.05
863.2148	1150.9989	65535	64633.1
863.3597	1152.9424	65535	64633.25
863.5045	1154.8852	65535	64632.05
863.6493	1156.8272	65535	64634.75
863.7942	1158.7686	65535	64629.5
863.939	1160.7092	65535	64633
864.0838	1162.6491	65535	64633.8
864.2286	1164.5883	65535	64634.1
864.3734	1166.5267	65535	64634.3
864.5182	1168.4644	65535	64634.25
864.663	1170.4014	65535	64631.65
864.8078	1172.3377	65535	64636.8
864.9526	1174.2732	65535	64632.95
865.0974	1176.2081	65535	64633.9
865.2421	1178.1421	65535	64630.45
865.3869	1180.0755	65535	64636.4
865.5317	1182.0082	65535	64635
865.6764	1183.9401	65535	64634.95
865.8212	1185.8713	65535	64636.1
865.9659	1187.8017	65535	64635.2
866.1106	1189.7315	65535	64637.55
866.2554	1191.6605	65535	64607.9
866.4001	1193.5888	65535	64635
866.5448	1195.5163	65535	64635.15
866.6895	1197.4432	65535	64634.65
866.8342	1199.3693	65535	64632.2
866.9789	1201.2947	65535	64633.85
867.1236	1203.2193	65535	64635.75
867.2683	1205.1432	65535	64636.15
867.413	1207.0664	65535	64632.9
867.5576	1208.9889	65535	64631.45
867.7023	1210.9106	65535	64633.25
867.847	1212.8316	65535	64634.1
867.9916	1214.7519	65535	64622.65
868.1363	1216.6715	65535	64634.65
868.2809	1218.5903	65535	64635.7
868.4255	1220.5084	65535	64632.85
868.5701	1222.4257	65535	64635.25
868.7148	1224.3424	65535	64636.25
868.8594	1226.2583	65535	64632.65
869.004	1228.1735	65535	64633.3
869.1486	1230.0879	65535	64631.25
869.2932	1232.0016	65535	64634.15
869.4377	1233.9146	65535	64631.6
869.5823	1235.8269	65535	64636.1
869.7269	1237.7384	65535	64635
869.8715	1239.6492	65535	64633.4
870.016	1241.5592	65535	64632.2
870.1606	1243.4686	65535	64634.5
870.3051	1245.3772	65535	64635.35
870.4496	1247.285	65535	64634.8
870.5941	1249.1922	65535	64634.2
870.7387	1251.0986	65535	64636.95
870.8832	1253.0042	65535	64633.2
871.0277	1254.9092	65535	64633.55
871.1722	1256.8134	65535	64638.55
871.3167	1258.7169	65535	64633.75
871.4611	1260.6196	65535	64636.75
871.6056	1262.5216	65535	64633.75
871.7501	1264.4229	65535	64635
871.8945	1266.3234	65535	64634.05
872.039	1268.2232	65535	64633.85
872.1834	1270.1223	65535	64633.25
872.3278	1272.0207	65535	64631.9
872.4723	1273.9183	65535	64628.7
872.6167	1275.8151	65535	64633.85
872.7611	1277.7113	65535	64634.3
872.9055	1279.6067	65535	64635.75
873.0499	1281.5014	65535	64632.75
873.1943	1283.3953	65535	64632.4
873.3386	1285.2885	65535	64634.15
873.483	1287.181	65535	64634
873.6274	1289.0727	65535	64636.5
873.7717	1290.9637	65535	64634.85
873.9161	1292.854	65535	64633.5
874.0604	1294.7435	65535	64633.4
874.2047	1296.6323	65535	64634.5
874.349	1298.5204	65535	64632.9
874.4933	1300.4077	65535	64631.95
874.6376	1302.2943	65535	64636.15
874.7819	1304.1802	65535	64636.55
874.9262	1306.0653	65535	64634.65
875.0705	1307.9497	65535	64634.7
875.2147	1309.8333	65535	64633.8
875.359	1311.7162	65535	64635.95
875.5032	1313.5984	65535	64631.75
875.6475	1315.4798	65535	64624.8
875.7917	1317.3605	65535	64615.3
875.9359	1319.2405	65535	64633.35
876.0801	1321.1197	65535	64631.7
876.2243	1322.9982	65535	64632.05
876.3685	1324.876	65535	64633.8
876.5127	1326.753	65535	64632.3
876.6569	1328.6293	65535	64631.8
876.801	1330.5048	65535	64632.2
876.9452	1332.3796	65535	64634.5
877.0893	1334.2537	65535	64608.35
877.2335	1336.127	65535	64637.05
877.3776	1337.9996	65535	64635.75
877.5217	1339.8714	65535	64632.2
877.6658	1341.7426	65535	64590.85
877.8099	1343.6129	65535	64632.6
877.954	1345.4826	65535	64631.45
878.0981	1347.3515	65535	64633
878.2422	1349.2196	65535	64631.55
878.3862	1351.087	65535	64631.15
878.5303	1352.9537	65535	64632
878.6743	1354.8197	65535	64635.25
878.8184	1356.6849	65535	64633.3
878.9624	1358.5493	65535	64633.2
879.1064	1360.4131	65535	64633.25
879.2504	1362.276	65535	64634.55
879.3944	1364.1383	65535	64633.15
879.5384	1365.9998	65535	64627
879.6823	1367.8606	65535	64632.25
879.8263	1369.7206	65535	64634.25
879.9702	1371.5799	65535	64632.75
880.1142	1373.4384	65535	64634.65
880.2581	1375.2962	65535	64633.95
880.402	1377.1533	65535	64635.35
880.5459	1379.0096	65535	64634.1
880.6898	1380.8652	65535	64634.2
880.8337	1382.7201	65535	64635.65
880.9776	1384.5742	65535	64631.9
881.1215	1386.4275	65535	64633.9
881.2653	1388.2802	65535	64633.1
881.4092	1390.132	65535	64636.05
881.553	1391.9832	65535	64635
881.6968	1393.8336	65535	64633.6
881.8406	1395.6832	65535	64633.35
881.9844	1397.5322	65535	64635.55
882.1282	1399.3803	65535	64627.8
882.272	1401.2278	65535	64630.9
882.4158	1403.0745	65535	64636.05
882.5595	1404.9204	65535	64636.4
882.7033	1406.7656	65535	64635.15
882.847	1408.6101	65535	64634.9
882.9908	1410.4538	65535	64633.6
883.1345	1412.2968	65535	64633.1
883.2782	1414.139	65535	64637.1
883.4219	1415.9805	65535	64634.9
883.5656	1417.8213	65535	64631.05
883.7092	1419.6613	65535	64634.8
883.8529	1421.5006	65535	64635.75
883.9965	1423.3391	65535	64633.45
884.1402	1425.1769	65535	64634.65
884.2838	1427.0139	65535	64633.15
884.4274	1428.8502	65535	64632.4
884.571	1430.6858	65535	64635.6
884.7146	1432.5206	65535	64634.2
884.8582	1434.3547	65535	64633.95
885.0018	1436.188	65535	64635.3
885.1453	1438.0206	65535	64635.9
885.2889	1439.8524	65535	64634.8
885.4324	1441.6835	65535	64632.15
885.5759	1443.5139	65535	64632
885.7194	1445.3435	65535	64635.6
885.8629	1447.1724	65535	64636.1
886.0064	1449.0005	65535	64634.4
886.1499	1450.8279	65535	64634.75
886.2933	1452.6545	65535	64634.65
886.4368	1454.4804	65535	64635.35
886.5802	1456.3056	65535	64625.5
886.7237	1458.13	65535	64636.9
886.8671	1459.9536	65535	64634.1
887.0105	1461.7766	65535	64635.1
887.1539	1463.5987	65535	64634.95
887.2972	1465.4202	65535	64635.55
887.4406	1467.2409	65535	64634.6
887.584	1469.0608	65535	64634.85
887.7273	1470.88	65535	64634
887.8706	1472.6984	65535	64635.1
888.0139	1474.5161	65535	64635
888.1572	1476.3331	65535	64636.1
888.3005	1478.1493	65535	64632.65
888.4438	1479.9648	65535	64637.05
888.5871	1481.7795	65535	64635.9
888.7303	1483.5935	65535	64637.2
888.8736	1485.4067	65535	64635.1
889.0168	1487.2192	65535	64634.65
889.16	1489.031	65535	64632.05
889.3032	1490.842	65535	64634.85
889.4464	1492.6522	65535	64635.1
889.5896	1494.4618	65535	64635.35
889.7327	1496.2705	65535	64636.6
889.8759	1498.0785	65535	64634.6
890.019	1499.8858	65535	64635.9
890.1622	1501.6924	65535	64635.75
890.3053	1503.4981	65535	64634.85
890.4484	1505.3032	65535	64633.85
890.5914	1507.1075	65535	64634.75
890.7345	1508.911	65535	64635.95
890.8776	1510.7138	65535	64635.3
891.0206	1512.5159	65535	64635.15
891.1637	1514.3172	65535	64636.25
891.3067	1516.1178	65535	64636.95
891.4497	1517.9176	65535	64632.3
891.5927	1519.7166	65535	64635.8
891.7357	1521.515	65535	64630.75
891.8786	1523.3126	65535	64635.3
892.0216	1525.1094	65535	64634.75
892.1645	1526.9055	65535	64638.45
892.3074	1528.7008	65535	64636.9
892.4503	1530.4954	65535	64629.9
892.5932	1532.2893	65535	64635.85
892.7361	1534.0824	65535	64632
892.879	1535.8747	65535	64636.05
893.0218	1537.6663	65535	64636.1
893.1647	1539.4572	65535	64636.2
893.3075	1541.2473	65535	64636.1
893.4503	1543.0367	65535	64636.75
893.5931	1544.8253	65535	64634.45
893.7359	1546.6132	65535	64633.1
893.8787	1548.4003	65535	64625.8
894.0214	1550.1867	65535	64628.45
894.1642	1551.9723	65535	64632.75
894.3069	1553.7572	65535	64634.6
894.4496	1555.5414	65535	64635.7
894.5923	1557.3247	65530.9	64633.2
894.735	1559.1074	65535	64638.5
894.8777	1560.8893	65535	64637.8
895.0204	1562.6705	65535	64637.5
895.163	1564.4509	65533.35	64634.1
895.3056	1566.2305	65535	64638
895.4482	1568.0094	65535	64637.7
895.5908	1569.7876	65535	64636.85
895.7334	1571.565	65533.75	64634.8
895.876	1573.3417	65535	64638.7
896.0186	1575.1176	65535	64639.05
896.1611	1576.8928	65530.55	64634.45
896.3036	1578.6672	65519.1	64621.95
896.4461	1580.4409	65526.95	64630
896.5886	1582.2138	65505.5	64604.2
896.7311	1583.986	65519.65	64621.9
896.8736	1585.7575	65471.55	64577.25
897.0161	1587.5282	65497.05	64600.8
897.1585	1589.2981	65481	64588.85
897.3009	1591.0673	65431.6	64534.45
897.4433	1592.8358	65357.55	64460.5
897.5857	1594.6035	65433.6	64535.7
897.7281	1596.3704	65428.1	64532.05
897.8705	1598.1366	65271.75	64376.1
898.0128	1599.9021	65140.55	64245
898.1551	1601.6668	65336.85	64438.25
898.2975	1603.4308	65262.45	64364.5
898.4398	1605.194	65254	64353.65
898.5821	1606.9564	64928.25	64033.55
898.7243	1608.7182	65127.75	64227.05
898.8666	1610.4791	64946.05	64048.4
899.0088	1612.2394	65143.05	64249.1
899.1511	1613.9988	64850.55	63954.9
899.2933	1615.7576	65154.35	64260.2
899.4355	1617.5156	65159.95	64258.25
899.5776	1619.2728	65373.5	64475.35
899.7198	1621.0293	65005.95	64108.6
899.862	1622.785	65010.85	64112.75
900.0041	1624.54	65157	64259.25
900.1462	1626.2942	64840.55	63941.55
900.2883	1628.0477	64318.3	63420.8
900.4304	1629.8005	63648	62748.1
900.5725	1631.5525	64359.65	63465.1
900.7145	1633.3037	63270.4	62373.9
900.8566	1635.0542	63142.5	62249.15
900.9986	1636.804	63661.25	62766.5
901.1406	1638.553	62479.65	61503.95
901.2826	1640.3013	62861.45	61964.35
901.4245	1642.0488	62115.2	61217.45
901.5665	1643.7955	62668.75	61775.05
901.7085	1645.5416	62145.95	61249.25
901.8504	1647.2868	61581.5	60688.4
901.9923	1649.0313	62479.9	61584.65
902.1342	1650.7751	61989.85	61092.6
902.2761	1652.5181	61615.05	60722
902.4179	1654.2604	61708.35	60814.15
902.5598	1656.0019	62044.7	61150.05
902.7016	1657.7427	61869.8	60972.8
902.8434	1659.4828	62466.7	61569.2
902.9852	1661.222	61943.45	61047.25
903.127	1662.9606	62594.55	61699.15
903.2687	1664.6984	61669.6	60773.65
903.4105	1666.4354	61946	61050.1
903.5522	1668.1717	60729.85	59832.8
903.6939	1669.9072	59884.2	58990.05
903.8356	1671.642	59707.15	58808.5
903.9773	1673.3761	59389.25	58496.5
904.119	1675.1094	59165.1	58268.8
904.2606	1676.8419	58535.8	57640.8
904.4022	1678.5737	58451.1	57556.7
904.5439	1680.3048	58086	57191.85
904.6855	1682.0351	57793.5	56898.6
904.827	1683.7646	57481.8	56583.3
904.9686	1685.4934	57618.25	56725.7
905.1101	1687.2215	56569.15	55673.5
905.2517	1688.9488	57156.75	56264.05
905.3932	1690.6754	55719.3	54824.45
905.5347	1692.4012	56261.05	55367.1
905.6761	1694.1263	56185.05	55292.7
905.8176	1695.8506	55791.65	54896.65
905.9591	1697.5742	55647.35	54753.6
906.1005	1699.297	55414.05	54520.75
906.2419	1701.0191	55351.75	54457.05
906.3833	1702.7404	54834.6	53942.55
906.5246	1704.461	54545.05	53648.6
906.666	1706.1808	54602.05	53705.6
906.8073	1707.8999	54366.6	53471.8
906.9487	1709.6182	54152.9	53259.05
907.09	1711.3358	54038.15	53143.75
907.2313	1713.0527	53819.8	52930
907.3725	1714.7688	53747.65	52848.3
907.5138	1716.4841	53143.6	52246.7
907.655	1718.1987	53264.05	52366.1
907.7962	1719.9126	53011.5	52118.3
907.9374	1721.6257	52905.95	52010.2
908.0786	1723.338	52931.45	52036.65
908.2198	1725.0496	52336.3	51442.5
908.3609	1726.7605	52316.7	51422.2
908.502	1728.4706	52103.35	51208.9
908.6431	1730.18	51915.25	51018.05
908.7842	1731.8886	51741.65	50846.95
908.9253	1733.5964	51623.85	50709.1
909.0664	1735.3036	51540.15	50644.2
909.2074	1737.0099	51397.45	50504.5
909.3484	1738.7156	51135.55	50244.55
909.4894	1740.4204	50911.5	50015.65
909.6304	1742.1246	50840.4	49944.35
909.7714	1743.8279	50784.75	49890.75
909.9123	1745.5306	50737.85	49843.5
910.0532	1747.2325	50340.3	49447.3
910.1941	1748.9336	50291.05	49397.65
910.335	1750.634	50008.25	49111.2
910.4759	1752.3336	49975.7	49083.9
910.6168	1754.0325	49809.85	48919.15
910.7576	1755.7307	49825.25	48932.3
910.8984	1757.4281	49625.85	48729.95
911.0392	1759.1247	49579.55	48676.25
911.18	1760.8206	49322.75	48422.5
911.3208	1762.5158	49360.4	48463.5
911.4615	1764.2102	49048.05	48156.05
911.6022	1765.9039	48910.2	48018.35
911.7429	1767.5968	48784.1	47891.05
911.8836	1769.289	48666.05	47772.95
912.0243	1770.9804	48541.15	47649.55
912.1649	1772.6711	48484.55	47590.05
912.3056	1774.361	48314.8	47419.9
912.4462	1776.0502	48159.75	47266.15
912.5868	1777.7386	48049.2	47152.85
912.7274	1779.4263	47886.7	46992.9
912.8679	1781.1132	47893.95	47000.7
913.0084	1782.7994	47655.1	46760.55
913.149	1784.4849	47585.25	46694.2
913.2895	1786.1696	47327.8	46426.5
913.4299	1787.8535	47251.6	46359.55
913.5704	1789.5367	47136.7	46244.75
913.7108	1791.2192	47021.2	46129.45
913.8513	1792.9009	46875.2	45949.4
913.9917	1794.5818	46764.95	45871.5
914.132	1796.2621	46601.95	45710.4
914.2724	1797.9415	46501.7	45607.55
914.4128	1799.6202	46305.25	45410.1
914.5531	1801.2982	46211.8	45318.85
914.6934	1802.9755	46124.45	45230.15
914.8337	1804.6519	46111.4	45217
914.9739	1806.3277	45834.25	44941.65
915.1142	1808.0027	45635.8	44743.95
915.2544	1809.6769	45600.05	44706.75
915.3946	1811.3504	45487.9	44593.5
915.5348	1813.0231	45305.7	44411.75
915.675	1814.6951	45252.7	44360.9
915.8151	1816.3664	45268.25	44373.9
915.9553	1818.0369	45140.8	44247.35
916.0954	1819.7067	44924	44032.2
916.2355	1821.3757	44845.85	43950.9
916.3755	1823.044	44741.5	43848.55
916.5156	1824.7115	44636.25	43743.1
916.6556	1826.3783	44421.85	43530.75
916.7956	1828.0443	44300.45	43409.05
916.9356	1829.7096	44167.75	43273.15
917.0756	1831.3741	44130.3	43233.95
917.2155	1833.0379	43971.1	43077.8
917.3555	1834.701	43858.75	42965.05
917.4954	1836.3633	43722.75	42829.15
917.6353	1838.0248	43673.25	42777.3
917.7751	1839.6856	43536.05	42643.75
917.915	1841.3457	43433.2	42539.25
918.0548	1843.005	43325.1	42434.1
918.1946	1844.6636	43297	42405
918.3344	1846.3214	43139.05	42246.75
918.4742	1847.9785	43043.65	42152.2
918.6139	1849.6349	42949.6	42053.35
918.7537	1851.2904	42862.95	41960.95
918.8934	1852.9453	42723.05	41829.15
919.0331	1854.5994	42577.95	41681.95
919.1727	1856.2528	42604.95	41707.05
919.3124	1857.9054	42444.35	41553.2
919.452	1859.5572	42352.55	41460.8
919.5916	1861.2083	42232.55	41339.95
919.7312	1862.8587	42197.95	41303.85
919.8708	1864.5084	42084.95	41191.4
920.0103	1866.1572	41933.75	41041.1
920.1498	1867.8054	41695.4	40802.55
920.2893	1869.4528	41660.6	40768
920.4288	1871.0994	41600.8	40709.25
920.5683	1872.7453	41481	40587.85
920.7077	1874.3905	41380.4	40482.5
920.8471	1876.0349	41249.05	40353.85
920.9865	1877.6786	41226.15	40331.8
921.1259	1879.3215	41157.75	40264.3
921.2653	1880.9637	41020.95	40127.5
921.4046	1882.6051	40945.7	40051.4
921.5439	1884.2458	40867	39972.15
921.6832	1885.8858	40640.6	39748.65
921.8225	1887.525	40616.7	39724.05
921.9617	1889.1634	40396.1	39502.55
922.101	1890.8011	40261.15	39370.35
922.2402	1892.4381	40125.8	39232.1
922.3794	1894.0743	40157.9	39266.5
922.5185	1895.7098	40019.8	39126.95
922.6577	1897.3446	39881.2	38986.45
922.7968	1898.9786	39794.3	38897.35
922.9359	1900.6118	39719	38825.65
923.075	1902.2443	39494.1	38600.2
923.214	1903.8761	39381.3	38489.9
923.3531	1905.5071	39175.75	38281.8
923.4921	1907.1374	39060.9	38167.6
923.6311	1908.7669	39023.05	38129.75
923.77	1910.3957	39003.6	38111.3
923.909	1912.0237	38704.6	37811.45
924.0479	1913.651	38641	37749.7
924.1868	1915.2776	38538.25	37647.1
924.3257	1916.9034	38395.15	37506
924.4646	1918.5285	38181.25	37289
924.6034	1920.1528	37997.4	37103.3
924.7422	1921.7764	37981.15	37090.2
924.881	1923.3992	37863.55	36971.15
925.0198	1925.0213	37588.9	36695.9
925.1586	1926.6427	37477.45	36585.55
925.2973	1928.2633	37498.7	36489.25
925.436	1929.8832	37303.7	36408.6
925.5747	1931.5023	37109.1	36215.3
925.7134	1933.1207	37045.55	36153
925.852	1934.7383	36957.65	36062.95
925.9906	1936.3552	36802.1	35909.05
926.1292	1937.9714	36731.1	35837.6
926.2678	1939.5868	36545.45	35651.55
926.4064	1941.2015	36344.35	35451.6
926.5449	1942.8154	36217.9	35324.25
926.6834	1944.4286	36058.4	35163.85
926.8219	1946.041	35993.4	35080.25
926.9604	1947.6528	35812	34915.95
927.0988	1949.2637	35719.75	34827.25
927.2372	1950.8739	35581.2	34690.4
927.3756	1952.4834	35509.05	34617
927.514	1954.0921	35468.05	34575.25
927.6523	1955.7001	35340.45	34443.1
927.7907	1957.3074	35172.1	34280.75
927.929	1958.9139	35052.7	34161.95
928.0673	1960.5197	34976.25	34082.8
928.2055	1962.1247	34812.75	33919.95
928.3438	1963.729	34637.9	33748.45
928.482	1965.3325	34523.65	33607.75
928.6202	1966.9353	34418.6	33526.9
928.7584	1968.5374	34295	33402.55
928.8965	1970.1387	34212.95	33319.75
929.0346	1971.7393	34048.45	33155.2
929.1727	1973.3392	33978	33085
929.3108	1974.9383	33838.75	32948.8
929.4489	1976.5366	33723.4	32831.95
929.5869	1978.1342	33681.2	32788.3
929.7249	1979.7311	33547.35	32652.1
929.8629	1981.3273	33475.9	32584.2
930.0009	1982.9227	33365.6	32473.65
930.1388	1984.5173	33243.45	32352.9
930.2767	1986.1112	33111.85	32219.4
930.4146	1987.7044	33029.1	32138.9
930.5525	1989.2968	32885.15	31991.85
930.6904	1990.8885	32848.8	31954.3
930.8282	1992.4795	32779.45	31885.85
930.966	1994.0697	32618.85	31726.45
931.1038	1995.6592	32534.6	31644.95
931.2415	1997.2479	32374.55	31482.05
931.3793	1998.8359	32310.5	31418.95
931.517	2000.4232	32214.55	31326
931.6547	2002.0097	32056.5	31165.65
931.7923	2003.5955	31881.8	30991.2
931.93	2005.1805	31912.2	31018.35
932.0676	2006.7648	31834.4	30942.2
932.2052	2008.3484	31715.05	30821.6
932.3427	2009.9312	31702.25	30810.15
932.4803	2011.5133	31592.8	30703.9
932.6178	2013.0946	31500.85	30608
932.7553	2014.6752	31386.45	30495.1
932.8928	2016.2551	31308.9	30416.2
933.0302	2017.8342	31172.35	30281.2
933.1676	2019.4126	31041.3	30150.1
933.305	2020.9902	30947.5	30056.6
933.4424	2022.5672	30878.8	29985.75
933.5798	2024.1433	30839.4	29942.75
933.7171	2025.7188	30688.2	29799.45
933.8544	2027.2935	30605.5	29713.8
933.9917	2028.8674	30490.2	29599.8
934.129	2030.4406	30420.85	29529.2
934.2662	2032.0131	30265.75	29373.85
934.4034	2033.5849	30134.45	29234.25
934.5406	2035.1559	30144.95	29253.05
934.6778	2036.7261	30045.75	29156.65
934.8149	2038.2957	29971.9	29080.4
934.952	2039.8645	29878.9	28988.2
935.0891	2041.4325	29902	29008.15
935.2262	2042.9998	29742.45	28852.35
935.3632	2044.5664	29569.8	28677.25
935.5002	2046.1323	29559.75	28667.15
935.6372	2047.6974	29464.85	28572.75
935.7742	2049.2617	29360.25	28470.4
935.9111	2050.8254	29436.15	28522.55
936.048	2052.3883	29214.8	28322.4
936.1849	2053.9504	29058.8	28168.05
936.3218	2055.5118	29069.55	28178.85
936.4586	2057.0725	28866.4	27969.85
936.5955	2058.6325	28855.3	27963.4
936.7323	2060.1917	28701.1	27809.75
936.869	2061.7502	28655.3	27760.3
937.0058	2063.3079	28534.75	27643.45
937.1425	2064.8649	28404.65	27512.15
937.2792	2066.4212	28393.8	27502.3
937.4159	2067.9767	28258.65	27369.5
937.5525	2069.5315	28144.7	27253.9
937.6891	2071.0856	28033.6	27142.25
937.8257	2072.6389	27930.8	27039.95
937.9623	2074.1915	27740.4	26851.15
938.0989	2075.7433	27620.1	26725.8
938.2354	2077.2945	27565.15	26675.05
938.3719	2078.8448	27417.2	26524.5
938.5084	2080.3945	27373.35	26482.2
938.6448	2081.9434	27312.95	26420.3
938.7812	2083.4916	27198.95	26305.2
938.9176	2085.039	27083.25	26189.25
939.054	2086.5857	27091.45	26195.9
939.1903	2088.1317	26964.25	26072.35
939.3267	2089.677	26941.65	26050.15
939.463	2091.2215	26764.75	25873.9
939.5992	2092.7652	26734.8	25840.9
939.7355	2094.3083	26666.25	25772.95
939.8717	2095.8506	26637.95	25745.7
940.0079	2097.3921	26565.4	25673.4
940.1441	2098.933	26431.85	25539.15
940.2802	2100.4731	26359.55	25468
940.4163	2102.0124	26326.45	25427.4
940.5524	2103.5511	26256.45	25364.25
940.6885	2105.089	26193.85	25301.65
940.8245	2106.6261	26064.9	25172.1
940.9606	2108.1626	25991.85	25096.65
941.0965	2109.6983	25966.2	25044.6
941.2325	2111.2332	25880.3	24985.45
941.3684	2112.7675	25782.95	24890.9
941.5044	2114.301	25687.8	24792.95
941.6403	2115.8337	25667.1	24774.2
941.7761	2117.3657	25546.45	24654.3
941.912	2118.897	25535.15	24641.25
942.0478	2120.4276	25440.15	24543.8
942.1835	2121.9575	25288.95	24394.85
942.3193	2123.4866	25266.35	24360.95
942.455	2125.0149	25213.5	24318.55
942.5907	2126.5426	25015.4	24123.75
942.7264	2128.0695	24966.85	24069.65
942.8621	2129.5956	24899.05	24007.9
942.9977	2131.1211	24870.55	23972.65
943.1333	2132.6458	24766.7	23877.6
943.2689	2134.1698	24721.2	23828.15
943.4044	2135.693	24606.7	23714.2
943.54	2137.2155	24598.5	23704.45
943.6755	2138.7373	24529.35	23637.5
943.8109	2140.2584	24408.1	23517.1
943.9464	2141.7787	24306.55	23408.25
944.0818	2143.2983	24192	23301.1
944.2172	2144.8171	24081.75	23192.85
944.3526	2146.3353	24046.6	23153.05
944.4879	2147.8527	23946.55	23055.95
944.6232	2149.3693	23916.55	23024.65
944.7585	2150.8853	23809.35	22917.35
944.8938	2152.4005	23657.6	22765.75
945.029	2153.9149	23648.65	22756.95
945.1642	2155.4287	23575.15	22682.15
945.2994	2156.9417	23485	22590.75
945.4346	2158.454	23412.6	22519.2
945.5697	2159.9655	23345.1	22454.2
945.7048	2161.4764	23314	22423.3
945.8399	2162.9865	23201.1	22309.9
945.9749	2164.4958	23168.85	22277.45
946.1099	2166.0045	23060.6	22165.75
946.2449	2167.5124	23035.1	22144.75
946.3799	2169.0195	22952.9	22060.6
946.5148	2170.526	22955.7	22063.9
946.6498	2172.0317	22807.1	21915.5
946.7846	2173.5367	22739.6	21846.5
946.9195	2175.0409	22707.05	21815.85
947.0543	2176.5445	22657.5	21767.15
947.1891	2178.0473	22557.3	21665
947.3239	2179.5494	22449.85	21554.85
947.4587	2181.0507	22339.1	21445.65
947.5934	2182.5513	22311.45	21421.15
947.7281	2184.0512	22238.15	21345.15
947.8628	2185.5504	22173.6	21283.25
947.9974	2187.0488	22012	21121.5
948.132	2188.5465	21969.8	21077.2
948.2666	2190.0435	21916.05	21024.9
948.4012	2191.5397	21832.25	20940.35
948.5357	2193.0353	21733.15	20842.65
948.6702	2194.5301	21612.5	20720.2
948.8047	2196.0241	21520.5	20627.5
948.9392	2197.5175	21493.8	20602.95
949.0736	2199.0101	21407.55	20512.65
949.208	2200.502	21264.5	20373.5
949.3424	2201.9931	21201.2	20310.75
949.4767	2203.4835	21129.4	20236.5
949.611	2204.9733	21075.65	20176.2
949.7453	2206.4622	21017.35	20125
949.8796	2207.9505	20927.85	20031.65
950.0138	2209.438	20841.15	19952.8
950.148	2210.9248	20782.85	19889.9
950.2822	2212.4109	20677.95	19786.7
950.4164	2213.8962	20597.25	19702.7
950.5505	2215.3809	20551.85	19659.7
950.6846	2216.8648	20516	19623.35
950.8186	2218.3479	20462.35	19565.55
950.9527	2219.8304	20345.35	19450.2
951.0867	2221.3121	20266.8	19372.5
951.2207	2222.7931	20208.7	19316.1
951.3546	2224.2733	20138.25	19246.1
951.4886	2225.7529	20050.25	19156.7
951.6225	2227.2317	19952.3	19057.45
951.7563	2228.7098	19981.65	19088.35
951.8902	2230.1872	19826.45	18935.3
952.024	2231.6638	19807.4	18917.6
952.1578	2233.1397	19746.75	18847.2
952.2916	2234.6149	19668.6	18777.3
952.4253	2236.0894	19553.5	18661.5
952.559	2237.5632	19545.1	18642.25
952.6927	2239.0362	19409.3	18515.5
952.8263	2240.5085	19309.35	18419.2
952.9599	2241.9801	19271.75	18378.35
953.0935	2243.4509	19245.35	18354.3
953.2271	2244.921	19145.3	18253.55
953.3606	2246.3904	19075	18180.8
953.4941	2247.8591	19024.1	18133.5
953.6276	2249.3271	18952.45	18059.7
953.7611	2250.7943	18899.4	18006.25
953.8945	2252.2608	18819.45	17928.4
954.0279	2253.7266	18809.45	17918.95
954.1612	2255.1917	18717.05	17824.65
954.2946	2256.656	18602.2	17710.1
954.4279	2258.1197	18562.1	17669.6
954.5612	2259.5826	18540.3	17645.15
954.6944	2261.0447	18495.75	17603.55
954.8276	2262.5062	18396.85	17504.9
954.9608	2263.9669	18347.6	17454.1
955.094	2265.4269	18317.85	17427.5
955.2271	2266.8862	18237.3	17345.1
955.3602	2268.3448	18196.95	17304.65
955.4933	2269.8026	18177.35	17285.1
955.6264	2271.2598	18070.85	17179
955.7594	2272.7162	18008.6	17116
955.8924	2274.1719	17974.4	17082.7
956.0253	2275.6268	17897.5	17005.1
956.1583	2277.0811	17884.7	16990.35
956.2912	2278.5346	17806.3	16915.3
956.4241	2279.9874	17749.05	16858.75
956.5569	2281.4395	17721.7	16830.45
956.6897	2282.8908	17637.7	16740.45
956.8225	2284.3414	17595.85	16701.65
956.9553	2285.7914	17548.3	16658.4
957.088	2287.2406	17484	16591.4
957.2207	2288.689	17403.3	16510.45
957.3534	2290.1368	17354.05	16459.95
957.486	2291.5838	17307.85	16413
957.6186	2293.0302	17257.1	16363.15
957.7512	2294.4758	17151.7	16259.9
957.8838	2295.9206	17073.15	16179.85
958.0163	2297.3648	17070.6	16179.7
958.1488	2298.8082	17012.25	16121.05
958.2813	2300.251	16953.5	16061.5
958.4137	2301.693	16895.15	16002.05
958.5461	2303.1343	16921.15	16029.15
958.6785	2304.5748	16829.45	15938.15
958.8108	2306.0147	16784.5	15893.9
958.9432	2307.4538	16710.75	15818.35
959.0754	2308.8922	16622.6	15732.2
959.2077	2310.3299	16613.25	15721.1
959.3399	2311.7669	16542.1	15649.55
959.4721	2313.2031	16475.65	15584.65
959.6043	2314.6387	16389.2	15495.45
959.7365	2316.0735	16311.1	15420.3
959.8686	2317.5076	16296.5	15405.45
960.0006	2318.941	16270.25	15378.35
960.1327	2320.3737	16203.45	15311.4
960.2647	2321.8056	16129.6	15235.9
960.3967	2323.2369	16068.55	15175.05
960.5287	2324.6674	16031.15	15134.45
960.6606	2326.0972	15978.95	15082.45
960.7925	2327.5263	15941.65	15050.85
960.9244	2328.9547	15830.6	14937.3
961.0562	2330.3823	15795.3	14903.05
961.1881	2331.8092	15823.35	14929.15
961.3198	2333.2355	15691	14799.7
961.4516	2334.661	15690.55	14798.1
961.5833	2336.0858	15644.35	14751.9
961.715	2337.5098	15610.25	14717.35
961.8467	2338.9332	15540.85	14646.6
961.9783	2340.3558	15489.6	14593.65
962.1099	2341.7778	15415.2	14523
962.2415	2343.199	15347.5	14453.05
962.373	2344.6195	15305.55	14413.15
962.5045	2346.0393	15274.35	14385.4
962.636	2347.4583	15251.95	14358.05
962.7675	2348.8767	15172.35	14278.5
962.8989	2350.2943	15138	14244.8
963.0303	2351.7113	15089.45	14194.9
963.1617	2353.1275	15039.4	14147.25
963.293	2354.543	15002.15	14102.55
963.4243	2355.9578	14953.2	14059.3
963.5556	2357.3718	14856.15	13964.2
963.6868	2358.7852	14775.3	13879.2
963.818	2360.1978	14709.3	13817.45
963.9492	2361.6098	14693.15	13801
964.0803	2363.021	14639.7	13744.35
964.2114	2364.4315	14568.1	13677.7
964.3425	2365.8413	14554.2	13662.8
964.4736	2367.2504	14494.9	13604
964.6046	2368.6587	14419.85	13528.9
964.7356	2370.0664	14351.15	13459.75
964.8666	2371.4733	14309.25	13416.2
964.9975	2372.8795	14268.95	13377.55
965.1284	2374.285	14199.65	13308.85
965.2593	2375.6899	14137.35	13247.35
965.3901	2377.0939	14086.05	13193.6
965.5209	2378.4973	14028.05	13137.9
965.6517	2379.9	13968.3	13078.75
965.7825	2381.3019	13924.75	13034.6
965.9132	2382.7032	13860.75	12968.05
966.0439	2384.1037	13839.3	12948.8
966.1745	2385.5035	13794.6	12903.9
966.3051	2386.9027	13754.65	12864.4
966.4357	2388.3011	13700.55	12804.25
966.5663	2389.6987	13677.7	12784.4
966.6968	2391.0957	13598.75	12708.45
966.8273	2392.492	13530.75	12641.3
966.9578	2393.8876	13450.85	12558.8
967.0882	2395.2824	13416.5	12525.35
967.2186	2396.6765	13344.7	12455.15
967.349	2398.07	13302.8	12411.65
967.4793	2399.4627	13276.95	12384.2
967.6097	2400.8547	13211.65	12320.4
967.7399	2402.246	13156.75	12259.75
967.8702	2403.6366	13097.25	12206.45
968.0004	2405.0265	13024.3	12134
968.1306	2406.4156	12967.55	12072.7
968.2607	2407.8041	12922.5	12027.75
968.3909	2409.1918	12884.5	11989.6
968.521	2410.5789	12802.35	11910.35
968.651	2411.9652	12756.75	11864.9
968.781	2413.3508	12707.9	11817.4
968.911	2414.7358	12668.05	11777.85
969.041	2416.12	12637.2	11746.35
969.1709	2417.5035	12612.1	11722.2
969.3008	2418.8863	12554.8	11661.05
969.4307	2420.2684	12510	11620
969.5606	2421.6497	12415.05	11523.05
969.6904	2423.0304	12380.15	11490.8
969.8201	2424.4104	12332.1	11441.95
969.9499	2425.7896	12316.1	11422.3
970.0796	2427.1682	12279.2	11385.9
970.2093	2428.546	12239.2	11347.25
970.3389	2429.9232	12214.95	11322.15
970.4685	2431.2996	12185.2	11294.05
970.5981	2432.6753	12131.4	11242.8
970.7277	2434.0503	12104.4	11214
970.8572	2435.4246	12021.45	11129.1
970.9867	2436.7982	11991.95	11098
971.1161	2438.1711	11956.3	11066.05
971.2456	2439.5433	11925.75	11034
971.375	2440.9148	11854.5	10962.6
971.5043	2442.2856	11785.5	10895.45
971.6336	2443.6557	11763.25	10871.35
971.7629	2445.025	11739.7	10845.8
971.8922	2446.3937	11711.5	10819.6
972.0214	2447.7617	11647.95	10754.35
972.1506	2449.1289	11661.55	10768.95
972.2798	2450.4955	11594.5	10700.95
972.4089	2451.8613	11558.9	10668.2
972.538	2453.2265	11517.25	10625.15
972.6671	2454.5909	11514.8	10622.45
972.7961	2455.9546	11455	10564.05
972.9251	2457.3177	11387.2	10495.85
973.0541	2458.68	11368.5	10475.9
973.1831	2460.0416	11357.4	10467.6
973.312	2461.4025	11351.05	10457.95
973.4408	2462.7627	11294.2	10392.1
973.5697	2464.1222	11251.75	10363.05
973.6985	2465.4811	11216.2	10325
973.8273	2466.8392	11196.5	10304.45
973.956	2468.1966	11151.75	10258
974.0847	2469.5533	11157.2	10262.9
974.2134	2470.9093	11082.8	10190.55
974.3421	2472.2645	11043.25	10150.75
974.4707	2473.6191	11021.65	10131.6
974.5993	2474.973	10997.55	10104.7
974.7278	2476.3262	10940.95	10046.5
974.8563	2477.6787	10912.5	10022.1
974.9848	2479.0305	10830.45	9938.55
975.1132	2480.3816	10801.85	9908
975.2417	2481.7319	10784.5	9891.75
975.37	2483.0816	10735.65	9842.1
975.4984	2484.4306	10693.8	9800.85
975.6267	2485.7789	10628	9738.9
975.755	2487.1264	10600.35	9706.4
975.8833	2488.4733	10535.75	9644.8
976.0115	2489.8195	10496.8	9585.05
976.1397	2491.165	10433.2	9538.25
976.2678	2492.5097	10451.25	9556.35
976.3959	2493.8538	10382	9489.75
976.524	2495.1972	10321.9	9430.9
976.6521	2496.5398	10303.6	9410.7
976.7801	2497.8818	10299.65	9405.85
976.9081	2499.2231	10236.1	9344.55
977.036	2500.5637	10222.15	9326.75
977.164	2501.9035	10172.4	9279.2
977.2918	2503.2427	10159.9	9263.7
977.4197	2504.5812	10085.2	9192.8
977.5475	2505.919	10071.85	9177.15
977.6753	2507.256	10051.5	9160.5
977.8031	2508.5924	10005.55	9114
977.9308	2509.9281	9974.85	9077.35
978.0585	2511.2631	9948.25	9055.75
978.1861	2512.5974	9915.9	9025.95
978.3137	2513.9309	9878.55	8985.55
978.4413	2515.2638	9847.45	8925.55
978.5689	2516.596	9814.35	8922.4
978.6964	2517.9275	9747.85	8857.6
978.8239	2519.2583	9744.15	8851.65
978.9513	2520.5884	9705.15	8810.6
979.0788	2521.9178	9640.7	8748.4
979.2062	2523.2465	9606.5	8715
979.3335	2524.5745	9562.55	8672
979.4608	2525.9018	9535.45	8646.05
979.5881	2527.2284	9494.1	8605.35
979.7154	2528.5543	9490.75	8601.4
979.8426	2529.8796	9469.85	8578.35
979.9698	2531.2041	9433.8	8542.75
980.0969	2532.5279	9387.5	8494.9
980.224	2533.851	9390.45	8497.75
980.3511	2535.1735	9348.5	8456.45
980.4781	2536.4952	9301	8410.6
980.6052	2537.8163	9286.75	8395.5
980.7321	2539.1366	9251.05	8360.6
980.8591	2540.4562	9230.75	8339.7
980.986	2541.7752	9227.65	8337.1
981.1129	2543.0935	9204.55	8313.35
981.2397	2544.411	9208.8	8314.5
981.3665	2545.7279	9151.1	8259.5
981.4933	2547.0441	9120.35	8227.5
981.62	2548.3596	9140.4	8246.8
981.7467	2549.6744	9094.75	8204.5
981.8734	2550.9885	9067.75	8173.65
982.0001	2552.3019	9013.95	8122
982.1267	2553.6146	9033.65	8141.85
982.2532	2554.9266	8994.65	8104.25
982.3798	2556.2379	8931.35	8038.85
982.5063	2557.5485	8939.85	8048.05
982.6327	2558.8585	8918.05	8018.8
982.7592	2560.1677	8881.65	7984.35
982.8856	2561.4762	8855.95	7963.55
983.0119	2562.7841	8844.2	7950.7
983.1383	2564.0913	8817.65	7927.85
983.2646	2565.3977	8809.85	7918.3
983.3908	2566.7035	8776.05	7884.95
983.517	2568.0086	8758.55	7865.55
983.6432	2569.313	8731.7	7839.15
983.7694	2570.6167	8717.8	7820.65
983.8955	2571.9197	8671	7778.7
984.0216	2573.222	8696.65	7801.75
984.1476	2574.5236	8653.3	7762.3
984.2737	2575.8246	8641.65	7747.9
984.3996	2577.1248	8641.2	7744.55
984.5256	2578.4244	8579.55	7691.05
984.6515	2579.7232	8568.6	7677.1
984.7774	2581.0214	8576.9	7659.2
984.9032	2582.3189	8537.15	7646.35
985.029	2583.6157	8515.5	7620.1
985.1548	2584.9118	8488.85	7597
985.2806	2586.2072	8471.7	7579.75
985.4063	2587.5019	8439.15	7546.3
985.5319	2588.7959	8418.9	7527
985.6576	2590.0893	8389	7496.7
985.7832	2591.3819	8382.05	7491.9
985.9087	2592.6739	8334.95	7444.7
986.0343	2593.9652	8311.7	7419.6
986.1597	2595.2557	8285	7393.25
986.2852	2596.5456	8264.55	7371.75
986.4106	2597.8348	8225.25	7334.35
986.536	2599.1234	8167.75	7277.55
986.6614	2600.4112	8166.9	7275
986.7867	2601.6983	8142.4	7248.65
986.912	2602.9848	8106.5	7212.85
987.0372	2604.2705	8098.65	7200.9
987.1624	2605.5556	8063.2	7170.4
987.2876	2606.84	8032.65	7138.85
987.4128	2608.1237	8002.4	7109.45
987.5379	2609.4067	7974.85	7082.9
987.6629	2610.689	7954.75	7054.35
987.788	2611.9707	7927.2	7032.45
987.913	2613.2516	7888.25	6990.85
988.0379	2614.5319	7838.65	6948.3
988.1629	2615.8115	7836.05	6945.6
988.2878	2617.0903	7800.1	6907.25
988.4126	2618.3685	7769.05	6875.65
988.5375	2619.6461	7716.7	6824.95
988.6622	2620.9229	7730.1	6840.2
988.787	2622.199	7707.45	6815.4
988.9117	2623.4745	7665.45	6773.55
989.0364	2624.7493	7645.2	6753.6
989.161	2626.0234	7603.15	6711.45
989.2857	2627.2968	7560.55	6668
989.4102	2628.5695	7555.5	6662
989.5348	2629.8415	7509.65	6616.45
989.6593	2631.1128	7484.55	6589.45
989.7837	2632.3835	7461.45	6568.9
989.9082	2633.6535	7415.85	6523.95
990.0326	2634.9228	7415.95	6524.5
990.1569	2636.1914	7379.4	6487.5
990.2812	2637.4593	7360.6	6465.55
990.4055	2638.7265	7334	6441.3
990.5298	2639.9931	7312.9	6419.65
990.654	2641.259	7291.95	6398.15
990.7782	2642.5242	7263.9	6371.4
990.9023	2643.7887	7256.6	6363.6
991.0264	2645.0525	7233.85	6341.95
991.1505	2646.3156	7208.2	6314.95
991.2745	2647.5781	7182.15	6291.9
991.3985	2648.8398	7144.1	6253.25
991.5225	2650.1009	7128.55	6227.6
991.6464	2651.3613	7101.7	6211.4
991.7703	2652.6211	7074.05	6182.55
991.8942	2653.8801	7051.8	6161.2
992.018	2655.1385	7038	6143.55
992.1418	2656.3961	7031.1	6138.25
992.2655	2657.6531	7017.7	6125.5
992.3892	2658.9094	6994.75	6104.75
992.5129	2660.1651	6975.4	6083.75
992.6366	2661.42	6958.9	6066.9
992.7602	2662.6743	6938.6	6044.9
992.8837	2663.9279	6940.3	6051.05
993.0073	2665.1808	6885.3	5992.7
993.1307	2666.433	6886	5994.7
993.2542	2667.6846	6854.2	5963.1
993.3776	2668.9354	6846.45	5953.7
993.501	2670.1856	6814.45	5922.7
993.6244	2671.4351	6802.35	5910.4
993.7477	2672.6839	6782.6	5888.9
993.8709	2673.9321	6770.65	5876.65
993.9942	2675.1795	6761.4	5868.2
994.1174	2676.4263	6724.3	5832.2
994.2405	2677.6724	6692.8	5801.3
994.3637	2678.9179	6696	5803.3
994.4868	2680.1626	6668	5776.3
994.6098	2681.4067	6644.1	5750.35
994.7328	2682.6501	6632.2	5740.45
994.8558	2683.8928	6611.5	5721.05
994.9788	2685.1348	6584	5693.2
995.1017	2686.3761	6565.55	5672.8
995.2245	2687.6168	6557.95	5666.9
995.3474	2688.8568	6509.5	5616.25
995.4702	2690.0961	6490.5	5601.25
995.5929	2691.3348	6468.95	5576.6
995.7156	2692.5727	6439.65	5547.05
995.8383	2693.81	6430.1	5538.15
995.961	2695.0466	6412	5521.25
996.0836	2696.2826	6410.85	5517.25
996.2062	2697.5178	6384.85	5489.7
996.3287	2698.7524	6370.3	5478.8
996.4512	2699.9863	6342.15	5448.55
996.5737	2701.2195	6317.75	5428.95
996.6961	2702.452	6292.6	5401.45
996.8185	2703.6839	6277.15	5385.25
996.9408	2704.9151	6276.15	5385
997.0631	2706.1456	6257.1	5364.45
997.1854	2707.3755	6223.85	5331.5
997.3077	2708.6046	6207.45	5314.45
997.4299	2709.8331	6208.4	5316.6
997.552	2711.0609	6175.7	5283.4
997.6742	2712.2881	6180.6	5289.85
997.7963	2713.5145	6138.9	5243.8
997.9183	2714.7403	6139.9	5250.3
998.0403	2715.9654	6146.75	5255.5
998.1623	2717.1899	6124.9	5218.55
998.2842	2718.4136	6107.2	5215.3
998.4062	2719.6367	6106.75	5216.35
998.528	2720.8591	6091.9	5192.2
998.6498	2722.0809	6090.2	5198.1
998.7716	2723.3019	6071.2	5177.45
998.8934	2724.5223	6055.85	5162.6
999.0151	2725.7421	6035.75	5142.7
999.1368	2726.9611	6006.1	5110.95
999.2584	2728.1795	5991	5094.9
999.38	2729.3972	5954.3	5063.25
999.5016	2730.6142	5930.95	5028.7
999.6231	2731.8306	5911.15	5017.7
999.7446	2733.0462	5884.65	4991.35
999.8661	2734.2612	5831.7	4936.2
999.9875	2735.4756	5803.05	4908.55
1000.1089	2736.6892	5764.05	4872.7
1000.2302	2737.9022	5719.2	4829.55
1000.3515	2739.1145	5696.15	4802.8
1000.4728	2740.3262	5684.35	4785.1
1000.594	2741.5372	5635.95	4745.6
1000.7152	2742.7475	5611.15	4718.75
1000.8363	2743.9571	5590.6	4695.45
1000.9575	2745.1661	5559	4661.35
1001.0785	2746.3744	5558.6	4665.75
1001.1996	2747.582	5524.1	4633.55
1001.3206	2748.7889	5491.45	4597.3
1001.4415	2749.9952	5475	4584.75
1001.5625	2751.2008	5455.55	4562.1
1001.6833	2752.4057	5449.6	4554.55
1001.8042	2753.61	5419.35	4526.05
1001.925	2754.8136	5396.75	4502.5
1002.0458	2756.0165	5368.45	4476.6
1002.1665	2757.2188	5369.6	4479.1
1002.2872	2758.4204	5348.3	4455.75
1002.4078	2759.6213	5332.6	4437.85
1002.5285	2760.8215	5327.25	4430.85
1002.649	2762.0211	5302.25	4409
1002.7696	2763.22	5276.45	4381.25
1002.8901	2764.4182	5242.4	4348.95
1003.0106	2765.6158	5258.85	4369.2
1003.131	2766.8127	5221.25	4328.1
1003.2514	2768.009	5209.15	4318.15
1003.3717	2769.2045	5189.5	4296.2
1003.492	2770.3994	5179.5	4285.95
1003.6123	2771.5936	5149.35	4255.75
1003.7325	2772.7872	5121.1	4231.4
1003.8527	2773.9801	5099.25	4207.25
1003.9729	2775.1723	5119.75	4210.85
1004.093	2776.3639	5079.5	4188.95
1004.2131	2777.5548	5061.55	4166.95
1004.3331	2778.745	5061.5	4170.55
1004.4531	2779.9346	5048.65	4158
1004.5731	2781.1235	5012.85	4119.85
1004.693	2782.3117	5009.6	4118.9
1004.8129	2783.4992	4995.2	4104.85
1004.9328	2784.6861	4972.2	4080.9
1005.0526	2785.8723	4979.6	4085.4
1005.1723	2787.0579	4966.55	4074.1
1005.2921	2788.2428	4965.75	4074.45
1005.4118	2789.427	4959.2	4067.65
1005.5314	2790.6106	4940.8	4049.55
1005.651	2791.7935	4934.15	4042
1005.7706	2792.9757	4925	4034.7
1005.8902	2794.1573	4932.6	4039.8
1006.0097	2795.3382	4925.85	4034.85
1006.1291	2796.5184	4904.6	4014.4
1006.2485	2797.698	4915.9	4023.65
1006.3679	2798.8769	4914.05	4021.85
1006.4873	2800.0551	4923.8	4031.2
1006.6066	2801.2327	4929	4033.2
1006.7258	2802.4096	4918.2	4027.4
1006.8451	2803.5859	4932.65	4038.8
1006.9642	2804.7615	4927.7	4035.7
1007.0834	2805.9364	4939	4048.45
1007.2025	2807.1106	4959.85	4070.6
1007.3216	2808.2842	4979.6	4087.25
1007.4406	2809.4572	4982	4090.55
1007.5596	2810.6294	5019.05	4127.6
1007.6785	2811.801	5040.3	4148.25
1007.7975	2812.972	5079.55	4189.85
1007.9163	2814.1423	5100.7	4208.9
1008.0352	2815.3119	5115.75	4222.7
1008.154	2816.4808	5170.45	4280.2
1008.2727	2817.6491	5212.95	4319.45
1008.3914	2818.8167	5230.95	4340.95
1008.5101	2819.9837	5283.75	4387.2
1008.6288	2821.15	5300.4	4407.85
1008.7474	2822.3157	5326.1	4435.25
1008.8659	2823.4807	5371.45	4479.85
1008.9844	2824.645	5418.85	4526.05
1009.1029	2825.8086	5450.65	4560.15
1009.2214	2826.9716	5476.85	4585.65
1009.3398	2828.134	5510.6	4619
1009.4581	2829.2957	5522.5	4629.9
1009.5764	2830.4567	5535.05	4645.7
1009.6947	2831.617	5559.85	4667.45
1009.813	2832.7767	5558.1	4666.05
1009.9312	2833.9358	5537.45	4647.1
1010.0493	2835.0941	5521.55	4629.2
1010.1675	2836.2519	5526.35	4635.85
1010.2855	2837.4089	5487.15	4595.1
1010.4036	2838.5653	5502.3	4610.3
1010.5216	2839.7211	5458.6	4569.1
1010.6396	2840.8761	5470.8	4578.05
1010.7575	2842.0306	5467.6	4577.95
1010.8754	2843.1843	5509.65	4618.4
1010.9932	2844.3374	5536.4	4644.75
1011.111	2845.4899	5589.05	4696.15
1011.2288	2846.6417	5674.45	4782.5
1011.3465	2847.7928	5719.3	4829.5
1011.4642	2848.9433	5795.95	4904.7
1011.5818	2850.0931	5860.1	4969.5
1011.6995	2851.2422	5933.3	5042
1011.817	2852.3907	5983	5089.25
1011.9345	2853.5385	6057.2	5164.1
1012.052	2854.6857	6114.75	5197.35
1012.1695	2855.8323	6132.65	5242.35
1012.2869	2856.9781	6164.05	5274.15
1012.4042	2858.1233	6208.2	5318.1
1012.5216	2859.2679	6233.55	5343.05
1012.6389	2860.4118	6257.65	5365.2
1012.7561	2861.555	6303.05	5406.3
1012.8733	2862.6976	6328.25	5434.5
1012.9905	2863.8395	6351.45	5461.4
1013.1076	2864.9808	6366.5	5476.45
1013.2247	2866.1214	6364.4	5475.75
1013.3417	2867.2614	6358.85	5467.6
1013.4587	2868.4007	6356.7	5464.1
1013.5757	2869.5393	6352.9	5459
1013.6926	2870.6773	6334.55	5439.7
1013.8095	2871.8146	6344.35	5449.9
1013.9263	2872.9513	6348.45	5455.25
1014.0431	2874.0874	6320.85	5430.25
1014.1599	2875.2227	6315.45	5423.65
1014.2766	2876.3574	6266.5	5376.35
1014.3933	2877.4915	6227.9	5338.2
1014.51	2878.6249	6203.25	5312.3
1014.6266	2879.7577	6164.9	5273.75
1014.7431	2880.8898	6154.55	5253.25
1014.8596	2882.0212	6105.45	5214.55
1014.9761	2883.152	6081.35	5189.55
1015.0925	2884.2821	6053.85	5164.1
1015.2089	2885.4116	6036.85	5146.35
1015.3253	2886.5405	6033.2	5141.35
1015.4416	2887.6686	6014.9	5119.5
1015.5579	2888.7962	6021.75	5132.35
1015.6741	2889.923	6021.35	5130.6
1015.7903	2891.0493	6018.05	5128.85
1015.9065	2892.1748	6009.7	5119
1016.0226	2893.2997	6004.7	5113.55
1016.1387	2894.424	6025.65	5136.35
1016.2547	2895.5476	6014.05	5125.05
1016.3707	2896.6706	6042.8	5155
1016.4866	2897.7929	6050.2	5157.35
1016.6025	2898.9145	6066	5174.3
1016.7184	2900.0355	6078.9	5186.8
1016.8342	2901.1559	6092.4	5199.8
1016.95	2902.2756	6111.9	5223.2
1017.0658	2903.3946	6164.85	5275.15
1017.1815	2904.513	6166.75	5275.65
1017.2971	2905.6308	6198.65	5308
1017.4127	2906.7479	6203.25	5311.65
1017.5283	2907.8643	6210.45	5317
1017.6439	2908.9801	6189.3	5297.75
1017.7594	2910.0953	6207.05	5317.3
1017.8748	2911.2098	6193.95	5298.4
1017.9902	2912.3236	6176.85	5277.45
1018.1056	2913.4368	6170.8	5275.05
1018.2209	2914.5494	6134.05	5241.9
1018.3362	2915.6613	6081.05	5185.25
1018.4515	2916.7725	6084.45	5189.7
1018.5667	2917.8831	6032	5138.65
1018.6819	2918.9931	5985.3	5091.35
1018.797	2920.1024	5927.7	5033.6
1018.9121	2921.211	5920.25	5029.35
1019.0271	2922.319	5886.7	4994.65
1019.1421	2923.4264	5860.25	4969.15
1019.2571	2924.5331	5823.3	4933.95
1019.372	2925.6391	5798.65	4908.65
1019.4869	2926.7445	5798.9	4909.4
1019.6017	2927.8493	5775.55	4885.3
1019.7165	2928.9534	5750.45	4860
1019.8313	2930.0569	5740.5	4844.7
1019.946	2931.1597	5745.5	4851.25
1020.0606	2932.2619	5698.05	4806.1
1020.1753	2933.3634	5691.55	4802.6
1020.2899	2934.4643	5698.3	4802.1
1020.4044	2935.5645	5674.2	4775.1
1020.5189	2936.6641	5603.9	4708.3
1020.6334	2937.763	5551.85	4661.4
1020.7478	2938.8613	5503.8	4611.35
1020.8622	2939.959	5440.65	4546.35
1020.9765	2941.056	5342.05	4453.05
1021.0908	2942.1523	5252	4361.1
1021.2051	2943.248	5172.45	4280.75
1021.3193	2944.3431	5052.5	4160.35
1021.4334	2945.4375	4941.65	4047.25
1021.5476	2946.5313	4818.15	3927.2
1021.6617	2947.6244	4724.45	3832.5
1021.7757	2948.7169	4613.2	3722.25
1021.8897	2949.8087	4505	3613.85
1022.0037	2950.8999	4406.8	3516.05
1022.1176	2951.9904	4324.8	3433.6
1022.2315	2953.0803	4224.4	3332.85
1022.3453	2954.1696	4164.25	3272.9
1022.4591	2955.2582	4116	3225.05
1022.5728	2956.3462	4045.8	3153.5
1022.6865	2957.4335	4008.9	3117.35
1022.8002	2958.5202	3942.75	3050.9
1022.9138	2959.6062	3924.45	3032.4
1023.0274	2960.6916	3876.5	2987.65
1023.141	2961.7764	3845.45	2955.2
1023.2545	2962.8605	3840.95	2951.2
1023.3679	2963.9439	3817	2926.7
1023.4813	2965.0267	3786.6	2895.6
1023.5947	2966.1089	3800.1	2887.65
1023.708	2967.1905	3758.7	2868.2
1023.8213	2968.2714	3742.5	2853.7
1023.9346	2969.3516	3727.4	2836.4
1024.0478	2970.4312	3725.45	2827.7
1024.1609	2971.5102	3718.3	2828
1024.274	2972.5885	3713.2	2822.75
1024.3871	2973.6662	3711.65	2816.55
1024.5002	2974.7432	3679.25	2789.5
1024.6132	2975.8196	3680.45	2788.3
1024.7261	2976.8954	3640.8	2750.85
1024.839	2977.9705	3625	2734.15
1024.9519	2979.045	3605.7	2714.9
1025.0647	2980.1188	3581.45	2689.95
1025.1775	2981.192	3563.7	2672.65
1025.2902	2982.2645	3540.4	2647.3
1025.4029	2983.3364	3508.9	2617.85
1025.5156	2984.4077	3472.05	2581.7
1025.6282	2985.4783	3427.05	2531.8
1025.7407	2986.5483	3393.1	2502.9
1025.8532	2987.6177	3362.5	2472.3
1025.9657	2988.6864	3329.15	2438.5
1026.0782	2989.7545	3281.9	2388.4
1026.1906	2990.8219	3235.9	2346.55
1026.3029	2991.8887	3193.25	2299.6
1026.4152	2992.9548	3166.75	2276.4
1026.5275	2994.0204	3130.8	2241.05
1026.6397	2995.0852	3092.75	2203.7
1026.7519	2996.1495	3070.75	2179.35
1026.864	2997.2131	3026.95	2135.15
1026.9761	2998.276	3000.2	2108.1
1027.0882	2999.3383	2981.65	2089.7
1027.2002	3000.4	2944.4	2053
1027.3122	3001.4611	2932.8	2042.35
1027.4241	3002.5215	2903.2	2013.05
1027.536	3003.5812	2890.9	2000.25
1027.6478	3004.6404	2874.7	1984.65
1027.7596	3005.6989	2868.9	1975.05
1027.8714	3006.7567	2855.95	1965.55
1027.9831	3007.8139	2851.7	1937.85
1028.0947	3008.8705	2821.85	1931.4
1028.2064	3009.9264	2805.6	1913.15
1028.3179	3010.9818	2802.45	1910.7
1028.4295	3012.0364	2786.95	1893.95
1028.541	3013.0905	2774.9	1883.8
1028.6524	3014.1439	2779.65	1887.6
1028.7638	3015.1966	2761.5	1872.2
1028.8752	3016.2487	2752.4	1862.3
1028.9865	3017.3002	2746.15	1851.75
1029.0978	3018.3511	2722.65	1832.75
1029.209	3019.4013	2743.45	1854.9
1029.3202	3020.4509	2746.65	1856.8
1029.4314	3021.4998	2726.65	1834.85
1029.5425	3022.5481	2720.05	1829.5
1029.6535	3023.5958	2711.6	1820.4
1029.7645	3024.6428	2715	1823.7
1029.8755	3025.6892	2710.7	1821.35
1029.9864	3026.735	2710.05	1818.3
1030.0973	3027.7802	2711.5	1819.85
1030.2082	3028.8247	2688.35	1797.1
1030.319	3029.8685	2676.85	1787
1030.4297	3030.9118	2679.85	1788.85
1030.5404	3031.9544	2691.45	1801.45
1030.6511	3032.9963	2690.4	1799.8
1030.7617	3034.0376	2684.05	1793.7
1030.8723	3035.0783	2688.2	1795.25
1030.9829	3036.1184	2684.85	1791.9
1031.0934	3037.1578	2667.3	1778.3
1031.2038	3038.1966	2668.85	1775.9
1031.3142	3039.2348	2656.05	1766.25
1031.4246	3040.2723	2674.45	1776
1031.5349	3041.3092	2659.25	1769.4
1031.6452	3042.3455	2647.95	1758.05
1031.7554	3043.3811	2641	1750.95
1031.8656	3044.4161	2636.15	1744.7
1031.9758	3045.4505	2615.75	1725
1032.0859	3046.4842	2610.75	1719.85
1032.1959	3047.5173	2599.7	1712.25
1032.3059	3048.5498	2587.25	1696.25
1032.4159	3049.5816	2576.4	1688
1032.5258	3050.6128	2563.1	1671.95
1032.6357	3051.6434	2550.1	1656.7
1032.7455	3052.6734	2539.8	1647.8
1032.8553	3053.7027	2526.3	1636.45
1032.9651	3054.7314	2510.15	1621.5
1033.0748	3055.7594	2516.55	1627.35
1033.1845	3056.7868	2493.65	1602.5
1033.2941	3057.8136	2484	1593
1033.4037	3058.8398	2476.15	1585.9
1033.5132	3059.8653	2469.95	1578.05
1033.6227	3060.8902	2444.55	1555.5
1033.7321	3061.9145	2443	1553.3
1033.8415	3062.9381	2435.45	1545.85
1033.9509	3063.9612	2431.85	1527.4
1034.0602	3064.9835	2411.25	1521.15
1034.1694	3066.0053	2400.6	1507.35
1034.2787	3067.0264	2387.1	1498.05
1034.3878	3068.0469	2384.2	1492.85
1034.497	3069.0668	2374.4	1479.9
1034.6061	3070.086	2358.95	1468.5
1034.7151	3071.1046	2343.05	1453.25
1034.8241	3072.1226	2323.95	1432.5
1034.9331	3073.1399	2310.2	1419.8
1035.042	3074.1567	2308.7	1418.65
1035.1508	3075.1727	2284.45	1392.3
1035.2597	3076.1882	2266.2	1376.1
1035.3684	3077.203	2266.35	1377.15
1035.4772	3078.2173	2249.25	1357.5
1035.5859	3079.2308	2233.7	1341
1035.6945	3080.2438	2223.3	1331.35
1035.8031	3081.2561	2223.65	1333.65
1035.9117	3082.2678	2212.4	1321.35
1036.0202	3083.2789	2192.95	1301.85
1036.1286	3084.2893	2176.85	1285.55
1036.2371	3085.2991	2164.9	1276.4
1036.3454	3086.3083	2154.05	1259.25
1036.4538	3087.3169	2142.7	1250.05
1036.562	3088.3248	2132.85	1240.7
1036.6703	3089.3321	2134.2	1242.2
1036.7785	3090.3388	2124.05	1236.3
1036.8866	3091.3449	2113.85	1224.05
1036.9948	3092.3503	2101.65	1210.45
1037.1028	3093.3551	2087	1197.2
1037.2108	3094.3593	2092.5	1202.05
1037.3188	3095.3629	2085.65	1195.65
1037.4267	3096.3658	2073.9	1182
1037.5346	3097.3681	2068.45	1179.95
1037.6425	3098.3698	2060.75	1170.65
1037.7503	3099.3708	2052.25	1158.95
1037.858	3100.3713	2036.6	1147.9
1037.9657	3101.3711	2032.5	1142.1
1038.0734	3102.3702	2152.35	1126.55
1038.181	3103.3688	2029.1	1136.2
1038.2886	3104.3667	2016.15	1126.8
1038.3961	3105.364	2005.2	1115.1
1038.5036	3106.3607	2000.3	1107
1038.611	3107.3568	1996.3	1103.4
1038.7184	3108.3522	1978.7	1089.35
1038.8257	3109.347	1981.7	1089.8
1038.933	3110.3412	1977.1	1083.85
1039.0403	3111.3348	1960.05	1070
1039.1475	3112.3277	1965.45	1076.15
1039.2547	3113.32	1946.8	1057
1039.3618	3114.3117	1945.8	1054.85
1039.4689	3115.3028	1942.2	1052.8
1039.5759	3116.2932	1935.65	1042.35
1039.6829	3117.2831	1930.15	1033.1
1039.7898	3118.2723	1922.7	1032.6
1039.8967	3119.2608	1920.65	1030.5
1040.0035	3120.2488	1911.6	1021.1
1040.1103	3121.2361	1906.1	1017.05
1040.2171	3122.2229	1906.4	1015.95
1040.3238	3123.209	1896.5	1005.95
1040.4305	3124.1944	1885.3	994.85
1040.5371	3125.1793	1879.05	988.25
1040.6437	3126.1635	1881.85	993.5
1040.7502	3127.1471	1868.25	977.8
1040.8567	3128.1301	1862.1	971.25
1040.9631	3129.1125	1861.4	970.6
1041.0695	3130.0942	1865.75	974.8
1041.1759	3131.0753	1847.1	949.8
1041.2822	3132.0558	1848.4	955.75
1041.3884	3133.0357	1842.15	951.7
1041.4946	3134.015	1835.15	945.35
1041.6008	3134.9936	1829.95	938
1041.7069	3135.9716	1848.45	937.3
1041.813	3136.949	1824.05	933.3
1041.919	3137.9258	1830.55	935.75
1042.025	3138.902	1814.45	917.3
1042.1309	3139.8775	1804.2	915.3
1042.2368	3140.8524	1799.55	908.9
1042.3427	3141.8267	1805.6	914.45
1042.4485	3142.8004	1791.95	900.15
1042.5542	3143.7735	1794.3	898.45
1042.6599	3144.7459	1794.25	902
1042.7656	3145.7178	1785.1	895.25
1042.8712	3146.689	1774.35	886.9
1042.9768	3147.6596	1778.1	888.25
1043.0823	3148.6295	1763	873.2
1043.1878	3149.5989	1762.15	871.3
1043.2932	3150.5676	1758.55	869.8
1043.3986	3151.5357	1758.85	870.7
1043.5039	3152.5032	1750.55	861.4
1043.6092	3153.4701	1741.9	853.05
1043.7145	3154.4364	1735.05	843.3
1043.8197	3155.402	1730.5	842.9
1043.9248	3156.367	1730.8	839.2
1044.03	3157.3315	1769.1	835.6
1044.135	3158.2952	1717.1	826.45
1044.24	3159.2584	1714.5	824.15
1044.345	3160.221	1713.55	823.2
1044.4499	3161.1829	1703.15	812.1
1044.5548	3162.1442	1698.45	808.05
1044.6596	3163.105	1700.5	811.9
1044.7644	3164.065	1694.55	803.2
1044.8692	3165.0245	1682.4	789.85
1044.9739	3165.9834	1674.65	784.4
1045.0785	3166.9416	1684.7	794.5
1045.1831	3167.8993	1678.8	790.75
1045.2877	3168.8563	1670.85	781.6
1045.3922	3169.8127	1655.8	766.35
1045.4966	3170.7684	1655.85	763.6
1045.6011	3171.7236	1658.25	766.8
1045.7054	3172.6782	1655.1	766.15
1045.8098	3173.6321	1650.2	761.3
1045.914	3174.5854	1643.65	749.8
1046.0183	3175.5381	1639	750.15
1046.1224	3176.4902	1633.65	745.15
1046.2266	3177.4417	1630.8	741.65
1046.3307	3178.3926	1621.8	732.4
1046.4347	3179.3428	1618.4	731.8
1046.5387	3180.2924	1620.25	730.4
1046.6427	3181.2415	1621.5	729.85
1046.7466	3182.1899	1608.7	718.8
1046.8504	3183.1377	1609.4	721.3
1046.9542	3184.0848	1607.35	714.4
1047.058	3185.0314	1592.85	702.55
1047.1617	3185.9773	1589.35	697.75
1047.2654	3186.9227	1589.35	701.05
1047.369	3187.8674	1599.25	708.85
1047.4726	3188.8115	1582.1	685.35
1047.5761	3189.755	1580.35	690.3
1047.6796	3190.6979	1578.85	688.2
1047.783	3191.6402	1579.35	692.25
1047.8864	3192.5818	1580.15	690.75
1047.9898	3193.5229	1590.6	688.15
1048.0931	3194.4633	1574.2	683.9
1048.1963	3195.4031	1559.15	668.1
1048.2995	3196.3423	1560.7	670.5
1048.4027	3197.2809	1551.3	662.6
1048.5058	3198.2189	1544	651.3
1048.6089	3199.1563	1547.75	651.65
1048.7119	3200.0931	1541.75	650.4
1048.8148	3201.0292	1538	649.65
1048.9178	3201.9648	1531.15	642.85
1049.0206	3202.8997	1528.45	634.8
1049.1235	3203.834	1525.4	634.5
1049.2262	3204.7677	1533.75	643.8
1049.329	3205.7008	1528.9	638.7
1049.4317	3206.6333	1515.85	626.65
1049.5343	3207.5652	1518.05	627.3
1049.6369	3208.4964	1509.2	616.7
1049.7394	3209.4271	1508.35	619.1
1049.8419	3210.3571	1502.65	610.7
1049.9444	3211.2865	1506.65	616.45
1050.0468	3212.2154	1503.7	611.65
1050.1491	3213.1436	1507.05	613.9
1050.2514	3214.0712	1501.45	605.25
1050.3537	3214.9982	1493.5	603.3
1050.4559	3215.9246	1492.9	602.75
1050.5581	3216.8503	1486.05	597.25
1050.6602	3217.7755	1492.3	602.85
1050.7623	3218.7001	1484.3	594.7
1050.8643	3219.624	1482.8	592.85
1050.9663	3220.5473	1473.6	582.95
1051.0682	3221.4701	1464.95	574.3
1051.1701	3222.3922	1472.1	580.5
1051.2719	3223.3137	1465.25	577.3
1051.3737	3224.2346	1462.4	571.35
1051.4754	3225.1549	1464.2	574.4
1051.5771	3226.0746	1454.95	565.55
1051.6788	3226.9937	1444.7	553.9
1051.7804	3227.9121	1449.55	559.2
1051.8819	3228.83	1444.65	555.9
1051.9834	3229.7473	1445.25	555.4
1052.0849	3230.6639	1440.6	550.25
1052.1863	3231.5799	1434.5	545.55
1052.2876	3232.4954	1438.05	546.8
1052.3889	3233.4102	1431.4	541.95
1052.4902	3234.3244	1432.05	542.7
1052.5914	3235.238	1423.6	533.15
1052.6926	3236.151	1446.95	534.4
1052.7937	3237.0634	1410.15	522.25
1052.8948	3237.9752	1416.75	526.65
1052.9958	3238.8864	1417.2	525.1
1053.0968	3239.797	1410.75	521.75
1053.1977	3240.7069	1404.75	514.5
1053.2986	3241.6163	1401.9	510
1053.3994	3242.5251	1399.8	509.45
1053.5002	3243.4332	1398.7	509.5
1053.6009	3244.3408	1392.75	502.45
1053.7016	3245.2477	1386.4	496.4
1053.8022	3246.154	1389.65	499.6
1053.9028	3247.0598	1390.95	499.3
1054.0034	3247.9649	1382.05	492.3
1054.1039	3248.8694	1378.35	488.25
1054.2043	3249.7733	1374.75	485.75
1054.3047	3250.6766	1368.9	478
1054.4051	3251.5793	1370.65	477.7
1054.5054	3252.4814	1361.5	471.6
1054.6056	3253.3829	1367.05	478.25
1054.7058	3254.2838	1367.45	477.4
1054.806	3255.1841	1361.3	472.35
1054.9061	3256.0838	1348.9	457.35
1055.0061	3256.9829	1353.1	462.9
1055.1062	3257.8814	1347.9	456.05
1055.2061	3258.7792	1335.1	443.55
1055.306	3259.6765	1333.85	443.95
1055.4059	3260.5731	1329.85	439.7
1055.5057	3261.4692	1328.5	437.55
1055.6055	3262.3647	1326.75	437.3
1055.7052	3263.2595	1315.55	425.75
1055.8049	3264.1538	1308.45	416.65
1055.9045	3265.0474	1303.95	414.7
1056.0041	3265.9404	1297.75	408.5
1056.1036	3266.8329	1292	403.3
1056.2031	3267.7247	1295.8	397.85
1056.3025	3268.616	1280	390
1056.4019	3269.5066	1264.4	375.55
1056.5013	3270.3966	1257.8	366.05
1056.6005	3271.286	1245.2	355.6
