Software Version:	3.9.2.0
Unit SN:	10000200
Spectrometer SN:	6960
Date:	3/6/2024 10:03:02 AM
Data Line Index:	25
Spectral Points:	2048
Integration time (ms):	125
Averages:	20
Delay (ms):	30
Sequence Number:	1
Processing:	dark subtract
Laser Power (mW):	305
Laser Current (mA):	826
Laser Diode Temp (C):	25.1
Laser Case Temp (C):	24.7
System Temp (C):	24.5
Spectrometer Temp (C):	22.1
CCD Temp (C):	0.002
Secondary Temp (C):	20.007
Heatsink Temp (C):	18.626
CCDPCB Temp (C):	31.761
SecondaryPCB Temp (C):	26.314

Wavelength	RamanShift	Raw Counts	Dark Subtracted
787.061	30.1047	677.3	268.45
787.2016	32.3739	689.95	282.6
787.3422	34.6426	707.2	298.55
787.4828	36.9109	725.15	316.8
787.6235	39.1787	751.5	339.15
787.7642	41.4461	771.45	353.5
787.9049	43.7131	795.6	374.5
788.0456	45.9796	818.05	395.8
788.1863	48.2456	843	413.95
788.3271	50.5112	873.95	440.85
788.4679	52.7764	902.75	467.55
788.6087	55.0411	935.5	498
788.7496	57.3054	965.4	522.1
788.8904	59.5692	1002.2	554.8
789.0313	61.8326	1042.3	595.35
789.1722	64.0955	1078.35	627.35
789.3132	66.3579	1141.5	686.6
789.4541	68.6199	1203.7	744.3
789.5951	70.8815	1318.15	852.95
789.7361	73.1426	1555.75	1087.5
789.8771	75.4032	2171.9	1698.75
790.0181	77.6634	3714.25	3237.2
790.1592	79.9231	7589	7108.75
790.3003	82.1824	18196.55	17707.1
790.4414	84.4412	35845.55	35339.1
790.5825	86.6995	47960.2	47432.95
790.7237	88.9574	53781.5	53238.65
790.8648	91.2148	57399.15	56843.95
791.006	93.4717	58610.85	58048.25
791.1472	95.7282	59200.75	58633.25
791.2885	97.9842	59488.55	58916.15
791.4297	100.2398	59538.9	58966.4
791.571	102.4949	59464.5	58891.25
791.7123	104.7495	59538.3	58955
791.8536	107.0036	59334.3	58755.9
791.9949	109.2573	59647	59067.75
792.1363	111.5105	59384.7	58803.75
792.2777	113.7632	59542.1	58955
792.4191	116.0154	59639.85	59043.1
792.5605	118.2672	59844.65	59253.3
792.7019	120.5185	59837.6	59248.05
792.8434	122.7693	59843.5	59247.15
792.9849	125.0197	59577.1	58976.4
793.1264	127.2696	60120.05	59517.9
793.2679	129.519	60061.95	59454.7
793.4094	131.7679	60304.2	59693.7
793.551	134.0163	59690.65	59080.1
793.6926	136.2642	59960.6	59345.1
793.8342	138.5117	60351.05	59732.3
793.9758	140.7587	60199.15	59580.25
794.1175	143.0052	60196.35	59575.9
794.2591	145.2512	59867.5	59246.6
794.4008	147.4967	60290.25	59665.7
794.5425	149.7417	60172	59546.7
794.6842	151.9863	60205	59571.85
794.826	154.2304	59941.15	59303.5
794.9677	156.4739	60139.8	59498.5
795.1095	158.717	60383.8	59744.85
795.2513	160.9596	60210.85	59566.4
795.3931	163.2017	59902.95	59253.85
795.535	165.4433	60238.25	59592.7
795.6768	167.6844	60027.3	59374.65
795.8187	169.925	60227.7	59573.15
795.9606	172.1651	60104.3	59448.85
796.1025	174.4047	60140.8	59480.15
796.2445	176.6439	60156.35	59492
796.3864	178.8825	60087.4	59421.9
796.5284	181.1206	60338.75	59667.65
796.6704	183.3582	60302.95	59628.5
796.8124	185.5954	60156.05	59483.55
796.9544	187.832	60229.2	59549.25
797.0965	190.0681	60014.1	59335.75
797.2386	192.3037	60378.35	59691.5
797.3806	194.5388	60778.8	60092
797.5228	196.7734	59916.65	59229.3
797.6649	199.0075	60693.25	60005.1
797.807	201.2411	60408.6	59716.85
797.9492	203.4742	60869.55	60175.3
798.0914	205.7068	60746.6	60046.5
798.2336	207.9389	60718	60016.75
798.3758	210.1704	60626.9	59937.05
798.518	212.4015	60991.15	60307.55
798.6603	214.632	60569	59890.85
798.8025	216.862	61011.95	60334.75
798.9448	219.0915	60819.3	60143.3
799.0871	221.3205	60784.75	60105.1
799.2294	223.549	61120.4	60442.85
799.3718	225.777	61099.05	60419.85
799.5141	228.0044	61252.85	60565.9
799.6565	230.2314	61109.5	60422.6
799.7989	232.4578	61094.4	60404.85
799.9413	234.6837	61153.1	60454.05
800.0837	236.909	61764.05	61061.6
800.2262	239.1339	60924.4	60202.8
800.3687	241.3582	61295.55	60587.25
800.5111	243.582	61302.5	60560.1
800.6536	245.8053	61306.45	60579.55
800.7961	248.0281	61351.7	60624.45
800.9387	250.2503	61467.55	60740.9
801.0812	252.472	61199.35	60472.15
801.2238	254.6932	61390.1	60660.7
801.3664	256.9139	61292.75	60562.3
801.509	259.134	61824.5	61092.85
801.6516	261.3536	61198.95	60467.8
801.7942	263.5727	61529.35	60794.5
801.9369	265.7912	61363	60628.3
802.0795	268.0092	61434.55	60702.15
802.2222	270.2267	61490.55	60756.95
802.3649	272.4436	61235.9	60499.1
802.5076	274.6601	61468.7	60721.5
802.6504	276.8759	61599.25	60857.6
802.7931	279.0913	61491.2	60749.45
802.9359	281.3061	61554.45	60811.4
803.0787	283.5204	61556.5	60806.9
803.2215	285.7341	61528.9	60775.6
803.3643	287.9473	61796.9	61038.9
803.5071	290.16	61587.45	60834.75
803.6499	292.3721	61727.45	60978.5
803.7928	294.5837	61495.4	60749.1
803.9357	296.7947	61318.25	60568.65
804.0786	299.0052	61752.6	61000.85
804.2215	301.2152	61540.6	60784.35
804.3644	303.4246	61746.2	60995.3
804.5074	305.6334	61767.8	61017.25
804.6503	307.8418	61432.05	60674.25
804.7933	310.0495	61474.2	60716
804.9363	312.2568	61465.05	60709.1
805.0793	314.4635	61444.95	60689.05
805.2223	316.6696	61554.45	60794.45
805.3653	318.8752	61734.6	60964.25
805.5084	321.0802	61168.55	60406.15
805.6514	323.2847	61429.6	60662.7
805.7945	325.4887	61416.4	60649.6
805.9376	327.692	61290.5	60525
806.0807	329.8949	61426	60657.45
806.2238	332.0972	61316.2	60543.55
806.367	334.2989	61414.55	60641
806.5101	336.5001	61596.3	60820.6
806.6533	338.7007	61175.45	60400.5
806.7965	340.9008	61421.45	60645.1
806.9397	343.1003	61467.95	60690.2
807.0829	345.2992	61620.8	60845.15
807.2261	347.4976	61366.1	60585.35
807.3693	349.6955	61465.3	60682
807.5126	351.8927	61313.95	60525.75
807.6559	354.0895	61495.1	60699.5
807.7991	356.2856	61471.25	60682.15
807.9424	358.4812	61647.65	60864.05
808.0857	360.6763	61318.65	60531.15
808.2291	362.8707	61604.4	60810.45
808.3724	365.0646	61412.7	60618.15
808.5158	367.258	61439.4	60644.85
808.6591	369.4508	61218.65	60417.75
808.8025	371.643	61543.6	60743.8
808.9459	373.8346	61373.05	60572.7
809.0893	376.0257	61412.7	60609.55
809.2327	378.2162	61322.05	60519.4
809.3762	380.4062	61111.3	60306.3
809.5196	382.5956	61304.4	60504
809.6631	384.7844	61288.1	60494.6
809.8066	386.9726	61361.4	60568.35
809.9501	389.1603	61367.8	60576.85
810.0936	391.3474	61151.1	60323.3
810.2371	393.5339	61399.15	60604.2
810.3806	395.7199	61032.2	60237.45
810.5241	397.9052	61092.05	60300.25
810.6677	400.09	61172.4	60376.65
810.8113	402.2743	61340.8	60544.9
810.9548	404.4579	61104.05	60308.15
811.0984	406.641	61083.15	60281
811.2421	408.8235	61232.3	60434.8
811.3857	411.0054	61272.75	60469.95
811.5293	413.1868	61271.6	60466.15
811.673	415.3675	61196.45	60382.8
811.8166	417.5477	61204.2	60389.9
811.9603	419.7273	61192.35	60376.75
812.104	421.9064	61130.95	60308.45
812.2477	424.0848	61147.65	60334.85
812.3914	426.2627	61350.7	60535.5
812.5351	428.4399	61035.85	60222.8
812.6788	430.6166	60837.25	60021.95
812.8226	432.7928	61111.35	60291.15
812.9663	434.9683	60865.9	60041.7
813.1101	437.1432	60863.1	60041.9
813.2539	439.3176	61035.5	60215.05
813.3977	441.4914	60675.35	59859.7
813.5415	443.6645	60766.5	59947.15
813.6853	445.8371	60769.95	59949.7
813.8291	448.0091	60585.5	59766.05
813.973	450.1806	60500.75	59679.25
814.1168	452.3514	60526.4	59702.75
814.2607	454.5216	60353.85	59527.25
814.4046	456.6913	60491.95	59664.3
814.5485	458.8603	60563.45	59738.8
814.6924	461.0288	60277.65	59455.5
814.8363	463.1967	60546.05	59725.05
814.9802	465.3639	60521.25	59695.5
815.1241	467.5306	60108.4	59280.65
815.2681	469.6967	60302.45	59478.8
815.412	471.8622	60399.5	59579.4
815.556	474.0271	60234	59411.75
815.7	476.1914	60320.55	59491
815.844	478.3551	60312.2	59482.65
815.988	480.5182	60550.9	59724
816.132	482.6807	60217.2	59390.95
816.276	484.8426	60259.2	59438.15
816.4201	487.0039	60523.85	59696.3
816.5641	489.1647	60491.2	59661.15
816.7082	491.3248	60193.75	59361.55
816.8522	493.4843	60579	59751.3
816.9963	495.6432	60563.4	59735.8
817.1404	497.8015	60152.15	59318.75
817.2845	499.9592	60396.45	59559.75
817.4286	502.1163	60379.9	59544.45
817.5727	504.2728	60334.65	59496.75
817.7168	506.4287	60355.4	59524.3
817.861	508.5839	60170.5	59337.65
818.0051	510.7386	60306.75	59477.7
818.1493	512.8927	60370.8	59530.55
818.2935	515.0461	60252.85	59414.65
818.4377	517.199	60399.75	59560.1
818.5818	519.3512	60262.45	59423.2
818.726	521.5029	60194.85	59350.1
818.8703	523.6539	60258.2	59418.05
819.0145	525.8043	59988.4	59145.5
819.1587	527.9541	60210.9	59365.35
819.303	530.1033	60173.8	59331.25
819.4472	532.2519	60052.35	59210.7
819.5915	534.3999	60231.65	59387.75
819.7357	536.5472	60347.55	59503.35
819.88	538.694	59980.15	59139.65
820.0243	540.8401	60176.45	59335.8
820.1686	542.9856	60190.75	59340.6
820.3129	545.1305	60271.35	59418.9
820.4572	547.2748	60089.55	59237.95
820.6016	549.4185	60077.65	59226.25
820.7459	551.5615	60272.95	59418.7
820.8902	553.704	60174.1	59324.2
821.0346	555.8458	59988.45	59137.55
821.1789	557.987	60045.95	59196.25
821.3233	560.1276	60139.35	59288.75
821.4677	562.2675	60031.3	59181.9
821.6121	564.4069	60044.1	59192.75
821.7565	566.5456	60174.35	59325.3
821.9009	568.6837	59955.95	59103.6
822.0453	570.8212	60021.9	59170.95
822.1897	572.958	59720	58866.2
822.3342	575.0942	59971.3	59121.1
822.4786	577.2299	59740.25	58885.25
822.6231	579.3648	59686.8	58843.8
822.7675	581.4992	59583.25	58738.2
822.912	583.6329	59534.65	58691.65
823.0565	585.766	59538.35	58693.05
823.201	587.8985	59603.55	58756.05
823.3454	590.0304	59322.45	58446.15
823.4899	592.1616	59515.7	58658.7
823.6345	594.2922	59387.7	58528.2
823.779	596.4222	59311.55	58452.3
823.9235	598.5515	59307	58446.5
824.068	600.6802	59315	58455.05
824.2126	602.8083	59136.3	58278.15
824.3571	604.9358	59101.55	58241.6
824.5017	607.0626	59224.55	58364.35
824.6462	609.1888	58989.5	58126.95
824.7908	611.3144	59103.8	58241.1
824.9354	613.4393	59002.35	58140.65
825.08	615.5636	58923.75	58061.5
825.2246	617.6873	58990.95	58131.25
825.3692	619.8103	58883.1	58017.55
825.5138	621.9327	58981.8	58118.95
825.6584	624.0544	59030.8	58170.6
825.803	626.1756	58877.95	58017.75
825.9477	628.2961	58890.4	58026.3
826.0923	630.4159	58742.05	57876.65
826.237	632.5351	58746.75	57882.45
826.3816	634.6537	58993.2	58130.05
826.5263	636.7716	58711.8	57845.65
826.6709	638.8889	58765.85	57897.45
826.8156	641.0056	58761.7	57894.85
826.9603	643.1216	58785.7	57917.55
827.105	645.237	58857	57985.8
827.2497	647.3518	58665.75	57801.75
827.3944	649.4659	58699.8	57836.75
827.5391	651.5793	58681.5	57816
827.6838	653.6922	58683.15	57817.5
827.8285	655.8043	58526.85	57661.75
827.9733	657.9159	58798.75	57932
828.118	660.0268	58331.4	57463.45
828.2627	662.137	58493.6	57624.15
828.4075	664.2466	58581.5	57708.8
828.5522	666.3556	58491.55	57620.45
828.697	668.4639	58447.1	57575.1
828.8418	670.5716	58406.4	57536.85
828.9865	672.6786	58476.75	57606.25
829.1313	674.785	58309.75	57433.8
829.2761	676.8907	58299.9	57430.5
829.4209	678.9958	58308.8	57439.9
829.5657	681.1002	58317.95	57444.9
829.7105	683.204	58179.65	57300.8
829.8553	685.3072	58143.9	57265.75
830.0001	687.4097	58173.4	57300.2
830.1449	689.5115	58161.75	57284.2
830.2898	691.6127	58194.95	57322.75
830.4346	693.7132	58057.7	57184.65
830.5794	695.8131	58105.85	57214.55
830.7243	697.9123	58089.6	57214.3
830.8691	700.0109	58077.6	57201.2
831.014	702.1089	57943.05	57067.05
831.1588	704.2061	57985	57108.95
831.3037	706.3028	57944.45	57069.3
831.4486	708.3987	57946.4	57068.6
831.5935	710.4941	57895.25	57020.25
831.7383	712.5887	57936.7	57057.7
831.8832	714.6827	57893.2	57013.55
832.0281	716.7761	57933.2	57058.1
832.173	718.8688	57932.4	57050.8
832.3179	720.9608	57820.4	56934.5
832.4628	723.0522	57855.8	56971.25
832.6077	725.1429	57718.05	56838.85
832.7527	727.233	57930.7	57048.8
832.8976	729.3224	57650.45	56771.95
833.0425	731.4112	57666.3	56785.95
833.1874	733.4993	57625.75	56742.9
833.3324	735.5867	57583.95	56702.65
833.4773	737.6735	57559.55	56676.3
833.6222	739.7596	57477.3	56595.9
833.7672	741.845	57430.7	56547.8
833.9122	743.9298	57458	56571.95
834.0571	746.014	57373.2	56493.5
834.2021	748.0974	57299.9	56414.6
834.347	750.1802	57339	56454.8
834.492	752.2624	57158.55	56276.5
834.637	754.3439	57167.1	56280.9
834.782	756.4247	57128.7	56233.95
834.9269	758.5048	57007.85	56125.9
835.0719	760.5843	57000.7	56116.6
835.2169	762.6631	57015.7	56128.5
835.3619	764.7413	56931.8	56045.55
835.5069	766.8188	56983.05	56097.55
835.6519	768.8956	56928.75	56039.45
835.7969	770.9718	56962.65	56079.5
835.9419	773.0473	56825.3	55940.1
836.0869	775.1221	56791.8	55905.6
836.232	777.1962	56681.9	55794.4
836.377	779.2697	56615.45	55727.9
836.522	781.3426	56618.4	55714.25
836.667	783.4147	56556.1	55669.35
836.8121	785.4862	56543.85	55656.5
836.9571	787.557	56464.75	55577.25
837.1021	789.6271	56457.1	55569.5
837.2472	791.6966	56389.2	55504.65
837.3922	793.7654	56291.4	55403.25
837.5373	795.8335	56302.75	55414.4
837.6823	797.901	56244.05	55356.15
837.8274	799.9678	56187.15	55295.85
837.9724	802.0339	56158.35	55270.15
838.1175	804.0993	56121.15	55220.35
838.2626	806.1641	56036.05	55145.95
838.4076	808.2282	56000.4	55111.15
838.5527	810.2916	55998.2	55104.6
838.6978	812.3544	55973.85	55086.6
838.8428	814.4164	55913.1	55023.75
838.9879	816.4778	55941.65	55048.6
839.133	818.5385	55863.6	54971.9
839.2781	820.5986	55844.55	54953.85
839.4232	822.658	55803.15	54909.5
839.5682	824.7166	55758.65	54866.85
839.7133	826.7747	55781.15	54889.2
839.8584	828.832	55741.85	54851.65
840.0035	830.8886	55656.6	54762.35
840.1486	832.9446	55657	54763
840.2937	834.9999	55593.05	54703
840.4388	837.0545	55587.15	54690.5
840.5839	839.1085	55556	54663.5
840.729	841.1618	55518.05	54620.4
840.8741	843.2143	55440.5	54546.3
841.0192	845.2662	55383.55	54489.6
841.1643	847.3175	55405.85	54512.05
841.3095	849.368	55301.15	54407.65
841.4546	851.4179	55276.05	54384.3
841.5997	853.467	55163.05	54269.15
841.7448	855.5155	55148.8	54258.05
841.8899	857.5633	55119.5	54224.95
842.0351	859.6105	55024	54130.1
842.1802	861.6569	55037.95	54141.15
842.3253	863.7027	55035.25	54138.25
842.4704	865.7478	54959.1	54062.9
842.6156	867.7922	54958.1	54062.9
842.7607	869.8359	54896	54002.55
842.9058	871.8789	54883.1	53985.8
843.0509	873.9212	54867.85	53939.8
843.1961	875.9629	54818.25	53924.9
843.3412	878.0039	54816.8	53918.6
843.4863	880.0441	54776.05	53885.05
843.6315	882.0837	54751.3	53856.3
843.7766	884.1226	54738.95	53842.2
843.9218	886.1609	54672	53777.35
844.0669	888.1984	54685.65	53789.8
844.212	890.2352	54731.7	53836.95
844.3572	892.2714	54631.25	53729.4
844.5023	894.3069	54616.8	53718.7
844.6475	896.3416	54510.55	53613.4
844.7926	898.3757	54515.05	53616.5
844.9377	900.4091	54506.55	53610.45
845.0829	902.4418	54445.6	53541.55
845.228	904.4739	54374	53476.75
845.3732	906.5052	54363.25	53463.7
845.5183	908.5358	54294.55	53397.05
845.6635	910.5658	54292.35	53392.65
845.8086	912.595	54226.1	53328.1
845.9538	914.6236	54149.85	53251.95
846.0989	916.6515	54136.85	53237.4
846.2441	918.6786	54112.65	53213.7
846.3892	920.7051	54090.85	53190.25
846.5344	922.7309	54101.8	53201.25
846.6795	924.756	54004.2	53106.5
846.8246	926.7804	53959.85	53060
846.9698	928.8041	53805.7	52903.75
847.1149	930.8272	53844.4	52947.75
847.2601	932.8495	53732.45	52834.1
847.4052	934.8711	53737.8	52834.9
847.5504	936.892	53661.5	52763.1
847.6955	938.9123	53606.5	52704.95
847.8407	940.9318	53539.45	52640.65
847.9858	942.9506	53469.45	52570.45
848.131	944.9688	53411.1	52512.05
848.2761	946.9862	53364.75	52467.15
848.4213	949.003	53291.8	52390.75
848.5664	951.019	53212.35	52313.9
848.7115	953.0344	53161.6	52259.3
848.8567	955.0491	53128.2	52225.35
849.0018	957.063	53163	52260.45
849.147	959.0763	53187.15	52288
849.2921	961.0888	53063.25	52161.7
849.4373	963.1007	53096.3	52198.15
849.5824	965.1119	53052.05	52153.35
849.7275	967.1223	52995.8	52101.3
849.8727	969.1321	52992.8	52094.5
850.0178	971.1412	52904.1	52008.6
850.1629	973.1495	52834.3	51937.25
850.3081	975.1572	52841.95	51905.5
850.4532	977.1641	52803.6	51902.9
850.5983	979.1704	52722.6	51823.1
850.7435	981.1759	52668.15	51761.85
850.8886	983.1808	52620.4	51717.3
851.0337	985.1849	52605.65	51694.65
851.1788	987.1884	52573.6	51671.3
851.324	989.1911	52540.2	51638.2
851.4691	991.1932	52457.45	51556
851.6142	993.1945	52413.25	51516.1
851.7593	995.1951	52341.85	51438.7
851.9045	997.1951	52278.6	51370.15
852.0496	999.1943	52201.15	51300.25
852.1947	1001.1928	52126.9	51223.9
852.3398	1003.1906	52000.55	51100.05
852.4849	1005.1877	51980.9	51079.55
852.63	1007.1841	51893.95	50994.15
852.7751	1009.1798	51834.2	50932.35
852.9202	1011.1748	51787.65	50885.55
853.0653	1013.1691	51720.3	50818.7
853.2104	1015.1627	51538.65	50635.6
853.3555	1017.1556	51489.2	50587
853.5006	1019.1477	51462.2	50561.45
853.6457	1021.1392	51334.95	50436.7
853.7908	1023.1299	51254.85	50358.4
853.9359	1025.12	51196.7	50299.6
854.081	1027.1093	51082.35	50190.95
854.2261	1029.0979	51046.45	50157.3
854.3712	1031.0859	50978.65	50084.5
854.5163	1033.0731	50906.3	50009.5
854.6613	1035.0596	50889.5	49992.8
854.8064	1037.0454	50773.6	49872.7
854.9515	1039.0304	50743.6	49841.8
855.0965	1041.0148	50571.8	49670.65
855.2416	1042.9985	50550.4	49647.8
855.3867	1044.9814	50611.3	49711.7
855.5317	1046.9636	50442.2	49542
855.6768	1048.9452	50394.8	49493.15
855.8219	1050.926	50342.15	49439.3
855.9669	1052.9061	50324.1	49424.1
856.112	1054.8855	50246.45	49343.95
856.257	1056.8642	50202.6	49303.1
856.4021	1058.8421	50140.6	49235.2
856.5471	1060.8194	50083.3	49180.15
856.6921	1062.7959	49975.05	49075.4
856.8372	1064.7717	50059.45	49156.15
856.9822	1066.7469	50027.55	49125.3
857.1272	1068.7213	50007.45	49104.15
857.2723	1070.695	49944.4	49040.55
857.4173	1072.6679	49813.05	48911.7
857.5623	1074.6402	49838.45	48935.5
857.7073	1076.6117	49736.2	48829
857.8523	1078.5826	49726.4	48822.6
857.9973	1080.5527	49663.75	48757.95
858.1423	1082.5221	49585.25	48685.7
858.2873	1084.4908	49588.75	48688.05
858.4323	1086.4587	49502.05	48598.1
858.5773	1088.426	49482.15	48578.6
858.7223	1090.3925	49435.45	48527.75
858.8673	1092.3584	49402	48500.7
859.0123	1094.3235	49269.6	48367.05
859.1573	1096.2879	49224.4	48320.9
859.3022	1098.2515	49256.8	48355.3
859.4472	1100.2145	49181.85	48281.65
859.5922	1102.1767	49123	48218.85
859.7371	1104.1382	49149.55	48248.85
859.8821	1106.099	49077.35	48172.85
860.027	1108.0591	49046.1	48146.25
860.172	1110.0185	48896.65	47991.25
860.3169	1111.9771	48995.75	48093.8
860.4619	1113.9351	48902.95	48001.05
860.6068	1115.8923	48832.95	47928.45
860.7517	1117.8488	48683.45	47777.85
860.8967	1119.8045	48574.55	47671.9
861.0416	1121.7596	48579.6	47674.25
861.1865	1123.7139	48479.75	47578.25
861.3314	1125.6675	48473.35	47570.95
861.4763	1127.6204	48444.75	47543.7
861.6212	1129.5726	48322.05	47418.65
861.7661	1131.524	48354.85	47454.85
861.911	1133.4748	48359.5	47455.25
862.0559	1135.4248	48208	47303.15
862.2008	1137.3741	48190.85	47289.1
862.3457	1139.3226	48142.45	47242.15
862.4905	1141.2705	48136.7	47233.15
862.6354	1143.2176	48025.1	47116.55
862.7803	1145.164	47916.65	47010.8
862.9251	1147.1097	47974.85	47071.8
863.07	1149.0546	47936.85	47033.7
863.2148	1150.9989	47923.85	47020.95
863.3597	1152.9424	47756.75	46853.45
863.5045	1154.8852	47837.75	46931.55
863.6493	1156.8272	47716.85	46815.25
863.7942	1158.7686	47821.4	46911.35
863.939	1160.7092	47601.7	46698.8
864.0838	1162.6491	47562.85	46658.7
864.2286	1164.5883	47610.75	46709.2
864.3734	1166.5267	47503.65	46600.85
864.5182	1168.4644	47581.3	46679
864.663	1170.4014	47537.75	46628.9
864.8078	1172.3377	47597.8	46695.35
864.9526	1174.2732	47597.25	46693.65
865.0974	1176.2081	47543.15	46640.75
865.2421	1178.1421	47509.05	46603.95
865.3869	1180.0755	47579.5	46679.45
865.5317	1182.0082	47477.85	46575.35
865.6764	1183.9401	47529.05	46625
865.8212	1185.8713	47338.8	46437.65
865.9659	1187.8017	47310.1	46412.95
866.1106	1189.7315	47215.15	46319.85
866.2554	1191.6605	47108.6	46187.65
866.4001	1193.5888	47002.15	46104.65
866.5448	1195.5163	46821	45921.85
866.6895	1197.4432	46790.35	45889.55
866.8342	1199.3693	46738.1	45836.15
866.9789	1201.2947	46615.45	45706.5
867.1236	1203.2193	46670.05	45767.55
867.2683	1205.1432	46422.75	45519.45
867.413	1207.0664	46391.35	45492.5
867.5576	1208.9889	46364.7	45462.05
867.7023	1210.9106	46317.55	45419.3
867.847	1212.8316	46174.4	45274.55
867.9916	1214.7519	46128.25	45216.95
868.1363	1216.6715	46075.25	45175.35
868.2809	1218.5903	46039.55	45139.6
868.4255	1220.5084	45982.8	45082.85
868.5701	1222.4257	45968.05	45063.9
868.7148	1224.3424	45881.45	44979.8
868.8594	1226.2583	45741.55	44835.05
869.004	1228.1735	45787.35	44884.75
869.1486	1230.0879	45643.7	44741.7
869.2932	1232.0016	45704.55	44804.1
869.4377	1233.9146	45548.05	44645.2
869.5823	1235.8269	45533.7	44632.15
869.7269	1237.7384	45510.15	44608.2
869.8715	1239.6492	45389.35	44489
870.016	1241.5592	45285.55	44383.3
870.1606	1243.4686	45335.8	44434.95
870.3051	1245.3772	45141.15	44241.7
870.4496	1247.285	45279.25	44377.3
870.5941	1249.1922	45054.1	44154.75
870.7387	1251.0986	45176.55	44275.5
870.8832	1253.0042	45006.95	44106.45
871.0277	1254.9092	45068.25	44166.55
871.1722	1256.8134	44803.45	43903.55
871.3167	1258.7169	44994.8	44095
871.4611	1260.6196	44813.15	43912.15
871.6056	1262.5216	44842.15	43937.5
871.7501	1264.4229	44830.7	43930.5
871.8945	1266.3234	44918.65	44017.9
872.039	1268.2232	44863.3	43960.55
872.1834	1270.1223	44749.3	43845.35
872.3278	1272.0207	44711.5	43810.65
872.4723	1273.9183	44686.6	43777.55
872.6167	1275.8151	44593.45	43690.35
872.7611	1277.7113	44560.65	43661.7
872.9055	1279.6067	44481.5	43581.9
873.0499	1281.5014	44422.95	43521.05
873.1943	1283.3953	44547.25	43644.3
873.3386	1285.2885	44472.1	43573.8
873.483	1287.181	44515.1	43614.3
873.6274	1289.0727	44596.35	43697.35
873.7717	1290.9637	44346.85	43447.6
873.9161	1292.854	44578.2	43677.95
874.0604	1294.7435	44455.8	43554.85
874.2047	1296.6323	44431.15	43531.35
874.349	1298.5204	44364.05	43461.55
874.4933	1300.4077	44427.9	43523.85
874.6376	1302.2943	44255.8	43354.8
874.7819	1304.1802	44166.3	43265.85
874.9262	1306.0653	44037.25	43137.45
875.0705	1307.9497	43972.5	43071.65
875.2147	1309.8333	43917.9	43018.85
875.359	1311.7162	43812.65	42912.3
875.5032	1313.5984	43835.45	42930.7
875.6475	1315.4798	43703.15	42799.55
875.7917	1317.3605	43657.3	42740.4
875.9359	1319.2405	43643.65	42738.25
876.0801	1321.1197	43448.65	42547.2
876.2243	1322.9982	43437.85	42529.8
876.3685	1324.876	43397.6	42497.95
876.5127	1326.753	43211.85	42311.25
876.6569	1328.6293	43344.1	42441.9
876.801	1330.5048	43246.4	42343.25
876.9452	1332.3796	43111.35	42212
877.0893	1334.2537	43039.45	42111.8
877.2335	1336.127	43086.1	42183.3
877.3776	1337.9996	42953.95	42053.85
877.5217	1339.8714	43008.9	42107.75
877.6658	1341.7426	42811	41868.1
877.8099	1343.6129	42855.45	41953.4
877.954	1345.4826	42814.7	41912.65
878.0981	1347.3515	42654.05	41749.3
878.2422	1349.2196	42757.7	41853.65
878.3862	1351.087	42718.4	41816.05
878.5303	1352.9537	42711.6	41806.75
878.6743	1354.8197	42689.6	41788.65
878.8184	1356.6849	42714.85	41814.7
878.9624	1358.5493	42635.4	41734.7
879.1064	1360.4131	42554.5	41655.95
879.2504	1362.276	42611.65	41710.55
879.3944	1364.1383	42436.4	41534.85
879.5384	1365.9998	42277.65	41369.3
879.6823	1367.8606	42305.25	41401.05
879.8263	1369.7206	42144.4	41241.7
879.9702	1371.5799	42046.3	41142.3
880.1142	1373.4384	41878.1	40974.9
880.2581	1375.2962	41906	41004.8
880.402	1377.1533	41599.45	40697.1
880.5459	1379.0096	41437.3	40534.55
880.6898	1380.8652	41354.75	40456.75
880.8337	1382.7201	41242.9	40343.9
880.9776	1384.5742	41154.7	40254.8
881.1215	1386.4275	40964.55	40062.45
881.2653	1388.2802	40929.4	40026.35
881.4092	1390.132	40870.95	39970.55
881.553	1391.9832	40716.65	39811.6
881.6968	1393.8336	40554.5	39652.9
881.8406	1395.6832	40505.75	39603.1
881.9844	1397.5322	40495	39591
882.1282	1399.3803	40356.85	39450.4
882.272	1401.2278	40244.6	39344.05
882.4158	1403.0745	40193.75	39295.45
882.5595	1404.9204	40085.1	39186.2
882.7033	1406.7656	40048.3	39146.4
882.847	1408.6101	39894.45	38993.35
882.9908	1410.4538	39831.5	38930.1
883.1345	1412.2968	39837.95	38937.45
883.2782	1414.139	39648.85	38746.75
883.4219	1415.9805	39687.9	38784.1
883.5656	1417.8213	39539.35	38629.95
883.7092	1419.6613	39544.55	38643.85
883.8529	1421.5006	39459.05	38557.7
883.9965	1423.3391	39435.25	38533.85
884.1402	1425.1769	39405.6	38504.2
884.2838	1427.0139	39548.4	38648.85
884.4274	1428.8502	39514.1	38610.5
884.571	1430.6858	39550.1	38646.85
884.7146	1432.5206	39705.4	38806.4
884.8582	1434.3547	39573	38673.1
885.0018	1436.188	39473	38575.4
885.1453	1438.0206	39515.3	38614.35
885.2889	1439.8524	39426.95	38526.6
885.4324	1441.6835	39334.65	38432.65
885.5759	1443.5139	39285.55	38381.15
885.7194	1445.3435	39140.1	38239.35
885.8629	1447.1724	39163.55	38264.7
886.0064	1449.0005	39031.25	38130.85
886.1499	1450.8279	39033.6	38132.3
886.2933	1452.6545	39004.25	38104.35
886.4368	1454.4804	38953.65	38056.55
886.5802	1456.3056	38889.85	37986.35
886.7237	1458.13	38856.65	37958.3
886.8671	1459.9536	38924.8	38025.75
887.0105	1461.7766	38727	37827
887.1539	1463.5987	38503.85	37602.35
887.2972	1465.4202	38464.5	37564.15
887.4406	1467.2409	38330.9	37430.45
887.584	1469.0608	38195.5	37295.25
887.7273	1470.88	38162	37262.3
887.8706	1472.6984	38094.35	37194.65
888.0139	1474.5161	37864.45	36961.6
888.1572	1476.3331	37858.6	36959.5
888.3005	1478.1493	37769.9	36868.85
888.4438	1479.9648	37716.45	36818.8
888.5871	1481.7795	37713.85	36813.85
888.7303	1483.5935	37697.2	36799.1
888.8736	1485.4067	37547.25	36646.95
889.0168	1487.2192	37536.5	36637.6
889.16	1489.031	37467.85	36567.65
889.3032	1490.842	37441.05	36541.25
889.4464	1492.6522	37436.3	36537.65
889.5896	1494.4618	37326.75	36428.45
889.7327	1496.2705	37317.4	36418.5
889.8759	1498.0785	37199.6	36299.55
890.019	1499.8858	37167.75	36266
890.1622	1501.6924	37139.15	36240.6
890.3053	1503.4981	37057.1	36159.5
890.4484	1505.3032	37014.85	36114.55
890.5914	1507.1075	36924.65	36027.45
890.7345	1508.911	36897.3	35998.3
890.8776	1510.7138	36889.85	35988.4
891.0206	1512.5159	36817.55	35917.7
891.1637	1514.3172	36667.65	35769.8
891.3067	1516.1178	36618	35719.05
891.4497	1517.9176	36599.6	35697.3
891.5927	1519.7166	36533.3	35635.35
891.7357	1521.515	36486	35580.75
891.8786	1523.3126	36393.45	35495.15
892.0216	1525.1094	36369.3	35470.5
892.1645	1526.9055	36271.45	35373.55
892.3074	1528.7008	36197.8	35300.95
892.4503	1530.4954	36034.65	35136.8
892.5932	1532.2893	36037	35140.35
892.7361	1534.0824	35873.25	34973.65
892.879	1535.8747	35825.45	34929.9
893.0218	1537.6663	35840.15	34944
893.1647	1539.4572	35623.05	34725.35
893.3075	1541.2473	35678.95	34783.65
893.4503	1543.0367	35577.1	34683.15
893.5931	1544.8253	35493.55	34592.1
893.7359	1546.6132	35481.15	34582.4
893.8787	1548.4003	35313.45	34408.2
894.0214	1550.1867	35337.55	34430.6
894.1642	1551.9723	35259.05	34357.6
894.3069	1553.7572	35284.2	34387.65
894.4496	1555.5414	35241.6	34346.25
894.5923	1557.3247	35047.65	34153.75
894.735	1559.1074	35161.75	34266.3
894.8777	1560.8893	35070.45	34176.9
895.0204	1562.6705	35084.65	34190
895.163	1564.4509	34989	34093.95
895.3056	1566.2305	34945.05	34053.55
895.4482	1568.0094	35047.4	34155.4
895.5908	1569.7876	34936.75	34044.75
895.7334	1571.565	34839.85	33947.65
895.876	1573.3417	34849.7	33956.05
896.0186	1575.1176	34753.05	33859.6
896.1611	1576.8928	34680.95	33789
896.3036	1578.6672	34586.95	33696.55
896.4461	1580.4409	34522.4	33634.2
896.5886	1582.2138	34430.8	33538.2
896.7311	1583.986	34402.5	33509.5
896.8736	1585.7575	34360.65	33467.7
897.0161	1587.5282	34364.85	33476.95
897.1585	1589.2981	34325.8	33436.95
897.3009	1591.0673	34238.65	33349.7
897.4433	1592.8358	34183.1	33294.5
897.5857	1594.6035	34215.4	33321.95
897.7281	1596.3704	34167.7	33276.2
897.8705	1598.1366	34038.85	33149.65
898.0128	1599.9021	33961.7	33071.25
898.1551	1601.6668	33946.8	33053.45
898.2975	1603.4308	33923.4	33028.4
898.4398	1605.194	33973.25	33074.8
898.5821	1606.9564	33841.75	32954
898.7243	1608.7182	33898.9	33008.05
898.8666	1610.4791	33865.65	32981.45
899.0088	1612.2394	33894.15	33007.8
899.1511	1613.9988	33865.75	32979.7
899.2933	1615.7576	33940.35	33052.75
899.4355	1617.5156	33932.85	33037.25
899.5776	1619.2728	34053.5	33162.75
899.7198	1621.0293	33867.85	32977.3
899.862	1622.785	33750.25	32858.3
900.0041	1624.54	33683.25	32792.3
900.1462	1626.2942	33497.25	32607.55
900.2883	1628.0477	33268.75	32378.3
900.4304	1629.8005	33146.9	32254.65
900.5725	1631.5525	33097.25	32206.45
900.7145	1633.3037	32918.65	32029.9
900.8566	1635.0542	32832.55	31945.7
900.9986	1636.804	32782.75	31895.75
901.1406	1638.553	32685.75	31751.55
901.2826	1640.3013	32568.45	31679.9
901.4245	1642.0488	32474.6	31586.95
901.5665	1643.7955	32476.5	31591.1
901.7085	1645.5416	32384.25	31496.85
901.8504	1647.2868	32384.05	31497.3
901.9923	1649.0313	32367.85	31479.35
902.1342	1650.7751	32360.75	31469.8
902.2761	1652.5181	32312.15	31423.85
902.4179	1654.2604	32286.2	31398.95
902.5598	1656.0019	32303	31416.05
902.7016	1657.7427	32286.9	31398.4
902.8434	1659.4828	32364.7	31477.4
902.9852	1661.222	32281.05	31391.25
903.127	1662.9606	32286.45	31398.3
903.2687	1664.6984	32143.85	31254.35
903.4105	1666.4354	32087.75	31196.75
903.5522	1668.1717	31755.25	30865.05
903.6939	1669.9072	31454.55	30564.8
903.8356	1671.642	31355	30461.25
903.9773	1673.3761	31198.35	30309.55
904.119	1675.1094	31022.6	30131.85
904.2606	1676.8419	30871.2	29982.85
904.4022	1678.5737	30780.75	29894.6
904.5439	1680.3048	30645.45	29756.35
904.6855	1682.0351	30517.05	29629.15
904.827	1683.7646	30405.1	29512.05
904.9686	1685.4934	30345.65	29457.6
905.1101	1687.2215	30163.65	29277.25
905.2517	1688.9488	30140.8	29254.3
905.3932	1690.6754	29858.65	28970.55
905.5347	1692.4012	29913.75	29026.35
905.6761	1694.1263	29868.2	28979.5
905.8176	1695.8506	29763.75	28874.2
905.9591	1697.5742	29699.75	28811.1
906.1005	1699.297	29624.1	28738.5
906.2419	1701.0191	29550.1	28664.05
906.3833	1702.7404	29390.85	28504.55
906.5246	1704.461	29262.5	28374.7
906.666	1706.1808	29220.25	28330
906.8073	1707.8999	29152.35	28265.25
906.9487	1709.6182	29071.45	28183.4
907.09	1711.3358	29019.3	28135.45
907.2313	1713.0527	28947.75	28064.75
907.3725	1714.7688	28921.05	28032.5
907.5138	1716.4841	28730.1	27842.1
907.655	1718.1987	28734.85	27842.8
907.7962	1719.9126	28652.3	27767
907.9374	1721.6257	28627.25	27740.45
908.0786	1723.338	28554.55	27669.55
908.2198	1725.0496	28313.3	27426.95
908.3609	1726.7605	28326.9	27439.2
908.502	1728.4706	28204.15	27318.05
908.6431	1730.18	28168.95	27280.7
908.7842	1731.8886	28072.1	27187.55
908.9253	1733.5964	28002.45	27110.15
909.0664	1735.3036	28051.5	27161.5
909.2074	1737.0099	27951.65	27065
909.3484	1738.7156	27808.2	26924.3
909.4894	1740.4204	27725.7	26835.05
909.6304	1742.1246	27740.45	26854.25
909.7714	1743.8279	27705.05	26820.2
909.9123	1745.5306	27654.3	26768
910.0532	1747.2325	27457.4	26574.65
910.1941	1748.9336	27417.25	26531.7
910.335	1750.634	27404.65	26515.9
910.4759	1752.3336	27368.6	26481.7
910.6168	1754.0325	27239.85	26357.45
910.7576	1755.7307	27269.3	26383.25
910.8984	1757.4281	27181.3	26294.6
911.0392	1759.1247	27228	26332.2
911.18	1760.8206	27001.15	26108.65
911.3208	1762.5158	27015.85	26126.35
911.4615	1764.2102	26956.4	26073.9
911.6022	1765.9039	26833.55	25948.15
911.7429	1767.5968	26767.85	25883.8
911.8836	1769.289	26651.9	25764.25
912.0243	1770.9804	26668.2	25781.5
912.1649	1772.6711	26641.15	25752.8
912.3056	1774.361	26547.55	25659.05
912.4462	1776.0502	26514.45	25628.25
912.5868	1777.7386	26361.4	25472.8
912.7274	1779.4263	26373.2	25488.4
912.8679	1781.1132	26348.05	25464.35
913.0084	1782.7994	26222.35	25333.65
913.149	1784.4849	26227.55	25344.3
913.2895	1786.1696	26062.1	25158.45
913.4299	1787.8535	26096.9	25212
913.5704	1789.5367	26074.75	25191.55
913.7108	1791.2192	25935.75	25052.45
913.8513	1792.9009	25857	24940.95
913.9917	1794.5818	25873.4	24986.2
914.132	1796.2621	25726.1	24841.1
914.2724	1797.9415	25694	24809.6
914.4128	1799.6202	25650.35	24763.5
914.5531	1801.2982	25615.5	24729.85
914.6934	1802.9755	25519.4	24632.65
914.8337	1804.6519	25441.05	24555.65
914.9739	1806.3277	25470.9	24585.15
915.1142	1808.0027	25231.65	24345.35
915.2544	1809.6769	25278.65	24396.35
915.3946	1811.3504	25229.15	24345.75
915.5348	1813.0231	25067.8	24183.35
915.675	1814.6951	25147.25	24265.15
915.8151	1816.3664	25083.6	24196.9
915.9553	1818.0369	25043.9	24159.45
916.0954	1819.7067	24911.25	24029.4
916.2355	1821.3757	24950.55	24063.4
916.3755	1823.044	24826.4	23940.1
916.5156	1824.7115	24739.75	23854.25
916.6556	1826.3783	24666.7	23784.2
916.7956	1828.0443	24633.2	23746.55
916.9356	1829.7096	24579.6	23692.9
917.0756	1831.3741	24508.95	23621.65
917.2155	1833.0379	24470.55	23587.35
917.3555	1834.701	24418.25	23533.75
917.4954	1836.3633	24316.45	23431.75
917.6353	1838.0248	24297.5	23411.8
917.7751	1839.6856	24311.15	23427.6
917.915	1841.3457	24195.65	23312.05
918.0548	1843.005	24204.5	23319.65
918.1946	1844.6636	24144.4	23260.4
918.3344	1846.3214	24009.85	23123.6
918.4742	1847.9785	24014.1	23130.55
918.6139	1849.6349	23973.2	23086.2
918.7537	1851.2904	23998	23101.55
918.8934	1852.9453	23859.65	22972.5
919.0331	1854.5994	23834.35	22946.4
919.1727	1856.2528	23860.4	22969.1
919.3124	1857.9054	23712.1	22825.9
919.452	1859.5572	23674.3	22789.5
919.5916	1861.2083	23630.5	22745.45
919.7312	1862.8587	23716.05	22829.9
919.8708	1864.5084	23510.8	22625.1
920.0103	1866.1572	23499.65	22614.05
920.1498	1867.8054	23392.95	22506.4
920.2893	1869.4528	23401.25	22516.3
920.4288	1871.0994	23288.9	22401.7
920.5683	1872.7453	23253.45	22366.75
920.7077	1874.3905	23219.15	22327.95
920.8471	1876.0349	23115.3	22229
920.9865	1877.6786	23150.75	22264.4
921.1259	1879.3215	23105.6	22219.55
921.2653	1880.9637	23052.75	22165.05
921.4046	1882.6051	23033.8	22149.4
921.5439	1884.2458	22935.5	22049.1
921.6832	1885.8858	22856.6	21972.55
921.8225	1887.525	22818.55	21931.85
921.9617	1889.1634	22744.15	21858.35
922.101	1890.8011	22651.5	21764.75
922.2402	1892.4381	22549.2	21663.4
922.3794	1894.0743	22601.65	21717.4
922.5185	1895.7098	22514.7	21627.25
922.6577	1897.3446	22467	21580.9
922.7968	1898.9786	22438.15	21549.7
922.9359	1900.6118	22372.6	21488.35
923.075	1902.2443	22241.3	21354.4
923.214	1903.8761	22242.45	21356.7
923.3531	1905.5071	22106.3	21219.8
923.4921	1907.1374	22013.2	21129.05
923.6311	1908.7669	22023.75	21138.3
923.77	1910.3957	22007.05	21122.9
923.909	1912.0237	21862	20977.55
924.0479	1913.651	21834.3	20946.3
924.1868	1915.2776	21769.5	20887.5
924.3257	1916.9034	21677	20793.25
924.4646	1918.5285	21575.55	20691.9
924.6034	1920.1528	21521.15	20635.9
924.7422	1921.7764	21481.3	20597.85
924.881	1923.3992	21416.75	20530.05
925.0198	1925.0213	21266.7	20382.5
925.1586	1926.6427	21179.95	20298.1
925.2973	1928.2633	21383	20257.6
925.436	1929.8832	21166.3	20277.45
925.5747	1931.5023	20982.75	20097.4
925.7134	1933.1207	20967.35	20084
925.852	1934.7383	20954.25	20067.85
925.9906	1936.3552	20846.65	19963.7
926.1292	1937.9714	20824.8	19937.35
926.2678	1939.5868	20697.05	19808.35
926.4064	1941.2015	20578.3	19691.65
926.5449	1942.8154	20525.45	19641.45
926.6834	1944.4286	20437.55	19553.05
926.8219	1946.041	20411.6	19507.1
926.9604	1947.6528	20272.55	19383.25
927.0988	1949.2637	20253.55	19370.25
927.2372	1950.8739	20183.5	19298.9
927.3756	1952.4834	20154.4	19272
927.514	1954.0921	20090.25	19206.85
927.6523	1955.7001	20079.1	19190.3
927.7907	1957.3074	19997.8	19115.6
927.929	1958.9139	19898.9	19015.95
928.0673	1960.5197	19868.7	18983.5
928.2055	1962.1247	19749.4	18866.3
928.3438	1963.729	19684.9	18803.45
928.482	1965.3325	19610.45	18704.25
928.6202	1966.9353	19563.55	18681.1
928.7584	1968.5374	19480.35	18595.25
928.8965	1970.1387	19413.05	18529
929.0346	1971.7393	19382.35	18499.75
929.1727	1973.3392	19311.65	18428.35
929.3108	1974.9383	19249.5	18367.9
929.4489	1976.5366	19169.55	18287.6
929.5869	1978.1342	19134.95	18252
929.7249	1979.7311	19090.35	18207.8
929.8629	1981.3273	19019.95	18136.95
930.0009	1982.9227	18942.85	18057.6
930.1388	1984.5173	18909.05	18027.35
930.2767	1986.1112	18804.9	17922.6
930.4146	1987.7044	18800.95	17919.55
930.5525	1989.2968	18717.45	17834.5
930.6904	1990.8885	18705.85	17822.35
930.8282	1992.4795	18655.6	17772.5
930.966	1994.0697	18568.15	17685.5
931.1038	1995.6592	18521.25	17638.85
931.2415	1997.2479	18470.7	17587.3
931.3793	1998.8359	18396.65	17515.45
931.517	2000.4232	18335.75	17457.3
931.6547	2002.0097	18298.05	17416.1
931.7923	2003.5955	18193.55	17315.3
931.93	2005.1805	18218.8	17336.65
932.0676	2006.7648	18160.9	17279.9
932.2052	2008.3484	18082.55	17201.85
932.3427	2009.9312	18130.4	17247.5
932.4803	2011.5133	18049.1	17168.05
932.6178	2013.0946	17963.35	17082.05
932.7553	2014.6752	17886.2	17005.7
932.8928	2016.2551	17855.65	16975.2
933.0302	2017.8342	17771.75	16889.85
933.1676	2019.4126	17726.9	16845.45
933.305	2020.9902	17632	16751.75
933.4424	2022.5672	17628.95	16746.3
933.5798	2024.1433	17579.95	16693.1
933.7171	2025.7188	17523.85	16646.2
933.8544	2027.2935	17489.6	16608.55
933.9917	2028.8674	17394.6	16514.9
934.129	2030.4406	17359	16481.6
934.2662	2032.0131	17256	16378.65
934.4034	2033.5849	17191.35	16305.25
934.5406	2035.1559	17170.95	16292.8
934.6778	2036.7261	17183.85	16303.9
934.8149	2038.2957	17147.75	16265.6
934.952	2039.8645	17092.5	16211.1
935.0891	2041.4325	17085.8	16202.3
935.2262	2042.9998	17036.5	16155.2
935.3632	2044.5664	16968.8	16083.8
935.5002	2046.1323	16915.8	16036.25
935.6372	2047.6974	16840.85	15960.2
935.7742	2049.2617	16839.55	15960.6
935.9111	2050.8254	16794.95	15908.45
936.048	2052.3883	16776.05	15896.15
936.1849	2053.9504	16701.5	15819.6
936.3218	2055.5118	16656.3	15775.8
936.4586	2057.0725	16583.35	15698.9
936.5955	2058.6325	16536.55	15655.4
936.7323	2060.1917	16521.25	15641.75
936.869	2061.7502	16480	15597.3
937.0058	2063.3079	16408.45	15529.4
937.1425	2064.8649	16367.1	15483.2
937.2792	2066.4212	16336.05	15454.75
937.4159	2067.9767	16287.65	15407.4
937.5525	2069.5315	16214.05	15331.2
937.6891	2071.0856	16139.45	15259.3
937.8257	2072.6389	16071.2	15189.9
937.9623	2074.1915	15998.7	15121.1
938.0989	2075.7433	15964.7	15082.2
938.2354	2077.2945	15926.2	15046.9
938.3719	2078.8448	15882.1	15001.9
938.5084	2080.3945	15778.8	14899.55
938.6448	2081.9434	15786.9	14904.75
938.7812	2083.4916	15764.6	14882.05
938.9176	2085.039	15663.7	14780
939.054	2086.5857	15635.95	14750.4
939.1903	2088.1317	15623.4	14740.3
939.3267	2089.677	15601.45	14715.55
939.463	2091.2215	15555.05	14674.5
939.5992	2092.7652	15517.5	14631.75
939.7355	2094.3083	15481.95	14598.3
939.8717	2095.8506	15482.55	14601.2
940.0079	2097.3921	15432.1	14552.55
940.1441	2098.933	15367.9	14486.05
940.2802	2100.4731	15342.3	14460.1
940.4163	2102.0124	15361.4	14460.9
940.5524	2103.5511	15291	14408.85
940.6885	2105.089	15242.75	14361
940.8245	2106.6261	15184.05	14301.8
940.9606	2108.1626	15156.8	14273.55
941.0965	2109.6983	15123.75	14214.6
941.2325	2111.2332	15078.3	14195.75
941.3684	2112.7675	15033.55	14149.75
941.5044	2114.301	14989.1	14104.25
941.6403	2115.8337	14987.6	14104.75
941.7761	2117.3657	14946.4	14065.5
941.912	2118.897	14902.95	14020.85
942.0478	2120.4276	14893.85	14008.75
942.1835	2121.9575	14795.65	13914.55
942.3193	2123.4866	14790.75	13893.5
942.455	2125.0149	14728.5	13842.05
942.5907	2126.5426	14645	13763.7
942.7264	2128.0695	14632.3	13748.2
942.8621	2129.5956	14592.25	13712.05
942.9977	2131.1211	14582.1	13696.65
943.1333	2132.6458	14546.15	13665.5
943.2689	2134.1698	14528.95	13647.95
943.4044	2135.693	14482.1	13597.45
943.54	2137.2155	14421.3	13536.8
943.6755	2138.7373	14382.3	13499.4
943.8109	2140.2584	14357.5	13476.95
943.9464	2141.7787	14302.45	13416.95
944.0818	2143.2983	14237.9	13356.55
944.2172	2144.8171	14174.7	13295.55
944.3526	2146.3353	14141.9	13258.45
944.4879	2147.8527	14080.2	13201.15
944.6232	2149.3693	14077	13194.25
944.7585	2150.8853	14040.2	13159.25
944.8938	2152.4005	13976.25	13093.15
945.029	2153.9149	13967	13085.05
945.1642	2155.4287	13917.8	13036.35
945.2994	2156.9417	13900.35	13015
945.4346	2158.454	13837.55	12953.15
945.5697	2159.9655	13809.45	12925.45
945.7048	2161.4764	13817.1	12938.35
945.8399	2162.9865	13746.1	12864.85
945.9749	2164.4958	13668.85	12787.4
946.1099	2166.0045	13664.4	12780.05
946.2449	2167.5124	13624	12741.85
946.3799	2169.0195	13591.25	12707
946.5148	2170.526	13556.05	12672.9
946.6498	2172.0317	13542.6	12659
946.7846	2173.5367	13485	12602.45
946.9195	2175.0409	13421.6	12540.15
947.0543	2176.5445	13395.15	12512.8
947.1891	2178.0473	13389.25	12507.35
947.3239	2179.5494	13296.1	12409.6
947.4587	2181.0507	13284.5	12403.15
947.5934	2182.5513	13240.2	12359.15
947.7281	2184.0512	13222.35	12340.45
947.8628	2185.5504	13174.3	12292.35
947.9974	2187.0488	13131.35	12248.9
948.132	2188.5465	13070.9	12189.7
948.2666	2190.0435	13029.25	12146.45
948.4012	2191.5397	12967.2	12085.55
948.5357	2193.0353	12922.55	12041.25
948.6702	2194.5301	12875.05	11990.9
948.8047	2196.0241	12810.35	11923.85
948.9392	2197.5175	12780.85	11895.1
949.0736	2199.0101	12780.25	11893.65
949.208	2200.502	12694.6	11813.8
949.3424	2201.9931	12665.85	11783.1
949.4767	2203.4835	12641.3	11757.5
949.611	2204.9733	12616.95	11728.8
949.7453	2206.4622	12602.15	11722
949.8796	2207.9505	12519.8	11637.2
950.0138	2209.438	12454.55	11576.05
950.148	2210.9248	12451.7	11570.7
950.2822	2212.4109	12377	11497.35
950.4164	2213.8962	12337.25	11452.4
950.5505	2215.3809	12310.55	11426.85
950.6846	2216.8648	12295.55	11411.65
950.8186	2218.3479	12272.2	11383.65
950.9527	2219.8304	12248.5	11360.95
951.0867	2221.3121	12191.95	11304.85
951.2207	2222.7931	12141.1	11258.65
951.3546	2224.2733	12099.25	11213.9
951.4886	2225.7529	12013.35	11132.6
951.6225	2227.2317	12004.65	11119.1
951.7563	2228.7098	11971.6	11091.25
951.8902	2230.1872	11949.6	11067.5
952.024	2231.6638	11922.15	11042.35
952.1578	2233.1397	11890.3	11003.3
952.2916	2234.6149	11861.45	10981.25
952.4253	2236.0894	11818.85	10936.1
952.559	2237.5632	11795.4	10903
952.6927	2239.0362	11725.2	10842
952.8263	2240.5085	11678.8	10794.95
952.9599	2241.9801	11637.4	10755.7
953.0935	2243.4509	11610.35	10725.15
953.2271	2244.921	11591.9	10707.95
953.3606	2246.3904	11543.5	10657.45
953.4941	2247.8591	11503.75	10621.3
953.6276	2249.3271	11489.85	10605.2
953.7611	2250.7943	11420.15	10537.9
953.8945	2252.2608	11376.65	10493.4
954.0279	2253.7266	11347.5	10465.85
954.1612	2255.1917	11307.75	10425.9
954.2946	2256.656	11287	10402.8
954.4279	2258.1197	11234.75	10354.2
954.5612	2259.5826	11200.25	10314.4
954.6944	2261.0447	11208.35	10324.1
954.8276	2262.5062	11134.95	10248.35
954.9608	2263.9669	11142.05	10257.3
955.094	2265.4269	11119.45	10237
955.2271	2266.8862	11078.2	10195.45
955.3602	2268.3448	11039.75	10156.7
955.4933	2269.8026	11042.4	10160.75
955.6264	2271.2598	10990.95	10108.85
955.7594	2272.7162	10932.2	10050.6
955.8924	2274.1719	10926.85	10044.15
956.0253	2275.6268	10905.95	10022.8
956.1583	2277.0811	10850.2	9968.05
956.2912	2278.5346	10830.65	9949.85
956.4241	2279.9874	10829.8	9945.35
956.5569	2281.4395	10823.9	9942.4
956.6897	2282.8908	10777.45	9891.35
956.8225	2284.3414	10723	9837.45
956.9553	2285.7914	10709.2	9828.5
957.088	2287.2406	10665.85	9780.65
957.2207	2288.689	10668.7	9786.1
957.3534	2290.1368	10617.3	9731.25
957.486	2291.5838	10578.2	9691.05
957.6186	2293.0302	10552.2	9665.25
957.7512	2294.4758	10501.45	9615.75
957.8838	2295.9206	10487.25	9600.9
958.0163	2297.3648	10424.8	9540.65
958.1488	2298.8082	10450.3	9566.8
958.2813	2300.251	10387.75	9505.4
958.4137	2301.693	10349.45	9463.2
958.5461	2303.1343	10348.25	9463.8
958.6785	2304.5748	10311.45	9429.05
958.8108	2306.0147	10261.45	9378.6
958.9432	2307.4538	10274.55	9391.4
959.0754	2308.8922	10228.6	9347.65
959.2077	2310.3299	10161.9	9282.65
959.3399	2311.7669	10139.75	9257.35
959.4721	2313.2031	10127.1	9245.15
959.6043	2314.6387	10081.1	9197.45
959.7365	2316.0735	10072.3	9190.25
959.8686	2317.5076	10077.4	9192.2
960.0006	2318.941	10017.5	9133.9
960.1327	2320.3737	9967.8	9083.5
960.2647	2321.8056	9956.2	9072.25
960.3967	2323.2369	9929.4	9045.1
960.5287	2324.6674	9890.95	9005.25
960.6606	2326.0972	9855.95	8971.45
960.7925	2327.5263	9820.9	8939.05
960.9244	2328.9547	9803.75	8920.8
961.0562	2330.3823	9767.95	8884.1
961.1881	2331.8092	9788.95	8902.3
961.3198	2333.2355	9717.4	8833
961.4516	2334.661	9702.35	8817.4
961.5833	2336.0858	9687.95	8802.8
961.715	2337.5098	9657.15	8773.95
961.8467	2338.9332	9633.95	8749.85
961.9783	2340.3558	9611.05	8725.95
962.1099	2341.7778	9580.65	8698.3
962.2415	2343.199	9539.05	8655.7
962.373	2344.6195	9507.65	8627
962.5045	2346.0393	9481.35	8597.95
962.636	2347.4583	9464.05	8580.9
962.7675	2348.8767	9423.1	8535.95
962.8989	2350.2943	9431.7	8545.65
963.0303	2351.7113	9410.55	8524.65
963.1617	2353.1275	9351.55	8467.1
963.293	2354.543	9340.6	8448.6
963.4243	2355.9578	9280.85	8397.5
963.5556	2357.3718	9238.6	8356.35
963.6868	2358.7852	9229.7	8343.7
963.818	2360.1978	9187.5	8303.95
963.9492	2361.6098	9160.4	8279.4
964.0803	2363.021	9149.85	8261.2
964.2114	2364.4315	9116.1	8232.55
964.3425	2365.8413	9087.5	8204.05
964.4736	2367.2504	9056.55	8174.75
964.6046	2368.6587	9008.25	8125.9
964.7356	2370.0664	8989.85	8106.2
964.8666	2371.4733	8985.3	8103.8
964.9975	2372.8795	8942.75	8061.4
965.1284	2374.285	8885.45	8002.05
965.2593	2375.6899	8845.45	7962.5
965.3901	2377.0939	8808.25	7924.65
965.5209	2378.4973	8791.5	7907.3
965.6517	2379.9	8764.1	7880.95
965.7825	2381.3019	8726.2	7842.95
965.9132	2382.7032	8690.8	7808.85
966.0439	2384.1037	8685.2	7803.2
966.1745	2385.5035	8657.75	7777.95
966.3051	2386.9027	8631.75	7750.4
966.4357	2388.3011	8634.7	7750.15
966.5663	2389.6987	8609.85	7725.15
966.6968	2391.0957	8559.75	7679.95
966.8273	2392.492	8515.4	7633.2
966.9578	2393.8876	8467.05	7584.1
967.0882	2395.2824	8433.3	7550.4
967.2186	2396.6765	8418.45	7534.8
967.349	2398.07	8384.7	7503.25
967.4793	2399.4627	8364	7478.95
967.6097	2400.8547	8329.6	7448.15
967.7399	2402.246	8318.45	7426.7
967.8702	2403.6366	8259.4	7376.9
968.0004	2405.0265	8232.2	7348.8
968.1306	2406.4156	8220.7	7332.95
968.2607	2407.8041	8204.1	7319.95
968.3909	2409.1918	8144.4	7256.7
968.521	2410.5789	8132.4	7248.95
968.651	2411.9652	8082.9	7195.95
968.781	2413.3508	8086.25	7203.85
968.911	2414.7358	8045.5	7160.1
969.041	2416.12	7998.9	7118.65
969.1709	2417.5035	7984.35	7102.95
969.3008	2418.8863	7932.85	7049.95
969.4307	2420.2684	7936.05	7051.15
969.5606	2421.6497	7918.85	7036.3
969.6904	2423.0304	7878	6995.1
969.8201	2424.4104	7857.7	6974.8
969.9499	2425.7896	7839.7	6957.15
970.0796	2427.1682	7827.35	6943.85
970.2093	2428.546	7773.55	6888.25
970.3389	2429.9232	7782.05	6897.3
970.4685	2431.2996	7746.5	6864.7
970.5981	2432.6753	7715.65	6833.05
970.7277	2434.0503	7701.85	6817.4
970.8572	2435.4246	7664.3	6782.95
970.9867	2436.7982	7649.65	6766.3
971.1161	2438.1711	7629.8	6748.35
971.2456	2439.5433	7602.75	6718.1
971.375	2440.9148	7576	6686.75
971.5043	2442.2856	7557.05	6675.25
971.6336	2443.6557	7518.7	6633.9
971.7629	2445.025	7501.65	6618.7
971.8922	2446.3937	7477.95	6593.7
972.0214	2447.7617	7461.55	6578.4
972.1506	2449.1289	7450.2	6569
972.2798	2450.4955	7428.35	6541.2
972.4089	2451.8613	7398	6517.45
972.538	2453.2265	7397.85	6516.3
972.6671	2454.5909	7360.75	6476.95
972.7961	2455.9546	7337.45	6456.15
972.9251	2457.3177	7319.3	6435
973.0541	2458.68	7295.8	6412.05
973.1831	2460.0416	7280.7	6394.7
973.312	2461.4025	7290.9	6406.75
973.4408	2462.7627	7239.2	6345.35
973.5697	2464.1222	7243.65	6361.85
973.6985	2465.4811	7211.1	6328.1
973.8273	2466.8392	7181.55	6298.2
973.956	2468.1966	7171.8	6286.85
974.0847	2469.5533	7151.6	6268.15
974.2134	2470.9093	7135.7	6254.55
974.3421	2472.2645	7091.05	6206.45
974.4707	2473.6191	7073.75	6191.95
974.5993	2474.973	7042.25	6159.4
974.7278	2476.3262	7038.4	6151.75
974.8563	2477.6787	7019.3	6136.5
974.9848	2479.0305	6977.45	6093.05
975.1132	2480.3816	6957.8	6072.35
975.2417	2481.7319	6942.15	6059.2
975.37	2483.0816	6929.15	6042.9
975.4984	2484.4306	6892.75	6010.4
975.6267	2485.7789	6863.55	5982.2
975.755	2487.1264	6844.55	5959.8
975.8833	2488.4733	6817.15	5935.1
976.0115	2489.8195	6827.2	5937.55
976.1397	2491.165	6769.85	5884
976.2678	2492.5097	6767.4	5884.9
976.3959	2493.8538	6717.45	5835.6
976.524	2495.1972	6685.2	5801.6
976.6521	2496.5398	6655.9	5772.1
976.7801	2497.8818	6650.25	5765.45
976.9081	2499.2231	6631.6	5748.7
977.036	2500.5637	6624.65	5740.25
977.164	2501.9035	6593.85	5709.8
977.2918	2503.2427	6585.7	5698.35
977.4197	2504.5812	6545.2	5661
977.5475	2505.919	6535.85	5652.4
977.6753	2507.256	6540.75	5658.8
977.8031	2508.5924	6492.3	5611.25
977.9308	2509.9281	6479	5589.8
978.0585	2511.2631	6461.9	5578.5
978.1861	2512.5974	6456.1	5574.5
978.3137	2513.9309	6428.3	5546.2
978.4413	2515.2638	6443	5532.45
978.5689	2516.596	6392.45	5510.95
978.6964	2517.9275	6357.6	5472.85
978.8239	2519.2583	6354.95	5471.4
978.9513	2520.5884	6316.65	5430.8
979.0788	2521.9178	6280.15	5396.2
979.2062	2523.2465	6292.6	5410.5
979.3335	2524.5745	6272.3	5390.45
979.4608	2525.9018	6228.5	5343.65
979.5881	2527.2284	6201.45	5319.2
979.7154	2528.5543	6205.05	5324.1
979.8426	2529.8796	6204.45	5320.35
979.9698	2531.2041	6163.6	5279.95
980.0969	2532.5279	6157.15	5276.6
980.224	2533.851	6150.15	5266.6
980.3511	2535.1735	6130.2	5247.2
980.4781	2536.4952	6114.3	5231.45
980.6052	2537.8163	6103.9	5221
980.7321	2539.1366	6064.3	5180.3
980.8591	2540.4562	6058	5173.05
980.986	2541.7752	6055.45	5171.95
981.1129	2543.0935	6035.55	5152.3
981.2397	2544.411	6036.65	5151.6
981.3665	2545.7279	6017.05	5133.9
981.4933	2547.0441	6009.6	5125.65
981.62	2548.3596	6011.65	5125.35
981.7467	2549.6744	5991.2	5106.45
981.8734	2550.9885	5963.35	5071.7
982.0001	2552.3019	5948.25	5066.15
982.1267	2553.6146	5933.8	5050.75
982.2532	2554.9266	5898.15	5015.15
982.3798	2556.2379	5902.7	5018.1
982.5063	2557.5485	5880.15	4999.1
982.6327	2558.8585	5891.95	5001.55
982.7592	2560.1677	5865.6	4978.85
982.8856	2561.4762	5857.6	4973.3
983.0119	2562.7841	5832.25	4946.9
983.1383	2564.0913	5826.05	4943.75
983.2646	2565.3977	5814.05	4932.2
983.3908	2566.7035	5792.45	4909.9
983.517	2568.0086	5786.9	4903.3
983.6432	2569.313	5782.7	4900.5
983.7694	2570.6167	5775.4	4889.65
983.8955	2571.9197	5756.15	4875.05
984.0216	2573.222	5749.5	4862.4
984.1476	2574.5236	5734.75	4851.65
984.2737	2575.8246	5708.55	4822.3
984.3996	2577.1248	5694.7	4808.95
984.5256	2578.4244	5698.2	4816.15
984.6515	2579.7232	5678.6	4792.85
984.7774	2581.0214	5687.15	4778.55
984.9032	2582.3189	5651.35	4768.5
985.029	2583.6157	5642.8	4754.5
985.1548	2584.9118	5634.7	4751.4
985.2806	2586.2072	5607.75	4727.6
985.4063	2587.5019	5613.1	4729.9
985.5319	2588.7959	5592.6	4709
985.6576	2590.0893	5581.05	4695.7
985.7832	2591.3819	5584.8	4701.85
985.9087	2592.6739	5546.3	4664.95
986.0343	2593.9652	5525.45	4641.8
986.1597	2595.2557	5509.4	4627
986.2852	2596.5456	5483.5	4597.1
986.4106	2597.8348	5471.35	4588.3
986.536	2599.1234	5457.45	4577.15
986.6614	2600.4112	5445.2	4561.3
986.7867	2601.6983	5424	4539.3
986.912	2602.9848	5405.25	4522.25
987.0372	2604.2705	5372.35	4483.55
987.1624	2605.5556	5376.7	4495.6
987.2876	2606.84	5338.9	4457.25
987.4128	2608.1237	5329.7	4444.6
987.5379	2609.4067	5324.05	4441
987.6629	2610.689	5306.65	4415.8
987.788	2611.9707	5271.95	4385.4
987.913	2613.2516	5264.95	4377.25
988.0379	2614.5319	5229.45	4346.7
988.1629	2615.8115	5214.45	4332.4
988.2878	2617.0903	5201.35	4318.9
988.4126	2618.3685	5174.4	4292.5
988.5375	2619.6461	5160.45	4277.65
988.6622	2620.9229	5159.1	4278.85
988.787	2622.199	5142.95	4259.1
988.9117	2623.4745	5120	4237.5
989.0364	2624.7493	5114	4230.3
989.161	2626.0234	5103.1	4220.35
989.2857	2627.2968	5075.85	4192.85
989.4102	2628.5695	5047.4	4162.8
989.5348	2629.8415	5046.45	4163.35
989.6593	2631.1128	5021	4137.85
989.7837	2632.3835	4995.05	4112.85
989.9082	2633.6535	4984.45	4101.95
990.0326	2634.9228	4970.65	4088.6
990.1569	2636.1914	4963.65	4082.45
990.2812	2637.4593	4945	4054.7
990.4055	2638.7265	4908.45	4024.4
990.5298	2639.9931	4898.9	4014.15
990.654	2641.259	4907.15	4022
990.7782	2642.5242	4887.4	4007.05
990.9023	2643.7887	4871.95	3989.5
991.0264	2645.0525	4859.8	3979.15
991.1505	2646.3156	4830.15	3948.1
991.2745	2647.5781	4828.6	3947.5
991.3985	2648.8398	4815.75	3935
991.5225	2650.1009	4824.55	3906
991.6464	2651.3613	4781.05	3897.9
991.7703	2652.6211	4788.1	3905.7
991.8942	2653.8801	4756.6	3874.7
992.018	2655.1385	4750.25	3865.95
992.1418	2656.3961	4732.05	3849.75
992.2655	2657.6531	4715.4	3834.9
992.3892	2658.9094	4715.6	3833.95
992.5129	2660.1651	4694.35	3812.2
992.6366	2661.42	4694.25	3810.4
992.7602	2662.6743	4691.95	3807.9
992.8837	2663.9279	4669.55	3786.55
993.0073	2665.1808	4666.85	3786.15
993.1307	2666.433	4657.75	3772.65
993.2542	2667.6846	4646.95	3763.75
993.3776	2668.9354	4621.5	3734.95
993.501	2670.1856	4589.2	3706.3
993.6244	2671.4351	4612.95	3732.25
993.7477	2672.6839	4607.25	3724.65
993.8709	2673.9321	4581.5	3700.3
993.9942	2675.1795	4572.75	3693.8
994.1174	2676.4263	4532.95	3652
994.2405	2677.6724	4539.25	3659.4
994.3637	2678.9179	4520.3	3637.95
994.4868	2680.1626	4513.9	3631.7
994.6098	2681.4067	4527.6	3642.8
994.7328	2682.6501	4495.75	3613.7
994.8558	2683.8928	4481.75	3598.85
994.9788	2685.1348	4466.25	3584.3
995.1017	2686.3761	4449	3567.6
995.2245	2687.6168	4437.3	3555.8
995.3474	2688.8568	4417.75	3535.35
995.4702	2690.0961	4405.65	3525.55
995.5929	2691.3348	4373.6	3490.5
995.7156	2692.5727	4385.35	3502.65
995.8383	2693.81	4379.1	3499.6
995.961	2695.0466	4375.5	3495.35
996.0836	2696.2826	4340.45	3457.35
996.2062	2697.5178	4371.9	3470.2
996.3287	2698.7524	4332.55	3450.95
996.4512	2699.9863	4321.65	3437.65
996.5737	2701.2195	4306	3426.35
996.6961	2702.452	4286.8	3402.65
996.8185	2703.6839	4286	3404.3
996.9408	2704.9151	4271.2	3391.3
997.0631	2706.1456	4262.7	3380.8
997.1854	2707.3755	4253.2	3370.5
997.3077	2708.6046	4233.55	3348.7
997.4299	2709.8331	4222.55	3338.9
997.552	2711.0609	4211.65	3331.5
997.6742	2712.2881	4204	3321.85
997.7963	2713.5145	4186.75	3301.35
997.9183	2714.7403	4187.7	3305.7
998.0403	2715.9654	4173.05	3290.5
998.1623	2717.1899	4166.75	3281.6
998.2842	2718.4136	4157.3	3275.3
998.4062	2719.6367	4149.45	3267.9
998.528	2720.8591	4144.65	3255.25
998.6498	2722.0809	4125.35	3243.15
998.7716	2723.3019	4101.15	3214.8
998.8934	2724.5223	4110.4	3226.2
999.0151	2725.7421	4093.6	3212.45
999.1368	2726.9611	4089.05	3206.55
999.2584	2728.1795	4075.1	3189.65
999.38	2729.3972	4051.1	3168.2
999.5016	2730.6142	4029.45	3140.5
999.6231	2731.8306	4014.5	3130.6
999.7446	2733.0462	3998.05	3113.6
999.8661	2734.2612	3995.25	3110.95
999.9875	2735.4756	3971.7	3087.45
1000.1089	2736.6892	3950.35	3068.85
1000.2302	2737.9022	3928.2	3046.55
1000.3515	2739.1145	3913.65	3030.9
1000.4728	2740.3262	3908.3	3017.55
1000.594	2741.5372	3885.65	3004.3
1000.7152	2742.7475	3869.15	2988.7
1000.8363	2743.9571	3870.15	2986.4
1000.9575	2745.1661	3858.45	2972
1001.0785	2746.3744	3832.1	2948.65
1001.1996	2747.582	3813.85	2931.15
1001.3206	2748.7889	3800.4	2916.25
1001.4415	2749.9952	3790.05	2908.35
1001.5625	2751.2008	3776.8	2894.45
1001.6833	2752.4057	3778.05	2895.85
1001.8042	2753.61	3752.85	2870.5
1001.925	2754.8136	3754.2	2871.65
1002.0458	2756.0165	3727.1	2845.7
1002.1665	2757.2188	3724.7	2843.95
1002.2872	2758.4204	3720.05	2838.6
1002.4078	2759.6213	3710.7	2826.5
1002.5285	2760.8215	3697.8	2813.2
1002.649	2762.0211	3691.1	2807.95
1002.7696	2763.22	3663.95	2777.6
1002.8901	2764.4182	3660.55	2776.55
1003.0106	2765.6158	3649.1	2765.65
1003.131	2766.8127	3644.9	2764.2
1003.2514	2768.009	3628.4	2745.85
1003.3717	2769.2045	3620.85	2738.45
1003.492	2770.3994	3611.8	2726.9
1003.6123	2771.5936	3599.95	2717
1003.7325	2772.7872	3583.1	2700.6
1003.8527	2773.9801	3557.75	2674.95
1003.9729	2775.1723	3568.6	2670.1
1004.093	2776.3639	3550.6	2669.5
1004.2131	2777.5548	3530.5	2646.2
1004.3331	2778.745	3539.6	2658
1004.4531	2779.9346	3519.3	2637.45
1004.5731	2781.1235	3524.55	2642.3
1004.693	2782.3117	3499.1	2620.1
1004.8129	2783.4992	3481.3	2601.2
1004.9328	2784.6861	3490.7	2610.95
1005.0526	2785.8723	3468.65	2587.85
1005.1723	2787.0579	3470.75	2587.45
1005.2921	2788.2428	3468.6	2587.25
1005.4118	2789.427	3444.5	2564.6
1005.5314	2790.6106	3440.05	2558.35
1005.651	2791.7935	3442.15	2559.85
1005.7706	2792.9757	3428.75	2546.7
1005.8902	2794.1573	3421.65	2536.9
1006.0097	2795.3382	3401.4	2517.7
1006.1291	2796.5184	3407.65	2528.05
1006.2485	2797.698	3409.25	2528
1006.3679	2798.8769	3393.95	2512.85
1006.4873	2800.0551	3387	2505.25
1006.6066	2801.2327	3389	2504.4
1006.7258	2802.4096	3372.35	2491.85
1006.8451	2803.5859	3378.9	2498.6
1006.9642	2804.7615	3360.25	2477.55
1007.0834	2805.9364	3375.45	2494.45
1007.2025	2807.1106	3367.45	2486.5
1007.3216	2808.2842	3356.65	2474.3
1007.4406	2809.4572	3357.25	2473.3
1007.5596	2810.6294	3365.35	2482.45
1007.6785	2811.801	3382.4	2504.1
1007.7975	2812.972	3387.65	2508.2
1007.9163	2814.1423	3381	2497.85
1008.0352	2815.3119	3401	2519.85
1008.154	2816.4808	3393.75	2511.7
1008.2727	2817.6491	3416.75	2534.35
1008.3914	2818.8167	3430.4	2549.2
1008.5101	2819.9837	3442	2557.5
1008.6288	2821.15	3452.35	2572.9
1008.7474	2822.3157	3473.4	2593.7
1008.8659	2823.4807	3484.8	2601.65
1008.9844	2824.645	3512.55	2630.9
1009.1029	2825.8086	3530.1	2649.8
1009.2214	2826.9716	3538	2659
1009.3398	2828.134	3553.2	2673.45
1009.4581	2829.2957	3570.35	2689.35
1009.5764	2830.4567	3582.05	2701.65
1009.6947	2831.617	3560.7	2681.3
1009.813	2832.7767	3566.85	2689.15
1009.9312	2833.9358	3565.3	2684.45
1010.0493	2835.0941	3558.7	2674.85
1010.1675	2836.2519	3539.35	2659.45
1010.2855	2837.4089	3524.4	2644.05
1010.4036	2838.5653	3514.15	2634.95
1010.5216	2839.7211	3497.65	2618.45
1010.6396	2840.8761	3504.9	2623
1010.7575	2842.0306	3501.5	2620.5
1010.8754	2843.1843	3506.6	2625.65
1010.9932	2844.3374	3500.85	2619.3
1011.111	2845.4899	3509.3	2627.7
1011.2288	2846.6417	3525.7	2645.6
1011.3465	2847.7928	3546.85	2666.65
1011.4642	2848.9433	3563.1	2681.15
1011.5818	2850.0931	3574.15	2692.05
1011.6995	2851.2422	3604.25	2720.35
1011.817	2852.3907	3626.95	2747
1011.9345	2853.5385	3637.45	2754.35
1012.052	2854.6857	3669.8	2778.6
1012.1695	2855.8323	3670.7	2792.7
1012.2869	2856.9781	3683.5	2802.05
1012.4042	2858.1233	3697.85	2817.45
1012.5216	2859.2679	3696.8	2816.85
1012.6389	2860.4118	3713.65	2831.55
1012.7561	2861.555	3727.85	2843.1
1012.8733	2862.6976	3735.1	2851.8
1012.9905	2863.8395	3754	2872.25
1013.1076	2864.9808	3760.95	2879.5
1013.2247	2866.1214	3734.5	2855.75
1013.3417	2867.2614	3747.05	2866.1
1013.4587	2868.4007	3749.6	2870.05
1013.5757	2869.5393	3744.75	2863.6
1013.6926	2870.6773	3734.95	2849.25
1013.8095	2871.8146	3740	2857.95
1013.9263	2872.9513	3722.35	2840.05
1014.0431	2874.0874	3695.45	2815.55
1014.1599	2875.2227	3682	2799.9
1014.2766	2876.3574	3681.15	2800
1014.3933	2877.4915	3660.5	2779.75
1014.51	2878.6249	3648.45	2769.15
1014.6266	2879.7577	3630.9	2748.7
1014.7431	2880.8898	3625	2733.35
1014.8596	2882.0212	3601.35	2721.65
1014.9761	2883.152	3603.2	2720.9
1015.0925	2884.2821	3586.4	2706.55
1015.2089	2885.4116	3555.45	2676.05
1015.3253	2886.5405	3551.05	2670.65
1015.4416	2887.6686	3560.2	2676.9
1015.5579	2888.7962	3548.55	2669.65
1015.6741	2889.923	3540.7	2662.9
1015.7903	2891.0493	3533.55	2654.2
1015.9065	2892.1748	3538.3	2656.65
1016.0226	2893.2997	3513.1	2631.7
1016.1387	2894.424	3518.3	2638.7
1016.2547	2895.5476	3527.55	2645.4
1016.3707	2896.6706	3526.8	2648.3
1016.4866	2897.7929	3527.9	2647.45
1016.6025	2898.9145	3531.05	2650.55
1016.7184	2900.0355	3533.8	2653.45
1016.8342	2901.1559	3522.45	2639.5
1016.95	2902.2756	3541.45	2662.25
1017.0658	2903.3946	3542.25	2662.2
1017.1815	2904.513	3546.1	2663.3
1017.2971	2905.6308	3537.8	2659.5
1017.4127	2906.7479	3568.15	2688.45
1017.5283	2907.8643	3559.65	2679.3
1017.6439	2908.9801	3534.7	2657.4
1017.7594	2910.0953	3547.9	2667.2
1017.8748	2911.2098	3549.35	2665.75
1017.9902	2912.3236	3525.75	2636.5
1018.1056	2913.4368	3522.75	2640.1
1018.2209	2914.5494	3491.35	2609.45
1018.3362	2915.6613	3483.6	2597.95
1018.4515	2916.7725	3471.4	2589.25
1018.5667	2917.8831	3448.35	2568.25
1018.6819	2918.9931	3437.3	2555.15
1018.797	2920.1024	3430.5	2549.6
1018.9121	2921.211	3407.6	2527.85
1019.0271	2922.319	3407.25	2526.25
1019.1421	2923.4264	3379.3	2497.9
1019.2571	2924.5331	3365.35	2486.65
1019.372	2925.6391	3351.9	2473.4
1019.4869	2926.7445	3351.4	2472.55
1019.6017	2927.8493	3331.55	2452.1
1019.7165	2928.9534	3351.75	2470.9
1019.8313	2930.0569	3322	2437.3
1019.946	2931.1597	3326.8	2447.05
1020.0606	2932.2619	3314.4	2434.1
1020.1753	2933.3634	3320.05	2440.35
1020.2899	2934.4643	3313.15	2424.9
1020.4044	2935.5645	3305.4	2419.15
1020.5189	2936.6641	3297.7	2412.2
1020.6334	2937.763	3270.4	2391.9
1020.7478	2938.8613	3254.55	2375.25
1020.8622	2939.959	3226.7	2342.2
1020.9765	2941.056	3189.7	2310.1
1021.0908	2942.1523	3150.7	2268.6
1021.2051	2943.248	3117.4	2237.75
1021.3193	2944.3431	3070.15	2191.6
1021.4334	2945.4375	3037.05	2155.75
1021.5476	2946.5313	2991.7	2114.05
1021.6617	2947.6244	2944.3	2065.3
1021.7757	2948.7169	2899.75	2020.15
1021.8897	2949.8087	2859.2	1979.7
1022.0037	2950.8999	2815.25	1934.25
1022.1176	2951.9904	2775.65	1896.3
1022.2315	2953.0803	2748.85	1868.75
1022.3453	2954.1696	2715.85	1834.35
1022.4591	2955.2582	2684.85	1805.75
1022.5728	2956.3462	2655.6	1774.5
1022.6865	2957.4335	2640	1759.35
1022.8002	2958.5202	2612.2	1729.4
1022.9138	2959.6062	2608.7	1728.3
1023.0274	2960.6916	2592.9	1713.7
1023.141	2961.7764	2572.35	1692.45
1023.2545	2962.8605	2554.95	1674.05
1023.3679	2963.9439	2556.5	1678.95
1023.4813	2965.0267	2551.25	1670.9
1023.5947	2966.1089	2550.75	1644.55
1023.708	2967.1905	2529.05	1648.85
1023.8213	2968.2714	2514.4	1635.6
1023.9346	2969.3516	2507.4	1627.2
1024.0478	2970.4312	2514.3	1625.85
1024.1609	2971.5102	2510.15	1628.75
1024.274	2972.5885	2491.4	1613.1
1024.3871	2973.6662	2499.35	1614.05
1024.5002	2974.7432	2494.25	1615.95
1024.6132	2975.8196	2482.9	1602.05
1024.7261	2976.8954	2470.8	1591.65
1024.839	2977.9705	2467.45	1588.35
1024.9519	2979.045	2462	1583
1025.0647	2980.1188	2443.25	1562.75
1025.1775	2981.192	2429.7	1551.35
1025.2902	2982.2645	2421.5	1540.55
1025.4029	2983.3364	2398.15	1518.75
1025.5156	2984.4077	2392.8	1513
1025.6282	2985.4783	2386.4	1500.6
1025.7407	2986.5483	2361.8	1482.65
1025.8532	2987.6177	2335.85	1456.65
1025.9657	2988.6864	2320.1	1438.45
1026.0782	2989.7545	2316.7	1434.75
1026.1906	2990.8219	2290.1	1412.1
1026.3029	2991.8887	2277.45	1396.95
1026.4152	2992.9548	2258.55	1377.75
1026.5275	2994.0204	2237.25	1360.2
1026.6397	2995.0852	2216.9	1336.9
1026.7519	2996.1495	2202.55	1324.1
1026.864	2997.2131	2202.3	1321.95
1026.9761	2998.276	2184.35	1304.05
1027.0882	2999.3383	2163.95	1283.85
1027.2002	3000.4	2154.65	1273.05
1027.3122	3001.4611	2140.8	1262.15
1027.4241	3002.5215	2125.75	1248.45
1027.536	3003.5812	2111.1	1229.9
1027.6478	3004.6404	2109.95	1230.85
1027.7596	3005.6989	2105.15	1224.1
1027.8714	3006.7567	2083.1	1202.65
1027.9831	3007.8139	2116.95	1206.1
1028.0947	3008.8705	2072.7	1191.15
1028.2064	3009.9264	2072.5	1189.6
1028.3179	3010.9818	2060.9	1180.95
1028.4295	3012.0364	2048.45	1166.9
1028.541	3013.0905	2055	1176.4
1028.6524	3014.1439	2037.45	1157.5
1028.7638	3015.1966	2030.75	1152.15
1028.8752	3016.2487	2033.8	1154.45
1028.9865	3017.3002	2026.7	1143.9
1029.0978	3018.3511	2012.05	1131.9
1029.209	3019.4013	2006.9	1129.3
1029.3202	3020.4509	2002.4	1123.45
1029.4314	3021.4998	2004.8	1124.55
1029.5425	3022.5481	1999.35	1120.3
1029.6535	3023.5958	2000.15	1121.1
1029.7645	3024.6428	1992.3	1110.15
1029.8755	3025.6892	1981.65	1104.4
1029.9864	3026.735	1972.65	1093.2
1030.0973	3027.7802	1983.7	1104.25
1030.2082	3028.8247	1972.8	1094.1
1030.319	3029.8685	1971.05	1092.1
1030.4297	3030.9118	1970.6	1090.35
1030.5404	3031.9544	1970.2	1091.55
1030.6511	3032.9963	1959.35	1080.15
1030.7617	3034.0376	1957.55	1077.6
1030.8723	3035.0783	1963.2	1081.2
1030.9829	3036.1184	1949.35	1069.9
1031.0934	3037.1578	1945.55	1067.45
1031.2038	3038.1966	1949.65	1067.5
1031.3142	3039.2348	1938.25	1061.9
1031.4246	3040.2723	1946.6	1059.7
1031.5349	3041.3092	1923.6	1045.55
1031.6452	3042.3455	1921.9	1043.5
1031.7554	3043.3811	1920.55	1040.8
1031.8656	3044.4161	1914.05	1034.2
1031.9758	3045.4505	1905.3	1026.25
1032.0859	3046.4842	1903.95	1022.15
1032.1959	3047.5173	1904.8	1025.35
1032.3059	3048.5498	1894.15	1013.5
1032.4159	3049.5816	1891	1011.45
1032.5258	3050.6128	1885.15	1003.55
1032.6357	3051.6434	1888.4	1008.75
1032.7455	3052.6734	1885.95	1004.95
1032.8553	3053.7027	1883.65	1004.1
1032.9651	3054.7314	1872.15	994.05
1033.0748	3055.7594	1865.45	987.95
1033.1845	3056.7868	1863.85	982
1033.2941	3057.8136	1855.3	978.05
1033.4037	3058.8398	1856.3	976.7
1033.5132	3059.8653	1850.2	971.85
1033.6227	3060.8902	1839.25	960.5
1033.7321	3061.9145	1840.35	961.55
1033.8415	3062.9381	1832.6	952.6
1033.9509	3063.9612	1836.75	943.3
1034.0602	3064.9835	1821.3	942.15
1034.1694	3066.0053	1820.6	937.95
1034.2787	3067.0264	1810.35	930.3
1034.3878	3068.0469	1803.75	923.5
1034.497	3069.0668	1812.5	929.9
1034.6061	3070.086	1793.25	914.55
1034.7151	3071.1046	1793.1	913.1
1034.8241	3072.1226	1786.25	906.65
1034.9331	3073.1399	1783.95	904.45
1035.042	3074.1567	1778	898.4
1035.1508	3075.1727	1767.85	886.95
1035.2597	3076.1882	1764.7	886.8
1035.3684	3077.203	1757.2	877.15
1035.4772	3078.2173	1753.9	871
1035.5859	3079.2308	1744.65	860.85
1035.6945	3080.2438	1735.75	854.55
1035.8031	3081.2561	1726.05	847.85
1035.9117	3082.2678	1722.1	843.25
1036.0202	3083.2789	1726	846.55
1036.1286	3084.2893	1716.75	838.85
1036.2371	3085.2991	1714.75	835.9
1036.3454	3086.3083	1706.95	825.15
1036.4538	3087.3169	1700.7	820.15
1036.562	3088.3248	1698.65	816.35
1036.6703	3089.3321	1692.15	812.2
1036.7785	3090.3388	1683.15	805
1036.8866	3091.3449	1684.55	805.05
1036.9948	3092.3503	1688.1	806.65
1037.1028	3093.3551	1671.5	793
1037.2108	3094.3593	1663.1	785.8
1037.3188	3095.3629	1657.8	778.2
1037.4267	3096.3658	1658.5	777.35
1037.5346	3097.3681	1654	774.45
1037.6425	3098.3698	1648.45	768.15
1037.7503	3099.3708	1647.9	763.45
1037.858	3100.3713	1640.6	761.3
1037.9657	3101.3711	1638	756.75
1038.0734	3102.3702	1753.2	738.45
1038.181	3103.3688	1642.75	760.7
1038.2886	3104.3667	1617.65	741.1
1038.3961	3105.364	1612.55	733.45
1038.5036	3106.3607	1604.15	722.55
1038.611	3107.3568	1611	731.55
1038.7184	3108.3522	1604.05	725.9
1038.8257	3109.347	1602.9	724.15
1038.933	3110.3412	1596	710.45
1039.0403	3111.3348	1592.1	712.3
1039.1475	3112.3277	1589.9	709.85
1039.2547	3113.32	1585.5	707.25
1039.3618	3114.3117	1574.8	696
1039.4689	3115.3028	1569.45	689.95
1039.5759	3116.2932	1577.25	696.35
1039.6829	3117.2831	1568.65	683.45
1039.7898	3118.2723	1559.05	679.55
1039.8967	3119.2608	1552.25	673.65
1040.0035	3120.2488	1552.85	672.7
1040.1103	3121.2361	1550.1	670.6
1040.2171	3122.2229	1543.1	664.2
1040.3238	3123.209	1546.7	665.95
1040.4305	3124.1944	1541.9	663.95
1040.5371	3125.1793	1535.05	654.5
1040.6437	3126.1635	1527	648.45
1040.7502	3127.1471	1527.5	647.6
1040.8567	3128.1301	1518.35	639.55
1040.9631	3129.1125	1522.1	643.25
1041.0695	3130.0942	1518.05	639.65
1041.1759	3131.0753	1528.45	640.9
1041.2822	3132.0558	1527.4	646.2
1041.3884	3133.0357	1509.55	627.75
1041.4946	3134.015	1511.15	631.15
1041.6008	3134.9936	1501.2	620.5
1041.7069	3135.9716	1522.9	622.35
1041.813	3136.949	1495.9	618.95
1041.919	3137.9258	1497.1	612.5
1042.025	3138.902	1497.8	613.05
1042.1309	3139.8775	1491.1	613.1
1042.2368	3140.8524	1487.2	608.75
1042.3427	3141.8267	1485.1	604.1
1042.4485	3142.8004	1481.85	602.7
1042.5542	3143.7735	1489.85	606.15
1042.6599	3144.7459	1476.3	597.4
1042.7656	3145.7178	1477.85	596.85
1042.8712	3146.689	1475.6	598.95
1042.9768	3147.6596	1476	593.75
1043.0823	3148.6295	1464.8	587.85
1043.1878	3149.5989	1465.5	587.25
1043.2932	3150.5676	1457.25	580.15
1043.3986	3151.5357	1458.3	579.55
1043.5039	3152.5032	1451.35	573.45
1043.6092	3153.4701	1447.25	568.8
1043.7145	3154.4364	1444.9	563.4
1043.8197	3155.402	1436.8	561.15
1043.9248	3156.367	1438.35	557.5
1044.03	3157.3315	1469.6	551.4
1044.135	3158.2952	1434.35	555.45
1044.24	3159.2584	1429.5	551.2
1044.345	3160.221	1420	540.45
1044.4499	3161.1829	1425.4	547.15
1044.5548	3162.1442	1419.6	539.7
1044.6596	3163.105	1419.5	539.2
1044.7644	3164.065	1413.7	536.15
1044.8692	3165.0245	1413.55	529.65
1044.9739	3165.9834	1411.1	533.8
1045.0785	3166.9416	1402.95	524.9
1045.1831	3167.8993	1404.2	527
1045.2877	3168.8563	1400.65	518.35
1045.3922	3169.8127	1398.6	521.5
1045.4966	3170.7684	1396.65	518.45
1045.6011	3171.7236	1389.35	510.05
1045.7054	3172.6782	1386.95	509.05
1045.8098	3173.6321	1388.95	508.3
1045.914	3174.5854	1384.95	501.9
1046.0183	3175.5381	1383.8	504.35
1046.1224	3176.4902	1380.55	500.95
1046.2266	3177.4417	1372.8	493.8
1046.3307	3178.3926	1369.65	491.25
1046.4347	3179.3428	1364.05	484.4
1046.5387	3180.2924	1369.55	490.5
1046.6427	3181.2415	1368.7	489.45
1046.7466	3182.1899	1358.8	479.4
1046.8504	3183.1377	1363.95	485.45
1046.9542	3184.0848	1360.25	478.95
1047.058	3185.0314	1357.25	479.75
1047.1617	3185.9773	1355.75	475.9
1047.2654	3186.9227	1352.05	474.45
1047.369	3187.8674	1348.8	470.3
1047.4726	3188.8115	1341.4	460.85
1047.5761	3189.755	1340.45	462.2
1047.6796	3190.6979	1339.25	462.6
1047.783	3191.6402	1336.6	457.25
1047.8864	3192.5818	1327.2	448.55
1047.9898	3193.5229	1346.55	451.75
1048.0931	3194.4633	1331.9	454.05
1048.1963	3195.4031	1327.3	445.8
1048.2995	3196.3423	1321.05	441.85
1048.4027	3197.2809	1327.7	448.05
1048.5058	3198.2189	1325.25	445.2
1048.6089	3199.1563	1334.95	439.55
1048.7119	3200.0931	1310.95	434.05
1048.8148	3201.0292	1315.95	436.5
1048.9178	3201.9648	1311.75	432
1049.0206	3202.8997	1313.15	432.2
1049.1235	3203.834	1307.35	427.95
1049.2262	3204.7677	1302.4	423.05
1049.329	3205.7008	1303.5	422.55
1049.4317	3206.6333	1296.9	417.65
1049.5343	3207.5652	1303.8	422.85
1049.6369	3208.4964	1301.4	423.3
1049.7394	3209.4271	1296.45	417.1
1049.8419	3210.3571	1288.55	409.5
1049.9444	3211.2865	1290.25	411.5
1050.0468	3212.2154	1287.75	405.45
1050.1491	3213.1436	1286.35	404.4
1050.2514	3214.0712	1286.55	399.55
1050.3537	3214.9982	1282.75	406.55
1050.4559	3215.9246	1269.95	389.95
1050.5581	3216.8503	1275.6	398.2
1050.6602	3217.7755	1276.35	396.15
1050.7623	3218.7001	1269.4	392.3
1050.8643	3219.624	1268.75	390.8
1050.9663	3220.5473	1269.45	391.4
1051.0682	3221.4701	1265	385.65
1051.1701	3222.3922	1270.65	391.55
1051.2719	3223.3137	1263.3	386.45
1051.3737	3224.2346	1264.85	385.8
1051.4754	3225.1549	1253.45	375.65
1051.5771	3226.0746	1252.35	373.5
1051.6788	3226.9937	1255.35	376.65
1051.7804	3227.9121	1248.9	372.15
1051.8819	3228.83	1248.3	369.2
1051.9834	3229.7473	1247.3	370.05
1052.0849	3230.6639	1247.35	367.75
1052.1863	3231.5799	1241.6	364.25
1052.2876	3232.4954	1242.4	364.65
1052.3889	3233.4102	1238.15	360.7
1052.4902	3234.3244	1237.95	358.6
1052.5914	3235.238	1234.05	356.55
1052.6926	3236.151	1257.3	354.3
1052.7937	3237.0634	1234.95	356.65
1052.8948	3237.9752	1230.75	352.45
1052.9958	3238.8864	1223.3	344.5
1053.0968	3239.797	1226.55	346.85
1053.1977	3240.7069	1219.85	339.2
1053.2986	3241.6163	1225.95	345.65
1053.3994	3242.5251	1217.9	339.35
1053.5002	3243.4332	1220.1	344.05
1053.6009	3244.3408	1212.45	333.35
1053.7016	3245.2477	1210.2	332.75
1053.8022	3246.154	1211.85	334.4
1053.9028	3247.0598	1210.15	330.8
1054.0034	3247.9649	1206.7	325.6
1054.1039	3248.8694	1208.8	330.45
1054.2043	3249.7733	1203.1	325.3
1054.3047	3250.6766	1199.95	320.9
1054.4051	3251.5793	1198.6	320.5
1054.5054	3252.4814	1197.65	320.2
1054.6056	3253.3829	1197.65	319.85
1054.7058	3254.2838	1198.7	321.65
1054.806	3255.1841	1190.35	312.65
1054.9061	3256.0838	1182.85	305.6
1055.0061	3256.9829	1182.4	304.65
1055.1062	3257.8814	1186.85	305.55
1055.2061	3258.7792	1179.15	297.8
1055.306	3259.6765	1176.7	297.1
1055.4059	3260.5731	1172.8	294.75
1055.5057	3261.4692	1167.5	288.9
1055.6055	3262.3647	1167.6	288.95
1055.7052	3263.2595	1165.5	287.25
1055.8049	3264.1538	1159.65	281.1
1055.9045	3265.0474	1161	279.65
1056.0041	3265.9404	1149.85	273.65
1056.1036	3266.8329	1146.55	267.65
1056.2031	3267.7247	1148.1	259.1
1056.3025	3268.616	1137.65	262.7
1056.4019	3269.5066	1127.05	248.2
1056.5013	3270.3966	1123.7	242.4
1056.6005	3271.286	1112.35	232.6
