Software Version:	3.9.2.0
Unit SN:	10000200
Spectrometer SN:	6960
Date:	3/6/2024 10:50:28 AM
Data Line Index:	25
Spectral Points:	2048
Integration time (ms):	125
Averages:	20
Delay (ms):	30
Sequence Number:	1
Processing:	dark subtract
Laser Power (mW):	305
Laser Current (mA):	822
Laser Diode Temp (C):	25.1
Laser Case Temp (C):	27.6
System Temp (C):	27.4
Spectrometer Temp (C):	24.7
CCD Temp (C):	0.008
Secondary Temp (C):	20.008
Heatsink Temp (C):	23.144
CCDPCB Temp (C):	36.84
SecondaryPCB Temp (C):	34.05

Wavelength	RamanShift	Raw Counts	Dark Subtracted
787.061	30.1047	1123.55	709.3
787.2016	32.3739	1157.55	745.3
787.3422	34.6426	1205.9	793.6
787.4828	36.9109	1248.6	833.55
787.6235	39.1787	1312.95	893.2
787.7642	41.4461	1371.6	947.85
787.9049	43.7131	1427.2	999.95
788.0456	45.9796	1496.55	1066.7
788.1863	48.2456	1566.8	1131.9
788.3271	50.5112	1639.3	1200.55
788.4679	52.7764	1704.8	1265
788.6087	55.0411	1785.95	1343.8
788.7496	57.3054	1866.3	1416.65
788.8904	59.5692	1963.55	1510.75
789.0313	61.8326	2062.5	1605.3
789.1722	64.0955	2160.95	1700.25
789.3132	66.3579	2301.4	1836.35
789.4541	68.6199	2465.8	1999.5
789.5951	70.8815	2701.1	2230.6
789.7361	73.1426	3205.05	2730.65
789.8771	75.4032	4500.45	4020.3
790.0181	77.6634	7805.9	7323.6
790.1592	79.9231	16346.6	15857.35
790.3003	82.1824	53747.25	53248.2
790.4414	84.4412	65535	65019.2
790.5825	86.6995	65535	64992.8
790.7237	88.9574	65535	64973.95
790.8648	91.2148	65535	64957.6
791.006	93.4717	65535	64945.8
791.1472	95.7282	65535	64938.5
791.2885	97.9842	65535	64940.05
791.4297	100.2398	65535	64936.15
791.571	102.4949	65535	64932.95
791.7123	104.7495	65535	64926.95
791.8536	107.0036	65535	64929.9
791.9949	109.2573	65535	64928.25
792.1363	111.5105	65535	64926.4
792.2777	113.7632	65535	64926.4
792.4191	116.0154	65535	64914.65
792.5605	118.2672	65535	64923.65
792.7019	120.5185	65535	64919.05
792.8434	122.7693	65535	64916.9
792.9849	125.0197	65535	64913.45
793.1264	127.2696	65535	64912.55
793.2679	129.519	65535	64909.25
793.4094	131.7679	65535	64903.1
793.551	134.0163	65535	64897.3
793.6926	136.2642	65535	64895.85
793.8342	138.5117	65535	64887.9
793.9758	140.7587	65535	64893.05
794.1175	143.0052	65535	64892.85
794.2591	145.2512	65535	64892.1
794.4008	147.4967	65535	64890.75
794.5425	149.7417	65535	64890.05
794.6842	151.9863	65535	64883
794.826	154.2304	65535	64881.1
794.9677	156.4739	65535	64873.1
795.1095	158.717	65535	64873.3
795.2513	160.9596	65535	64872.85
795.3931	163.2017	65535	64867.95
795.535	165.4433	65535	64866.45
795.6768	167.6844	65535	64862.7
795.8187	169.925	65535	64861.2
795.9606	172.1651	65535	64858.4
796.1025	174.4047	65535	64855.7
796.2445	176.6439	65535	64853.9
796.3864	178.8825	65535	64852.5
796.5284	181.1206	65535	64844.6
796.6704	183.3582	65535	64839.65
796.8124	185.5954	65535	64841.4
796.9544	187.832	65535	64835.6
797.0965	190.0681	65535	64835.2
797.2386	192.3037	65535	64831.6
797.3806	194.5388	65535	64824.45
797.5228	196.7734	65535	64827.85
797.6649	199.0075	65535	64821.85
797.807	201.2411	65535	64821.6
797.9492	203.4742	65535	64820
798.0914	205.7068	65535	64820.75
798.2336	207.9389	65535	64818.45
798.3758	210.1704	65535	64813.5
798.518	212.4015	65535	64813.5
798.6603	214.632	65535	64822.55
798.8025	216.862	65535	64833.15
798.9448	219.0915	65535	64838.25
799.0871	221.3205	65535	64830.9
799.2294	223.549	65535	64835.1
799.3718	225.777	65535	64837.8
799.5141	228.0044	65535	64827.65
799.6565	230.2314	65535	64834.35
799.7989	232.4578	65535	64830.8
799.9413	234.6837	65535	64818.75
800.0837	236.909	65535	64820.65
800.2262	239.1339	65535	64793.25
800.3687	241.3582	65535	64807.45
800.5111	243.582	65535	64777.5
800.6536	245.8053	65535	64790.6
800.7961	248.0281	65535	64796.5
800.9387	250.2503	65535	64792.3
801.0812	252.472	65535	64787.9
801.2238	254.6932	65535	64785.45
801.3664	256.9139	65535	64788.35
801.509	259.134	65535	64785.15
801.6516	261.3536	65535	64784.5
801.7942	263.5727	65535	64782.5
801.9369	265.7912	65535	64787.6
802.0795	268.0092	65535	64783.15
802.2222	270.2267	65535	64780.15
802.3649	272.4436	65535	64780.6
802.5076	274.6601	65535	64773.85
802.6504	276.8759	65535	64775.25
802.7931	279.0913	65535	64774.75
802.9359	281.3061	65535	64771.55
803.0787	283.5204	65535	64768.95
803.2215	285.7341	65535	64769.4
803.3643	287.9473	65535	64755.85
803.5071	290.16	65535	64761.85
803.6499	292.3721	65535	64766.9
803.7928	294.5837	65535	64769.9
803.9357	296.7947	65535	64767.1
804.0786	299.0052	65535	64768.45
804.2215	301.2152	65535	64763.25
804.3644	303.4246	65535	64767.25
804.5074	305.6334	65535	64768.05
804.6503	307.8418	65535	64765.85
804.7933	310.0495	65535	64763.9
804.9363	312.2568	65535	64763.85
805.0793	314.4635	65535	64759.85
805.2223	316.6696	65535	64756.85
805.3653	318.8752	65535	64748.45
805.5084	321.0802	65535	64757.85
805.6514	323.2847	65535	64753.35
805.7945	325.4887	65535	64754.9
805.9376	327.692	65535	64755.3
806.0807	329.8949	65535	64752.35
806.2238	332.0972	65535	64750.9
806.367	334.2989	65535	64746.5
806.5101	336.5001	65535	64745
806.6533	338.7007	65535	64746.15
806.7965	340.9008	65535	64745.75
806.9397	343.1003	65535	64744.8
807.0829	345.2992	65535	64742.7
807.2261	347.4976	65535	64740.6
807.3693	349.6955	65535	64737.15
807.5126	351.8927	65535	64735.7
807.6559	354.0895	65535	64728.1
807.7991	356.2856	65535	64735.4
807.9424	358.4812	65535	64736.8
808.0857	360.6763	65535	64731.55
808.2291	362.8707	65535	64732.4
808.3724	365.0646	65535	64727.35
808.5158	367.258	65535	64723.65
808.6591	369.4508	65535	64722.05
808.8025	371.643	65535	64725.15
808.9459	373.8346	65535	64722.2
809.0893	376.0257	65535	64719.75
809.2327	378.2162	65535	64718.1
809.3762	380.4062	65535	64712.45
809.5196	382.5956	65535	64712.75
809.6631	384.7844	65535	64718.1
809.8066	386.9726	65535	64719.35
809.9501	389.1603	65535	64722.35
810.0936	391.3474	65535	64677.35
810.2371	393.5339	65535	64718.95
810.3806	395.7199	65535	64725.5
810.5241	397.9052	65535	64727.8
810.6677	400.09	65535	64726.5
810.8113	402.2743	65535	64724.3
810.9548	404.4579	65535	64727.55
811.0984	406.641	65535	64723.9
811.2421	408.8235	65535	64721.5
811.3857	411.0054	65535	64721.25
811.5293	413.1868	65535	64716.95
811.673	415.3675	65535	64719.85
811.8166	417.5477	65535	64717.6
811.9603	419.7273	65535	64713
812.104	421.9064	65535	64702.9
812.2477	424.0848	65535	64707.5
812.3914	426.2627	65535	64707.65
812.5351	428.4399	65535	64708.05
812.6788	430.6166	65535	64702.5
812.8226	432.7928	65535	64704.1
812.9663	434.9683	65535	64703.6
813.1101	437.1432	65535	64697.85
813.2539	439.3176	65535	64697.8
813.3977	441.4914	65535	64701.7
813.5415	443.6645	65535	64696.4
813.6853	445.8371	65535	64698.15
813.8291	448.0091	65535	64697.9
813.973	450.1806	65535	64702.15
814.1168	452.3514	65535	64695
814.2607	454.5216	65535	64687.85
814.4046	456.6913	65535	64698.85
814.5485	458.8603	65535	64696.5
814.6924	461.0288	65535	64697
814.8363	463.1967	65535	64698.15
814.9802	465.3639	65535	64694.4
815.1241	467.5306	65535	64696.4
815.2681	469.6967	65535	64695.7
815.412	471.8622	65535	64696.55
815.556	474.0271	65535	64699.75
815.7	476.1914	65535	64692.4
815.844	478.3551	65535	64695
815.988	480.5182	65535	64692.15
816.132	482.6807	65535	64696.1
816.276	484.8426	65535	64693.6
816.4201	487.0039	65535	64689.55
816.5641	489.1647	65535	64691
816.7082	491.3248	65535	64688.95
816.8522	493.4843	65535	64689.7
816.9963	495.6432	65535	64690.4
817.1404	497.8015	65535	64687.95
817.2845	499.9592	65535	64690.45
817.4286	502.1163	65535	64686.6
817.5727	504.2728	65535	64684.8
817.7168	506.4287	65535	64691.35
817.861	508.5839	65535	64690.95
818.0051	510.7386	65535	64684.65
818.1493	512.8927	65535	64682.1
818.2935	515.0461	65535	64683.55
818.4377	517.199	65535	64686.4
818.5818	519.3512	65535	64685.2
818.726	521.5029	65535	64678.75
818.8703	523.6539	65535	64680.55
819.0145	525.8043	65535	64685.85
819.1587	527.9541	65535	64677.3
819.303	530.1033	65535	64680.25
819.4472	532.2519	65535	64680.5
819.5915	534.3999	65535	64676.85
819.7357	536.5472	65535	64680.25
819.88	538.694	65535	64678.7
820.0243	540.8401	65535	64675.85
820.1686	542.9856	65535	64675.8
820.3129	545.1305	65535	64671.65
820.4572	547.2748	65535	64675.85
820.6016	549.4185	65535	64669.4
820.7459	551.5615	65535	64675.1
820.8902	553.704	65535	64670
821.0346	555.8458	65535	64677.25
821.1789	557.987	65535	64675.45
821.3233	560.1276	65535	64675.45
821.4677	562.2675	65535	64677.5
821.6121	564.4069	65535	64675.1
821.7565	566.5456	65535	64676.85
821.9009	568.6837	65535	64675.4
822.0453	570.8212	65535	64675.3
822.1897	572.958	65535	64670.85
822.3342	575.0942	65535	64677.65
822.4786	577.2299	65535	64674.6
822.6231	579.3648	65535	64676.25
822.7675	581.4992	65535	64672.95
822.912	583.6329	65535	64677.85
823.0565	585.766	65535	64674.3
823.201	587.8985	65535	64675
823.3454	590.0304	65535	64649.25
823.4899	592.1616	65535	64668.15
823.6345	594.2922	65535	64672
823.779	596.4222	65535	64668.95
823.9235	598.5515	65535	64667.1
824.068	600.6802	65535	64669.85
824.2126	602.8083	65535	64667.55
824.3571	604.9358	65535	64668
824.5017	607.0626	65535	64668.35
824.6462	609.1888	65535	64662.85
824.7908	611.3144	65535	64665.7
824.9354	613.4393	65535	64669.25
825.08	615.5636	65535	64665.75
825.2246	617.6873	65535	64665.05
825.3692	619.8103	65535	64666.5
825.5138	621.9327	65535	64662
825.6584	624.0544	65535	64667.25
825.803	626.1756	65535	64664.2
825.9477	628.2961	65535	64662.2
826.0923	630.4159	65535	64663.25
826.237	632.5351	65535	64664.85
826.3816	634.6537	65535	64662.05
826.5263	636.7716	65535	64661.4
826.6709	638.8889	65535	64662.9
826.8156	641.0056	65535	64663.65
826.9603	643.1216	65535	64660.85
827.105	645.237	65535	64660.7
827.2497	647.3518	65535	64663.6
827.3944	649.4659	65535	64663.35
827.5391	651.5793	65535	64660.05
827.6838	653.6922	65535	64660.85
827.8285	655.8043	65535	64662.85
827.9733	657.9159	65535	64659.8
828.118	660.0268	65535	64657.2
828.2627	662.137	65535	64657.55
828.4075	664.2466	65535	64659.15
828.5522	666.3556	65535	64656.9
828.697	668.4639	65535	64654.75
828.8418	670.5716	65535	64660.15
828.9865	672.6786	65535	64657.9
829.1313	674.785	65535	64656.35
829.2761	676.8907	65535	64657.75
829.4209	678.9958	65535	64657.45
829.5657	681.1002	65535	64655.3
829.7105	683.204	65535	64649.2
829.8553	685.3072	65535	64654.35
830.0001	687.4097	65535	64655.85
830.1449	689.5115	65535	64651
830.2898	691.6127	65535	64657.9
830.4346	693.7132	65535	64655.6
830.5794	695.8131	65535	64637.25
830.7243	697.9123	65535	64652.55
830.8691	700.0109	65535	64651.1
831.014	702.1089	65535	64655.6
831.1588	704.2061	65535	64655
831.3037	706.3028	65535	64653.6
831.4486	708.3987	65535	64654.2
831.5935	710.4941	65535	64651.15
831.7383	712.5887	65535	64653.45
831.8832	714.6827	65535	64651.6
832.0281	716.7761	65535	64651.45
832.173	718.8688	65535	64651.65
832.3179	720.9608	65535	64648.45
832.4628	723.0522	65535	64648
832.6077	725.1429	65535	64648.85
832.7527	727.233	65535	64650.1
832.8976	729.3224	65535	64651.75
833.0425	731.4112	65535	64651.15
833.1874	733.4993	65535	64648.6
833.3324	735.5867	65535	64647.7
833.4773	737.6735	65535	64647.05
833.6222	739.7596	65535	64650.55
833.7672	741.845	65535	64648.85
833.9122	743.9298	65535	64647.2
834.0571	746.014	65535	64652.55
834.2021	748.0974	65535	64646.4
834.347	750.1802	65535	64648.5
834.492	752.2624	65535	64644.45
834.637	754.3439	65535	64645.8
834.782	756.4247	65535	64637.7
834.9269	758.5048	65535	64647.25
835.0719	760.5843	65535	64650.75
835.2169	762.6631	65535	64648.6
835.3619	764.7413	65535	64650.3
835.5069	766.8188	65535	64646
835.6519	768.8956	65535	64645.85
835.7969	770.9718	65535	64648.55
835.9419	773.0473	65535	64648.2
836.0869	775.1221	65535	64646.9
836.232	777.1962	65535	64646.2
836.377	779.2697	65535	64646.05
836.522	781.3426	65535	64624.55
836.667	783.4147	65535	64641.8
836.8121	785.4862	65535	64648.25
836.9571	787.557	65535	64646.35
837.1021	789.6271	65535	64643.4
837.2472	791.6966	65535	64644.45
837.3922	793.7654	65535	64643.7
837.5373	795.8335	65535	64645.4
837.6823	797.901	65535	64646.7
837.8274	799.9678	65535	64643.05
837.9724	802.0339	65535	64646.25
838.1175	804.0993	65535	64634.65
838.2626	806.1641	65535	64643.95
838.4076	808.2282	65535	64645.15
838.5527	810.2916	65535	64643.75
838.6978	812.3544	65535	64647.95
838.8428	814.4164	65535	64647.55
838.9879	816.4778	65535	64642.3
839.133	818.5385	65535	64645.85
839.2781	820.5986	65535	64642.6
839.4232	822.658	65535	64642.15
839.5682	824.7166	65535	64645.05
839.7133	826.7747	65535	64643.5
839.8584	828.832	65535	64643.25
840.0035	830.8886	65535	64639.65
840.1486	832.9446	65535	64639.75
840.2937	834.9999	65535	64645.15
840.4388	837.0545	65535	64639.35
840.5839	839.1085	65535	64642.7
840.729	841.1618	65535	64637.5
840.8741	843.2143	65535	64641.4
841.0192	845.2662	65535	64639.65
841.1643	847.3175	65535	64641.2
841.3095	849.368	65535	64643.15
841.4546	851.4179	65535	64643.65
841.5997	853.467	65535	64641.75
841.7448	855.5155	65535	64642.45
841.8899	857.5633	65535	64643.3
842.0351	859.6105	65535	64643.65
842.1802	861.6569	65535	64641.7
842.3253	863.7027	65535	64640
842.4704	865.7478	65535	64639.9
842.6156	867.7922	65535	64641.75
842.7607	869.8359	65535	64641
842.9058	871.8789	65535	64637.85
843.0509	873.9212	65535	64606.45
843.1961	875.9629	65535	64639.7
843.3412	878.0039	65535	64638.25
843.4863	880.0441	65535	64641.85
843.6315	882.0837	65535	64641.5
843.7766	884.1226	65535	64639.4
843.9218	886.1609	65535	64642.05
844.0669	888.1984	65535	64640.1
844.212	890.2352	65535	64640.4
844.3572	892.2714	65535	64635.7
844.5023	894.3069	65535	64639.85
844.6475	896.3416	65535	64640.45
844.7926	898.3757	65535	64638.95
844.9377	900.4091	65535	64638.25
845.0829	902.4418	65535	64635.5
845.228	904.4739	65535	64634.25
845.3732	906.5052	65535	64636.35
845.5183	908.5358	65535	64638.6
845.6635	910.5658	65535	64635.7
845.8086	912.595	65535	64642.15
845.9538	914.6236	65535	64640.2
846.0989	916.6515	65535	64640.85
846.2441	918.6786	65535	64638.85
846.3892	920.7051	65535	64636.3
846.5344	922.7309	65535	64637.95
846.6795	924.756	65535	64637.35
846.8246	926.7804	65535	64637.55
846.9698	928.8041	65535	64637.35
847.1149	930.8272	65535	64635.75
847.2601	932.8495	65535	64639.5
847.4052	934.8711	65535	64635.8
847.5504	936.892	65535	64637.7
847.6955	938.9123	65535	64636.55
847.8407	940.9318	65535	64638.55
847.9858	942.9506	65535	64637.5
848.131	944.9688	65535	64638
848.2761	946.9862	65535	64637.45
848.4213	949.003	65535	64637
848.5664	951.019	65535	64639
848.7115	953.0344	65535	64637.75
848.8567	955.0491	65535	64636.6
849.0018	957.063	65535	64638.3
849.147	959.0763	65535	64638.95
849.2921	961.0888	65535	64634.8
849.4373	963.1007	65535	64637.5
849.5824	965.1119	65535	64637.5
849.7275	967.1223	65535	64638.3
849.8727	969.1321	65535	64639.9
850.0178	971.1412	65535	64639.45
850.1629	973.1495	65535	64637.55
850.3081	975.1572	65535	64602.2
850.4532	977.1641	65535	64636.45
850.5983	979.1704	65535	64637.75
850.7435	981.1759	65535	64633.65
850.8886	983.1808	65535	64636.35
851.0337	985.1849	65535	64626.45
851.1788	987.1884	65535	64635.35
851.324	989.1911	65535	64633.6
851.4691	991.1932	65535	64636.7
851.6142	993.1945	65535	64637.8
851.7593	995.1951	65535	64636.35
851.9045	997.1951	65535	64631.45
852.0496	999.1943	65535	64636.65
852.1947	1001.1928	65535	64635.85
852.3398	1003.1906	65535	64635.15
852.4849	1005.1877	65535	64635.45
852.63	1007.1841	65535	64633.5
852.7751	1009.1798	65535	64638
852.9202	1011.1748	65535	64637.05
853.0653	1013.1691	65535	64635.35
853.2104	1015.1627	65535	64637.75
853.3555	1017.1556	65535	64635.35
853.5006	1019.1477	65535	64633.95
853.6457	1021.1392	65535	64639.8
853.7908	1023.1299	65535	64635.85
853.9359	1025.12	65535	64633.85
854.081	1027.1093	65535	64639.6
854.2261	1029.0979	65535	64642.85
854.3712	1031.0859	65535	64640.6
854.5163	1033.0731	65535	64639.45
854.6613	1035.0596	65535	64637.35
854.8064	1037.0454	65535	64635.4
854.9515	1039.0304	65535	64633.9
855.0965	1041.0148	65535	64636.2
855.2416	1042.9985	65535	64633.75
855.3867	1044.9814	65535	64635.65
855.5317	1046.9636	65535	64634.6
855.6768	1048.9452	65535	64638.4
855.8219	1050.926	65535	64638.9
855.9669	1052.9061	65535	64637.9
856.112	1054.8855	65535	64635.9
856.257	1056.8642	65535	64635.55
856.4021	1058.8421	65535	64632.6
856.5471	1060.8194	65535	64635.15
856.6921	1062.7959	65535	64635.5
856.8372	1064.7717	65535	64635
856.9822	1066.7469	65535	64634.75
857.1272	1068.7213	65535	64631.65
857.2723	1070.695	65535	64636.1
857.4173	1072.6679	65535	64637.45
857.5623	1074.6402	65535	64636.45
857.7073	1076.6117	65535	64628.85
857.8523	1078.5826	65535	64634.9
857.9973	1080.5527	65535	64631.95
858.1423	1082.5221	65535	64636.35
858.2873	1084.4908	65535	64636.1
858.4323	1086.4587	65535	64635.25
858.5773	1088.426	65535	64634.85
858.7223	1090.3925	65535	64628.1
858.8673	1092.3584	65535	64633.9
859.0123	1094.3235	65535	64635.85
859.1573	1096.2879	65535	64632.75
859.3022	1098.2515	65535	64636
859.4472	1100.2145	65535	64639
859.5922	1102.1767	65535	64632.65
859.7371	1104.1382	65535	64634.4
859.8821	1106.099	65535	64632.2
860.027	1108.0591	65535	64635.15
860.172	1110.0185	65535	64634.7
860.3169	1111.9771	65535	64633.45
860.4619	1113.9351	65535	64635.25
860.6068	1115.8923	65535	64635.75
860.7517	1117.8488	65535	64632.65
860.8967	1119.8045	65535	64636.4
861.0416	1121.7596	65535	64632.9
861.1865	1123.7139	65535	64635.9
861.3314	1125.6675	65535	64633.85
861.4763	1127.6204	65535	64636.15
861.6212	1129.5726	65535	64632.75
861.7661	1131.524	65535	64635.2
861.911	1133.4748	65535	64633.85
862.0559	1135.4248	65535	64635.6
862.2008	1137.3741	65535	64637.3
862.3457	1139.3226	65535	64632.5
862.4905	1141.2705	65535	64635.1
862.6354	1143.2176	65535	64630.65
862.7803	1145.164	65535	64631.3
862.9251	1147.1097	65535	64634.65
863.07	1149.0546	65535	64633.25
863.2148	1150.9989	65535	64633.7
863.3597	1152.9424	65535	64634.95
863.5045	1154.8852	65535	64633.6
863.6493	1156.8272	65535	64636.4
863.7942	1158.7686	65535	64627.45
863.939	1160.7092	65535	64632.2
864.0838	1162.6491	65535	64632.8
864.2286	1164.5883	65535	64634.3
864.3734	1166.5267	65535	64635.5
864.5182	1168.4644	65535	64632.65
864.663	1170.4014	65535	64629.75
864.8078	1172.3377	65535	64634.1
864.9526	1174.2732	65535	64635.15
865.0974	1176.2081	65535	64635.15
865.2421	1178.1421	65535	64631.5
865.3869	1180.0755	65535	64634.9
865.5317	1182.0082	65535	64636.45
865.6764	1183.9401	65535	64635.25
865.8212	1185.8713	65535	64635.75
865.9659	1187.8017	65535	64636
866.1106	1189.7315	65535	64636.75
866.2554	1191.6605	65535	64607.45
866.4001	1193.5888	65535	64637.25
866.5448	1195.5163	65535	64637.4
866.6895	1197.4432	65535	64636
866.8342	1199.3693	65535	64634.1
866.9789	1201.2947	65535	64634
867.1236	1203.2193	65535	64633.95
867.2683	1205.1432	65535	64634.95
867.413	1207.0664	65535	64635.75
867.5576	1208.9889	65535	64633.2
867.7023	1210.9106	65535	64635.7
867.847	1212.8316	65535	64636.3
867.9916	1214.7519	65535	64627.5
868.1363	1216.6715	65535	64636.1
868.2809	1218.5903	65535	64635.5
868.4255	1220.5084	65535	64636
868.5701	1222.4257	65535	64636.15
868.7148	1224.3424	65535	64638.35
868.8594	1226.2583	65535	64631.8
869.004	1228.1735	65535	64633.35
869.1486	1230.0879	65535	64635.65
869.2932	1232.0016	65535	64634.9
869.4377	1233.9146	65535	64634.25
869.5823	1235.8269	65535	64635.95
869.7269	1237.7384	65535	64633.1
869.8715	1239.6492	65535	64634.95
870.016	1241.5592	65535	64634.15
870.1606	1243.4686	65535	64634.7
870.3051	1245.3772	65535	64638.2
870.4496	1247.285	65535	64635.3
870.5941	1249.1922	65535	64634.15
870.7387	1251.0986	65535	64635.8
870.8832	1253.0042	65535	64633.55
871.0277	1254.9092	65535	64636.2
871.1722	1256.8134	65535	64635.05
871.3167	1258.7169	65535	64633.75
871.4611	1260.6196	65535	64637.9
871.6056	1262.5216	65535	64633.8
871.7501	1264.4229	65535	64635.85
871.8945	1266.3234	65535	64634.05
872.039	1268.2232	65535	64636
872.1834	1270.1223	65535	64632.8
872.3278	1272.0207	65535	64634.6
872.4723	1273.9183	65535	64630
872.6167	1275.8151	65535	64633.6
872.7611	1277.7113	65535	64635.25
872.9055	1279.6067	65535	64637.9
873.0499	1281.5014	65535	64634.65
873.1943	1283.3953	65535	64632.8
873.3386	1285.2885	65535	64635.55
873.483	1287.181	65535	64633.05
873.6274	1289.0727	65535	64635.65
873.7717	1290.9637	65535	64633.65
873.9161	1292.854	65535	64637.25
874.0604	1294.7435	65535	64635.25
874.2047	1296.6323	65535	64634.9
874.349	1298.5204	65535	64630.8
874.4933	1300.4077	65535	64634.65
874.6376	1302.2943	65535	64637.4
874.7819	1304.1802	65535	64635.3
874.9262	1306.0653	65535	64632.75
875.0705	1307.9497	65535	64637
875.2147	1309.8333	65535	64635.75
875.359	1311.7162	65535	64632.1
875.5032	1313.5984	65535	64632.05
875.6475	1315.4798	65535	64624.25
875.7917	1317.3605	65535	64619.15
875.9359	1319.2405	65535	64632.8
876.0801	1321.1197	65535	64635.05
876.2243	1322.9982	65535	64630.1
876.3685	1324.876	65535	64635.05
876.5127	1326.753	65535	64635.15
876.6569	1328.6293	65535	64632.2
876.801	1330.5048	65535	64633.15
876.9452	1332.3796	65535	64634.65
877.0893	1334.2537	65535	64610.4
877.2335	1336.127	65535	64635.35
877.3776	1337.9996	65535	64635.65
877.5217	1339.8714	65535	64634.7
877.6658	1341.7426	65535	64593.9
877.8099	1343.6129	65535	64633.95
877.954	1345.4826	65535	64634.2
878.0981	1347.3515	65535	64634.85
878.2422	1349.2196	65535	64635.55
878.3862	1351.087	65535	64636.2
878.5303	1352.9537	65535	64634.05
878.6743	1354.8197	65535	64635.25
878.8184	1356.6849	65535	64634.75
878.9624	1358.5493	65535	64636.1
879.1064	1360.4131	65535	64637.25
879.2504	1362.276	65535	64638.15
879.3944	1364.1383	65535	64635.15
879.5384	1365.9998	65535	64627.05
879.6823	1367.8606	65535	64632.8
879.8263	1369.7206	65535	64636.75
879.9702	1371.5799	65535	64632.7
880.1142	1373.4384	65535	64633.35
880.2581	1375.2962	65535	64632.45
880.402	1377.1533	65535	64633.85
880.5459	1379.0096	65535	64634.4
880.6898	1380.8652	65535	64634.75
880.8337	1382.7201	65535	64635.05
880.9776	1384.5742	65535	64634.95
881.1215	1386.4275	65535	64633.15
881.2653	1388.2802	65535	64636.5
881.4092	1390.132	65535	64633.3
881.553	1391.9832	65535	64633.7
881.6968	1393.8336	65535	64632.45
881.8406	1395.6832	65535	64633.65
881.9844	1397.5322	65535	64636.15
882.1282	1399.3803	65535	64631.1
882.272	1401.2278	65535	64634.6
882.4158	1403.0745	65535	64637.55
882.5595	1404.9204	65535	64637.25
882.7033	1406.7656	65535	64636.6
882.847	1408.6101	65535	64634.65
882.9908	1410.4538	65535	64633.25
883.1345	1412.2968	65535	64635.4
883.2782	1414.139	65535	64633.85
883.4219	1415.9805	65535	64636.85
883.5656	1417.8213	65535	64628.6
883.7092	1419.6613	65535	64636.3
883.8529	1421.5006	65535	64635.7
883.9965	1423.3391	65535	64635.45
884.1402	1425.1769	65535	64635.3
884.2838	1427.0139	65535	64632.55
884.4274	1428.8502	65535	64633.85
884.571	1430.6858	65535	64635.35
884.7146	1432.5206	65535	64634.1
884.8582	1434.3547	65535	64633.6
885.0018	1436.188	65535	64635.5
885.1453	1438.0206	65535	64635.05
885.2889	1439.8524	65535	64636.7
885.4324	1441.6835	65535	64633.85
885.5759	1443.5139	65535	64633.7
885.7194	1445.3435	65535	64633.25
885.8629	1447.1724	65535	64635.95
886.0064	1449.0005	65535	64635.9
886.1499	1450.8279	65535	64634.3
886.2933	1452.6545	65535	64635.55
886.4368	1454.4804	65535	64633.45
886.5802	1456.3056	65535	64629.9
886.7237	1458.13	65535	64634.6
886.8671	1459.9536	65535	64637.3
887.0105	1461.7766	65535	64639.3
887.1539	1463.5987	65535	64634.95
887.2972	1465.4202	65535	64633.55
887.4406	1467.2409	65535	64635.8
887.584	1469.0608	65535	64634.8
887.7273	1470.88	65535	64634.85
887.8706	1472.6984	65535	64636
888.0139	1474.5161	65535	64632.95
888.1572	1476.3331	65535	64636.85
888.3005	1478.1493	65535	64635.9
888.4438	1479.9648	65535	64637.2
888.5871	1481.7795	65535	64636.55
888.7303	1483.5935	65535	64635.55
888.8736	1485.4067	65535	64636.85
889.0168	1487.2192	65535	64635.85
889.16	1489.031	65535	64634.85
889.3032	1490.842	65535	64635.7
889.4464	1492.6522	65535	64636.4
889.5896	1494.4618	65535	64633.8
889.7327	1496.2705	65535	64634.95
889.8759	1498.0785	65535	64635.1
890.019	1499.8858	65535	64633.65
890.1622	1501.6924	65535	64635.25
890.3053	1503.4981	65535	64635.55
890.4484	1505.3032	65535	64636.75
890.5914	1507.1075	65535	64633.9
890.7345	1508.911	65535	64635.5
890.8776	1510.7138	65535	64635.85
891.0206	1512.5159	65535	64637.2
891.1637	1514.3172	65535	64635.85
891.3067	1516.1178	65535	64635.75
891.4497	1517.9176	65535	64632.6
891.5927	1519.7166	65535	64634.4
891.7357	1521.515	65535	64631.5
891.8786	1523.3126	65535	64638.5
892.0216	1525.1094	65535	64632.55
892.1645	1526.9055	65535	64638.4
892.3074	1528.7008	65535	64636.4
892.4503	1530.4954	65535	64630.8
892.5932	1532.2893	65535	64637.5
892.7361	1534.0824	65535	64633.5
892.879	1535.8747	65535	64637
893.0218	1537.6663	65535	64636.05
893.1647	1539.4572	65535	64635.45
893.3075	1541.2473	65535	64634.45
893.4503	1543.0367	65535	64636
893.5931	1544.8253	65535	64632.25
893.7359	1546.6132	65535	64633.6
893.8787	1548.4003	65535	64625.4
894.0214	1550.1867	65535	64629.25
894.1642	1551.9723	65535	64632.45
894.3069	1553.7572	65535	64637.25
894.4496	1555.5414	65535	64639.15
894.5923	1557.3247	65533.25	64636.55
894.735	1559.1074	65535	64638.9
894.8777	1560.8893	65535	64637.35
895.0204	1562.6705	65535	64638.8
895.163	1564.4509	65535	64637.1
895.3056	1566.2305	65535	64638.05
895.4482	1568.0094	65535	64639.9
895.5908	1569.7876	65535	64637.75
895.7334	1571.565	65535	64637.7
895.876	1573.3417	65535	64639
896.0186	1575.1176	65535	64639.5
896.1611	1576.8928	65535	64639.65
896.3036	1578.6672	65510.3	64614.4
896.4461	1580.4409	65531.05	64637.4
896.5886	1582.2138	65468.65	64569.7
896.7311	1583.986	65503.55	64605.75
896.8736	1585.7575	65373.9	64479.15
897.0161	1587.5282	65446.45	64550.75
897.1585	1589.2981	65439.85	64544.65
897.3009	1591.0673	65253.95	64358.35
897.4433	1592.8358	65007.35	64112.4
897.5857	1594.6035	65266.4	64371.25
897.7281	1596.3704	65302.5	64405.85
897.8705	1598.1366	64793.35	63897.3
898.0128	1599.9021	64425.65	63528.85
898.1551	1601.6668	64989.8	64090.5
898.2975	1603.4308	64716.9	63821.05
898.4398	1605.194	64754.7	63852.65
898.5821	1606.9564	63890.2	62994.8
898.7243	1608.7182	64328.55	63429.9
898.8666	1610.4791	63854.65	62958.65
899.0088	1612.2394	64391.6	63498.85
899.1511	1613.9988	63728.95	62835.25
899.2933	1615.7576	64470.45	63574.45
899.4355	1617.5156	64436.2	63534.85
899.5776	1619.2728	64939	64042.85
899.7198	1621.0293	63923.25	63027.5
899.862	1622.785	63960.05	63060.9
900.0041	1624.54	64353.6	63457.15
900.1462	1626.2942	63664.1	62766.6
900.2883	1628.0477	62689.75	61793.1
900.4304	1629.8005	61978.7	61082.45
900.5725	1631.5525	62777.5	61881.7
900.7145	1633.3037	61529.95	60634.7
900.8566	1635.0542	61430.35	60533.75
900.9986	1636.804	61884.2	60988.55
901.1406	1638.553	60716.35	59712.7
901.2826	1640.3013	61072.5	60175.65
901.4245	1642.0488	60348.2	59450.55
901.5665	1643.7955	60875.8	59983.3
901.7085	1645.5416	60293.75	59398.25
901.8504	1647.2868	59872.8	58978.85
901.9923	1649.0313	60634.35	59740.35
902.1342	1650.7751	60137.3	59239
902.2761	1652.5181	59716.2	58820.45
902.4179	1654.2604	59822.85	58925.35
902.5598	1656.0019	60274.55	59380.2
902.7016	1657.7427	60073.65	59178.4
902.8434	1659.4828	60705.3	59811.3
902.9852	1661.222	60206.75	59311
903.127	1662.9606	60674.8	59779.75
903.2687	1664.6984	59831.1	58936.1
903.4105	1666.4354	59991.95	59095.5
903.5522	1668.1717	58823.65	57929.35
903.6939	1669.9072	58052.45	57158.45
903.8356	1671.642	57800.5	56903.3
903.9773	1673.3761	57458.6	56565.75
904.119	1675.1094	57158	56261.9
904.2606	1676.8419	56565.45	55670
904.4022	1678.5737	56419.25	55526.8
904.5439	1680.3048	56083.5	55189.25
904.6855	1682.0351	55810.9	54917
904.827	1683.7646	55508.05	54609.1
904.9686	1685.4934	55588	54693.6
905.1101	1687.2215	54619.45	53723.7
905.2517	1688.9488	55091.95	54197.35
905.3932	1690.6754	53867.4	52974.3
905.5347	1692.4012	54265.6	53370.8
905.6761	1694.1263	54102.55	53205.8
905.8176	1695.8506	53816.65	52920.5
905.9591	1697.5742	53635.05	52740.9
906.1005	1699.297	53373.1	52480.3
906.2419	1701.0191	53211.35	52316.3
906.3833	1702.7404	52785.8	51891.2
906.5246	1704.461	52488.35	51594.5
906.666	1706.1808	52378.2	51482.4
906.8073	1707.8999	52289.8	51395.2
906.9487	1709.6182	52049.75	51155.5
907.09	1711.3358	51934.75	51039.6
907.2313	1713.0527	51723.65	50832.25
907.3725	1714.7688	51649.8	50750.8
907.5138	1716.4841	51107	50212
907.655	1718.1987	51184.85	50285.5
907.7962	1719.9126	50962.25	50070.5
907.9374	1721.6257	50800.55	49904.4
908.0786	1723.338	50845.7	49951.6
908.2198	1725.0496	50199.45	49304.05
908.3609	1726.7605	50199	49304.9
908.502	1728.4706	50014.55	49119.95
908.6431	1730.18	49747.45	48852
908.7842	1731.8886	49592.9	48699.95
908.9253	1733.5964	49472.1	48558.9
909.0664	1735.3036	49395.3	48499.85
909.2074	1737.0099	49178.35	48282.5
909.3484	1738.7156	48987.5	48095.2
909.4894	1740.4204	48687.95	47791.3
909.6304	1742.1246	48691.3	47796.4
909.7714	1743.8279	48543.45	47649.75
909.9123	1745.5306	48465.9	47570.9
910.0532	1747.2325	48177.35	47283.1
910.1941	1748.9336	48043.9	47151.75
910.335	1750.634	47779.75	46883.8
910.4759	1752.3336	47786	46894.3
910.6168	1754.0325	47644.85	46752.85
910.7576	1755.7307	47562.05	46669.5
910.8984	1757.4281	47484.85	46589.8
911.0392	1759.1247	47359.45	46456.55
911.18	1760.8206	47221.15	46322.55
911.3208	1762.5158	47079.15	46181.55
911.4615	1764.2102	46837.1	45945.55
911.6022	1765.9039	46674.55	45782.25
911.7429	1767.5968	46610.75	45717.95
911.8836	1769.289	46436.7	45543.7
912.0243	1770.9804	46317.4	45423.95
912.1649	1772.6711	46247.5	45354.15
912.3056	1774.361	46047.25	45153.4
912.4462	1776.0502	45953.95	45061.35
912.5868	1777.7386	45827.4	44930.55
912.7274	1779.4263	45643	44749.05
912.8679	1781.1132	45589	44695.6
913.0084	1782.7994	45347.45	44453.65
913.149	1784.4849	45309.15	44416.6
913.2895	1786.1696	45070.85	44172.9
913.4299	1787.8535	44977.35	44083.55
913.5704	1789.5367	44868.1	43974.7
913.7108	1791.2192	44763.9	43872.35
913.8513	1792.9009	44575.7	43653.7
913.9917	1794.5818	44471.55	43576.35
914.132	1796.2621	44314.2	43423.55
914.2724	1797.9415	44196.1	43305.15
914.4128	1799.6202	44037.95	43144.6
914.5531	1801.2982	43974.8	43081.3
914.6934	1802.9755	43808.5	42912.55
914.8337	1804.6519	43745.4	42849.65
914.9739	1806.3277	43478.85	42583.85
915.1142	1808.0027	43304.35	42412
915.2544	1809.6769	43273.6	42379.65
915.3946	1811.3504	43138.8	42243.45
915.5348	1813.0231	43044.15	42150.9
915.675	1814.6951	42902.7	42009.6
915.8151	1816.3664	42865.95	41972.6
915.9553	1818.0369	42711.3	41817.9
916.0954	1819.7067	42577.8	41685.25
916.2355	1821.3757	42457.1	41563.5
916.3755	1823.044	42427.75	41533.65
916.5156	1824.7115	42268.45	41374.05
916.6556	1826.3783	42066	41174.55
916.7956	1828.0443	41942.3	41051.25
916.9356	1829.7096	41814.65	40919.85
917.0756	1831.3741	41810.95	40915.45
917.2155	1833.0379	41664.55	40773.45
917.3555	1834.701	41449.85	40555.65
917.4954	1836.3633	41411.85	40519.05
917.6353	1838.0248	41281.65	40385.45
917.7751	1839.6856	41131.05	40238
917.915	1841.3457	41105.75	40212.95
918.0548	1843.005	40978	40085.95
918.1946	1844.6636	40914.15	40023.95
918.3344	1846.3214	40785.25	39892.65
918.4742	1847.9785	40690.7	39798.7
918.6139	1849.6349	40567.1	39671.85
918.7537	1851.2904	40396.9	39494.7
918.8934	1852.9453	40318.3	39424.2
919.0331	1854.5994	40222.2	39328.6
919.1727	1856.2528	40203.95	39308.6
919.3124	1857.9054	40043	39149.6
919.452	1859.5572	40008.65	39116.8
919.5916	1861.2083	39832.6	38937.6
919.7312	1862.8587	39854.05	38962.35
919.8708	1864.5084	39690.8	38797.15
920.0103	1866.1572	39498.5	38607.75
920.1498	1867.8054	39349.55	38457.6
920.2893	1869.4528	39269.55	38375.35
920.4288	1871.0994	39141.8	38249.15
920.5683	1872.7453	39119.2	38226.15
920.7077	1874.3905	38922.3	38023
920.8471	1876.0349	38809.15	37915.15
920.9865	1877.6786	38792.35	37896.3
921.1259	1879.3215	38809.3	37916.5
921.2653	1880.9637	38617.65	37723.9
921.4046	1882.6051	38557.85	37669.5
921.5439	1884.2458	38440.3	37547.85
921.6832	1885.8858	38244.15	37349.6
921.8225	1887.525	38155.75	37261.35
921.9617	1889.1634	37989.45	37095.95
922.101	1890.8011	37813.85	36921
922.2402	1892.4381	37732.6	36838.7
922.3794	1894.0743	37645.3	36753.3
922.5185	1895.7098	37575.8	36683.5
922.6577	1897.3446	37488.25	36596.2
922.7968	1898.9786	37336.8	36439.95
922.9359	1900.6118	37243.45	36349.4
923.075	1902.2443	37059.95	36163.65
923.214	1903.8761	36999.05	36107.75
923.3531	1905.5071	36760.8	35865.35
923.4921	1907.1374	36648.3	35753.65
923.6311	1908.7669	36586.1	35694.65
923.77	1910.3957	36530.25	35637.3
923.909	1912.0237	36281.7	35390.5
924.0479	1913.651	36172	35277.75
924.1868	1915.2776	36071.5	35181.3
924.3257	1916.9034	35914.35	35022.25
924.4646	1918.5285	35710.6	34818.55
924.6034	1920.1528	35574.7	34681.7
924.7422	1921.7764	35530.45	34638.1
924.881	1923.3992	35361.95	34470.6
925.0198	1925.0213	35088.25	34197.4
925.1586	1926.6427	34944	34052.45
925.2973	1928.2633	34984.3	33983.65
925.436	1929.8832	34796.05	33900.7
925.5747	1931.5023	34588.65	33695.7
925.7134	1933.1207	34516.9	33625.8
925.852	1934.7383	34439.55	33546.95
925.9906	1936.3552	34329.1	33436.8
926.1292	1937.9714	34188.75	33295.55
926.2678	1939.5868	34053.6	33160.5
926.4064	1941.2015	33798.8	32906.05
926.5449	1942.8154	33688.9	32797.5
926.6834	1944.4286	33540.45	32646.55
926.8219	1946.041	33434.85	32522.45
926.9604	1947.6528	33236.75	32339.15
927.0988	1949.2637	33169.85	32279.3
927.2372	1950.8739	33032.1	32137.9
927.3756	1952.4834	32961.9	32068.65
927.514	1954.0921	32837.3	31943.8
927.6523	1955.7001	32749.65	31850.5
927.7907	1957.3074	32622.2	31730.6
927.929	1958.9139	32482.8	31591.6
928.0673	1960.5197	32399.85	31508.5
928.2055	1962.1247	32232.05	31341.5
928.3438	1963.729	32050.1	31160.15
928.482	1965.3325	31932.75	31018.3
928.6202	1966.9353	31849.95	30957.6
928.7584	1968.5374	31759.75	30867.9
928.8965	1970.1387	31641	30749.3
929.0346	1971.7393	31493.85	30601.1
929.1727	1973.3392	31375.4	30484.95
929.3108	1974.9383	31288.7	30399.4
929.4489	1976.5366	31118.7	30226.35
929.5869	1978.1342	31080.7	30187.65
929.7249	1979.7311	30995.3	30102.3
929.8629	1981.3273	30880.35	29989.75
930.0009	1982.9227	30749.65	29857.9
930.1388	1984.5173	30587.25	29696.2
930.2767	1986.1112	30465.65	29573.25
930.4146	1987.7044	30407.95	29515.55
930.5525	1989.2968	30327.65	29434.15
930.6904	1990.8885	30243.3	29347.3
930.8282	1992.4795	30166.75	29272.9
930.966	1994.0697	30031.05	29140.65
931.1038	1995.6592	29893.85	29002.4
931.2415	1997.2479	29823.65	28931.9
931.3793	1998.8359	29747.7	28857.55
931.517	2000.4232	29559.35	28670.25
931.6547	2002.0097	29498	28609.65
931.7923	2003.5955	29278.5	28386.9
931.93	2005.1805	29298.8	28407.05
932.0676	2006.7648	29128.95	28236.95
932.2052	2008.3484	29061.35	28168.3
932.3427	2009.9312	29140.6	28247
932.4803	2011.5133	28955.85	28064.45
932.6178	2013.0946	28822.65	27932.55
932.7553	2014.6752	28731.45	27842.85
932.8928	2016.2551	28675.05	27784.4
933.0302	2017.8342	28539.75	27647.35
933.1676	2019.4126	28453.55	27562.6
933.305	2020.9902	28284.65	27392.75
933.4424	2022.5672	28260.95	27367.95
933.5798	2024.1433	28124.35	27228.2
933.7171	2025.7188	28017	27127.25
933.8544	2027.2935	27955.7	27065.65
933.9917	2028.8674	27846.3	26954.8
934.129	2030.4406	27730.8	26841.2
934.2662	2032.0131	27610.25	26720.65
934.4034	2033.5849	27506.7	26611.15
934.5406	2035.1559	27461.2	26568.15
934.6778	2036.7261	27396.75	26505.6
934.8149	2038.2957	27263.15	26370.45
934.952	2039.8645	27236.6	26344.9
935.0891	2041.4325	27268.3	26375
935.2262	2042.9998	27101.5	26210.3
935.3632	2044.5664	26973.6	26080.9
935.5002	2046.1323	26944.4	26054.1
935.6372	2047.6974	26826.9	25936.55
935.7742	2049.2617	26752.6	25865.15
935.9111	2050.8254	26731.55	25819.9
936.048	2052.3883	26663.85	25770.8
936.1849	2053.9504	26543.95	25652.25
936.3218	2055.5118	26441.8	25549.8
936.4586	2057.0725	26320.8	25426.65
936.5955	2058.6325	26260.05	25368.6
936.7323	2060.1917	26156.2	25265.85
936.869	2061.7502	26075.55	25180.6
937.0058	2063.3079	25978.6	25089.1
937.1425	2064.8649	25864.05	24968.8
937.2792	2066.4212	25855.6	24962.45
937.4159	2067.9767	25716.3	24826
937.5525	2069.5315	25645.05	24754.2
937.6891	2071.0856	25483	24591.2
937.8257	2072.6389	25397.85	24506.9
937.9623	2074.1915	25272.25	24383
938.0989	2075.7433	25161.4	24269.2
938.2354	2077.2945	25104.8	24216.45
938.3719	2078.8448	25029.95	24138.8
938.5084	2080.3945	24884.25	23995.45
938.6448	2081.9434	24889.2	23999.15
938.7812	2083.4916	24766.05	23873.55
938.9176	2085.039	24691.2	23796.35
939.054	2086.5857	24623.55	23729.1
939.1903	2088.1317	24588.95	23696.9
939.3267	2089.677	24488.8	23594.75
939.463	2091.2215	24397.65	23507.1
939.5992	2092.7652	24342.1	23447.45
939.7355	2094.3083	24251.15	23357.5
939.8717	2095.8506	24222.55	23333.15
940.0079	2097.3921	24192.7	23302.15
940.1441	2098.933	24096.9	23204.3
940.2802	2100.4731	24020.9	23128.4
940.4163	2102.0124	23954	23053.45
940.5524	2103.5511	23911.1	23020.6
940.6885	2105.089	23863.75	22970.45
940.8245	2106.6261	23775.15	22882.45
940.9606	2108.1626	23674.65	22782.65
941.0965	2109.6983	23639.75	22719.8
941.2325	2111.2332	23552.65	22662.25
941.3684	2112.7675	23467.1	22573.8
941.5044	2114.301	23385.85	22493.5
941.6403	2115.8337	23342.05	22450.4
941.7761	2117.3657	23281.45	22388.55
941.912	2118.897	23208.3	22315.85
942.0478	2120.4276	23125.7	22227.3
942.1835	2121.9575	22977.15	22082.95
942.3193	2123.4866	22989.3	22083.15
942.455	2125.0149	22922.85	22028.55
942.5907	2126.5426	22781.45	21889.75
942.7264	2128.0695	22775.35	21880.15
942.8621	2129.5956	22667.95	21777.75
942.9977	2131.1211	22634.35	21739.6
943.1333	2132.6458	22570.8	21677.7
943.2689	2134.1698	22531.1	21639.85
943.4044	2135.693	22408.7	21514.1
943.54	2137.2155	22334.6	21442.5
943.6755	2138.7373	22310	21418.15
943.8109	2140.2584	22199.05	21308.6
943.9464	2141.7787	22141.6	21244.4
944.0818	2143.2983	22009.65	21117.9
944.2172	2144.8171	21932.3	21041.85
944.3526	2146.3353	21821.4	20927.15
944.4879	2147.8527	21735.55	20842.85
944.6232	2149.3693	21770	20878.8
944.7585	2150.8853	21656.4	20763.45
944.8938	2152.4005	21531.15	20639.35
945.029	2153.9149	21526.6	20634.55
945.1642	2155.4287	21431	20540.1
945.2994	2156.9417	21379.05	20487.85
945.4346	2158.454	21296.1	20400.65
945.5697	2159.9655	21263.75	20373.25
945.7048	2161.4764	21222.35	20329
945.8399	2162.9865	21141.1	20247.1
945.9749	2164.4958	21105.8	20211.9
946.1099	2166.0045	20998.85	20102.8
946.2449	2167.5124	20984.8	20091
946.3799	2169.0195	20899	20007.75
946.5148	2170.526	20884.85	19991.35
946.6498	2172.0317	20725.6	19835.55
946.7846	2173.5367	20678.9	19784.8
946.9195	2175.0409	20655.1	19763.95
947.0543	2176.5445	20619.5	19728.75
947.1891	2178.0473	20551.9	19659.95
947.3239	2179.5494	20426.3	19531.25
947.4587	2181.0507	20321.95	19429.6
947.5934	2182.5513	20286.85	19394.1
947.7281	2184.0512	20226.4	19333.75
947.8628	2185.5504	20185.7	19293.4
947.9974	2187.0488	20036.2	19143.05
948.132	2188.5465	20006.3	19114.8
948.2666	2190.0435	19940.3	19046.75
948.4012	2191.5397	19881.55	18989.4
948.5357	2193.0353	19796.3	18904.1
948.6702	2194.5301	19664.35	18770.65
948.8047	2196.0241	19602.15	18709
948.9392	2197.5175	19535.05	18641.35
949.0736	2199.0101	19419.45	18523.75
949.208	2200.502	19342.4	18451.15
949.3424	2201.9931	19282	18388.6
949.4767	2203.4835	19191.35	18299.1
949.611	2204.9733	19196.85	18299.2
949.7453	2206.4622	19144.9	18254.2
949.8796	2207.9505	19055.25	18159.8
950.0138	2209.438	18939.3	18048.4
950.148	2210.9248	18882.55	17991.55
950.2822	2212.4109	18830.25	17940.85
950.4164	2213.8962	18742.85	17847.65
950.5505	2215.3809	18695.6	17800.45
950.6846	2216.8648	18644.85	17753.55
950.8186	2218.3479	18580.65	17683.5
950.9527	2219.8304	18500.05	17605.3
951.0867	2221.3121	18424.35	17529.9
951.2207	2222.7931	18387.45	17496.85
951.3546	2224.2733	18298.1	17405.55
951.4886	2225.7529	18224.4	17332.25
951.6225	2227.2317	18161.05	17265.8
951.7563	2228.7098	18151.75	17260.7
951.8902	2230.1872	18042.85	17151.05
952.024	2231.6638	17982.55	17091.4
952.1578	2233.1397	17913.05	17016.55
952.2916	2234.6149	17887.1	16993.9
952.4253	2236.0894	17789.95	16896.95
952.559	2237.5632	17788.3	16887.4
952.6927	2239.0362	17665.35	16771.55
952.8263	2240.5085	17630.65	16738.7
952.9599	2241.9801	17521.45	16627.45
953.0935	2243.4509	17510.65	16618
953.2271	2244.921	17460.3	16568.55
953.3606	2246.3904	17372.95	16476.8
953.4941	2247.8591	17308.6	16417.7
953.6276	2249.3271	17277.65	16385.6
953.7611	2250.7943	17203.15	16310.35
953.8945	2252.2608	17145.3	16252.95
954.0279	2253.7266	17085.4	16192.65
954.1612	2255.1917	17016.55	16122.25
954.2946	2256.656	16951.65	16058.6
954.4279	2258.1197	16928.3	16036.05
954.5612	2259.5826	16841.05	15949.45
954.6944	2261.0447	16821.45	15929
954.8276	2262.5062	16730.6	15836.75
954.9608	2263.9669	16674.3	15780.35
955.094	2265.4269	16639.75	15747.7
955.2271	2266.8862	16552.85	15662.15
955.3602	2268.3448	16536.35	15645.65
955.4933	2269.8026	16521.05	15628.1
955.6264	2271.2598	16450.2	15559.05
955.7594	2272.7162	16373.05	15479.95
955.8924	2274.1719	16340	15449.9
956.0253	2275.6268	16264.85	15372.85
956.1583	2277.0811	16231.15	15338.7
956.2912	2278.5346	16171.3	15279.9
956.4241	2279.9874	16107.2	15214.7
956.5569	2281.4395	16111	15219
956.6897	2282.8908	16048.65	15151.15
956.8225	2284.3414	16025.45	15131
956.9553	2285.7914	15952.55	15061.75
957.088	2287.2406	15853.5	14959.35
957.2207	2288.689	15810.8	14918.3
957.3534	2290.1368	15796.8	14903.6
957.486	2291.5838	15718.85	14824.6
957.6186	2293.0302	15683	14788.75
957.7512	2294.4758	15595.25	14702.75
957.8838	2295.9206	15559.25	14662.45
958.0163	2297.3648	15496.8	14605.35
958.1488	2298.8082	15494.4	14600.75
958.2813	2300.251	15432.15	14540.2
958.4137	2301.693	15379.9	14486
958.5461	2303.1343	15371.5	14477.65
958.6785	2304.5748	15314.85	14422.25
958.8108	2306.0147	15213.5	14319.45
958.9432	2307.4538	15166.25	14272.65
959.0754	2308.8922	15153.55	14261.55
959.2077	2310.3299	15072.15	14180.3
959.3399	2311.7669	15040.75	14150.3
959.4721	2313.2031	14976.9	14086.9
959.6043	2314.6387	14916.1	14023.65
959.7365	2316.0735	14838.2	13944.45
959.8686	2317.5076	14835.7	13943.15
960.0006	2318.941	14831.3	13938.75
960.1327	2320.3737	14745.3	13851.55
960.2647	2321.8056	14656.8	13762.85
960.3967	2323.2369	14630.8	13736.85
960.5287	2324.6674	14586.75	13691
960.6606	2326.0972	14528.7	13634.25
960.7925	2327.5263	14474.15	13581.7
960.9244	2328.9547	14426.45	13534.35
961.0562	2330.3823	14390.95	13495.9
961.1881	2331.8092	14348.55	13454.2
961.3198	2333.2355	14294.75	13403.4
961.4516	2334.661	14283.65	13392.9
961.5833	2336.0858	14230.15	13335.25
961.715	2337.5098	14181.6	13290.2
961.8467	2338.9332	14152.7	13259.85
961.9783	2340.3558	14083.5	13188.8
962.1099	2341.7778	14023.2	13131.85
962.2415	2343.199	13976.7	13082.9
962.373	2344.6195	13937.35	13045.6
962.5045	2346.0393	13897.35	13006.05
962.636	2347.4583	13861.05	12966.4
962.7675	2348.8767	13811.2	12918
962.8989	2350.2943	13800.3	12906.75
963.0303	2351.7113	13772.6	12878.75
963.1617	2353.1275	13675.55	12781.9
963.293	2354.543	13652.25	12752.75
963.4243	2355.9578	13620.85	12728.15
963.5556	2357.3718	13522.9	12630.35
963.6868	2358.7852	13471.7	12577.45
963.818	2360.1978	13410.5	12517.1
963.9492	2361.6098	13374.4	12481.9
964.0803	2363.021	13374.45	12477.25
964.2114	2364.4315	13310.7	12419.4
964.3425	2365.8413	13252	12359.1
964.4736	2367.2504	13216.25	12324.3
964.6046	2368.6587	13118.85	12227.5
964.7356	2370.0664	13049.4	12158.2
964.8666	2371.4733	13040.1	12148.2
964.9975	2372.8795	12992.05	12100.35
965.1284	2374.285	12927.85	12035.55
965.2593	2375.6899	12861.4	11970.2
965.3901	2377.0939	12777	11885.35
965.5209	2378.4973	12736.2	11843
965.6517	2379.9	12711.8	11820.75
965.7825	2381.3019	12676.15	11783.55
965.9132	2382.7032	12595.65	11706.8
966.0439	2384.1037	12587.3	11696.65
966.1745	2385.5035	12557.95	11666.45
966.3051	2386.9027	12511.1	11619.45
966.4357	2388.3011	12466.75	11572.4
966.5663	2389.6987	12393.4	11501.7
966.6968	2391.0957	12377.85	11486.9
966.8273	2392.492	12326.4	11437.35
966.9578	2393.8876	12242.4	11351.55
967.0882	2395.2824	12174.45	11283.5
967.2186	2396.6765	12121.75	11232.7
967.349	2398.07	12083.15	11192.3
967.4793	2399.4627	12049.85	11155.8
967.6097	2400.8547	12023.05	11131.7
967.7399	2402.246	11979	11082.05
967.8702	2403.6366	11872	10978.4
968.0004	2405.0265	11823.85	10931.45
968.1306	2406.4156	11811.5	10915.55
968.2607	2407.8041	11768.8	10875.55
968.3909	2409.1918	11721.95	10831.1
968.521	2410.5789	11665.4	10774.9
968.651	2411.9652	11624.95	10732.05
968.781	2413.3508	11569.05	10677.7
968.911	2414.7358	11524.3	10631.25
969.041	2416.12	11491.95	10601.65
969.1709	2417.5035	11466.05	10574.3
969.3008	2418.8863	11407.5	10513.55
969.4307	2420.2684	11360.2	10469.55
969.5606	2421.6497	11312.15	10419.15
969.6904	2423.0304	11267.95	10377.25
969.8201	2424.4104	11224.3	10333.8
969.9499	2425.7896	11200.55	10302.95
970.0796	2427.1682	11177.35	10284.9
970.2093	2428.546	11145.6	10252.5
970.3389	2429.9232	11122.55	10229.05
970.4685	2431.2996	11065.25	10174.95
970.5981	2432.6753	11048.65	10158.55
970.7277	2434.0503	11010.7	10118.95
970.8572	2435.4246	10935.3	10043.95
970.9867	2436.7982	10907.9	10013.9
971.1161	2438.1711	10893.4	10003.15
971.2456	2439.5433	10844.85	9951.95
971.375	2440.9148	10824.3	9932
971.5043	2442.2856	10728.05	9836.25
971.6336	2443.6557	10727.2	9835.2
971.7629	2445.025	10663.45	9773.75
971.8922	2446.3937	10662.65	9770
972.0214	2447.7617	10596.1	9704.55
972.1506	2449.1289	10595	9701.8
972.2798	2450.4955	10572.1	9676.35
972.4089	2451.8613	10524	9633.55
972.538	2453.2265	10495.3	9604.05
972.6671	2454.5909	10480.65	9587.1
972.7961	2455.9546	10464.05	9573.7
972.9251	2457.3177	10385.1	9492.6
973.0541	2458.68	10342.8	9450.2
973.1831	2460.0416	10331.35	9440.65
973.312	2461.4025	10318.85	9426.5
973.4408	2462.7627	10283.6	9380.45
973.5697	2464.1222	10228	9336.55
973.6985	2465.4811	10215.45	9323.65
973.8273	2466.8392	10167.05	9274.3
973.956	2468.1966	10130.7	9237.35
974.0847	2469.5533	10148.65	9253.95
974.2134	2470.9093	10096.9	9205.9
974.3421	2472.2645	10064.25	9169.85
974.4707	2473.6191	10058.5	9167.05
974.5993	2474.973	9982.85	9091
974.7278	2476.3262	9950.8	9055.4
974.8563	2477.6787	9917.45	9024.7
974.9848	2479.0305	9879.45	8985.1
975.1132	2480.3816	9832.3	8938.6
975.2417	2481.7319	9803.95	8913.55
975.37	2483.0816	9762.05	8870.4
975.4984	2484.4306	9737	8844.95
975.6267	2485.7789	9716	8825.55
975.755	2487.1264	9682.55	8789.05
975.8833	2488.4733	9607.1	8715.85
976.0115	2489.8195	9581.65	8680
976.1397	2491.165	9542.45	8647.65
976.2678	2492.5097	9527.4	8631.6
976.3959	2493.8538	9479.75	8587.95
976.524	2495.1972	9439.1	8546.05
976.6521	2496.5398	9382.35	8488.25
976.7801	2497.8818	9357.1	8462.5
976.9081	2499.2231	9320.5	8429.25
977.036	2500.5637	9299.35	8407.35
977.164	2501.9035	9260.55	8368.2
977.2918	2503.2427	9230.1	8335.1
977.4197	2504.5812	9204.15	8311.5
977.5475	2505.919	9198.2	8305
977.6753	2507.256	9140.3	8248.5
977.8031	2508.5924	9097.85	8204.4
977.9308	2509.9281	9084.5	8185.7
978.0585	2511.2631	9043.25	8150.45
978.1861	2512.5974	9017.95	8124.95
978.3137	2513.9309	8993.15	8100
978.4413	2515.2638	8961.1	8035.65
978.5689	2516.596	8942.6	8050.85
978.6964	2517.9275	8906.45	8013.55
978.8239	2519.2583	8856.6	7964.5
978.9513	2520.5884	8841.65	7949
979.0788	2521.9178	8782.1	7889
979.2062	2523.2465	8760.35	7868.05
979.3335	2524.5745	8715.55	7825.45
979.4608	2525.9018	8679.05	7786.65
979.5881	2527.2284	8685.2	7794.3
979.7154	2528.5543	8637.8	7745.5
979.8426	2529.8796	8614.75	7722.1
979.9698	2531.2041	8606.55	7715.65
980.0969	2532.5279	8590.6	7702.15
980.224	2533.851	8548.85	7657.65
980.3511	2535.1735	8543.7	7652.95
980.4781	2536.4952	8504.55	7614.25
980.6052	2537.8163	8468.3	7576.45
980.7321	2539.1366	8474.6	7581.4
980.8591	2540.4562	8431.7	7538.75
980.986	2541.7752	8418.55	7527.75
981.1129	2543.0935	8402.65	7510.95
981.2397	2544.411	8363.9	7471.85
981.3665	2545.7279	8346.5	7454.95
981.4933	2547.0441	8308.6	7415.1
981.62	2548.3596	8318.65	7423
981.7467	2549.6744	8296.55	7404.6
981.8734	2550.9885	8239.7	7345.9
982.0001	2552.3019	8213.65	7320.7
982.1267	2553.6146	8196.8	7306.05
982.2532	2554.9266	8168.1	7275.6
982.3798	2556.2379	8138.05	7244.1
982.5063	2557.5485	8132.2	7243.55
982.6327	2558.8585	8129.7	7229.1
982.7592	2560.1677	8102.2	7205.3
982.8856	2561.4762	8084.9	7194.5
983.0119	2562.7841	8074.75	7178.5
983.1383	2564.0913	8054	7164.75
983.2646	2565.3977	8009.1	7119.55
983.3908	2566.7035	8003.05	7111.55
983.517	2568.0086	7994.15	7100.5
983.6432	2569.313	7965.3	7073.5
983.7694	2570.6167	7918.75	7022.35
983.8955	2571.9197	7930.95	7038.8
984.0216	2573.222	7913.7	7017.85
984.1476	2574.5236	7901.45	7007.5
984.2737	2575.8246	7865.05	6970.9
984.3996	2577.1248	7857.6	6963.4
984.5256	2578.4244	7815.05	6924.65
984.6515	2579.7232	7808.7	6919.5
984.7774	2581.0214	7827.25	6911.55
984.9032	2582.3189	7788.05	6897.15
985.029	2583.6157	7781.8	6883.85
985.1548	2584.9118	7771.05	6877.1
985.2806	2586.2072	7724.15	6831.7
985.4063	2587.5019	7711.45	6820.75
985.5319	2588.7959	7691.4	6799.35
985.6576	2590.0893	7691.5	6797.15
985.7832	2591.3819	7640.45	6750.9
985.9087	2592.6739	7613.2	6720.4
986.0343	2593.9652	7613.9	6720.6
986.1597	2595.2557	7577.7	6687.45
986.2852	2596.5456	7558.95	6664.95
986.4106	2597.8348	7499.95	6608.65
986.536	2599.1234	7479.05	6588.95
986.6614	2600.4112	7476.4	6584.1
986.7867	2601.6983	7429.45	6533.45
986.912	2602.9848	7428.3	6534.2
987.0372	2604.2705	7384.1	6485.95
987.1624	2605.5556	7362.7	6469.1
987.2876	2606.84	7352.85	6461.05
987.4128	2608.1237	7313	6417.95
987.5379	2609.4067	7266.95	6374.6
987.6629	2610.689	7292.5	6394.3
987.788	2611.9707	7242.4	6346.7
987.913	2613.2516	7216.75	6320.65
988.0379	2614.5319	7173.75	6281
988.1629	2615.8115	7140.2	6247
988.2878	2617.0903	7114.5	6220.9
988.4126	2618.3685	7077.85	6185.35
988.5375	2619.6461	7049.05	6156.25
988.6622	2620.9229	7044	6151.8
988.787	2622.199	7015.7	6120.55
988.9117	2623.4745	7018.85	6125.55
989.0364	2624.7493	6991.65	6099.95
989.161	2626.0234	6955.45	6064.2
989.2857	2627.2968	6924	6033.1
989.4102	2628.5695	6899.65	6005.9
989.5348	2629.8415	6875.85	5983.55
989.6593	2631.1128	6854.1	5959.7
989.7837	2632.3835	6819.4	5926.75
989.9082	2633.6535	6765.25	5874.05
990.0326	2634.9228	6763.75	5871.6
990.1569	2636.1914	6751.5	5863.2
990.2812	2637.4593	6743.2	5845.95
990.4055	2638.7265	6691.6	5799.35
990.5298	2639.9931	6703.4	5810.55
990.654	2641.259	6672.2	5778.05
990.7782	2642.5242	6661.95	5770.35
990.9023	2643.7887	6619.9	5728.45
991.0264	2645.0525	6598.65	5704.15
991.1505	2646.3156	6589.4	5697.15
991.2745	2647.5781	6576.15	5683.05
991.3985	2648.8398	6544.5	5651.4
991.5225	2650.1009	6526.4	5624.8
991.6464	2651.3613	6509.7	5618.6
991.7703	2652.6211	6495.55	5603.25
991.8942	2653.8801	6461.95	5572.15
992.018	2655.1385	6442.15	5547.7
992.1418	2656.3961	6428.5	5535.1
992.2655	2657.6531	6421.4	5530.25
992.3892	2658.9094	6404.2	5511.5
992.5129	2660.1651	6383.95	5492.7
992.6366	2661.42	6343.6	5450.2
992.7602	2662.6743	6338.75	5445.4
992.8837	2663.9279	6346.5	5453.45
993.0073	2665.1808	6303.05	5410.55
993.1307	2666.433	6313.4	5419.3
993.2542	2667.6846	6278.1	5385.8
993.3776	2668.9354	6263.7	5369.2
993.501	2670.1856	6241.15	5349.4
993.6244	2671.4351	6229.95	5338.35
993.7477	2672.6839	6222.35	5327.3
993.8709	2673.9321	6196.75	5306.75
993.9942	2675.1795	6199.6	5307.3
994.1174	2676.4263	6171.8	5280.3
994.2405	2677.6724	6137.4	5246.9
994.3637	2678.9179	6114.6	5222.85
994.4868	2680.1626	6118.65	5228.55
994.6098	2681.4067	6096.05	5203.15
994.7328	2682.6501	6072.7	5179
994.8558	2683.8928	6068.9	5174.4
994.9788	2685.1348	6028.4	5137.3
995.1017	2686.3761	5998.25	5108
995.2245	2687.6168	5975.15	5083.1
995.3474	2688.8568	5973.45	5080.3
995.4702	2690.0961	5939.3	5049.25
995.5929	2691.3348	5938.55	5046.05
995.7156	2692.5727	5903.85	5011.25
995.8383	2693.81	5891.35	4997.15
995.961	2695.0466	5851.85	4959.6
996.0836	2696.2826	5874.75	4981.55
996.2062	2697.5178	5837.6	4941.75
996.3287	2698.7524	5810.5	4916
996.4512	2699.9863	5811.65	4917.95
996.5737	2701.2195	5800.9	4908.75
996.6961	2702.452	5772.6	4880.45
996.8185	2703.6839	5766.3	4871.1
996.9408	2704.9151	5741.7	4851.55
997.0631	2706.1456	5732.35	4842.2
997.1854	2707.3755	5736.8	4846.45
997.3077	2708.6046	5713.1	4818.8
997.4299	2709.8331	5699.8	4807.45
997.552	2711.0609	5675.7	4784.2
997.6742	2712.2881	5667.7	4775.7
997.7963	2713.5145	5669.9	4774.35
997.9183	2714.7403	5661.75	4769.7
998.0403	2715.9654	5629.55	4737.25
998.1623	2717.1899	5653.85	4746.75
998.2842	2718.4136	5623.9	4733.75
998.4062	2719.6367	5620.1	4728.05
998.528	2720.8591	5592.25	4693
998.6498	2722.0809	5591.95	4701.4
998.7716	2723.3019	5590.2	4695.85
998.8934	2724.5223	5575.9	4682.35
999.0151	2725.7421	5548.3	4655.25
999.1368	2726.9611	5547.6	4652.3
999.2584	2728.1795	5527.55	4631.2
999.38	2729.3972	5511.9	4622.6
999.5016	2730.6142	5477.65	4577.7
999.6231	2731.8306	5449.05	4554.6
999.7446	2733.0462	5428.35	4534.15
999.8661	2734.2612	5374.05	4476.45
999.9875	2735.4756	5339.6	4446.65
1000.1089	2736.6892	5317	4424.2
1000.2302	2737.9022	5253.8	4363.85
1000.3515	2739.1145	5247.55	4355.65
1000.4728	2740.3262	5219.5	4318.7
1000.594	2741.5372	5198.2	4306.1
1000.7152	2742.7475	5165.85	4272.75
1000.8363	2743.9571	5154.6	4260.75
1000.9575	2745.1661	5117.75	4221.55
1001.0785	2746.3744	5101.4	4207.95
1001.1996	2747.582	5078.45	4186.05
1001.3206	2748.7889	5048.65	4153.65
1001.4415	2749.9952	5028.5	4135.2
1001.5625	2751.2008	5003.05	4111.25
1001.6833	2752.4057	5000.65	4106.75
1001.8042	2753.61	4980.3	4089.25
1001.925	2754.8136	4967.4	4073.5
1002.0458	2756.0165	4946.6	4055.05
1002.1665	2757.2188	4925.7	4035
1002.2872	2758.4204	4910.05	4018.45
1002.4078	2759.6213	4886.7	3992.05
1002.5285	2760.8215	4881.25	3985.55
1002.649	2762.0211	4858	3965
1002.7696	2763.22	4857	3960.15
1002.8901	2764.4182	4838.65	3943.7
1003.0106	2765.6158	4819.35	3926.7
1003.131	2766.8127	4807.75	3916.25
1003.2514	2768.009	4778.85	3886.95
1003.3717	2769.2045	4768.8	3876.4
1003.492	2770.3994	4753.6	3859.55
1003.6123	2771.5936	4740.65	3846.2
1003.7325	2772.7872	4736.5	3844.8
1003.8527	2773.9801	4701.65	3808.9
1003.9729	2775.1723	4697.2	3787.75
1004.093	2776.3639	4662.4	3770.15
1004.2131	2777.5548	4651.3	3753.65
1004.3331	2778.745	4642.85	3749.75
1004.4531	2779.9346	4622	3729.35
1004.5731	2781.1235	4639.15	3746.85
1004.693	2782.3117	4628.95	3737.7
1004.8129	2783.4992	4610.25	3718.75
1004.9328	2784.6861	4604.55	3711.15
1005.0526	2785.8723	4588.15	3696.45
1005.1723	2787.0579	4590.25	3697.3
1005.2921	2788.2428	4568.95	3675.7
1005.4118	2789.427	4571.15	3680.35
1005.5314	2790.6106	4556.6	3665.25
1005.651	2791.7935	4575.85	3681.65
1005.7706	2792.9757	4566.65	3676.3
1005.8902	2794.1573	4563.95	3668.85
1006.0097	2795.3382	4532.1	3642.5
1006.1291	2796.5184	4549.75	3659.85
1006.2485	2797.698	4547.9	3653.7
1006.3679	2798.8769	4549.65	3659.25
1006.4873	2800.0551	4556.8	3664.75
1006.6066	2801.2327	4559.9	3664.25
1006.7258	2802.4096	4566.35	3674.65
1006.8451	2803.5859	4556.95	3663.95
1006.9642	2804.7615	4573.85	3681.65
1007.0834	2805.9364	4580.75	3689.65
1007.2025	2807.1106	4597.2	3706.65
1007.3216	2808.2842	4605.45	3715.1
1007.4406	2809.4572	4616.2	3724.25
1007.5596	2810.6294	4650.9	3758.1
1007.6785	2811.801	4707.7	3816.7
1007.7975	2812.972	4733.45	3842.65
1007.9163	2814.1423	4757.3	3864.95
1008.0352	2815.3119	4800.45	3908.85
1008.154	2816.4808	4835.35	3944.9
1008.2727	2817.6491	4850.25	3957.55
1008.3914	2818.8167	4896.5	4005.85
1008.5101	2819.9837	4941.15	4046.15
1008.6288	2821.15	4973.55	4082.55
1008.7474	2822.3157	4998.65	4107.15
1008.8659	2823.4807	5028.35	4137.25
1008.9844	2824.645	5092.65	4199.8
1009.1029	2825.8086	5109.15	4217.1
1009.2214	2826.9716	5138.1	4246.3
1009.3398	2828.134	5168	4276.25
1009.4581	2829.2957	5194.1	4301.7
1009.5764	2830.4567	5214.05	4322.05
1009.6947	2831.617	5232.9	4341.05
1009.813	2832.7767	5242.45	4351.9
1009.9312	2833.9358	5218.6	4327.65
1010.0493	2835.0941	5205.45	4313.05
1010.1675	2836.2519	5180.25	4289.3
1010.2855	2837.4089	5163.9	4271.55
1010.4036	2838.5653	5151.75	4261.75
1010.5216	2839.7211	5142.75	4252.15
1010.6396	2840.8761	5141.55	4247.5
1010.7575	2842.0306	5163.95	4273.5
1010.8754	2843.1843	5184.55	4293.15
1010.9932	2844.3374	5221.7	4331.1
1011.111	2845.4899	5284.4	4390.6
1011.2288	2846.6417	5346.7	4458.15
1011.3465	2847.7928	5425.95	4534.75
1011.4642	2848.9433	5478.8	4587.4
1011.5818	2850.0931	5540.25	4648.1
1011.6995	2851.2422	5620.25	4728.9
1011.817	2852.3907	5690	4798.55
1011.9345	2853.5385	5754.3	4859.9
1012.052	2854.6857	5820.3	4901.8
1012.1695	2855.8323	5853.7	4961.8
1012.2869	2856.9781	5875.9	4985.15
1012.4042	2858.1233	5922.65	5030.75
1012.5216	2859.2679	5940.6	5047.5
1012.6389	2860.4118	5984.15	5093.6
1012.7561	2861.555	6007.4	5112.2
1012.8733	2862.6976	6048.05	5153.1
1012.9905	2863.8395	6037.55	5147.25
1013.1076	2864.9808	6068.25	5177.05
1013.2247	2866.1214	6053.35	5162.95
1013.3417	2867.2614	6083.45	5191
1013.4587	2868.4007	6074.9	5181.05
1013.5757	2869.5393	6067.35	5174.1
1013.6926	2870.6773	6089.25	5194.6
1013.8095	2871.8146	6088.95	5191.7
1013.9263	2872.9513	6094.65	5201.15
1014.0431	2874.0874	6051.4	5158.5
1014.1599	2875.2227	6042.6	5148.9
1014.2766	2876.3574	6006.95	5116
1014.3933	2877.4915	5967.5	5076.45
1014.51	2878.6249	5926.3	5035
1014.6266	2879.7577	5909.15	5015.05
1014.7431	2880.8898	5896.15	4994.75
1014.8596	2882.0212	5851.25	4959.7
1014.9761	2883.152	5820.55	4927.75
1015.0925	2884.2821	5801.1	4911.45
1015.2089	2885.4116	5792.5	4901.35
1015.3253	2886.5405	5767.6	4876.85
1015.4416	2887.6686	5769.15	4873.25
1015.5579	2888.7962	5767.4	4876.95
1015.6741	2889.923	5752.4	4861.65
1015.7903	2891.0493	5756.55	4865.55
1015.9065	2892.1748	5751.25	4860.1
1016.0226	2893.2997	5784.45	4894.1
1016.1387	2894.424	5769.45	4879.35
1016.2547	2895.5476	5784.2	4894
1016.3707	2896.6706	5778.5	4888.1
1016.4866	2897.7929	5817.55	4926.1
1016.6025	2898.9145	5840.4	4950.05
1016.7184	2900.0355	5857.35	4965.95
1016.8342	2901.1559	5860.9	4970.95
1016.95	2902.2756	5893.4	5001.05
1017.0658	2903.3946	5913.05	5020.3
1017.1815	2904.513	5952.35	5057.1
1017.2971	2905.6308	5933.8	5040.6
1017.4127	2906.7479	5963.3	5072.1
1017.5283	2907.8643	5970.8	5078.8
1017.6439	2908.9801	5972.8	5081.85
1017.7594	2910.0953	5968.45	5077.65
1017.8748	2911.2098	5971.95	5075.6
1017.9902	2912.3236	5956.9	5058.05
1018.1056	2913.4368	5934.95	5039.65
1018.2209	2914.5494	5933.05	5041.3
1018.3362	2915.6613	5875.55	4979.2
1018.4515	2916.7725	5816.3	4922.3
1018.5667	2917.8831	5783.7	4890.95
1018.6819	2918.9931	5761.15	4867.1
1018.797	2920.1024	5726	4833.15
1018.9121	2921.211	5707.25	4815.65
1019.0271	2922.319	5662.3	4771.05
1019.1421	2923.4264	5634.35	4743.1
1019.2571	2924.5331	5623.05	4733.75
1019.372	2925.6391	5625	4732.55
1019.4869	2926.7445	5579.4	4689.85
1019.6017	2927.8493	5579.2	4684
1019.7165	2928.9534	5558.45	4667.35
1019.8313	2930.0569	5553.1	4661.15
1019.946	2931.1597	5532.85	4639.15
1020.0606	2932.2619	5505.8	4612.85
1020.1753	2933.3634	5495.35	4606.7
1020.2899	2934.4643	5487.45	4590.05
1020.4044	2935.5645	5450.45	4551.15
1020.5189	2936.6641	5412.45	4517.95
1020.6334	2937.763	5349.45	4459.3
1020.7478	2938.8613	5290.05	4397.6
1020.8622	2939.959	5239.9	4342.95
1020.9765	2941.056	5134.3	4243.85
1021.0908	2942.1523	5049.85	4155.15
1021.2051	2943.248	4950.15	4058.1
1021.3193	2944.3431	4855.5	3963.8
1021.4334	2945.4375	4756.15	3863.75
1021.5476	2946.5313	4627.1	3737.35
1021.6617	2947.6244	4523.15	3631.95
1021.7757	2948.7169	4395.75	3504.3
1021.8897	2949.8087	4306.35	3415.7
1022.0037	2950.8999	4198.4	3306
1022.1176	2951.9904	4109.2	3216.55
1022.2315	2953.0803	4024.6	3131.95
1022.3453	2954.1696	3962.45	3069.6
1022.4591	2955.2582	3910.75	3020.95
1022.5728	2956.3462	3849.05	2957.65
1022.6865	2957.4335	3805.5	2915.15
1022.8002	2958.5202	3741.25	2848.05
1022.9138	2959.6062	3697.55	2805.1
1023.0274	2960.6916	3681.95	2791.15
1023.141	2961.7764	3657.7	2764.75
1023.2545	2962.8605	3649.05	2756.7
1023.3679	2963.9439	3627.15	2737.75
1023.4813	2965.0267	3587.2	2694.55
1023.5947	2966.1089	3601.75	2687.05
1023.708	2967.1905	3566	2675.7
1023.8213	2968.2714	3555.7	2665.25
1023.9346	2969.3516	3556.6	2666.2
1024.0478	2970.4312	3554.3	2655.55
1024.1609	2971.5102	3544.35	2653.25
1024.274	2972.5885	3517.15	2625.7
1024.3871	2973.6662	3523.45	2626.55
1024.5002	2974.7432	3517.7	2626.7
1024.6132	2975.8196	3502.3	2611.75
1024.7261	2976.8954	3481.45	2590.4
1024.839	2977.9705	3446.2	2554.5
1024.9519	2979.045	3440.5	2549.75
1025.0647	2980.1188	3418.3	2527.85
1025.1775	2981.192	3384.05	2490.65
1025.2902	2982.2645	3349.25	2458.4
1025.4029	2983.3364	3321.8	2430.5
1025.5156	2984.4077	3278.05	2387.25
1025.6282	2985.4783	3256.6	2361.45
1025.7407	2986.5483	3228.3	2338.8
1025.8532	2987.6177	3183	2292.45
1025.9657	2988.6864	3148.1	2257.8
1026.0782	2989.7545	3103.1	2210.5
1026.1906	2990.8219	3068.8	2179.05
1026.3029	2991.8887	3017.15	2124.05
1026.4152	2992.9548	3000.75	2108.25
1026.5275	2994.0204	2953.6	2064.65
1026.6397	2995.0852	2927.85	2037.05
1026.7519	2996.1495	2894.05	2002.6
1026.864	2997.2131	2853	1963.75
1026.9761	2998.276	2827.2	1935.4
1027.0882	2999.3383	2806.4	1914.15
1027.2002	3000.4	2791.65	1899.75
1027.3122	3001.4611	2775.15	1883.15
1027.4241	3002.5215	2740.2	1848.95
1027.536	3003.5812	2729.5	1838.8
1027.6478	3004.6404	2709.25	1818.2
1027.7596	3005.6989	2702.05	1809.95
1027.8714	3006.7567	2679.6	1788.05
1027.9831	3007.8139	2692.5	1779.4
1028.0947	3008.8705	2643.8	1750.85
1028.2064	3009.9264	2643.45	1749.6
1028.3179	3010.9818	2626.9	1737.15
1028.4295	3012.0364	2634.95	1743.65
1028.541	3013.0905	2622.55	1732.05
1028.6524	3014.1439	2621	1729.6
1028.7638	3015.1966	2611.95	1721.15
1028.8752	3016.2487	2594.5	1703.7
1028.9865	3017.3002	2592.75	1695.45
1029.0978	3018.3511	2586.45	1696.4
1029.209	3019.4013	2589.8	1698
1029.3202	3020.4509	2587.4	1697.95
1029.4314	3021.4998	2581.7	1692.05
1029.5425	3022.5481	2587.4	1698.6
1029.6535	3023.5958	2566.05	1674.7
1029.7645	3024.6428	2562.45	1670.15
1029.8755	3025.6892	2554.15	1663.05
1029.9864	3026.735	2550.15	1659.05
1030.0973	3027.7802	2552.2	1660.15
1030.2082	3028.8247	2543.8	1653.2
1030.319	3029.8685	2531.5	1639.6
1030.4297	3030.9118	2544.65	1651.9
1030.5404	3031.9544	2537.85	1648.9
1030.6511	3032.9963	2532.1	1642.1
1030.7617	3034.0376	2540.15	1648.45
1030.8723	3035.0783	2538.5	1645.25
1030.9829	3036.1184	2536.1	1642.8
1031.0934	3037.1578	2539.9	1650.4
1031.2038	3038.1966	2537.2	1646.75
1031.3142	3039.2348	2525.35	1634.3
1031.4246	3040.2723	2524.8	1627.15
1031.5349	3041.3092	2511.7	1618.7
1031.6452	3042.3455	2514.05	1623.6
1031.7554	3043.3811	2502.65	1609.2
1031.8656	3044.4161	2481.75	1590.45
1031.9758	3045.4505	2480.6	1592.25
1032.0859	3046.4842	2477.25	1586.1
1032.1959	3047.5173	2453.3	1562.2
1032.3059	3048.5498	2442.2	1549.8
1032.4159	3049.5816	2436.7	1546.55
1032.5258	3050.6128	2429.9	1538.75
1032.6357	3051.6434	2422	1530
1032.7455	3052.6734	2400.25	1509.7
1032.8553	3053.7027	2396.15	1504.75
1032.9651	3054.7314	2383.95	1495
1033.0748	3055.7594	2366.55	1477.75
1033.1845	3056.7868	2359.65	1468
1033.2941	3057.8136	2340.55	1451.8
1033.4037	3058.8398	2343	1452.35
1033.5132	3059.8653	2324.3	1433.2
1033.6227	3060.8902	2319.15	1428.25
1033.7321	3061.9145	2315.55	1424.4
1033.8415	3062.9381	2301.1	1410.55
1033.9509	3063.9612	2310.45	1403.3
1034.0602	3064.9835	2278.85	1388.55
1034.1694	3066.0053	2268.15	1379.35
1034.2787	3067.0264	2257.05	1367.45
1034.3878	3068.0469	2250.05	1359.35
1034.497	3069.0668	2251.1	1357.15
1034.6061	3070.086	2235.8	1343.7
1034.7151	3071.1046	2214.4	1324.1
1034.8241	3072.1226	2198.2	1307.1
1034.9331	3073.1399	2194.4	1303.75
1035.042	3074.1567	2169.65	1277.6
1035.1508	3075.1727	2165.8	1272.4
1035.2597	3076.1882	2150.5	1260.2
1035.3684	3077.203	2143.25	1251
1035.4772	3078.2173	2121.3	1229.45
1035.5859	3079.2308	2109.8	1216.4
1035.6945	3080.2438	2095.4	1202.3
1035.8031	3081.2561	2087.85	1196.4
1035.9117	3082.2678	2079.25	1188
1036.0202	3083.2789	2063.5	1173.35
1036.1286	3084.2893	2055.1	1166.45
1036.2371	3085.2991	2050.8	1157.75
1036.3454	3086.3083	2047.8	1154.5
1036.4538	3087.3169	2041.25	1148.35
1036.562	3088.3248	2031.65	1140.25
1036.6703	3089.3321	2010.8	1119.65
1036.7785	3090.3388	2004.6	1115.95
1036.8866	3091.3449	1993.4	1102.95
1036.9948	3092.3503	1983.85	1089.9
1037.1028	3093.3551	1979.55	1089.5
1037.2108	3094.3593	1972.1	1083.45
1037.3188	3095.3629	1968.65	1079.3
1037.4267	3096.3658	1961.05	1072.05
1037.5346	3097.3681	1949.45	1060.25
1037.6425	3098.3698	1948.2	1057.1
1037.7503	3099.3708	1941.55	1042.2
1037.858	3100.3713	1940.4	1050.55
1037.9657	3101.3711	1922.7	1031.7
1038.0734	3102.3702	2029.65	1025.9
1038.181	3103.3688	1922.05	1030.4
1038.2886	3104.3667	1891.2	1001.35
1038.3961	3105.364	1898.85	1009.95
1038.5036	3106.3607	1891.35	1001.75
1038.611	3107.3568	1891.1	998.65
1038.7184	3108.3522	1884.7	992.95
1038.8257	3109.347	1881.65	989.2
1038.933	3110.3412	1869.25	974.65
1039.0403	3111.3348	1866.55	975.95
1039.1475	3112.3277	1861.75	972.05
1039.2547	3113.32	1847.85	958.35
1039.3618	3114.3117	1851.2	960.45
1039.4689	3115.3028	1841.65	950.1
1039.5759	3116.2932	1829.8	937.15
1039.6829	3117.2831	1832.9	936.5
1039.7898	3118.2723	1825.1	933.65
1039.8967	3119.2608	1807.05	916.55
1040.0035	3120.2488	1811.35	921.25
1040.1103	3121.2361	1806.25	915.65
1040.2171	3122.2229	1790.15	902.3
1040.3238	3123.209	1788.65	894.3
1040.4305	3124.1944	1793.9	904.3
1040.5371	3125.1793	1783.45	890.15
1040.6437	3126.1635	1770.1	878.25
1040.7502	3127.1471	1767.2	878.95
1040.8567	3128.1301	1768.8	880.15
1040.9631	3129.1125	1764.7	876.5
1041.0695	3130.0942	1767.65	877.1
1041.1759	3131.0753	1767.3	866.9
1041.2822	3132.0558	1758.3	864.45
1041.3884	3133.0357	1756.45	864.55
1041.4946	3134.015	1748.2	856.15
1041.6008	3134.9936	1746.05	854.4
1041.7069	3135.9716	1760.15	849.55
1041.813	3136.949	1730.4	839.25
1041.919	3137.9258	1744.15	847.95
1042.025	3138.902	1727.15	832.2
1042.1309	3139.8775	1719.4	830.35
1042.2368	3140.8524	1713.15	823
1042.3427	3141.8267	1707.8	815.85
1042.4485	3142.8004	1712.2	820.55
1042.5542	3143.7735	1721.85	823
1042.6599	3144.7459	1705.1	813.35
1042.7656	3145.7178	1691.75	800.95
1042.8712	3146.689	1690.65	802
1042.9768	3147.6596	1695.4	802.65
1043.0823	3148.6295	1680.65	788.7
1043.1878	3149.5989	1684.15	793.55
1043.2932	3150.5676	1675.8	784.95
1043.3986	3151.5357	1669.1	780.2
1043.5039	3152.5032	1659.9	771.3
1043.6092	3153.4701	1656.15	766.1
1043.7145	3154.4364	1661.9	768.15
1043.8197	3155.402	1650.8	761.45
1043.9248	3156.367	1642.9	750.1
1044.03	3157.3315	1684.2	748.35
1044.135	3158.2952	1629.65	739.35
1044.24	3159.2584	1628.65	740.05
1044.345	3160.221	1628.85	738.75
1044.4499	3161.1829	1626.5	736.75
1044.5548	3162.1442	1615.5	724.4
1044.6596	3163.105	1615.7	725.3
1044.7644	3164.065	1608.1	720.5
1044.8692	3165.0245	1614.1	721.95
1044.9739	3165.9834	1601.8	711.6
1045.0785	3166.9416	1594.15	703.5
1045.1831	3167.8993	1598.45	708
1045.2877	3168.8563	1588.2	697.5
1045.3922	3169.8127	1586.65	697.15
1045.4966	3170.7684	1579.7	690.6
1045.6011	3171.7236	1571.2	680.85
1045.7054	3172.6782	1572.8	681.65
1045.8098	3173.6321	1571.45	680.3
1045.914	3174.5854	1569.4	673.7
1046.0183	3175.5381	1556.5	666
1046.1224	3176.4902	1560.55	670.3
1046.2266	3177.4417	1551.1	661.45
1046.3307	3178.3926	1549.1	659.7
1046.4347	3179.3428	1541.7	651.25
1046.5387	3180.2924	1546.1	657.05
1046.6427	3181.2415	1543.8	651.75
1046.7466	3182.1899	1541.1	650.5
1046.8504	3183.1377	1532.05	642.15
1046.9542	3184.0848	1536.2	643.75
1047.058	3185.0314	1522.25	631.2
1047.1617	3185.9773	1527.6	639.15
1047.2654	3186.9227	1518.1	626.75
1047.369	3187.8674	1517.4	627.95
1047.4726	3188.8115	1515.35	619.6
1047.5761	3189.755	1511.25	620.4
1047.6796	3190.6979	1508.6	618.8
1047.783	3191.6402	1504	615.8
1047.8864	3192.5818	1495.3	603.75
1047.9898	3193.5229	1519.6	603.65
1048.0931	3194.4633	1499	607.9
1048.1963	3195.4031	1493.9	603.2
1048.2995	3196.3423	1487.75	599.5
1048.4027	3197.2809	1485.95	595.85
1048.5058	3198.2189	1483.7	593.9
1048.6089	3199.1563	1483	588.15
1048.7119	3200.0931	1476.85	587.95
1048.8148	3201.0292	1474.2	585.65
1048.9178	3201.9648	1475.3	585.95
1049.0206	3202.8997	1466.1	573.85
1049.1235	3203.834	1460.6	569.15
1049.2262	3204.7677	1457.15	565.9
1049.329	3205.7008	1455.3	562.65
1049.4317	3206.6333	1455	567.5
1049.5343	3207.5652	1453.1	561
1049.6369	3208.4964	1453.2	564.2
1049.7394	3209.4271	1449.1	560.7
1049.8419	3210.3571	1445.3	556.8
1049.9444	3211.2865	1441.85	552.2
1050.0468	3212.2154	1443.95	550.45
1050.1491	3213.1436	1438.8	545.65
1050.2514	3214.0712	1436.3	539.15
1050.3537	3214.9982	1432.1	540.75
1050.4559	3215.9246	1431.4	541.65
1050.5581	3216.8503	1426.15	537.75
1050.6602	3217.7755	1425	534.9
1050.7623	3218.7001	1418.8	529.45
1050.8643	3219.624	1419.85	527.3
1050.9663	3220.5473	1418.05	527.25
1051.0682	3221.4701	1410.3	518.1
1051.1701	3222.3922	1415	522.5
1051.2719	3223.3137	1406.75	518.55
1051.3737	3224.2346	1408.1	517.5
1051.4754	3225.1549	1403.8	513.9
1051.5771	3226.0746	1402	511.9
1051.6788	3226.9937	1394.9	503.1
1051.7804	3227.9121	1392.45	503.75
1051.8819	3228.83	1397.8	506.6
1051.9834	3229.7473	1391	500.35
1052.0849	3230.6639	1387.4	497.75
1052.1863	3231.5799	1380.95	491.3
1052.2876	3232.4954	1378.4	490
1052.3889	3233.4102	1381.1	489.4
1052.4902	3234.3244	1378.8	488.1
1052.5914	3235.238	1366.1	475.75
1052.6926	3236.151	1390.85	475.85
1052.7937	3237.0634	1357.9	468.7
1052.8948	3237.9752	1365.05	476.7
1052.9958	3238.8864	1362.75	471.8
1053.0968	3239.797	1361.05	470.7
1053.1977	3240.7069	1360.15	469.05
1053.2986	3241.6163	1353.8	463.8
1053.3994	3242.5251	1352.75	465.1
1053.5002	3243.4332	1348.9	461.25
1053.6009	3244.3408	1345.6	455.3
1053.7016	3245.2477	1342	451.05
1053.8022	3246.154	1334.3	444.25
1053.9028	3247.0598	1339.1	447.55
1054.0034	3247.9649	1333.5	443.9
1054.1039	3248.8694	1336.75	447.1
1054.2043	3249.7733	1323.6	433.9
1054.3047	3250.6766	1319.15	431.1
1054.4051	3251.5793	1324.2	435.55
1054.5054	3252.4814	1316.9	429.25
1054.6056	3253.3829	1308.1	417.8
1054.7058	3254.2838	1312.3	421.5
1054.806	3255.1841	1313.9	423.1
1054.9061	3256.0838	1307.6	417.7
1055.0061	3256.9829	1299.75	410.7
1055.1062	3257.8814	1296.35	404.9
1055.2061	3258.7792	1299.5	406.5
1055.306	3259.6765	1291.85	401.3
1055.4059	3260.5731	1282.9	394.3
1055.5057	3261.4692	1283.05	393.3
1055.6055	3262.3647	1280.05	388.8
1055.7052	3263.2595	1275.05	385.5
1055.8049	3264.1538	1264.55	374.65
1055.9045	3265.0474	1263.5	375.05
1056.0041	3265.9404	1250.7	361.15
1056.1036	3266.8329	1245.55	356.45
1056.2031	3267.7247	1251.7	351.15
1056.3025	3268.616	1236.45	349
1056.4019	3269.5066	1224	334.5
1056.5013	3270.3966	1217	325.4
1056.6005	3271.286	1205.85	317.4
