Software Version:	3.9.2.0
Unit SN:	10000200
Spectrometer SN:	6960
Date:	3/6/2024 10:26:59 AM
Data Line Index:	25
Spectral Points:	2048
Integration time (ms):	125
Averages:	20
Delay (ms):	30
Sequence Number:	1
Processing:	dark subtract
Laser Power (mW):	300
Laser Current (mA):	824
Laser Diode Temp (C):	25.1
Laser Case Temp (C):	26
System Temp (C):	25.7
Spectrometer Temp (C):	23.2
CCD Temp (C):	0.009
Secondary Temp (C):	20.014
Heatsink Temp (C):	21.358
CCDPCB Temp (C):	35.896
SecondaryPCB Temp (C):	28.159

Wavelength	RamanShift	Raw Counts	Dark Subtracted
787.061	30.1047	1101.85	693.1
787.2016	32.3739	1130.05	720.75
787.3422	34.6426	1174.95	762.9
787.4828	36.9109	1210.6	799.85
787.6235	39.1787	1277.45	861.9
787.7642	41.4461	1326.35	906.2
787.9049	43.7131	1390.9	968.85
788.0456	45.9796	1446.9	1019.55
788.1863	48.2456	1520.05	1087.6
788.3271	50.5112	1583.25	1147.75
788.4679	52.7764	1651	1213.3
788.6087	55.0411	1720.05	1277.55
788.7496	57.3054	1809.15	1361.8
788.8904	59.5692	1888.9	1438.9
789.0313	61.8326	1983.4	1531.5
789.1722	64.0955	2070.85	1614.65
789.3132	66.3579	2205.5	1745.1
789.4541	68.6199	2348.95	1884.95
789.5951	70.8815	2589.75	2122.6
789.7361	73.1426	3110.95	2639.6
789.8771	75.4032	4441.85	3963.8
790.0181	77.6634	7833.85	7353.45
790.1592	79.9231	16815.4	16326.9
790.3003	82.1824	53618	53119.65
790.4414	84.4412	65535	65015.4
790.5825	86.6995	65535	64988.6
790.7237	88.9574	65535	64961.35
790.8648	91.2148	65535	64943.3
791.006	93.4717	65535	64933.55
791.1472	95.7282	65535	64926.65
791.2885	97.9842	65535	64923.45
791.4297	100.2398	65535	64918.6
791.571	102.4949	65535	64920.7
791.7123	104.7495	65535	64915.25
791.8536	107.0036	65535	64914.55
791.9949	109.2573	65535	64911.75
792.1363	111.5105	65535	64914.7
792.2777	113.7632	65535	64909.75
792.4191	116.0154	65535	64900.2
792.5605	118.2672	65535	64904.6
792.7019	120.5185	65535	64903.35
792.8434	122.7693	65535	64899.75
792.9849	125.0197	65535	64897.15
793.1264	127.2696	65535	64894.1
793.2679	129.519	65535	64889.45
793.4094	131.7679	65535	64890.25
793.551	134.0163	65535	64886.6
793.6926	136.2642	65535	64882.35
793.8342	138.5117	65535	64873.3
793.9758	140.7587	65535	64876.45
794.1175	143.0052	65535	64877.45
794.2591	145.2512	65535	64875.9
794.4008	147.4967	65535	64876.2
794.5425	149.7417	65535	64873.15
794.6842	151.9863	65535	64868.9
794.826	154.2304	65535	64863.05
794.9677	156.4739	65535	64858.1
795.1095	158.717	65535	64861.3
795.2513	160.9596	65535	64854.95
795.3931	163.2017	65535	64855.35
795.535	165.4433	65535	64848.45
795.6768	167.6844	65535	64849.1
795.8187	169.925	65535	64845.2
795.9606	172.1651	65535	64845.3
796.1025	174.4047	65535	64838.85
796.2445	176.6439	65535	64836.2
796.3864	178.8825	65535	64835
796.5284	181.1206	65535	64830.4
796.6704	183.3582	65535	64827.45
796.8124	185.5954	65535	64822.65
796.9544	187.832	65535	64822.85
797.0965	190.0681	65535	64821.9
797.2386	192.3037	65535	64816.5
797.3806	194.5388	65535	64811.6
797.5228	196.7734	65535	64813.8
797.6649	199.0075	65535	64806.7
797.807	201.2411	65535	64806.95
797.9492	203.4742	65535	64807.35
798.0914	205.7068	65535	64804.4
798.2336	207.9389	65535	64799.2
798.3758	210.1704	65535	64801.55
798.518	212.4015	65535	64807.8
798.6603	214.632	65535	64817.65
798.8025	216.862	65535	64819.55
798.9448	219.0915	65535	64822.05
799.0871	221.3205	65535	64819.7
799.2294	223.549	65535	64820.15
799.3718	225.777	65535	64827.1
799.5141	228.0044	65535	64816.15
799.6565	230.2314	65535	64819.8
799.7989	232.4578	65535	64814.5
799.9413	234.6837	65535	64805.45
800.0837	236.909	65535	64800.65
800.2262	239.1339	65535	64779.1
800.3687	241.3582	65535	64792.55
800.5111	243.582	65535	64763.75
800.6536	245.8053	65535	64777.2
800.7961	248.0281	65535	64784.55
800.9387	250.2503	65535	64776.6
801.0812	252.472	65535	64774.75
801.2238	254.6932	65535	64771.8
801.3664	256.9139	65535	64774.1
801.509	259.134	65535	64764.7
801.6516	261.3536	65535	64769.9
801.7942	263.5727	65535	64767.9
801.9369	265.7912	65535	64772.1
802.0795	268.0092	65535	64766.15
802.2222	270.2267	65535	64769.6
802.3649	272.4436	65535	64766.95
802.5076	274.6601	65535	64758.35
802.6504	276.8759	65535	64761.5
802.7931	279.0913	65535	64757.1
802.9359	281.3061	65535	64758.25
803.0787	283.5204	65535	64757.8
803.2215	285.7341	65535	64750.6
803.3643	287.9473	65535	64739.45
803.5071	290.16	65535	64745.75
803.6499	292.3721	65535	64756
803.7928	294.5837	65535	64753.6
803.9357	296.7947	65535	64754.4
804.0786	299.0052	65535	64754.1
804.2215	301.2152	65535	64752.85
804.3644	303.4246	65535	64753.15
804.5074	305.6334	65535	64756.3
804.6503	307.8418	65535	64748.9
804.7933	310.0495	65535	64747
804.9363	312.2568	65535	64748.1
805.0793	314.4635	65535	64746.05
805.2223	316.6696	65535	64743.5
805.3653	318.8752	65535	64734.4
805.5084	321.0802	65535	64742.45
805.6514	323.2847	65535	64743.8
805.7945	325.4887	65535	64742.3
805.9376	327.692	65535	64734.75
806.0807	329.8949	65535	64736.05
806.2238	332.0972	65535	64732.5
806.367	334.2989	65535	64737.3
806.5101	336.5001	65535	64734.15
806.6533	338.7007	65535	64735.05
806.7965	340.9008	65535	64733
806.9397	343.1003	65535	64731.7
807.0829	345.2992	65535	64731.95
807.2261	347.4976	65535	64725.65
807.3693	349.6955	65535	64725.1
807.5126	351.8927	65535	64722.1
807.6559	354.0895	65535	64713.9
807.7991	356.2856	65535	64723.95
807.9424	358.4812	65535	64725.7
808.0857	360.6763	65535	64721.75
808.2291	362.8707	65535	64718.8
808.3724	365.0646	65535	64717.05
808.5158	367.258	65535	64715.8
808.6591	369.4508	65535	64709.3
808.8025	371.643	65535	64712
808.9459	373.8346	65535	64711.15
809.0893	376.0257	65535	64706.55
809.2327	378.2162	65535	64705.6
809.3762	380.4062	65535	64703.6
809.5196	382.5956	65535	64703.3
809.6631	384.7844	65535	64708.85
809.8066	386.9726	65535	64709.85
809.9501	389.1603	65535	64714.55
810.0936	391.3474	65535	64675.35
810.2371	393.5339	65535	64711.35
810.3806	395.7199	65535	64711.25
810.5241	397.9052	65535	64718.05
810.6677	400.09	65535	64713.6
810.8113	402.2743	65535	64716.1
810.9548	404.4579	65535	64711.65
811.0984	406.641	65535	64710.1
811.2421	408.8235	65535	64710.35
811.3857	411.0054	65535	64707.15
811.5293	413.1868	65535	64707.25
811.673	415.3675	65535	64704.6
811.8166	417.5477	65535	64701.05
811.9603	419.7273	65535	64699.45
812.104	421.9064	65535	64693.4
812.2477	424.0848	65535	64695.15
812.3914	426.2627	65535	64696.35
812.5351	428.4399	65535	64696
812.6788	430.6166	65535	64691.5
812.8226	432.7928	65535	64692.1
812.9663	434.9683	65535	64690.35
813.1101	437.1432	65535	64689.8
813.2539	439.3176	65535	64691.35
813.3977	441.4914	65535	64690.55
813.5415	443.6645	65535	64691.9
813.6853	445.8371	65535	64688.1
813.8291	448.0091	65535	64690.5
813.973	450.1806	65535	64688.35
814.1168	452.3514	65535	64687.15
814.2607	454.5216	65535	64679.2
814.4046	456.6913	65535	64686.25
814.5485	458.8603	65535	64684.65
814.6924	461.0288	65535	64683.5
814.8363	463.1967	65535	64688.8
814.9802	465.3639	65535	64682.55
815.1241	467.5306	65535	64684.85
815.2681	469.6967	65535	64688.1
815.412	471.8622	65535	64687
815.556	474.0271	65535	64682.8
815.7	476.1914	65535	64684.5
815.844	478.3551	65535	64682.8
815.988	480.5182	65535	64686
816.132	482.6807	65535	64682.8
816.276	484.8426	65535	64685.35
816.4201	487.0039	65535	64680.5
816.5641	489.1647	65535	64680.55
816.7082	491.3248	65535	64680
816.8522	493.4843	65535	64680.5
816.9963	495.6432	65535	64683.15
817.1404	497.8015	65535	64675.25
817.2845	499.9592	65535	64680.75
817.4286	502.1163	65535	64679.25
817.5727	504.2728	65535	64674.9
817.7168	506.4287	65535	64679.9
817.861	508.5839	65535	64677.15
818.0051	510.7386	65535	64679.6
818.1493	512.8927	65535	64669.8
818.2935	515.0461	65535	64676.15
818.4377	517.199	65535	64671.15
818.5818	519.3512	65535	64673.3
818.726	521.5029	65535	64667.85
818.8703	523.6539	65535	64669.95
819.0145	525.8043	65535	64673.5
819.1587	527.9541	65535	64669.95
819.303	530.1033	65535	64672.25
819.4472	532.2519	65535	64669.1
819.5915	534.3999	65535	64666.65
819.7357	536.5472	65535	64668.1
819.88	538.694	65535	64667.2
820.0243	540.8401	65535	64669.9
820.1686	542.9856	65535	64663.55
820.3129	545.1305	65535	64664.95
820.4572	547.2748	65535	64664.65
820.6016	549.4185	65535	64656.95
820.7459	551.5615	65535	64663.25
820.8902	553.704	65535	64662.5
821.0346	555.8458	65535	64664.45
821.1789	557.987	65535	64664.05
821.3233	560.1276	65535	64665.2
821.4677	562.2675	65535	64664.95
821.6121	564.4069	65535	64666.3
821.7565	566.5456	65535	64668.95
821.9009	568.6837	65535	64667.4
822.0453	570.8212	65535	64668.55
822.1897	572.958	65535	64666
822.3342	575.0942	65535	64666.7
822.4786	577.2299	65535	64666.45
822.6231	579.3648	65535	64668.6
822.7675	581.4992	65535	64666.45
822.912	583.6329	65535	64666.25
823.0565	585.766	65535	64668.45
823.201	587.8985	65535	64662.95
823.3454	590.0304	65535	64640.1
823.4899	592.1616	65535	64660.8
823.6345	594.2922	65535	64660.55
823.779	596.4222	65535	64659.15
823.9235	598.5515	65535	64655.5
824.068	600.6802	65535	64659.05
824.2126	602.8083	65535	64659.3
824.3571	604.9358	65535	64655.2
824.5017	607.0626	65535	64660.2
824.6462	609.1888	65535	64656.35
824.7908	611.3144	65535	64656.95
824.9354	613.4393	65535	64658.85
825.08	615.5636	65535	64658.95
825.2246	617.6873	65535	64657
825.3692	619.8103	65535	64654.9
825.5138	621.9327	65535	64653.8
825.6584	624.0544	65535	64658.2
825.803	626.1756	65535	64654.7
825.9477	628.2961	65535	64656.65
826.0923	630.4159	65535	64652.2
826.237	632.5351	65535	64654.45
826.3816	634.6537	65535	64653.4
826.5263	636.7716	65535	64654.55
826.6709	638.8889	65535	64652
826.8156	641.0056	65535	64654.25
826.9603	643.1216	65535	64651.05
827.105	645.237	65535	64650.1
827.2497	647.3518	65535	64654.7
827.3944	649.4659	65535	64656
827.5391	651.5793	65535	64651.3
827.6838	653.6922	65535	64654.55
827.8285	655.8043	65535	64654.75
827.9733	657.9159	65535	64651
828.118	660.0268	65535	64650.55
828.2627	662.137	65535	64649.1
828.4075	664.2466	65535	64648.65
828.5522	666.3556	65535	64652.35
828.697	668.4639	65535	64648.25
828.8418	670.5716	65535	64649.55
828.9865	672.6786	65535	64648.05
829.1313	674.785	65535	64645.85
829.2761	676.8907	65535	64647.1
829.4209	678.9958	65535	64648.15
829.5657	681.1002	65535	64650.15
829.7105	683.204	65535	64646.35
829.8553	685.3072	65535	64647.55
830.0001	687.4097	65535	64648.05
830.1449	689.5115	65535	64643.1
830.2898	691.6127	65535	64646.5
830.4346	693.7132	65535	64645.05
830.5794	695.8131	65535	64638.6
830.7243	697.9123	65535	64646.3
830.8691	700.0109	65535	64644
831.014	702.1089	65535	64644.8
831.1588	704.2061	65535	64643.05
831.3037	706.3028	65535	64643.15
831.4486	708.3987	65535	64643
831.5935	710.4941	65535	64646.95
831.7383	712.5887	65535	64645.3
831.8832	714.6827	65535	64642.15
832.0281	716.7761	65535	64646.8
832.173	718.8688	65535	64644.8
832.3179	720.9608	65535	64638.6
832.4628	723.0522	65535	64640.6
832.6077	725.1429	65535	64643.35
832.7527	727.233	65535	64642.85
832.8976	729.3224	65535	64644.25
833.0425	731.4112	65535	64639.2
833.1874	733.4993	65535	64638.45
833.3324	735.5867	65535	64644.3
833.4773	737.6735	65535	64640.2
833.6222	739.7596	65535	64643.8
833.7672	741.845	65535	64642.05
833.9122	743.9298	65535	64638.6
834.0571	746.014	65535	64640.15
834.2021	748.0974	65535	64640.2
834.347	750.1802	65535	64639.2
834.492	752.2624	65535	64640.95
834.637	754.3439	65535	64639.15
834.782	756.4247	65535	64631.15
834.9269	758.5048	65535	64641.3
835.0719	760.5843	65535	64639.6
835.2169	762.6631	65535	64643.6
835.3619	764.7413	65535	64642.5
835.5069	766.8188	65535	64638.25
835.6519	768.8956	65535	64636.95
835.7969	770.9718	65535	64638
835.9419	773.0473	65535	64637.8
836.0869	775.1221	65535	64640.5
836.232	777.1962	65535	64640.1
836.377	779.2697	65535	64637.35
836.522	781.3426	65535	64619.4
836.667	783.4147	65535	64640.1
836.8121	785.4862	65535	64641.55
836.9571	787.557	65535	64639
837.1021	789.6271	65535	64636.05
837.2472	791.6966	65535	64639.25
837.3922	793.7654	65535	64636.35
837.5373	795.8335	65535	64639.75
837.6823	797.901	65535	64637.6
837.8274	799.9678	65535	64634.55
837.9724	802.0339	65535	64638
838.1175	804.0993	65535	64627.7
838.2626	806.1641	65535	64636.85
838.4076	808.2282	65535	64637.1
838.5527	810.2916	65535	64635.5
838.6978	812.3544	65535	64637.9
838.8428	814.4164	65535	64639.15
838.9879	816.4778	65535	64633.85
839.133	818.5385	65535	64637.85
839.2781	820.5986	65535	64637.45
839.4232	822.658	65535	64632.25
839.5682	824.7166	65535	64636.65
839.7133	826.7747	65535	64639.15
839.8584	828.832	65535	64636.7
840.0035	830.8886	65535	64637.5
840.1486	832.9446	65535	64634.45
840.2937	834.9999	65535	64638.85
840.4388	837.0545	65535	64634.15
840.5839	839.1085	65535	64632.9
840.729	841.1618	65535	64632.4
840.8741	843.2143	65535	64635.85
841.0192	845.2662	65535	64635.75
841.1643	847.3175	65535	64637.35
841.3095	849.368	65535	64638.7
841.4546	851.4179	65535	64634.4
841.5997	853.467	65535	64635.4
841.7448	855.5155	65535	64634.95
841.8899	857.5633	65535	64634.7
842.0351	859.6105	65535	64635.15
842.1802	861.6569	65535	64635.5
842.3253	863.7027	65535	64634.25
842.4704	865.7478	65535	64635.3
842.6156	867.7922	65535	64635.4
842.7607	869.8359	65535	64631.65
842.9058	871.8789	65535	64635.05
843.0509	873.9212	65535	64603.3
843.1961	875.9629	65535	64635.25
843.3412	878.0039	65535	64633.15
843.4863	880.0441	65535	64637.85
843.6315	882.0837	65535	64633
843.7766	884.1226	65535	64633.15
843.9218	886.1609	65535	64634.9
844.0669	888.1984	65535	64633.4
844.212	890.2352	65535	64634.1
844.3572	892.2714	65535	64629.75
844.5023	894.3069	65535	64634.1
844.6475	896.3416	65535	64634.75
844.7926	898.3757	65535	64635.25
844.9377	900.4091	65535	64634.25
845.0829	902.4418	65535	64629.7
845.228	904.4739	65535	64630.95
845.3732	906.5052	65535	64635.6
845.5183	908.5358	65535	64634.4
845.6635	910.5658	65535	64629.1
845.8086	912.595	65535	64633.15
845.9538	914.6236	65535	64631.85
846.0989	916.6515	65535	64634.7
846.2441	918.6786	65535	64630.55
846.3892	920.7051	65535	64631.15
846.5344	922.7309	65535	64630.85
846.6795	924.756	65535	64632.25
846.8246	926.7804	65535	64630.45
846.9698	928.8041	65535	64631.45
847.1149	930.8272	65535	64635.5
847.2601	932.8495	65535	64631.35
847.4052	934.8711	65535	64634
847.5504	936.892	65535	64634.75
847.6955	938.9123	65535	64630.65
847.8407	940.9318	65535	64631.95
847.9858	942.9506	65535	64633.55
848.131	944.9688	65535	64630.35
848.2761	946.9862	65535	64631.95
848.4213	949.003	65535	64631.2
848.5664	951.019	65535	64630.7
848.7115	953.0344	65535	64631.6
848.8567	955.0491	65535	64630.8
849.0018	957.063	65535	64633.5
849.147	959.0763	65535	64632.85
849.2921	961.0888	65535	64630.4
849.4373	963.1007	65535	64631.4
849.5824	965.1119	65535	64633.45
849.7275	967.1223	65535	64634.2
849.8727	969.1321	65535	64634.15
850.0178	971.1412	65535	64632.75
850.1629	973.1495	65535	64630.25
850.3081	975.1572	65535	64597.7
850.4532	977.1641	65535	64630.15
850.5983	979.1704	65535	64633.5
850.7435	981.1759	65535	64626.75
850.8886	983.1808	65535	64629.8
851.0337	985.1849	65535	64617.3
851.1788	987.1884	65535	64630.85
851.324	989.1911	65535	64627.9
851.4691	991.1932	65535	64630.3
851.6142	993.1945	65535	64632.7
851.7593	995.1951	65535	64631
851.9045	997.1951	65535	64627.05
852.0496	999.1943	65535	64631.7
852.1947	1001.1928	65535	64629.95
852.3398	1003.1906	65535	64632.15
852.4849	1005.1877	65535	64631
852.63	1007.1841	65535	64634.55
852.7751	1009.1798	65535	64629.8
852.9202	1011.1748	65535	64633.65
853.0653	1013.1691	65535	64630.15
853.2104	1015.1627	65535	64631.5
853.3555	1017.1556	65535	64631.35
853.5006	1019.1477	65535	64631.45
853.6457	1021.1392	65535	64634.95
853.7908	1023.1299	65535	64631.45
853.9359	1025.12	65535	64629.35
854.081	1027.1093	65535	64635.45
854.2261	1029.0979	65535	64635.75
854.3712	1031.0859	65535	64636.6
854.5163	1033.0731	65535	64630.5
854.6613	1035.0596	65535	64632.5
854.8064	1037.0454	65535	64633.9
854.9515	1039.0304	65535	64631.65
855.0965	1041.0148	65535	64631.4
855.2416	1042.9985	65535	64632.35
855.3867	1044.9814	65535	64632.25
855.5317	1046.9636	65535	64630.55
855.6768	1048.9452	65535	64632.35
855.8219	1050.926	65535	64632.7
855.9669	1052.9061	65535	64632.85
856.112	1054.8855	65535	64633.2
856.257	1056.8642	65535	64632.05
856.4021	1058.8421	65535	64627.95
856.5471	1060.8194	65535	64630.7
856.6921	1062.7959	65535	64634.7
856.8372	1064.7717	65535	64630.5
856.9822	1066.7469	65535	64630.95
857.1272	1068.7213	65535	64628.5
857.2723	1070.695	65535	64632.9
857.4173	1072.6679	65535	64630
857.5623	1074.6402	65535	64629.1
857.7073	1076.6117	65535	64623
857.8523	1078.5826	65535	64629.55
857.9973	1080.5527	65535	64630.9
858.1423	1082.5221	65535	64633.05
858.2873	1084.4908	65535	64633.45
858.4323	1086.4587	65535	64630.8
858.5773	1088.426	65535	64629.2
858.7223	1090.3925	65535	64630.05
858.8673	1092.3584	65535	64632.4
859.0123	1094.3235	65535	64633.15
859.1573	1096.2879	65535	64630.5
859.3022	1098.2515	65535	64631.35
859.4472	1100.2145	65535	64634.55
859.5922	1102.1767	65535	64630.25
859.7371	1104.1382	65535	64631.4
859.8821	1106.099	65535	64631.6
860.027	1108.0591	65535	64630.9
860.172	1110.0185	65535	64634.3
860.3169	1111.9771	65535	64633.45
860.4619	1113.9351	65535	64631
860.6068	1115.8923	65535	64629.4
860.7517	1117.8488	65535	64628.75
860.8967	1119.8045	65535	64630.35
861.0416	1121.7596	65535	64630.65
861.1865	1123.7139	65535	64633.25
861.3314	1125.6675	65535	64630.9
861.4763	1127.6204	65535	64633.75
861.6212	1129.5726	65535	64630.55
861.7661	1131.524	65535	64633.9
861.911	1133.4748	65535	64631.75
862.0559	1135.4248	65535	64633.2
862.2008	1137.3741	65535	64633.2
862.3457	1139.3226	65535	64629.4
862.4905	1141.2705	65535	64632.35
862.6354	1143.2176	65535	64628.4
862.7803	1145.164	65535	64627.05
862.9251	1147.1097	65535	64632.55
863.07	1149.0546	65535	64631.2
863.2148	1150.9989	65535	64631.3
863.3597	1152.9424	65535	64630.4
863.5045	1154.8852	65535	64631.85
863.6493	1156.8272	65535	64632.2
863.7942	1158.7686	65535	64624.7
863.939	1160.7092	65535	64630
864.0838	1162.6491	65535	64628.85
864.2286	1164.5883	65535	64633.5
864.3734	1166.5267	65535	64630.6
864.5182	1168.4644	65535	64630.7
864.663	1170.4014	65535	64623.95
864.8078	1172.3377	65535	64632.2
864.9526	1174.2732	65535	64631.4
865.0974	1176.2081	65535	64632.2
865.2421	1178.1421	65535	64627.3
865.3869	1180.0755	65535	64631.9
865.5317	1182.0082	65535	64632
865.6764	1183.9401	65535	64633.4
865.8212	1185.8713	65535	64634.35
865.9659	1187.8017	65535	64635
866.1106	1189.7315	65535	64635.35
866.2554	1191.6605	65535	64605.7
866.4001	1193.5888	65535	64633.6
866.5448	1195.5163	65535	64630.95
866.6895	1197.4432	65535	64630.1
866.8342	1199.3693	65535	64632.5
866.9789	1201.2947	65535	64632.2
867.1236	1203.2193	65535	64630.5
867.2683	1205.1432	65535	64633.6
867.413	1207.0664	65535	64634.45
867.5576	1208.9889	65535	64631.2
867.7023	1210.9106	65535	64633.9
867.847	1212.8316	65535	64633
867.9916	1214.7519	65535	64625.3
868.1363	1216.6715	65535	64631.7
868.2809	1218.5903	65535	64634.85
868.4255	1220.5084	65535	64632.25
868.5701	1222.4257	65535	64632.25
868.7148	1224.3424	65535	64634
868.8594	1226.2583	65535	64628.9
869.004	1228.1735	65535	64631.25
869.1486	1230.0879	65535	64633.05
869.2932	1232.0016	65535	64633.6
869.4377	1233.9146	65535	64633.7
869.5823	1235.8269	65535	64632
869.7269	1237.7384	65535	64633.3
869.8715	1239.6492	65535	64635.05
870.016	1241.5592	65535	64632
870.1606	1243.4686	65535	64632.95
870.3051	1245.3772	65535	64634.3
870.4496	1247.285	65535	64631.7
870.5941	1249.1922	65535	64632.65
870.7387	1251.0986	65535	64634.4
870.8832	1253.0042	65535	64633.65
871.0277	1254.9092	65535	64635.4
871.1722	1256.8134	65535	64634.75
871.3167	1258.7169	65535	64633.8
871.4611	1260.6196	65535	64633.8
871.6056	1262.5216	65535	64631.55
871.7501	1264.4229	65535	64635.45
871.8945	1266.3234	65535	64633.6
872.039	1268.2232	65535	64633.2
872.1834	1270.1223	65535	64631.25
872.3278	1272.0207	65535	64634.3
872.4723	1273.9183	65535	64627.65
872.6167	1275.8151	65535	64634.7
872.7611	1277.7113	65535	64635.6
872.9055	1279.6067	65535	64634.8
873.0499	1281.5014	65535	64634.2
873.1943	1283.3953	65535	64629.45
873.3386	1285.2885	65535	64632.9
873.483	1287.181	65535	64632.65
873.6274	1289.0727	65535	64634.7
873.7717	1290.9637	65535	64631.05
873.9161	1292.854	65535	64634
874.0604	1294.7435	65535	64631.2
874.2047	1296.6323	65535	64631.9
874.349	1298.5204	65535	64630.1
874.4933	1300.4077	65535	64633.2
874.6376	1302.2943	65535	64632.35
874.7819	1304.1802	65535	64635.2
874.9262	1306.0653	65535	64632.55
875.0705	1307.9497	65535	64630.55
875.2147	1309.8333	65535	64632.5
875.359	1311.7162	65535	64634.05
875.5032	1313.5984	65535	64630.55
875.6475	1315.4798	65535	64632.95
875.7917	1317.3605	65535	64616.45
875.9359	1319.2405	65535	64630.85
876.0801	1321.1197	65535	64629.9
876.2243	1322.9982	65535	64628.8
876.3685	1324.876	65535	64633.65
876.5127	1326.753	65535	64630.85
876.6569	1328.6293	65535	64631.85
876.801	1330.5048	65535	64630.2
876.9452	1332.3796	65535	64633.3
877.0893	1334.2537	65535	64611.85
877.2335	1336.127	65535	64634.25
877.3776	1337.9996	65535	64635.65
877.5217	1339.8714	65535	64633.75
877.6658	1341.7426	65535	64589.45
877.8099	1343.6129	65535	64631.45
877.954	1345.4826	65535	64633.2
878.0981	1347.3515	65535	64628.75
878.2422	1349.2196	65535	64631.2
878.3862	1351.087	65535	64633.1
878.5303	1352.9537	65535	64632.95
878.6743	1354.8197	65535	64632.95
878.8184	1356.6849	65535	64633.25
878.9624	1358.5493	65535	64633.5
879.1064	1360.4131	65535	64632.7
879.2504	1362.276	65535	64632.95
879.3944	1364.1383	65535	64633.45
879.5384	1365.9998	65535	64629.35
879.6823	1367.8606	65535	64632.9
879.8263	1369.7206	65535	64634.25
879.9702	1371.5799	65535	64632.35
880.1142	1373.4384	65535	64632.55
880.2581	1375.2962	65535	64631.8
880.402	1377.1533	65535	64632.8
880.5459	1379.0096	65535	64633.9
880.6898	1380.8652	65535	64634.2
880.8337	1382.7201	65535	64633.7
880.9776	1384.5742	65535	64633.75
881.1215	1386.4275	65535	64633.3
881.2653	1388.2802	65535	64633.75
881.4092	1390.132	65535	64632.7
881.553	1391.9832	65535	64633.6
881.6968	1393.8336	65535	64633.9
881.8406	1395.6832	65535	64631.2
881.9844	1397.5322	65535	64633.25
882.1282	1399.3803	65535	64626.9
882.272	1401.2278	65535	64633.3
882.4158	1403.0745	65535	64632.5
882.5595	1404.9204	65535	64634.85
882.7033	1406.7656	65535	64635.85
882.847	1408.6101	65535	64633.4
882.9908	1410.4538	65535	64633
883.1345	1412.2968	65535	64631.55
883.2782	1414.139	65535	64635.5
883.4219	1415.9805	65535	64635.25
883.5656	1417.8213	65535	64628.75
883.7092	1419.6613	65535	64634
883.8529	1421.5006	65535	64634.05
883.9965	1423.3391	65535	64630.7
884.1402	1425.1769	65535	64630.55
884.2838	1427.0139	65535	64634
884.4274	1428.8502	65535	64634.5
884.571	1430.6858	65535	64632.55
884.7146	1432.5206	65535	64633.05
884.8582	1434.3547	65535	64633.75
885.0018	1436.188	65535	64633.6
885.1453	1438.0206	65535	64635.05
885.2889	1439.8524	65535	64635
885.4324	1441.6835	65535	64631.1
885.5759	1443.5139	65535	64630.7
885.7194	1445.3435	65535	64631.3
885.8629	1447.1724	65535	64633.2
886.0064	1449.0005	65535	64635.1
886.1499	1450.8279	65535	64632.3
886.2933	1452.6545	65535	64636.85
886.4368	1454.4804	65535	64637.45
886.5802	1456.3056	65535	64627.9
886.7237	1458.13	65535	64634.75
886.8671	1459.9536	65535	64631.4
887.0105	1461.7766	65535	64634.4
887.1539	1463.5987	65535	64633.55
887.2972	1465.4202	65535	64635.45
887.4406	1467.2409	65535	64633.25
887.584	1469.0608	65535	64634.4
887.7273	1470.88	65535	64634.95
887.8706	1472.6984	65535	64635.8
888.0139	1474.5161	65535	64632.45
888.1572	1476.3331	65535	64633.55
888.3005	1478.1493	65535	64632.9
888.4438	1479.9648	65535	64635.05
888.5871	1481.7795	65535	64634.65
888.7303	1483.5935	65535	64636.05
888.8736	1485.4067	65535	64634.35
889.0168	1487.2192	65535	64635.3
889.16	1489.031	65535	64633.1
889.3032	1490.842	65535	64634.2
889.4464	1492.6522	65535	64638.15
889.5896	1494.4618	65535	64633.3
889.7327	1496.2705	65535	64635.45
889.8759	1498.0785	65535	64635.4
890.019	1499.8858	65535	64634.05
890.1622	1501.6924	65535	64635.65
890.3053	1503.4981	65535	64635.05
890.4484	1505.3032	65535	64634.2
890.5914	1507.1075	65535	64635.8
890.7345	1508.911	65535	64634.75
890.8776	1510.7138	65535	64634.7
891.0206	1512.5159	65535	64635.6
891.1637	1514.3172	65535	64635.95
891.3067	1516.1178	65535	64638.05
891.4497	1517.9176	65535	64634
891.5927	1519.7166	65535	64635.8
891.7357	1521.515	65535	64626.2
891.8786	1523.3126	65535	64634.15
892.0216	1525.1094	65535	64632.25
892.1645	1526.9055	65535	64636.65
892.3074	1528.7008	65535	64636.35
892.4503	1530.4954	65535	64634.7
892.5932	1532.2893	65535	64638.85
892.7361	1534.0824	65535	64631.6
892.879	1535.8747	65535	64636.75
893.0218	1537.6663	65535	64637.1
893.1647	1539.4572	65535	64633.55
893.3075	1541.2473	65535	64636.2
893.4503	1543.0367	65535	64635.1
893.5931	1544.8253	65535	64634
893.7359	1546.6132	65535	64633.35
893.8787	1548.4003	65535	64622.7
894.0214	1550.1867	65535	64627.7
894.1642	1551.9723	65535	64631.2
894.3069	1553.7572	65535	64635.9
894.4496	1555.5414	65535	64635.8
894.5923	1557.3247	65535	64635.75
894.735	1559.1074	65535	64638.05
894.8777	1560.8893	65535	64635.9
895.0204	1562.6705	65535	64635.5
895.163	1564.4509	65535	64636.85
895.3056	1566.2305	65535	64635.35
895.4482	1568.0094	65535	64639.3
895.5908	1569.7876	65535	64639.2
895.7334	1571.565	65535	64639
895.876	1573.3417	65535	64638.05
896.0186	1575.1176	65535	64639.3
896.1611	1576.8928	65535	64637.4
896.3036	1578.6672	65535	64639.45
896.4461	1580.4409	65535	64638.95
896.5886	1582.2138	65535	64639
896.7311	1583.986	65535	64636.9
896.8736	1585.7575	65535	64640.05
897.0161	1587.5282	65535	64640.4
897.1585	1589.2981	65535	64638.15
897.3009	1591.0673	65535	64640.55
897.4433	1592.8358	65535	64638.75
897.5857	1594.6035	65535	64637.3
897.7281	1596.3704	65535	64637.4
897.8705	1598.1366	65535	64637.7
898.0128	1599.9021	65535	64638.35
898.1551	1601.6668	65535	64639.05
898.2975	1603.4308	65535	64638.15
898.4398	1605.194	65535	64633.05
898.5821	1606.9564	65535	64638.85
898.7243	1608.7182	65535	64639.3
898.8666	1610.4791	65535	64639.35
899.0088	1612.2394	65535	64641.5
899.1511	1613.9988	65535	64640.95
899.2933	1615.7576	65535	64641.15
899.4355	1617.5156	65535	64633.3
899.5776	1619.2728	65535	64639.1
899.7198	1621.0293	65535	64639.55
899.862	1622.785	65535	64635.85
900.0041	1624.54	65535	64636.45
900.1462	1626.2942	65535	64638.7
900.2883	1628.0477	65535	64635.75
900.4304	1629.8005	65535	64637.35
900.5725	1631.5525	65535	64640.7
900.7145	1633.3037	65535	64640
900.8566	1635.0542	65535	64639.55
900.9986	1636.804	65535	64641.45
901.1406	1638.553	65535	64552.2
901.2826	1640.3013	65535	64639.55
901.4245	1642.0488	65535	64639.15
901.5665	1643.7955	65535	64640.15
901.7085	1645.5416	65535	64641.45
901.8504	1647.2868	65535	64640
901.9923	1649.0313	65535	64641.05
902.1342	1650.7751	65535	64635.9
902.2761	1652.5181	65535	64641.35
902.4179	1654.2604	65535	64639.95
902.5598	1656.0019	65535	64642.4
902.7016	1657.7427	65535	64642.85
902.8434	1659.4828	65535	64643.25
902.9852	1661.222	65535	64640.05
903.127	1662.9606	65535	64640.65
903.2687	1664.6984	65535	64640.15
903.4105	1666.4354	65535	64638.5
903.5522	1668.1717	65535	64640.65
903.6939	1669.9072	65531.95	64638.25
903.8356	1671.642	65535	64637.2
903.9773	1673.3761	65532.55	64640.85
904.119	1675.1094	65528.9	64633.35
904.2606	1676.8419	65504.35	64611.8
904.4022	1678.5737	65524.75	64630.05
904.5439	1680.3048	65521.05	64626.3
904.6855	1682.0351	65515.75	64623.4
904.827	1683.7646	65492.2	64595.2
904.9686	1685.4934	65515.8	64620.5
905.1101	1687.2215	65406.75	64511.75
905.2517	1688.9488	65494.9	64603.15
905.3932	1690.6754	65289.25	64397.25
905.5347	1692.4012	65422.2	64529.15
905.6761	1694.1263	65456.7	64562.25
905.8176	1695.8506	65333.6	64440.95
905.9591	1697.5742	65366.95	64471.55
906.1005	1699.297	65311.75	64418.8
906.2419	1701.0191	65358.35	64462.7
906.3833	1702.7404	65154.75	64261.55
906.5246	1704.461	65085.95	64192.45
906.666	1706.1808	65260.5	64367.1
906.8073	1707.8999	65149.05	64254.95
906.9487	1709.6182	65128	64234.45
907.09	1711.3358	65108.05	64216.25
907.2313	1713.0527	65076.7	64184.8
907.3725	1714.7688	65103.95	64204.6
907.5138	1716.4841	64784.1	63889
907.655	1718.1987	64899.65	64001.9
907.7962	1719.9126	64807.35	63916.75
907.9374	1721.6257	64956.2	64060.75
908.0786	1723.338	64946.1	64052.35
908.2198	1725.0496	64513.35	63620.55
908.3609	1726.7605	64574.65	63680.65
908.502	1728.4706	64448	63555.6
908.6431	1730.18	64666.3	63772.05
908.7842	1731.8886	64391.35	63498.65
908.9253	1733.5964	64279.45	63382.25
909.0664	1735.3036	64520.9	63626.45
909.2074	1737.0099	64363	63472.15
909.3484	1738.7156	64185.95	63295.3
909.4894	1740.4204	64125.45	63230.25
909.6304	1742.1246	64210.7	63315.65
909.7714	1743.8279	64279.15	63387.35
909.9123	1745.5306	64212.7	63319.5
910.0532	1747.2325	63652.1	62760.1
910.1941	1748.9336	63664.4	62772.8
910.335	1750.634	63851.8	62958.1
910.4759	1752.3336	64003.2	63111.85
910.6168	1754.0325	63599.15	62708.15
910.7576	1755.7307	63955.3	63063.85
910.8984	1757.4281	63450.65	62557.9
911.0392	1759.1247	63793.15	62891.35
911.18	1760.8206	63285.9	62388.5
911.3208	1762.5158	63355.3	62460.25
911.4615	1764.2102	63458.95	62567.45
911.6022	1765.9039	63362.1	62469.35
911.7429	1767.5968	63232.45	62341.05
911.8836	1769.289	63159	62266.75
912.0243	1770.9804	63250.35	62356.45
912.1649	1772.6711	63128.3	62236
912.3056	1774.361	63041.25	62148.15
912.4462	1776.0502	63054.6	62162.25
912.5868	1777.7386	62542.15	61647.4
912.7274	1779.4263	62876.25	61982.9
912.8679	1781.1132	62852.6	61959.55
913.0084	1782.7994	62768.2	61875.4
913.149	1784.4849	62795.1	61903.95
913.2895	1786.1696	62107.9	61209.1
913.4299	1787.8535	62470.25	61577.3
913.5704	1789.5367	62555.9	61664.55
913.7108	1791.2192	62162.3	61269.45
913.8513	1792.9009	61919.35	60999.9
913.9917	1794.5818	62261.9	61367.45
914.132	1796.2621	61876.05	60984.65
914.2724	1797.9415	61910.85	61017.05
914.4128	1799.6202	61837.4	60945
914.5531	1801.2982	61863.7	60972.7
914.6934	1802.9755	61438.1	60544.2
914.8337	1804.6519	61275.05	60383
914.9739	1806.3277	61876.25	60983.35
915.1142	1808.0027	60891.15	60001.25
915.2544	1809.6769	61250.25	60360.65
915.3946	1811.3504	61344.05	60451.45
915.5348	1813.0231	60563.05	59670.4
915.675	1814.6951	61041.7	60150.35
915.8151	1816.3664	60759.25	59865.6
915.9553	1818.0369	60796.3	59902.05
916.0954	1819.7067	60557.8	59667.5
916.2355	1821.3757	61003.5	60110.5
916.3755	1823.044	60335.35	59443.05
916.5156	1824.7115	59949.15	59057.45
916.6556	1826.3783	60213	59322.8
916.7956	1828.0443	60235.2	59345.5
916.9356	1829.7096	59967.35	59075.75
917.0756	1831.3741	59399.3	58503.5
917.2155	1833.0379	59698.75	58806.25
917.3555	1834.701	59719.45	58826.5
917.4954	1836.3633	59316.4	58422.6
917.6353	1838.0248	59553.4	58660.85
917.7751	1839.6856	59385.1	58491.2
917.915	1841.3457	58964.5	58076.75
918.0548	1843.005	59413.2	58523.2
918.1946	1844.6636	59107.3	58217.7
918.3344	1846.3214	58424.65	57533.2
918.4742	1847.9785	58556	57665.95
918.6139	1849.6349	58531.8	57640.25
918.7537	1851.2904	59007.65	58104.45
918.8934	1852.9453	58215.6	57324.35
919.0331	1854.5994	58567.05	57674.85
919.1727	1856.2528	58546.65	57648.65
919.3124	1857.9054	58017.85	57127.4
919.452	1859.5572	57822.4	56933
919.5916	1861.2083	58058.55	57167.2
919.7312	1862.8587	58542.8	57651.75
919.8708	1864.5084	57061.6	56168.45
920.0103	1866.1572	57687.55	56797.65
920.1498	1867.8054	56976	56083.1
920.2893	1869.4528	57405.2	56513.05
920.4288	1871.0994	56830.5	55938.45
920.5683	1872.7453	56660.25	55766.65
920.7077	1874.3905	57033.1	56135.75
920.8471	1876.0349	56417.35	55525
920.9865	1877.6786	56895.4	56003.6
921.1259	1879.3215	56336.8	55445.75
921.2653	1880.9637	56845.25	55954.1
921.4046	1882.6051	56221	55329.8
921.5439	1884.2458	55936.65	55044.35
921.6832	1885.8858	55591.3	54697.8
921.8225	1887.525	55877.35	54985.6
921.9617	1889.1634	55624.4	54731.85
922.101	1890.8011	55414.25	54522.7
922.2402	1892.4381	54804	53912.3
922.3794	1894.0743	55439.45	54550.3
922.5185	1895.7098	55021.05	54130.4
922.6577	1897.3446	54642.6	53750.25
922.7968	1898.9786	54765.45	53870.1
922.9359	1900.6118	54472.55	53582.7
923.075	1902.2443	54167.35	53275.85
923.214	1903.8761	54486.15	53596.35
923.3531	1905.5071	54070	53180.3
923.4921	1907.1374	53317.15	52426.05
923.6311	1908.7669	53610.65	52720.4
923.77	1910.3957	53850.45	52959.15
923.909	1912.0237	53237.9	52347
924.0479	1913.651	53020.65	52129.05
924.1868	1915.2776	52853.35	51965.5
924.3257	1916.9034	52848.95	51959.6
924.4646	1918.5285	52488.9	51598.95
924.6034	1920.1528	52485.05	51594.7
924.7422	1921.7764	52342.25	51451.85
924.881	1923.3992	52161.4	51269.05
925.0198	1925.0213	51756.5	50863.85
925.1586	1926.6427	51356.85	50466.15
925.2973	1928.2633	51588.3	50621.05
925.436	1929.8832	51341.1	50447.8
925.5747	1931.5023	51161.05	50272.6
925.7134	1933.1207	50753.7	49862.65
925.852	1934.7383	50912.1	50020.05
925.9906	1936.3552	50556.65	49665.35
926.1292	1937.9714	50562.55	49672.8
926.2678	1939.5868	50482.1	49587.7
926.4064	1941.2015	50022.15	49129.5
926.5449	1942.8154	49754.4	48861.75
926.6834	1944.4286	49696.75	48805.95
926.8219	1946.041	49626.4	48717.55
926.9604	1947.6528	49305	48409.9
927.0988	1949.2637	49123.4	48231.85
927.2372	1950.8739	48894.1	48001.95
927.3756	1952.4834	48954.85	48064.1
927.514	1954.0921	48815.75	47925.35
927.6523	1955.7001	48493.4	47600.6
927.7907	1957.3074	48509.1	47618.75
927.929	1958.9139	48175.45	47285.9
928.0673	1960.5197	48178.55	47287.8
928.2055	1962.1247	47942.05	47052.3
928.3438	1963.729	47660.75	46770.6
928.482	1965.3325	47468.85	46556.55
928.6202	1966.9353	47480.6	46591.15
928.7584	1968.5374	47168.25	46279.05
928.8965	1970.1387	47017.15	46125
929.0346	1971.7393	46912.3	46020.55
929.1727	1973.3392	46692.25	45801.85
929.3108	1974.9383	46536.65	45646.9
929.4489	1976.5366	46368	45479.45
929.5869	1978.1342	46300.25	45410.35
929.7249	1979.7311	46176.5	45284.2
929.8629	1981.3273	46034.35	45144.7
930.0009	1982.9227	45838.6	44947.2
930.1388	1984.5173	45691.4	44802.4
930.2767	1986.1112	45477.1	44587.55
930.4146	1987.7044	45503.3	44613
930.5525	1989.2968	45167.45	44277.45
930.6904	1990.8885	45193	44298.2
930.8282	1992.4795	45023.05	44131.65
930.966	1994.0697	44851.8	43963.35
931.1038	1995.6592	44693.75	43803.8
931.2415	1997.2479	44589.1	43699.4
931.3793	1998.8359	44452.45	43564.9
931.517	2000.4232	44193.4	43302.8
931.6547	2002.0097	44089.65	43200.45
931.7923	2003.5955	43872.35	42981.8
931.93	2005.1805	43823.05	42930.35
932.0676	2006.7648	43708.2	42820.6
932.2052	2008.3484	43521.8	42632.2
932.3427	2009.9312	43580.3	42688.7
932.4803	2011.5133	43418.95	42530.4
932.6178	2013.0946	43300.2	42411.6
932.7553	2014.6752	43128.3	42240.45
932.8928	2016.2551	43050.9	42160.4
933.0302	2017.8342	42855.55	41967.55
933.1676	2019.4126	42634.45	41744.1
933.305	2020.9902	42464.35	41576.95
933.4424	2022.5672	42422	41531.7
933.5798	2024.1433	42353.6	41460.15
933.7171	2025.7188	42171.8	41283.4
933.8544	2027.2935	42039.25	41149.55
933.9917	2028.8674	41841.5	40953.3
934.129	2030.4406	41756.55	40868.35
934.2662	2032.0131	41582.15	40694.6
934.4034	2033.5849	41458.45	40566.1
934.5406	2035.1559	41366.5	40477.3
934.6778	2036.7261	41309.3	40419.65
934.8149	2038.2957	41146.7	40256.75
934.952	2039.8645	41068.5	40177.8
935.0891	2041.4325	41074.7	40182.75
935.2262	2042.9998	40887.1	39997.85
935.3632	2044.5664	40686.35	39796.7
935.5002	2046.1323	40661.75	39773.4
935.6372	2047.6974	40512.65	39622.65
935.7742	2049.2617	40410.6	39521.65
935.9111	2050.8254	40378.75	39487.1
936.048	2052.3883	40244.85	39356.15
936.1849	2053.9504	40123.1	39234
936.3218	2055.5118	39956.35	39063.85
936.4586	2057.0725	39777.75	38885.05
936.5955	2058.6325	39699.45	38809.35
936.7323	2060.1917	39546.3	38656.9
936.869	2061.7502	39499.55	38609.9
937.0058	2063.3079	39321.95	38434.65
937.1425	2064.8649	39186.45	38294.95
937.2792	2066.4212	39097.8	38207.05
937.4159	2067.9767	38997.45	38107.9
937.5525	2069.5315	38815	37926.15
937.6891	2071.0856	38705.15	37816.55
937.8257	2072.6389	38540.4	37649.85
937.9623	2074.1915	38340.2	37453.3
938.0989	2075.7433	38127.25	37235.25
938.2354	2077.2945	38052.95	37166.5
938.3719	2078.8448	37904.3	37015.7
938.5084	2080.3945	37859.3	36970.2
938.6448	2081.9434	37748.15	36858.25
938.7812	2083.4916	37580.9	36691.95
938.9176	2085.039	37462.65	36571.05
939.054	2086.5857	37437.4	36548
939.1903	2088.1317	37359.5	36470.25
939.3267	2089.677	37210.1	36319
939.463	2091.2215	37144.7	36253.8
939.5992	2092.7652	37045.35	36154.9
939.7355	2094.3083	36872.3	35981.2
939.8717	2095.8506	36858.45	35968.15
940.0079	2097.3921	36748.7	35860.35
940.1441	2098.933	36602.45	35712.5
940.2802	2100.4731	36517.2	35628.05
940.4163	2102.0124	36484.2	35575.9
940.5524	2103.5511	36360.05	35468.9
940.6885	2105.089	36311.65	35421
940.8245	2106.6261	36204.95	35313.5
940.9606	2108.1626	36107.1	35215.05
941.0965	2109.6983	36040.6	35122.05
941.2325	2111.2332	35930.05	35037.35
941.3684	2112.7675	35778.9	34887.9
941.5044	2114.301	35670.65	34776.75
941.6403	2115.8337	35681.15	34789.5
941.7761	2117.3657	35531.35	34640.75
941.912	2118.897	35449.45	34557.7
942.0478	2120.4276	35290.95	34395.9
942.1835	2121.9575	35142.3	34252.65
942.3193	2123.4866	35146.45	34242.65
942.455	2125.0149	35005.65	34113.5
942.5907	2126.5426	34786.1	33897.4
942.7264	2128.0695	34741.2	33848.3
942.8621	2129.5956	34661.7	33773.25
942.9977	2131.1211	34579.75	33686.3
943.1333	2132.6458	34485.5	33595.85
943.2689	2134.1698	34485.15	33594
943.4044	2135.693	34356.75	33465.15
943.54	2137.2155	34243.5	33351.75
943.6755	2138.7373	34199.05	33308.95
943.8109	2140.2584	34056.8	33166.1
943.9464	2141.7787	33934.35	33040
944.0818	2143.2983	33756.15	32867.2
944.2172	2144.8171	33583.5	32697.5
944.3526	2146.3353	33514.8	32623.55
944.4879	2147.8527	33328.1	32441
944.6232	2149.3693	33342.8	32452.6
944.7585	2150.8853	33205.55	32315.5
944.8938	2152.4005	33036.3	32145.9
945.029	2153.9149	32981.7	32088.55
945.1642	2155.4287	32863.45	31972.5
945.2994	2156.9417	32871.35	31979.7
945.4346	2158.454	32741.65	31850.1
945.5697	2159.9655	32646.55	31756.8
945.7048	2161.4764	32618.05	31728.35
945.8399	2162.9865	32466.1	31578.1
945.9749	2164.4958	32378.95	31488.65
946.1099	2166.0045	32252.3	31361.7
946.2449	2167.5124	32226.85	31337.25
946.3799	2169.0195	32113.05	31223.3
946.5148	2170.526	32096.9	31205.7
946.6498	2172.0317	31937	31046.1
946.7846	2173.5367	31840.9	30951.05
946.9195	2175.0409	31746.95	30858.45
947.0543	2176.5445	31780.85	30890.95
947.1891	2178.0473	31602.25	30712
947.3239	2179.5494	31468.95	30575.9
947.4587	2181.0507	31348.65	30460.95
947.5934	2182.5513	31244.4	30354.3
947.7281	2184.0512	31227.25	30337.35
947.8628	2185.5504	31060.6	30171.5
947.9974	2187.0488	30895.45	30007.3
948.132	2188.5465	30807.35	29918.45
948.2666	2190.0435	30692.85	29804.3
948.4012	2191.5397	30573.7	29684.95
948.5357	2193.0353	30508.1	29619.95
948.6702	2194.5301	30305	29414.8
948.8047	2196.0241	30259.45	29368.6
948.9392	2197.5175	30137.15	29246.7
949.0736	2199.0101	30028.85	29134.95
949.208	2200.502	29881.7	28994.45
949.3424	2201.9931	29773.85	28884.45
949.4767	2203.4835	29648.05	28759.45
949.611	2204.9733	29610.9	28716.8
949.7453	2206.4622	29565.65	28675.3
949.8796	2207.9505	29415.15	28523.6
950.0138	2209.438	29293.8	28407
950.148	2210.9248	29207.35	28317.65
950.2822	2212.4109	29113.25	28224.05
950.4164	2213.8962	28980.7	28089.15
950.5505	2215.3809	28956.6	28064.85
950.6846	2216.8648	28895.45	28007.05
950.8186	2218.3479	28766.65	27873.15
950.9527	2219.8304	28617.75	27726
951.0867	2221.3121	28523.15	27631.2
951.2207	2222.7931	28442.2	27551.65
951.3546	2224.2733	28290.25	27400.4
951.4886	2225.7529	28247.4	27356.65
951.6225	2227.2317	28148.35	27257.45
951.7563	2228.7098	28080.25	27190.7
951.8902	2230.1872	27924.95	27037.1
952.024	2231.6638	27899.65	27011.9
952.1578	2233.1397	27754.55	26860.3
952.2916	2234.6149	27693.05	26803.65
952.4253	2236.0894	27616.65	26726.45
952.559	2237.5632	27536.65	26647.05
952.6927	2239.0362	27428	26537.2
952.8263	2240.5085	27324.2	26435.55
952.9599	2241.9801	27207.05	26316.7
953.0935	2243.4509	27165.15	26276.1
953.2271	2244.921	27063.1	26175.65
953.3606	2246.3904	26914.2	26021.85
953.4941	2247.8591	26850.75	25962
953.6276	2249.3271	26799.65	25909.5
953.7611	2250.7943	26668.35	25778.8
953.8945	2252.2608	26531.3	25641.7
954.0279	2253.7266	26531.8	25642.25
954.1612	2255.1917	26391.75	25501.3
954.2946	2256.656	26328.4	25438.35
954.4279	2258.1197	26251.35	25361.65
954.5612	2259.5826	26195.85	25306.55
954.6944	2261.0447	26175.3	25285.05
954.8276	2262.5062	26018.75	25127.15
954.9608	2263.9669	25931.15	25038.1
955.094	2265.4269	25898.2	25008.85
955.2271	2266.8862	25809.75	24919.85
955.3602	2268.3448	25753.2	24865.45
955.4933	2269.8026	25669.65	24780.9
955.6264	2271.2598	25590.9	24701.15
955.7594	2272.7162	25514.8	24626.1
955.8924	2274.1719	25452.35	24563.75
956.0253	2275.6268	25333.8	24444.95
956.1583	2277.0811	25283.25	24390.65
956.2912	2278.5346	25248.25	24359.3
956.4241	2279.9874	25174.65	24283.9
956.5569	2281.4395	25155.75	24267.45
956.6897	2282.8908	25000.65	24105.15
956.8225	2284.3414	24965.5	24074.95
956.9553	2285.7914	24847.8	23958.75
957.088	2287.2406	24729.25	23840.45
957.2207	2288.689	24696.95	23805.45
957.3534	2290.1368	24626.6	23736.45
957.486	2291.5838	24555.9	23664.45
957.6186	2293.0302	24501	23611
957.7512	2294.4758	24357.5	23466.8
957.8838	2295.9206	24253	23361.25
958.0163	2297.3648	24171.3	23281.2
958.1488	2298.8082	24176.3	23284.15
958.2813	2300.251	24098.1	23207.65
958.4137	2301.693	23943.9	23054.25
958.5461	2303.1343	23984.6	23094.4
958.6785	2304.5748	23884.2	22995.85
958.8108	2306.0147	23800.85	22910
958.9432	2307.4538	23700.1	22809.2
959.0754	2308.8922	23661.9	22773.6
959.2077	2310.3299	23541.65	22653.95
959.3399	2311.7669	23464.95	22577.6
959.4721	2313.2031	23386.65	22497.85
959.6043	2314.6387	23295.8	22406.65
959.7365	2316.0735	23200.15	22310.05
959.8686	2317.5076	23146.55	22257.5
960.0006	2318.941	23130.65	22242.3
960.1327	2320.3737	23035.05	22144.65
960.2647	2321.8056	22943.4	22049.4
960.3967	2323.2369	22859.7	21970.35
960.5287	2324.6674	22834.1	21942.4
960.6606	2326.0972	22747.2	21856.1
960.7925	2327.5263	22634.65	21745.4
960.9244	2328.9547	22549.15	21660.3
961.0562	2330.3823	22525.65	21634.65
961.1881	2331.8092	22520	21626.9
961.3198	2333.2355	22381.85	21492.25
961.4516	2334.661	22340.6	21449.9
961.5833	2336.0858	22293.95	21402.05
961.715	2337.5098	22244.35	21354.65
961.8467	2338.9332	22164.25	21275.25
961.9783	2340.3558	22077.65	21182.45
962.1099	2341.7778	22010.1	21119.45
962.2415	2343.199	21918.15	21026.85
962.373	2344.6195	21867.45	20978.85
962.5045	2346.0393	21800.75	20912.65
962.636	2347.4583	21769.25	20878.25
962.7675	2348.8767	21634.25	20744
962.8989	2350.2943	21574.5	20684.7
963.0303	2351.7113	21605.1	20714.5
963.1617	2353.1275	21472.7	20581.2
963.293	2354.543	21411.25	20513
963.4243	2355.9578	21321.05	20431.75
963.5556	2357.3718	21223.8	20334.35
963.6868	2358.7852	21110.85	20219.85
963.818	2360.1978	21074.35	20185.4
963.9492	2361.6098	21039.75	20152.15
964.0803	2363.021	20955.5	20063.15
964.2114	2364.4315	20878.5	19989.15
964.3425	2365.8413	20816.4	19925.95
964.4736	2367.2504	20745.4	19858.2
964.6046	2368.6587	20655.4	19767.7
964.7356	2370.0664	20577.6	19689.8
964.8666	2371.4733	20456.8	19565.4
964.9975	2372.8795	20412.45	19524.45
965.1284	2374.285	20331.7	19442.15
965.2593	2375.6899	20205.95	19319.3
965.3901	2377.0939	20165	19277.65
965.5209	2378.4973	20102.9	19216.7
965.6517	2379.9	20017	19128.3
965.7825	2381.3019	19921.15	19032.55
965.9132	2382.7032	19899.5	19011.25
966.0439	2384.1037	19851.35	18964.6
966.1745	2385.5035	19802.9	18915
966.3051	2386.9027	19728.05	18841.8
966.4357	2388.3011	19678.35	18785.25
966.5663	2389.6987	19619	18729.5
966.6968	2391.0957	19493.6	18606.35
966.8273	2392.492	19421.25	18533.7
966.9578	2393.8876	19294.65	18406.55
967.0882	2395.2824	19235.55	18345.6
967.2186	2396.6765	19149.65	18261.7
967.349	2398.07	19091.5	18203.05
967.4793	2399.4627	19052.75	18162.7
967.6097	2400.8547	18974.6	18083.4
967.7399	2402.246	18892.55	17998.6
967.8702	2403.6366	18786.5	17898.5
968.0004	2405.0265	18704.85	17817.45
968.1306	2406.4156	18606.3	17712.65
968.2607	2407.8041	18580.9	17689.75
968.3909	2409.1918	18528.8	17637
968.521	2410.5789	18444.25	17554.85
968.651	2411.9652	18370.6	17478.4
968.781	2413.3508	18322.15	17431.25
968.911	2414.7358	18231.65	17340.5
969.041	2416.12	18164.75	17276.45
969.1709	2417.5035	18097.6	17209.05
969.3008	2418.8863	18043.65	17153.15
969.4307	2420.2684	18015.7	17125.75
969.5606	2421.6497	17924.45	17035.1
969.6904	2423.0304	17786.55	16898.3
969.8201	2424.4104	17761.65	16873.65
969.9499	2425.7896	17693.3	16801.5
970.0796	2427.1682	17654	16763.85
970.2093	2428.546	17601.4	16710.8
970.3389	2429.9232	17540.3	16651.25
970.4685	2431.2996	17522.2	16632.45
970.5981	2432.6753	17463.85	16577.25
970.7277	2434.0503	17435.15	16546.25
970.8572	2435.4246	17323.65	16436
970.9867	2436.7982	17255.9	16364.75
971.1161	2438.1711	17224.65	16337.15
971.2456	2439.5433	17156.25	16266.95
971.375	2440.9148	17098	16203.6
971.5043	2442.2856	16976.95	16088.95
971.6336	2443.6557	16967.85	16080.2
971.7629	2445.025	16912.35	16023.9
971.8922	2446.3937	16871.9	15982.3
972.0214	2447.7617	16781.15	15892.5
972.1506	2449.1289	16765.3	15875.9
972.2798	2450.4955	16717.4	15827.35
972.4089	2451.8613	16662.25	15773.3
972.538	2453.2265	16603.7	15715.3
972.6671	2454.5909	16553	15663.85
972.7961	2455.9546	16531.45	15644.2
972.9251	2457.3177	16454.2	15566.3
973.0541	2458.68	16403.05	15512.2
973.1831	2460.0416	16405.3	15515.1
973.312	2461.4025	16363.75	15473
973.4408	2462.7627	16269.2	15368.45
973.5697	2464.1222	16211.25	15323.25
973.6985	2465.4811	16132	15244.45
973.8273	2466.8392	16099.45	15209.4
973.956	2468.1966	16049.8	15160.55
974.0847	2469.5533	16051.85	15159.25
974.2134	2470.9093	15982.15	15092.5
974.3421	2472.2645	15930.9	15038.7
974.4707	2473.6191	15890.35	15002.55
974.5993	2474.973	15821.7	14933.25
974.7278	2476.3262	15761.8	14870.45
974.8563	2477.6787	15715.95	14828.4
974.9848	2479.0305	15590.5	14699.8
975.1132	2480.3816	15570.55	14680.2
975.2417	2481.7319	15520.55	14631.1
975.37	2483.0816	15432.45	14540.95
975.4984	2484.4306	15403.5	14513
975.6267	2485.7789	15321.1	14434.2
975.755	2487.1264	15280.1	14390.15
975.8833	2488.4733	15220.55	14333.55
976.0115	2489.8195	15159.05	14264.05
976.1397	2491.165	15121.5	14228.55
976.2678	2492.5097	15068.05	14176.9
976.3959	2493.8538	15000	14110.1
976.524	2495.1972	14900.7	14012.65
976.6521	2496.5398	14838.45	13948.85
976.7801	2497.8818	14830.2	13939.6
976.9081	2499.2231	14760.85	13871.45
977.036	2500.5637	14712.05	13823.25
977.164	2501.9035	14634.35	13743.6
977.2918	2503.2427	14584.7	13691.05
977.4197	2504.5812	14551.15	13663.4
977.5475	2505.919	14519.9	13628.65
977.6753	2507.256	14497.1	13610.1
977.8031	2508.5924	14453.6	13564.85
977.9308	2509.9281	14394.6	13500.75
978.0585	2511.2631	14310.35	13421.95
978.1861	2512.5974	14275.3	13386.5
978.3137	2513.9309	14212.95	13323.3
978.4413	2515.2638	14179.05	13264.45
978.5689	2516.596	14144.35	13253.35
978.6964	2517.9275	14057.45	13167.7
978.8239	2519.2583	14032.5	13144.1
978.9513	2520.5884	13944.9	13053.9
979.0788	2521.9178	13886.65	12996.25
979.2062	2523.2465	13862.85	12973.6
979.3335	2524.5745	13805.25	12916.65
979.4608	2525.9018	13757.45	12868.35
979.5881	2527.2284	13701.3	12813.3
979.7154	2528.5543	13659.45	12772.3
979.8426	2529.8796	13616.75	12727.8
979.9698	2531.2041	13593.25	12703.65
980.0969	2532.5279	13549.2	12661.55
980.224	2533.851	13550.05	12660.45
980.3511	2535.1735	13494.9	12606.35
980.4781	2536.4952	13456.2	12568.35
980.6052	2537.8163	13451.1	12561.8
980.7321	2539.1366	13372.65	12484.3
980.8591	2540.4562	13361.7	12471
980.986	2541.7752	13301.25	12413.85
981.1129	2543.0935	13287.1	12395.85
981.2397	2544.411	13252.05	12361.75
981.3665	2545.7279	13230.9	12343.1
981.4933	2547.0441	13225.15	12337.35
981.62	2548.3596	13197.6	12306
981.7467	2549.6744	13137.3	12251.85
981.8734	2550.9885	13059.2	12160.8
982.0001	2552.3019	13020.45	12132.15
982.1267	2553.6146	13009.4	12121.25
982.2532	2554.9266	12970	12080.75
982.3798	2556.2379	12937.35	12047.75
982.5063	2557.5485	12909.35	12022.1
982.6327	2558.8585	12863.8	11969.65
982.7592	2560.1677	12834.75	11941.65
982.8856	2561.4762	12800.1	11909.15
983.0119	2562.7841	12769.9	11877.3
983.1383	2564.0913	12747.8	11860.45
983.2646	2565.3977	12722.4	11835.35
983.3908	2566.7035	12678.85	11789.95
983.517	2568.0086	12687.75	11796.65
983.6432	2569.313	12634.45	11744.55
983.7694	2570.6167	12585.6	11694.45
983.8955	2571.9197	12561.95	11674.85
984.0216	2573.222	12518	11626.45
984.1476	2574.5236	12487.75	11597.25
984.2737	2575.8246	12470.8	11579.2
984.3996	2577.1248	12454.5	11562.5
984.5256	2578.4244	12402.6	11514.3
984.6515	2579.7232	12391.2	11503
984.7774	2581.0214	12381.25	11468
984.9032	2582.3189	12316.4	11427.9
985.029	2583.6157	12276.9	11385.2
985.1548	2584.9118	12246.95	11359.05
985.2806	2586.2072	12221.4	11333.75
985.4063	2587.5019	12207.9	11319.8
985.5319	2588.7959	12186.5	11298.6
985.6576	2590.0893	12117.95	11230.65
985.7832	2591.3819	12096.4	11207.35
985.9087	2592.6739	12037.85	11149.5
986.0343	2593.9652	12025.7	11136.45
986.1597	2595.2557	11955.3	11067.85
986.2852	2596.5456	11927.9	11034.65
986.4106	2597.8348	11887.05	10998.35
986.536	2599.1234	11844.55	10956.2
986.6614	2600.4112	11781.5	10892.2
986.7867	2601.6983	11764.9	10873.4
986.912	2602.9848	11717.35	10827.85
987.0372	2604.2705	11667.1	10770.7
987.1624	2605.5556	11649.8	10761.3
987.2876	2606.84	11604.4	10716.7
987.4128	2608.1237	11569.1	10680.4
987.5379	2609.4067	11506.4	10618.85
987.6629	2610.689	11456.65	10559
987.788	2611.9707	11414.35	10520.6
987.913	2613.2516	11365.75	10471.1
988.0379	2614.5319	11322.65	10434.7
988.1629	2615.8115	11299.8	10410.8
988.2878	2617.0903	11245.75	10356
988.4126	2618.3685	11197.4	10309
988.5375	2619.6461	11146.55	10257.8
988.6622	2620.9229	11112.7	10224.05
988.787	2622.199	11068	10175.95
988.9117	2623.4745	11063.1	10173.1
989.0364	2624.7493	11012.2	10123.8
989.161	2626.0234	10991.65	10102.35
989.2857	2627.2968	10930.6	10041.65
989.4102	2628.5695	10919.3	10028.55
989.5348	2629.8415	10820.8	9930.85
989.6593	2631.1128	10794.9	9903.45
989.7837	2632.3835	10775.9	9888.1
989.9082	2633.6535	10687.05	9800
990.0326	2634.9228	10687.25	9797.45
990.1569	2636.1914	10649.85	9760
990.2812	2637.4593	10624.55	9730.35
990.4055	2638.7265	10557.5	9667.6
990.5298	2639.9931	10531	9641.9
990.654	2641.259	10496.8	9607.2
990.7782	2642.5242	10463.3	9574.55
990.9023	2643.7887	10427.75	9539.85
991.0264	2645.0525	10427.1	9539.3
991.1505	2646.3156	10366.15	9478.85
991.2745	2647.5781	10319.3	9433.6
991.3985	2648.8398	10289	9401.8
991.5225	2650.1009	10253.8	9329.6
991.6464	2651.3613	10245.55	9355.4
991.7703	2652.6211	10215.15	9327.55
991.8942	2653.8801	10165.75	9277.2
992.018	2655.1385	10120.2	9228.55
992.1418	2656.3961	10118.65	9229.3
992.2655	2657.6531	10107.4	9219.95
992.3892	2658.9094	10051.05	9161.75
992.5129	2660.1651	10011.15	9122.5
992.6366	2661.42	9966.95	9076.75
992.7602	2662.6743	9988.5	9097.25
992.8837	2663.9279	9953.05	9066
993.0073	2665.1808	9932.2	9044.7
993.1307	2666.433	9876.1	8985.2
993.2542	2667.6846	9860.8	8974.8
993.3776	2668.9354	9852	8960.4
993.501	2670.1856	9799	8909.15
993.6244	2671.4351	9782.8	8894.1
993.7477	2672.6839	9756.3	8864.15
993.8709	2673.9321	9729.35	8842.05
993.9942	2675.1795	9704.4	8816.8
994.1174	2676.4263	9689.9	8801.85
994.2405	2677.6724	9634.45	8747.45
994.3637	2678.9179	9585.1	8696.45
994.4868	2680.1626	9566	8678.25
994.6098	2681.4067	9545.7	8656.65
994.7328	2682.6501	9520.25	8628.95
994.8558	2683.8928	9483.7	8595.85
994.9788	2685.1348	9445.3	8557.55
995.1017	2686.3761	9381.6	8493.85
995.2245	2687.6168	9372.25	8483.75
995.3474	2688.8568	9290.95	8401.05
995.4702	2690.0961	9334.75	8448.45
995.5929	2691.3348	9275.3	8386.6
995.7156	2692.5727	9270.25	8381.3
995.8383	2693.81	9225.55	8338.4
995.961	2695.0466	9203.5	8315.8
996.0836	2696.2826	9168.2	8277.85
996.2062	2697.5178	9151.5	8260.9
996.3287	2698.7524	9120.5	8230.35
996.4512	2699.9863	9135.4	8244.7
996.5737	2701.2195	9053.4	8166.15
996.6961	2702.452	9037.05	8148.6
996.8185	2703.6839	9020.05	8132.35
996.9408	2704.9151	8969.9	8080.85
997.0631	2706.1456	8947.55	8057.4
997.1854	2707.3755	8908.65	8020.05
997.3077	2708.6046	8906.6	8015.05
997.4299	2709.8331	8864.35	7975.55
997.552	2711.0609	8821.45	7931.7
997.6742	2712.2881	8813.25	7925.5
997.7963	2713.5145	8781.6	7890.3
997.9183	2714.7403	8760.1	7873.3
998.0403	2715.9654	8738	7849.05
998.1623	2717.1899	8724.85	7822
998.2842	2718.4136	8707.8	7819.35
998.4062	2719.6367	8655.45	7766.35
998.528	2720.8591	8636.4	7740.9
998.6498	2722.0809	8597.25	7707.1
998.7716	2723.3019	8601.7	7709.3
998.8934	2724.5223	8569.85	7678.1
999.0151	2725.7421	8547.15	7654.65
999.1368	2726.9611	8537.85	7648.1
999.2584	2728.1795	8480.2	7588
999.38	2729.3972	8449.7	7560.2
999.5016	2730.6142	8424.4	7529.6
999.6231	2731.8306	8381.95	7491.7
999.7446	2733.0462	8350.5	7459.45
999.8661	2734.2612	8278.2	7385.85
999.9875	2735.4756	8243.45	7354.35
1000.1089	2736.6892	8172.05	7282.25
1000.2302	2737.9022	8133.8	7247.25
1000.3515	2739.1145	8091.65	7203.1
1000.4728	2740.3262	8079.95	7183.65
1000.594	2741.5372	8022.2	7131.9
1000.7152	2742.7475	7978.75	7089.7
1000.8363	2743.9571	7975.85	7084.85
1000.9575	2745.1661	7940.05	7046.05
1001.0785	2746.3744	7906.2	7017.85
1001.1996	2747.582	7874.6	6985.9
1001.3206	2748.7889	7857.75	6966.3
1001.4415	2749.9952	7807.85	6921.3
1001.5625	2751.2008	7788.85	6899.45
1001.6833	2752.4057	7761.65	6870.75
1001.8042	2753.61	7732.85	6842.85
1001.925	2754.8136	7698.8	6809.75
1002.0458	2756.0165	7673.65	6785.4
1002.1665	2757.2188	7656.25	6766.9
1002.2872	2758.4204	7612.6	6724.2
1002.4078	2759.6213	7585.3	6694.45
1002.5285	2760.8215	7572	6678.9
1002.649	2762.0211	7534.3	6644.1
1002.7696	2763.22	7496.3	6606.45
1002.8901	2764.4182	7506.2	6615.45
1003.0106	2765.6158	7483.55	6596.85
1003.131	2766.8127	7469.05	6582.1
1003.2514	2768.009	7411.15	6524.45
1003.3717	2769.2045	7386.65	6496.5
1003.492	2770.3994	7373.65	6483.1
1003.6123	2771.5936	7338.95	6450.1
1003.7325	2772.7872	7287.3	6401.25
1003.8527	2773.9801	7272.45	6381.45
1003.9729	2775.1723	7253.3	6348.8
1004.093	2776.3639	7220.3	6332.7
1004.2131	2777.5548	7203.9	6314.2
1004.3331	2778.745	7185.3	6296
1004.4531	2779.9346	7162.7	6274.4
1004.5731	2781.1235	7160.9	6271.55
1004.693	2782.3117	7132.85	6246.1
1004.8129	2783.4992	7079.55	6191.3
1004.9328	2784.6861	7062.75	6174.65
1005.0526	2785.8723	7062.5	6170.8
1005.1723	2787.0579	7047.1	6157.5
1005.2921	2788.2428	7019.15	6129.9
1005.4118	2789.427	7003.55	6116.75
1005.5314	2790.6106	6970.9	6082.1
1005.651	2791.7935	6966	6076.55
1005.7706	2792.9757	6936.3	6048.65
1005.8902	2794.1573	6921	6030.4
1006.0097	2795.3382	6891.6	6002.7
1006.1291	2796.5184	6885.7	5998.95
1006.2485	2797.698	6896.7	6006.35
1006.3679	2798.8769	6865.25	5976.95
1006.4873	2800.0551	6841.35	5952.3
1006.6066	2801.2327	6842.7	5953.15
1006.7258	2802.4096	6853.45	5965.35
1006.8451	2803.5859	6823.2	5932.8
1006.9642	2804.7615	6800.85	5910.6
1007.0834	2805.9364	6809.8	5924.2
1007.2025	2807.1106	6789.5	5900.95
1007.3216	2808.2842	6813.6	5924.15
1007.4406	2809.4572	6814.2	5924.1
1007.5596	2810.6294	6840	5952.25
1007.6785	2811.801	6870.45	5984.35
1007.7975	2812.972	6868.9	5982.25
1007.9163	2814.1423	6883.4	5993.95
1008.0352	2815.3119	6905.45	6017.3
1008.154	2816.4808	6935.15	6048.3
1008.2727	2817.6491	6938.8	6049.35
1008.3914	2818.8167	6984.7	6096.95
1008.5101	2819.9837	7019.55	6126.7
1008.6288	2821.15	7041.2	6151.4
1008.7474	2822.3157	7062.5	6177.8
1008.8659	2823.4807	7070.05	6179.55
1008.9844	2824.645	7131.1	6243.7
1009.1029	2825.8086	7153.25	6264.5
1009.2214	2826.9716	7169	6282.5
1009.3398	2828.134	7206.65	6318.45
1009.4581	2829.2957	7239.5	6351.95
1009.5764	2830.4567	7239.6	6353.4
1009.6947	2831.617	7241.4	6352.7
1009.813	2832.7767	7231.05	6344.6
1009.9312	2833.9358	7221	6333.4
1010.0493	2835.0941	7193.9	6304.9
1010.1675	2836.2519	7188.2	6300.35
1010.2855	2837.4089	7139.05	6252.2
1010.4036	2838.5653	7110.6	6222.3
1010.5216	2839.7211	7113.65	6226.7
1010.6396	2840.8761	7086	6197.8
1010.7575	2842.0306	7084.7	6197.9
1010.8754	2843.1843	7118.7	6230.7
1010.9932	2844.3374	7139.9	6253.05
1011.111	2845.4899	7178.9	6290.05
1011.2288	2846.6417	7210.3	6323.05
1011.3465	2847.7928	7245.65	6358.55
1011.4642	2848.9433	7306.4	6418.45
1011.5818	2850.0931	7343.3	6453.7
1011.6995	2851.2422	7410.25	6519.7
1011.817	2852.3907	7472.4	6584.75
1011.9345	2853.5385	7513.1	6623.1
1012.052	2854.6857	7549.6	6652.95
1012.1695	2855.8323	7559.95	6672.7
1012.2869	2856.9781	7571.55	6684.7
1012.4042	2858.1233	7620.4	6734.5
1012.5216	2859.2679	7629	6741.5
1012.6389	2860.4118	7676.4	6790.45
1012.7561	2861.555	7699.4	6806.6
1012.8733	2862.6976	7705.8	6817.25
1012.9905	2863.8395	7714.65	6827.55
1013.1076	2864.9808	7718.55	6828.55
1013.2247	2866.1214	7698.95	6814.2
1013.3417	2867.2614	7701.1	6812.35
1013.4587	2868.4007	7701.05	6811.3
1013.5757	2869.5393	7686.25	6796
1013.6926	2870.6773	7689.8	6798.45
1013.8095	2871.8146	7682.3	6791.2
1013.9263	2872.9513	7653.65	6763
1014.0431	2874.0874	7635.05	6748
1014.1599	2875.2227	7615.5	6728.65
1014.2766	2876.3574	7560.85	6673.35
1014.3933	2877.4915	7526.85	6640.1
1014.51	2878.6249	7478.05	6591.75
1014.6266	2879.7577	7416.15	6527.35
1014.7431	2880.8898	7402.75	6504.95
1014.8596	2882.0212	7369.7	6481.9
1014.9761	2883.152	7346.35	6457
1015.0925	2884.2821	7304.65	6417.8
1015.2089	2885.4116	7264.25	6377.3
1015.3253	2886.5405	7246.5	6358.6
1015.4416	2887.6686	7266.7	6375.85
1015.5579	2888.7962	7241.6	6354.45
1015.6741	2889.923	7229.65	6342
1015.7903	2891.0493	7223.95	6338.9
1015.9065	2892.1748	7183.45	6296.4
1016.0226	2893.2997	7189.2	6301
1016.1387	2894.424	7189.65	6302.8
1016.2547	2895.5476	7172.65	6286.55
1016.3707	2896.6706	7179.1	6291.6
1016.4866	2897.7929	7194.1	6306.95
1016.6025	2898.9145	7170.35	6283.95
1016.7184	2900.0355	7201.2	6312.8
1016.8342	2901.1559	7222.45	6333.8
1016.95	2902.2756	7232	6345.8
1017.0658	2903.3946	7234.5	6346.1
1017.1815	2904.513	7235.1	6344.85
1017.2971	2905.6308	7238.1	6351
1017.4127	2906.7479	7233.6	6343.9
1017.5283	2907.8643	7262.25	6373.5
1017.6439	2908.9801	7233.05	6345.35
1017.7594	2910.0953	7260.95	6373.4
1017.8748	2911.2098	7216.05	6326.25
1017.9902	2912.3236	7183.1	6288.4
1018.1056	2913.4368	7171.35	6279.2
1018.2209	2914.5494	7144.2	6256.05
1018.3362	2915.6613	7088.95	6195.1
1018.4515	2916.7725	7066.5	6175.35
1018.5667	2917.8831	7023.2	6134.95
1018.6819	2918.9931	6994.65	6104.55
1018.797	2920.1024	6926.6	6037.95
1018.9121	2921.211	6901.6	6013.95
1019.0271	2922.319	6863.3	5976
1019.1421	2923.4264	6851.1	5965.4
1019.2571	2924.5331	6808.85	5922.4
1019.372	2925.6391	6803.15	5914.4
1019.4869	2926.7445	6782.2	5894.9
1019.6017	2927.8493	6760.05	5870.8
1019.7165	2928.9534	6737.55	5849.35
1019.8313	2930.0569	6712.1	5821.9
1019.946	2931.1597	6691.8	5803.75
1020.0606	2932.2619	6681.45	5793.85
1020.1753	2933.3634	6680.5	5795.15
1020.2899	2934.4643	6674.7	5781.6
1020.4044	2935.5645	6645.4	5751.95
1020.5189	2936.6641	6606.5	5713.65
1020.6334	2937.763	6536.05	5649.5
1020.7478	2938.8613	6478.55	5590.55
1020.8622	2939.959	6422.35	5527.8
1020.9765	2941.056	6334.25	5446.3
1021.0908	2942.1523	6248.2	5361.9
1021.2051	2943.248	6174.15	5287.05
1021.3193	2944.3431	6065	5179.05
1021.4334	2945.4375	5969.15	5079.55
1021.5476	2946.5313	5865.9	4979.8
1021.6617	2947.6244	5758.9	4868.7
1021.7757	2948.7169	5665.95	4776.7
1021.8897	2949.8087	5538.75	4650.8
1022.0037	2950.8999	5435.7	4548.3
1022.1176	2951.9904	5358.25	4472.5
1022.2315	2953.0803	5289.15	4401.1
1022.3453	2954.1696	5218.4	4330.85
1022.4591	2955.2582	5132.9	4246.15
1022.5728	2956.3462	5083.55	4196.45
1022.6865	2957.4335	5021	4131.8
1022.8002	2958.5202	4985.9	4094.45
1022.9138	2959.6062	4943.2	4054.45
1023.0274	2960.6916	4912.9	4027.55
1023.141	2961.7764	4881.5	3992.8
1023.2545	2962.8605	4839	3950.65
1023.3679	2963.9439	4830.9	3943.95
1023.4813	2965.0267	4802.1	3912.5
1023.5947	2966.1089	4777.6	3868.95
1023.708	2967.1905	4744.6	3857.65
1023.8213	2968.2714	4723.65	3837.8
1023.9346	2969.3516	4718.1	3830.75
1024.0478	2970.4312	4721.8	3828.15
1024.1609	2971.5102	4685.95	3799.9
1024.274	2972.5885	4679.4	3791.75
1024.3871	2973.6662	4683.55	3792.3
1024.5002	2974.7432	4656.6	3768.35
1024.6132	2975.8196	4638.1	3752.5
1024.7261	2976.8954	4617.55	3731.8
1024.839	2977.9705	4594.05	3705.75
1024.9519	2979.045	4595	3708.6
1025.0647	2980.1188	4553.4	3666
1025.1775	2981.192	4521.95	3635.3
1025.2902	2982.2645	4480.65	3593.45
1025.4029	2983.3364	4452.95	3565.65
1025.5156	2984.4077	4414.2	3527.25
1025.6282	2985.4783	4394.4	3503.05
1025.7407	2986.5483	4351.35	3465.25
1025.8532	2987.6177	4305.1	3418.85
1025.9657	2988.6864	4256.35	3367.95
1026.0782	2989.7545	4222.6	3331.95
1026.1906	2990.8219	4184.05	3295.75
1026.3029	2991.8887	4129.35	3240.15
1026.4152	2992.9548	4096.45	3207.8
1026.5275	2994.0204	4067.5	3181.1
1026.6397	2995.0852	4014.95	3129.15
1026.7519	2996.1495	3994.05	3105.65
1026.864	2997.2131	3952.45	3065.6
1026.9761	2998.276	3912.25	3025.6
1027.0882	2999.3383	3891.45	3004.95
1027.2002	3000.4	3857.85	2969
1027.3122	3001.4611	3826.65	2937.8
1027.4241	3002.5215	3824.55	2936.85
1027.536	3003.5812	3783.85	2895.4
1027.6478	3004.6404	3776.6	2888.55
1027.7596	3005.6989	3768.35	2877.75
1027.8714	3006.7567	3735.55	2846.9
1027.9831	3007.8139	3738.5	2829
1028.0947	3008.8705	3701.75	2814.2
1028.2064	3009.9264	3690.25	2801.6
1028.3179	3010.9818	3658.75	2771.3
1028.4295	3012.0364	3659.4	2772.1
1028.541	3013.0905	3643.1	2754.45
1028.6524	3014.1439	3626.65	2740.55
1028.7638	3015.1966	3613.75	2726.35
1028.8752	3016.2487	3605.7	2719.1
1028.9865	3017.3002	3590.4	2698.8
1029.0978	3018.3511	3569.55	2682.05
1029.209	3019.4013	3561.4	2674.5
1029.3202	3020.4509	3564.15	2676.55
1029.4314	3021.4998	3557.35	2670.05
1029.5425	3022.5481	3544.9	2658.05
1029.6535	3023.5958	3527.85	2641.15
1029.7645	3024.6428	3519.7	2631.6
1029.8755	3025.6892	3526.45	2640.3
1029.9864	3026.735	3498.45	2612.75
1030.0973	3027.7802	3489.55	2603.4
1030.2082	3028.8247	3476.75	2588.75
1030.319	3029.8685	3466.1	2578.75
1030.4297	3030.9118	3454.9	2566.65
1030.5404	3031.9544	3462.15	2573.9
1030.6511	3032.9963	3459.9	2573.15
1030.7617	3034.0376	3448.55	2564
1030.8723	3035.0783	3439.05	2549.85
1030.9829	3036.1184	3426.55	2537.9
1031.0934	3037.1578	3423.8	2538.65
1031.2038	3038.1966	3426.4	2536.6
1031.3142	3039.2348	3407.85	2521.55
1031.4246	3040.2723	3405.45	2509.8
1031.5349	3041.3092	3392.9	2507.1
1031.6452	3042.3455	3368.8	2480.6
1031.7554	3043.3811	3371.4	2483.4
1031.8656	3044.4161	3362.45	2473.2
1031.9758	3045.4505	3345.3	2457.65
1032.0859	3046.4842	3324.5	2435.25
1032.1959	3047.5173	3326.6	2440.4
1032.3059	3048.5498	3313.55	2427.25
1032.4159	3049.5816	3289.9	2401.5
1032.5258	3050.6128	3284.35	2394.55
1032.6357	3051.6434	3274.1	2385.8
1032.7455	3052.6734	3254.5	2366.1
1032.8553	3053.7027	3247.45	2359.65
1032.9651	3054.7314	3230.4	2343.9
1033.0748	3055.7594	3218.65	2331.45
1033.1845	3056.7868	3207.85	2319.9
1033.2941	3057.8136	3187.25	2300.9
1033.4037	3058.8398	3181.5	2294.85
1033.5132	3059.8653	3166.45	2279.85
1033.6227	3060.8902	3150.05	2263.45
1033.7321	3061.9145	3141.4	2253.75
1033.8415	3062.9381	3126.25	2239.2
1033.9509	3063.9612	3135.5	2231.7
1034.0602	3064.9835	3111.1	2222.75
1034.1694	3066.0053	3091.6	2201.95
1034.2787	3067.0264	3081.6	2195.6
1034.3878	3068.0469	3055.85	2167.4
1034.497	3069.0668	3055.45	2165.7
1034.6061	3070.086	3041.8	2157.15
1034.7151	3071.1046	3036.45	2148.55
1034.8241	3072.1226	3008.1	2120.3
1034.9331	3073.1399	3011.05	2124.1
1035.042	3074.1567	2984.95	2095.55
1035.1508	3075.1727	2958.2	2068.8
1035.2597	3076.1882	2953.4	2065.7
1035.3684	3077.203	2935.45	2046.25
1035.4772	3078.2173	2928.85	2040.9
1035.5859	3079.2308	2904.15	2014.8
1035.6945	3080.2438	2904.25	2015.55
1035.8031	3081.2561	2886.55	2000.6
1035.9117	3082.2678	2866.8	1978.7
1036.0202	3083.2789	2855.1	1969.65
1036.1286	3084.2893	2841.55	1953.65
1036.2371	3085.2991	2833.7	1946.5
1036.3454	3086.3083	2821.25	1930.4
1036.4538	3087.3169	2809.55	1920.95
1036.562	3088.3248	2801.5	1913.2
1036.6703	3089.3321	2788.2	1900.3
1036.7785	3090.3388	2768.05	1883.1
1036.8866	3091.3449	2762.9	1875.4
1036.9948	3092.3503	2752.55	1864
1037.1028	3093.3551	2744.7	1858.8
1037.2108	3094.3593	2727.75	1842.45
1037.3188	3095.3629	2714.7	1828.65
1037.4267	3096.3658	2702.85	1816.7
1037.5346	3097.3681	2700.15	1813.75
1037.6425	3098.3698	2687.95	1799.6
1037.7503	3099.3708	2680.05	1787.15
1037.858	3100.3713	2659.6	1772.95
1037.9657	3101.3711	2652.05	1764.1
1038.0734	3102.3702	2763.8	1742.75
1038.181	3103.3688	2658.85	1768.55
1038.2886	3104.3667	2622.05	1736.55
1038.3961	3105.364	2613.55	1728.15
1038.5036	3106.3607	2599.95	1712.45
1038.611	3107.3568	2589.45	1701
1038.7184	3108.3522	2575.8	1689.7
1038.8257	3109.347	2569.85	1683.5
1038.933	3110.3412	2564.25	1672.5
1039.0403	3111.3348	2548.15	1661.55
1039.1475	3112.3277	2537.8	1651.2
1039.2547	3113.32	2525.45	1640
1039.3618	3114.3117	2533.75	1645.3
1039.4689	3115.3028	2504.3	1617.75
1039.5759	3116.2932	2518.9	1629.45
1039.6829	3117.2831	2508.05	1616.25
1039.7898	3118.2723	2486.7	1599.55
1039.8967	3119.2608	2479.85	1593.35
1040.0035	3120.2488	2474.3	1586.9
1040.1103	3121.2361	2459.6	1573.7
1040.2171	3122.2229	2452.4	1565.65
1040.3238	3123.209	2438.45	1550.65
1040.4305	3124.1944	2431.2	1543.95
1040.5371	3125.1793	2416.95	1530.1
1040.6437	3126.1635	2414.55	1529.95
1040.7502	3127.1471	2410.05	1523.25
1040.8567	3128.1301	2398.15	1509.85
1040.9631	3129.1125	2392.1	1505.45
1041.0695	3130.0942	2389.35	1501.2
1041.1759	3131.0753	2384.3	1488.75
1041.2822	3132.0558	2367.35	1478.8
1041.3884	3133.0357	2367	1478.6
1041.4946	3134.015	2357.5	1469.45
1041.6008	3134.9936	2350.2	1462.05
1041.7069	3135.9716	2359.25	1452.2
1041.813	3136.949	2342.9	1454.8
1041.919	3137.9258	2336.1	1442.8
1042.025	3138.902	2328.7	1434.75
1042.1309	3139.8775	2322.1	1434.85
1042.2368	3140.8524	2308	1421.9
1042.3427	3141.8267	2311.15	1422.05
1042.4485	3142.8004	2304.45	1417.4
1042.5542	3143.7735	2304.85	1410.6
1042.6599	3144.7459	2289.55	1401.6
1042.7656	3145.7178	2283.75	1396.1
1042.8712	3146.689	2287.3	1402.3
1042.9768	3147.6596	2267.75	1377.25
1043.0823	3148.6295	2258.7	1372.2
1043.1878	3149.5989	2251.1	1364.15
1043.2932	3150.5676	2245	1358
1043.3986	3151.5357	2235.8	1350.1
1043.5039	3152.5032	2225.25	1340.35
1043.6092	3153.4701	2225.4	1338.9
1043.7145	3154.4364	2218.45	1328.55
1043.8197	3155.402	2207.2	1321.85
1043.9248	3156.367	2209.15	1319.3
1044.03	3157.3315	2230.55	1300.05
1044.135	3158.2952	2188.45	1300.15
1044.24	3159.2584	2176.9	1289.95
1044.345	3160.221	2169.4	1282.25
1044.4499	3161.1829	2158.75	1271
1044.5548	3162.1442	2155.8	1268.75
1044.6596	3163.105	2154.9	1266.5
1044.7644	3164.065	2138	1251.3
1044.8692	3165.0245	2134.55	1245.85
1044.9739	3165.9834	2127.45	1241.7
1045.0785	3166.9416	2114.2	1228.9
1045.1831	3167.8993	2118.6	1232.3
1045.2877	3168.8563	2112.15	1224.95
1045.3922	3169.8127	2092.25	1206.3
1045.4966	3170.7684	2093.85	1208
1045.6011	3171.7236	2083.75	1194.05
1045.7054	3172.6782	2086.4	1198.8
1045.8098	3173.6321	2077.9	1188.75
1045.914	3174.5854	2062.05	1171.05
1046.0183	3175.5381	2060.7	1173.1
1046.1224	3176.4902	2056	1171.05
1046.2266	3177.4417	2043.4	1157.4
1046.3307	3178.3926	2035	1148.35
1046.4347	3179.3428	2033.2	1148.3
1046.5387	3180.2924	2020.2	1133.75
1046.6427	3181.2415	2021.2	1134.9
1046.7466	3182.1899	2016.7	1128
1046.8504	3183.1377	2006	1118.2
1046.9542	3184.0848	1999.25	1109.8
1047.058	3185.0314	1987.75	1100.2
1047.1617	3185.9773	1993.75	1106.05
1047.2654	3186.9227	1978.8	1091.2
1047.369	3187.8674	1977.55	1090.3
1047.4726	3188.8115	1975.6	1087.45
1047.5761	3189.755	1970.85	1084
1047.6796	3190.6979	1959.45	1072.1
1047.783	3191.6402	1959.05	1073.95
1047.8864	3192.5818	1955.7	1068.5
1047.9898	3193.5229	1969.95	1058.1
1048.0931	3194.4633	1948.35	1059.65
1048.1963	3195.4031	1935.15	1047.05
1048.2995	3196.3423	1931.7	1045.95
1048.4027	3197.2809	1925.25	1039.2
1048.5058	3198.2189	1920	1034.6
1048.6089	3199.1563	1918.7	1025.2
1048.7119	3200.0931	1911.4	1025.05
1048.8148	3201.0292	1893.4	1006.7
1048.9178	3201.9648	1891.35	1005.8
1049.0206	3202.8997	1904.4	1014.65
1049.1235	3203.834	1882.4	996.4
1049.2262	3204.7677	1882.05	995.25
1049.329	3205.7008	1875.85	987.05
1049.4317	3206.6333	1872.15	986.55
1049.5343	3207.5652	1880.6	993.15
1049.6369	3208.4964	1853.3	964.9
1049.7394	3209.4271	1855.8	968
1049.8419	3210.3571	1848.85	961.5
1049.9444	3211.2865	1854.2	966.6
1050.0468	3212.2154	1846.7	960.1
1050.1491	3213.1436	1841.4	951.5
1050.2514	3214.0712	1836.95	945
1050.3537	3214.9982	1819.95	932.4
1050.4559	3215.9246	1817.35	929.15
1050.5581	3216.8503	1825.95	940.05
1050.6602	3217.7755	1816.9	930.45
1050.7623	3218.7001	1817.4	929.5
1050.8643	3219.624	1811.4	924.45
1050.9663	3220.5473	1796.1	908.6
1051.0682	3221.4701	1801.95	914.05
1051.1701	3222.3922	1788.05	899.75
1051.2719	3223.3137	1787.9	900.75
1051.3737	3224.2346	1773.3	885.25
1051.4754	3225.1549	1773.55	886.85
1051.5771	3226.0746	1761.1	873.6
1051.6788	3226.9937	1764.35	875.8
1051.7804	3227.9121	1758.65	872.5
1051.8819	3228.83	1749.55	862.9
1051.9834	3229.7473	1751.4	864.8
1052.0849	3230.6639	1749.85	862.95
1052.1863	3231.5799	1738.5	852.5
1052.2876	3232.4954	1735.55	848.8
1052.3889	3233.4102	1739.4	852.35
1052.4902	3234.3244	1720.65	834.55
1052.5914	3235.238	1713.45	829.55
1052.6926	3236.151	1739.2	829.25
1052.7937	3237.0634	1714.15	827.5
1052.8948	3237.9752	1710.4	823.65
1052.9958	3238.8864	1696.35	810.4
1053.0968	3239.797	1692.95	806.4
1053.1977	3240.7069	1696.15	806.95
1053.2986	3241.6163	1680.65	790.2
1053.3994	3242.5251	1676.3	790.55
1053.5002	3243.4332	1678.35	793.35
1053.6009	3244.3408	1667.95	780.9
1053.7016	3245.2477	1667.55	781.2
1053.8022	3246.154	1667.25	781.3
1053.9028	3247.0598	1655.7	768.95
1054.0034	3247.9649	1648	761.55
1054.1039	3248.8694	1649.3	762.85
1054.2043	3249.7733	1643.75	758.5
1054.3047	3250.6766	1638.55	751.25
1054.4051	3251.5793	1638.2	750.85
1054.5054	3252.4814	1629.35	741.5
1054.6056	3253.3829	1626.15	740.05
1054.7058	3254.2838	1624.2	737.95
1054.806	3255.1841	1620.15	733.3
1054.9061	3256.0838	1611.4	725.6
1055.0061	3256.9829	1601.4	715.7
1055.1062	3257.8814	1600.75	712
1055.2061	3258.7792	1591.45	701.85
1055.306	3259.6765	1588.15	701.8
1055.4059	3260.5731	1577.75	690.3
1055.5057	3261.4692	1576.05	688.75
1055.6055	3262.3647	1564.65	676.45
1055.7052	3263.2595	1547.55	658.9
1055.8049	3264.1538	1546.65	659.4
1055.9045	3265.0474	1533.25	645.3
1056.0041	3265.9404	1522.55	637.3
1056.1036	3266.8329	1507.75	621.15
1056.2031	3267.7247	1511.4	612.5
1056.3025	3268.616	1489.75	603.4
1056.4019	3269.5066	1472.85	586.1
1056.5013	3270.3966	1453.35	565.5
1056.6005	3271.286	1436.35	549.9
