Software Version:	3.9.2.0
Unit SN:	10000200
Spectrometer SN:	6960
Date:	3/6/2024 10:02:27 AM
Data Line Index:	25
Spectral Points:	2048
Integration time (ms):	125
Averages:	20
Delay (ms):	30
Sequence Number:	1
Processing:	dark subtract
Laser Power (mW):	305
Laser Current (mA):	826
Laser Diode Temp (C):	25.1
Laser Case Temp (C):	24.7
System Temp (C):	24.5
Spectrometer Temp (C):	22.1
CCD Temp (C):	-0.003
Secondary Temp (C):	20.003
Heatsink Temp (C):	18.452
CCDPCB Temp (C):	31.794
SecondaryPCB Temp (C):	26.28

Wavelength	RamanShift	Raw Counts	Dark Subtracted
787.061	30.1047	674.9	267.7
787.2016	32.3739	687.6	279.7
787.3422	34.6426	708.55	301.1
787.4828	36.9109	721.3	310.55
787.6235	39.1787	747.2	334.05
787.7642	41.4461	772.5	354.35
787.9049	43.7131	797.7	377.25
788.0456	45.9796	823.2	399.5
788.1863	48.2456	851.6	423.65
788.3271	50.5112	876.2	444.65
788.4679	52.7764	905.85	470.15
788.6087	55.0411	931.75	492.9
788.7496	57.3054	969.45	525.05
788.8904	59.5692	1003.25	559.85
789.0313	61.8326	1034.9	588.15
789.1722	64.0955	1084.05	631.85
789.3132	66.3579	1136.9	680.85
789.4541	68.6199	1198.7	738.65
789.5951	70.8815	1314.55	849.45
789.7361	73.1426	1555.25	1086.3
789.8771	75.4032	2162.55	1690.2
790.0181	77.6634	3723.4	3246.65
790.1592	79.9231	7620.6	7140.15
790.3003	82.1824	17763.55	17272.45
790.4414	84.4412	36638.5	36132.9
790.5825	86.6995	50240.6	49713.45
790.7237	88.9574	56208.65	55665.65
790.8648	91.2148	59317.85	58763.8
791.006	93.4717	60179.5	59613.45
791.1472	95.7282	60597.35	60030.7
791.2885	97.9842	60794.45	60223.6
791.4297	100.2398	60808.75	60234.85
791.571	102.4949	60823.35	60250.05
791.7123	104.7495	60835.35	60253.5
791.8536	107.0036	60722.15	60140.3
791.9949	109.2573	60930.8	60347.85
792.1363	111.5105	60823.75	60237.85
792.2777	113.7632	60863.45	60276.4
792.4191	116.0154	60957	60361.8
792.5605	118.2672	61097.05	60503.55
792.7019	120.5185	61099	60506.85
792.8434	122.7693	61090.2	60494.1
792.9849	125.0197	60927.05	60325.5
793.1264	127.2696	61310.4	60707.2
793.2679	129.519	61254.6	60645.85
793.4094	131.7679	61400.45	60792.1
793.551	134.0163	61057.5	60446.05
793.6926	136.2642	61209.55	60593.8
793.8342	138.5117	61405.75	60787.9
793.9758	140.7587	61316.5	60698.9
794.1175	143.0052	61326.7	60703.05
794.2591	145.2512	61147.05	60518.95
794.4008	147.4967	61391.9	60767.15
794.5425	149.7417	61318.75	60696.1
794.6842	151.9863	61331.1	60701.5
794.826	154.2304	61225.7	60590.9
794.9677	156.4739	61304.45	60661.25
795.1095	158.717	61453.75	60809.35
795.2513	160.9596	61341.9	60697.65
795.3931	163.2017	61191.9	60544.65
795.535	165.4433	61379.65	60730.25
795.6768	167.6844	61285.85	60632.5
795.8187	169.925	61370.8	60716.25
795.9606	172.1651	61282.85	60625.55
796.1025	174.4047	61356.4	60698.8
796.2445	176.6439	61353.45	60692.8
796.3864	178.8825	61288.75	60622.35
796.5284	181.1206	61453.6	60782.75
796.6704	183.3582	61398.8	60723.75
796.8124	185.5954	61348.35	60670.15
796.9544	187.832	61367	60685.75
797.0965	190.0681	61279.65	60596.65
797.2386	192.3037	61453.55	60767.05
797.3806	194.5388	61640.6	60952.3
797.5228	196.7734	61206.15	60517.25
797.6649	199.0075	61632.7	60939.7
797.807	201.2411	61493.1	60800.65
797.9492	203.4742	61703.3	61006.5
798.0914	205.7068	61655.3	60953.65
798.2336	207.9389	61655.85	60955.85
798.3758	210.1704	61630.15	60936.45
798.518	212.4015	61764.75	61080.7
798.6603	214.632	61591.95	60912.45
798.8025	216.862	61788.65	61112.25
798.9448	219.0915	61682.55	61005.35
799.0871	221.3205	61666.95	60986.65
799.2294	223.549	61836.6	61158.75
799.3718	225.777	61816.4	61138.8
799.5141	228.0044	61912.95	61228.75
799.6565	230.2314	61845.5	61157.6
799.7989	232.4578	61851	61159.65
799.9413	234.6837	61882.75	61183.7
800.0837	236.909	62199.7	61497.55
800.2262	239.1339	61780.95	61056.1
800.3687	241.3582	61960.7	61247.4
800.5111	243.582	61967.9	61224.7
800.6536	245.8053	61967.55	61237.2
800.7961	248.0281	61989.3	61266.65
800.9387	250.2503	62031.6	61302.05
801.0812	252.472	61893.1	61163.65
801.2238	254.6932	62016.1	61286.9
801.3664	256.9139	61946	61216.35
801.509	259.134	62238.2	61505.45
801.6516	261.3536	61917.1	61185.2
801.7942	263.5727	62079.25	61345.65
801.9369	265.7912	61995.65	61263.65
802.0795	268.0092	62036.2	61300.25
802.2222	270.2267	62066.65	61332.3
802.3649	272.4436	61941.9	61207.65
802.5076	274.6601	62079.5	61331.45
802.6504	276.8759	62146.4	61402.85
802.7931	279.0913	62053.8	61309.65
802.9359	281.3061	62113.6	61371.5
803.0787	283.5204	62100.3	61348.75
803.2215	285.7341	62081.5	61331.7
803.3643	287.9473	62257.95	61497.45
803.5071	290.16	62126.25	61370.65
803.6499	292.3721	62182.2	61433
803.7928	294.5837	62074.7	61325.05
803.9357	296.7947	61981.15	61232.95
804.0786	299.0052	62218.75	61467.5
804.2215	301.2152	62143.4	61387.95
804.3644	303.4246	62216.85	61465.3
804.5074	305.6334	62203.75	61455.75
804.6503	307.8418	62050	61291.25
804.7933	310.0495	62053.8	61294.35
804.9363	312.2568	62052.85	61294.45
805.0793	314.4635	62056.95	61296.55
805.2223	316.6696	62148.5	61386.5
805.3653	318.8752	62197.45	61424.3
805.5084	321.0802	61892.25	61130.4
805.6514	323.2847	62036.1	61272.5
805.7945	325.4887	62010.8	61244.25
805.9376	327.692	61966.8	61198.4
806.0807	329.8949	62071.45	61302.4
806.2238	332.0972	61968.3	61195.5
806.367	334.2989	62052.55	61277.75
806.5101	336.5001	62134.65	61360.75
806.6533	338.7007	61894.1	61121.9
806.7965	340.9008	62035.45	61258.8
806.9397	343.1003	62055.25	61272.45
807.0829	345.2992	62133.1	61353.1
807.2261	347.4976	61989.75	61213.55
807.3693	349.6955	62055.35	61269.8
807.5126	351.8927	61965.95	61182.25
807.6559	354.0895	62081.45	61283.55
807.7991	356.2856	62078.85	61290.45
807.9424	358.4812	62183.6	61397.25
808.0857	360.6763	61987.95	61195.7
808.2291	362.8707	62190.7	61399.85
808.3724	365.0646	62044.3	61250.6
808.5158	367.258	62040.05	61244.95
808.6591	369.4508	61922.45	61125.25
808.8025	371.643	62131.25	61330.45
808.9459	373.8346	62010.9	61209.25
809.0893	376.0257	62036.05	61229.95
809.2327	378.2162	62008.5	61207.9
809.3762	380.4062	61867.85	61065.8
809.5196	382.5956	61981.4	61178.95
809.6631	384.7844	61965.1	61169.75
809.8066	386.9726	62048.65	61251.25
809.9501	389.1603	62028.95	61236.2
810.0936	391.3474	61912.1	61082.5
810.2371	393.5339	62018.5	61221.35
810.3806	395.7199	61812.8	61021.05
810.5241	397.9052	61837.7	61039.8
810.6677	400.09	61886.95	61090.25
810.8113	402.2743	62030.95	61234.25
810.9548	404.4579	61876.35	61078.05
811.0984	406.641	61866.05	61067.15
811.2421	408.8235	61929.35	61124.5
811.3857	411.0054	61945.85	61141.55
811.5293	413.1868	61967.75	61158.8
811.673	415.3675	61920.75	61109.3
811.8166	417.5477	61934.75	61126.1
811.9603	419.7273	61924.6	61108.15
812.104	421.9064	61886.05	61062.5
812.2477	424.0848	61901.7	61084.2
812.3914	426.2627	62008	61190.8
812.5351	428.4399	61856.35	61041.55
812.6788	430.6166	61714.65	60892.85
812.8226	432.7928	61870.25	61045.15
812.9663	434.9683	61736.4	60915.25
813.1101	437.1432	61757.8	60936.2
813.2539	439.3176	61860.75	61042.35
813.3977	441.4914	61652.95	60838.15
813.5415	443.6645	61678.55	60859.1
813.6853	445.8371	61675.4	60855.75
813.8291	448.0091	61588.55	60763.95
813.973	450.1806	61539.05	60718.6
814.1168	452.3514	61564.3	60742.7
814.2607	454.5216	61449.25	60617.4
814.4046	456.6913	61565.45	60741.55
814.5485	458.8603	61578.05	60751.85
814.6924	461.0288	61449.85	60628.75
814.8363	463.1967	61554.8	60733.35
814.9802	465.3639	61555.75	60732.35
815.1241	467.5306	61324.6	60498.95
815.2681	469.6967	61439.95	60617.5
815.412	471.8622	61537.65	60714.55
815.556	474.0271	61437.4	60611.45
815.7	476.1914	61467.05	60637.15
815.844	478.3551	61474.6	60643.75
815.988	480.5182	61591	60763.65
816.132	482.6807	61436.2	60611.55
816.276	484.8426	61435.1	60611.6
816.4201	487.0039	61582.05	60756
816.5641	489.1647	61577.35	60747.4
816.7082	491.3248	61428.7	60597.25
816.8522	493.4843	61600.7	60772.95
816.9963	495.6432	61576.9	60747.75
817.1404	497.8015	61398.15	60563.65
817.2845	499.9592	61510.85	60671.95
817.4286	502.1163	61522	60683.3
817.5727	504.2728	61470.55	60634.5
817.7168	506.4287	61482.45	60652.35
817.861	508.5839	61387.05	60554.25
818.0051	510.7386	61453.05	60620.2
818.1493	512.8927	61484.8	60645.2
818.2935	515.0461	61441.05	60601.65
818.4377	517.199	61543.85	60703.3
818.5818	519.3512	61449.25	60606.8
818.726	521.5029	61425.2	60580.5
818.8703	523.6539	61443	60601.35
819.0145	525.8043	61297.15	60454.85
819.1587	527.9541	61429.8	60584.55
819.303	530.1033	61410.75	60567.9
819.4472	532.2519	61332.8	60487.9
819.5915	534.3999	61425.5	60578.85
819.7357	536.5472	61491.4	60647.35
819.88	538.694	61323.25	60481.95
820.0243	540.8401	61415.05	60572.65
820.1686	542.9856	61397.9	60549.2
820.3129	545.1305	61455.65	60604.3
820.4572	547.2748	61336.45	60484.35
820.6016	549.4185	61356.3	60503.65
820.7459	551.5615	61444.8	60591.55
820.8902	553.704	61400.55	60548.05
821.0346	555.8458	61294.7	60447
821.1789	557.987	61359.2	60511.85
821.3233	560.1276	61393.55	60542.4
821.4677	562.2675	61351.35	60501.2
821.6121	564.4069	61349.65	60498.35
821.7565	566.5456	61434	60582.25
821.9009	568.6837	61288.95	60437.45
822.0453	570.8212	61344	60491.95
822.1897	572.958	61179.55	60326.25
822.3342	575.0942	61316.85	60468.3
822.4786	577.2299	61191	60342.8
822.6231	579.3648	61166.3	60318.3
822.7675	581.4992	61136.75	60292.55
822.912	583.6329	61098.85	60254.4
823.0565	585.766	61108.35	60264.25
823.201	587.8985	61120.85	60271.4
823.3454	590.0304	60938.6	60062.9
823.4899	592.1616	61089.3	60230.9
823.6345	594.2922	61013.7	60159.5
823.779	596.4222	60930.9	60072.95
823.9235	598.5515	60958.5	60101.65
824.068	600.6802	60978.6	60121.85
824.2126	602.8083	60857.8	59999.85
824.3571	604.9358	60832.05	59974.8
824.5017	607.0626	60936.95	60076.45
824.6462	609.1888	60762.55	59898.55
824.7908	611.3144	60869.35	60009.25
824.9354	613.4393	60791.3	59927.75
825.08	615.5636	60715.25	59854.2
825.2246	617.6873	60799.95	59935.35
825.3692	619.8103	60674.5	59810.55
825.5138	621.9327	60790.85	59922.85
825.6584	624.0544	60794.55	59935.9
825.803	626.1756	60715.55	59857.55
825.9477	628.2961	60722.6	59856.95
826.0923	630.4159	60642	59778.25
826.237	632.5351	60613.7	59749.5
826.3816	634.6537	60804.75	59938.45
826.5263	636.7716	60579.95	59710.7
826.6709	638.8889	60662.25	59791.4
826.8156	641.0056	60645.45	59775.3
826.9603	643.1216	60657.15	59787.05
827.105	645.237	60733.85	59862.95
827.2497	647.3518	60569.1	59704.75
827.3944	649.4659	60632.9	59768.8
827.5391	651.5793	60596.6	59732.5
827.6838	653.6922	60643.8	59780.4
827.8285	655.8043	60469.3	59602.3
827.9733	657.9159	60697.95	59831.05
828.118	660.0268	60245.85	59375.25
828.2627	662.137	60489.2	59619.3
828.4075	664.2466	60508.8	59638.05
828.5522	666.3556	60441.35	59569.8
828.697	668.4639	60501.6	59632.55
828.8418	670.5716	60401.9	59532.85
828.9865	672.6786	60469	59599.65
829.1313	674.785	60323.15	59448.75
829.2761	676.8907	60322.45	59453
829.4209	678.9958	60369.2	59505.4
829.5657	681.1002	60387.15	59514.05
829.7105	683.204	60240.5	59361.85
829.8553	685.3072	60188.15	59315.35
830.0001	687.4097	60247.35	59371.5
830.1449	689.5115	60179.55	59304.35
830.2898	691.6127	60291.6	59417.25
830.4346	693.7132	60158.2	59283
830.5794	695.8131	60162	59268.95
830.7243	697.9123	60204.4	59327.15
830.8691	700.0109	60258.35	59380.85
831.014	702.1089	60051.6	59173.9
831.1588	704.2061	60098.45	59222.35
831.3037	706.3028	60121.95	59244.3
831.4486	708.3987	60138.05	59261.25
831.5935	710.4941	60031.85	59153.25
831.7383	712.5887	60123.5	59248.55
831.8832	714.6827	60023.4	59142.25
832.0281	716.7761	60106.85	59230.1
832.173	718.8688	60146.5	59266.8
832.3179	720.9608	60001.95	59117.45
832.4628	723.0522	60025.6	59141.55
832.6077	725.1429	59894.95	59012
832.7527	727.233	60180.95	59301.2
832.8976	729.3224	59740.55	58860.55
833.0425	731.4112	59874.5	58992.65
833.1874	733.4993	59871.7	58988.8
833.3324	735.5867	59888.4	59006.9
833.4773	737.6735	59783.3	58900.8
833.6222	739.7596	59703.6	58822.9
833.7672	741.845	59649.8	58769.4
833.9122	743.9298	59763.45	58880.8
834.0571	746.014	59616	58734.45
834.2021	748.0974	59539.35	58651.85
834.347	750.1802	59688.35	58801.7
834.492	752.2624	59437.9	58552.75
834.637	754.3439	59465.15	58577.25
834.782	756.4247	59469.55	58574.9
834.9269	758.5048	59349.85	58467.4
835.0719	760.5843	59386.7	58498
835.2169	762.6631	59352.2	58466.2
835.3619	764.7413	59319.4	58434.2
835.5069	766.8188	59320.15	58432
835.6519	768.8956	59350.8	58462.45
835.7969	770.9718	59312.2	58425.3
835.9419	773.0473	59212	58327
836.0869	775.1221	59162.3	58276.55
836.232	777.1962	59121.9	58233.5
836.377	779.2697	58999.15	58110.55
836.522	781.3426	59030.7	58123.1
836.667	783.4147	59050.7	58160.1
836.8121	785.4862	59011.65	58130
836.9571	787.557	58921.2	58032.6
837.1021	789.6271	58984.9	58097.65
837.2472	791.6966	58899.5	58011.45
837.3922	793.7654	58769.7	57881.25
837.5373	795.8335	58811.4	57925.05
837.6823	797.901	58812.25	57925.95
837.8274	799.9678	58744.25	57851.3
837.9724	802.0339	58680.65	57788.4
838.1175	804.0993	58649	57751.95
838.2626	806.1641	58590.1	57699.85
838.4076	808.2282	58574.9	57687.45
838.5527	810.2916	58578.45	57686.4
838.6978	812.3544	58584.35	57696.3
838.8428	814.4164	58465.15	57578.05
838.9879	816.4778	58479.5	57588.2
839.133	818.5385	58452.45	57560.55
839.2781	820.5986	58405.3	57514
839.4232	822.658	58429.2	57536.1
839.5682	824.7166	58452.25	57562.95
839.7133	826.7747	58350.65	57459.95
839.8584	828.832	58390.15	57498.25
840.0035	830.8886	58400.3	57507.25
840.1486	832.9446	58384.75	57490.7
840.2937	834.9999	58145.95	57255.35
840.4388	837.0545	58225.85	57330.35
840.5839	839.1085	58267.45	57375
840.729	841.1618	58235	57338
840.8741	843.2143	58047.3	57155.55
841.0192	845.2662	58026.6	57133.45
841.1643	847.3175	58042.3	57147.4
841.3095	849.368	57876.45	56982.6
841.4546	851.4179	58002.6	57109.75
841.5997	853.467	57830.7	56935.8
841.7448	855.5155	57881.3	56988.15
841.8899	857.5633	57769.2	56875.25
842.0351	859.6105	57695.95	56800.35
842.1802	861.6569	57734.9	56840.65
842.3253	863.7027	57631.5	56736.2
842.4704	865.7478	57681.8	56785.85
842.6156	867.7922	57640.05	56748.1
842.7607	869.8359	57614.05	56715.7
842.9058	871.8789	57481.5	56584.75
843.0509	873.9212	57554.35	56628.15
843.1961	875.9629	57510.75	56613.45
843.3412	878.0039	57491.05	56596.15
843.4863	880.0441	57469.55	56573.9
843.6315	882.0837	57433.85	56538.95
843.7766	884.1226	57425.1	56526.9
843.9218	886.1609	57428.05	56531.7
844.0669	888.1984	57373.8	56478.75
844.212	890.2352	57491.75	56594
844.3572	892.2714	57340.1	56440.15
844.5023	894.3069	57365.35	56468.25
844.6475	896.3416	57261.55	56363.95
844.7926	898.3757	57217.85	56318.6
844.9377	900.4091	57069.25	56169.2
845.0829	902.4418	57230.45	56327.45
845.228	904.4739	57091.6	56191.8
845.3732	906.5052	57102.5	56202.15
845.5183	908.5358	57057	56160.45
845.6635	910.5658	56974.35	56073.95
845.8086	912.595	56996.45	56098.6
845.9538	914.6236	56776.55	55878.3
846.0989	916.6515	56994.1	56097.25
846.2441	918.6786	56705.5	55806.35
846.3892	920.7051	56767.1	55865.5
846.5344	922.7309	56727.5	55828.45
846.6795	924.756	56718.3	55819.3
846.8246	926.7804	56633.35	55730.25
846.9698	928.8041	56405.45	55502.35
847.1149	930.8272	56503.45	55605.05
847.2601	932.8495	56474	55571.9
847.4052	934.8711	56366.3	55467.7
847.5504	936.892	56247.6	55347.3
847.6955	938.9123	56236.8	55337.6
847.8407	940.9318	56186.5	55285.05
847.9858	942.9506	56113.95	55213.85
848.131	944.9688	56120.7	55220.9
848.2761	946.9862	55927.65	55028.7
848.4213	949.003	55974.65	55073.85
848.5664	951.019	55811.05	54911.8
848.7115	953.0344	55776.9	54873.7
848.8567	955.0491	55722.55	54821.8
849.0018	957.063	55781.8	54881.3
849.147	959.0763	55812.25	54914.25
849.2921	961.0888	55675.85	54774.8
849.4373	963.1007	55745.85	54844.65
849.5824	965.1119	55676.4	54778.9
849.7275	967.1223	55581.5	54685.2
849.8727	969.1321	55631.9	54738.45
850.0178	971.1412	55547.9	54649.6
850.1629	973.1495	55459.1	54559.85
850.3081	975.1572	55447.5	54506.1
850.4532	977.1641	55422.7	54521.4
850.5983	979.1704	55375.2	54471.3
850.7435	981.1759	55349.05	54444.95
850.8886	983.1808	55297.55	54395.8
851.0337	985.1849	55254.45	54343.95
851.1788	987.1884	55242.75	54339.25
851.324	989.1911	55238.25	54334.6
851.4691	991.1932	55073	54171.75
851.6142	993.1945	55079.95	54181.85
851.7593	995.1951	55001.65	54100.9
851.9045	997.1951	54936.55	54029.4
852.0496	999.1943	54852.25	53950.5
852.1947	1001.1928	54750.2	53847
852.3398	1003.1906	54708.15	53804.95
852.4849	1005.1877	54601.5	53700.6
852.63	1007.1841	54524.05	53623.45
852.7751	1009.1798	54525.95	53625.8
852.9202	1011.1748	54473.7	53573.2
853.0653	1013.1691	54420.1	53516.4
853.2104	1015.1627	54182.5	53281.55
853.3555	1017.1556	54155.75	53255.55
853.5006	1019.1477	54138.4	53238
853.6457	1021.1392	53991.4	53093.35
853.7908	1023.1299	53800.1	52902.25
853.9359	1025.12	53909.1	53010.9
854.081	1027.1093	53774.6	52883.55
854.2261	1029.0979	53706.5	52817.25
854.3712	1031.0859	53601.65	52710.5
854.5163	1033.0731	53437.45	52540
854.6613	1035.0596	53488	52589.5
854.8064	1037.0454	53343.5	52442.75
854.9515	1039.0304	53267.45	52365.25
855.0965	1041.0148	53008.35	52109.45
855.2416	1042.9985	53025.75	52120.55
855.3867	1044.9814	53142.25	52242.95
855.5317	1046.9636	52861.25	51957.15
855.6768	1048.9452	52829.95	51928.65
855.8219	1050.926	52773.3	51874.2
855.9669	1052.9061	52761.3	51858.45
856.112	1054.8855	52733.4	51833.85
856.257	1056.8642	52616.2	51713.2
856.4021	1058.8421	52558.3	51653.35
856.5471	1060.8194	52521.05	51618.8
856.6921	1062.7959	52419.15	51517.8
856.8372	1064.7717	52493	51589.05
856.9822	1066.7469	52425.7	51523.85
857.1272	1068.7213	52377.7	51473.2
857.2723	1070.695	52323.8	51420.25
857.4173	1072.6679	52162.75	51260.8
857.5623	1074.6402	52237.3	51333.3
857.7073	1076.6117	52109.55	51202.6
857.8523	1078.5826	52067.6	51163.7
857.9973	1080.5527	52060.25	51155.15
858.1423	1082.5221	51946.25	51042.9
858.2873	1084.4908	51929.75	51028.35
858.4323	1086.4587	51822.8	50920.3
858.5773	1088.426	51803.1	50898.2
858.7223	1090.3925	51730.6	50823
858.8673	1092.3584	51686.3	50784.45
859.0123	1094.3235	51522.6	50620.7
859.1573	1096.2879	51454.8	50553.5
859.3022	1098.2515	51538.1	50637.45
859.4472	1100.2145	51411.55	50511.2
859.5922	1102.1767	51334	50428.3
859.7371	1104.1382	51389.1	50486.95
859.8821	1106.099	51352.9	50450.75
860.027	1108.0591	51261.25	50360.85
860.172	1110.0185	50965.25	50060.9
860.3169	1111.9771	51186.95	50284.8
860.4619	1113.9351	51066.6	50164.65
860.6068	1115.8923	50929.4	50026.2
860.7517	1117.8488	50776.05	49873.1
860.8967	1119.8045	50562.3	49659.2
861.0416	1121.7596	50656.05	49753.4
861.1865	1123.7139	50527.4	49626.4
861.3314	1125.6675	50470.35	49567.75
861.4763	1127.6204	50466.3	49564.6
861.6212	1129.5726	50214.85	49310.7
861.7661	1131.524	50293.1	49390.1
861.911	1133.4748	50298.35	49395.15
862.0559	1135.4248	50105.25	49200.3
862.2008	1137.3741	50070.2	49167.45
862.3457	1139.3226	50026.9	49123.8
862.4905	1141.2705	49957.05	49052.8
862.6354	1143.2176	49909	48999.35
862.7803	1145.164	49698.85	48795.8
862.9251	1147.1097	49727.3	48827.85
863.07	1149.0546	49717.55	48815.3
863.2148	1150.9989	49748.35	48845.45
863.3597	1152.9424	49540.85	48637.1
863.5045	1154.8852	49635.8	48732.85
863.6493	1156.8272	49477.4	48575.8
863.7942	1158.7686	49642.45	48733.7
863.939	1160.7092	49310.45	48406
864.0838	1162.6491	49287.2	48382.4
864.2286	1164.5883	49299.15	48399.05
864.3734	1166.5267	49149	48243.2
864.5182	1168.4644	49267.65	48364.4
864.663	1170.4014	49223.75	48317.35
864.8078	1172.3377	49275.75	48373.65
864.9526	1174.2732	49301.95	48399.8
865.0974	1176.2081	49217.4	48315.05
865.2421	1178.1421	49157.7	48251.6
865.3869	1180.0755	49322.65	48421.1
865.5317	1182.0082	49162.55	48258.6
865.6764	1183.9401	49176.15	48277.35
865.8212	1185.8713	48989.45	48089.55
865.9659	1187.8017	48936.4	48038.45
866.1106	1189.7315	48907.65	48013.5
866.2554	1191.6605	48733.9	47829.55
866.4001	1193.5888	48595.8	47698.4
866.5448	1195.5163	48453.65	47556
866.6895	1197.4432	48372.85	47468.4
866.8342	1199.3693	48354.75	47452.1
866.9789	1201.2947	48208.55	47301.65
867.1236	1203.2193	48201.1	47297.15
867.2683	1205.1432	48045.4	47143.15
867.413	1207.0664	48010.85	47108.3
867.5576	1208.9889	47948.1	47042.95
867.7023	1210.9106	47849.4	46947.2
867.847	1212.8316	47730.3	46829.25
867.9916	1214.7519	47733.6	46822.9
868.1363	1216.6715	47613.35	46711.35
868.2809	1218.5903	47591.65	46691.9
868.4255	1220.5084	47536.1	46631.95
868.5701	1222.4257	47539.4	46638.6
868.7148	1224.3424	47410.5	46508.6
868.8594	1226.2583	47374.6	46469.25
869.004	1228.1735	47354.1	46454.75
869.1486	1230.0879	47234.35	46331.85
869.2932	1232.0016	47248.3	46346.3
869.4377	1233.9146	47132.35	46229.05
869.5823	1235.8269	47095.55	46194.15
869.7269	1237.7384	47069.55	46169.8
869.8715	1239.6492	46933.6	46033.2
870.016	1241.5592	46891.05	45988.1
870.1606	1243.4686	46866.05	45966.3
870.3051	1245.3772	46781.2	45881.85
870.4496	1247.285	46786.95	45885.9
870.5941	1249.1922	46676.3	45776.3
870.7387	1251.0986	46730	45829.1
870.8832	1253.0042	46577.55	45676.3
871.0277	1254.9092	46602.75	45700.3
871.1722	1256.8134	46447.2	45547.7
871.3167	1258.7169	46535.1	45632.15
871.4611	1260.6196	46434.2	45532.9
871.6056	1262.5216	46471.5	45568.4
871.7501	1264.4229	46422.9	45521
871.8945	1266.3234	46467.3	45566.1
872.039	1268.2232	46413.85	45510.85
872.1834	1270.1223	46346.9	45445
872.3278	1272.0207	46285.35	45383.9
872.4723	1273.9183	46256.55	45348.05
872.6167	1275.8151	46205.25	45301.55
872.7611	1277.7113	46171.6	45269
872.9055	1279.6067	46087.05	45186.45
873.0499	1281.5014	46043.6	45139.15
873.1943	1283.3953	46078.2	45175.05
873.3386	1285.2885	46063.55	45161
873.483	1287.181	46098.1	45196.95
873.6274	1289.0727	46137.75	45238.25
873.7717	1290.9637	46079.1	45177.3
873.9161	1292.854	46164.9	45263.2
874.0604	1294.7435	46077.85	45177.75
874.2047	1296.6323	46044.45	45143.45
874.349	1298.5204	45943	45038.4
874.4933	1300.4077	45978.45	45074
874.6376	1302.2943	45903.2	45002.4
874.7819	1304.1802	45827	44925.35
874.9262	1306.0653	45715.25	44812.85
875.0705	1307.9497	45602.45	44701.6
875.2147	1309.8333	45581.15	44679.8
875.359	1311.7162	45468.1	44566.6
875.5032	1313.5984	45398.1	44491
875.6475	1315.4798	45277.5	44372.75
875.7917	1317.3605	45284.4	44364.5
875.9359	1319.2405	45258.2	44354.75
876.0801	1321.1197	45096.8	44195.45
876.2243	1322.9982	45022.15	44114.8
876.3685	1324.876	44934.25	44032.75
876.5127	1326.753	44774.75	43874.85
876.6569	1328.6293	44901.25	43998.35
876.801	1330.5048	44817.5	43911.75
876.9452	1332.3796	44667.45	43766
877.0893	1334.2537	44624.7	43696.65
877.2335	1336.127	44617.3	43714.9
877.3776	1337.9996	44472.25	43570.7
877.5217	1339.8714	44570.75	43670.6
877.6658	1341.7426	44299.25	43355.1
877.8099	1343.6129	44370.5	43466.9
877.954	1345.4826	44334.45	43430.2
878.0981	1347.3515	44157.55	43253.55
878.2422	1349.2196	44230.9	43328.4
878.3862	1351.087	44250.1	43347.5
878.5303	1352.9537	44167.95	43266.75
878.6743	1354.8197	44173.4	43272.65
878.8184	1356.6849	44173.9	43273.7
878.9624	1358.5493	44155.8	43253.55
879.1064	1360.4131	44021.4	43120.1
879.2504	1362.276	44136.2	43235.05
879.3944	1364.1383	43901.05	43002.15
879.5384	1365.9998	43787.6	42880.3
879.6823	1367.8606	43791.25	42890.2
879.8263	1369.7206	43621.15	42719.35
879.9702	1371.5799	43470.45	42565.7
880.1142	1373.4384	43333.25	42429.7
880.2581	1375.2962	43304.1	42401.35
880.402	1377.1533	43043.75	42143.45
880.5459	1379.0096	42919.15	42018.45
880.6898	1380.8652	42820.25	41919.55
880.8337	1382.7201	42656.2	41754.7
880.9776	1384.5742	42552.85	41651.6
881.1215	1386.4275	42329.8	41426.85
881.2653	1388.2802	42333.05	41430.8
881.4092	1390.132	42291.3	41391
881.553	1391.9832	42091.1	41189
881.6968	1393.8336	41932.65	41031.45
881.8406	1395.6832	41926.5	41024.5
881.9844	1397.5322	41892.95	40991.25
882.1282	1399.3803	41738.3	40831
882.272	1401.2278	41637.65	40733.6
882.4158	1403.0745	41605.8	40703.45
882.5595	1404.9204	41450.2	40551.55
882.7033	1406.7656	41436.1	40535
882.847	1408.6101	41297.3	40395.5
882.9908	1410.4538	41222.2	40321.95
883.1345	1412.2968	41203.15	40300.85
883.2782	1414.139	41032.05	40133.7
883.4219	1415.9805	41054.9	40152.55
883.5656	1417.8213	40925.45	40018.15
883.7092	1419.6613	40939.65	40038.25
883.8529	1421.5006	40883.5	39983.7
883.9965	1423.3391	40800.4	39899.95
884.1402	1425.1769	40823.75	39924
884.2838	1427.0139	40874.8	39973.4
884.4274	1428.8502	40940.45	40039.75
884.571	1430.6858	40929.2	40027.5
884.7146	1432.5206	40997	40097.35
884.8582	1434.3547	40949.7	40045.8
885.0018	1436.188	40867.25	39966.55
885.1453	1438.0206	40847.65	39947.7
885.2889	1439.8524	40751	39849.05
885.4324	1441.6835	40707.95	39806.75
885.5759	1443.5139	40620.75	39716
885.7194	1445.3435	40533.9	39634.15
885.8629	1447.1724	40572.1	39673.55
886.0064	1449.0005	40396.05	39496.05
886.1499	1450.8279	40431.35	39529.6
886.2933	1452.6545	40365.35	39465.1
886.4368	1454.4804	40350.15	39450.05
886.5802	1456.3056	40217.65	39311
886.7237	1458.13	40227.1	39326.55
886.8671	1459.9536	40241.7	39340.5
887.0105	1461.7766	40040.75	39140.35
887.1539	1463.5987	39917.55	39016.65
887.2972	1465.4202	39864.1	38963.7
887.4406	1467.2409	39687.75	38786.85
887.584	1469.0608	39612.85	38712.15
887.7273	1470.88	39505.25	38605.35
887.8706	1472.6984	39445.85	38544.9
888.0139	1474.5161	39225.95	38323.6
888.1572	1476.3331	39209.55	38309.7
888.3005	1478.1493	39091.15	38187.85
888.4438	1479.9648	39048.55	38150.55
888.5871	1481.7795	39010.55	38110.9
888.7303	1483.5935	39004.7	38105.25
888.8736	1485.4067	38850.35	37949.2
889.0168	1487.2192	38879.15	37977.15
889.16	1489.031	38750.3	37849.45
889.3032	1490.842	38766.2	37868.75
889.4464	1492.6522	38715.05	37816.45
889.5896	1494.4618	38589.35	37687.3
889.7327	1496.2705	38598.85	37701.1
889.8759	1498.0785	38432.5	37532.6
890.019	1499.8858	38455	37556.35
890.1622	1501.6924	38423.8	37524.4
890.3053	1503.4981	38269.15	37369.95
890.4484	1505.3032	38276.25	37376.9
890.5914	1507.1075	38136.05	37237.65
890.7345	1508.911	38144.25	37244.2
890.8776	1510.7138	38083.65	37184.15
891.0206	1512.5159	38023.15	37122.3
891.1637	1514.3172	37754.35	36856.85
891.3067	1516.1178	37742.75	36845
891.4497	1517.9176	37802.9	36900.6
891.5927	1519.7166	37675.8	36777.3
891.7357	1521.515	37605.95	36702.65
891.8786	1523.3126	37404.4	36505.55
892.0216	1525.1094	37476.1	36574.3
892.1645	1526.9055	37339.45	36442.2
892.3074	1528.7008	37273	36374.3
892.4503	1530.4954	36996.15	36096.05
892.5932	1532.2893	37133.5	36238.75
892.7361	1534.0824	36859.4	35956.85
892.879	1535.8747	36754.85	35858.75
893.0218	1537.6663	36931.05	36033.45
893.1647	1539.4572	36460.1	35562.95
893.3075	1541.2473	36625.75	35726.15
893.4503	1543.0367	36515.2	35617.3
893.5931	1544.8253	36391.3	35490.7
893.7359	1546.6132	36414.9	35514.05
893.8787	1548.4003	36230.7	35323.25
894.0214	1550.1867	36192.8	35285.15
894.1642	1551.9723	36136.9	35239.4
894.3069	1553.7572	36119.45	35222.05
894.4496	1555.5414	36129.6	35234.65
894.5923	1557.3247	35888.45	34991.65
894.735	1559.1074	36057.25	35165.05
894.8777	1560.8893	35942.5	35051.3
895.0204	1562.6705	35928.35	35033.35
895.163	1564.4509	35799.65	34906.5
895.3056	1566.2305	35793.4	34900.95
895.4482	1568.0094	35912.35	35019.2
895.5908	1569.7876	35765.3	34871.1
895.7334	1571.565	35617.45	34721.9
895.876	1573.3417	35717	34822.7
896.0186	1575.1176	35598.2	34705.7
896.1611	1576.8928	35514.35	34622.85
896.3036	1578.6672	35348.05	34460.1
896.4461	1580.4409	35325.25	34438.4
896.5886	1582.2138	35128.15	34235.4
896.7311	1583.986	35141.15	34249.7
896.8736	1585.7575	35084.7	34192
897.0161	1587.5282	35069.35	34178.65
897.1585	1589.2981	35090.45	34200.3
897.3009	1591.0673	34984.05	34093.9
897.4433	1592.8358	34942.95	34051.4
897.5857	1594.6035	34926.05	34033.2
897.7281	1596.3704	34868.65	33976.35
897.8705	1598.1366	34754.05	33862.7
898.0128	1599.9021	34677.6	33785.45
898.1551	1601.6668	34690.85	33799.9
898.2975	1603.4308	34607.6	33716.35
898.4398	1605.194	34638.85	33741.65
898.5821	1606.9564	34469.55	33579.95
898.7243	1608.7182	34594.8	33703.95
898.8666	1610.4791	34476.35	33591.45
899.0088	1612.2394	34556.2	33669.7
899.1511	1613.9988	34519.45	33633.35
899.2933	1615.7576	34623.6	33736.15
899.4355	1617.5156	34681.75	33788.15
899.5776	1619.2728	34758.7	33866.95
899.7198	1621.0293	34525.9	33636.55
899.862	1622.785	34395.85	33502.75
900.0041	1624.54	34297.55	33407.1
900.1462	1626.2942	34154.55	33263.4
900.2883	1628.0477	33830.65	32937.95
900.4304	1629.8005	33656.55	32764.5
900.5725	1631.5525	33632.2	32742.85
900.7145	1633.3037	33387.1	32498.9
900.8566	1635.0542	33317.9	32431
900.9986	1636.804	33273.55	32384.45
901.1406	1638.553	33207.8	32274.45
901.2826	1640.3013	33072.2	32184.7
901.4245	1642.0488	32927.65	32037.45
901.5665	1643.7955	32977.65	32089.15
901.7085	1645.5416	32871.05	31983.45
901.8504	1647.2868	32858.4	31971.3
901.9923	1649.0313	32873.05	31985.2
902.1342	1650.7751	32802.6	31909.35
902.2761	1652.5181	32793.1	31905.05
902.4179	1654.2604	32725.85	31838.5
902.5598	1656.0019	32735.75	31845.5
902.7016	1657.7427	32728.7	31839.15
902.8434	1659.4828	32754.65	31866.1
902.9852	1661.222	32712.55	31822.35
903.127	1662.9606	32720.5	31832.55
903.2687	1664.6984	32565.45	31676.75
903.4105	1666.4354	32461.6	31570.45
903.5522	1668.1717	32167.05	31275.3
903.6939	1669.9072	31898.1	31006.55
903.8356	1671.642	31771.65	30881.25
903.9773	1673.3761	31618.6	30730.2
904.119	1675.1094	31456.1	30568.35
904.2606	1676.8419	31232.5	30343.55
904.4022	1678.5737	31136	30245.5
904.5439	1680.3048	31019.85	30129.5
904.6855	1682.0351	30870.55	29978.85
904.827	1683.7646	30688.9	29797.2
904.9686	1685.4934	30600.85	29711.65
905.1101	1687.2215	30403.45	29511.7
905.2517	1688.9488	30435.25	29547.65
905.3932	1690.6754	30117.1	29227.7
905.5347	1692.4012	30155.15	29267.1
905.6761	1694.1263	30124.8	29237.55
905.8176	1695.8506	29988.7	29101.75
905.9591	1697.5742	29913.55	29026.5
906.1005	1699.297	29791.1	28903.9
906.2419	1701.0191	29713	28827.55
906.3833	1702.7404	29573.4	28686.3
906.5246	1704.461	29424.85	28536.85
906.666	1706.1808	29370.8	28481.65
906.8073	1707.8999	29254.7	28366
906.9487	1709.6182	29200.4	28313.25
907.09	1711.3358	29149.05	28263.3
907.2313	1713.0527	29081.3	28198.45
907.3725	1714.7688	28999	28107.6
907.5138	1716.4841	28810.95	27922.5
907.655	1718.1987	28843.25	27951.45
907.7962	1719.9126	28752.95	27867.9
907.9374	1721.6257	28668.9	27781.1
908.0786	1723.338	28653.45	27768
908.2198	1725.0496	28486	27599.25
908.3609	1726.7605	28405.7	27519.2
908.502	1728.4706	28327.4	27439.9
908.6431	1730.18	28210.9	27323.55
908.7842	1731.8886	28183.45	27298.85
908.9253	1733.5964	28104	27214.35
909.0664	1735.3036	28112.8	27224.9
909.2074	1737.0099	28026.85	27142.4
909.3484	1738.7156	27931.95	27047.25
909.4894	1740.4204	27844.15	26955.35
909.6304	1742.1246	27855.75	26967.9
909.7714	1743.8279	27804.3	26920.25
909.9123	1745.5306	27787.05	26902.55
910.0532	1747.2325	27571.55	26687.6
910.1941	1748.9336	27522.9	26637.6
910.335	1750.634	27489.05	26604.4
910.4759	1752.3336	27429.1	26544.4
910.6168	1754.0325	27355.2	26471.15
910.7576	1755.7307	27366.2	26482.8
910.8984	1757.4281	27220.85	26334.05
911.0392	1759.1247	27316.45	26422.95
911.18	1760.8206	27094.8	26201.35
911.3208	1762.5158	27130.3	26240.4
911.4615	1764.2102	27037.1	26151.7
911.6022	1765.9039	26976.65	26089.2
911.7429	1767.5968	26914.9	26030.55
911.8836	1769.289	26823.85	25939.85
912.0243	1770.9804	26771.1	25883.85
912.1649	1772.6711	26773.1	25888.6
912.3056	1774.361	26645.1	25757.95
912.4462	1776.0502	26610.65	25722.55
912.5868	1777.7386	26469.2	25578.55
912.7274	1779.4263	26457.95	25572.75
912.8679	1781.1132	26439.75	25556.2
913.0084	1782.7994	26329.5	25441.65
913.149	1784.4849	26322.55	25437.4
913.2895	1786.1696	26181.85	25278.2
913.4299	1787.8535	26179.35	25293.5
913.5704	1789.5367	26092.05	25209.35
913.7108	1791.2192	26049.35	25164.15
913.8513	1792.9009	25942	25025.5
913.9917	1794.5818	25964	25077.15
914.132	1796.2621	25851.85	24967.5
914.2724	1797.9415	25789.9	24902.8
914.4128	1799.6202	25715.1	24830.15
914.5531	1801.2982	25705.45	24820.2
914.6934	1802.9755	25618.35	24733.6
914.8337	1804.6519	25541.8	24653.85
914.9739	1806.3277	25519	24633.45
915.1142	1808.0027	25348.35	24464
915.2544	1809.6769	25344.4	24461.75
915.3946	1811.3504	25339.95	24457
915.5348	1813.0231	25159.85	24274.4
915.675	1814.6951	25200.8	24317.95
915.8151	1816.3664	25175.45	24286.85
915.9553	1818.0369	25105.65	24221.85
916.0954	1819.7067	24985.3	24102.2
916.2355	1821.3757	25028.85	24139.55
916.3755	1823.044	24899	24012.6
916.5156	1824.7115	24823.75	23935.6
916.6556	1826.3783	24773.15	23887.2
916.7956	1828.0443	24668.6	23784.35
916.9356	1829.7096	24635.25	23749.5
917.0756	1831.3741	24603.75	23716.55
917.2155	1833.0379	24588.85	23705.4
917.3555	1834.701	24484.1	23600.15
917.4954	1836.3633	24442.85	23559.45
917.6353	1838.0248	24420.25	23535.05
917.7751	1839.6856	24391.3	23506.55
917.915	1841.3457	24321.85	23437.35
918.0548	1843.005	24330.3	23444.15
918.1946	1844.6636	24235.9	23350.35
918.3344	1846.3214	24125.1	23241.3
918.4742	1847.9785	24116.25	23232.65
918.6139	1849.6349	24059.9	23175.2
918.7537	1851.2904	24077.3	23181.55
918.8934	1852.9453	23943.25	23057.05
919.0331	1854.5994	23912.1	23024.15
919.1727	1856.2528	23909.05	23018.6
919.3124	1857.9054	23792.9	22907.3
919.452	1859.5572	23794.15	22911.1
919.5916	1861.2083	23778.7	22893.45
919.7312	1862.8587	23783.55	22896.9
919.8708	1864.5084	23633.65	22746.25
920.0103	1866.1572	23572.55	22687.7
920.1498	1867.8054	23520.7	22632.8
920.2893	1869.4528	23481.95	22594.9
920.4288	1871.0994	23401.4	22516.05
920.5683	1872.7453	23391.35	22505.3
920.7077	1874.3905	23351.95	22460.15
920.8471	1876.0349	23222.5	22335.15
920.9865	1877.6786	23219.05	22333.35
921.1259	1879.3215	23219.55	22334.7
921.2653	1880.9637	23178	22291.65
921.4046	1882.6051	23085.15	22200.65
921.5439	1884.2458	23023	22135.4
921.6832	1885.8858	22977.8	22094.3
921.8225	1887.525	22916.1	22030.15
921.9617	1889.1634	22787.85	21903.25
922.101	1890.8011	22741.4	21853.9
922.2402	1892.4381	22664.85	21778.95
922.3794	1894.0743	22731.25	21846.5
922.5185	1895.7098	22633.4	21749.3
922.6577	1897.3446	22581.95	21696.2
922.7968	1898.9786	22520.2	21630.8
922.9359	1900.6118	22479.45	21594.35
923.075	1902.2443	22311.75	21423.95
923.214	1903.8761	22337.85	21450.85
923.3531	1905.5071	22206.2	21320.65
923.4921	1907.1374	22147.2	21260.6
923.6311	1908.7669	22094.9	21210.45
923.77	1910.3957	22081.6	21198.85
923.909	1912.0237	21946.7	21062.55
924.0479	1913.651	21962.35	21077.75
924.1868	1915.2776	21862.7	20979
924.3257	1916.9034	21802.95	20920.1
924.4646	1918.5285	21667.55	20785.25
924.6034	1920.1528	21588.05	20702.5
924.7422	1921.7764	21587.1	20703.35
924.881	1923.3992	21462.15	20578.95
925.0198	1925.0213	21362	20477.75
925.1586	1926.6427	21289.25	20407.3
925.2973	1928.2633	21453.75	20320
925.436	1929.8832	21180.85	20291
925.5747	1931.5023	21090.6	20205.15
925.7134	1933.1207	21033.5	20146.6
925.852	1934.7383	21021.65	20138.4
925.9906	1936.3552	20944	20061.05
926.1292	1937.9714	20875.5	19992.15
926.2678	1939.5868	20767.8	19882.65
926.4064	1941.2015	20662.8	19777.05
926.5449	1942.8154	20641.9	19756.25
926.6834	1944.4286	20549.5	19665
926.8219	1946.041	20508.45	19601.05
926.9604	1947.6528	20408.6	19516.85
927.0988	1949.2637	20361.3	19475.95
927.2372	1950.8739	20248.35	19363.1
927.3756	1952.4834	20270	19385.75
927.514	1954.0921	20192.5	19306.5
927.6523	1955.7001	20096.65	19208.55
927.7907	1957.3074	20030.05	19145.95
927.929	1958.9139	19977.7	19095.25
928.0673	1960.5197	19930.6	19045.35
928.2055	1962.1247	19848.7	18964.85
928.3438	1963.729	19763.8	18880.6
928.482	1965.3325	19675.9	18770.6
928.6202	1966.9353	19630.2	18747.6
928.7584	1968.5374	19554.2	18668.95
928.8965	1970.1387	19517.25	18634.45
929.0346	1971.7393	19478.55	18596.25
929.1727	1973.3392	19373.25	18490.35
929.3108	1974.9383	19307.85	18426.2
929.4489	1976.5366	19200.4	18316.6
929.5869	1978.1342	19177.9	18293.5
929.7249	1979.7311	19139.95	18257.4
929.8629	1981.3273	19124.6	18240.25
930.0009	1982.9227	19035.1	18150.7
930.1388	1984.5173	18985.25	18104.75
930.2767	1986.1112	18890.75	18007.5
930.4146	1987.7044	18866.75	17986.55
930.5525	1989.2968	18819.55	17935.45
930.6904	1990.8885	18768.05	17885.05
930.8282	1992.4795	18750.25	17866.75
930.966	1994.0697	18704.55	17823.75
931.1038	1995.6592	18609.25	17726.25
931.2415	1997.2479	18532.3	17649.8
931.3793	1998.8359	18482.1	17600.45
931.517	2000.4232	18394.85	17514.4
931.6547	2002.0097	18359.7	17480.85
931.7923	2003.5955	18302.2	17423.1
931.93	2005.1805	18290.15	17407.1
932.0676	2006.7648	18216	17334.25
932.2052	2008.3484	18146.6	17265.3
932.3427	2009.9312	18167.5	17283.95
932.4803	2011.5133	18075.05	17196.85
932.6178	2013.0946	18043.3	17162.9
932.7553	2014.6752	17985.35	17105.2
932.8928	2016.2551	17921.05	17038.6
933.0302	2017.8342	17851.85	16972.25
933.1676	2019.4126	17769.85	16890.15
933.305	2020.9902	17701.65	16820.1
933.4424	2022.5672	17704.7	16823.7
933.5798	2024.1433	17679.5	16792.3
933.7171	2025.7188	17612.3	16734.25
933.8544	2027.2935	17554.2	16671.75
933.9917	2028.8674	17495.85	16616.1
934.129	2030.4406	17409.8	16529.9
934.2662	2032.0131	17371.3	16495.55
934.4034	2033.5849	17311.05	16423.55
934.5406	2035.1559	17261.9	16381.65
934.6778	2036.7261	17238.65	16358.15
934.8149	2038.2957	17191.9	16309.95
934.952	2039.8645	17158.55	16276.85
935.0891	2041.4325	17146.4	16260.25
935.2262	2042.9998	17056.4	16178.05
935.3632	2044.5664	17036	16154.85
935.5002	2046.1323	16989.1	16108.55
935.6372	2047.6974	16928.1	16047.65
935.7742	2049.2617	16909.15	16029.35
935.9111	2050.8254	16860.9	15977.05
936.048	2052.3883	16877.05	15995.35
936.1849	2053.9504	16784.15	15903.2
936.3218	2055.5118	16709.95	15828.8
936.4586	2057.0725	16636.35	15751.45
936.5955	2058.6325	16607.65	15727.5
936.7323	2060.1917	16540.8	15660
936.869	2061.7502	16537.5	15654.65
937.0058	2063.3079	16471.35	15591.45
937.1425	2064.8649	16470.7	15587.3
937.2792	2066.4212	16362.5	15482.3
937.4159	2067.9767	16315.6	15434.85
937.5525	2069.5315	16250.6	15369.5
937.6891	2071.0856	16212.5	15332.2
937.8257	2072.6389	16141.65	15259.55
937.9623	2074.1915	16077.6	15198
938.0989	2075.7433	16002.6	15120.4
938.2354	2077.2945	15986.8	15108.1
938.3719	2078.8448	15938.4	15058.15
938.5084	2080.3945	15907.95	15027.45
938.6448	2081.9434	15869.75	14987.55
938.7812	2083.4916	15832.7	14951.8
938.9176	2085.039	15739.25	14855.35
939.054	2086.5857	15727.9	14842.95
939.1903	2088.1317	15721.55	14838.1
939.3267	2089.677	15627.8	14743.7
939.463	2091.2215	15582.4	14699.45
939.5992	2092.7652	15545.45	14660.15
939.7355	2094.3083	15523.5	14640.3
939.8717	2095.8506	15500.65	14619.7
940.0079	2097.3921	15474.3	14592.1
940.1441	2098.933	15439.75	14560.2
940.2802	2100.4731	15382.6	14500.4
940.4163	2102.0124	15346.7	14446.75
940.5524	2103.5511	15341.65	14460.1
940.6885	2105.089	15307.75	14424.1
940.8245	2106.6261	15272.5	14391.8
940.9606	2108.1626	15234.1	14350.85
941.0965	2109.6983	15224.25	14313.7
941.2325	2111.2332	15171.6	14290.05
941.3684	2112.7675	15113.6	14228.55
941.5044	2114.301	15066.5	14182.2
941.6403	2115.8337	15072.15	14189.65
941.7761	2117.3657	14979.6	14098.45
941.912	2118.897	14974.3	14091.75
942.0478	2120.4276	14903.55	14014.75
942.1835	2121.9575	14843.85	13961.2
942.3193	2123.4866	14871.05	13975.3
942.455	2125.0149	14809.25	13922.85
942.5907	2126.5426	14710.9	13830.7
942.7264	2128.0695	14693.95	13807.75
942.8621	2129.5956	14651.5	13770.85
942.9977	2131.1211	14631.2	13745.4
943.1333	2132.6458	14607.65	13724.5
943.2689	2134.1698	14565.45	13680.6
943.4044	2135.693	14518.65	13635.3
943.54	2137.2155	14502.6	13616.3
943.6755	2138.7373	14468.9	13586.7
943.8109	2140.2584	14422.45	13539.95
943.9464	2141.7787	14350.45	13464.7
944.0818	2143.2983	14251.75	13371.9
944.2172	2144.8171	14206	13326.05
944.3526	2146.3353	14189.2	13306.55
944.4879	2147.8527	14147.95	13265.95
944.6232	2149.3693	14125.1	13243.6
944.7585	2150.8853	14080.7	13197.35
944.8938	2152.4005	14024.8	13141.65
945.029	2153.9149	13997.9	13115.9
945.1642	2155.4287	13963.75	13080.4
945.2994	2156.9417	13943.15	13059.05
945.4346	2158.454	13904.25	13019.85
945.5697	2159.9655	13856.65	12976.2
945.7048	2161.4764	13828.45	12946.65
945.8399	2162.9865	13788.35	12906.9
945.9749	2164.4958	13762.55	12879.55
946.1099	2166.0045	13687.95	12802.35
946.2449	2167.5124	13687.75	12807.6
946.3799	2169.0195	13632.25	12749.35
946.5148	2170.526	13618.45	12735.9
946.6498	2172.0317	13570	12687.3
946.7846	2173.5367	13536	12654.25
946.9195	2175.0409	13496.05	12614.7
947.0543	2176.5445	13530.9	12648.55
947.1891	2178.0473	13441.95	12558.85
947.3239	2179.5494	13399.9	12514.2
947.4587	2181.0507	13341.65	12459.75
947.5934	2182.5513	13293.65	12410.25
947.7281	2184.0512	13301.7	12418.35
947.8628	2185.5504	13246	12364.65
947.9974	2187.0488	13130.55	12250.55
948.132	2188.5465	13091.9	12208.95
948.2666	2190.0435	13036.75	12153.65
948.4012	2191.5397	13056.3	12173.85
948.5357	2193.0353	13013.5	12131.8
948.6702	2194.5301	12938.05	12052.85
948.8047	2196.0241	12891.65	12006.95
948.9392	2197.5175	12882.35	11996.45
949.0736	2199.0101	12810.65	11921.8
949.208	2200.502	12756.55	11874.9
949.3424	2201.9931	12708.55	11825.95
949.4767	2203.4835	12642.5	11759.95
949.611	2204.9733	12633.3	11746.9
949.7453	2206.4622	12635.75	11756.75
949.8796	2207.9505	12568	11682.35
950.0138	2209.438	12505.75	11625.55
950.148	2210.9248	12447.35	11565.55
950.2822	2212.4109	12418.5	11536.8
950.4164	2213.8962	12388.3	11502.4
950.5505	2215.3809	12374.95	11487.7
950.6846	2216.8648	12342.75	11458.1
950.8186	2218.3479	12345.8	11455.8
950.9527	2219.8304	12257.55	11370
951.0867	2221.3121	12192.75	11308.5
951.2207	2222.7931	12178.85	11295.3
951.3546	2224.2733	12103.45	11221.45
951.4886	2225.7529	12073.9	11191.7
951.6225	2227.2317	12046.15	11161.3
951.7563	2228.7098	12040.45	11159.65
951.8902	2230.1872	11965.5	11083.75
952.024	2231.6638	11976.9	11093.3
952.1578	2233.1397	11931.15	11044
952.2916	2234.6149	11916.95	11037
952.4253	2236.0894	11869	10986.45
952.559	2237.5632	11853.85	10961.65
952.6927	2239.0362	11771.9	10891.25
952.8263	2240.5085	11749.9	10867.9
952.9599	2241.9801	11723.05	10840.15
953.0935	2243.4509	11685.95	10803.35
953.2271	2244.921	11616.45	10733.9
953.3606	2246.3904	11584.15	10697.75
953.4941	2247.8591	11531.4	10649.1
953.6276	2249.3271	11526.8	10644.3
953.7611	2250.7943	11482	10597.25
953.8945	2252.2608	11432.6	10550.15
954.0279	2253.7266	11407.65	10523.2
954.1612	2255.1917	11399.15	10517.8
954.2946	2256.656	11313.9	10428.95
954.4279	2258.1197	11268.35	10387.8
954.5612	2259.5826	11266.35	10382.95
954.6944	2261.0447	11268.45	10383.5
954.8276	2262.5062	11186.7	10301.25
954.9608	2263.9669	11190.2	10306.35
955.094	2265.4269	11186	10306.05
955.2271	2266.8862	11150.25	10267.6
955.3602	2268.3448	11119.8	10235.85
955.4933	2269.8026	11068.85	10186.4
955.6264	2271.2598	11025.4	10142.95
955.7594	2272.7162	10999.3	10116.45
955.8924	2274.1719	10952.4	10069.15
956.0253	2275.6268	10957.1	10074.2
956.1583	2277.0811	10940.6	10057.85
956.2912	2278.5346	10876.2	9993.75
956.4241	2279.9874	10862.9	9980.3
956.5569	2281.4395	10845.95	9964.2
956.6897	2282.8908	10790.25	9904.7
956.8225	2284.3414	10789.6	9904.7
956.9553	2285.7914	10733.55	9852.5
957.088	2287.2406	10712.4	9827.55
957.2207	2288.689	10665.45	9783.1
957.3534	2290.1368	10644.05	9758.1
957.486	2291.5838	10617.55	9730.75
957.6186	2293.0302	10580.35	9694.7
957.7512	2294.4758	10549.6	9664.25
957.8838	2295.9206	10496.45	9610.6
958.0163	2297.3648	10474.4	9593.05
958.1488	2298.8082	10466.45	9581.6
958.2813	2300.251	10446.5	9564.2
958.4137	2301.693	10377.8	9491.2
958.5461	2303.1343	10391.85	9507.75
958.6785	2304.5748	10357.15	9474.7
958.8108	2306.0147	10310.75	9427.1
958.9432	2307.4538	10293	9407.95
959.0754	2308.8922	10255.2	9376.05
959.2077	2310.3299	10203.25	9321.05
959.3399	2311.7669	10185.55	9301.75
959.4721	2313.2031	10127.85	9244.25
959.6043	2314.6387	10111.4	9227.45
959.7365	2316.0735	10081.75	9199.4
959.8686	2317.5076	10100.45	9216.9
960.0006	2318.941	10045.25	9162.3
960.1327	2320.3737	10027.8	9145.7
960.2647	2321.8056	9995.85	9112.1
960.3967	2323.2369	9973.65	9087.7
960.5287	2324.6674	9937.15	9053.85
960.6606	2326.0972	9901.25	9016.3
960.7925	2327.5263	9869.25	8987.45
960.9244	2328.9547	9833.3	8947.8
961.0562	2330.3823	9796	8910.05
961.1881	2331.8092	9810.45	8923.25
961.3198	2333.2355	9732.75	8846.85
961.4516	2334.661	9732	8848.9
961.5833	2336.0858	9697.45	8811.35
961.715	2337.5098	9709.2	8825.15
961.8467	2338.9332	9674.8	8791.05
961.9783	2340.3558	9638.95	8753
962.1099	2341.7778	9601.1	8719
962.2415	2343.199	9581.55	8695.45
962.373	2344.6195	9537.55	8656.55
962.5045	2346.0393	9515.25	8632.75
962.636	2347.4583	9486.7	8601.8
962.7675	2348.8767	9481	8597.25
962.8989	2350.2943	9445.75	8561.9
963.0303	2351.7113	9429.15	8543.85
963.1617	2353.1275	9389.3	8504.75
963.293	2354.543	9352.85	8458.55
963.4243	2355.9578	9350.35	8466.9
963.5556	2357.3718	9282.35	8400.25
963.6868	2358.7852	9265.25	8379.8
963.818	2360.1978	9215.5	8332.85
963.9492	2361.6098	9188.2	8305
964.0803	2363.021	9160	8272.6
964.2114	2364.4315	9131.95	8248.3
964.3425	2365.8413	9128.15	8242.8
964.4736	2367.2504	9081.1	8200.2
964.6046	2368.6587	9031.95	8148.55
964.7356	2370.0664	9000.25	8117.6
964.8666	2371.4733	9001.9	8117.1
964.9975	2372.8795	8972.3	8088.5
965.1284	2374.285	8923.7	8039.75
965.2593	2375.6899	8872.15	7990.05
965.3901	2377.0939	8842	7958.95
965.5209	2378.4973	8827.7	7945.65
965.6517	2379.9	8783.7	7900.9
965.7825	2381.3019	8771.65	7890.85
965.9132	2382.7032	8731.9	7849.15
966.0439	2384.1037	8721.65	7841.6
966.1745	2385.5035	8691.65	7810.1
966.3051	2386.9027	8668.05	7787.8
966.4357	2388.3011	8644.8	7758.15
966.5663	2389.6987	8627.65	7744.45
966.6968	2391.0957	8601.35	7719.55
966.8273	2392.492	8547.55	7666.15
966.9578	2393.8876	8491.3	7609.55
967.0882	2395.2824	8461.4	7579
967.2186	2396.6765	8466.9	7585.25
967.349	2398.07	8414.35	7532.25
967.4793	2399.4627	8375.95	7492
967.6097	2400.8547	8355.6	7472.1
967.7399	2402.246	8368.9	7479.5
967.8702	2403.6366	8300.25	7416.75
968.0004	2405.0265	8255.3	7373.25
968.1306	2406.4156	8239.5	7353.5
968.2607	2407.8041	8222.15	7336.15
968.3909	2409.1918	8185.55	7300.85
968.521	2410.5789	8140.5	7258.2
968.651	2411.9652	8136.85	7249.45
968.781	2413.3508	8096.3	7213.5
968.911	2414.7358	8100.25	7215.3
969.041	2416.12	8043.3	7161.95
969.1709	2417.5035	8026.6	7144.1
969.3008	2418.8863	7969.95	7086.25
969.4307	2420.2684	7962.25	7079.05
969.5606	2421.6497	7929.4	7043.75
969.6904	2423.0304	7882.05	6999.1
969.8201	2424.4104	7891.7	7008.4
969.9499	2425.7896	7871.05	6986.3
970.0796	2427.1682	7839.55	6957
970.2093	2428.546	7808.65	6924.4
970.3389	2429.9232	7774.65	6890.8
970.4685	2431.2996	7780.2	6897.6
970.5981	2432.6753	7764.95	6880.25
970.7277	2434.0503	7740.85	6857
970.8572	2435.4246	7708.5	6827.3
970.9867	2436.7982	7682.85	6795.05
971.1161	2438.1711	7662.6	6781.05
971.2456	2439.5433	7645.3	6761.35
971.375	2440.9148	7586.95	6698.95
971.5043	2442.2856	7559.3	6674.55
971.6336	2443.6557	7558.8	6675.75
971.7629	2445.025	7526.8	6643.45
971.8922	2446.3937	7526.15	6641.45
972.0214	2447.7617	7492.05	6609.3
972.1506	2449.1289	7481.15	6598.55
972.2798	2450.4955	7456.1	6567.85
972.4089	2451.8613	7449.25	6567.6
972.538	2453.2265	7413.85	6527.95
972.6671	2454.5909	7417.8	6532.5
972.7961	2455.9546	7382.15	6497.85
972.9251	2457.3177	7346.75	6464.7
973.0541	2458.68	7312.6	6427.45
973.1831	2460.0416	7302.95	6420.7
973.312	2461.4025	7291.9	6408.65
973.4408	2462.7627	7275.45	6379.8
973.5697	2464.1222	7252.6	6371.1
973.6985	2465.4811	7238.3	6354.1
973.8273	2466.8392	7211.85	6327.8
973.956	2468.1966	7202.4	6315.7
974.0847	2469.5533	7179.8	6295.95
974.2134	2470.9093	7165.8	6281.35
974.3421	2472.2645	7150.3	6266.9
974.4707	2473.6191	7115.3	6232.2
974.5993	2474.973	7083.95	6199.85
974.7278	2476.3262	7067.45	6181.35
974.8563	2477.6787	7034	6151.35
974.9848	2479.0305	7010.85	6126.3
975.1132	2480.3816	6986.75	6101.45
975.2417	2481.7319	6971.5	6089.65
975.37	2483.0816	6939.25	6055.3
975.4984	2484.4306	6916.9	6034.85
975.6267	2485.7789	6900.65	6020.5
975.755	2487.1264	6878.05	5994.2
975.8833	2488.4733	6846.5	5965.55
976.0115	2489.8195	6837	5946.2
976.1397	2491.165	6795.3	5911.05
976.2678	2492.5097	6759.9	5874.55
976.3959	2493.8538	6732.1	5850.15
976.524	2495.1972	6718.65	5836.2
976.6521	2496.5398	6687.7	5805
976.7801	2497.8818	6680.65	5794.4
976.9081	2499.2231	6675.55	5794
977.036	2500.5637	6651.7	5764.6
977.164	2501.9035	6625.05	5741.7
977.2918	2503.2427	6622.7	5735.1
977.4197	2504.5812	6595.2	5712.25
977.5475	2505.919	6580.05	5694.35
977.6753	2507.256	6554.6	5669.95
977.8031	2508.5924	6507.5	5623
977.9308	2509.9281	6498.05	5609.55
978.0585	2511.2631	6498.3	5616.65
978.1861	2512.5974	6488.8	5606.9
978.3137	2513.9309	6431.05	5548.95
978.4413	2515.2638	6433.9	5521.7
978.5689	2516.596	6424	5541.4
978.6964	2517.9275	6395.1	5511.85
978.8239	2519.2583	6342.05	5458.15
978.9513	2520.5884	6334.9	5449.9
979.0788	2521.9178	6309.7	5427.35
979.2062	2523.2465	6299.05	5417.95
979.3335	2524.5745	6260.2	5378.85
979.4608	2525.9018	6248.45	5365
979.5881	2527.2284	6246.6	5364.25
979.7154	2528.5543	6217.5	5335.15
979.8426	2529.8796	6191.7	5309.3
979.9698	2531.2041	6197.35	5313.1
980.0969	2532.5279	6172.05	5291.3
980.224	2533.851	6157.7	5274.5
980.3511	2535.1735	6125.65	5242.9
980.4781	2536.4952	6116.55	5233.15
980.6052	2537.8163	6122.95	5239.85
980.7321	2539.1366	6097.7	5214.95
980.8591	2540.4562	6075.95	5192.65
980.986	2541.7752	6057.9	5174.9
981.1129	2543.0935	6052.8	5170.7
981.2397	2544.411	6042.7	5160
981.3665	2545.7279	6024.6	5139.75
981.4933	2547.0441	6030.2	5147.2
981.62	2548.3596	6028.6	5142.5
981.7467	2549.6744	6011.9	5127.2
981.8734	2550.9885	5970.35	5079.7
982.0001	2552.3019	5960.3	5079
982.1267	2553.6146	5931.4	5047.2
982.2532	2554.9266	5917.7	5034
982.3798	2556.2379	5899.25	5015.7
982.5063	2557.5485	5908.85	5025.9
982.6327	2558.8585	5896.95	5008.75
982.7592	2560.1677	5860.95	4973.2
982.8856	2561.4762	5847.9	4966.35
983.0119	2562.7841	5862.1	4975.2
983.1383	2564.0913	5869.15	4987.2
983.2646	2565.3977	5840.1	4960.1
983.3908	2566.7035	5826.15	4943.1
983.517	2568.0086	5796.75	4911
983.6432	2569.313	5802.65	4918.75
983.7694	2570.6167	5782.9	4896.3
983.8955	2571.9197	5784	4901.25
984.0216	2573.222	5782.55	4894.65
984.1476	2574.5236	5752.7	4868.2
984.2737	2575.8246	5741.2	4856.6
984.3996	2577.1248	5721.6	4836.15
984.5256	2578.4244	5715.55	4834.3
984.6515	2579.7232	5703.25	4819.4
984.7774	2581.0214	5721.1	4814.45
984.9032	2582.3189	5683.6	4800.8
985.029	2583.6157	5666.7	4780.45
985.1548	2584.9118	5668.4	4785.9
985.2806	2586.2072	5655.75	4772.95
985.4063	2587.5019	5620.8	4738.15
985.5319	2588.7959	5591.4	4707.6
985.6576	2590.0893	5614.3	4731.05
985.7832	2591.3819	5582.7	4699
985.9087	2592.6739	5553.65	4672.65
986.0343	2593.9652	5553.15	4669.3
986.1597	2595.2557	5519.15	4635.8
986.2852	2596.5456	5513.8	4627.5
986.4106	2597.8348	5490.5	4608.95
986.536	2599.1234	5479.75	4599.1
986.6614	2600.4112	5437.15	4551.75
986.7867	2601.6983	5443	4557.15
986.912	2602.9848	5423.5	4539.4
987.0372	2604.2705	5396.25	4506.15
987.1624	2605.5556	5377.9	4494.95
987.2876	2606.84	5358	4476.1
987.4128	2608.1237	5339.15	4455.95
987.5379	2609.4067	5328.45	4446.7
987.6629	2610.689	5310.2	4418.75
987.788	2611.9707	5299.45	4413.85
987.913	2613.2516	5277.05	4389.95
988.0379	2614.5319	5251.65	4370.3
988.1629	2615.8115	5232.8	4348.15
988.2878	2617.0903	5198.3	4313.2
988.4126	2618.3685	5183.95	4300.35
988.5375	2619.6461	5183.45	4299.75
988.6622	2620.9229	5165.85	4283
988.787	2622.199	5154.5	4271.2
988.9117	2623.4745	5149.05	4265.7
989.0364	2624.7493	5128.85	4248.25
989.161	2626.0234	5105.65	4223.2
989.2857	2627.2968	5080.85	4198.15
989.4102	2628.5695	5068.95	4185.15
989.5348	2629.8415	5039.1	4157.9
989.6593	2631.1128	5029.75	4145.9
989.7837	2632.3835	5014.2	4132.25
989.9082	2633.6535	4970.6	4088.6
990.0326	2634.9228	4976.15	4094.35
990.1569	2636.1914	4970.4	4088.55
990.2812	2637.4593	4958.75	4071.2
990.4055	2638.7265	4922.6	4039.65
990.5298	2639.9931	4926	4041.75
990.654	2641.259	4908.1	4024.7
990.7782	2642.5242	4897.1	4013.45
990.9023	2643.7887	4885.9	4001.45
991.0264	2645.0525	4853.05	3969.35
991.1505	2646.3156	4852	3968.25
991.2745	2647.5781	4846.45	3964.3
991.3985	2648.8398	4812.45	3929.5
991.5225	2650.1009	4829	3909.25
991.6464	2651.3613	4804.8	3922.9
991.7703	2652.6211	4790.8	3908.25
991.8942	2653.8801	4755	3873.85
992.018	2655.1385	4750.55	3864.35
992.1418	2656.3961	4744.1	3863.65
992.2655	2657.6531	4758.6	3875.35
992.3892	2658.9094	4730.95	3845.65
992.5129	2660.1651	4718.45	3837.55
992.6366	2661.42	4713.15	3832.35
992.7602	2662.6743	4705.9	3823.25
992.8837	2663.9279	4698.05	3815.6
993.0073	2665.1808	4692.15	3810.4
993.1307	2666.433	4672.95	3789.05
993.2542	2667.6846	4627.6	3746.25
993.3776	2668.9354	4636.9	3751.05
993.501	2670.1856	4618.65	3734.3
993.6244	2671.4351	4633.55	3751.35
993.7477	2672.6839	4619.6	3735.9
993.8709	2673.9321	4599.25	3717.7
993.9942	2675.1795	4569.85	3688.35
994.1174	2676.4263	4554	3672.25
994.2405	2677.6724	4543.35	3662.15
994.3637	2678.9179	4546.8	3665.35
994.4868	2680.1626	4533.95	3652.7
994.6098	2681.4067	4519.25	3635
994.7328	2682.6501	4492.6	3610.55
994.8558	2683.8928	4493.6	3611.05
994.9788	2685.1348	4463.25	3582.8
995.1017	2686.3761	4462.15	3581.65
995.2245	2687.6168	4456.7	3573.65
995.3474	2688.8568	4438.2	3556.85
995.4702	2690.0961	4419.35	3538.3
995.5929	2691.3348	4413.5	3529.25
995.7156	2692.5727	4406.3	3525.55
995.8383	2693.81	4380.45	3497.7
995.961	2695.0466	4359.1	3478.9
996.0836	2696.2826	4371.9	3488.65
996.2062	2697.5178	4376.5	3476.15
996.3287	2698.7524	4337.65	3454.5
996.4512	2699.9863	4333.8	3450.4
996.5737	2701.2195	4313.25	3432.4
996.6961	2702.452	4300.4	3416.75
996.8185	2703.6839	4296.2	3414.55
996.9408	2704.9151	4291.9	3408.7
997.0631	2706.1456	4267.35	3385.25
997.1854	2707.3755	4249.4	3366.05
997.3077	2708.6046	4260.95	3378.8
997.4299	2709.8331	4243.6	3360.65
997.552	2711.0609	4225.35	3344.25
997.6742	2712.2881	4208.5	3325
997.7963	2713.5145	4190.15	3306.3
997.9183	2714.7403	4194.25	3312.5
998.0403	2715.9654	4181.05	3297.1
998.1623	2717.1899	4174.3	3290.85
998.2842	2718.4136	4167.7	3285.7
998.4062	2719.6367	4147.35	3265.05
998.528	2720.8591	4142.35	3253.35
998.6498	2722.0809	4123.4	3240.2
998.7716	2723.3019	4123.3	3238.9
998.8934	2724.5223	4111.05	3226.4
999.0151	2725.7421	4110.35	3227.4
999.1368	2726.9611	4093.6	3208.8
999.2584	2728.1795	4074.7	3188.65
999.38	2729.3972	4062.1	3182.3
999.5016	2730.6142	4049.2	3157.55
999.6231	2731.8306	4024.05	3138.65
999.7446	2733.0462	4014	3128.7
999.8661	2734.2612	3995.35	3106.2
999.9875	2735.4756	3969.35	3086.1
1000.1089	2736.6892	3941.25	3057.4
1000.2302	2737.9022	3933.05	3052.65
1000.3515	2739.1145	3911	3028.7
1000.4728	2740.3262	3909.35	3020.7
1000.594	2741.5372	3890.9	3010.9
1000.7152	2742.7475	3872.5	2990.4
1000.8363	2743.9571	3861.15	2979.45
1000.9575	2745.1661	3843.9	2956.45
1001.0785	2746.3744	3847.2	2964.3
1001.1996	2747.582	3823.85	2943.85
1001.3206	2748.7889	3806.25	2922.5
1001.4415	2749.9952	3799	2916.55
1001.5625	2751.2008	3786.6	2903.75
1001.6833	2752.4057	3785.25	2900.2
1001.8042	2753.61	3760.85	2877.8
1001.925	2754.8136	3745.2	2862.65
1002.0458	2756.0165	3745.2	2863.8
1002.1665	2757.2188	3735.1	2855
1002.2872	2758.4204	3719.35	2838.7
1002.4078	2759.6213	3706.75	2821.05
1002.5285	2760.8215	3703	2816.8
1002.649	2762.0211	3678.2	2793.25
1002.7696	2763.22	3666.5	2780.1
1002.8901	2764.4182	3675.85	2792.25
1003.0106	2765.6158	3663.3	2780.05
1003.131	2766.8127	3650.45	2770
1003.2514	2768.009	3625.1	2741.45
1003.3717	2769.2045	3620.65	2736.95
1003.492	2770.3994	3626.9	2744.15
1003.6123	2771.5936	3611.15	2729.15
1003.7325	2772.7872	3601.25	2720.65
1003.8527	2773.9801	3571.05	2689
1003.9729	2775.1723	3570.45	2669.55
1004.093	2776.3639	3556.4	2676.5
1004.2131	2777.5548	3537.6	2653.15
1004.3331	2778.745	3547.6	2663.3
1004.4531	2779.9346	3530.45	2649.4
1004.5731	2781.1235	3523.95	2639.85
1004.693	2782.3117	3525.3	2643.85
1004.8129	2783.4992	3510.35	2630.35
1004.9328	2784.6861	3488	2608.85
1005.0526	2785.8723	3486	2605.4
1005.1723	2787.0579	3481.2	2599.65
1005.2921	2788.2428	3462.75	2580.55
1005.4118	2789.427	3458.25	2577.45
1005.5314	2790.6106	3454.4	2571.05
1005.651	2791.7935	3440.85	2557.1
1005.7706	2792.9757	3413.6	2534.3
1005.8902	2794.1573	3418.4	2536.1
1006.0097	2795.3382	3415.25	2533.75
1006.1291	2796.5184	3411.4	2530.5
1006.2485	2797.698	3393.6	2512.7
1006.3679	2798.8769	3388.9	2507.95
1006.4873	2800.0551	3392.5	2510.65
1006.6066	2801.2327	3377.6	2493.8
1006.7258	2802.4096	3373.05	2493.65
1006.8451	2803.5859	3372.75	2490.4
1006.9642	2804.7615	3384.05	2501
1007.0834	2805.9364	3366.5	2485.45
1007.2025	2807.1106	3353.85	2471.3
1007.3216	2808.2842	3365.55	2483.85
1007.4406	2809.4572	3364.45	2484.45
1007.5596	2810.6294	3365.75	2483.95
1007.6785	2811.801	3382.45	2504.2
1007.7975	2812.972	3380.4	2500.4
1007.9163	2814.1423	3373.5	2493.7
1008.0352	2815.3119	3403.95	2522.15
1008.154	2816.4808	3388.95	2509.1
1008.2727	2817.6491	3416.75	2535.15
1008.3914	2818.8167	3421.9	2541.3
1008.5101	2819.9837	3446.6	2560.6
1008.6288	2821.15	3445.75	2563.9
1008.7474	2822.3157	3459.4	2579.05
1008.8659	2823.4807	3487.2	2606.4
1008.9844	2824.645	3514.85	2631.95
1009.1029	2825.8086	3519.2	2638.15
1009.2214	2826.9716	3518.55	2638.05
1009.3398	2828.134	3548.7	2668.25
1009.4581	2829.2957	3558.1	2677.35
1009.5764	2830.4567	3546.8	2667.25
1009.6947	2831.617	3554.75	2674.5
1009.813	2832.7767	3564.05	2683.95
1009.9312	2833.9358	3564.3	2683.55
1010.0493	2835.0941	3548.7	2665.4
1010.1675	2836.2519	3536.6	2655.35
1010.2855	2837.4089	3508.55	2627.6
1010.4036	2838.5653	3510.85	2630.35
1010.5216	2839.7211	3500.8	2621.3
1010.6396	2840.8761	3494.05	2612.8
1010.7575	2842.0306	3492.9	2613.65
1010.8754	2843.1843	3488.7	2607.65
1010.9932	2844.3374	3497.2	2617.95
1011.111	2845.4899	3520.6	2638.6
1011.2288	2846.6417	3535.05	2656.4
1011.3465	2847.7928	3537.2	2657.1
1011.4642	2848.9433	3566.05	2685.4
1011.5818	2850.0931	3589.55	2707.9
1011.6995	2851.2422	3602.65	2720.85
1011.817	2852.3907	3627.65	2744.3
1011.9345	2853.5385	3651.4	2767.8
1012.052	2854.6857	3661.85	2768.6
1012.1695	2855.8323	3664.6	2784.95
1012.2869	2856.9781	3672.35	2791.65
1012.4042	2858.1233	3686.8	2805.45
1012.5216	2859.2679	3692.05	2810.6
1012.6389	2860.4118	3690.7	2811.25
1012.7561	2861.555	3707.3	2821.75
1012.8733	2862.6976	3714.65	2831.1
1012.9905	2863.8395	3725.4	2843.95
1013.1076	2864.9808	3732.75	2854.15
1013.2247	2866.1214	3724.3	2845.55
1013.3417	2867.2614	3731.7	2850.15
1013.4587	2868.4007	3713.1	2830.95
1013.5757	2869.5393	3721.9	2838.35
1013.6926	2870.6773	3719.1	2835.15
1013.8095	2871.8146	3733.85	2850.4
1013.9263	2872.9513	3715.5	2832.25
1014.0431	2874.0874	3696.25	2814.7
1014.1599	2875.2227	3682.5	2801.3
1014.2766	2876.3574	3655.4	2774.75
1014.3933	2877.4915	3630.65	2750.25
1014.51	2878.6249	3631.3	2752
1014.6266	2879.7577	3602.55	2721.8
1014.7431	2880.8898	3611.2	2720.25
1014.8596	2882.0212	3596.55	2718.45
1014.9761	2883.152	3570.05	2688.95
1015.0925	2884.2821	3550.25	2672.35
1015.2089	2885.4116	3546.85	2666.9
1015.3253	2886.5405	3539.4	2660
1015.4416	2887.6686	3534.85	2651.4
1015.5579	2888.7962	3530.1	2652.5
1015.6741	2889.923	3514.3	2635
1015.7903	2891.0493	3509.45	2628.25
1015.9065	2892.1748	3516.25	2636.75
1016.0226	2893.2997	3512.95	2630.3
1016.1387	2894.424	3510.3	2630.45
1016.2547	2895.5476	3496.95	2617.65
1016.3707	2896.6706	3514.6	2635.9
1016.4866	2897.7929	3495.95	2613.55
1016.6025	2898.9145	3510.05	2630.45
1016.7184	2900.0355	3514.4	2633.15
1016.8342	2901.1559	3524.15	2643.35
1016.95	2902.2756	3535.25	2655.7
1017.0658	2903.3946	3521.35	2641.65
1017.1815	2904.513	3524.75	2641.9
1017.2971	2905.6308	3535.55	2655.55
1017.4127	2906.7479	3532.05	2651.4
1017.5283	2907.8643	3535	2652.75
1017.6439	2908.9801	3529.95	2651.45
1017.7594	2910.0953	3516	2635.9
1017.8748	2911.2098	3523.5	2637.45
1017.9902	2912.3236	3515.45	2627.75
1018.1056	2913.4368	3497.45	2612.2
1018.2209	2914.5494	3482	2600.5
1018.3362	2915.6613	3455	2567.75
1018.4515	2916.7725	3448.45	2567.9
1018.5667	2917.8831	3432.15	2550.95
1018.6819	2918.9931	3411	2528.65
1018.797	2920.1024	3407.5	2526.25
1018.9121	2921.211	3379.85	2500.5
1019.0271	2922.319	3350	2471.05
1019.1421	2923.4264	3361.35	2481.2
1019.2571	2924.5331	3348.35	2468.95
1019.372	2925.6391	3333.3	2456.15
1019.4869	2926.7445	3327.4	2449.4
1019.6017	2927.8493	3321.7	2439.8
1019.7165	2928.9534	3316.75	2437.1
1019.8313	2930.0569	3314.4	2430.9
1019.946	2931.1597	3316.85	2435.95
1020.0606	2932.2619	3309.1	2429.15
1020.1753	2933.3634	3298.15	2419.25
1020.2899	2934.4643	3308.05	2420.45
1020.4044	2935.5645	3299.55	2413.4
1020.5189	2936.6641	3281.55	2398.7
1020.6334	2937.763	3255.35	2376.55
1020.7478	2938.8613	3239.75	2358.15
1020.8622	2939.959	3213.3	2329.4
1020.9765	2941.056	3174.3	2296.35
1021.0908	2942.1523	3134.5	2253.15
1021.2051	2943.248	3108.15	2228.15
1021.3193	2944.3431	3057.95	2177.25
1021.4334	2945.4375	3020.45	2139.15
1021.5476	2946.5313	2977.35	2097.3
1021.6617	2947.6244	2927.55	2047.2
1021.7757	2948.7169	2891.45	2008.05
1021.8897	2949.8087	2838.65	1957.2
1022.0037	2950.8999	2809.25	1929.55
1022.1176	2951.9904	2769.25	1888.95
1022.2315	2953.0803	2736.95	1855.2
1022.3453	2954.1696	2708.6	1830.1
1022.4591	2955.2582	2683	1802.55
1022.5728	2956.3462	2660.55	1780
1022.6865	2957.4335	2621.8	1738.8
1022.8002	2958.5202	2623.95	1740
1022.9138	2959.6062	2601.95	1723.45
1023.0274	2960.6916	2580.7	1702.15
1023.141	2961.7764	2571.45	1689.5
1023.2545	2962.8605	2553.25	1673.95
1023.3679	2963.9439	2543.8	1665.9
1023.4813	2965.0267	2532.1	1651.5
1023.5947	2966.1089	2550.95	1649.45
1023.708	2967.1905	2514.15	1635.75
1023.8213	2968.2714	2502.65	1620.4
1023.9346	2969.3516	2500.15	1619.1
1024.0478	2970.4312	2510.65	1625.05
1024.1609	2971.5102	2496.15	1616.95
1024.274	2972.5885	2492.55	1616.15
1024.3871	2973.6662	2496.3	1612.9
1024.5002	2974.7432	2483.1	1604.5
1024.6132	2975.8196	2473.55	1592.7
1024.7261	2976.8954	2463.15	1583.95
1024.839	2977.9705	2455.2	1574.4
1024.9519	2979.045	2447.7	1568.1
1025.0647	2980.1188	2438.1	1556.7
1025.1775	2981.192	2431.45	1553.05
1025.2902	2982.2645	2419.15	1538.35
1025.4029	2983.3364	2388.95	1508.05
1025.5156	2984.4077	2374.95	1495.55
1025.6282	2985.4783	2370.2	1486.55
1025.7407	2986.5483	2355.55	1477.5
1025.8532	2987.6177	2332.05	1451.95
1025.9657	2988.6864	2320.05	1437.3
1026.0782	2989.7545	2314.25	1432.7
1026.1906	2990.8219	2284.6	1404.8
1026.3029	2991.8887	2271.7	1391.15
1026.4152	2992.9548	2256.1	1375.1
1026.5275	2994.0204	2234.05	1355.55
1026.6397	2995.0852	2223.15	1346.1
1026.7519	2996.1495	2202.1	1322.1
1026.864	2997.2131	2179.95	1299.05
1026.9761	2998.276	2175.55	1297.55
1027.0882	2999.3383	2167.25	1287
1027.2002	3000.4	2156.2	1276.75
1027.3122	3001.4611	2138.05	1257.9
1027.4241	3002.5215	2133.35	1252
1027.536	3003.5812	2111.15	1231.55
1027.6478	3004.6404	2108.35	1228.3
1027.7596	3005.6989	2102.5	1219.45
1027.8714	3006.7567	2095.2	1216.25
1027.9831	3007.8139	2111.1	1200.15
1028.0947	3008.8705	2071.3	1193.1
1028.2064	3009.9264	2078.2	1193.95
1028.3179	3010.9818	2064.6	1185.05
1028.4295	3012.0364	2061	1180.55
1028.541	3013.0905	2051.3	1171.7
1028.6524	3014.1439	2041.55	1161.55
1028.7638	3015.1966	2047.3	1167.65
1028.8752	3016.2487	2027.65	1149.4
1028.9865	3017.3002	2023.25	1141
1029.0978	3018.3511	2026	1147.85
1029.209	3019.4013	2018.05	1139.55
1029.3202	3020.4509	2014.25	1134.6
1029.4314	3021.4998	2001.55	1121.2
1029.5425	3022.5481	1994	1114.95
1029.6535	3023.5958	1995.45	1115.55
1029.7645	3024.6428	1992.8	1112.7
1029.8755	3025.6892	1988.7	1109.2
1029.9864	3026.735	1980	1101.1
1030.0973	3027.7802	1978.05	1098
1030.2082	3028.8247	1973.2	1093.85
1030.319	3029.8685	1953.55	1073.35
1030.4297	3030.9118	1957.8	1076.1
1030.5404	3031.9544	1953.55	1074.8
1030.6511	3032.9963	1956.35	1078.1
1030.7617	3034.0376	1960.5	1080.95
1030.8723	3035.0783	1956.05	1073.6
1030.9829	3036.1184	1951.2	1069.35
1031.0934	3037.1578	1951	1073.1
1031.2038	3038.1966	1948.2	1068.95
1031.3142	3039.2348	1935.9	1058
1031.4246	3040.2723	1944.45	1057
1031.5349	3041.3092	1930.5	1053.1
1031.6452	3042.3455	1936.65	1055.95
1031.7554	3043.3811	1918.35	1038.25
1031.8656	3044.4161	1921.1	1040.35
1031.9758	3045.4505	1906.85	1029.75
1032.0859	3046.4842	1907	1027.3
1032.1959	3047.5173	1904.1	1025.6
1032.3059	3048.5498	1904.75	1025.4
1032.4159	3049.5816	1896.05	1017.65
1032.5258	3050.6128	1891.35	1012.45
1032.6357	3051.6434	1886.3	1003.65
1032.7455	3052.6734	1876.9	996.55
1032.8553	3053.7027	1872.2	991.9
1032.9651	3054.7314	1871.4	991.5
1033.0748	3055.7594	1872.75	993.15
1033.1845	3056.7868	1859.6	979.95
1033.2941	3057.8136	1857.7	976.2
1033.4037	3058.8398	1848.1	970.55
1033.5132	3059.8653	1849.25	970
1033.6227	3060.8902	1837.4	958.6
1033.7321	3061.9145	1837.7	958.1
1033.8415	3062.9381	1835.15	955.2
1033.9509	3063.9612	1833.75	940.05
1034.0602	3064.9835	1815.75	935.65
1034.1694	3066.0053	1813.6	931
1034.2787	3067.0264	1810.25	930.75
1034.3878	3068.0469	1811.8	929.25
1034.497	3069.0668	1802.8	921.4
1034.6061	3070.086	1796.5	918
1034.7151	3071.1046	1795.35	917.15
1034.8241	3072.1226	1788	908.75
1034.9331	3073.1399	1788.05	908.1
1035.042	3074.1567	1777.65	899.35
1035.1508	3075.1727	1769.75	886.85
1035.2597	3076.1882	1764.4	884.8
1035.3684	3077.203	1755.95	877.05
1035.4772	3078.2173	1754.6	873.35
1035.5859	3079.2308	1746.8	865.4
1035.6945	3080.2438	1742.9	860.25
1035.8031	3081.2561	1735.15	856.2
1035.9117	3082.2678	1727.25	848.3
1036.0202	3083.2789	1721.6	842.95
1036.1286	3084.2893	1720.25	841.65
1036.2371	3085.2991	1720.85	843.8
1036.3454	3086.3083	1711.8	827.2
1036.4538	3087.3169	1703	822.65
1036.562	3088.3248	1701.9	822.65
1036.6703	3089.3321	1702.4	820.1
1036.7785	3090.3388	1688.55	811.1
1036.8866	3091.3449	1685.85	805.15
1036.9948	3092.3503	1687.5	806.75
1037.1028	3093.3551	1677.3	799.55
1037.2108	3094.3593	1672.05	795.35
1037.3188	3095.3629	1663.5	783.3
1037.4267	3096.3658	1668	788.5
1037.5346	3097.3681	1663.1	782.8
1037.6425	3098.3698	1653	774.3
1037.7503	3099.3708	1657.2	770.7
1037.858	3100.3713	1639.55	760.8
1037.9657	3101.3711	1636.45	755.35
1038.0734	3102.3702	1758.4	742.35
1038.181	3103.3688	1629.15	748.95
1038.2886	3104.3667	1629.35	752.7
1038.3961	3105.364	1626.2	746.25
1038.5036	3106.3607	1609.7	729.05
1038.611	3107.3568	1616.1	735.35
1038.7184	3108.3522	1599.7	720.85
1038.8257	3109.347	1609.6	728.7
1038.933	3110.3412	1604	718.9
1039.0403	3111.3348	1591.85	713
1039.1475	3112.3277	1581.75	702.7
1039.2547	3113.32	1583.3	705.2
1039.3618	3114.3117	1582.4	701.9
1039.4689	3115.3028	1575.9	696.95
1039.5759	3116.2932	1562.65	682.4
1039.6829	3117.2831	1570.4	685.2
1039.7898	3118.2723	1561.9	682.95
1039.8967	3119.2608	1559	679.95
1040.0035	3120.2488	1557.25	677
1040.1103	3121.2361	1559.6	680.45
1040.2171	3122.2229	1544.9	665.9
1040.3238	3123.209	1542.2	662.55
1040.4305	3124.1944	1546.85	668.9
1040.5371	3125.1793	1537.55	658.85
1040.6437	3126.1635	1538.75	658.4
1040.7502	3127.1471	1533.55	654.7
1040.8567	3128.1301	1528.95	649.45
1040.9631	3129.1125	1523.2	644.05
1041.0695	3130.0942	1522.3	641.5
1041.1759	3131.0753	1530.6	644.1
1041.2822	3132.0558	1520.55	641.05
1041.3884	3133.0357	1517	637.2
1041.4946	3134.015	1512.1	630.4
1041.6008	3134.9936	1502.75	623.35
1041.7069	3135.9716	1524.05	623.65
1041.813	3136.949	1501.25	620.8
1041.919	3137.9258	1501.8	615.4
1042.025	3138.902	1495.75	610.35
1042.1309	3139.8775	1492.8	613.4
1042.2368	3140.8524	1485.45	605.5
1042.3427	3141.8267	1490.9	610.95
1042.4485	3142.8004	1484.2	605.55
1042.5542	3143.7735	1485.1	599.7
1042.6599	3144.7459	1481.5	601.45
1042.7656	3145.7178	1476.45	595.85
1042.8712	3146.689	1470.05	592.4
1042.9768	3147.6596	1475.05	593.1
1043.0823	3148.6295	1468.25	588.45
1043.1878	3149.5989	1464.55	585.9
1043.2932	3150.5676	1457.5	579.3
1043.3986	3151.5357	1457.55	579.4
1043.5039	3152.5032	1458.65	581.95
1043.6092	3153.4701	1447.45	570.2
1043.7145	3154.4364	1445.6	566.35
1043.8197	3155.402	1445.9	567.85
1043.9248	3156.367	1437.4	556.15
1044.03	3157.3315	1473.55	556.1
1044.135	3158.2952	1432.4	555
1044.24	3159.2584	1429.95	548.95
1044.345	3160.221	1423.95	544.3
1044.4499	3161.1829	1421.1	541.65
1044.5548	3162.1442	1421.5	540.9
1044.6596	3163.105	1416.4	538.65
1044.7644	3164.065	1415.15	535.75
1044.8692	3165.0245	1414.3	534.25
1044.9739	3165.9834	1411.05	533.6
1045.0785	3166.9416	1404.95	526.55
1045.1831	3167.8993	1402.8	523.25
1045.2877	3168.8563	1398.3	520
1045.3922	3169.8127	1397.45	519.4
1045.4966	3170.7684	1392.8	513.25
1045.6011	3171.7236	1393.65	513.6
1045.7054	3172.6782	1391.75	510.75
1045.8098	3173.6321	1389.85	509
1045.914	3174.5854	1391.1	507.75
1046.0183	3175.5381	1386.75	507.9
1046.1224	3176.4902	1372.9	493.6
1046.2266	3177.4417	1374.8	495.2
1046.3307	3178.3926	1370.25	491.55
1046.4347	3179.3428	1364.8	488.45
1046.5387	3180.2924	1368.85	492.05
1046.6427	3181.2415	1363.25	483.8
1046.7466	3182.1899	1367.15	486.55
1046.8504	3183.1377	1361.1	483.65
1046.9542	3184.0848	1359.6	475.55
1047.058	3185.0314	1355.75	477.35
1047.1617	3185.9773	1355.9	477.5
1047.2654	3186.9227	1344.6	464.55
1047.369	3187.8674	1346.4	469.05
1047.4726	3188.8115	1347.45	464.4
1047.5761	3189.755	1345.85	467.4
1047.6796	3190.6979	1336.7	459.3
1047.783	3191.6402	1335.5	456.8
1047.8864	3192.5818	1333.35	454.2
1047.9898	3193.5229	1349	453.1
1048.0931	3194.4633	1334.15	456.7
1048.1963	3195.4031	1324.85	444.75
1048.2995	3196.3423	1321.95	442.5
1048.4027	3197.2809	1327.5	447.95
1048.5058	3198.2189	1323.1	443.45
1048.6089	3199.1563	1336.65	440.9
1048.7119	3200.0931	1317.75	441.7
1048.8148	3201.0292	1309.6	431.05
1048.9178	3201.9648	1305.65	426.75
1049.0206	3202.8997	1308.45	428.25
1049.1235	3203.834	1304.05	425.55
1049.2262	3204.7677	1309.5	430.8
1049.329	3205.7008	1303.5	422.7
1049.4317	3206.6333	1299.6	423.6
1049.5343	3207.5652	1303.4	422.75
1049.6369	3208.4964	1300.05	420.3
1049.7394	3209.4271	1295	417.55
1049.8419	3210.3571	1290.7	411.55
1049.9444	3211.2865	1291.7	412.25
1050.0468	3212.2154	1291.85	410.25
1050.1491	3213.1436	1285.5	404.9
1050.2514	3214.0712	1291.6	404.95
1050.3537	3214.9982	1283.8	406.55
1050.4559	3215.9246	1279.9	398.7
1050.5581	3216.8503	1279.25	400.9
1050.6602	3217.7755	1275.9	394.1
1050.7623	3218.7001	1271.5	395.35
1050.8643	3219.624	1274.75	394.8
1050.9663	3220.5473	1268.7	390.6
1051.0682	3221.4701	1269.55	388.95
1051.1701	3222.3922	1273.15	392.25
1051.2719	3223.3137	1265	389
1051.3737	3224.2346	1263.3	382.25
1051.4754	3225.1549	1250.6	374.35
1051.5771	3226.0746	1251.35	371.75
1051.6788	3226.9937	1256.5	377.6
1051.7804	3227.9121	1255.75	376.5
1051.8819	3228.83	1254.65	375.95
1051.9834	3229.7473	1247.55	369.45
1052.0849	3230.6639	1246.5	368.45
1052.1863	3231.5799	1246.7	366.2
1052.2876	3232.4954	1245.8	368
1052.3889	3233.4102	1240.5	361.1
1052.4902	3234.3244	1238.05	357.9
1052.5914	3235.238	1232.2	354.45
1052.6926	3236.151	1254.7	352.8
1052.7937	3237.0634	1228.5	350.4
1052.8948	3237.9752	1231.65	353.15
1052.9958	3238.8864	1227.1	347.9
1053.0968	3239.797	1229.4	351.55
1053.1977	3240.7069	1222.85	343.6
1053.2986	3241.6163	1226.1	345.65
1053.3994	3242.5251	1223.9	346.5
1053.5002	3243.4332	1220.4	341.5
1053.6009	3244.3408	1221.55	342.15
1053.7016	3245.2477	1216.85	337.75
1053.8022	3246.154	1215.6	336.75
1053.9028	3247.0598	1206.65	327
1054.0034	3247.9649	1210.9	331.6
1054.1039	3248.8694	1211.1	333.45
1054.2043	3249.7733	1204	324.6
1054.3047	3250.6766	1202.75	324.9
1054.4051	3251.5793	1203.65	324.45
1054.5054	3252.4814	1198.4	320.3
1054.6056	3253.3829	1197.15	319.8
1054.7058	3254.2838	1195.55	314.65
1054.806	3255.1841	1189.5	311.6
1054.9061	3256.0838	1183.65	306.55
1055.0061	3256.9829	1183.8	304.8
1055.1062	3257.8814	1187.35	307.1
1055.2061	3258.7792	1186.45	305.3
1055.306	3259.6765	1176.35	296.55
1055.4059	3260.5731	1171.65	292.9
1055.5057	3261.4692	1176.85	297.4
1055.6055	3262.3647	1168.25	287.65
1055.7052	3263.2595	1163.35	285
1055.8049	3264.1538	1159.35	279.7
1055.9045	3265.0474	1157.15	277.25
1056.0041	3265.9404	1151.65	274.55
1056.1036	3266.8329	1149.75	274.05
1056.2031	3267.7247	1151	262.45
1056.3025	3268.616	1138.15	260.3
1056.4019	3269.5066	1128.2	246.75
1056.5013	3270.3966	1124	243.45
1056.6005	3271.286	1112.35	231.8
