Software Version:	3.9.2.0
Unit SN:	10000200
Spectrometer SN:	6960
Date:	3/6/2024 9:36:01 AM
Data Line Index:	25
Spectral Points:	2048
Integration time (ms):	125
Averages:	20
Delay (ms):	30
Sequence Number:	1
Processing:	dark subtract
Laser Power (mW):	300
Laser Current (mA):	825
Laser Diode Temp (C):	25.1
Laser Case Temp (C):	23.9
System Temp (C):	23.6
Spectrometer Temp (C):	21.2
CCD Temp (C):	-0.026
Secondary Temp (C):	20.007
Heatsink Temp (C):	17.437
CCDPCB Temp (C):	30.571
SecondaryPCB Temp (C):	25.558

Wavelength	RamanShift	Raw Counts	Dark Subtracted
787.061	30.1047	505	97.8
787.2016	32.3739	507.45	99.4
787.3422	34.6426	515.6	109.75
787.4828	36.9109	522.1	112.05
787.6235	39.1787	535.4	122.6
787.7642	41.4461	549.95	132.45
787.9049	43.7131	556.4	135.8
788.0456	45.9796	568.1	145.35
788.1863	48.2456	579.3	152.1
788.3271	50.5112	594.05	162.85
788.4679	52.7764	602.35	169.15
788.6087	55.0411	619.25	180.95
788.7496	57.3054	633.55	190.6
788.8904	59.5692	646.45	201.95
789.0313	61.8326	661.65	213.85
789.1722	64.0955	684.15	236.6
789.3132	66.3579	699.55	243.2
789.4541	68.6199	732.2	275.4
789.5951	70.8815	778.8	314.75
789.7361	73.1426	875.8	408.8
789.8771	75.4032	1131.35	662.1
790.0181	77.6634	1760.7	1287.8
790.1592	79.9231	3257.05	2781.2
790.3003	82.1824	6511.3	6031.25
790.4414	84.4412	12261.3	11773.3
790.5825	86.6995	20017.15	19524.35
790.7237	88.9574	27485.45	26985.55
790.8648	91.2148	32764.65	32261.1
791.006	93.4717	35571.55	35063.7
791.1472	95.7282	36824.35	36314.05
791.2885	97.9842	37424.45	36910.85
791.4297	100.2398	37681.4	37168.8
791.571	102.4949	37795.5	37276.2
791.7123	104.7495	37887	37364.3
791.8536	107.0036	37854.75	37333.95
791.9949	109.2573	37899.65	37378.35
792.1363	111.5105	37968.5	37445.3
792.2777	113.7632	37982.85	37459.1
792.4191	116.0154	38016.8	37481.05
792.5605	118.2672	38295.4	37766.2
792.7019	120.5185	38295.95	37763.4
792.8434	122.7693	38348.6	37813.9
792.9849	125.0197	38454.95	37913.5
793.1264	127.2696	38510	37965.7
793.2679	129.519	38721.7	38175.8
793.4094	131.7679	38854.55	38305.95
793.551	134.0163	38822.25	38270
793.6926	136.2642	38935	38379.5
793.8342	138.5117	39023.55	38465.4
793.9758	140.7587	39075.15	38517.2
794.1175	143.0052	39161.45	38600.85
794.2591	145.2512	39069.75	38506.75
794.4008	147.4967	39141.9	38576.1
794.5425	149.7417	39180.65	38614.3
794.6842	151.9863	39151.45	38578.8
794.826	154.2304	39188.15	38614.1
794.9677	156.4739	39078.1	38495.75
795.1095	158.717	39206.95	38629.1
795.2513	160.9596	39337.6	38752.85
795.3931	163.2017	39303.5	38715.75
795.535	165.4433	39416.45	38827.75
795.6768	167.6844	39420	38826.05
795.8187	169.925	39481.15	38886
795.9606	172.1651	39403.25	38805.55
796.1025	174.4047	39425.7	38822.95
796.2445	176.6439	39439.25	38835.25
796.3864	178.8825	39470.75	38864.45
796.5284	181.1206	39565.25	38954.65
796.6704	183.3582	39632.85	39018.2
796.8124	185.5954	39593.55	38977.5
796.9544	187.832	39736.75	39116.9
797.0965	190.0681	39834.4	39213.2
797.2386	192.3037	39930.9	39305.35
797.3806	194.5388	40021.8	39392.8
797.5228	196.7734	40006.25	39377.1
797.6649	199.0075	40217.85	39586.05
797.807	201.2411	40423.35	39790.5
797.9492	203.4742	40514.8	39879.7
798.0914	205.7068	40696.7	40055.6
798.2336	207.9389	40694	40055
798.3758	210.1704	40820.75	40188.35
798.518	212.4015	40848.1	40226.85
798.6603	214.632	40909.5	40292.9
798.8025	216.862	40991.5	40376.75
798.9448	219.0915	41095.2	40478.1
799.0871	221.3205	41124.1	40501
799.2294	223.549	41284.35	40668.65
799.3718	225.777	41350.6	40732.6
799.5141	228.0044	41394.9	40767
799.6565	230.2314	41579.3	40950.75
799.7989	232.4578	41549.25	40916.6
799.9413	234.6837	41589.5	40947.9
800.0837	236.909	41740.35	41097.3
800.2262	239.1339	41680.95	41013.5
800.3687	241.3582	41774.85	41120.25
800.5111	243.582	41794.35	41113.5
800.6536	245.8053	41909.05	41238.8
800.7961	248.0281	41869.4	41203.35
800.9387	250.2503	41949.85	41282.1
801.0812	252.472	41966.2	41296.8
801.2238	254.6932	42069.7	41399.9
801.3664	256.9139	42022.8	41352.8
801.509	259.134	42154.85	41476.8
801.6516	261.3536	42112.25	41440.65
801.7942	263.5727	42316.95	41644.1
801.9369	265.7912	42241.65	41565.8
802.0795	268.0092	42343.05	41667.65
802.2222	270.2267	42418.75	41742.55
802.3649	272.4436	42468.75	41790.45
802.5076	274.6601	42535.3	41845.75
802.6504	276.8759	42493.9	41809.4
802.7931	279.0913	42653.45	41968
802.9359	281.3061	42585.4	41900.9
803.0787	283.5204	42725.9	42037.75
803.2215	285.7341	42767.25	42077.15
803.3643	287.9473	42908.1	42207.2
803.5071	290.16	42909	42213.3
803.6499	292.3721	42981.1	42292
803.7928	294.5837	42731.25	42040.3
803.9357	296.7947	42696.7	42003.05
804.0786	299.0052	42746.2	42053.5
804.2215	301.2152	42715.45	42022.65
804.3644	303.4246	42806.85	42113.9
804.5074	305.6334	42755.8	42061.95
804.6503	307.8418	42740	42042.45
804.7933	310.0495	42730.6	42031.8
804.9363	312.2568	42727.1	42029.4
805.0793	314.4635	42559.85	41858.6
805.2223	316.6696	42527.95	41822.6
805.3653	318.8752	42420.1	41706.8
805.5084	321.0802	42296.45	41590.6
805.6514	323.2847	42379.15	41671.7
805.7945	325.4887	42306.2	41597.15
805.9376	327.692	42263.95	41553.9
806.0807	329.8949	42440.65	41729.8
806.2238	332.0972	42412.5	41698.35
806.367	334.2989	42554.45	41838.25
806.5101	336.5001	42562.65	41846.1
806.6533	338.7007	42508.25	41790.8
806.7965	340.9008	42572.05	41853
806.9397	343.1003	42448.9	41730.5
807.0829	345.2992	42453.85	41731.35
807.2261	347.4976	42404.85	41682.75
807.3693	349.6955	42361.7	41633.4
807.5126	351.8927	42471.15	41742.3
807.6559	354.0895	42371.3	41629.35
807.7991	356.2856	42452.35	41722.7
807.9424	358.4812	42384.35	41653.65
808.0857	360.6763	42447.6	41714.7
808.2291	362.8707	42361.2	41629
808.3724	365.0646	42451.05	41711.4
808.5158	367.258	42360.7	41619.7
808.6591	369.4508	42280.6	41539.25
808.8025	371.643	42372	41630.8
808.9459	373.8346	42249.5	41505.7
809.0893	376.0257	42214.7	41465.7
809.2327	378.2162	42189.35	41441.05
809.3762	380.4062	42218.95	41472.6
809.5196	382.5956	42087.95	41343.9
809.6631	384.7844	42123.35	41385.8
809.8066	386.9726	42024.05	41285.25
809.9501	389.1603	41988.15	41251.65
810.0936	391.3474	41948.55	41161.25
810.2371	393.5339	41954.3	41211.4
810.3806	395.7199	41775.8	41037.8
810.5241	397.9052	41815.85	41073.8
810.6677	400.09	41767.5	41025.75
810.8113	402.2743	41809	41065.55
810.9548	404.4579	41742.15	40996.55
811.0984	406.641	41877.75	41130.8
811.2421	408.8235	41920.05	41174.5
811.3857	411.0054	41955.1	41205.4
811.5293	413.1868	42071.65	41318.25
811.673	415.3675	42017.5	41259.3
811.8166	417.5477	42013.1	41253.9
811.9603	419.7273	41994.75	41230.7
812.104	421.9064	41784.8	41016.3
812.2477	424.0848	41660.15	40896.65
812.3914	426.2627	41559.4	40795.55
812.5351	428.4399	41481.95	40719.85
812.6788	430.6166	41349.65	40581.1
812.8226	432.7928	41230.85	40461.55
812.9663	434.9683	41119.55	40350.7
813.1101	437.1432	41082.8	40309.2
813.2539	439.3176	40971.5	40201.7
813.3977	441.4914	40753	39983.4
813.5415	443.6645	40766.25	39995.5
813.6853	445.8371	40592	39820.65
813.8291	448.0091	40498.5	39726.8
813.973	450.1806	40367.65	39593.75
814.1168	452.3514	40269.65	39493.95
814.2607	454.5216	40292.65	39510.35
814.4046	456.6913	40073.45	39296.8
814.5485	458.8603	40107	39330.9
814.6924	461.0288	40206.2	39431.85
814.8363	463.1967	40087.5	39313.75
814.9802	465.3639	40113.9	39337.15
815.1241	467.5306	40039.1	39261.35
815.2681	469.6967	39925.3	39147.5
815.412	471.8622	39774.6	38994.85
815.556	474.0271	39764.9	38987.7
815.7	476.1914	39808.3	39026.7
815.844	478.3551	39735.25	38954.7
815.988	480.5182	39815.05	39034.6
816.132	482.6807	39761.75	38980.75
816.276	484.8426	39856.95	39076.05
816.4201	487.0039	39865.35	39081
816.5641	489.1647	39914.25	39129.5
816.7082	491.3248	39992.95	39208.6
816.8522	493.4843	39930.5	39146
816.9963	495.6432	39905.85	39122.5
817.1404	497.8015	39764.55	38975.2
817.2845	499.9592	39833.8	39046.5
817.4286	502.1163	39718.4	38929.35
817.5727	504.2728	39552.35	38761.7
817.7168	506.4287	39653.4	38864.6
817.861	508.5839	39548	38758
818.0051	510.7386	39500.4	38710.25
818.1493	512.8927	39476.8	38679.25
818.2935	515.0461	39514.6	38721.6
818.4377	517.199	39489.85	38697.85
818.5818	519.3512	39466.05	38674.1
818.726	521.5029	39500.45	38700.1
818.8703	523.6539	39523.85	38728.3
819.0145	525.8043	39525.25	38726.75
819.1587	527.9541	39414.2	38615
819.303	530.1033	39273.65	38473.7
819.4472	532.2519	39226.55	38426
819.5915	534.3999	39183.75	38384.5
819.7357	536.5472	39080.75	38281.15
819.88	538.694	39065.05	38265.7
820.0243	540.8401	39122.4	38321.4
820.1686	542.9856	39151	38350.15
820.3129	545.1305	39092	38291.1
820.4572	547.2748	39117.35	38313.6
820.6016	549.4185	39046.75	38239.85
820.7459	551.5615	39005.4	38199.7
820.8902	553.704	39023.65	38221
821.0346	555.8458	38917.3	38115.4
821.1789	557.987	38928.15	38124.05
821.3233	560.1276	38937.75	38132.25
821.4677	562.2675	38977.7	38177.75
821.6121	564.4069	38983.1	38181.6
821.7565	566.5456	38917.05	38116
821.9009	568.6837	38872.4	38069.8
822.0453	570.8212	38708.55	37904.45
822.1897	572.958	38562.9	37758.2
822.3342	575.0942	38473.2	37666.95
822.4786	577.2299	38336.4	37529.9
822.6231	579.3648	38189.2	37382.85
822.7675	581.4992	38047.25	37239.75
822.912	583.6329	37946.25	37138.55
823.0565	585.766	37939.55	37131.6
823.201	587.8985	37888.4	37080.35
823.3454	590.0304	37791.2	36969.85
823.4899	592.1616	37791.3	36977.6
823.6345	594.2922	37710.9	36899.85
823.779	596.4222	37590.9	36776.3
823.9235	598.5515	37489.9	36674.65
824.068	600.6802	37331.7	36517.3
824.2126	602.8083	37115.2	36302.1
824.3571	604.9358	37114.1	36300.4
824.5017	607.0626	37011.95	36197.25
824.6462	609.1888	36984.25	36168.9
824.7908	611.3144	36980.35	36165.35
824.9354	613.4393	36921.4	36107.15
825.08	615.5636	36931.05	36115.05
825.2246	617.6873	36952	36136.2
825.3692	619.8103	36987.7	36167.1
825.5138	621.9327	36914.3	36091.85
825.6584	624.0544	36876.85	36060.05
825.803	626.1756	36793.4	35975.7
825.9477	628.2961	36660	35842.3
826.0923	630.4159	36567.4	35747.1
826.237	632.5351	36580.75	35759.35
826.3816	634.6537	36508.65	35686.9
826.5263	636.7716	36448.2	35625.35
826.6709	638.8889	36470.05	35648.1
826.8156	641.0056	36514.95	35692.25
826.9603	643.1216	36374.25	35551
827.105	645.237	36447.65	35622.95
827.2497	647.3518	36290.85	35467.85
827.3944	649.4659	36288.05	35465.5
827.5391	651.5793	36195.75	35369.6
827.6838	653.6922	36116.85	35295.9
827.8285	655.8043	36028.45	35204.5
827.9733	657.9159	36052.4	35228.5
828.118	660.0268	35957.25	35130.3
828.2627	662.137	35833.7	35008.05
828.4075	664.2466	35845.9	35018.25
828.5522	666.3556	35794.25	34967.35
828.697	668.4639	35715.75	34887.65
828.8418	670.5716	35736.65	34909.45
828.9865	672.6786	35658.55	34831.55
829.1313	674.785	35557.35	34725.25
829.2761	676.8907	35496.1	34664.85
829.4209	678.9958	35471.6	34645.8
829.5657	681.1002	35338.4	34507.8
829.7105	683.204	35252	34418.15
829.8553	685.3072	35283.35	34451.8
830.0001	687.4097	35170.3	34339.9
830.1449	689.5115	35209.3	34374
830.2898	691.6127	35198.25	34366.3
830.4346	693.7132	35094.95	34262.75
830.5794	695.8131	35104.4	34247.05
830.7243	697.9123	35069.1	34235.1
830.8691	700.0109	34996.45	34164.7
831.014	702.1089	34974.6	34142.45
831.1588	704.2061	34979.4	34147.85
831.3037	706.3028	34931.75	34097.85
831.4486	708.3987	34948.9	34113.95
831.5935	710.4941	34887.65	34050.95
831.7383	712.5887	34825.1	33990.15
831.8832	714.6827	34819.25	33978.15
832.0281	716.7761	34763	33927.8
832.173	718.8688	34731.8	33895.25
832.3179	720.9608	34646.7	33808.15
832.4628	723.0522	34674.85	33835.2
832.6077	725.1429	34582.15	33744.1
832.7527	727.233	34568.15	33730.85
832.8976	729.3224	34593.95	33754.95
833.0425	731.4112	34570.15	33731.65
833.1874	733.4993	34508.8	33669.65
833.3324	735.5867	34392.15	33551.55
833.4773	737.6735	34256.8	33414.75
833.6222	739.7596	34183.15	33342.65
833.7672	741.845	34062.75	33221.2
833.9122	743.9298	34009.95	33167.05
834.0571	746.014	33940.35	33099.9
834.2021	748.0974	33923.75	33079.55
834.347	750.1802	33811.05	32967.45
834.492	752.2624	33677.15	32836.05
834.637	754.3439	33541.9	32698.65
834.782	756.4247	33495.25	32644.5
834.9269	758.5048	33395.8	32555.45
835.0719	760.5843	33375.6	32531.9
835.2169	762.6631	33247.1	32405
835.3619	764.7413	33269.95	32427.8
835.5069	766.8188	33352.55	32506.55
835.6519	768.8956	33200.7	32355.25
835.7969	770.9718	33301.75	32459
835.9419	773.0473	33147.4	32303.85
836.0869	775.1221	33129.75	32285.6
836.232	777.1962	32929.6	32084.05
836.377	779.2697	32941.65	32096.5
836.522	781.3426	32994.65	32131.25
836.667	783.4147	32897.3	32050.9
836.8121	785.4862	32955.05	32111.1
836.9571	787.557	32799.5	31951.95
837.1021	789.6271	32624.8	31780.1
837.2472	791.6966	32479.7	31632.15
837.3922	793.7654	32318.15	31470.3
837.5373	795.8335	32252.8	31404.6
837.6823	797.901	32099.55	31252.85
837.8274	799.9678	32061.65	31212.75
837.9724	802.0339	31991.75	31146.8
838.1175	804.0993	31970.9	31113.8
838.2626	806.1641	31851.25	31001.45
838.4076	808.2282	31753.65	30907.6
838.5527	810.2916	31718.5	30869.95
838.6978	812.3544	31697.8	30851.15
838.8428	814.4164	31618.85	30772.7
838.9879	816.4778	31666.7	30815.6
839.133	818.5385	31550.8	30701.25
839.2781	820.5986	31616.55	30767.35
839.4232	822.658	31611.05	30759.5
839.5682	824.7166	31566.8	30718
839.7133	826.7747	31699.35	30849.8
839.8584	828.832	31663.8	30812.2
840.0035	830.8886	31538.05	30686.55
840.1486	832.9446	31612.55	30761.25
840.2937	834.9999	31502.6	30651.85
840.4388	837.0545	31450.1	30595.85
840.5839	839.1085	31275.6	30423
840.729	841.1618	31188.9	30332.95
840.8741	843.2143	31059.9	30206.95
841.0192	845.2662	30925.45	30075.05
841.1643	847.3175	30893.6	30042.35
841.3095	849.368	30768.95	29915.55
841.4546	851.4179	30792.65	29939.55
841.5997	853.467	30678.9	29825.15
841.7448	855.5155	30614.65	29762.65
841.8899	857.5633	30578.75	29725.4
842.0351	859.6105	30456.95	29604.8
842.1802	861.6569	30426.35	29572.3
842.3253	863.7027	30405.2	29548.8
842.4704	865.7478	30359.2	29502.55
842.6156	867.7922	30344.4	29490.95
842.7607	869.8359	30267.35	29412.5
842.9058	871.8789	30216.75	29361.15
843.0509	873.9212	30195.25	29307
843.1961	875.9629	30061.7	29208.4
843.3412	878.0039	30104.95	29250.1
843.4863	880.0441	30077.55	29221.45
843.6315	882.0837	30068.85	29211.4
843.7766	884.1226	30053.55	29196.85
843.9218	886.1609	30055.65	29202.4
844.0669	888.1984	30085.05	29229.85
844.212	890.2352	30184.15	29328.5
844.3572	892.2714	30080.85	29220.5
844.5023	894.3069	30025.35	29167.55
844.6475	896.3416	29908.85	29051.85
844.7926	898.3757	29872.1	29014.15
844.9377	900.4091	29790.85	28932.8
845.0829	902.4418	29714.15	28852.7
845.228	904.4739	29652.2	28792.1
845.3732	906.5052	29659.85	28803.05
845.5183	908.5358	29595.65	28737.95
845.6635	910.5658	29555.25	28695.95
845.8086	912.595	29435.1	28577.95
845.9538	914.6236	29344	28485.8
846.0989	916.6515	29287.7	28430
846.2441	918.6786	29213.6	28353.95
846.3892	920.7051	29144.85	28285.05
846.5344	922.7309	29179.95	28320.6
846.6795	924.756	29065.7	28205
846.8246	926.7804	29072.25	28210.25
846.9698	928.8041	28846.5	27983.6
847.1149	930.8272	28931.3	28071.1
847.2601	932.8495	28761.15	27900.75
847.4052	934.8711	28778.85	27918.55
847.5504	936.892	28649.05	27788.9
847.6955	938.9123	28566.9	27705.1
847.8407	940.9318	28557	27697.2
847.9858	942.9506	28438.7	27578.05
848.131	944.9688	28323	27462.35
848.2761	946.9862	28279.35	27417.6
848.4213	949.003	28129.5	27267.8
848.5664	951.019	28059.55	27198.55
848.7115	953.0344	27974.4	27111.3
848.8567	955.0491	27921.75	27058.2
849.0018	957.063	27893.05	27031.2
849.147	959.0763	27964.65	27104.95
849.2921	961.0888	27816.4	26951.75
849.4373	963.1007	27847.25	26985.6
849.5824	965.1119	27754.15	26892.4
849.7275	967.1223	27718.15	26855
849.8727	969.1321	27684.75	26824.7
850.0178	971.1412	27657.8	26795.5
850.1629	973.1495	27544.4	26683.9
850.3081	975.1572	27586.3	26676.95
850.4532	977.1641	27536.55	26674.05
850.5983	979.1704	27434.35	26570.7
850.7435	981.1759	27362.9	26498.25
850.8886	983.1808	27325.45	26459.85
851.0337	985.1849	27272.35	26404.55
851.1788	987.1884	27217.5	26349.8
851.324	989.1911	27165.2	26298.85
851.4691	991.1932	27093.5	26227.45
851.6142	993.1945	26965.9	26102.6
851.7593	995.1951	26856.45	25992
851.9045	997.1951	26803.45	25935.45
852.0496	999.1943	26735.6	25871.3
852.1947	1001.1928	26629.2	25764.35
852.3398	1003.1906	26502.4	25637.5
852.4849	1005.1877	26511.2	25645.9
852.63	1007.1841	26404.55	25537.5
852.7751	1009.1798	26386.95	25522.15
852.9202	1011.1748	26257.55	25393.3
853.0653	1013.1691	26232.05	25365.35
853.2104	1015.1627	26048.95	25182.9
853.3555	1017.1556	25907.15	25041.45
853.5006	1019.1477	25840.55	24974.4
853.6457	1021.1392	25672.35	24808.7
853.7908	1023.1299	25562.75	24696.9
853.9359	1025.12	25490.25	24622.75
854.081	1027.1093	25369.05	24503.85
854.2261	1029.0979	25346.05	24484.7
854.3712	1031.0859	25266.3	24401.95
854.5163	1033.0731	25230.75	24365.2
854.6613	1035.0596	25179.4	24314.35
854.8064	1037.0454	25020.05	24153.05
854.9515	1039.0304	24983.7	24118.3
855.0965	1041.0148	24874.2	24007.45
855.2416	1042.9985	24800.45	23931.75
855.3867	1044.9814	24756.6	23891.25
855.5317	1046.9636	24623.6	23756.95
855.6768	1048.9452	24535.5	23668.95
855.8219	1050.926	24514.3	23649.55
855.9669	1052.9061	24445.2	23578.35
856.112	1054.8855	24459.9	23592.35
856.257	1056.8642	24388.15	23521
856.4021	1058.8421	24366.65	23492.5
856.5471	1060.8194	24306.95	23440.2
856.6921	1062.7959	24261.3	23392.45
856.8372	1064.7717	24209.8	23342
856.9822	1066.7469	24156.85	23290
857.1272	1068.7213	24137.5	23265.8
857.2723	1070.695	24095.2	23227.95
857.4173	1072.6679	24001.45	23132.5
857.5623	1074.6402	24015.7	23146.65
857.7073	1076.6117	24029.25	23155.5
857.8523	1078.5826	23974.25	23106.6
857.9973	1080.5527	23902.75	23032.45
858.1423	1082.5221	23721.85	22850.8
858.2873	1084.4908	23680.55	22813.6
858.4323	1086.4587	23613.4	22742.5
858.5773	1088.426	23559.6	22689.35
858.7223	1090.3925	23493.1	22618.8
858.8673	1092.3584	23451.7	22583.4
859.0123	1094.3235	23363.25	22494.65
859.1573	1096.2879	23327.8	22458.65
859.3022	1098.2515	23340.05	22468.95
859.4472	1100.2145	23356.05	22489.4
859.5922	1102.1767	23296.85	22422.65
859.7371	1104.1382	23292	22419.8
859.8821	1106.099	23288	22416.4
860.027	1108.0591	23283.5	22413.7
860.172	1110.0185	23263.9	22391.5
860.3169	1111.9771	23273.05	22403.65
860.4619	1113.9351	23236.2	22364.8
860.6068	1115.8923	23221.9	22349.95
860.7517	1117.8488	23212.35	22339.3
860.8967	1119.8045	23084.1	22212.65
861.0416	1121.7596	22961.7	22088.65
861.1865	1123.7139	22779.75	21911.2
861.3314	1125.6675	22695	21822.2
861.4763	1127.6204	22684.65	21813.85
861.6212	1129.5726	22626.3	21753.8
861.7661	1131.524	22635.55	21764.9
861.911	1133.4748	22567.85	21698.5
862.0559	1135.4248	22450.35	21578
862.2008	1137.3741	22383.55	21512
862.3457	1139.3226	22295.1	21421.65
862.4905	1141.2705	22255.6	21383.65
862.6354	1143.2176	22146.6	21270.1
862.7803	1145.164	22173.4	21300.05
862.9251	1147.1097	22103.4	21230.25
863.07	1149.0546	22068.5	21195.35
863.2148	1150.9989	22039.6	21167.65
863.3597	1152.9424	22039.45	21169
863.5045	1154.8852	21966.1	21092.95
863.6493	1156.8272	21939.7	21069.7
863.7942	1158.7686	21936.05	21057.25
863.939	1160.7092	21875.9	21004.1
864.0838	1162.6491	21776.4	20903.3
864.2286	1164.5883	21802.65	20932.45
864.3734	1166.5267	21744.85	20871.3
864.5182	1168.4644	21739.05	20867.95
864.663	1170.4014	21756.7	20879.65
864.8078	1172.3377	21798.65	20928.1
864.9526	1174.2732	21780.9	20910
865.0974	1176.2081	21867.7	20996.6
865.2421	1178.1421	21962.6	21087.8
865.3869	1180.0755	22033.1	21159.5
865.5317	1182.0082	22013.95	21140.7
865.6764	1183.9401	21994.8	21121.45
865.8212	1185.8713	21835.8	20964.9
865.9659	1187.8017	21666.3	20795.2
866.1106	1189.7315	21531.4	20661.2
866.2554	1191.6605	21325.05	20452.3
866.4001	1193.5888	21241.8	20370.85
866.5448	1195.5163	21158.5	20286.55
866.6895	1197.4432	21100.35	20226.1
866.8342	1199.3693	21042.2	20171.3
866.9789	1201.2947	20891.4	20017.8
867.1236	1203.2193	20865.05	19990.25
867.2683	1205.1432	20819	19945.45
867.413	1207.0664	20756.15	19884.3
867.5576	1208.9889	20698.15	19822.2
867.7023	1210.9106	20618.2	19745.25
867.847	1212.8316	20540.5	19667.3
867.9916	1214.7519	20536.8	19654.3
868.1363	1216.6715	20477.6	19606.55
868.2809	1218.5903	20473	19600.3
868.4255	1220.5084	20417	19541.1
868.5701	1222.4257	20439.55	19564.3
868.7148	1224.3424	20355.95	19484.15
868.8594	1226.2583	20307.1	19428.45
869.004	1228.1735	20295.45	19420.85
869.1486	1230.0879	20257.85	19382.9
869.2932	1232.0016	20218.6	19345.85
869.4377	1233.9146	20267.05	19392.5
869.5823	1235.8269	20180.95	19306.75
869.7269	1237.7384	20201.8	19328.2
869.8715	1239.6492	20120.85	19245.2
870.016	1241.5592	20113.65	19237.85
870.1606	1243.4686	20098.5	19223.05
870.3051	1245.3772	20165.1	19291.25
870.4496	1247.285	20168.45	19291.2
870.5941	1249.1922	20173.55	19299.6
870.7387	1251.0986	20222.6	19348.3
870.8832	1253.0042	20239.35	19364.85
871.0277	1254.9092	20309.5	19432.9
871.1722	1256.8134	20368.1	19494.45
871.3167	1258.7169	20466.1	19588.5
871.4611	1260.6196	20458.7	19585.75
871.6056	1262.5216	20448.65	19572.8
871.7501	1264.4229	20405.15	19531.25
871.8945	1266.3234	20397.7	19521
872.039	1268.2232	20289.95	19413.55
872.1834	1270.1223	20208.5	19332.35
872.3278	1272.0207	20110.8	19234
872.4723	1273.9183	20060.45	19177.65
872.6167	1275.8151	20045.85	19171.1
872.7611	1277.7113	20032.3	19154.95
872.9055	1279.6067	20062.05	19186.85
873.0499	1281.5014	20178.5	19302.55
873.1943	1283.3953	20369.3	19489.25
873.3386	1285.2885	20545.6	19671.5
873.483	1287.181	20669.55	19793.05
873.6274	1289.0727	20755.65	19880.55
873.7717	1290.9637	20640.6	19763.35
873.9161	1292.854	20578.5	19702.3
874.0604	1294.7435	20395.9	19519.35
874.2047	1296.6323	20252.15	19376.15
874.349	1298.5204	20144.95	19263.15
874.4933	1300.4077	19993.9	19117.6
874.6376	1302.2943	19943.3	19068.75
874.7819	1304.1802	19899.4	19021.55
874.9262	1306.0653	19811.75	18933.35
875.0705	1307.9497	19772.95	18895.05
875.2147	1309.8333	19741.7	18868.45
875.359	1311.7162	19664.4	18787.65
875.5032	1313.5984	19664.55	18784.55
875.6475	1315.4798	19533.2	18654.7
875.7917	1317.3605	19499.15	18619.45
875.9359	1319.2405	19535.45	18656.75
876.0801	1321.1197	19458.55	18579.75
876.2243	1322.9982	19368	18487.65
876.3685	1324.876	19303.35	18428.75
876.5127	1326.753	19161.2	18283.25
876.6569	1328.6293	19096.3	18219.05
876.801	1330.5048	19016	18137.35
876.9452	1332.3796	18875.5	18000.1
877.0893	1334.2537	18815.85	17914.2
877.2335	1336.127	18703.3	17826.5
877.3776	1337.9996	18664.15	17787.85
877.5217	1339.8714	18631.75	17752.5
877.6658	1341.7426	18575.05	17653.25
877.8099	1343.6129	18527.05	17651.6
877.954	1345.4826	18432.1	17554.95
878.0981	1347.3515	18500.5	17623.15
878.2422	1349.2196	18392.3	17515.75
878.3862	1351.087	18416.8	17538.4
878.5303	1352.9537	18370.25	17493.6
878.6743	1354.8197	18358.35	17480.95
878.8184	1356.6849	18358.75	17482.55
878.9624	1358.5493	18341.9	17463.65
879.1064	1360.4131	18284.15	17406.6
879.2504	1362.276	18304.65	17427.5
879.3944	1364.1383	18315.85	17437.25
879.5384	1365.9998	18280.65	17398.9
879.6823	1367.8606	18187.55	17309.35
879.8263	1369.7206	18187.25	17308.9
879.9702	1371.5799	18177.85	17297.85
880.1142	1373.4384	18073.5	17196.05
880.2581	1375.2962	18077.2	17200.1
880.402	1377.1533	17943.6	17065.7
880.5459	1379.0096	17814.35	16936.8
880.6898	1380.8652	17772.7	16894.75
880.8337	1382.7201	17685.4	16806.65
880.9776	1384.5742	17541.75	16664.15
881.1215	1386.4275	17497.5	16618.1
881.2653	1388.2802	17416.85	16541.65
881.4092	1390.132	17360.4	16484.9
881.553	1391.9832	17331.3	16452.6
881.6968	1393.8336	17243.65	16367.05
881.8406	1395.6832	17166.6	16286.45
881.9844	1397.5322	17126.9	16250.3
882.1282	1399.3803	17091.05	16206.85
882.272	1401.2278	16984.2	16106.05
882.4158	1403.0745	16967.55	16089.8
882.5595	1404.9204	16842.65	15964.8
882.7033	1406.7656	16819.25	15940.7
882.847	1408.6101	16732.1	15854.95
882.9908	1410.4538	16707	15828.7
883.1345	1412.2968	16679.3	15801.75
883.2782	1414.139	16585.45	15706.95
883.4219	1415.9805	16620.05	15742.15
883.5656	1417.8213	16538.5	15638.65
883.7092	1419.6613	16504.6	15627.9
883.8529	1421.5006	16470.2	15592.45
883.9965	1423.3391	16481.35	15601.55
884.1402	1425.1769	16456.8	15574.95
884.2838	1427.0139	16546.4	15668.6
884.4274	1428.8502	16625.35	15743.85
884.571	1430.6858	16599.45	15720.2
884.7146	1432.5206	16596	15716.05
884.8582	1434.3547	16596.05	15717.45
885.0018	1436.188	16538.5	15659.4
885.1453	1438.0206	16508.55	15627.45
885.2889	1439.8524	16465.75	15587.4
885.4324	1441.6835	16456.65	15578.25
885.5759	1443.5139	16429.25	15547.95
885.7194	1445.3435	16382.8	15504.1
885.8629	1447.1724	16372.7	15493.95
886.0064	1449.0005	16336.15	15458.25
886.1499	1450.8279	16317.55	15440.5
886.2933	1452.6545	16257.95	15379.25
886.4368	1454.4804	16266	15389.7
886.5802	1456.3056	16228.2	15342.5
886.7237	1458.13	16169.95	15290.6
886.8671	1459.9536	16157.35	15277.9
887.0105	1461.7766	16090.15	15211.25
887.1539	1463.5987	16021.9	15143.25
887.2972	1465.4202	15938.8	15060.95
887.4406	1467.2409	15846.8	14969.05
887.584	1469.0608	15851.95	14972.55
887.7273	1470.88	15755.35	14877.95
887.8706	1472.6984	15695.55	14816.85
888.0139	1474.5161	15637.1	14756.1
888.1572	1476.3331	15610.9	14731
888.3005	1478.1493	15550.65	14673.45
888.4438	1479.9648	15524.7	14646.1
888.5871	1481.7795	15483.1	14605.8
888.7303	1483.5935	15485.55	14607.7
888.8736	1485.4067	15432	14552.9
889.0168	1487.2192	15469.95	14592.5
889.16	1489.031	15432.75	14552.1
889.3032	1490.842	15364.1	14483.95
889.4464	1492.6522	15390.3	14511.95
889.5896	1494.4618	15344.3	14463.2
889.7327	1496.2705	15309.25	14429.55
889.8759	1498.0785	15268.7	14388.65
890.019	1499.8858	15215.8	14335.55
890.1622	1501.6924	15156.1	14275.15
890.3053	1503.4981	15111.15	14232.9
890.4484	1505.3032	15097.55	14219.6
890.5914	1507.1075	15051.3	14172.85
890.7345	1508.911	15046.35	14166.85
890.8776	1510.7138	15011.5	14133.1
891.0206	1512.5159	14964.55	14082.95
891.1637	1514.3172	14922.5	14044.8
891.3067	1516.1178	14837.7	13960.05
891.4497	1517.9176	14827.65	13945.9
891.5927	1519.7166	14797.7	13919.15
891.7357	1521.515	14753.9	13866.3
891.8786	1523.3126	14697.15	13819.95
892.0216	1525.1094	14663	13781.05
892.1645	1526.9055	14607.7	13730.05
892.3074	1528.7008	14566.2	13687.3
892.4503	1530.4954	14476.65	13594
892.5932	1532.2893	14407.15	13530.2
892.7361	1534.0824	14346.2	13460.5
892.879	1535.8747	14364.6	13485.8
893.0218	1537.6663	14292.5	13411.95
893.1647	1539.4572	14256.4	13375.9
893.3075	1541.2473	14219.55	13339.15
893.4503	1543.0367	14193.6	13314.7
893.5931	1544.8253	14115.3	13230.8
893.7359	1546.6132	14114.7	13234.75
893.8787	1548.4003	14032.85	13143.2
894.0214	1550.1867	14054.85	13168
894.1642	1551.9723	13958.1	13074.15
894.3069	1553.7572	13997.3	13117.15
894.4496	1555.5414	13963.05	13081.4
894.5923	1557.3247	13950.25	13069.4
894.735	1559.1074	13909.8	13029.35
894.8777	1560.8893	13903.25	13026
895.0204	1562.6705	13911.05	13033.75
895.163	1564.4509	13919.65	13041.6
895.3056	1566.2305	13880.6	13003.35
895.4482	1568.0094	13890.8	13012.25
895.5908	1569.7876	13866.4	12988
895.7334	1571.565	13830.2	12948.1
895.876	1573.3417	13812.9	12933.05
896.0186	1575.1176	13781.7	12902.4
896.1611	1576.8928	13730.65	12852.2
896.3036	1578.6672	13696.5	12819
896.4461	1580.4409	13703	12826.3
896.5886	1582.2138	13680.05	12800.9
896.7311	1583.986	13683	12805.05
896.8736	1585.7575	13732	12853.55
897.0161	1587.5282	13697.85	12822.1
897.1585	1589.2981	13732.25	12854.35
897.3009	1591.0673	13651.85	12774.85
897.4433	1592.8358	13679.6	12799.8
897.5857	1594.6035	13641.1	12760.1
897.7281	1596.3704	13575.55	12697.55
897.8705	1598.1366	13506.65	12628.9
898.0128	1599.9021	13481.9	12604
898.1551	1601.6668	13342.45	12464.1
898.2975	1603.4308	13281.2	12401.85
898.4398	1605.194	13252.75	12369.5
898.5821	1606.9564	13249.2	12369.95
898.7243	1608.7182	13274	12392.5
898.8666	1610.4791	13340.25	12462.6
899.0088	1612.2394	13378.65	12499.1
899.1511	1613.9988	13442.75	12565.55
899.2933	1615.7576	13482.55	12603.35
899.4355	1617.5156	13526.55	12641.1
899.5776	1619.2728	13502.75	12624.65
899.7198	1621.0293	13371.95	12494.35
899.862	1622.785	13244.5	12362.15
900.0041	1624.54	13042.2	12158.6
900.1462	1626.2942	12892.15	12013.75
900.2883	1628.0477	12711.05	11827.7
900.4304	1629.8005	12619.15	11735.35
900.5725	1631.5525	12464.55	11585.7
900.7145	1633.3037	12380.7	11501.8
900.8566	1635.0542	12304.3	11425.6
900.9986	1636.804	12220.7	11341.35
901.1406	1638.553	12238.4	11267.25
901.2826	1640.3013	12087	11210.1
901.4245	1642.0488	12039.95	11160.3
901.5665	1643.7955	11994.5	11116.9
901.7085	1645.5416	11941.25	11062.6
901.8504	1647.2868	11922.85	11043.05
901.9923	1649.0313	11863.15	10984.95
902.1342	1650.7751	11842.95	10961.4
902.2761	1652.5181	11812.25	10933.2
902.4179	1654.2604	11738.35	10860.05
902.5598	1656.0019	11715.35	10836
902.7016	1657.7427	11679.95	10802.35
902.8434	1659.4828	11692.75	10813.05
902.9852	1661.222	11714.25	10833.6
903.127	1662.9606	11682.65	10805.9
903.2687	1664.6984	11683	10803.7
903.4105	1666.4354	11692.05	10812.4
903.5522	1668.1717	11619.2	10740.35
903.6939	1669.9072	11568.5	10689.7
903.8356	1671.642	11507.7	10626.5
903.9773	1673.3761	11396.75	10518.45
904.119	1675.1094	11342.1	10465.6
904.2606	1676.8419	11256.2	10377
904.4022	1678.5737	11184	10305.05
904.5439	1680.3048	11142.9	10262.1
904.6855	1682.0351	11093.25	10213.55
904.827	1683.7646	11024.35	10140.95
904.9686	1685.4934	10995.65	10117.05
905.1101	1687.2215	10936.2	10054.9
905.2517	1688.9488	10895.7	10017.85
905.3932	1690.6754	10818.15	9940.35
905.5347	1692.4012	10815.85	9939.1
905.6761	1694.1263	10787.45	9910.2
905.8176	1695.8506	10737.35	9858.35
905.9591	1697.5742	10704.55	9826.3
906.1005	1699.297	10664.95	9787.15
906.2419	1701.0191	10590.1	9710.4
906.3833	1702.7404	10579.55	9702.5
906.5246	1704.461	10504.4	9622.25
906.666	1706.1808	10490.5	9610.15
906.8073	1707.8999	10486.25	9606.3
906.9487	1709.6182	10455	9574.95
907.09	1711.3358	10384.15	9505.2
907.2313	1713.0527	10353.15	9475.3
907.3725	1714.7688	10316.4	9433.5
907.5138	1716.4841	10266.75	9385.55
907.655	1718.1987	10269.15	9385.75
907.7962	1719.9126	10234.05	9356.25
907.9374	1721.6257	10179.4	9296.6
908.0786	1723.338	10181.25	9301.85
908.2198	1725.0496	10147.7	9266.15
908.3609	1726.7605	10124.7	9243.6
908.502	1728.4706	10091	9211.8
908.6431	1730.18	10034.3	9151.5
908.7842	1731.8886	10054.75	9177.55
908.9253	1733.5964	10013.8	9113.9
909.0664	1735.3036	10029.85	9147.9
909.2074	1737.0099	10009.5	9132.85
909.3484	1738.7156	9988.4	9107.65
909.4894	1740.4204	9940.55	9057.65
909.6304	1742.1246	9936.3	9053.1
909.7714	1743.8279	9894.9	9015.45
909.9123	1745.5306	9888.9	9011.35
910.0532	1747.2325	9867.1	8987.05
910.1941	1748.9336	9820.05	8940.9
910.335	1750.634	9807.4	8925
910.4759	1752.3336	9807.5	8927.65
910.6168	1754.0325	9802.45	8926.7
910.7576	1755.7307	9782	8901.65
910.8984	1757.4281	9773.9	8895.15
911.0392	1759.1247	9745.3	8860.5
911.18	1760.8206	9725.4	8840.05
911.3208	1762.5158	9707.45	8824.1
911.4615	1764.2102	9684	8805.6
911.6022	1765.9039	9666.85	8785.95
911.7429	1767.5968	9633.2	8755
911.8836	1769.289	9641.5	8760
912.0243	1770.9804	9623.8	8743.5
912.1649	1772.6711	9590	8710.25
912.3056	1774.361	9565.6	8686.35
912.4462	1776.0502	9530.8	8650.35
912.5868	1777.7386	9531.95	8648.6
912.7274	1779.4263	9492	8613.4
912.8679	1781.1132	9486.45	8609.15
913.0084	1782.7994	9445.85	8564.9
913.149	1784.4849	9443.85	8566.15
913.2895	1786.1696	9397.35	8499.3
913.4299	1787.8535	9398.3	8519.95
913.5704	1789.5367	9387.05	8508.65
913.7108	1791.2192	9367.3	8487.85
913.8513	1792.9009	9344.35	8445.35
913.9917	1794.5818	9321.25	8442.65
914.132	1796.2621	9283.05	8404.7
914.2724	1797.9415	9256.7	8376.65
914.4128	1799.6202	9222.75	8345.45
914.5531	1801.2982	9201.15	8323.45
914.6934	1802.9755	9183.25	8303.35
914.8337	1804.6519	9178	8299.35
914.9739	1806.3277	9134.8	8255.3
915.1142	1808.0027	9125.15	8246
915.2544	1809.6769	9099.55	8221.5
915.3946	1811.3504	9081.35	8200.3
915.5348	1813.0231	9056.5	8176.35
915.675	1814.6951	9049.6	8171.95
915.8151	1816.3664	9054.3	8171.65
915.9553	1818.0369	9050.5	8172
916.0954	1819.7067	8996.6	8117.5
916.2355	1821.3757	8967	8086.2
916.3755	1823.044	8940.45	8062.65
916.5156	1824.7115	8943.3	8062.8
916.6556	1826.3783	8913.5	8034
916.7956	1828.0443	8883.65	8003.7
916.9356	1829.7096	8863.35	7982.6
917.0756	1831.3741	8882.3	7999.8
917.2155	1833.0379	8837.9	7959.2
917.3555	1834.701	8805.85	7922.8
917.4954	1836.3633	8802.2	7922.3
917.6353	1838.0248	8769.15	7887
917.7751	1839.6856	8759.85	7880.8
917.915	1841.3457	8750.05	7870.7
918.0548	1843.005	8717	7837.65
918.1946	1844.6636	8708.5	7831.8
918.3344	1846.3214	8693.2	7813.4
918.4742	1847.9785	8675.55	7797.25
918.6139	1849.6349	8670.5	7788.75
918.7537	1851.2904	8648.85	7760
918.8934	1852.9453	8603.8	7725
919.0331	1854.5994	8573.4	7689.45
919.1727	1856.2528	8575.5	7692.4
919.3124	1857.9054	8552.3	7672.1
919.452	1859.5572	8548	7669.9
919.5916	1861.2083	8541.35	7659.05
919.7312	1862.8587	8544.95	7666.05
919.8708	1864.5084	8521.45	7642.1
920.0103	1866.1572	8508.55	7629.75
920.1498	1867.8054	8464	7585.25
920.2893	1869.4528	8456.6	7578.35
920.4288	1871.0994	8421.95	7542.95
920.5683	1872.7453	8420.4	7539.4
920.7077	1874.3905	8402.55	7516.5
920.8471	1876.0349	8339.5	7459.45
920.9865	1877.6786	8364.15	7484.95
921.1259	1879.3215	8348.3	7468.6
921.2653	1880.9637	8319.8	7439
921.4046	1882.6051	8332.6	7453.75
921.5439	1884.2458	8307.4	7426.05
921.6832	1885.8858	8267.8	7387.8
921.8225	1887.525	8259.4	7377.75
921.9617	1889.1634	8235.65	7356.2
922.101	1890.8011	8196.55	7315.35
922.2402	1892.4381	8188.05	7308.35
922.3794	1894.0743	8199.05	7322.25
922.5185	1895.7098	8163.65	7284.4
922.6577	1897.3446	8151.9	7270.4
922.7968	1898.9786	8120.9	7237.55
922.9359	1900.6118	8128.5	7248.9
923.075	1902.2443	8085.75	7204.25
923.214	1903.8761	8081.35	7202.85
923.3531	1905.5071	8053.1	7173.85
923.4921	1907.1374	8012.7	7132.6
923.6311	1908.7669	8000.6	7122.05
923.77	1910.3957	8001.65	7123.95
923.909	1912.0237	7923.1	7042.25
924.0479	1913.651	7931.15	7050.95
924.1868	1915.2776	7934.05	7055.75
924.3257	1916.9034	7890.5	7011.35
924.4646	1918.5285	7852.65	6974.6
924.6034	1920.1528	7839.4	6958.95
924.7422	1921.7764	7823.3	6944.95
924.881	1923.3992	7788.05	6909.1
925.0198	1925.0213	7769.1	6890.55
925.1586	1926.6427	7710.6	6832.55
925.2973	1928.2633	7854.05	6765.95
925.436	1929.8832	7727	6844.3
925.5747	1931.5023	7673.85	6793.1
925.7134	1933.1207	7660.7	6780.45
925.852	1934.7383	7633.15	6755
925.9906	1936.3552	7606.4	6727.35
926.1292	1937.9714	7603.1	6723.2
926.2678	1939.5868	7571.15	6690.05
926.4064	1941.2015	7542.45	6662.75
926.5449	1942.8154	7503.1	6624.75
926.6834	1944.4286	7482.2	6603.25
926.8219	1946.041	7486.15	6581.5
926.9604	1947.6528	7440.1	6556.3
927.0988	1949.2637	7404.3	6526.95
927.2372	1950.8739	7406.45	6527.2
927.3756	1952.4834	7376.2	6496.5
927.514	1954.0921	7367.4	6487.4
927.6523	1955.7001	7340.9	6457.8
927.7907	1957.3074	7353.55	6474.5
927.929	1958.9139	7314.45	6435.7
928.0673	1960.5197	7309.2	6429.45
928.2055	1962.1247	7260.75	6383.5
928.3438	1963.729	7223	6343.4
928.482	1965.3325	7223.8	6321.1
928.6202	1966.9353	7196.1	6319.25
928.7584	1968.5374	7172.4	6293.1
928.8965	1970.1387	7153	6273.05
929.0346	1971.7393	7122.35	6243.05
929.1727	1973.3392	7116.55	6234.05
929.3108	1974.9383	7097.75	6219.8
929.4489	1976.5366	7085.75	6208.35
929.5869	1978.1342	7058.05	6179.4
929.7249	1979.7311	7045.15	6167.8
929.8629	1981.3273	7057	6176.65
930.0009	1982.9227	7044.05	6163.85
930.1388	1984.5173	7000.6	6124.3
930.2767	1986.1112	6968.15	6089.5
930.4146	1987.7044	6950.8	6073.05
930.5525	1989.2968	6949.95	6070.1
930.6904	1990.8885	6934.1	6053.05
930.8282	1992.4795	6945.35	6064.45
930.966	1994.0697	6899.95	6020.9
931.1038	1995.6592	6881.1	6002.05
931.2415	1997.2479	6865	5987.35
931.3793	1998.8359	6861.65	5983.4
931.517	2000.4232	6824.25	5945.25
931.6547	2002.0097	6827.45	5950.95
931.7923	2003.5955	6766.35	5887.45
931.93	2005.1805	6780.55	5898.35
932.0676	2006.7648	6776.15	5900.2
932.2052	2008.3484	6740.8	5860.2
932.3427	2009.9312	6743.75	5862.5
932.4803	2011.5133	6716	5838.8
932.6178	2013.0946	6695.65	5815.2
932.7553	2014.6752	6701.45	5824.9
932.8928	2016.2551	6681.05	5800.5
933.0302	2017.8342	6646.9	5769.65
933.1676	2019.4126	6628.25	5749.75
933.305	2020.9902	6622.05	5744.4
933.4424	2022.5672	6627.3	5746.35
933.5798	2024.1433	6614.25	5731.3
933.7171	2025.7188	6574.9	5697.4
933.8544	2027.2935	6571.4	5692.55
933.9917	2028.8674	6551.25	5673.3
934.129	2030.4406	6528	5650.4
934.2662	2032.0131	6502.2	5623.2
934.4034	2033.5849	6494.4	5604.6
934.5406	2035.1559	6485.2	5608.45
934.6778	2036.7261	6469	5591.4
934.8149	2038.2957	6462.45	5584.15
934.952	2039.8645	6433.3	5555.45
935.0891	2041.4325	6446.5	5565.2
935.2262	2042.9998	6432.9	5553.85
935.3632	2044.5664	6446.4	5567.1
935.5002	2046.1323	6424.05	5546.15
935.6372	2047.6974	6403.1	5526.8
935.7742	2049.2617	6381.2	5503.15
935.9111	2050.8254	6394.05	5493.3
936.048	2052.3883	6381.55	5503.65
936.1849	2053.9504	6365.15	5486.55
936.3218	2055.5118	6325.25	5447.05
936.4586	2057.0725	6308.3	5426.25
936.5955	2058.6325	6324.85	5446.7
936.7323	2060.1917	6291.7	5415.05
936.869	2061.7502	6276.45	5394.05
937.0058	2063.3079	6267.35	5390.75
937.1425	2064.8649	6259.4	5376.05
937.2792	2066.4212	6249.35	5367.1
937.4159	2067.9767	6239.05	5363.3
937.5525	2069.5315	6199.65	5321.25
937.6891	2071.0856	6173.5	5294.15
937.8257	2072.6389	6159.25	5277.65
937.9623	2074.1915	6163.6	5284.65
938.0989	2075.7433	6140.6	5261.75
938.2354	2077.2945	6122.4	5244.85
938.3719	2078.8448	6100.55	5223.85
938.5084	2080.3945	6095.2	5216.5
938.6448	2081.9434	6092.9	5215.6
938.7812	2083.4916	6058.15	5179.65
938.9176	2085.039	6039.7	5158.05
939.054	2086.5857	6067.05	5188.2
939.1903	2088.1317	6030.75	5150.85
939.3267	2089.677	6017.65	5139.25
939.463	2091.2215	6018.95	5141.4
939.5992	2092.7652	5985.65	5103.4
939.7355	2094.3083	5993.2	5113.95
939.8717	2095.8506	5974.7	5098.45
940.0079	2097.3921	5982.3	5103.85
940.1441	2098.933	5958.65	5080.95
940.2802	2100.4731	5944.75	5066.75
940.4163	2102.0124	5943.6	5047.4
940.5524	2103.5511	5949.85	5070.35
940.6885	2105.089	5943.9	5064.85
940.8245	2106.6261	5927.25	5048.15
940.9606	2108.1626	5929.25	5048.6
941.0965	2109.6983	5930.2	5023.85
941.2325	2111.2332	5909	5030.6
941.3684	2112.7675	5865.7	4984.2
941.5044	2114.301	5867.75	4989.15
941.6403	2115.8337	5880.45	5001.25
941.7761	2117.3657	5855.05	4976.15
941.912	2118.897	5861.75	4984.85
942.0478	2120.4276	5821	4935.85
942.1835	2121.9575	5825.45	4947.4
942.3193	2123.4866	5822.8	4940.35
942.455	2125.0149	5806.2	4923.6
942.5907	2126.5426	5772	4893.55
942.7264	2128.0695	5756.6	4872.3
942.8621	2129.5956	5755.85	4877.65
942.9977	2131.1211	5751.4	4868.8
943.1333	2132.6458	5752	4876.05
943.2689	2134.1698	5731.65	4852.65
943.4044	2135.693	5707.5	4826.45
943.54	2137.2155	5703.3	4821.05
943.6755	2138.7373	5703.7	4825.1
943.8109	2140.2584	5675.55	4797.15
943.9464	2141.7787	5674.35	4791.85
944.0818	2143.2983	5659.5	4782.25
944.2172	2144.8171	5628.35	4750.2
944.3526	2146.3353	5622.05	4741.4
944.4879	2147.8527	5593.75	4716.4
944.6232	2149.3693	5590.5	4711.6
944.7585	2150.8853	5585.95	4706.95
944.8938	2152.4005	5556.2	4677
945.029	2153.9149	5550	4669.95
945.1642	2155.4287	5539.65	4660.75
945.2994	2156.9417	5547.25	4668.8
945.4346	2158.454	5521.3	4639.4
945.5697	2159.9655	5481.15	4603.6
945.7048	2161.4764	5494.95	4614.4
945.8399	2162.9865	5464.55	4584.95
945.9749	2164.4958	5464.9	4584.6
946.1099	2166.0045	5451.65	4568.8
946.2449	2167.5124	5452.95	4574.55
946.3799	2169.0195	5429.85	4552
946.5148	2170.526	5423	4541.85
946.6498	2172.0317	5404.9	4527.1
946.7846	2173.5367	5391.85	4511.65
946.9195	2175.0409	5379.85	4503.3
947.0543	2176.5445	5371.75	4493.9
947.1891	2178.0473	5349.25	4469.6
947.3239	2179.5494	5361.55	4477.85
947.4587	2181.0507	5325	4446.75
947.5934	2182.5513	5313.1	4435.95
947.7281	2184.0512	5304.05	4424.65
947.8628	2185.5504	5289	4410.85
947.9974	2187.0488	5256.85	4378.55
948.132	2188.5465	5265.95	4388.35
948.2666	2190.0435	5242	4360.85
948.4012	2191.5397	5231.85	4352.75
948.5357	2193.0353	5210.6	4333.45
948.6702	2194.5301	5192.5	4312.7
948.8047	2196.0241	5190.75	4312.85
948.9392	2197.5175	5176	4297.25
949.0736	2199.0101	5159.8	4278.7
949.208	2200.502	5150.2	4271.05
949.3424	2201.9931	5138.75	4258.65
949.4767	2203.4835	5099.25	4217.5
949.611	2204.9733	5100.25	4214.55
949.7453	2206.4622	5110.65	4234
949.8796	2207.9505	5080.35	4198.45
950.0138	2209.438	5046.8	4168.8
950.148	2210.9248	5035.35	4153.95
950.2822	2212.4109	5028.45	4149.9
950.4164	2213.8962	5024.55	4141.7
950.5505	2215.3809	4997.55	4118.05
950.6846	2216.8648	4995.6	4117.65
950.8186	2218.3479	4973.5	4090.4
950.9527	2219.8304	4977.2	4095.3
951.0867	2221.3121	4969.3	4089.2
951.2207	2222.7931	4937.75	4058.8
951.3546	2224.2733	4922.25	4041.9
951.4886	2225.7529	4920.9	4042.8
951.6225	2227.2317	4904.7	4022.85
951.7563	2228.7098	4896.55	4020.25
951.8902	2230.1872	4886.3	4007.05
952.024	2231.6638	4877.5	3997.5
952.1578	2233.1397	4851.65	3968.05
952.2916	2234.6149	4821.6	3942.2
952.4253	2236.0894	4820.8	3941.55
952.559	2237.5632	4829.05	3948.45
952.6927	2239.0362	4801.45	3922.5
952.8263	2240.5085	4781.15	3903.3
952.9599	2241.9801	4773.1	3894.1
953.0935	2243.4509	4765.9	3889.05
953.2271	2244.921	4756.65	3877.75
953.3606	2246.3904	4726.2	3845.45
953.4941	2247.8591	4726.55	3849.15
953.6276	2249.3271	4708.05	3828.8
953.7611	2250.7943	4689.85	3810.1
953.8945	2252.2608	4690.8	3814.15
954.0279	2253.7266	4677.6	3798.55
954.1612	2255.1917	4660.35	3782.9
954.2946	2256.656	4640.7	3761.05
954.4279	2258.1197	4620.2	3742.95
954.5612	2259.5826	4613.8	3734
954.6944	2261.0447	4622.25	3742.1
954.8276	2262.5062	4610.25	3728.2
954.9608	2263.9669	4599.85	3720.05
955.094	2265.4269	4592.35	3714.85
955.2271	2266.8862	4571.6	3692.4
955.3602	2268.3448	4571.4	3692.85
955.4933	2269.8026	4554.6	3675.2
955.6264	2271.2598	4552.95	3674.65
955.7594	2272.7162	4537.05	3661.7
955.8924	2274.1719	4517.85	3639.3
956.0253	2275.6268	4519.85	3640.65
956.1583	2277.0811	4505.8	3626.9
956.2912	2278.5346	4498.05	3620.8
956.4241	2279.9874	4486.15	3608.75
956.5569	2281.4395	4476.05	3598.95
956.6897	2282.8908	4461.15	3577.05
956.8225	2284.3414	4454	3575.15
956.9553	2285.7914	4460.2	3580.8
957.088	2287.2406	4426.4	3544.8
957.2207	2288.689	4424.55	3545.1
957.3534	2290.1368	4402.45	3523.6
957.486	2291.5838	4396.35	3515.3
957.6186	2293.0302	4392.25	3512.9
957.7512	2294.4758	4366.05	3488.8
957.8838	2295.9206	4377.5	3497.1
958.0163	2297.3648	4348.3	3469.8
958.1488	2298.8082	4354.25	3475.9
958.2813	2300.251	4347.9	3469.05
958.4137	2301.693	4329.15	3447.9
958.5461	2303.1343	4329.35	3450.15
958.6785	2304.5748	4296.05	3415.75
958.8108	2306.0147	4291.9	3412.7
958.9432	2307.4538	4282.25	3400.45
959.0754	2308.8922	4276.45	3398.25
959.2077	2310.3299	4250.8	3372.8
959.3399	2311.7669	4242.1	3363.05
959.4721	2313.2031	4246.8	3368.55
959.6043	2314.6387	4216.9	3337.15
959.7365	2316.0735	4206.55	3328.25
959.8686	2317.5076	4217.9	3338.6
960.0006	2318.941	4189.05	3310
960.1327	2320.3737	4194	3315.9
960.2647	2321.8056	4188.9	3308.55
960.3967	2323.2369	4165.4	3286.25
960.5287	2324.6674	4154.25	3273
960.6606	2326.0972	4154.7	3273.95
960.7925	2327.5263	4129.05	3250.85
960.9244	2328.9547	4121.2	3243.3
961.0562	2330.3823	4097.4	3218.5
961.1881	2331.8092	4118.55	3235.5
961.3198	2333.2355	4097.25	3217.65
961.4516	2334.661	4102.8	3223.45
961.5833	2336.0858	4086.2	3205.3
961.715	2337.5098	4076.5	3196.1
961.8467	2338.9332	4065.05	3185.15
961.9783	2340.3558	4053.65	3169.35
962.1099	2341.7778	4039.85	3159.9
962.2415	2343.199	4029.5	3150.55
962.373	2344.6195	4019.9	3140.7
962.5045	2346.0393	4014.55	3135.75
962.636	2347.4583	3994.55	3115.6
962.7675	2348.8767	4004.3	3123.8
962.8989	2350.2943	3990.3	3111.7
963.0303	2351.7113	3984.4	3102.25
963.1617	2353.1275	3971.1	3091.8
963.293	2354.543	3965.4	3077.65
963.4243	2355.9578	3950.3	3071.3
963.5556	2357.3718	3917.65	3038.55
963.6868	2358.7852	3908.6	3026.35
963.818	2360.1978	3901.8	3022.2
963.9492	2361.6098	3902.35	3022.45
964.0803	2363.021	3902.45	3019.65
964.2114	2364.4315	3870.8	2992.9
964.3425	2365.8413	3866.35	2980.6
964.4736	2367.2504	3842.3	2964.25
964.6046	2368.6587	3834	2951.8
964.7356	2370.0664	3833.65	2954.15
964.8666	2371.4733	3822.8	2944.25
964.9975	2372.8795	3796.25	2917.3
965.1284	2374.285	3796.5	2918.45
965.2593	2375.6899	3778.8	2901.7
965.3901	2377.0939	3753	2872.4
965.5209	2378.4973	3754.3	2878.15
965.6517	2379.9	3751.75	2869.9
965.7825	2381.3019	3731.4	2853.5
965.9132	2382.7032	3731.7	2853.4
966.0439	2384.1037	3711.1	2829.8
966.1745	2385.5035	3703.9	2825.3
966.3051	2386.9027	3705.65	2826.1
966.4357	2388.3011	3698.8	2817.8
966.5663	2389.6987	3672.95	2795.2
966.6968	2391.0957	3651.05	2771.85
966.8273	2392.492	3657.75	2779
966.9578	2393.8876	3637.75	2756.1
967.0882	2395.2824	3627.6	2748.9
967.2186	2396.6765	3617.05	2740.5
967.349	2398.07	3598	2718.25
967.4793	2399.4627	3599.2	2719.05
967.6097	2400.8547	3602.15	2721.65
967.7399	2402.246	3584.95	2699.35
967.8702	2403.6366	3560.85	2682.2
968.0004	2405.0265	3552.45	2672.65
968.1306	2406.4156	3555.55	2671.25
968.2607	2407.8041	3546.55	2664.1
968.3909	2409.1918	3507.25	2625.5
968.521	2410.5789	3508.7	2628.6
968.651	2411.9652	3495.05	2612.35
968.781	2413.3508	3479.05	2598.7
968.911	2414.7358	3477.45	2598.25
969.041	2416.12	3460.9	2584.25
969.1709	2417.5035	3447.75	2568.8
969.3008	2418.8863	3456.55	2577
969.4307	2420.2684	3442.15	2563.3
969.5606	2421.6497	3422.7	2542.8
969.6904	2423.0304	3410.6	2530.65
969.8201	2424.4104	3393.05	2512.3
969.9499	2425.7896	3413.25	2531
970.0796	2427.1682	3396.15	2517.05
970.2093	2428.546	3391.7	2510.15
970.3389	2429.9232	3378.6	2497.8
970.4685	2431.2996	3365.75	2486.3
970.5981	2432.6753	3352.2	2472.6
970.7277	2434.0503	3347.15	2467.8
970.8572	2435.4246	3331.1	2453.75
970.9867	2436.7982	3330.2	2447.55
971.1161	2438.1711	3311.6	2432.5
971.2456	2439.5433	3315.65	2435.15
971.375	2440.9148	3296.45	2410.4
971.5043	2442.2856	3291.75	2413.4
971.6336	2443.6557	3295.7	2412.65
971.7629	2445.025	3272.15	2391.35
971.8922	2446.3937	3268.25	2387.9
972.0214	2447.7617	3267.95	2388.2
972.1506	2449.1289	3258.75	2379.95
972.2798	2450.4955	3248	2365
972.4089	2451.8613	3244.65	2368.25
972.538	2453.2265	3225.65	2347.6
972.6671	2454.5909	3227.65	2346.4
972.7961	2455.9546	3220.2	2340.4
972.9251	2457.3177	3201.55	2322.85
973.0541	2458.68	3208.85	2326.8
973.1831	2460.0416	3219	2340.05
973.312	2461.4025	3205.6	2324.85
973.4408	2462.7627	3199.2	2309.6
973.5697	2464.1222	3173.5	2298.4
973.6985	2465.4811	3178.25	2298.45
973.8273	2466.8392	3164.6	2285.4
973.956	2468.1966	3165.95	2284.8
974.0847	2469.5533	3146	2264.15
974.2134	2470.9093	3156.05	2275.75
974.3421	2472.2645	3132.5	2251
974.4707	2473.6191	3118.5	2240.05
974.5993	2474.973	3117.2	2237.3
974.7278	2476.3262	3100.2	2217.3
974.8563	2477.6787	3107.55	2229.35
974.9848	2479.0305	3084.25	2203.3
975.1132	2480.3816	3081.1	2200.5
975.2417	2481.7319	3082.95	2204.9
975.37	2483.0816	3060.5	2180.05
975.4984	2484.4306	3056.25	2174.75
975.6267	2485.7789	3033.7	2154.9
975.755	2487.1264	3048.65	2168.7
975.8833	2488.4733	3021.6	2143.95
976.0115	2489.8195	3026.65	2142.25
976.1397	2491.165	3015.2	2133.65
976.2678	2492.5097	3002.45	2122.1
976.3959	2493.8538	3008.05	2128.3
976.524	2495.1972	2971.5	2092
976.6521	2496.5398	2964.4	2084.4
976.7801	2497.8818	2970.25	2087.95
976.9081	2499.2231	2952.35	2071.85
977.036	2500.5637	2946.7	2066.85
977.164	2501.9035	2944.65	2064.35
977.2918	2503.2427	2947.95	2065.1
977.4197	2504.5812	2929.25	2051.45
977.5475	2505.919	2928.1	2046.95
977.6753	2507.256	2914.75	2032.65
977.8031	2508.5924	2904.95	2025.3
977.9308	2509.9281	2916.7	2030.75
978.0585	2511.2631	2902	2024.25
978.1861	2512.5974	2890.7	2010.2
978.3137	2513.9309	2888.6	2008.45
978.4413	2515.2638	2898.2	1989.95
978.5689	2516.596	2861.65	1983.25
978.6964	2517.9275	2854.95	1974.25
978.8239	2519.2583	2857.5	1975.45
978.9513	2520.5884	2847.9	1967.1
979.0788	2521.9178	2833.35	1952.8
979.2062	2523.2465	2826.45	1947.75
979.3335	2524.5745	2821.25	1940.35
979.4608	2525.9018	2810.8	1930.65
979.5881	2527.2284	2811.15	1932.8
979.7154	2528.5543	2787.2	1908.25
979.8426	2529.8796	2791.35	1910.75
979.9698	2531.2041	2791.85	1913.2
980.0969	2532.5279	2780.75	1903.5
980.224	2533.851	2766.55	1887.9
980.3511	2535.1735	2760.4	1882.1
980.4781	2536.4952	2769.55	1889.15
980.6052	2537.8163	2755.1	1874.65
980.7321	2539.1366	2745.15	1865.4
980.8591	2540.4562	2752.15	1872.6
980.986	2541.7752	2742.45	1863.75
981.1129	2543.0935	2743.95	1864.35
981.2397	2544.411	2742.4	1862.1
981.3665	2545.7279	2713.45	1835.55
981.4933	2547.0441	2722.15	1842.3
981.62	2548.3596	2716.15	1833.55
981.7467	2549.6744	2713.6	1835.25
981.8734	2550.9885	2704.25	1814.75
982.0001	2552.3019	2684.85	1807.25
982.1267	2553.6146	2702.6	1824.6
982.2532	2554.9266	2686.4	1807.65
982.3798	2556.2379	2679.1	1796.7
982.5063	2557.5485	2674.8	1798.1
982.6327	2558.8585	2678.95	1789.85
982.7592	2560.1677	2676.9	1794.65
982.8856	2561.4762	2668.4	1789.75
983.0119	2562.7841	2664.25	1779.4
983.1383	2564.0913	2641.9	1763.4
983.2646	2565.3977	2651.95	1771.35
983.3908	2566.7035	2642.05	1763.5
983.517	2568.0086	2643	1761.35
983.6432	2569.313	2639.5	1760.2
983.7694	2570.6167	2646.7	1764.5
983.8955	2571.9197	2628.4	1749.1
984.0216	2573.222	2631.1	1748.25
984.1476	2574.5236	2615.05	1734.15
984.2737	2575.8246	2612.65	1730.55
984.3996	2577.1248	2616.4	1734.25
984.5256	2578.4244	2593	1714.4
984.6515	2579.7232	2603.05	1723.25
984.7774	2581.0214	2614.25	1709.15
984.9032	2582.3189	2600.7	1722.4
985.029	2583.6157	2581.95	1697.3
985.1548	2584.9118	2592.6	1712.35
985.2806	2586.2072	2560.65	1680.75
985.4063	2587.5019	2566.45	1687.8
985.5319	2588.7959	2569.35	1689.4
985.6576	2590.0893	2562.25	1681.05
985.7832	2591.3819	2553.35	1674.35
985.9087	2592.6739	2547.75	1667.95
986.0343	2593.9652	2544.2	1664.75
986.1597	2595.2557	2536.7	1657.8
986.2852	2596.5456	2531.25	1647.7
986.4106	2597.8348	2528	1650.75
986.536	2599.1234	2516.6	1638.55
986.6614	2600.4112	2509.9	1630.05
986.7867	2601.6983	2499.3	1617.45
986.912	2602.9848	2504.35	1623.8
987.0372	2604.2705	2493.2	1606.35
987.1624	2605.5556	2489.65	1611.65
987.2876	2606.84	2470.5	1591.7
987.4128	2608.1237	2461.05	1581
987.5379	2609.4067	2444.85	1566.25
987.6629	2610.689	2466.2	1577.9
987.788	2611.9707	2454.85	1573.8
987.913	2613.2516	2445.8	1561.35
988.0379	2614.5319	2432.35	1553.3
988.1629	2615.8115	2419.65	1540.15
988.2878	2617.0903	2416.85	1537.65
988.4126	2618.3685	2410.35	1530.9
988.5375	2619.6461	2411.5	1531.65
988.6622	2620.9229	2395.45	1515.45
988.787	2622.199	2390.65	1512.2
988.9117	2623.4745	2394.7	1516.15
989.0364	2624.7493	2384.1	1504.3
989.161	2626.0234	2376.7	1498.45
989.2857	2627.2968	2365.45	1485.9
989.4102	2628.5695	2370.9	1489.2
989.5348	2629.8415	2355.1	1476.3
989.6593	2631.1128	2357.7	1477.2
989.7837	2632.3835	2342.15	1463.15
989.9082	2633.6535	2325.35	1444.8
990.0326	2634.9228	2326.65	1447.25
990.1569	2636.1914	2325.7	1448.35
990.2812	2637.4593	2329.9	1448.05
990.4055	2638.7265	2318.25	1438.2
990.5298	2639.9931	2308.95	1430.45
990.654	2641.259	2303.2	1422.75
990.7782	2642.5242	2299.1	1419.7
990.9023	2643.7887	2303.4	1424.15
991.0264	2645.0525	2294.7	1414.65
991.1505	2646.3156	2288.1	1408.4
991.2745	2647.5781	2271.75	1393.55
991.3985	2648.8398	2270.45	1390.3
991.5225	2650.1009	2270.45	1383.1
991.6464	2651.3613	2250.2	1369.8
991.7703	2652.6211	2259.35	1380.05
991.8942	2653.8801	2250.7	1373.1
992.018	2655.1385	2251.9	1370.4
992.1418	2656.3961	2236.5	1359.3
992.2655	2657.6531	2239.35	1360.1
992.3892	2658.9094	2223.1	1342.85
992.5129	2660.1651	2229.35	1350.85
992.6366	2661.42	2226.2	1345.8
992.7602	2662.6743	2224.5	1345.35
992.8837	2663.9279	2215.85	1338.25
993.0073	2665.1808	2216.95	1336.8
993.1307	2666.433	2211.7	1330.9
993.2542	2667.6846	2199.25	1322.4
993.3776	2668.9354	2200.45	1317.4
993.501	2670.1856	2202.7	1323.6
993.6244	2671.4351	2192.55	1313.4
993.7477	2672.6839	2189.7	1310.4
993.8709	2673.9321	2192.3	1314.6
993.9942	2675.1795	2186.65	1307.85
994.1174	2676.4263	2181.55	1302.3
994.2405	2677.6724	2164.65	1284.2
994.3637	2678.9179	2156.75	1277.55
994.4868	2680.1626	2165.1	1285.8
994.6098	2681.4067	2145.1	1264.7
994.7328	2682.6501	2152.4	1274.35
994.8558	2683.8928	2139.85	1262.7
994.9788	2685.1348	2130.4	1252.4
995.1017	2686.3761	2124.65	1247.9
995.2245	2687.6168	2132.15	1255.75
995.3474	2688.8568	2118.15	1239.55
995.4702	2690.0961	2122.45	1243.2
995.5929	2691.3348	2111.85	1231.45
995.7156	2692.5727	2105.5	1223.75
995.8383	2693.81	2094.8	1215.7
995.961	2695.0466	2095.35	1217.2
996.0836	2696.2826	2090.35	1210.8
996.2062	2697.5178	2103.95	1222.9
996.3287	2698.7524	2098.8	1220.9
996.4512	2699.9863	2090.9	1210.45
996.5737	2701.2195	2082.5	1204.15
996.6961	2702.452	2078.35	1197.4
996.8185	2703.6839	2073.85	1192.35
996.9408	2704.9151	2056.1	1178.05
997.0631	2706.1456	2055.9	1177.4
997.1854	2707.3755	2067.6	1187.6
997.3077	2708.6046	2048.3	1166.25
997.4299	2709.8331	2043.05	1163.45
997.552	2711.0609	2044	1163.3
997.6742	2712.2881	2038.15	1157.75
997.7963	2713.5145	2040.1	1158.3
997.9183	2714.7403	2032.65	1154.05
998.0403	2715.9654	2023.25	1145.1
998.1623	2717.1899	2032.7	1140.15
998.2842	2718.4136	2018.55	1140.9
998.4062	2719.6367	2009.55	1130.05
998.528	2720.8591	2015.6	1131.4
998.6498	2722.0809	2003.6	1124.65
998.7716	2723.3019	2007.15	1123.35
998.8934	2724.5223	2001.7	1121.75
999.0151	2725.7421	1995.5	1115.6
999.1368	2726.9611	1984.35	1102.1
999.2584	2728.1795	1991.05	1106.45
999.38	2729.3972	1976.85	1098.35
999.5016	2730.6142	1975.05	1083.15
999.6231	2731.8306	1960.35	1081
999.7446	2733.0462	1950.85	1071.15
999.8661	2734.2612	1951	1066.45
999.9875	2735.4756	1948.85	1067.1
1000.1089	2736.6892	1934.65	1054.2
1000.2302	2737.9022	1929.4	1052.55
1000.3515	2739.1145	1929.55	1051.65
1000.4728	2740.3262	1926.15	1040.35
1000.594	2741.5372	1908.35	1031.85
1000.7152	2742.7475	1910.55	1031.2
1000.8363	2743.9571	1916.75	1034.35
1000.9575	2745.1661	1908.9	1025.35
1001.0785	2746.3744	1899.45	1020.8
1001.1996	2747.582	1890.05	1009.2
1001.3206	2748.7889	1896	1014.35
1001.4415	2749.9952	1898.8	1019.55
1001.5625	2751.2008	1882.4	1003.9
1001.6833	2752.4057	1887.85	1006.25
1001.8042	2753.61	1874.05	992.35
1001.925	2754.8136	1864.75	984.25
1002.0458	2756.0165	1863.3	984.05
1002.1665	2757.2188	1865.05	987.7
1002.2872	2758.4204	1858.9	979.85
1002.4078	2759.6213	1860.7	979.4
1002.5285	2760.8215	1854.25	971.6
1002.649	2762.0211	1853.2	972.2
1002.7696	2763.22	1847.45	965.5
1002.8901	2764.4182	1846.35	965
1003.0106	2765.6158	1831.7	952.3
1003.131	2766.8127	1835.9	955.85
1003.2514	2768.009	1826.75	948.1
1003.3717	2769.2045	1825.65	945.05
1003.492	2770.3994	1824.75	945.6
1003.6123	2771.5936	1826.55	945.6
1003.7325	2772.7872	1814.9	935.5
1003.8527	2773.9801	1808.2	925.55
1003.9729	2775.1723	1824.8	927.6
1004.093	2776.3639	1801.25	923.35
1004.2131	2777.5548	1795.75	912.1
1004.3331	2778.745	1792.55	912.85
1004.4531	2779.9346	1781.35	903.75
1004.5731	2781.1235	1779.15	900.4
1004.693	2782.3117	1779.3	901.6
1004.8129	2783.4992	1779.4	900.65
1004.9328	2784.6861	1768.25	888.65
1005.0526	2785.8723	1772.35	890.45
1005.1723	2787.0579	1764.95	884.25
1005.2921	2788.2428	1764.15	884.8
1005.4118	2789.427	1762	882.9
1005.5314	2790.6106	1754.85	876.8
1005.651	2791.7935	1757.7	877.05
1005.7706	2792.9757	1750.6	875.1
1005.8902	2794.1573	1744.8	863.5
1006.0097	2795.3382	1737.65	859.05
1006.1291	2796.5184	1733.9	855.9
1006.2485	2797.698	1735.1	853.95
1006.3679	2798.8769	1728.7	848.8
1006.4873	2800.0551	1726.3	846.45
1006.6066	2801.2327	1721.35	841.15
1006.7258	2802.4096	1717.55	837.1
1006.8451	2803.5859	1715.1	835.4
1006.9642	2804.7615	1707.5	825.45
1007.0834	2805.9364	1717.65	839.95
1007.2025	2807.1106	1712.15	834.05
1007.3216	2808.2842	1707.55	828.45
1007.4406	2809.4572	1700.25	821.5
1007.5596	2810.6294	1699.55	819.45
1007.6785	2811.801	1703.65	824.5
1007.7975	2812.972	1700.95	822.9
1007.9163	2814.1423	1692.05	812.45
1008.0352	2815.3119	1698.3	818.15
1008.154	2816.4808	1698.3	818.7
1008.2727	2817.6491	1703.85	825.75
1008.3914	2818.8167	1694.3	816.05
1008.5101	2819.9837	1709.7	825.45
1008.6288	2821.15	1709.7	831.15
1008.7474	2822.3157	1703.05	825.95
1008.8659	2823.4807	1716.6	837.3
1008.9844	2824.645	1725.55	844.3
1009.1029	2825.8086	1732.85	854.4
1009.2214	2826.9716	1734.55	857.15
1009.3398	2828.134	1743.55	866.85
1009.4581	2829.2957	1754.7	874.75
1009.5764	2830.4567	1758.05	879.3
1009.6947	2831.617	1747.2	865.55
1009.813	2832.7767	1751.7	873.15
1009.9312	2833.9358	1759.65	881.15
1010.0493	2835.0941	1748.75	867.9
1010.1675	2836.2519	1741.7	863.8
1010.2855	2837.4089	1745.1	864.65
1010.4036	2838.5653	1737.55	861
1010.5216	2839.7211	1726.7	849.25
1010.6396	2840.8761	1711.35	832.35
1010.7575	2842.0306	1714.15	836.35
1010.8754	2843.1843	1714.25	836.05
1010.9932	2844.3374	1711.3	833.6
1011.111	2845.4899	1712.4	831.75
1011.2288	2846.6417	1707.95	828.4
1011.3465	2847.7928	1709.3	830.95
1011.4642	2848.9433	1715.85	837.45
1011.5818	2850.0931	1710.3	832.2
1011.6995	2851.2422	1712.35	831.15
1011.817	2852.3907	1713.95	834.35
1011.9345	2853.5385	1712.75	831.55
1012.052	2854.6857	1712.8	824.55
1012.1695	2855.8323	1711.5	833.7
1012.2869	2856.9781	1703.05	825.5
1012.4042	2858.1233	1707.9	828.7
1012.5216	2859.2679	1710.55	831.6
1012.6389	2860.4118	1712.2	831.95
1012.7561	2861.555	1719.85	835.55
1012.8733	2862.6976	1713.55	832.55
1012.9905	2863.8395	1720.85	841.7
1013.1076	2864.9808	1715.3	834.9
1013.2247	2866.1214	1709.9	831.1
1013.3417	2867.2614	1718.35	838.4
1013.4587	2868.4007	1707.65	827.95
1013.5757	2869.5393	1706.95	823.65
1013.6926	2870.6773	1711.7	830.8
1013.8095	2871.8146	1717.5	836.45
1013.9263	2872.9513	1712.75	830.95
1014.0431	2874.0874	1709.6	830.65
1014.1599	2875.2227	1706.9	825.4
1014.2766	2876.3574	1707.7	829.25
1014.3933	2877.4915	1705.7	826.5
1014.51	2878.6249	1713.3	835.5
1014.6266	2879.7577	1706.6	826.2
1014.7431	2880.8898	1715.5	829.25
1014.8596	2882.0212	1705.75	827.9
1014.9761	2883.152	1704.65	823.85
1015.0925	2884.2821	1700.45	821.3
1015.2089	2885.4116	1702.45	824.05
1015.3253	2886.5405	1708.6	829.2
1015.4416	2887.6686	1701.2	820.4
1015.5579	2888.7962	1689.35	811.9
1015.6741	2889.923	1691.35	813.35
1015.7903	2891.0493	1695.7	818.8
1015.9065	2892.1748	1694.6	814.6
1016.0226	2893.2997	1677.5	796.85
1016.1387	2894.424	1691.7	814.1
1016.2547	2895.5476	1687.1	810.2
1016.3707	2896.6706	1673.35	795.75
1016.4866	2897.7929	1680.35	800.35
1016.6025	2898.9145	1680.25	799.8
1016.7184	2900.0355	1676.6	796
1016.8342	2901.1559	1672.95	794.7
1016.95	2902.2756	1663	783.7
1017.0658	2903.3946	1666.65	787.15
1017.1815	2904.513	1665.2	782.2
1017.2971	2905.6308	1660.8	782.8
1017.4127	2906.7479	1648.85	769.4
1017.5283	2907.8643	1647.7	768.95
1017.6439	2908.9801	1647.85	770.8
1017.7594	2910.0953	1641.05	761.65
1017.8748	2911.2098	1638.9	756.5
1017.9902	2912.3236	1640.7	752
1018.1056	2913.4368	1640	757.45
1018.2209	2914.5494	1629.65	750.45
1018.3362	2915.6613	1633.8	749.9
1018.4515	2916.7725	1624.75	741.25
1018.5667	2917.8831	1622.75	742.65
1018.6819	2918.9931	1611	728.6
1018.797	2920.1024	1611.1	731.45
1018.9121	2921.211	1604.85	724.9
1019.0271	2922.319	1599.3	720.55
1019.1421	2923.4264	1594.6	714.9
1019.2571	2924.5331	1583.7	707.15
1019.372	2925.6391	1583.35	705.2
1019.4869	2926.7445	1585.45	706.95
1019.6017	2927.8493	1584	705.6
1019.7165	2928.9534	1591.7	711.25
1019.8313	2930.0569	1579.3	698.75
1019.946	2931.1597	1585.5	704.95
1020.0606	2932.2619	1583.8	704.6
1020.1753	2933.3634	1570.4	692.05
1020.2899	2934.4643	1590.1	705.75
1020.4044	2935.5645	1578.2	691.9
1020.5189	2936.6641	1587.45	704.05
1020.6334	2937.763	1573.35	694.3
1020.7478	2938.8613	1580.35	701.1
1020.8622	2939.959	1578.45	696.8
1020.9765	2941.056	1567.95	689.5
1021.0908	2942.1523	1550.4	670
1021.2051	2943.248	1544.4	664.6
1021.3193	2944.3431	1531.6	653.65
1021.4334	2945.4375	1521.65	642.55
1021.5476	2946.5313	1507.35	630.25
1021.6617	2947.6244	1490.1	612
1021.7757	2948.7169	1484.8	606.1
1021.8897	2949.8087	1473.5	595.05
1022.0037	2950.8999	1462.35	582.7
1022.1176	2951.9904	1455.9	577.65
1022.2315	2953.0803	1446	567.55
1022.3453	2954.1696	1440.8	561.55
1022.4591	2955.2582	1442.3	565
1022.5728	2956.3462	1425.95	546.4
1022.6865	2957.4335	1430.7	552.3
1022.8002	2958.5202	1424.95	544.7
1022.9138	2959.6062	1416.25	538
1023.0274	2960.6916	1417.3	538.1
1023.141	2961.7764	1412.5	531.15
1023.2545	2962.8605	1409.05	530.55
1023.3679	2963.9439	1407.85	530.65
1023.4813	2965.0267	1409.4	529.5
1023.5947	2966.1089	1429.95	526.5
1023.708	2967.1905	1407.05	527.65
1023.8213	2968.2714	1394.75	516.7
1023.9346	2969.3516	1392.85	514.05
1024.0478	2970.4312	1405.25	520.9
1024.1609	2971.5102	1391.1	514.35
1024.274	2972.5885	1391.55	513.35
1024.3871	2973.6662	1388.6	503.25
1024.5002	2974.7432	1387.7	509.45
1024.6132	2975.8196	1388.15	509.1
1024.7261	2976.8954	1375	497.45
1024.839	2977.9705	1379.95	503
1024.9519	2979.045	1376.85	497.2
1025.0647	2980.1188	1375.55	498.7
1025.1775	2981.192	1371.2	493.5
1025.2902	2982.2645	1374.45	496.05
1025.4029	2983.3364	1362.75	482.5
1025.5156	2984.4077	1366.65	486.6
1025.6282	2985.4783	1372.45	485.6
1025.7407	2986.5483	1352.9	475.25
1025.8532	2987.6177	1345.35	468.95
1025.9657	2988.6864	1342.9	463.05
1026.0782	2989.7545	1345.55	463.65
1026.1906	2990.8219	1335.9	457.1
1026.3029	2991.8887	1334.05	451.2
1026.4152	2992.9548	1328.45	448.35
1026.5275	2994.0204	1321.15	444.9
1026.6397	2995.0852	1320.15	444.5
1026.7519	2996.1495	1311.85	432.8
1026.864	2997.2131	1303.95	423.55
1026.9761	2998.276	1300.75	421.95
1027.0882	2999.3383	1299.45	420
1027.2002	3000.4	1300.8	421.5
1027.3122	3001.4611	1293.85	416.05
1027.4241	3002.5215	1288.8	410.85
1027.536	3003.5812	1281.7	404.5
1027.6478	3004.6404	1285	406.7
1027.7596	3005.6989	1281.3	402.95
1027.8714	3006.7567	1276.75	398.1
1027.9831	3007.8139	1297.75	396.55
1028.0947	3008.8705	1273.55	396.15
1028.2064	3009.9264	1269.25	385.75
1028.3179	3010.9818	1267.8	388.25
1028.4295	3012.0364	1267.95	388.65
1028.541	3013.0905	1258.6	379.4
1028.6524	3014.1439	1266.2	386.75
1028.7638	3015.1966	1252.7	374
1028.8752	3016.2487	1256.3	378.5
1028.9865	3017.3002	1259.3	375.65
1029.0978	3018.3511	1256.3	378.2
1029.209	3019.4013	1247.2	368.95
1029.3202	3020.4509	1240.3	363
1029.4314	3021.4998	1251.6	371.8
1029.5425	3022.5481	1248.95	370.05
1029.6535	3023.5958	1247.75	368.55
1029.7645	3024.6428	1236.2	356.35
1029.8755	3025.6892	1242.15	365.05
1029.9864	3026.735	1238	359
1030.0973	3027.7802	1239.45	362
1030.2082	3028.8247	1235	356.2
1030.319	3029.8685	1233.45	358.05
1030.4297	3030.9118	1231.95	352.3
1030.5404	3031.9544	1227.75	350.85
1030.6511	3032.9963	1233.5	353.8
1030.7617	3034.0376	1231.25	352.75
1030.8723	3035.0783	1232.7	351.4
1030.9829	3036.1184	1225.4	344.15
1031.0934	3037.1578	1224.1	345.85
1031.2038	3038.1966	1223.5	344.25
1031.3142	3039.2348	1219.4	339.85
1031.4246	3040.2723	1222.55	334.45
1031.5349	3041.3092	1215.1	340
1031.6452	3042.3455	1212.9	334.2
1031.7554	3043.3811	1212.8	334.4
1031.8656	3044.4161	1212.6	333.85
1031.9758	3045.4505	1209.2	331.95
1032.0859	3046.4842	1214.45	335.8
1032.1959	3047.5173	1204.9	326.8
1032.3059	3048.5498	1213.3	334.3
1032.4159	3049.5816	1211.55	332.15
1032.5258	3050.6128	1210.25	332.65
1032.6357	3051.6434	1211.85	332.7
1032.7455	3052.6734	1205.2	326.55
1032.8553	3053.7027	1206	328.05
1032.9651	3054.7314	1203.4	325.35
1033.0748	3055.7594	1203.65	326.2
1033.1845	3056.7868	1203.8	324.1
1033.2941	3057.8136	1202.7	324.65
1033.4037	3058.8398	1199.7	322.35
1033.5132	3059.8653	1195.35	317.7
1033.6227	3060.8902	1196.3	318.25
1033.7321	3061.9145	1195.95	318.5
1033.8415	3062.9381	1197.1	318.15
1033.9509	3063.9612	1205.8	311.2
1034.0602	3064.9835	1192.55	316.1
1034.1694	3066.0053	1191.65	310.05
1034.2787	3067.0264	1187.25	307.25
1034.3878	3068.0469	1190.75	310.65
1034.497	3069.0668	1195.15	313.55
1034.6061	3070.086	1189	311.75
1034.7151	3071.1046	1187.15	308.75
1034.8241	3072.1226	1185.55	305.95
1034.9331	3073.1399	1187.25	309.8
1035.042	3074.1567	1172.45	293.7
1035.1508	3075.1727	1182.65	303.2
1035.2597	3076.1882	1188.4	310.35
1035.3684	3077.203	1171.7	291.8
1035.4772	3078.2173	1177.8	298
1035.5859	3079.2308	1170.7	287.85
1035.6945	3080.2438	1171.7	292.6
1035.8031	3081.2561	1170.75	292.05
1035.9117	3082.2678	1166.6	287.65
1036.0202	3083.2789	1163.4	286.05
1036.1286	3084.2893	1160.25	280.75
1036.2371	3085.2991	1161.4	282.6
1036.3454	3086.3083	1163.05	279.25
1036.4538	3087.3169	1158.75	278.7
1036.562	3088.3248	1159.05	279.05
1036.6703	3089.3321	1155.5	275.55
1036.7785	3090.3388	1152.95	276.6
1036.8866	3091.3449	1155	276.7
1036.9948	3092.3503	1153.7	270.1
1037.1028	3093.3551	1151.9	274.65
1037.2108	3094.3593	1142.7	265.95
1037.3188	3095.3629	1149.9	271
1037.4267	3096.3658	1151.9	272.15
1037.5346	3097.3681	1141.2	264.15
1037.6425	3098.3698	1145.55	265.85
1037.7503	3099.3708	1143	259.7
1037.858	3100.3713	1137.35	259.55
1037.9657	3101.3711	1133.9	256.15
1038.0734	3102.3702	1271.8	257.5
1038.181	3103.3688	1140.95	259.65
1038.2886	3104.3667	1134.6	257.75
1038.3961	3105.364	1135.1	256.15
1038.5036	3106.3607	1131.05	250.55
1038.611	3107.3568	1132.45	254.3
1038.7184	3108.3522	1129.25	251.5
1038.8257	3109.347	1126.85	245.8
1038.933	3110.3412	1130.75	248.05
1039.0403	3111.3348	1126.4	249.2
1039.1475	3112.3277	1122.1	241.5
1039.2547	3113.32	1115.05	237.55
1039.3618	3114.3117	1122.75	243.95
1039.4689	3115.3028	1119.2	239.95
1039.5759	3116.2932	1119.45	238.15
1039.6829	3117.2831	1118.95	233.95
1039.7898	3118.2723	1114.05	235.85
1039.8967	3119.2608	1114.85	237.25
1040.0035	3120.2488	1107.85	229.55
1040.1103	3121.2361	1108.55	230.5
1040.2171	3122.2229	1107.6	229.4
1040.3238	3123.209	1105.9	225.3
1040.4305	3124.1944	1100.3	221.45
1040.5371	3125.1793	1106.5	225.5
1040.6437	3126.1635	1099.75	221.65
1040.7502	3127.1471	1103.4	224.05
1040.8567	3128.1301	1097.25	220
1040.9631	3129.1125	1094.8	217.45
1041.0695	3130.0942	1096.05	219.75
1041.1759	3131.0753	1107.9	222.05
1041.2822	3132.0558	1096.8	217.15
1041.3884	3133.0357	1096.6	217.05
1041.4946	3134.015	1097.3	219
1041.6008	3134.9936	1094.05	213.75
1041.7069	3135.9716	1115	215.3
1041.813	3136.949	1087.8	209.5
1041.919	3137.9258	1097.95	212.45
1042.025	3138.902	1094.75	210.65
1042.1309	3139.8775	1090.6	213
1042.2368	3140.8524	1087.2	208.2
1042.3427	3141.8267	1086.95	207.65
1042.4485	3142.8004	1084.85	205.5
1042.5542	3143.7735	1087.85	204.3
1042.6599	3144.7459	1083.95	204.95
1042.7656	3145.7178	1084.7	205.55
1042.8712	3146.689	1088.25	212.35
1042.9768	3147.6596	1080.85	200.25
1043.0823	3148.6295	1083.3	206.25
1043.1878	3149.5989	1079.8	202.45
1043.2932	3150.5676	1074.35	197.65
1043.3986	3151.5357	1073.95	198.2
1043.5039	3152.5032	1069.75	190.9
1043.6092	3153.4701	1072.5	192.95
1043.7145	3154.4364	1075	194.15
1043.8197	3155.402	1070.1	191.7
1043.9248	3156.367	1069.55	190.05
1044.03	3157.3315	1106.3	190.7
1044.135	3158.2952	1066.35	187.6
1044.24	3159.2584	1067.45	188.9
1044.345	3160.221	1065.6	186.5
1044.4499	3161.1829	1066.15	188.2
1044.5548	3162.1442	1067.3	188.3
1044.6596	3163.105	1061.3	182.65
1044.7644	3164.065	1065.5	188.35
1044.8692	3165.0245	1064.8	183.8
1044.9739	3165.9834	1056	181.05
1045.0785	3166.9416	1057.4	179.5
1045.1831	3167.8993	1058.45	181.8
1045.2877	3168.8563	1057.25	176.6
1045.3922	3169.8127	1051.85	172.35
1045.4966	3170.7684	1054.55	176.35
1045.6011	3171.7236	1052.5	172.45
1045.7054	3172.6782	1054.35	175.65
1045.8098	3173.6321	1055.5	177.55
1045.914	3174.5854	1052.6	168.6
1046.0183	3175.5381	1052.7	175.15
1046.1224	3176.4902	1052	171.35
1046.2266	3177.4417	1047.6	170.15
1046.3307	3178.3926	1047.8	167.7
1046.4347	3179.3428	1046.55	169.65
1046.5387	3180.2924	1047.65	170.55
1046.6427	3181.2415	1047.65	170.6
1046.7466	3182.1899	1043.2	163.5
1046.8504	3183.1377	1042.8	163.8
1046.9542	3184.0848	1046.35	165.85
1047.058	3185.0314	1041.9	162.5
1047.1617	3185.9773	1040.25	161.55
1047.2654	3186.9227	1037.6	159.55
1047.369	3187.8674	1039.45	160.55
1047.4726	3188.8115	1042.9	159.3
1047.5761	3189.755	1035.8	158.15
1047.6796	3190.6979	1033.3	153.3
1047.783	3191.6402	1033.95	157.75
1047.8864	3192.5818	1035.3	156.1
1047.9898	3193.5229	1039.75	156.25
1048.0931	3194.4633	1033.25	154.55
1048.1963	3195.4031	1033.25	154.25
1048.2995	3196.3423	1033.05	154
1048.4027	3197.2809	1029.35	151.85
1048.5058	3198.2189	1029.45	152.35
1048.6089	3199.1563	1038.4	152.6
1048.7119	3200.0931	1028.8	151.05
1048.8148	3201.0292	1029.45	152.35
1048.9178	3201.9648	1027.95	147.6
1049.0206	3202.8997	1028.9	146.75
1049.1235	3203.834	1025.55	146.6
1049.2262	3204.7677	1025.15	147
1049.329	3205.7008	1025.95	147.65
1049.4317	3206.6333	1024	144.9
1049.5343	3207.5652	1021.4	141
1049.6369	3208.4964	1023.1	145.25
1049.7394	3209.4271	1023	144.5
1049.8419	3210.3571	1019.1	139.8
1049.9444	3211.2865	1020.95	141.1
1050.0468	3212.2154	1018.65	138.9
1050.1491	3213.1436	1019.25	140.1
1050.2514	3214.0712	1021.55	136.25
1050.3537	3214.9982	1020	141.65
1050.4559	3215.9246	1016.15	135.35
1050.5581	3216.8503	1014	136.6
1050.6602	3217.7755	1015.55	136.65
1050.7623	3218.7001	1010.4	132.05
1050.8643	3219.624	1012.8	134.35
1050.9663	3220.5473	1013.8	134.2
1051.0682	3221.4701	1011.35	131.85
1051.1701	3222.3922	1010.6	129.15
1051.2719	3223.3137	1011.85	133
1051.3737	3224.2346	1010.2	129
1051.4754	3225.1549	1006.7	130.7
1051.5771	3226.0746	1008.45	130.65
1051.6788	3226.9937	1004.7	125.85
1051.7804	3227.9121	1006.15	128.8
1051.8819	3228.83	1005.6	128.2
1051.9834	3229.7473	1005.8	128.05
1052.0849	3230.6639	1005.65	124.8
1052.1863	3231.5799	1003.25	125.25
1052.2876	3232.4954	1003.65	123.75
1052.3889	3233.4102	999.4	121.35
1052.4902	3234.3244	1004.6	126.2
1052.5914	3235.238	1001.4	121.95
1052.6926	3236.151	1021.45	119.75
1052.7937	3237.0634	997.85	120.95
1052.8948	3237.9752	998.45	121.1
1052.9958	3238.8864	997.1	119.75
1053.0968	3239.797	996.4	115.7
1053.1977	3240.7069	997.2	118.55
1053.2986	3241.6163	997.95	116.1
1053.3994	3242.5251	994.9	118.8
1053.5002	3243.4332	991.45	114.75
1053.6009	3244.3408	991.4	111.95
1053.7016	3245.2477	989.65	111.5
1053.8022	3246.154	994.7	116.1
1053.9028	3247.0598	990.95	111
1054.0034	3247.9649	991	114.15
1054.1039	3248.8694	990.1	111.65
1054.2043	3249.7733	990.4	113.55
1054.3047	3250.6766	985.35	105.95
1054.4051	3251.5793	987.4	106.4
1054.5054	3252.4814	985.95	108.1
1054.6056	3253.3829	985.9	106.3
1054.7058	3254.2838	986.45	108.25
1054.806	3255.1841	984.85	107.15
1054.9061	3256.0838	982.8	105.7
1055.0061	3256.9829	980.15	103.35
1055.1062	3257.8814	982.8	102.15
1055.2061	3258.7792	985.5	106.25
1055.306	3259.6765	982.55	103.8
1055.4059	3260.5731	979.8	101
1055.5057	3261.4692	977.2	96.4
1055.6055	3262.3647	976.5	97.75
1055.7052	3263.2595	973.45	93.6
1055.8049	3264.1538	972.5	94.2
1055.9045	3265.0474	973.55	93.25
1056.0041	3265.9404	971	94.45
1056.1036	3266.8329	967.25	89.5
1056.2031	3267.7247	977.1	88.7
1056.3025	3268.616	964.55	88.4
1056.4019	3269.5066	963.5	81.7
1056.5013	3270.3966	962.4	82.35
1056.6005	3271.286	957.8	79.5
