Software Version:	3.9.2.0
Unit SN:	10000200
Spectrometer SN:	6960
Date:	3/6/2024 9:29:57 AM
Data Line Index:	25
Spectral Points:	2048
Integration time (ms):	125
Averages:	20
Delay (ms):	30
Sequence Number:	1
Processing:	dark subtract
Laser Power (mW):	305
Laser Current (mA):	822
Laser Diode Temp (C):	25.1
Laser Case Temp (C):	23.4
System Temp (C):	23.2
Spectrometer Temp (C):	20.9
CCD Temp (C):	-0.01
Secondary Temp (C):	20.014
Heatsink Temp (C):	17.628
CCDPCB Temp (C):	30.06
SecondaryPCB Temp (C):	25.347

Wavelength	RamanShift	Raw Counts	Dark Subtracted
787.061	30.1047	517.6	111.55
787.2016	32.3739	521.2	115.15
787.3422	34.6426	529.3	124.35
787.4828	36.9109	534.6	126.2
787.6235	39.1787	547.05	135.5
787.7642	41.4461	558.3	141.65
787.9049	43.7131	570.95	150.25
788.0456	45.9796	582.45	160.95
788.1863	48.2456	596.3	172.35
788.3271	50.5112	613.4	182.9
788.4679	52.7764	626.4	195.45
788.6087	55.0411	638	200.8
788.7496	57.3054	654.85	211.9
788.8904	59.5692	665.7	221.15
789.0313	61.8326	685.25	239.3
789.1722	64.0955	707.85	258.4
789.3132	66.3579	727.55	272.65
789.4541	68.6199	763.3	304.05
789.5951	70.8815	814.5	351.4
789.7361	73.1426	927.35	460.8
789.8771	75.4032	1209.75	741.85
790.0181	77.6634	1906.7	1434.8
790.1592	79.9231	3568.8	3093.5
790.3003	82.1824	7251.85	6770.15
790.4414	84.4412	13699.35	13208.75
790.5825	86.6995	22375.15	21876.9
790.7237	88.9574	30750.1	30244.65
790.8648	91.2148	36680.2	36170.35
791.006	93.4717	39778.55	39264.1
791.1472	95.7282	41152.5	40635.25
791.2885	97.9842	41847.2	41328.05
791.4297	100.2398	42152.45	41629.9
791.571	102.4949	42112.05	41587.7
791.7123	104.7495	42350.75	41820.7
791.8536	107.0036	42199.1	41667.95
791.9949	109.2573	42601.1	42072.65
792.1363	111.5105	42311.1	41778.8
792.2777	113.7632	42579.45	42044.1
792.4191	116.0154	42684.2	42139.75
792.5605	118.2672	43014.45	42475.05
792.7019	120.5185	42958.55	42417.6
792.8434	122.7693	43033.8	42489.75
792.9849	125.0197	43072.5	42524.55
793.1264	127.2696	43336.2	42784.85
793.2679	129.519	43531.05	42975.85
793.4094	131.7679	43851.7	43296.9
793.551	134.0163	43197.25	42637.15
793.6926	136.2642	43594.75	43032.7
793.8342	138.5117	43936.4	43371.8
793.9758	140.7587	43924.05	43358.1
794.1175	143.0052	44026.05	43457.8
794.2591	145.2512	43718.45	43148.05
794.4008	147.4967	44057.65	43486.65
794.5425	149.7417	43952.55	43377.85
794.6842	151.9863	44029.75	43450.75
794.826	154.2304	43687.65	43105.5
794.9677	156.4739	43898.5	43309.15
795.1095	158.717	44094.65	43506.85
795.2513	160.9596	44088.4	43497.1
795.3931	163.2017	43853.85	43260.55
795.535	165.4433	44154.95	43556.35
795.6768	167.6844	44011.9	43411.2
795.8187	169.925	44187.1	43583.85
795.9606	172.1651	44125.4	43520.4
796.1025	174.4047	44046.05	43434.4
796.2445	176.6439	44151.85	43539.85
796.3864	178.8825	44192.95	43579.25
796.5284	181.1206	44340.25	43721.45
796.6704	183.3582	44424.15	43802.1
796.8124	185.5954	44187.15	43563.25
796.9544	187.832	44429.25	43802
797.0965	190.0681	44402.45	43771.85
797.2386	192.3037	44649.45	44016.65
797.3806	194.5388	45046.6	44410.3
797.5228	196.7734	44472.6	43833.9
797.6649	199.0075	44918.4	44280.6
797.807	201.2411	45071.45	44429.65
797.9492	203.4742	45256.9	44612.7
798.0914	205.7068	45408.95	44762.95
798.2336	207.9389	45423.15	44774.15
798.3758	210.1704	45372.75	44734.25
798.518	212.4015	45669.45	45038.3
798.6603	214.632	45343	44718.5
798.8025	216.862	45724.4	45099.55
798.9448	219.0915	45825.45	45198
799.0871	221.3205	45671.7	45043.45
799.2294	223.549	45947.75	45320
799.3718	225.777	46008.4	45382.05
799.5141	228.0044	46086.65	45450.85
799.6565	230.2314	46190.6	45557.55
799.7989	232.4578	46122.7	45483.4
799.9413	234.6837	46155.15	45507.6
800.0837	236.909	46647.95	45995.7
800.2262	239.1339	46062.25	45390.15
800.3687	241.3582	46404.25	45744.5
800.5111	243.582	46346.8	45657.8
800.6536	245.8053	46503.5	45826.7
800.7961	248.0281	46457.1	45785.75
800.9387	250.2503	46573.35	45897.05
801.0812	252.472	46521.35	45841.5
801.2238	254.6932	46600.9	45924.25
801.3664	256.9139	46560.2	45881.75
801.509	259.134	46953.1	46269.3
801.6516	261.3536	46381.05	45699.75
801.7942	263.5727	46900.6	46218.6
801.9369	265.7912	46720.15	46036.8
802.0795	268.0092	46803.75	46121.8
802.2222	270.2267	46821.7	46140.05
802.3649	272.4436	46795.75	46108.1
802.5076	274.6601	46907.3	46209.95
802.6504	276.8759	46925.55	46231.4
802.7931	279.0913	47031	46336.8
802.9359	281.3061	46907.05	46212.55
803.0787	283.5204	47127.55	46431.4
803.2215	285.7341	47103.55	46403.2
803.3643	287.9473	47361.05	46651.85
803.5071	290.16	47139.7	46435.45
803.6499	292.3721	47493.95	46797.75
803.7928	294.5837	46900.35	46200
803.9357	296.7947	46868.05	46171.45
804.0786	299.0052	47080.7	46381.9
804.2215	301.2152	46937	46235.75
804.3644	303.4246	47238.35	46538.7
804.5074	305.6334	47132.25	46429.15
804.6503	307.8418	46930.25	46223.35
804.7933	310.0495	47044.2	46338.6
804.9363	312.2568	46946.35	46242.2
805.0793	314.4635	46820.45	46112
805.2223	316.6696	46811.25	46098.6
805.3653	318.8752	46928.25	46205.35
805.5084	321.0802	46382.15	45668.15
805.6514	323.2847	46604.45	45888.15
805.7945	325.4887	46597.4	45882.55
805.9376	327.692	46439.2	45721.85
806.0807	329.8949	46696.75	45976.9
806.2238	332.0972	46658.75	45938.05
806.367	334.2989	46786	46061.7
806.5101	336.5001	46847.9	46121.6
806.6533	338.7007	46628.55	45903.3
806.7965	340.9008	46788.7	46063.3
806.9397	343.1003	46743.9	46012.4
807.0829	345.2992	46811.95	46083.05
807.2261	347.4976	46649.6	45916.6
807.3693	349.6955	46681.95	45946.2
807.5126	351.8927	46713.05	45976.05
807.6559	354.0895	46673.4	45926.05
807.7991	356.2856	46657.75	45920.6
807.9424	358.4812	46750.8	46013.75
808.0857	360.6763	46654	45912.65
808.2291	362.8707	46603.5	45862.3
808.3724	365.0646	46631.15	45885.55
808.5158	367.258	46593.85	45845.2
808.6591	369.4508	46438.3	45687.55
808.8025	371.643	46536.8	45787.2
808.9459	373.8346	46449.65	45697.45
809.0893	376.0257	46405.05	45648.25
809.2327	378.2162	46374.05	45620.75
809.3762	380.4062	46375.15	45619.7
809.5196	382.5956	46282.9	45531.65
809.6631	384.7844	46330.05	45582.8
809.8066	386.9726	46157.5	45411.55
809.9501	389.1603	46187.9	45446.15
810.0936	391.3474	46032.95	45241.75
810.2371	393.5339	46177.7	45429.95
810.3806	395.7199	45892.55	45145.75
810.5241	397.9052	45911.75	45164
810.6677	400.09	45871.2	45122.55
810.8113	402.2743	45897.65	45149.6
810.9548	404.4579	45914.85	45164.6
811.0984	406.641	45884.9	45130.7
811.2421	408.8235	45990.7	45234.95
811.3857	411.0054	45968.8	45209.55
811.5293	413.1868	46037.35	45274.15
811.673	415.3675	46015.05	45248.3
811.8166	417.5477	46047.8	45283.05
811.9603	419.7273	45948	45180.35
812.104	421.9064	45811.7	45036.45
812.2477	424.0848	45703.8	44935.2
812.3914	426.2627	45666.85	44895.1
812.5351	428.4399	45482.15	44710.5
812.6788	430.6166	45365.8	44588.85
812.8226	432.7928	45314.65	44537.35
812.9663	434.9683	45135.5	44357.65
813.1101	437.1432	45135.75	44356.65
813.2539	439.3176	44971.05	44194.75
813.3977	441.4914	44791.55	44015.15
813.5415	443.6645	44769.2	43990.2
813.6853	445.8371	44668.1	43889.45
813.8291	448.0091	44419.6	43642.3
813.973	450.1806	44383.4	43605.25
814.1168	452.3514	44197.8	43416.25
814.2607	454.5216	44263.6	43471.75
814.4046	456.6913	44020.9	43235.65
814.5485	458.8603	44104.55	43323.25
814.6924	461.0288	44118.7	43338.4
814.8363	463.1967	43986	43203.25
814.9802	465.3639	44074.6	43289.9
815.1241	467.5306	43881.6	43097.75
815.2681	469.6967	43833.45	43047.9
815.412	471.8622	43703	42917.65
815.556	474.0271	43734.75	42949.9
815.7	476.1914	43691.15	42903.9
815.844	478.3551	43700.8	42913.45
815.988	480.5182	43715.15	42927
816.132	482.6807	43739.6	42953
816.276	484.8426	43724.7	42937.95
816.4201	487.0039	43809.4	43021.35
816.5641	489.1647	43825.15	43035.4
816.7082	491.3248	43859.9	43068.2
816.8522	493.4843	43849.15	43056.95
816.9963	495.6432	43853.05	43061.05
817.1404	497.8015	43645.5	42850.9
817.2845	499.9592	43719.65	42925.55
817.4286	502.1163	43676.4	42880.55
817.5727	504.2728	43458.15	42660.35
817.7168	506.4287	43591.6	42798.4
817.861	508.5839	43489.95	42694.3
818.0051	510.7386	43467.8	42672.8
818.1493	512.8927	43429.8	42624.05
818.2935	515.0461	43460.2	42660.25
818.4377	517.199	43432.85	42635.3
818.5818	519.3512	43411.35	42612.35
818.726	521.5029	43402.8	42597.55
818.8703	523.6539	43426.2	42624.9
819.0145	525.8043	43323.05	42520.2
819.1587	527.9541	43317.35	42512.85
819.303	530.1033	43256.35	42453.4
819.4472	532.2519	43106.7	42302.7
819.5915	534.3999	43054.45	42249.05
819.7357	536.5472	43025.1	42222.95
819.88	538.694	42998.95	42195.15
820.0243	540.8401	43074.95	42267.75
820.1686	542.9856	43069.75	42265.15
820.3129	545.1305	43012.7	42205.5
820.4572	547.2748	43055.35	42247.75
820.6016	549.4185	42977.5	42168.3
820.7459	551.5615	42857.75	42049.35
820.8902	553.704	42913.05	42104.75
821.0346	555.8458	42788.45	41980.25
821.1789	557.987	42869.15	42059.65
821.3233	560.1276	42834.65	42024.65
821.4677	562.2675	42837.95	42027.2
821.6121	564.4069	42839	42029.3
821.7565	566.5456	42720.35	41910.6
821.9009	568.6837	42704.15	41891.6
822.0453	570.8212	42513.85	41702.85
822.1897	572.958	42430.4	41615.95
822.3342	575.0942	42327.85	41517.85
822.4786	577.2299	42193.3	41379.45
822.6231	579.3648	42103.7	41289.35
822.7675	581.4992	41868.65	41054.2
822.912	583.6329	41782.4	40967.2
823.0565	585.766	41744.6	40931.1
823.201	587.8985	41672.15	40859.45
823.3454	590.0304	41609.15	40781.4
823.4899	592.1616	41514.8	40694.15
823.6345	594.2922	41492.15	40673.8
823.779	596.4222	41335.05	40515.8
823.9235	598.5515	41248.8	40428.45
824.068	600.6802	41108.35	40288.5
824.2126	602.8083	40907	40088.4
824.3571	604.9358	40920.75	40099.15
824.5017	607.0626	40831.75	40011.05
824.6462	609.1888	40764.8	39942.6
824.7908	611.3144	40711.1	39887.15
824.9354	613.4393	40667.35	39844.6
825.08	615.5636	40654.7	39832.65
825.2246	617.6873	40654.3	39830.65
825.3692	619.8103	40706.85	39882.1
825.5138	621.9327	40524.75	39698.05
825.6584	624.0544	40556.5	39733.9
825.803	626.1756	40530.45	39706.95
825.9477	628.2961	40433.15	39610
826.0923	630.4159	40283.75	39460.15
826.237	632.5351	40371.5	39546.3
826.3816	634.6537	40233.15	39408.7
826.5263	636.7716	40180.15	39352.7
826.6709	638.8889	40211.55	39384.1
826.8156	641.0056	40283.35	39456.8
826.9603	643.1216	40162.7	39331.15
827.105	645.237	40191.75	39361.3
827.2497	647.3518	40039.75	39210.95
827.3944	649.4659	40057.75	39228.9
827.5391	651.5793	39998.95	39168.3
827.6838	653.6922	39892.35	39064.7
827.8285	655.8043	39875.75	39046.7
827.9733	657.9159	39872.45	39040.9
828.118	660.0268	39755.15	38920.1
828.2627	662.137	39615.35	38781.85
828.4075	664.2466	39614.1	38776.2
828.5522	666.3556	39587.1	38755.2
828.697	668.4639	39455	38617.6
828.8418	670.5716	39495.2	38661.95
828.9865	672.6786	39450.15	38614.05
829.1313	674.785	39335.2	38498.45
829.2761	676.8907	39214.3	38379.4
829.4209	678.9958	39160.75	38323.55
829.5657	681.1002	39082.35	38246.05
829.7105	683.204	39018	38176
829.8553	685.3072	38988.15	38150.85
830.0001	687.4097	38883.05	38046
830.1449	689.5115	38869.4	38027.5
830.2898	691.6127	38867.1	38030.7
830.4346	693.7132	38791.1	37954.5
830.5794	695.8131	38854.3	37995.45
830.7243	697.9123	38765.55	37925.1
830.8691	700.0109	38699.1	37860.2
831.014	702.1089	38689.55	37852.05
831.1588	704.2061	38630.55	37790.8
831.3037	706.3028	38637.45	37796.95
831.4486	708.3987	38646.25	37804.95
831.5935	710.4941	38542	37700.45
831.7383	712.5887	38498.2	37656.6
831.8832	714.6827	38441.3	37597.8
832.0281	716.7761	38408.9	37568.05
832.173	718.8688	38336.15	37490.1
832.3179	720.9608	38286.75	37439.35
832.4628	723.0522	38332	37484
832.6077	725.1429	38225.25	37380.7
832.7527	727.233	38192.35	37349.95
832.8976	729.3224	38223.85	37380.6
833.0425	731.4112	38168.4	37324
833.1874	733.4993	38044.05	37196.4
833.3324	735.5867	37940.5	37095.6
833.4773	737.6735	37911.15	37062.05
833.6222	739.7596	37793.95	36947.4
833.7672	741.845	37734.55	36888.9
833.9122	743.9298	37628.7	36779.6
834.0571	746.014	37568.05	36724.05
834.2021	748.0974	37484.7	36635.9
834.347	750.1802	37407.9	36557.5
834.492	752.2624	37275.95	36428.95
834.637	754.3439	37172.35	36322.3
834.782	756.4247	37049.8	36194.7
834.9269	758.5048	36897.3	36049.05
835.0719	760.5843	36814.05	35965
835.2169	762.6631	36735.7	35885.4
835.3619	764.7413	36716.65	35867.2
835.5069	766.8188	36752.85	35903.05
835.6519	768.8956	36627.5	35775.25
835.7969	770.9718	36732.5	35882.25
835.9419	773.0473	36541.05	35693.15
836.0869	775.1221	36489.3	35637.6
836.232	777.1962	36371.85	35522.05
836.377	779.2697	36288.35	35437.8
836.522	781.3426	36306.35	35443.45
836.667	783.4147	36268.75	35415.05
836.8121	785.4862	36197.45	35347.8
836.9571	787.557	36081.45	35229.6
837.1021	789.6271	35971.75	35121.55
837.2472	791.6966	35830.95	34977.5
837.3922	793.7654	35643.2	34789.6
837.5373	795.8335	35642.45	34789.15
837.6823	797.901	35463.85	34610.6
837.8274	799.9678	35416.85	34562.55
837.9724	802.0339	35361.1	34508.2
838.1175	804.0993	35343.05	34480.9
838.2626	806.1641	35245.1	34389.1
838.4076	808.2282	35102.55	34250
838.5527	810.2916	35148.5	34292.85
838.6978	812.3544	35043.1	34191.35
838.8428	814.4164	34936.6	34084.95
838.9879	816.4778	35033.55	34179.8
839.133	818.5385	34901.95	34047.95
839.2781	820.5986	34943.75	34090.1
839.4232	822.658	34863.95	34006.85
839.5682	824.7166	34782.45	33924.4
839.7133	826.7747	34941.35	34086.85
839.8584	828.832	34858.75	34003.6
840.0035	830.8886	34727.85	33868.6
840.1486	832.9446	34713.05	33854.1
840.2937	834.9999	34629.6	33775
840.4388	837.0545	34520.6	33659.25
840.5839	839.1085	34424	33567.5
840.729	841.1618	34361.8	33500.95
840.8741	843.2143	34253.6	33396.05
841.0192	845.2662	34129.8	33271.05
841.1643	847.3175	34093.95	33237
841.3095	849.368	33978.75	33120.1
841.4546	851.4179	33924.8	33065.1
841.5997	853.467	33732.75	32875.15
841.7448	855.5155	33763.65	32904.05
841.8899	857.5633	33658.6	32800.15
842.0351	859.6105	33602.45	32743.45
842.1802	861.6569	33523.85	32665
842.3253	863.7027	33489.1	32629.5
842.4704	865.7478	33505.3	32645.9
842.6156	867.7922	33423.5	32562.7
842.7607	869.8359	33341.2	32481.2
842.9058	871.8789	33333.1	32472.95
843.0509	873.9212	33291.1	32399.3
843.1961	875.9629	33114.35	32254.5
843.3412	878.0039	33136.1	32273.35
843.4863	880.0441	33086	32226.35
843.6315	882.0837	33053.75	32191.2
843.7766	884.1226	33044.55	32182.6
843.9218	886.1609	32981.7	32121
844.0669	888.1984	32983.9	32122.55
844.212	890.2352	33050.05	32191.4
844.3572	892.2714	32985.15	32119.65
844.5023	894.3069	33028.25	32165.4
844.6475	896.3416	32816.8	31953.55
844.7926	898.3757	32793.6	31930.2
844.9377	900.4091	32725.85	31860.95
845.0829	902.4418	32630.75	31763.45
845.228	904.4739	32491.65	31625.4
845.3732	906.5052	32519.9	31654.65
845.5183	908.5358	32473.25	31612.35
845.6635	910.5658	32376.2	31511.05
845.8086	912.595	32274.35	31410.4
845.9538	914.6236	32113.45	31251.05
846.0989	916.6515	32151.4	31286.55
846.2441	918.6786	32012.6	31145.2
846.3892	920.7051	32006.3	31139.1
846.5344	922.7309	32019.95	31155.9
846.6795	924.756	31796.9	30931.05
846.8246	926.7804	31819.2	30952.05
846.9698	928.8041	31635.9	30769.1
847.1149	930.8272	31652.85	30786.15
847.2601	932.8495	31467.15	30601.1
847.4052	934.8711	31500.15	30634.9
847.5504	936.892	31337.95	30472
847.6955	938.9123	31275.35	30406.7
847.8407	940.9318	31204.45	30338.25
847.9858	942.9506	31178.2	30311.15
848.131	944.9688	31029.95	30164.5
848.2761	946.9862	30916.65	30050.9
848.4213	949.003	30766.75	29899.15
848.5664	951.019	30705.4	29838.5
848.7115	953.0344	30572.3	29703.7
848.8567	955.0491	30542.65	29674.15
849.0018	957.063	30534.65	29665.65
849.147	959.0763	30560.25	29696.2
849.2921	961.0888	30389.1	29519.65
849.4373	963.1007	30388.7	29521.7
849.5824	965.1119	30299.7	29432.25
849.7275	967.1223	30205.35	29337.1
849.8727	969.1321	30237.35	29369.1
850.0178	971.1412	30200.4	29331.8
850.1629	973.1495	30075.45	29207.3
850.3081	975.1572	30024.45	29110.95
850.4532	977.1641	30038.4	29169.4
850.5983	979.1704	29909.85	29039.25
850.7435	981.1759	29853.25	28981.3
850.8886	983.1808	29846.75	28974.85
851.0337	985.1849	29697.75	28821.2
851.1788	987.1884	29622.2	28751.8
851.324	989.1911	29581.45	28711.3
851.4691	991.1932	29473	28602.95
851.6142	993.1945	29359.8	28490.25
851.7593	995.1951	29182	28309.9
851.9045	997.1951	29231.6	28355.9
852.0496	999.1943	29061	28190.95
852.1947	1001.1928	28960.5	28089.65
852.3398	1003.1906	28804.3	27933.6
852.4849	1005.1877	28779.8	27908.25
852.63	1007.1841	28652.9	27782.7
852.7751	1009.1798	28552.75	27682.7
852.9202	1011.1748	28484.8	27611.7
853.0653	1013.1691	28414.35	27542.45
853.2104	1015.1627	28278.6	27408.95
853.3555	1017.1556	28093.75	27223.4
853.5006	1019.1477	28057.25	27183.25
853.6457	1021.1392	27878.2	27005.2
853.7908	1023.1299	27721.45	26851.05
853.9359	1025.12	27611.35	26740.05
854.081	1027.1093	27522.4	26654.75
854.2261	1029.0979	27449.9	26583.15
854.3712	1031.0859	27340.15	26470.15
854.5163	1033.0731	27314.95	26442.85
854.6613	1035.0596	27216.85	26347.4
854.8064	1037.0454	27093.45	26223.95
854.9515	1039.0304	27015.8	26144.45
855.0965	1041.0148	26907.65	26035.6
855.2416	1042.9985	26799.2	25926.6
855.3867	1044.9814	26792.8	25923.05
855.5317	1046.9636	26665.5	25792.3
855.6768	1048.9452	26551.25	25680.15
855.8219	1050.926	26516.35	25643.8
855.9669	1052.9061	26457.3	25587.45
856.112	1054.8855	26382.05	25510.15
856.257	1056.8642	26352.95	25480.1
856.4021	1058.8421	26321.1	25443.05
856.5471	1060.8194	26202.9	25329
856.6921	1062.7959	26137.8	25264.85
856.8372	1064.7717	26104.95	25230.75
856.9822	1066.7469	26017.55	25143.25
857.1272	1068.7213	25981.3	25106.95
857.2723	1070.695	25935.75	25064
857.4173	1072.6679	25809.85	24934.7
857.5623	1074.6402	25806.2	24932.85
857.7073	1076.6117	25796.4	24915.55
857.8523	1078.5826	25760.8	24886.8
857.9973	1080.5527	25630.1	24751.4
858.1423	1082.5221	25518.45	24644.8
858.2873	1084.4908	25491.2	24616.45
858.4323	1086.4587	25386.6	24508.9
858.5773	1088.426	25336.75	24462.8
858.7223	1090.3925	25238.75	24359.05
858.8673	1092.3584	25211.15	24338.35
859.0123	1094.3235	25104.35	24233.7
859.1573	1096.2879	25053.05	24176.25
859.3022	1098.2515	25002.3	24129.4
859.4472	1100.2145	25024.9	24149.1
859.5922	1102.1767	24965.55	24087.65
859.7371	1104.1382	24909.15	24034.1
859.8821	1106.099	24872.4	23994.7
860.027	1108.0591	24800.45	23928.2
860.172	1110.0185	24792.5	23917.05
860.3169	1111.9771	24808.3	23933.6
860.4619	1113.9351	24720.4	23844
860.6068	1115.8923	24747.75	23871.6
860.7517	1117.8488	24679.5	23801.65
860.8967	1119.8045	24566.1	23691.8
861.0416	1121.7596	24463.8	23588.25
861.1865	1123.7139	24288.9	23416
861.3314	1125.6675	24194.15	23318.65
861.4763	1127.6204	24190.6	23317.35
861.6212	1129.5726	24039.1	23160.55
861.7661	1131.524	24094	23219.05
861.911	1133.4748	24020.25	23144.95
862.0559	1135.4248	23955	23076.25
862.2008	1137.3741	23832.8	22958.35
862.3457	1139.3226	23736.85	22860.15
862.4905	1141.2705	23764.1	22887.45
862.6354	1143.2176	23598.15	22716.35
862.7803	1145.164	23605.85	22726.25
862.9251	1147.1097	23551.75	22674
863.07	1149.0546	23519.25	22640.15
863.2148	1150.9989	23477.3	22602.05
863.3597	1152.9424	23469.7	22592.9
863.5045	1154.8852	23377.1	22499.65
863.6493	1156.8272	23389.7	22512.6
863.7942	1158.7686	23341.3	22458
863.939	1160.7092	23238.6	22359.4
864.0838	1162.6491	23181.4	22303.55
864.2286	1164.5883	23174.95	22298.75
864.3734	1166.5267	23123.5	22246.4
864.5182	1168.4644	23061.1	22184.15
864.663	1170.4014	23055.75	22173.7
864.8078	1172.3377	23109.85	22234.85
864.9526	1174.2732	23092.1	22215.5
865.0974	1176.2081	23111.35	22231.55
865.2421	1178.1421	23125.2	22244.95
865.3869	1180.0755	23208.9	22332.55
865.5317	1182.0082	23151.9	22275.55
865.6764	1183.9401	23091.5	22214
865.8212	1185.8713	22986.4	22110.65
865.9659	1187.8017	22863.3	21986.7
866.1106	1189.7315	22766.05	21889.8
866.2554	1191.6605	22541.6	21665.95
866.4001	1193.5888	22428.3	21551.25
866.5448	1195.5163	22369.9	21492.25
866.6895	1197.4432	22276.3	21398.75
866.8342	1199.3693	22193.6	21316.2
866.9789	1201.2947	22082	21201.35
867.1236	1203.2193	22051.25	21171.2
867.2683	1205.1432	21998.3	21119.45
867.413	1207.0664	21904.75	21025.6
867.5576	1208.9889	21881.7	21001
867.7023	1210.9106	21770.55	20892.6
867.847	1212.8316	21688.6	20811.85
867.9916	1214.7519	21630.6	20741.15
868.1363	1216.6715	21548.35	20672.2
868.2809	1218.5903	21565.65	20687.25
868.4255	1220.5084	21489.1	20610.05
868.5701	1222.4257	21477.5	20598.5
868.7148	1224.3424	21392.25	20514.55
868.8594	1226.2583	21310.4	20424.95
869.004	1228.1735	21301.2	20420.85
869.1486	1230.0879	21253.4	20373.1
869.2932	1232.0016	21231.65	20352.35
869.4377	1233.9146	21194.9	20312.9
869.5823	1235.8269	21121.45	20241.5
869.7269	1237.7384	21117.6	20239.35
869.8715	1239.6492	21051.75	20172.1
870.016	1241.5592	21018.3	20139.1
870.1606	1243.4686	20959.05	20080.85
870.3051	1245.3772	21017.15	20139.1
870.4496	1247.285	20998.25	20118.65
870.5941	1249.1922	20987.35	20105.5
870.7387	1251.0986	21039.1	20163.3
870.8832	1253.0042	20958.55	20078.6
871.0277	1254.9092	21016.1	20137.1
871.1722	1256.8134	20997	20117.2
871.3167	1258.7169	21107.35	20226.95
871.4611	1260.6196	21067.85	20187.05
871.6056	1262.5216	21134.65	20252.6
871.7501	1264.4229	21046.6	20165.7
871.8945	1266.3234	21042.35	20162.75
872.039	1268.2232	20962.45	20081.7
872.1834	1270.1223	20888.45	20006.6
872.3278	1272.0207	20799.6	19920.25
872.4723	1273.9183	20717.95	19831.9
872.6167	1275.8151	20704.9	19826.1
872.7611	1277.7113	20702.65	19819.3
872.9055	1279.6067	20710.85	19830.7
873.0499	1281.5014	20779.7	19897.35
873.1943	1283.3953	20845	19964.85
873.3386	1285.2885	21015.1	20136.8
873.483	1287.181	21066.2	20183.65
873.6274	1289.0727	21167.45	20289.2
873.7717	1290.9637	21079.05	20199.6
873.9161	1292.854	21001.65	20119.25
874.0604	1294.7435	20848.1	19966.55
874.2047	1296.6323	20688.25	19807.2
874.349	1298.5204	20614	19729.55
874.4933	1300.4077	20492.35	19609.9
874.6376	1302.2943	20444.1	19565
874.7819	1304.1802	20420.55	19540.45
874.9262	1306.0653	20353.1	19469.6
875.0705	1307.9497	20268.8	19389.4
875.2147	1309.8333	20277.4	19397.85
875.359	1311.7162	20224.85	19343.35
875.5032	1313.5984	20170.35	19288.2
875.6475	1315.4798	20128.25	19235.5
875.7917	1317.3605	20072.3	19187.45
875.9359	1319.2405	20114.6	19233.3
876.0801	1321.1197	20053.3	19167.6
876.2243	1322.9982	19975.8	19089.9
876.3685	1324.876	19938.15	19057.9
876.5127	1326.753	19828.4	18946.75
876.6569	1328.6293	19744.2	18862.45
876.801	1330.5048	19690.55	18807.4
876.9452	1332.3796	19561.65	18683.75
877.0893	1334.2537	19513.45	18607.8
877.2335	1336.127	19474.1	18592.75
877.3776	1337.9996	19407.5	18525.85
877.5217	1339.8714	19317.55	18434.65
877.6658	1341.7426	19256.5	18331.9
877.8099	1343.6129	19214.75	18333.7
877.954	1345.4826	19155.7	18273.2
878.0981	1347.3515	19185.9	18302.85
878.2422	1349.2196	19106.1	18225.25
878.3862	1351.087	19053.95	18172.15
878.5303	1352.9537	19012.75	18128.8
878.6743	1354.8197	19020.3	18138.95
878.8184	1356.6849	19036.8	18155.65
878.9624	1358.5493	18988.9	18105.9
879.1064	1360.4131	18990.7	18109.4
879.2504	1362.276	18947.1	18066.85
879.3944	1364.1383	18912.85	18031.1
879.5384	1365.9998	18929.25	18041.4
879.6823	1367.8606	18824.1	17940.95
879.8263	1369.7206	18784.45	17901.3
879.9702	1371.5799	18755.55	17872.35
880.1142	1373.4384	18698.3	17817
880.2581	1375.2962	18657.4	17774.7
880.402	1377.1533	18523.7	17641.1
880.5459	1379.0096	18425.3	17542.6
880.6898	1380.8652	18340.85	17458.6
880.8337	1382.7201	18295.2	17414.55
880.9776	1384.5742	18190.05	17307.2
881.1215	1386.4275	18097.65	17214.95
881.2653	1388.2802	18036.4	17156.95
881.4092	1390.132	17970.8	17090.05
881.553	1391.9832	17977.6	17096.3
881.6968	1393.8336	17879.65	16997.25
881.8406	1395.6832	17810.65	16925.45
881.9844	1397.5322	17759.7	16878.55
882.1282	1399.3803	17717.95	16830.6
882.272	1401.2278	17611.3	16728
882.4158	1403.0745	17557.15	16674.85
882.5595	1404.9204	17470.25	16588.15
882.7033	1406.7656	17430.25	16547.2
882.847	1408.6101	17347	16463.75
882.9908	1410.4538	17317.15	16434.05
883.1345	1412.2968	17274.45	16392.35
883.2782	1414.139	17199.1	16317.2
883.4219	1415.9805	17203.4	16322.1
883.5656	1417.8213	17097.55	16194.6
883.7092	1419.6613	17064.25	16182.35
883.8529	1421.5006	17077.35	16194.5
883.9965	1423.3391	17036.05	16154.05
884.1402	1425.1769	17019.5	16135.4
884.2838	1427.0139	17013.15	16130.25
884.4274	1428.8502	17062.15	16177.75
884.571	1430.6858	17069.5	16188.9
884.7146	1432.5206	16990	16107.1
884.8582	1434.3547	17003.65	16120.95
885.0018	1436.188	16952.9	16070.8
885.1453	1438.0206	16946.05	16061.15
885.2889	1439.8524	16843	15959.35
885.4324	1441.6835	16837.3	15954.6
885.5759	1443.5139	16788	15901.2
885.7194	1445.3435	16712.9	15829.15
885.8629	1447.1724	16744.85	15862.25
886.0064	1449.0005	16737.4	15856.25
886.1499	1450.8279	16680.3	15794.5
886.2933	1452.6545	16663.4	15779.1
886.4368	1454.4804	16648.2	15763.7
886.5802	1456.3056	16636.5	15746.55
886.7237	1458.13	16531.8	15651.7
886.8671	1459.9536	16544.4	15662.2
887.0105	1461.7766	16525.2	15642.95
887.1539	1463.5987	16414.35	15529
887.2972	1465.4202	16372.3	15489.4
887.4406	1467.2409	16279.8	15396.7
887.584	1469.0608	16273.35	15392.25
887.7273	1470.88	16166.4	15281.9
887.8706	1472.6984	16132.7	15251.3
888.0139	1474.5161	16053.25	15168.25
888.1572	1476.3331	15987.15	15105.45
888.3005	1478.1493	15981.95	15097.7
888.4438	1479.9648	15967.1	15085.5
888.5871	1481.7795	15933.95	15050.4
888.7303	1483.5935	15913	15032.45
888.8736	1485.4067	15849.8	14966.7
889.0168	1487.2192	15856.7	14972.4
889.16	1489.031	15835.05	14949.8
889.3032	1490.842	15730.2	14847.75
889.4464	1492.6522	15757	14873.4
889.5896	1494.4618	15722.1	14838.45
889.7327	1496.2705	15708	14825.55
889.8759	1498.0785	15659.5	14775.5
890.019	1499.8858	15614.4	14731.55
890.1622	1501.6924	15554.8	14673.25
890.3053	1503.4981	15529.35	14647.3
890.4484	1505.3032	15509.4	14625.35
890.5914	1507.1075	15457.3	14574.95
890.7345	1508.911	15428.8	14547.4
890.8776	1510.7138	15400.5	14517.55
891.0206	1512.5159	15328	14443.3
891.1637	1514.3172	15278.1	14395.9
891.3067	1516.1178	15235.45	14355.55
891.4497	1517.9176	15204.7	14319.6
891.5927	1519.7166	15149.4	14268.2
891.7357	1521.515	15101.15	14211.85
891.8786	1523.3126	15067.1	14183.95
892.0216	1525.1094	15017.7	14130.65
892.1645	1526.9055	14948.8	14066.7
892.3074	1528.7008	14894.15	14009.7
892.4503	1530.4954	14827.75	13938.6
892.5932	1532.2893	14812.25	13931.05
892.7361	1534.0824	14698.85	13809.9
892.879	1535.8747	14720.75	13839.2
893.0218	1537.6663	14653.55	13769.95
893.1647	1539.4572	14583.65	13699.15
893.3075	1541.2473	14578.95	13695.55
893.4503	1543.0367	14498.3	13614.2
893.5931	1544.8253	14452.35	13567.95
893.7359	1546.6132	14420.2	13534.75
893.8787	1548.4003	14355.65	13460.2
894.0214	1550.1867	14328.3	13435.95
894.1642	1551.9723	14281.05	13393.45
894.3069	1553.7572	14250.3	13366.25
894.4496	1555.5414	14203.2	13321.8
894.5923	1557.3247	14193.35	13310.35
894.735	1559.1074	14166.2	13285.9
894.8777	1560.8893	14154	13271.7
895.0204	1562.6705	14120.7	13237.9
895.163	1564.4509	14107.5	13225
895.3056	1566.2305	14051.1	13171
895.4482	1568.0094	14059.8	13177.5
895.5908	1569.7876	14034.05	13150.15
895.7334	1571.565	14011.8	13127
895.876	1573.3417	13989.95	13108.75
896.0186	1575.1176	13950.15	13068.15
896.1611	1576.8928	13877.6	12996.15
896.3036	1578.6672	13839.25	12957.45
896.4461	1580.4409	13843.25	12962.95
896.5886	1582.2138	13796.6	12910.65
896.7311	1583.986	13806.85	12924.8
896.8736	1585.7575	13801	12918.95
897.0161	1587.5282	13768.4	12888.95
897.1585	1589.2981	13786.2	12903.9
897.3009	1591.0673	13716.3	12834.2
897.4433	1592.8358	13690.65	12809.2
897.5857	1594.6035	13669	12783.55
897.7281	1596.3704	13609.85	12727.8
897.8705	1598.1366	13539.5	12660.05
898.0128	1599.9021	13467.05	12585.05
898.1551	1601.6668	13362	12477.9
898.2975	1603.4308	13295.85	12413.7
898.4398	1605.194	13248.3	12359.4
898.5821	1606.9564	13216.6	12334.05
898.7243	1608.7182	13231.9	12345.5
898.8666	1610.4791	13259.1	12378.85
899.0088	1612.2394	13280.7	12400.9
899.1511	1613.9988	13311.9	12430.5
899.2933	1615.7576	13362.3	12481.25
899.4355	1617.5156	13387.2	12499.75
899.5776	1619.2728	13333.65	12451.45
899.7198	1621.0293	13276.45	12394.95
899.862	1622.785	13124.3	12239.95
900.0041	1624.54	12961	12076.55
900.1462	1626.2942	12854.8	11972.05
900.2883	1628.0477	12716.6	11830.7
900.4304	1629.8005	12602.8	11715.85
900.5725	1631.5525	12516.95	11634.85
900.7145	1633.3037	12424.6	11541.75
900.8566	1635.0542	12360.5	11480.5
900.9986	1636.804	12292.6	11408.25
901.1406	1638.553	12306.5	11335.65
901.2826	1640.3013	12211.1	11328.6
901.4245	1642.0488	12124.45	11242.65
901.5665	1643.7955	12106	11227.6
901.7085	1645.5416	12063.65	11180.1
901.8504	1647.2868	12011.25	11128.95
901.9923	1649.0313	11958.45	11076.85
902.1342	1650.7751	11911.45	11028.05
902.2761	1652.5181	11902.15	11020.95
902.4179	1654.2604	11851.95	10969.65
902.5598	1656.0019	11785.35	10903.7
902.7016	1657.7427	11771.6	10889.95
902.8434	1659.4828	11753.6	10873.55
902.9852	1661.222	11749.6	10867.7
903.127	1662.9606	11698.9	10817.5
903.2687	1664.6984	11728.35	10842.95
903.4105	1666.4354	11726.95	10842.95
903.5522	1668.1717	11680	10796.85
903.6939	1669.9072	11568.75	10685.5
903.8356	1671.642	11517.5	10632.55
903.9773	1673.3761	11465.6	10584.45
904.119	1675.1094	11431	10549.3
904.2606	1676.8419	11326.55	10444.55
904.4022	1678.5737	11243.75	10361.3
904.5439	1680.3048	11216.65	10334.3
904.6855	1682.0351	11150.35	10267.7
904.827	1683.7646	11080.7	10195.35
904.9686	1685.4934	11064	10180.75
905.1101	1687.2215	11011.55	10128.9
905.2517	1688.9488	10981.75	10098.6
905.3932	1690.6754	10928.95	10046.65
905.5347	1692.4012	10903.5	10022.95
905.6761	1694.1263	10851.65	9970.7
905.8176	1695.8506	10819.55	9938.75
905.9591	1697.5742	10777.45	9897.9
906.1005	1699.297	10712.85	9831.2
906.2419	1701.0191	10634.85	9753.75
906.3833	1702.7404	10607	9726.45
906.5246	1704.461	10583.75	9701.3
906.666	1706.1808	10536.5	9653.05
906.8073	1707.8999	10509	9626.3
906.9487	1709.6182	10479.25	9597.65
907.09	1711.3358	10471.15	9587.65
907.2313	1713.0527	10396.55	9517.6
907.3725	1714.7688	10388.6	9500.25
907.5138	1716.4841	10302.75	9418.05
907.655	1718.1987	10320.85	9434.95
907.7962	1719.9126	10296.95	9415.15
907.9374	1721.6257	10269.75	9383.9
908.0786	1723.338	10211.75	9328.15
908.2198	1725.0496	10159.55	9275.7
908.3609	1726.7605	10155.8	9273
908.502	1728.4706	10129.05	9246.5
908.6431	1730.18	10079.3	9197.25
908.7842	1731.8886	10056.55	9175.8
908.9253	1733.5964	10053.9	9150.85
909.0664	1735.3036	10038.05	9156.65
909.2074	1737.0099	10037.2	9154.65
909.3484	1738.7156	10006.55	9125.6
909.4894	1740.4204	9968.2	9082.65
909.6304	1742.1246	9941.25	9058.2
909.7714	1743.8279	9947.2	9066.95
909.9123	1745.5306	9921.5	9037.65
910.0532	1747.2325	9880.1	8998.75
910.1941	1748.9336	9847.55	8967.55
910.335	1750.634	9834.25	8950.75
910.4759	1752.3336	9821.7	8939.9
910.6168	1754.0325	9797.2	8914.3
910.7576	1755.7307	9792.7	8911.75
910.8984	1757.4281	9790.65	8908.05
911.0392	1759.1247	9796.25	8904.25
911.18	1760.8206	9748.35	8862.9
911.3208	1762.5158	9734.8	8849.75
911.4615	1764.2102	9682.2	8796.7
911.6022	1765.9039	9656.2	8775.85
911.7429	1767.5968	9630.25	8747.35
911.8836	1769.289	9640.45	8759.25
912.0243	1770.9804	9593	8709.4
912.1649	1772.6711	9609.75	8725.2
912.3056	1774.361	9571.35	8689
912.4462	1776.0502	9545.6	8663.55
912.5868	1777.7386	9544.95	8659.7
912.7274	1779.4263	9513.1	8630.4
912.8679	1781.1132	9498.65	8618.35
913.0084	1782.7994	9453.3	8569.7
913.149	1784.4849	9416.05	8534.05
913.2895	1786.1696	9428.15	8527.65
913.4299	1787.8535	9400.1	8519.4
913.5704	1789.5367	9351.9	8467.6
913.7108	1791.2192	9342.5	8461.35
913.8513	1792.9009	9324.35	8424.3
913.9917	1794.5818	9253.35	8372.95
914.132	1796.2621	9269.1	8387.85
914.2724	1797.9415	9229.75	8347.3
914.4128	1799.6202	9215.35	8332.9
914.5531	1801.2982	9200.05	8317.8
914.6934	1802.9755	9177.65	8292.7
914.8337	1804.6519	9153.65	8271.35
914.9739	1806.3277	9104.3	8222.05
915.1142	1808.0027	9113	8232.3
915.2544	1809.6769	9088.8	8205.7
915.3946	1811.3504	9056.3	8173.45
915.5348	1813.0231	9027.2	8145.1
915.675	1814.6951	9024.7	8141.65
915.8151	1816.3664	9022	8139.45
915.9553	1818.0369	8997	8115.15
916.0954	1819.7067	8933.5	8053
916.2355	1821.3757	8919.25	8035.95
916.3755	1823.044	8947.4	8066.75
916.5156	1824.7115	8894.65	8011.45
916.6556	1826.3783	8880.75	8001.6
916.7956	1828.0443	8848.4	7967.35
916.9356	1829.7096	8819.9	7936.6
917.0756	1831.3741	8815.95	7931.7
917.2155	1833.0379	8800.05	7919.15
917.3555	1834.701	8774.4	7892.8
917.4954	1836.3633	8760.1	7875.95
917.6353	1838.0248	8723.9	7842.2
917.7751	1839.6856	8716.65	7836.6
917.915	1841.3457	8716.8	7837.2
918.0548	1843.005	8691.1	7811.8
918.1946	1844.6636	8656.25	7774.7
918.3344	1846.3214	8638.75	7757.25
918.4742	1847.9785	8648.55	7765.6
918.6139	1849.6349	8607	7723.45
918.7537	1851.2904	8577.5	7685.2
918.8934	1852.9453	8555.95	7672.75
919.0331	1854.5994	8543.4	7660.55
919.1727	1856.2528	8545.5	7658.85
919.3124	1857.9054	8511.85	7627.9
919.452	1859.5572	8483.9	7602.55
919.5916	1861.2083	8500.95	7618.35
919.7312	1862.8587	8481.9	7599.95
919.8708	1864.5084	8458.45	7576.95
920.0103	1866.1572	8432.5	7550
920.1498	1867.8054	8378.3	7496.6
920.2893	1869.4528	8378.8	7495.2
920.4288	1871.0994	8365.9	7484
920.5683	1872.7453	8343.45	7462.6
920.7077	1874.3905	8326.75	7438.25
920.8471	1876.0349	8278.8	7397.15
920.9865	1877.6786	8277.4	7393.2
921.1259	1879.3215	8265.8	7384
921.2653	1880.9637	8278.7	7395.55
921.4046	1882.6051	8259.7	7378.8
921.5439	1884.2458	8229.1	7345.95
921.6832	1885.8858	8202.85	7321.05
921.8225	1887.525	8200.8	7317.45
921.9617	1889.1634	8169.2	7287.55
922.101	1890.8011	8136.35	7252.75
922.2402	1892.4381	8124.65	7244.35
922.3794	1894.0743	8106.35	7223.65
922.5185	1895.7098	8119.35	7237.25
922.6577	1897.3446	8100	7216.4
922.7968	1898.9786	8072	7186.45
922.9359	1900.6118	8043	7162.1
923.075	1902.2443	8005.9	7122.15
923.214	1903.8761	8002.4	7120.9
923.3531	1905.5071	7974.65	7090.6
923.4921	1907.1374	7937.15	7052.5
923.6311	1908.7669	7918.45	7036.7
923.77	1910.3957	7901.3	7019.05
923.909	1912.0237	7869.35	6986.8
924.0479	1913.651	7829.9	6946.6
924.1868	1915.2776	7834.45	6954.85
924.3257	1916.9034	7816.9	6935.75
924.4646	1918.5285	7756.25	6877.25
924.6034	1920.1528	7730.45	6846.4
924.7422	1921.7764	7722.4	6839.3
924.881	1923.3992	7694.15	6812.85
925.0198	1925.0213	7660.8	6777.55
925.1586	1926.6427	7635.3	6753.3
925.2973	1928.2633	7796.85	6709.35
925.436	1929.8832	7634.85	6750.55
925.5747	1931.5023	7569.75	6685.95
925.7134	1933.1207	7546.1	6665.7
925.852	1934.7383	7551.9	6669.25
925.9906	1936.3552	7515.15	6633.1
926.1292	1937.9714	7507.25	6624.75
926.2678	1939.5868	7484.75	6601.35
926.4064	1941.2015	7441.9	6560.15
926.5449	1942.8154	7421.25	6538.45
926.6834	1944.4286	7405.85	6521.85
926.8219	1946.041	7376.75	6473.5
926.9604	1947.6528	7325.7	6438.8
927.0988	1949.2637	7312.6	6431
927.2372	1950.8739	7294.1	6413.6
927.3756	1952.4834	7294.4	6410.7
927.514	1954.0921	7254.7	6373.35
927.6523	1955.7001	7239.8	6354.75
927.7907	1957.3074	7233.55	6354.5
927.929	1958.9139	7210.6	6329.3
928.0673	1960.5197	7187.5	6302.1
928.2055	1962.1247	7160	6280.15
928.3438	1963.729	7122.75	6241.05
928.482	1965.3325	7135.2	6231.6
928.6202	1966.9353	7091.75	6212.3
928.7584	1968.5374	7086.35	6203.55
928.8965	1970.1387	7055.8	6174.35
929.0346	1971.7393	7049.6	6169.35
929.1727	1973.3392	7008.75	6127.1
929.3108	1974.9383	7010.6	6129.65
929.4489	1976.5366	6951.75	6070.4
929.5869	1978.1342	6949.25	6066.35
929.7249	1979.7311	6962.8	6081.8
929.8629	1981.3273	6935.95	6053.2
930.0009	1982.9227	6905	6021.7
930.1388	1984.5173	6886.3	6005
930.2767	1986.1112	6865.45	5984.65
930.4146	1987.7044	6866.45	5985.6
930.5525	1989.2968	6832.45	5950.75
930.6904	1990.8885	6823.05	5940.7
930.8282	1992.4795	6821.45	5937.95
930.966	1994.0697	6798.35	5916.3
931.1038	1995.6592	6781.25	5902.35
931.2415	1997.2479	6766.5	5884.9
931.3793	1998.8359	6727.65	5846.65
931.517	2000.4232	6700	5818.45
931.6547	2002.0097	6687.5	5808
931.7923	2003.5955	6681.55	5800.55
931.93	2005.1805	6676.35	5793.3
932.0676	2006.7648	6663	5781.85
932.2052	2008.3484	6642.55	5759.75
932.3427	2009.9312	6653.4	5770.95
932.4803	2011.5133	6605.75	5726.45
932.6178	2013.0946	6605.8	5725.4
932.7553	2014.6752	6583.2	5701.35
932.8928	2016.2551	6565.6	5683.35
933.0302	2017.8342	6557.35	5676.95
933.1676	2019.4126	6526.75	5648.35
933.305	2020.9902	6510.15	5631.9
933.4424	2022.5672	6506.25	5624.6
933.5798	2024.1433	6494.15	5609.15
933.7171	2025.7188	6468.6	5591.35
933.8544	2027.2935	6435.3	5554.45
933.9917	2028.8674	6427.3	5547.65
934.129	2030.4406	6417.85	5537.6
934.2662	2032.0131	6378.15	5498.1
934.4034	2033.5849	6377.3	5491.5
934.5406	2035.1559	6377.15	5500.2
934.6778	2036.7261	6360.45	5481.15
934.8149	2038.2957	6349.35	5468.35
934.952	2039.8645	6345.55	5467.3
935.0891	2041.4325	6351.55	5468.2
935.2262	2042.9998	6303.95	5424.4
935.3632	2044.5664	6317.75	5433.65
935.5002	2046.1323	6288.95	5409.5
935.6372	2047.6974	6272.3	5390.55
935.7742	2049.2617	6253.85	5374.65
935.9111	2050.8254	6267.7	5365.4
936.048	2052.3883	6264.45	5381
936.1849	2053.9504	6238.35	5357.7
936.3218	2055.5118	6223.15	5342.6
936.4586	2057.0725	6181.15	5296.6
936.5955	2058.6325	6186.4	5305
936.7323	2060.1917	6180.9	5301.45
936.869	2061.7502	6169.65	5285.15
937.0058	2063.3079	6163.5	5282.5
937.1425	2064.8649	6135.6	5250.85
937.2792	2066.4212	6122.9	5242.3
937.4159	2067.9767	6124.1	5244.65
937.5525	2069.5315	6095.55	5217.35
937.6891	2071.0856	6076.4	5196.55
937.8257	2072.6389	6042	5161.9
937.9623	2074.1915	6029.65	5152
938.0989	2075.7433	6018.1	5135.9
938.2354	2077.2945	5984.6	5106.4
938.3719	2078.8448	5990.25	5110.25
938.5084	2080.3945	5966.6	5086.25
938.6448	2081.9434	5990.1	5110.85
938.7812	2083.4916	5974.8	5093.05
938.9176	2085.039	5943.3	5061.8
939.054	2086.5857	5928.55	5047.85
939.1903	2088.1317	5930.45	5050.2
939.3267	2089.677	5902.15	5020.05
939.463	2091.2215	5886.4	5005.6
939.5992	2092.7652	5880.05	4997.45
939.7355	2094.3083	5879.05	4996.75
939.8717	2095.8506	5871.75	4991.8
940.0079	2097.3921	5884.8	5003.15
940.1441	2098.933	5857.45	4977.6
940.2802	2100.4731	5836.95	4957.55
940.4163	2102.0124	5860.6	4962.2
940.5524	2103.5511	5823.4	4942.2
940.6885	2105.089	5807.35	4927.05
940.8245	2106.6261	5804.45	4924.5
940.9606	2108.1626	5789.7	4907.75
941.0965	2109.6983	5797.95	4889.25
941.2325	2111.2332	5762.4	4881.9
941.3684	2112.7675	5739.25	4857.35
941.5044	2114.301	5731.65	4846.7
941.6403	2115.8337	5752.4	4871.25
941.7761	2117.3657	5739.6	4858.6
941.912	2118.897	5735.2	4854.4
942.0478	2120.4276	5712.25	4826.15
942.1835	2121.9575	5687.2	4807.55
942.3193	2123.4866	5683.45	4802.25
942.455	2125.0149	5680.65	4798.5
942.5907	2126.5426	5643.6	4762.15
942.7264	2128.0695	5637.65	4751.45
942.8621	2129.5956	5613.95	4734.25
942.9977	2131.1211	5646.75	4760.3
943.1333	2132.6458	5611.05	4731.9
943.2689	2134.1698	5591.65	4708.85
943.4044	2135.693	5595.4	4712.6
943.54	2137.2155	5597.75	4715.4
943.6755	2138.7373	5582.9	4702.25
943.8109	2140.2584	5549.5	4670.15
943.9464	2141.7787	5544.05	4660.25
944.0818	2143.2983	5521.35	4641.5
944.2172	2144.8171	5483.8	4604.35
944.3526	2146.3353	5485.15	4601.85
944.4879	2147.8527	5463.65	4583.35
944.6232	2149.3693	5470.75	4589.2
944.7585	2150.8853	5456.85	4575.15
944.8938	2152.4005	5429.35	4548.4
945.029	2153.9149	5435.55	4553.85
945.1642	2155.4287	5425.05	4547.15
945.2994	2156.9417	5419.05	4535.55
945.4346	2158.454	5387.5	4505.4
945.5697	2159.9655	5372.2	4491.75
945.7048	2161.4764	5397.6	4516.35
945.8399	2162.9865	5371.7	4491.35
945.9749	2164.4958	5340.6	4459.4
946.1099	2166.0045	5308.4	4422.6
946.2449	2167.5124	5318.45	4439.4
946.3799	2169.0195	5314.95	4434.15
946.5148	2170.526	5319.65	4440.45
946.6498	2172.0317	5274.75	4392.95
946.7846	2173.5367	5277.15	4397.4
946.9195	2175.0409	5273.55	4393.1
947.0543	2176.5445	5282.05	4401.95
947.1891	2178.0473	5238.55	4356.9
947.3239	2179.5494	5224.7	4340.2
947.4587	2181.0507	5218.85	4337.9
947.5934	2182.5513	5196.8	4314.35
947.7281	2184.0512	5196.2	4314.55
947.8628	2185.5504	5179.85	4300.25
947.9974	2187.0488	5166.8	4286.4
948.132	2188.5465	5153.65	4273.4
948.2666	2190.0435	5127	4245.3
948.4012	2191.5397	5090.5	4209.55
948.5357	2193.0353	5104.3	4222.7
948.6702	2194.5301	5078.45	4197.9
948.8047	2196.0241	5059.95	4177.75
948.9392	2197.5175	5065	4183.2
949.0736	2199.0101	5049.95	4163.5
949.208	2200.502	5024.35	4142.95
949.3424	2201.9931	4999.45	4118.45
949.4767	2203.4835	4987.75	4105.7
949.611	2204.9733	4992.6	4106.15
949.7453	2206.4622	4970.55	4090.6
949.8796	2207.9505	4959.95	4077.85
950.0138	2209.438	4946.45	4067.7
950.148	2210.9248	4942.15	4060.85
950.2822	2212.4109	4900.8	4020.15
950.4164	2213.8962	4890.85	4007.75
950.5505	2215.3809	4900.1	4020.9
950.6846	2216.8648	4886	4005.35
950.8186	2218.3479	4873.85	3986.75
950.9527	2219.8304	4853.9	3970.6
951.0867	2221.3121	4825.15	3940.9
951.2207	2222.7931	4836.55	3957.7
951.3546	2224.2733	4796.1	3914.6
951.4886	2225.7529	4784.9	3903.95
951.6225	2227.2317	4770.85	3889.5
951.7563	2228.7098	4759.05	3880.2
951.8902	2230.1872	4751.4	3872.45
952.024	2231.6638	4755.45	3875.4
952.1578	2233.1397	4728.15	3840.7
952.2916	2234.6149	4726.75	3846.25
952.4253	2236.0894	4708.05	3826.15
952.559	2237.5632	4692.25	3809.9
952.6927	2239.0362	4687.15	3807.8
952.8263	2240.5085	4660.75	3779.9
952.9599	2241.9801	4649.25	3769.55
953.0935	2243.4509	4630.15	3751
953.2271	2244.921	4640.35	3759.9
953.3606	2246.3904	4616.55	3732.85
953.4941	2247.8591	4608.55	3727.25
953.6276	2249.3271	4591.85	3712.8
953.7611	2250.7943	4579.2	3697.15
953.8945	2252.2608	4571.3	3692.35
954.0279	2253.7266	4556.35	3675
954.1612	2255.1917	4531.45	3650.85
954.2946	2256.656	4524.5	3644.2
954.4279	2258.1197	4519	3637.75
954.5612	2259.5826	4486.55	3605.85
954.6944	2261.0447	4498.05	3616.7
954.8276	2262.5062	4478.05	3594.9
954.9608	2263.9669	4490.3	3609.55
955.094	2265.4269	4483	3602.75
955.2271	2266.8862	4475.25	3594.2
955.3602	2268.3448	4446.55	3567.35
955.4933	2269.8026	4434.95	3554.6
955.6264	2271.2598	4424.45	3543.45
955.7594	2272.7162	4418.55	3539.3
955.8924	2274.1719	4404.2	3520.4
956.0253	2275.6268	4388.7	3508.45
956.1583	2277.0811	4380.9	3500
956.2912	2278.5346	4384.65	3503.3
956.4241	2279.9874	4356.05	3474.45
956.5569	2281.4395	4351.35	3470.95
956.6897	2282.8908	4346.05	3461.9
956.8225	2284.3414	4328.35	3446.9
956.9553	2285.7914	4316.35	3436.15
957.088	2287.2406	4315	3433.75
957.2207	2288.689	4325.8	3445.6
957.3534	2290.1368	4297.2	3414.1
957.486	2291.5838	4290.8	3409.1
957.6186	2293.0302	4271.95	3390
957.7512	2294.4758	4265.1	3387
957.8838	2295.9206	4246.9	3363.45
958.0163	2297.3648	4221.15	3341.6
958.1488	2298.8082	4232.5	3349.3
958.2813	2300.251	4224.55	3344.25
958.4137	2301.693	4207.05	3323.95
958.5461	2303.1343	4213.8	3331.25
958.6785	2304.5748	4186.1	3304
958.8108	2306.0147	4172.7	3291.25
958.9432	2307.4538	4174.4	3291.85
959.0754	2308.8922	4160.75	3280.6
959.2077	2310.3299	4146.3	3265.05
959.3399	2311.7669	4137.45	3257.2
959.4721	2313.2031	4124.55	3244.1
959.6043	2314.6387	4096.5	3214.15
959.7365	2316.0735	4093.2	3211.4
959.8686	2317.5076	4092.95	3212.8
960.0006	2318.941	4081.4	3201.75
960.1327	2320.3737	4083.95	3202.15
960.2647	2321.8056	4077	3193.45
960.3967	2323.2369	4068.85	3187.3
960.5287	2324.6674	4059.65	3175.2
960.6606	2326.0972	4035.15	3153.5
960.7925	2327.5263	4019.2	3139
960.9244	2328.9547	4032.4	3150.3
961.0562	2330.3823	4004.3	3122.9
961.1881	2331.8092	4010.7	3126.6
961.3198	2333.2355	3988.55	3108.3
961.4516	2334.661	3987.85	3104.15
961.5833	2336.0858	3973.65	3088.7
961.715	2337.5098	3946.95	3065.35
961.8467	2338.9332	3935.25	3054.2
961.9783	2340.3558	3940.95	3057.65
962.1099	2341.7778	3927.1	3045
962.2415	2343.199	3916.6	3032.95
962.373	2344.6195	3908	3029.2
962.5045	2346.0393	3894.9	3013.4
962.636	2347.4583	3891.45	3011.45
962.7675	2348.8767	3875.85	2995.1
962.8989	2350.2943	3867.85	2986.9
963.0303	2351.7113	3865.1	2983.1
963.1617	2353.1275	3853.9	2971.75
963.293	2354.543	3853.6	2963.1
963.4243	2355.9578	3826.55	2946.45
963.5556	2357.3718	3810.15	2929.2
963.6868	2358.7852	3790.55	2904.9
963.818	2360.1978	3779.7	2899.05
963.9492	2361.6098	3790.2	2908.05
964.0803	2363.021	3763.45	2879.35
964.2114	2364.4315	3756.1	2875.35
964.3425	2365.8413	3743.3	2855.85
964.4736	2367.2504	3733.9	2853.35
964.6046	2368.6587	3730.75	2847.75
964.7356	2370.0664	3712.9	2831.15
964.8666	2371.4733	3714.25	2833.15
964.9975	2372.8795	3690.45	2809.95
965.1284	2374.285	3689.65	2807.65
965.2593	2375.6899	3689	2808.4
965.3901	2377.0939	3678.5	2798.2
965.5209	2378.4973	3665.95	2786.05
965.6517	2379.9	3651.55	2770.45
965.7825	2381.3019	3640.45	2759
965.9132	2382.7032	3615.9	2734.25
966.0439	2384.1037	3622.75	2742.15
966.1745	2385.5035	3609.35	2728.5
966.3051	2386.9027	3606.95	2726.15
966.4357	2388.3011	3597.55	2712.35
966.5663	2389.6987	3576.55	2695.65
966.6968	2391.0957	3571.35	2689.1
966.8273	2392.492	3562.4	2680.95
966.9578	2393.8876	3549.8	2668
967.0882	2395.2824	3514.7	2632.1
967.2186	2396.6765	3527.2	2647.6
967.349	2398.07	3507.75	2625
967.4793	2399.4627	3509.2	2626.15
967.6097	2400.8547	3495	2613.45
967.7399	2402.246	3490.7	2601.85
967.8702	2403.6366	3463.25	2579.65
968.0004	2405.0265	3455.15	2575.8
968.1306	2406.4156	3446.25	2560
968.2607	2407.8041	3440.6	2554.9
968.3909	2409.1918	3423	2538.4
968.521	2410.5789	3414.1	2533.7
968.651	2411.9652	3406.5	2520.75
968.781	2413.3508	3390.5	2510.15
968.911	2414.7358	3364	2480.6
969.041	2416.12	3377.3	2496.65
969.1709	2417.5035	3347.55	2466.5
969.3008	2418.8863	3355.75	2473.15
969.4307	2420.2684	3347.6	2467
969.5606	2421.6497	3323.5	2441.55
969.6904	2423.0304	3306.1	2425
969.8201	2424.4104	3306.5	2424.95
969.9499	2425.7896	3290.65	2406.55
970.0796	2427.1682	3286.5	2402.65
970.2093	2428.546	3277.6	2393.8
970.3389	2429.9232	3271.4	2389.35
970.4685	2431.2996	3250.45	2369.1
970.5981	2432.6753	3252.3	2370.05
970.7277	2434.0503	3267	2385.4
970.8572	2435.4246	3246.95	2365.4
970.9867	2436.7982	3239.65	2354.8
971.1161	2438.1711	3228.35	2348.5
971.2456	2439.5433	3217.5	2336.3
971.375	2440.9148	3209.75	2323.45
971.5043	2442.2856	3195.35	2313.9
971.6336	2443.6557	3200.55	2317.35
971.7629	2445.025	3191.3	2309.5
971.8922	2446.3937	3184.75	2303.05
972.0214	2447.7617	3157.65	2273.55
972.1506	2449.1289	3170.65	2289.2
972.2798	2450.4955	3161.75	2276.95
972.4089	2451.8613	3138.6	2259
972.538	2453.2265	3147.65	2265.85
972.6671	2454.5909	3126.2	2243.1
972.7961	2455.9546	3127.75	2245.9
972.9251	2457.3177	3117.25	2236.75
973.0541	2458.68	3101.55	2219.4
973.1831	2460.0416	3108.7	2224.95
973.312	2461.4025	3104.4	2222.75
973.4408	2462.7627	3098.3	2205.65
973.5697	2464.1222	3086.1	2208.45
973.6985	2465.4811	3082.55	2200.35
973.8273	2466.8392	3067.05	2185.05
973.956	2468.1966	3068.25	2184.6
974.0847	2469.5533	3055.7	2172.5
974.2134	2470.9093	3050.2	2166.35
974.3421	2472.2645	3031.9	2147.35
974.4707	2473.6191	3028.9	2149.1
974.5993	2474.973	3022.5	2141.25
974.7278	2476.3262	3004.3	2121.15
974.8563	2477.6787	3014.55	2132.45
974.9848	2479.0305	3002.15	2120.05
975.1132	2480.3816	3002.15	2119.45
975.2417	2481.7319	2980.45	2097.8
975.37	2483.0816	2975.9	2092.75
975.4984	2484.4306	2958.8	2074.8
975.6267	2485.7789	2943.1	2062.75
975.755	2487.1264	2934.75	2051.4
975.8833	2488.4733	2948.75	2069.4
976.0115	2489.8195	2940.4	2051.75
976.1397	2491.165	2925.15	2040.7
976.2678	2492.5097	2921.45	2036.75
976.3959	2493.8538	2904.4	2024.65
976.524	2495.1972	2888.9	2007.65
976.6521	2496.5398	2881.15	1998.1
976.7801	2497.8818	2878	1992.45
976.9081	2499.2231	2873.9	1992.8
977.036	2500.5637	2858.55	1975.05
977.164	2501.9035	2857.35	1972.8
977.2918	2503.2427	2852.4	1967.1
977.4197	2504.5812	2835.55	1955.25
977.5475	2505.919	2835.85	1952.9
977.6753	2507.256	2832.9	1951.85
977.8031	2508.5924	2811.15	1929.9
977.9308	2509.9281	2821	1934.6
978.0585	2511.2631	2802.6	1922.45
978.1861	2512.5974	2802.3	1920.5
978.3137	2513.9309	2791.25	1908.85
978.4413	2515.2638	2806.15	1895.95
978.5689	2516.596	2787.45	1908.85
978.6964	2517.9275	2778.1	1896.8
978.8239	2519.2583	2766.95	1884.05
978.9513	2520.5884	2746	1863.35
979.0788	2521.9178	2747.2	1865.4
979.2062	2523.2465	2731.55	1850.7
979.3335	2524.5745	2735.45	1853.4
979.4608	2525.9018	2731.2	1849.1
979.5881	2527.2284	2717.75	1837.6
979.7154	2528.5543	2704.95	1823.6
979.8426	2529.8796	2703.85	1820.8
979.9698	2531.2041	2701.95	1819.3
980.0969	2532.5279	2683.95	1802.55
980.224	2533.851	2687.3	1804.85
980.3511	2535.1735	2682.6	1801.8
980.4781	2536.4952	2669.95	1788.65
980.6052	2537.8163	2671.95	1790.3
980.7321	2539.1366	2669.8	1789.5
980.8591	2540.4562	2663.6	1782.3
980.986	2541.7752	2654.75	1773.25
981.1129	2543.0935	2662.1	1780.3
981.2397	2544.411	2627.05	1744.2
981.3665	2545.7279	2643.5	1761.85
981.4933	2547.0441	2628.25	1745.85
981.62	2548.3596	2627.25	1744.2
981.7467	2549.6744	2623.65	1741.05
981.8734	2550.9885	2626.35	1738.35
982.0001	2552.3019	2610.15	1729.35
982.1267	2553.6146	2610.6	1727.8
982.2532	2554.9266	2596.55	1715.15
982.3798	2556.2379	2588.2	1705.55
982.5063	2557.5485	2602.45	1724.25
982.6327	2558.8585	2582.2	1693.15
982.7592	2560.1677	2579.2	1693.2
982.8856	2561.4762	2582	1700.9
983.0119	2562.7841	2588.05	1703.5
983.1383	2564.0913	2575.4	1693.1
983.2646	2565.3977	2563.3	1680.95
983.3908	2566.7035	2550.9	1668.35
983.517	2568.0086	2555.6	1674.15
983.6432	2569.313	2559.7	1679.1
983.7694	2570.6167	2547.25	1663.95
983.8955	2571.9197	2539.55	1659.15
984.0216	2573.222	2538.15	1653.3
984.1476	2574.5236	2541.7	1660.65
984.2737	2575.8246	2529	1643.75
984.3996	2577.1248	2518.25	1634.75
984.5256	2578.4244	2512.25	1630.65
984.6515	2579.7232	2511.3	1629.55
984.7774	2581.0214	2531.65	1625.75
984.9032	2582.3189	2506.15	1623.75
985.029	2583.6157	2495.1	1609.1
985.1548	2584.9118	2500.1	1621.8
985.2806	2586.2072	2479.9	1598.75
985.4063	2587.5019	2484.1	1603.75
985.5319	2588.7959	2484.7	1601.9
985.6576	2590.0893	2477.05	1595.2
985.7832	2591.3819	2463.35	1583.8
985.9087	2592.6739	2460.95	1579.35
986.0343	2593.9652	2447.05	1564.1
986.1597	2595.2557	2443	1560.3
986.2852	2596.5456	2433.25	1548.55
986.4106	2597.8348	2434.35	1552.7
986.536	2599.1234	2412.7	1533.55
986.6614	2600.4112	2423.6	1542.55
986.7867	2601.6983	2415.95	1532.35
986.912	2602.9848	2413.7	1530.95
987.0372	2604.2705	2410.4	1521.55
987.1624	2605.5556	2385.25	1506.3
987.2876	2606.84	2386.7	1504.4
987.4128	2608.1237	2391	1506.8
987.5379	2609.4067	2365.9	1483.2
987.6629	2610.689	2376.6	1488.1
987.788	2611.9707	2369.2	1482.9
987.913	2613.2516	2357	1473.75
988.0379	2614.5319	2353.55	1471.2
988.1629	2615.8115	2332.6	1449.2
988.2878	2617.0903	2337.8	1455.45
988.4126	2618.3685	2339.15	1457.85
988.5375	2619.6461	2327.35	1448.3
988.6622	2620.9229	2310.35	1431.1
988.787	2622.199	2304.55	1421.2
988.9117	2623.4745	2314.6	1432.75
989.0364	2624.7493	2307.45	1426.4
989.161	2626.0234	2293.45	1413.1
989.2857	2627.2968	2279.85	1397.45
989.4102	2628.5695	2279.6	1397.3
989.5348	2629.8415	2272.75	1393.25
989.6593	2631.1128	2272.1	1389.35
989.7837	2632.3835	2267.75	1386.8
989.9082	2633.6535	2256.4	1376.65
990.0326	2634.9228	2250.6	1368.75
990.1569	2636.1914	2252.15	1371.4
990.2812	2637.4593	2237.75	1351.6
990.4055	2638.7265	2237.5	1355.75
990.5298	2639.9931	2226.5	1344.65
990.654	2641.259	2226.95	1344.7
990.7782	2642.5242	2220.8	1339.1
990.9023	2643.7887	2216.75	1335.5
991.0264	2645.0525	2213.65	1330.95
991.1505	2646.3156	2205.4	1323.6
991.2745	2647.5781	2198.35	1317.55
991.3985	2648.8398	2193.5	1316.65
991.5225	2650.1009	2223.75	1304.4
991.6464	2651.3613	2197.25	1316.2
991.7703	2652.6211	2171.15	1289.7
991.8942	2653.8801	2168.55	1285.35
992.018	2655.1385	2176.15	1291.85
992.1418	2656.3961	2157.95	1279.1
992.2655	2657.6531	2159.15	1278.75
992.3892	2658.9094	2143.55	1261.55
992.5129	2660.1651	2150.8	1271.2
992.6366	2661.42	2147.65	1267.9
992.7602	2662.6743	2142	1258.35
992.8837	2663.9279	2139.45	1259.4
993.0073	2665.1808	2143.3	1262.9
993.1307	2666.433	2126.65	1243.7
993.2542	2667.6846	2118.4	1238.65
993.3776	2668.9354	2125	1240.45
993.501	2670.1856	2113.25	1231.05
993.6244	2671.4351	2107.85	1227.55
993.7477	2672.6839	2104.55	1222.15
993.8709	2673.9321	2104.75	1224.3
993.9942	2675.1795	2096	1213.95
994.1174	2676.4263	2090.45	1210.65
994.2405	2677.6724	2097.65	1218.55
994.3637	2678.9179	2094.5	1213.05
994.4868	2680.1626	2074.45	1194.75
994.6098	2681.4067	2078.35	1195.55
994.7328	2682.6501	2080.65	1200.15
994.8558	2683.8928	2066.85	1185.85
994.9788	2685.1348	2055.3	1173
995.1017	2686.3761	2054.2	1174.35
995.2245	2687.6168	2048.05	1166
995.3474	2688.8568	2046.55	1165
995.4702	2690.0961	2044.9	1163.05
995.5929	2691.3348	2038.3	1156.25
995.7156	2692.5727	2037.55	1156.75
995.8383	2693.81	2026.85	1145.25
995.961	2695.0466	2027	1148.1
996.0836	2696.2826	2025.9	1143.8
996.2062	2697.5178	2030.6	1128.15
996.3287	2698.7524	2008.2	1127.65
996.4512	2699.9863	2012.1	1129.15
996.5737	2701.2195	2004.35	1126.3
996.6961	2702.452	2004.5	1123.05
996.8185	2703.6839	1993.25	1111.35
996.9408	2704.9151	1992.85	1112.7
997.0631	2706.1456	1988.8	1108.05
997.1854	2707.3755	1979.05	1098.2
997.3077	2708.6046	1984.65	1098.35
997.4299	2709.8331	1978.45	1096.9
997.552	2711.0609	1972.7	1091.3
997.6742	2712.2881	1962.05	1080
997.7963	2713.5145	1965.95	1081.05
997.9183	2714.7403	1957.55	1077.45
998.0403	2715.9654	1946.75	1063.6
998.1623	2717.1899	1957	1061.7
998.2842	2718.4136	1948.15	1067.7
998.4062	2719.6367	1932.85	1050.5
998.528	2720.8591	1939.7	1052.6
998.6498	2722.0809	1924.3	1042.25
998.7716	2723.3019	1933	1047.4
998.8934	2724.5223	1922.75	1041.3
999.0151	2725.7421	1921.4	1037.6
999.1368	2726.9611	1917.35	1034.3
999.2584	2728.1795	1915.35	1029.75
999.38	2729.3972	1895.2	1015.35
999.5016	2730.6142	1903.75	1007.95
999.6231	2731.8306	1894.75	1012.6
999.7446	2733.0462	1889.65	1005.95
999.8661	2734.2612	1881.6	998.4
999.9875	2735.4756	1871.95	988.6
1000.1089	2736.6892	1869.1	987.7
1000.2302	2737.9022	1871.35	991
1000.3515	2739.1145	1861.55	977.35
1000.4728	2740.3262	1857.55	969.25
1000.594	2741.5372	1853.65	974.35
1000.7152	2742.7475	1838.7	954.8
1000.8363	2743.9571	1837.45	953.95
1000.9575	2745.1661	1847.75	962.25
1001.0785	2746.3744	1835.7	953.6
1001.1996	2747.582	1825.75	945
1001.3206	2748.7889	1820.1	935.45
1001.4415	2749.9952	1824.75	945.65
1001.5625	2751.2008	1813.85	931.75
1001.6833	2752.4057	1823.85	941.5
1001.8042	2753.61	1815.15	933.85
1001.925	2754.8136	1818.85	935.25
1002.0458	2756.0165	1799.45	920.2
1002.1665	2757.2188	1792.7	911.55
1002.2872	2758.4204	1795.9	915
1002.4078	2759.6213	1787.6	901.95
1002.5285	2760.8215	1793.6	909.65
1002.649	2762.0211	1785.65	903.95
1002.7696	2763.22	1775.4	891.35
1002.8901	2764.4182	1778.75	896.2
1003.0106	2765.6158	1778	897.9
1003.131	2766.8127	1765.35	883.05
1003.2514	2768.009	1766.2	885.25
1003.3717	2769.2045	1766.7	886.5
1003.492	2770.3994	1765.5	882.25
1003.6123	2771.5936	1759.85	877.25
1003.7325	2772.7872	1747	867.1
1003.8527	2773.9801	1744.75	863
1003.9729	2775.1723	1758.15	861.25
1004.093	2776.3639	1744.75	865.8
1004.2131	2777.5548	1737	853.8
1004.3331	2778.745	1741.1	859.15
1004.4531	2779.9346	1731.3	852.45
1004.5731	2781.1235	1723.9	841.55
1004.693	2782.3117	1719.7	840.15
1004.8129	2783.4992	1716.05	836.55
1004.9328	2784.6861	1719.05	837.7
1005.0526	2785.8723	1716	834.05
1005.1723	2787.0579	1708.65	826.15
1005.2921	2788.2428	1715.7	836.1
1005.4118	2789.427	1699.8	818.8
1005.5314	2790.6106	1690.05	809.4
1005.651	2791.7935	1692.45	809.15
1005.7706	2792.9757	1689.8	811.95
1005.8902	2794.1573	1689.1	807.25
1006.0097	2795.3382	1677.15	797
1006.1291	2796.5184	1674.15	795.8
1006.2485	2797.698	1678.05	795.55
1006.3679	2798.8769	1670.4	789.8
1006.4873	2800.0551	1661.45	780.4
1006.6066	2801.2327	1660.1	776.85
1006.7258	2802.4096	1660.55	779.9
1006.8451	2803.5859	1662	780.2
1006.9642	2804.7615	1658.55	776.15
1007.0834	2805.9364	1648.4	768.55
1007.2025	2807.1106	1637.9	756.1
1007.3216	2808.2842	1645.7	764.9
1007.4406	2809.4572	1640.6	759.15
1007.5596	2810.6294	1643.1	759.85
1007.6785	2811.801	1638	760.15
1007.7975	2812.972	1634.6	755
1007.9163	2814.1423	1631.4	750.4
1008.0352	2815.3119	1631.35	748.5
1008.154	2816.4808	1630.65	751.8
1008.2727	2817.6491	1636.95	755.65
1008.3914	2818.8167	1638	759.4
1008.5101	2819.9837	1643.7	757.95
1008.6288	2821.15	1638	757.6
1008.7474	2822.3157	1633	753.65
1008.8659	2823.4807	1638.65	756.8
1008.9844	2824.645	1646.1	762.45
1009.1029	2825.8086	1651.8	768.8
1009.2214	2826.9716	1653.85	772.35
1009.3398	2828.134	1657.05	776.8
1009.4581	2829.2957	1660.45	779.5
1009.5764	2830.4567	1673.1	794.5
1009.6947	2831.617	1671.1	790
1009.813	2832.7767	1657.5	777.05
1009.9312	2833.9358	1661.4	782.3
1010.0493	2835.0941	1658.45	778.55
1010.1675	2836.2519	1658.85	777.9
1010.2855	2837.4089	1647.65	765
1010.4036	2838.5653	1638.85	757.75
1010.5216	2839.7211	1641.6	762.45
1010.6396	2840.8761	1636.9	754.1
1010.7575	2842.0306	1638.65	759.75
1010.8754	2843.1843	1637.8	758.5
1010.9932	2844.3374	1634.5	754.4
1011.111	2845.4899	1630.75	748.4
1011.2288	2846.6417	1623.15	743
1011.3465	2847.7928	1625	744.7
1011.4642	2848.9433	1624.15	744.1
1011.5818	2850.0931	1633.35	752.85
1011.6995	2851.2422	1624.1	742.3
1011.817	2852.3907	1631.35	750.45
1011.9345	2853.5385	1626.25	743.15
1012.052	2854.6857	1623.4	731.55
1012.1695	2855.8323	1617.65	739
1012.2869	2856.9781	1618.15	737.5
1012.4042	2858.1233	1619.15	737.1
1012.5216	2859.2679	1622.45	743.45
1012.6389	2860.4118	1614.85	734.15
1012.7561	2861.555	1625.7	740.4
1012.8733	2862.6976	1623.6	741
1012.9905	2863.8395	1613.9	734.5
1013.1076	2864.9808	1616	737.1
1013.2247	2866.1214	1620.1	739.15
1013.3417	2867.2614	1619.2	738.15
1013.4587	2868.4007	1608.1	725.65
1013.5757	2869.5393	1612	731
1013.6926	2870.6773	1607.3	725.1
1013.8095	2871.8146	1615.8	732.05
1013.9263	2872.9513	1620.6	736.9
1014.0431	2874.0874	1610.3	730.65
1014.1599	2875.2227	1607	724.4
1014.2766	2876.3574	1598.1	717.9
1014.3933	2877.4915	1600.5	719.5
1014.51	2878.6249	1600.1	720.3
1014.6266	2879.7577	1602.35	722.95
1014.7431	2880.8898	1614.7	726.25
1014.8596	2882.0212	1600.85	720.6
1014.9761	2883.152	1608	725.5
1015.0925	2884.2821	1594.05	714.35
1015.2089	2885.4116	1593.1	714.75
1015.3253	2886.5405	1588.95	707.9
1015.4416	2887.6686	1601.95	717.25
1015.5579	2888.7962	1590.75	712.2
1015.6741	2889.923	1592.4	714.25
1015.7903	2891.0493	1591.9	712.1
1015.9065	2892.1748	1585.25	705.8
1016.0226	2893.2997	1576.65	696.5
1016.1387	2894.424	1572.15	694.6
1016.2547	2895.5476	1577.7	699.2
1016.3707	2896.6706	1585.65	706.2
1016.4866	2897.7929	1575.5	694.85
1016.6025	2898.9145	1569.75	688
1016.7184	2900.0355	1574	692.55
1016.8342	2901.1559	1557.3	677.2
1016.95	2902.2756	1563.7	683.95
1017.0658	2903.3946	1560.7	680.05
1017.1815	2904.513	1561.6	678.15
1017.2971	2905.6308	1548.55	669.3
1017.4127	2906.7479	1547.6	666.6
1017.5283	2907.8643	1541	660.5
1017.6439	2908.9801	1545.2	665.2
1017.7594	2910.0953	1534.35	654.75
1017.8748	2911.2098	1535.9	652.3
1017.9902	2912.3236	1537.55	650.1
1018.1056	2913.4368	1536.9	653
1018.2209	2914.5494	1536.1	655.75
1018.3362	2915.6613	1524	636.1
1018.4515	2916.7725	1526.15	643.3
1018.5667	2917.8831	1510.1	629.45
1018.6819	2918.9931	1512.35	629.45
1018.797	2920.1024	1504.75	622.25
1018.9121	2921.211	1508.85	627.85
1019.0271	2922.319	1497.8	615.8
1019.1421	2923.4264	1495.65	614.05
1019.2571	2924.5331	1496.25	617.35
1019.372	2925.6391	1497.15	617.35
1019.4869	2926.7445	1490.05	611.6
1019.6017	2927.8493	1496.8	614.95
1019.7165	2928.9534	1487	606.15
1019.8313	2930.0569	1494.15	610.35
1019.946	2931.1597	1492.9	610.35
1020.0606	2932.2619	1487.35	608
1020.1753	2933.3634	1490.6	610.65
1020.2899	2934.4643	1494.55	607.85
1020.4044	2935.5645	1492.55	606.3
1020.5189	2936.6641	1480.85	595.95
1020.6334	2937.763	1476.6	596.3
1020.7478	2938.8613	1480.25	597.45
1020.8622	2939.959	1489.45	603.35
1020.9765	2941.056	1462.85	584.15
1021.0908	2942.1523	1460.3	578.65
1021.2051	2943.248	1458.9	577.3
1021.3193	2944.3431	1446.85	567.55
1021.4334	2945.4375	1437.7	555
1021.5476	2946.5313	1422.3	542.9
1021.6617	2947.6244	1415.2	532.9
1021.7757	2948.7169	1413.45	532.55
1021.8897	2949.8087	1402	521.85
1022.0037	2950.8999	1400.8	520.15
1022.1176	2951.9904	1391.7	511.6
1022.2315	2953.0803	1384.7	502
1022.3453	2954.1696	1375.4	493.5
1022.4591	2955.2582	1377.15	498.2
1022.5728	2956.3462	1370.15	488.65
1022.6865	2957.4335	1365.85	485.6
1022.8002	2958.5202	1366.15	482.15
1022.9138	2959.6062	1364.4	485.9
1023.0274	2960.6916	1357.85	477.5
1023.141	2961.7764	1356.7	475.2
1023.2545	2962.8605	1358	477.65
1023.3679	2963.9439	1353.4	473.9
1023.4813	2965.0267	1351.4	468.35
1023.5947	2966.1089	1367.9	465.15
1023.708	2967.1905	1339.85	459.05
1023.8213	2968.2714	1346.05	465.5
1023.9346	2969.3516	1336	457.75
1024.0478	2970.4312	1341.15	452.55
1024.1609	2971.5102	1341.75	461.75
1024.274	2972.5885	1336.8	456.95
1024.3871	2973.6662	1335.75	451.1
1024.5002	2974.7432	1327.35	448.6
1024.6132	2975.8196	1330.05	448.85
1024.7261	2976.8954	1319.3	440.55
1024.839	2977.9705	1328.65	448.85
1024.9519	2979.045	1324.9	445.1
1025.0647	2980.1188	1322.15	444.25
1025.1775	2981.192	1317.15	438.5
1025.2902	2982.2645	1318.05	438.7
1025.4029	2983.3364	1318.2	438.6
1025.5156	2984.4077	1314.25	432.65
1025.6282	2985.4783	1311.75	424.25
1025.7407	2986.5483	1304.65	425.15
1025.8532	2987.6177	1298.75	416.85
1025.9657	2988.6864	1299.95	419.3
1026.0782	2989.7545	1299.3	417.85
1026.1906	2990.8219	1293.75	413.25
1026.3029	2991.8887	1285.6	402.55
1026.4152	2992.9548	1283	402.7
1026.5275	2994.0204	1274.2	395.25
1026.6397	2995.0852	1279.55	399.65
1026.7519	2996.1495	1274.3	393.35
1026.864	2997.2131	1265.6	386.1
1026.9761	2998.276	1262.5	382.75
1027.0882	2999.3383	1264.3	381.5
1027.2002	3000.4	1256.8	375.95
1027.3122	3001.4611	1260.6	378.6
1027.4241	3002.5215	1249.35	368.65
1027.536	3003.5812	1254.1	373.4
1027.6478	3004.6404	1246.95	365.4
1027.7596	3005.6989	1246.55	363.55
1027.8714	3006.7567	1239.9	361.75
1027.9831	3007.8139	1265.5	363.2
1028.0947	3008.8705	1236.3	354.85
1028.2064	3009.9264	1237.3	352.45
1028.3179	3010.9818	1236.5	355.9
1028.4295	3012.0364	1235.6	353.45
1028.541	3013.0905	1228.75	346.15
1028.6524	3014.1439	1230.25	350.9
1028.7638	3015.1966	1226.4	348.65
1028.8752	3016.2487	1224.35	341.65
1028.9865	3017.3002	1229.65	342.2
1029.0978	3018.3511	1215.65	336.4
1029.209	3019.4013	1218.05	336.7
1029.3202	3020.4509	1223.7	343.65
1029.4314	3021.4998	1215.4	335.35
1029.5425	3022.5481	1220.25	339.5
1029.6535	3023.5958	1211.1	330.8
1029.7645	3024.6428	1215.25	333.8
1029.8755	3025.6892	1214.95	337.3
1029.9864	3026.735	1210.9	330.9
1030.0973	3027.7802	1210.65	330.3
1030.2082	3028.8247	1204.85	325.65
1030.319	3029.8685	1205.7	324.2
1030.4297	3030.9118	1205.65	323.75
1030.5404	3031.9544	1202.15	321.25
1030.6511	3032.9963	1201.25	321.7
1030.7617	3034.0376	1193.8	314.1
1030.8723	3035.0783	1196.4	315.1
1030.9829	3036.1184	1191.8	312.55
1031.0934	3037.1578	1193.45	315.05
1031.2038	3038.1966	1195.35	312.15
1031.3142	3039.2348	1188.8	312.3
1031.4246	3040.2723	1198.75	311.15
1031.5349	3041.3092	1188.4	309.6
1031.6452	3042.3455	1187.75	307.25
1031.7554	3043.3811	1183.85	303.45
1031.8656	3044.4161	1188.4	307.8
1031.9758	3045.4505	1180.5	300.9
1032.0859	3046.4842	1186.8	304.3
1032.1959	3047.5173	1189.85	310.1
1032.3059	3048.5498	1183.7	303.6
1032.4159	3049.5816	1181.1	301.55
1032.5258	3050.6128	1180.05	298.45
1032.6357	3051.6434	1185.75	304.4
1032.7455	3052.6734	1179.15	298.4
1032.8553	3053.7027	1173.75	295.85
1032.9651	3054.7314	1173.75	293.9
1033.0748	3055.7594	1172.8	293.35
1033.1845	3056.7868	1174.05	291.65
1033.2941	3057.8136	1172.3	294.15
1033.4037	3058.8398	1168.3	287.7
1033.5132	3059.8653	1170.35	288.7
1033.6227	3060.8902	1171.05	293.05
1033.7321	3061.9145	1175.8	296.3
1033.8415	3062.9381	1167.2	285.4
1033.9509	3063.9612	1182.4	285.3
1034.0602	3064.9835	1165.4	284.7
1034.1694	3066.0053	1169.25	285.2
1034.2787	3067.0264	1159.4	279.55
1034.3878	3068.0469	1165	284.2
1034.497	3069.0668	1162.95	279.75
1034.6061	3070.086	1157.05	279.25
1034.7151	3071.1046	1159.2	278.5
1034.8241	3072.1226	1162.1	279.6
1034.9331	3073.1399	1156.85	279.3
1035.042	3074.1567	1157.05	276.65
1035.1508	3075.1727	1155.25	273.2
1035.2597	3076.1882	1148.4	268.7
1035.3684	3077.203	1153.1	272.25
1035.4772	3078.2173	1152.25	273.35
1035.5859	3079.2308	1147.15	263.1
1035.6945	3080.2438	1147.25	264.95
1035.8031	3081.2561	1141.5	262.2
1035.9117	3082.2678	1140.85	260.35
1036.0202	3083.2789	1143.85	263.85
1036.1286	3084.2893	1139.5	259.95
1036.2371	3085.2991	1132.15	252.1
1036.3454	3086.3083	1138.4	253.35
1036.4538	3087.3169	1135.45	254.9
1036.562	3088.3248	1135	253.35
1036.6703	3089.3321	1131	249.8
1036.7785	3090.3388	1131.45	253.7
1036.8866	3091.3449	1128.6	249.05
1036.9948	3092.3503	1134.05	250
1037.1028	3093.3551	1125.95	247.85
1037.2108	3094.3593	1119.75	240.25
1037.3188	3095.3629	1121.25	241.6
1037.4267	3096.3658	1126.65	244.65
1037.5346	3097.3681	1118.05	238.3
1037.6425	3098.3698	1122.3	240.45
1037.7503	3099.3708	1124.8	235.35
1037.858	3100.3713	1118.15	237.05
1037.9657	3101.3711	1119.45	238.65
1038.0734	3102.3702	1252.85	237.2
1038.181	3103.3688	1111.15	230
1038.2886	3104.3667	1107.15	229.75
1038.3961	3105.364	1107.05	227.6
1038.5036	3106.3607	1111.75	229.55
1038.611	3107.3568	1107.45	227.3
1038.7184	3108.3522	1109.5	229.15
1038.8257	3109.347	1107.85	226.75
1038.933	3110.3412	1105.75	220.9
1039.0403	3111.3348	1102.85	223.75
1039.1475	3112.3277	1103.45	222.25
1039.2547	3113.32	1098.85	220.65
1039.3618	3114.3117	1099.85	220.65
1039.4689	3115.3028	1098.65	219.35
1039.5759	3116.2932	1103.1	220.95
1039.6829	3117.2831	1099.45	214.05
1039.7898	3118.2723	1094.6	214.85
1039.8967	3119.2608	1091.1	212
1040.0035	3120.2488	1092.25	211.2
1040.1103	3121.2361	1091.75	211.3
1040.2171	3122.2229	1087.65	208.05
1040.3238	3123.209	1091.65	210.25
1040.4305	3124.1944	1081.25	200.4
1040.5371	3125.1793	1086.1	204
1040.6437	3126.1635	1082.6	204.65
1040.7502	3127.1471	1081.7	202.65
1040.8567	3128.1301	1079.75	200.5
1040.9631	3129.1125	1080.85	201.7
1041.0695	3130.0942	1077.65	197.45
1041.1759	3131.0753	1088.1	200.7
1041.2822	3132.0558	1077.2	194.7
1041.3884	3133.0357	1077.4	197.35
1041.4946	3134.015	1075.85	194.2
1041.6008	3134.9936	1078.75	195.3
1041.7069	3135.9716	1100	197
1041.813	3136.949	1073.6	190.7
1041.919	3137.9258	1077.95	190.3
1042.025	3138.902	1082	197.15
1042.1309	3139.8775	1071.95	192
1042.2368	3140.8524	1071.6	191.65
1042.3427	3141.8267	1072.9	191.2
1042.4485	3142.8004	1070.45	189.9
1042.5542	3143.7735	1075.85	191.6
1042.6599	3144.7459	1071.4	190.75
1042.7656	3145.7178	1068.65	186.55
1042.8712	3146.689	1063.55	186.35
1042.9768	3147.6596	1067.4	184.95
1043.0823	3148.6295	1069.05	188.75
1043.1878	3149.5989	1062.35	181.75
1043.2932	3150.5676	1061.55	184.45
1043.3986	3151.5357	1061.85	184.15
1043.5039	3152.5032	1059.55	180.6
1043.6092	3153.4701	1059.8	179.85
1043.7145	3154.4364	1063.05	180.85
1043.8197	3155.402	1059.6	180.1
1043.9248	3156.367	1058.35	175
1044.03	3157.3315	1093.7	175.65
1044.135	3158.2952	1051.1	171.5
1044.24	3159.2584	1048.95	170.35
1044.345	3160.221	1054.2	173.3
1044.4499	3161.1829	1054.4	175.25
1044.5548	3162.1442	1048.2	167.6
1044.6596	3163.105	1053.45	174.7
1044.7644	3164.065	1047.55	166.4
1044.8692	3165.0245	1051.35	168.65
1044.9739	3165.9834	1049.45	171.45
1045.0785	3166.9416	1048.5	169.55
1045.1831	3167.8993	1045.5	163.3
1045.2877	3168.8563	1046.25	165.3
1045.3922	3169.8127	1042.55	163.25
1045.4966	3170.7684	1043.95	164.2
1045.6011	3171.7236	1044.35	163.8
1045.7054	3172.6782	1041.6	161.6
1045.8098	3173.6321	1038.1	156.45
1045.914	3174.5854	1042.05	158.85
1046.0183	3175.5381	1036.15	155.75
1046.1224	3176.4902	1035.8	155.5
1046.2266	3177.4417	1035.5	154.6
1046.3307	3178.3926	1030.65	152.35
1046.4347	3179.3428	1033	153.35
1046.5387	3180.2924	1033.8	155.1
1046.6427	3181.2415	1029.6	149.4
1046.7466	3182.1899	1032.15	149.55
1046.8504	3183.1377	1031	152.6
1046.9542	3184.0848	1038.55	155.85
1047.058	3185.0314	1029.65	150.6
1047.1617	3185.9773	1025.7	144.95
1047.2654	3186.9227	1028.8	150.35
1047.369	3187.8674	1027.6	147.25
1047.4726	3188.8115	1030.35	144.25
1047.5761	3189.755	1024.1	147
1047.6796	3190.6979	1021	140.5
1047.783	3191.6402	1021.75	142.2
1047.8864	3192.5818	1018.8	140.15
1047.9898	3193.5229	1028.4	146
1048.0931	3194.4633	1022.55	142.85
1048.1963	3195.4031	1021.95	140.9
1048.2995	3196.3423	1020.1	139.65
1048.4027	3197.2809	1019.1	137.4
1048.5058	3198.2189	1021.9	142.2
1048.6089	3199.1563	1026.15	139.4
1048.7119	3200.0931	1020.05	143.75
1048.8148	3201.0292	1016.3	137.15
1048.9178	3201.9648	1018.1	140.3
1049.0206	3202.8997	1017.85	134.2
1049.1235	3203.834	1015.35	135.5
1049.2262	3204.7677	1016.45	134.35
1049.329	3205.7008	1015.35	132.8
1049.4317	3206.6333	1011.85	133.7
1049.5343	3207.5652	1014.55	134.25
1049.6369	3208.4964	1011.1	128.45
1049.7394	3209.4271	1009.55	130.2
1049.8419	3210.3571	1007.55	128.75
1049.9444	3211.2865	1008.95	129.1
1050.0468	3212.2154	1011	128.95
1050.1491	3213.1436	1008.5	125.9
1050.2514	3214.0712	1017.9	132.6
1050.3537	3214.9982	1006.3	126.3
1050.4559	3215.9246	1009.75	130.65
1050.5581	3216.8503	1000.6	121.05
1050.6602	3217.7755	1002	121.15
1050.7623	3218.7001	1004.6	124.75
1050.8643	3219.624	1005.2	123.6
1050.9663	3220.5473	1002.15	122.5
1051.0682	3221.4701	1003.55	122.4
1051.1701	3222.3922	1002.45	121.5
1051.2719	3223.3137	1001.8	122.2
1051.3737	3224.2346	999.35	117.95
1051.4754	3225.1549	1000.55	121.45
1051.5771	3226.0746	998.8	118.15
1051.6788	3226.9937	1001.25	121.55
1051.7804	3227.9121	997	116.65
1051.8819	3228.83	993.65	113.95
1051.9834	3229.7473	995.35	115.2
1052.0849	3230.6639	996.85	118.3
1052.1863	3231.5799	997.15	117.8
1052.2876	3232.4954	996.3	116.35
1052.3889	3233.4102	990.8	112.45
1052.4902	3234.3244	992.9	111.05
1052.5914	3235.238	988.45	110.95
1052.6926	3236.151	1009.85	107.65
1052.7937	3237.0634	989.8	111.8
1052.8948	3237.9752	989.35	110.1
1052.9958	3238.8864	992.8	112.75
1053.0968	3239.797	986.95	107.95
1053.1977	3240.7069	990.4	111.4
1053.2986	3241.6163	987.2	106.25
1053.3994	3242.5251	987.45	106.65
1053.5002	3243.4332	985.6	107.6
1053.6009	3244.3408	991.75	111.75
1053.7016	3245.2477	986.45	105.85
1053.8022	3246.154	985.4	105.55
1053.9028	3247.0598	983.85	104.25
1054.0034	3247.9649	981.5	103.85
1054.1039	3248.8694	985.3	106.05
1054.2043	3249.7733	982.2	102.2
1054.3047	3250.6766	981.1	101.75
1054.4051	3251.5793	981.05	99.75
1054.5054	3252.4814	980.1	100.45
1054.6056	3253.3829	980.05	102.9
1054.7058	3254.2838	976.1	97.15
1054.806	3255.1841	978.05	98.1
1054.9061	3256.0838	977.25	96.5
1055.0061	3256.9829	976.65	97.05
1055.1062	3257.8814	979.5	98.2
1055.2061	3258.7792	976.95	93.8
1055.306	3259.6765	974.05	93.5
1055.4059	3260.5731	972.95	94.4
1055.5057	3261.4692	971.15	91.25
1055.6055	3262.3647	968.25	88.3
1055.7052	3263.2595	970.2	91.8
1055.8049	3264.1538	967	87.7
1055.9045	3265.0474	968.35	87.4
1056.0041	3265.9404	967.8	88.25
1056.1036	3266.8329	963.75	84.7
1056.2031	3267.7247	972.45	83.55
1056.3025	3268.616	958.5	79.75
1056.4019	3269.5066	960.1	78.2
1056.5013	3270.3966	955.95	73.15
1056.6005	3271.286	953.7	76.6
