Software Version:	3.9.2.0
Unit SN:	10000200
Spectrometer SN:	6960
Date:	3/6/2024 11:00:27 AM
Data Line Index:	25
Spectral Points:	2048
Integration time (ms):	125
Averages:	20
Delay (ms):	30
Sequence Number:	1
Processing:	dark subtract
Laser Power (mW):	300
Laser Current (mA):	822
Laser Diode Temp (C):	25.1
Laser Case Temp (C):	28.1
System Temp (C):	28
Spectrometer Temp (C):	25.4
CCD Temp (C):	-0.005
Secondary Temp (C):	20.007
Heatsink Temp (C):	23.735
CCDPCB Temp (C):	37.174
SecondaryPCB Temp (C):	34.606

Wavelength	RamanShift	Raw Counts	Dark Subtracted
787.061	30.1047	1091.25	677.45
787.2016	32.3739	1116.3	704.15
787.3422	34.6426	1151.75	738.3
787.4828	36.9109	1198.2	784.45
787.6235	39.1787	1258.65	840.2
787.7642	41.4461	1316.15	893.05
787.9049	43.7131	1376.65	948.65
788.0456	45.9796	1432.1	1002.3
788.1863	48.2456	1498.55	1064.7
788.3271	50.5112	1566.2	1129.3
788.4679	52.7764	1638.05	1197
788.6087	55.0411	1705.05	1262.85
788.7496	57.3054	1788.15	1338.55
788.8904	59.5692	1871.4	1421.4
789.0313	61.8326	1979.6	1523.75
789.1722	64.0955	2072.05	1610.85
789.3132	66.3579	2196.6	1731.35
789.4541	68.6199	2344.8	1875.7
789.5951	70.8815	2573.95	2103.75
789.7361	73.1426	3051.9	2577.05
789.8771	75.4032	4268.7	3789.3
790.0181	77.6634	7360.4	6874.4
790.1592	79.9231	15235.4	14744.2
790.3003	82.1824	49170.75	48671.5
790.4414	84.4412	65535	65018.1
790.5825	86.6995	65535	64992.65
790.7237	88.9574	65535	64971.6
790.8648	91.2148	65535	64955.85
791.006	93.4717	65535	64944.25
791.1472	95.7282	65535	64939.4
791.2885	97.9842	65535	64933.95
791.4297	100.2398	65535	64939.45
791.571	102.4949	65535	64930.35
791.7123	104.7495	65535	64927.75
791.8536	107.0036	65535	64926.2
791.9949	109.2573	65535	64928.65
792.1363	111.5105	65535	64927.25
792.2777	113.7632	65535	64920.9
792.4191	116.0154	65535	64912.85
792.5605	118.2672	65535	64920.9
792.7019	120.5185	65535	64920.7
792.8434	122.7693	65535	64918.4
792.9849	125.0197	65535	64911.7
793.1264	127.2696	65535	64908.95
793.2679	129.519	65535	64904.5
793.4094	131.7679	65535	64907
793.551	134.0163	65535	64901.05
793.6926	136.2642	65535	64898.1
793.8342	138.5117	65535	64884
793.9758	140.7587	65535	64895.1
794.1175	143.0052	65535	64889.4
794.2591	145.2512	65535	64890.9
794.4008	147.4967	65535	64886.6
794.5425	149.7417	65535	64889.2
794.6842	151.9863	65535	64883.7
794.826	154.2304	65535	64873.2
794.9677	156.4739	65535	64873.2
795.1095	158.717	65535	64872.4
795.2513	160.9596	65535	64867.6
795.3931	163.2017	65535	64866.35
795.535	165.4433	65535	64864.85
795.6768	167.6844	65535	64865.3
795.8187	169.925	65535	64862.85
795.9606	172.1651	65535	64857.5
796.1025	174.4047	65535	64854.35
796.2445	176.6439	65535	64852.8
796.3864	178.8825	65535	64849.25
796.5284	181.1206	65535	64847.2
796.6704	183.3582	65535	64840.05
796.8124	185.5954	65535	64837
796.9544	187.832	65535	64836.45
797.0965	190.0681	65535	64834.65
797.2386	192.3037	65535	64831.9
797.3806	194.5388	65535	64828.15
797.5228	196.7734	65535	64824.35
797.6649	199.0075	65535	64822.8
797.807	201.2411	65535	64817.95
797.9492	203.4742	65535	64821
798.0914	205.7068	65535	64815.7
798.2336	207.9389	65535	64817.5
798.3758	210.1704	65535	64812.7
798.518	212.4015	65535	64814.55
798.6603	214.632	65535	64817.1
798.8025	216.862	65535	64826
798.9448	219.0915	65535	64829
799.0871	221.3205	65535	64833.45
799.2294	223.549	65535	64833.05
799.3718	225.777	65535	64836.1
799.5141	228.0044	65535	64833.8
799.6565	230.2314	65535	64837.6
799.7989	232.4578	65535	64830.05
799.9413	234.6837	65535	64821.75
800.0837	236.909	65535	64825.5
800.2262	239.1339	65535	64797.4
800.3687	241.3582	65535	64812.1
800.5111	243.582	65535	64785.8
800.6536	245.8053	65535	64793.9
800.7961	248.0281	65535	64799.5
800.9387	250.2503	65535	64794.55
801.0812	252.472	65535	64790.05
801.2238	254.6932	65535	64790.25
801.3664	256.9139	65535	64783.9
801.509	259.134	65535	64784.3
801.6516	261.3536	65535	64785.15
801.7942	263.5727	65535	64784.4
801.9369	265.7912	65535	64782.9
802.0795	268.0092	65535	64785.9
802.2222	270.2267	65535	64779.45
802.3649	272.4436	65535	64779.6
802.5076	274.6601	65535	64775.4
802.6504	276.8759	65535	64774.35
802.7931	279.0913	65535	64771.5
802.9359	281.3061	65535	64772.5
803.0787	283.5204	65535	64771.55
803.2215	285.7341	65535	64766.9
803.3643	287.9473	65535	64756.15
803.5071	290.16	65535	64759.85
803.6499	292.3721	65535	64764.95
803.7928	294.5837	65535	64763.65
803.9357	296.7947	65535	64765.8
804.0786	299.0052	65535	64765.6
804.2215	301.2152	65535	64764.4
804.3644	303.4246	65535	64766.75
804.5074	305.6334	65535	64766.65
804.6503	307.8418	65535	64761.5
804.7933	310.0495	65535	64761.05
804.9363	312.2568	65535	64762
805.0793	314.4635	65535	64758.75
805.2223	316.6696	65535	64757.5
805.3653	318.8752	65535	64750.65
805.5084	321.0802	65535	64755
805.6514	323.2847	65535	64752.65
805.7945	325.4887	65535	64754.2
805.9376	327.692	65535	64751.15
806.0807	329.8949	65535	64752.8
806.2238	332.0972	65535	64751.6
806.367	334.2989	65535	64745.95
806.5101	336.5001	65535	64745.85
806.6533	338.7007	65535	64748.25
806.7965	340.9008	65535	64743.15
806.9397	343.1003	65535	64741.95
807.0829	345.2992	65535	64741.15
807.2261	347.4976	65535	64740.05
807.3693	349.6955	65535	64736.95
807.5126	351.8927	65535	64734.8
807.6559	354.0895	65535	64724.65
807.7991	356.2856	65535	64732.9
807.9424	358.4812	65535	64734.65
808.0857	360.6763	65535	64734.3
808.2291	362.8707	65535	64731.7
808.3724	365.0646	65535	64733.25
808.5158	367.258	65535	64726.8
808.6591	369.4508	65535	64725.35
808.8025	371.643	65535	64724.6
808.9459	373.8346	65535	64722.5
809.0893	376.0257	65535	64720
809.2327	378.2162	65535	64722
809.3762	380.4062	65535	64716.75
809.5196	382.5956	65535	64714.7
809.6631	384.7844	65535	64719.15
809.8066	386.9726	65535	64718.25
809.9501	389.1603	65535	64717.3
810.0936	391.3474	65535	64683.1
810.2371	393.5339	65535	64718
810.3806	395.7199	65535	64722.75
810.5241	397.9052	65535	64724.15
810.6677	400.09	65535	64725.3
810.8113	402.2743	65535	64726.2
810.9548	404.4579	65535	64724.9
811.0984	406.641	65535	64725.75
811.2421	408.8235	65535	64723.95
811.3857	411.0054	65535	64720.35
811.5293	413.1868	65535	64718.25
811.673	415.3675	65535	64718.55
811.8166	417.5477	65535	64716.35
811.9603	419.7273	65535	64712.2
812.104	421.9064	65535	64702.7
812.2477	424.0848	65535	64710.95
812.3914	426.2627	65535	64705.6
812.5351	428.4399	65535	64705.15
812.6788	430.6166	65535	64700.9
812.8226	432.7928	65535	64701.25
812.9663	434.9683	65535	64702.75
813.1101	437.1432	65535	64702.5
813.2539	439.3176	65535	64701
813.3977	441.4914	65535	64700.35
813.5415	443.6645	65535	64700.6
813.6853	445.8371	65535	64697.3
813.8291	448.0091	65535	64701.35
813.973	450.1806	65535	64699.8
814.1168	452.3514	65535	64696.65
814.2607	454.5216	65535	64688.7
814.4046	456.6913	65535	64696.2
814.5485	458.8603	65535	64696.8
814.6924	461.0288	65535	64698.4
814.8363	463.1967	65535	64697.75
814.9802	465.3639	65535	64694.45
815.1241	467.5306	65535	64696.2
815.2681	469.6967	65535	64695.7
815.412	471.8622	65535	64692.15
815.556	474.0271	65535	64697.8
815.7	476.1914	65535	64690.85
815.844	478.3551	65535	64693.1
815.988	480.5182	65535	64695.75
816.132	482.6807	65535	64691.55
816.276	484.8426	65535	64692.1
816.4201	487.0039	65535	64691.7
816.5641	489.1647	65535	64688.9
816.7082	491.3248	65535	64695
816.8522	493.4843	65535	64695.45
816.9963	495.6432	65535	64692.4
817.1404	497.8015	65535	64688.45
817.2845	499.9592	65535	64686.65
817.4286	502.1163	65535	64684.3
817.5727	504.2728	65535	64688.45
817.7168	506.4287	65535	64687.4
817.861	508.5839	65535	64688.6
818.0051	510.7386	65535	64688
818.1493	512.8927	65535	64683.9
818.2935	515.0461	65535	64683.5
818.4377	517.199	65535	64684.65
818.5818	519.3512	65535	64685.1
818.726	521.5029	65535	64677.75
818.8703	523.6539	65535	64680.45
819.0145	525.8043	65535	64683.3
819.1587	527.9541	65535	64678.4
819.303	530.1033	65535	64679.55
819.4472	532.2519	65535	64676.95
819.5915	534.3999	65535	64677.45
819.7357	536.5472	65535	64679.85
819.88	538.694	65535	64679.8
820.0243	540.8401	65535	64678.6
820.1686	542.9856	65535	64672.7
820.3129	545.1305	65535	64670.55
820.4572	547.2748	65535	64673.35
820.6016	549.4185	65535	64670.6
820.7459	551.5615	65535	64672.3
820.8902	553.704	65535	64673.05
821.0346	555.8458	65535	64674.6
821.1789	557.987	65535	64676.45
821.3233	560.1276	65535	64672
821.4677	562.2675	65535	64673.1
821.6121	564.4069	65535	64675
821.7565	566.5456	65535	64676.2
821.9009	568.6837	65535	64676.35
822.0453	570.8212	65535	64676.4
822.1897	572.958	65535	64674.25
822.3342	575.0942	65535	64674.75
822.4786	577.2299	65535	64677.7
822.6231	579.3648	65535	64677.3
822.7675	581.4992	65535	64675.75
822.912	583.6329	65535	64677.45
823.0565	585.766	65535	64675.95
823.201	587.8985	65535	64675.1
823.3454	590.0304	65535	64661.9
823.4899	592.1616	65535	64669.05
823.6345	594.2922	65535	64668.7
823.779	596.4222	65535	64670.8
823.9235	598.5515	65535	64668.45
824.068	600.6802	65535	64667.15
824.2126	602.8083	65535	64671.35
824.3571	604.9358	65535	64668.45
824.5017	607.0626	65535	64665.1
824.6462	609.1888	65535	64665.7
824.7908	611.3144	65535	64662.4
824.9354	613.4393	65535	64664.65
825.08	615.5636	65535	64666.7
825.2246	617.6873	65535	64666.25
825.3692	619.8103	65535	64664.25
825.5138	621.9327	65535	64661.25
825.6584	624.0544	65535	64666.05
825.803	626.1756	65535	64664.6
825.9477	628.2961	65535	64664.65
826.0923	630.4159	65535	64666.7
826.237	632.5351	65535	64665.55
826.3816	634.6537	65535	64663.2
826.5263	636.7716	65535	64661.15
826.6709	638.8889	65535	64663.65
826.8156	641.0056	65535	64661.1
826.9603	643.1216	65535	64660.9
827.105	645.237	65535	64658.45
827.2497	647.3518	65535	64662.45
827.3944	649.4659	65535	64664
827.5391	651.5793	65535	64662.55
827.6838	653.6922	65535	64661.4
827.8285	655.8043	65535	64664.75
827.9733	657.9159	65535	64661
828.118	660.0268	65535	64656.4
828.2627	662.137	65535	64661.35
828.4075	664.2466	65535	64657.4
828.5522	666.3556	65535	64657.6
828.697	668.4639	65535	64657
828.8418	670.5716	65535	64659.95
828.9865	672.6786	65535	64656.4
829.1313	674.785	65535	64654.85
829.2761	676.8907	65535	64658.25
829.4209	678.9958	65535	64658.9
829.5657	681.1002	65535	64656.7
829.7105	683.204	65535	64653.3
829.8553	685.3072	65535	64656.3
830.0001	687.4097	65535	64656.15
830.1449	689.5115	65535	64652.9
830.2898	691.6127	65535	64655.5
830.4346	693.7132	65535	64656.85
830.5794	695.8131	65535	64644.7
830.7243	697.9123	65535	64656.15
830.8691	700.0109	65535	64652.8
831.014	702.1089	65535	64654.7
831.1588	704.2061	65535	64653.5
831.3037	706.3028	65535	64654.2
831.4486	708.3987	65535	64654.45
831.5935	710.4941	65535	64652.25
831.7383	712.5887	65535	64652
831.8832	714.6827	65535	64647.1
832.0281	716.7761	65535	64650.75
832.173	718.8688	65535	64651.6
832.3179	720.9608	65535	64648.6
832.4628	723.0522	65535	64647.15
832.6077	725.1429	65535	64653.35
832.7527	727.233	65535	64649.1
832.8976	729.3224	65535	64649.05
833.0425	731.4112	65535	64651.4
833.1874	733.4993	65535	64648.85
833.3324	735.5867	65535	64650.2
833.4773	737.6735	65535	64649.4
833.6222	739.7596	65535	64650.1
833.7672	741.845	65535	64648.7
833.9122	743.9298	65535	64648.3
834.0571	746.014	65535	64649
834.2021	748.0974	65535	64648.45
834.347	750.1802	65535	64651.1
834.492	752.2624	65535	64646.8
834.637	754.3439	65535	64646.95
834.782	756.4247	65535	64641.05
834.9269	758.5048	65535	64646.45
835.0719	760.5843	65535	64645.45
835.2169	762.6631	65535	64646.2
835.3619	764.7413	65535	64647.15
835.5069	766.8188	65535	64645.75
835.6519	768.8956	65535	64645.05
835.7969	770.9718	65535	64648.55
835.9419	773.0473	65535	64649.45
836.0869	775.1221	65535	64647.35
836.232	777.1962	65535	64645.5
836.377	779.2697	65535	64644.5
836.522	781.3426	65535	64626.4
836.667	783.4147	65535	64643.1
836.8121	785.4862	65535	64648.75
836.9571	787.557	65535	64646.05
837.1021	789.6271	65535	64645.95
837.2472	791.6966	65535	64646.4
837.3922	793.7654	65535	64643.8
837.5373	795.8335	65535	64648.35
837.6823	797.901	65535	64645.85
837.8274	799.9678	65535	64644.85
837.9724	802.0339	65535	64643.65
838.1175	804.0993	65535	64633.7
838.2626	806.1641	65535	64641.6
838.4076	808.2282	65535	64644.95
838.5527	810.2916	65535	64640.35
838.6978	812.3544	65535	64646.1
838.8428	814.4164	65535	64645.6
838.9879	816.4778	65535	64642
839.133	818.5385	65535	64644.5
839.2781	820.5986	65535	64644.8
839.4232	822.658	65535	64642.55
839.5682	824.7166	65535	64642.9
839.7133	826.7747	65535	64646.15
839.8584	828.832	65535	64645.3
840.0035	830.8886	65535	64640.9
840.1486	832.9446	65535	64641.35
840.2937	834.9999	65535	64643.7
840.4388	837.0545	65535	64641.45
840.5839	839.1085	65535	64643.1
840.729	841.1618	65535	64638.1
840.8741	843.2143	65535	64644.7
841.0192	845.2662	65535	64643.3
841.1643	847.3175	65535	64643.9
841.3095	849.368	65535	64642.05
841.4546	851.4179	65535	64643.05
841.5997	853.467	65535	64640.3
841.7448	855.5155	65535	64641.9
841.8899	857.5633	65535	64643.55
842.0351	859.6105	65535	64644.4
842.1802	861.6569	65535	64642.05
842.3253	863.7027	65535	64638.15
842.4704	865.7478	65535	64641.7
842.6156	867.7922	65535	64641.65
842.7607	869.8359	65535	64639.75
842.9058	871.8789	65535	64641.65
843.0509	873.9212	65535	64611.65
843.1961	875.9629	65535	64641.95
843.3412	878.0039	65535	64639.85
843.4863	880.0441	65535	64641.5
843.6315	882.0837	65535	64640.7
843.7766	884.1226	65535	64639.25
843.9218	886.1609	65535	64640.3
844.0669	888.1984	65535	64640.05
844.212	890.2352	65535	64641.1
844.3572	892.2714	65535	64637.25
844.5023	894.3069	65535	64638.55
844.6475	896.3416	65535	64640
844.7926	898.3757	65535	64640.65
844.9377	900.4091	65535	64639.4
845.0829	902.4418	65535	64633.3
845.228	904.4739	65535	64639.2
845.3732	906.5052	65535	64641.45
845.5183	908.5358	65535	64641.5
845.6635	910.5658	65535	64638.8
845.8086	912.595	65535	64637.95
845.9538	914.6236	65535	64638.25
846.0989	916.6515	65535	64639.25
846.2441	918.6786	65535	64636.5
846.3892	920.7051	65535	64638.25
846.5344	922.7309	65535	64636.75
846.6795	924.756	65535	64637.95
846.8246	926.7804	65535	64635.7
846.9698	928.8041	65535	64635.75
847.1149	930.8272	65535	64641.05
847.2601	932.8495	65535	64637.55
847.4052	934.8711	65535	64637.55
847.5504	936.892	65535	64638.45
847.6955	938.9123	65535	64636.95
847.8407	940.9318	65535	64636.85
847.9858	942.9506	65535	64637.3
848.131	944.9688	65535	64639.5
848.2761	946.9862	65535	64639.15
848.4213	949.003	65535	64637.3
848.5664	951.019	65535	64637.1
848.7115	953.0344	65535	64637.45
848.8567	955.0491	65535	64637.8
849.0018	957.063	65535	64634.65
849.147	959.0763	65535	64636.6
849.2921	961.0888	65535	64635
849.4373	963.1007	65535	64639.15
849.5824	965.1119	65535	64638.4
849.7275	967.1223	65535	64637.35
849.8727	969.1321	65535	64638.2
850.0178	971.1412	65535	64637.9
850.1629	973.1495	65535	64637.45
850.3081	975.1572	65535	64603.9
850.4532	977.1641	65535	64633.5
850.5983	979.1704	65535	64636.3
850.7435	981.1759	65535	64633.4
850.8886	983.1808	65535	64633.55
851.0337	985.1849	65535	64626.55
851.1788	987.1884	65535	64635.25
851.324	989.1911	65535	64633
851.4691	991.1932	65535	64636.35
851.6142	993.1945	65535	64637.25
851.7593	995.1951	65535	64636.45
851.9045	997.1951	65535	64630.3
852.0496	999.1943	65535	64635.85
852.1947	1001.1928	65535	64632.1
852.3398	1003.1906	65535	64636.3
852.4849	1005.1877	65535	64636.6
852.63	1007.1841	65535	64635.85
852.7751	1009.1798	65535	64637.95
852.9202	1011.1748	65535	64639
853.0653	1013.1691	65535	64636.25
853.2104	1015.1627	65535	64635.75
853.3555	1017.1556	65535	64638.25
853.5006	1019.1477	65535	64632.9
853.6457	1021.1392	65535	64637.9
853.7908	1023.1299	65535	64638.65
853.9359	1025.12	65535	64633.7
854.081	1027.1093	65535	64639.85
854.2261	1029.0979	65535	64639.45
854.3712	1031.0859	65535	64640.25
854.5163	1033.0731	65535	64636.3
854.6613	1035.0596	65535	64638.05
854.8064	1037.0454	65535	64635.65
854.9515	1039.0304	65535	64639.55
855.0965	1041.0148	65535	64636.9
855.2416	1042.9985	65535	64635.9
855.3867	1044.9814	65535	64639.55
855.5317	1046.9636	65535	64634.4
855.6768	1048.9452	65535	64636.9
855.8219	1050.926	65535	64638.6
855.9669	1052.9061	65535	64635.8
856.112	1054.8855	65535	64634.75
856.257	1056.8642	65535	64633.95
856.4021	1058.8421	65535	64631.15
856.5471	1060.8194	65535	64636.9
856.6921	1062.7959	65535	64637.1
856.8372	1064.7717	65535	64635.6
856.9822	1066.7469	65535	64634.7
857.1272	1068.7213	65535	64632.95
857.2723	1070.695	65535	64635.1
857.4173	1072.6679	65535	64633.85
857.5623	1074.6402	65535	64635.2
857.7073	1076.6117	65535	64632.7
857.8523	1078.5826	65535	64636.1
857.9973	1080.5527	65535	64632.15
858.1423	1082.5221	65535	64635.3
858.2873	1084.4908	65535	64636.45
858.4323	1086.4587	65535	64636.7
858.5773	1088.426	65535	64638.45
858.7223	1090.3925	65535	64628.25
858.8673	1092.3584	65535	64636
859.0123	1094.3235	65535	64637.75
859.1573	1096.2879	65535	64635.6
859.3022	1098.2515	65535	64636.05
859.4472	1100.2145	65535	64636.1
859.5922	1102.1767	65535	64633.2
859.7371	1104.1382	65535	64632.65
859.8821	1106.099	65535	64634.05
860.027	1108.0591	65535	64637.5
860.172	1110.0185	65535	64635.15
860.3169	1111.9771	65535	64634.6
860.4619	1113.9351	65535	64634.75
860.6068	1115.8923	65535	64637.05
860.7517	1117.8488	65535	64634.3
860.8967	1119.8045	65535	64636.55
861.0416	1121.7596	65535	64634.2
861.1865	1123.7139	65535	64636
861.3314	1125.6675	65535	64637.65
861.4763	1127.6204	65535	64635.05
861.6212	1129.5726	65535	64633.2
861.7661	1131.524	65535	64636.65
861.911	1133.4748	65535	64634.05
862.0559	1135.4248	65535	64633
862.2008	1137.3741	65535	64635.7
862.3457	1139.3226	65535	64633.25
862.4905	1141.2705	65535	64636.9
862.6354	1143.2176	65535	64630.15
862.7803	1145.164	65535	64633.3
862.9251	1147.1097	65535	64636.15
863.07	1149.0546	65535	64631.2
863.2148	1150.9989	65535	64631.9
863.3597	1152.9424	65535	64634.9
863.5045	1154.8852	65535	64636.35
863.6493	1156.8272	65535	64636.9
863.7942	1158.7686	65535	64625.85
863.939	1160.7092	65535	64632.65
864.0838	1162.6491	65535	64635.15
864.2286	1164.5883	65535	64633.1
864.3734	1166.5267	65535	64633.05
864.5182	1168.4644	65535	64635
864.663	1170.4014	65535	64630.9
864.8078	1172.3377	65535	64634.55
864.9526	1174.2732	65535	64636.8
865.0974	1176.2081	65535	64633.3
865.2421	1178.1421	65535	64630.85
865.3869	1180.0755	65535	64635.45
865.5317	1182.0082	65535	64635.05
865.6764	1183.9401	65535	64634.8
865.8212	1185.8713	65535	64636
865.9659	1187.8017	65535	64637
866.1106	1189.7315	65535	64638.1
866.2554	1191.6605	65535	64609.9
866.4001	1193.5888	65535	64635.75
866.5448	1195.5163	65535	64635.45
866.6895	1197.4432	65535	64636.85
866.8342	1199.3693	65535	64637.3
866.9789	1201.2947	65535	64630.9
867.1236	1203.2193	65535	64634.9
867.2683	1205.1432	65535	64635.3
867.413	1207.0664	65535	64637.05
867.5576	1208.9889	65535	64634.15
867.7023	1210.9106	65535	64637
867.847	1212.8316	65535	64636
867.9916	1214.7519	65535	64625.3
868.1363	1216.6715	65535	64634.9
868.2809	1218.5903	65535	64637.05
868.4255	1220.5084	65535	64635.3
868.5701	1222.4257	65535	64636.4
868.7148	1224.3424	65535	64637.35
868.8594	1226.2583	65535	64627.4
869.004	1228.1735	65535	64634.9
869.1486	1230.0879	65535	64633.95
869.2932	1232.0016	65535	64632.95
869.4377	1233.9146	65535	64634.05
869.5823	1235.8269	65535	64636.05
869.7269	1237.7384	65535	64635
869.8715	1239.6492	65535	64635.25
870.016	1241.5592	65535	64633.9
870.1606	1243.4686	65535	64634.45
870.3051	1245.3772	65535	64634.65
870.4496	1247.285	65535	64635
870.5941	1249.1922	65535	64636.9
870.7387	1251.0986	65535	64634.3
870.8832	1253.0042	65535	64636.1
871.0277	1254.9092	65535	64634.55
871.1722	1256.8134	65535	64636.75
871.3167	1258.7169	65535	64637
871.4611	1260.6196	65535	64635.45
871.6056	1262.5216	65535	64635.2
871.7501	1264.4229	65535	64637.35
871.8945	1266.3234	65535	64636.25
872.039	1268.2232	65535	64632.7
872.1834	1270.1223	65535	64633.65
872.3278	1272.0207	65535	64635.5
872.4723	1273.9183	65535	64631.25
872.6167	1275.8151	65535	64635.6
872.7611	1277.7113	65535	64634.4
872.9055	1279.6067	65535	64635.15
873.0499	1281.5014	65535	64635.15
873.1943	1283.3953	65535	64634.3
873.3386	1285.2885	65535	64635.05
873.483	1287.181	65535	64635.7
873.6274	1289.0727	65535	64637.25
873.7717	1290.9637	65535	64635.9
873.9161	1292.854	65535	64637.25
874.0604	1294.7435	65535	64635.3
874.2047	1296.6323	65535	64635.4
874.349	1298.5204	65535	64629.35
874.4933	1300.4077	65535	64632.95
874.6376	1302.2943	65535	64635.7
874.7819	1304.1802	65535	64637.9
874.9262	1306.0653	65535	64636.55
875.0705	1307.9497	65535	64635.55
875.2147	1309.8333	65535	64635.25
875.359	1311.7162	65535	64635.65
875.5032	1313.5984	65535	64633.5
875.6475	1315.4798	65535	64623.15
875.7917	1317.3605	65535	64617.45
875.9359	1319.2405	65535	64635.25
876.0801	1321.1197	65535	64632.55
876.2243	1322.9982	65535	64632.85
876.3685	1324.876	65535	64635.25
876.5127	1326.753	65535	64634.55
876.6569	1328.6293	65535	64633.95
876.801	1330.5048	65535	64632.85
876.9452	1332.3796	65535	64634.15
877.0893	1334.2537	65535	64611.3
877.2335	1336.127	65535	64638.55
877.3776	1337.9996	65535	64633.45
877.5217	1339.8714	65535	64635.85
877.6658	1341.7426	65535	64590.05
877.8099	1343.6129	65535	64635.6
877.954	1345.4826	65535	64634.9
878.0981	1347.3515	65535	64633.35
878.2422	1349.2196	65535	64635.1
878.3862	1351.087	65535	64634.45
878.5303	1352.9537	65535	64633.3
878.6743	1354.8197	65535	64636.95
878.8184	1356.6849	65535	64633.95
878.9624	1358.5493	65535	64634
879.1064	1360.4131	65535	64632.25
879.2504	1362.276	65535	64634.25
879.3944	1364.1383	65535	64635.5
879.5384	1365.9998	65535	64628.4
879.6823	1367.8606	65535	64635
879.8263	1369.7206	65535	64635.1
879.9702	1371.5799	65535	64631.6
880.1142	1373.4384	65535	64636.8
880.2581	1375.2962	65535	64634.7
880.402	1377.1533	65535	64634.15
880.5459	1379.0096	65535	64635.1
880.6898	1380.8652	65535	64635.7
880.8337	1382.7201	65535	64637.5
880.9776	1384.5742	65535	64633.85
881.1215	1386.4275	65535	64633.7
881.2653	1388.2802	65535	64638.35
881.4092	1390.132	65535	64632.15
881.553	1391.9832	65535	64634.8
881.6968	1393.8336	65535	64634.85
881.8406	1395.6832	65535	64633.25
881.9844	1397.5322	65535	64635.7
882.1282	1399.3803	65535	64630.5
882.272	1401.2278	65535	64634.65
882.4158	1403.0745	65535	64635.7
882.5595	1404.9204	65535	64634.35
882.7033	1406.7656	65535	64635.95
882.847	1408.6101	65535	64634.7
882.9908	1410.4538	65535	64635.55
883.1345	1412.2968	65535	64633.55
883.2782	1414.139	65535	64635.3
883.4219	1415.9805	65535	64634.65
883.5656	1417.8213	65535	64630.8
883.7092	1419.6613	65535	64635.75
883.8529	1421.5006	65535	64633.25
883.9965	1423.3391	65535	64634.1
884.1402	1425.1769	65535	64633.8
884.2838	1427.0139	65535	64634.6
884.4274	1428.8502	65535	64634.65
884.571	1430.6858	65535	64635.15
884.7146	1432.5206	65535	64633.1
884.8582	1434.3547	65535	64634.55
885.0018	1436.188	65535	64633.9
885.1453	1438.0206	65535	64635.05
885.2889	1439.8524	65535	64635.85
885.4324	1441.6835	65535	64633
885.5759	1443.5139	65535	64630.05
885.7194	1445.3435	65535	64635.65
885.8629	1447.1724	65535	64635.85
886.0064	1449.0005	65535	64636.85
886.1499	1450.8279	65535	64635.45
886.2933	1452.6545	65535	64634.55
886.4368	1454.4804	65535	64635.4
886.5802	1456.3056	65535	64627.75
886.7237	1458.13	65535	64636.6
886.8671	1459.9536	65535	64637.35
887.0105	1461.7766	65535	64636.75
887.1539	1463.5987	65535	64635.85
887.2972	1465.4202	65535	64634.7
887.4406	1467.2409	65535	64633.45
887.584	1469.0608	65535	64637.3
887.7273	1470.88	65535	64636.85
887.8706	1472.6984	65535	64635.75
888.0139	1474.5161	65535	64633.55
888.1572	1476.3331	65535	64632.5
888.3005	1478.1493	65535	64634.85
888.4438	1479.9648	65535	64636.7
888.5871	1481.7795	65535	64636.05
888.7303	1483.5935	65535	64636.25
888.8736	1485.4067	65535	64635.85
889.0168	1487.2192	65535	64636.15
889.16	1489.031	65535	64634.1
889.3032	1490.842	65535	64635.1
889.4464	1492.6522	65535	64637.3
889.5896	1494.4618	65535	64634.7
889.7327	1496.2705	65535	64637
889.8759	1498.0785	65535	64636.65
890.019	1499.8858	65535	64635.8
890.1622	1501.6924	65535	64635.75
890.3053	1503.4981	65535	64635.65
890.4484	1505.3032	65535	64634.9
890.5914	1507.1075	65535	64635.35
890.7345	1508.911	65535	64635.9
890.8776	1510.7138	65535	64634.8
891.0206	1512.5159	65535	64635.6
891.1637	1514.3172	65517.35	64619
891.3067	1516.1178	65523.65	64627.65
891.4497	1517.9176	65532.5	64629.15
891.5927	1519.7166	65522.95	64626.6
891.7357	1521.515	65519.2	64613.45
891.8786	1523.3126	65477.95	64578.3
892.0216	1525.1094	65523.85	64623.15
892.1645	1526.9055	65508.35	64612.6
892.3074	1528.7008	65504.95	64606.3
892.4503	1530.4954	65426.5	64521.8
892.5932	1532.2893	65506.95	64609.8
892.7361	1534.0824	65418.1	64514.7
892.879	1535.8747	65344.8	64448.85
893.0218	1537.6663	65512.1	64612.8
893.1647	1539.4572	65103.4	64202.6
893.3075	1541.2473	65304.1	64406.55
893.4503	1543.0367	65261.6	64363
893.5931	1544.8253	65191.8	64290.05
893.7359	1546.6132	65234.9	64333.45
893.8787	1548.4003	65097.3	64189.15
894.0214	1550.1867	65040.15	64135.1
894.1642	1551.9723	64923.35	64019.5
894.3069	1553.7572	64973.5	64073.7
894.4496	1555.5414	65106.15	64207.75
894.5923	1557.3247	64002.8	63106.05
894.735	1559.1074	64961.25	64063.7
894.8777	1560.8893	64622.3	63725.4
895.0204	1562.6705	64799.3	63902.55
895.163	1564.4509	64077.35	63181.1
895.3056	1566.2305	64453.75	63555.35
895.4482	1568.0094	64845.1	63948.8
895.5908	1569.7876	64511.9	63615.2
895.7334	1571.565	63993.9	63095.35
895.876	1573.3417	64291.55	63395.3
896.0186	1575.1176	64150.9	63255.6
896.1611	1576.8928	63872.4	62975.35
896.3036	1578.6672	63267.45	62372.6
896.4461	1580.4409	63648.8	62754.45
896.5886	1582.2138	62782.45	61884.25
896.7311	1583.986	63010.4	62112.2
896.8736	1585.7575	62165.05	61269.55
897.0161	1587.5282	62357.9	61461.75
897.1585	1589.2981	62363.7	61469.5
897.3009	1591.0673	61640.4	60743.2
897.4433	1592.8358	61147.7	60252.5
897.5857	1594.6035	61641.7	60744
897.7281	1596.3704	61720.65	60822.5
897.8705	1598.1366	60744.65	59850.4
898.0128	1599.9021	60273.7	59377.5
898.1551	1601.6668	61003.15	60104.75
898.2975	1603.4308	60577.05	59680.55
898.4398	1605.194	60765	59865.4
898.5821	1606.9564	59617.25	58722.6
898.7243	1608.7182	60245.9	59346.55
898.8666	1610.4791	59642.45	58749.65
899.0088	1612.2394	60152.05	59257.15
899.1511	1613.9988	59639	58744.9
899.2933	1615.7576	60341.3	59447.95
899.4355	1617.5156	60254.35	59352.35
899.5776	1619.2728	60981.25	60084.9
899.7198	1621.0293	59839.65	58945.6
899.862	1622.785	59854.45	58956
900.0041	1624.54	60248.5	59350.45
900.1462	1626.2942	59653	58756.15
900.2883	1628.0477	58581.4	57680.85
900.4304	1629.8005	58014.3	57115.25
900.5725	1631.5525	58476.65	57581.35
900.7145	1633.3037	57419.55	56525.1
900.8566	1635.0542	57295.7	56400.5
900.9986	1636.804	57443.75	56550.15
901.1406	1638.553	56738.95	55737.75
901.2826	1640.3013	56829.65	55934.9
901.4245	1642.0488	56236.8	55340.75
901.5665	1643.7955	56492.9	55599.7
901.7085	1645.5416	56094	55198.4
901.8504	1647.2868	55832.05	54937.3
901.9923	1649.0313	56309.1	55416.3
902.1342	1650.7751	56010.2	55112.6
902.2761	1652.5181	55709.8	54813.25
902.4179	1654.2604	55816.15	54920.2
902.5598	1656.0019	56261.7	55368.3
902.7016	1657.7427	56062.25	55167.8
902.8434	1659.4828	56569.45	55675.6
902.9852	1661.222	56383.45	55487.75
903.127	1662.9606	56472.5	55580
903.2687	1664.6984	56038.9	55145.6
903.4105	1666.4354	55906.8	55011.9
903.5522	1668.1717	54934.65	54037.65
903.6939	1669.9072	54294	53400.1
903.8356	1671.642	53842.15	52945.15
903.9773	1673.3761	53548.75	52655
904.119	1675.1094	53192.05	52297.05
904.2606	1676.8419	52745.95	51848
904.4022	1678.5737	52389.6	51495.2
904.5439	1680.3048	52151.05	51256.3
904.6855	1682.0351	51835.15	50942.9
904.827	1683.7646	51588.45	50689.55
904.9686	1685.4934	51490.9	50598.65
905.1101	1687.2215	51005	50109.5
905.2517	1688.9488	51074.35	50181
905.3932	1690.6754	50388.15	49495.45
905.5347	1692.4012	50453.05	49559
905.6761	1694.1263	50308.8	49413.05
905.8176	1695.8506	50070.2	49173.5
905.9591	1697.5742	49831.45	48938.3
906.1005	1699.297	49664.75	48770.4
906.2419	1701.0191	49404.1	48511.95
906.3833	1702.7404	49144.15	48250.45
906.5246	1704.461	48870.25	47974.55
906.666	1706.1808	48706.1	47810.35
906.8073	1707.8999	48566.9	47670.3
906.9487	1709.6182	48404	47509.6
907.09	1711.3358	48256.05	47362.75
907.2313	1713.0527	48098.65	47207.25
907.3725	1714.7688	47932.1	47034.35
907.5138	1716.4841	47649.3	46755.7
907.655	1718.1987	47548.15	46649.85
907.7962	1719.9126	47368.5	46474.1
907.9374	1721.6257	47219.05	46323.1
908.0786	1723.338	47154.05	46259.7
908.2198	1725.0496	46711.45	45818.55
908.3609	1726.7605	46670.85	45776.75
908.502	1728.4706	46512.85	45617.35
908.6431	1730.18	46225.35	45330.45
908.7842	1731.8886	46110.8	45216.4
908.9253	1733.5964	45994.7	45080
909.0664	1735.3036	45859.8	44964.7
909.2074	1737.0099	45779.9	44887.8
909.3484	1738.7156	45641.35	44750.5
909.4894	1740.4204	45316.3	44419.55
909.6304	1742.1246	45293.25	44399.4
909.7714	1743.8279	45082.9	44192.55
909.9123	1745.5306	45027.3	44135.45
910.0532	1747.2325	44837.15	43945.6
910.1941	1748.9336	44695.75	43803.15
910.335	1750.634	44463.15	43566.5
910.4759	1752.3336	44450.9	43558.2
910.6168	1754.0325	44343.25	43451.55
910.7576	1755.7307	44181.25	43289.85
910.8984	1757.4281	44077.5	43184.2
911.0392	1759.1247	43940.2	43039.6
911.18	1760.8206	43841.15	42943.6
911.3208	1762.5158	43755.65	42859.05
911.4615	1764.2102	43567.65	42674.05
911.6022	1765.9039	43408.5	42516.4
911.7429	1767.5968	43323.45	42431.25
911.8836	1769.289	43198.95	42306.95
912.0243	1770.9804	43045.25	42150.35
912.1649	1772.6711	42976.1	42082.7
912.3056	1774.361	42795.2	41901.75
912.4462	1776.0502	42743.5	41850.95
912.5868	1777.7386	42626.6	41731
912.7274	1779.4263	42464.35	41571.6
912.8679	1781.1132	42391.95	41500.4
913.0084	1782.7994	42257.45	41363.05
913.149	1784.4849	42150.65	41257.65
913.2895	1786.1696	41900.55	41001
913.4299	1787.8535	41788.05	40896.65
913.5704	1789.5367	41680.4	40788.95
913.7108	1791.2192	41681.5	40790.85
913.8513	1792.9009	41448.65	40525.95
913.9917	1794.5818	41330.5	40436.1
914.132	1796.2621	41217.55	40325.6
914.2724	1797.9415	41088.6	40196.35
914.4128	1799.6202	40975.8	40082.65
914.5531	1801.2982	40835.85	39942.4
914.6934	1802.9755	40758.5	39865.5
914.8337	1804.6519	40704	39808.5
914.9739	1806.3277	40431.2	39539.45
915.1142	1808.0027	40275.95	39386.15
915.2544	1809.6769	40247.95	39353.7
915.3946	1811.3504	40070.95	39176.6
915.5348	1813.0231	39969.95	39076.45
915.675	1814.6951	39937.15	39044.45
915.8151	1816.3664	39921.85	39027.15
915.9553	1818.0369	39774.85	38880.45
916.0954	1819.7067	39618.05	38726.75
916.2355	1821.3757	39498.35	38606.1
916.3755	1823.044	39423.1	38529.3
916.5156	1824.7115	39320.1	38426.55
916.6556	1826.3783	39099.4	38207.95
916.7956	1828.0443	38959.35	38066.55
916.9356	1829.7096	38874.95	37980.15
917.0756	1831.3741	38841.55	37944.7
917.2155	1833.0379	38707.5	37814.3
917.3555	1834.701	38533.95	37640.75
917.4954	1836.3633	38554.4	37661.45
917.6353	1838.0248	38335.55	37440.8
917.7751	1839.6856	38216.45	37324.4
917.915	1841.3457	38177.7	37285.95
918.0548	1843.005	38131.6	37239.25
918.1946	1844.6636	38038.15	37149.35
918.3344	1846.3214	37871.05	36978.35
918.4742	1847.9785	37848.65	36956.15
918.6139	1849.6349	37641.6	36746.45
918.7537	1851.2904	37607.6	36705.25
918.8934	1852.9453	37497	36604.1
919.0331	1854.5994	37356.25	36463.2
919.1727	1856.2528	37367.35	36468.75
919.3124	1857.9054	37248.9	36355.5
919.452	1859.5572	37192.5	36299.35
919.5916	1861.2083	37055.4	36161.8
919.7312	1862.8587	37047.35	36154.75
919.8708	1864.5084	36930.9	36037.95
920.0103	1866.1572	36783.55	35889.9
920.1498	1867.8054	36568	35675.95
920.2893	1869.4528	36544.5	35652.45
920.4288	1871.0994	36425.9	35533.15
920.5683	1872.7453	36368.95	35474.9
920.7077	1874.3905	36251.65	35352.35
920.8471	1876.0349	36064.5	35171.3
920.9865	1877.6786	36062	35169.9
921.1259	1879.3215	36018.75	35129.55
921.2653	1880.9637	35887.65	34996.1
921.4046	1882.6051	35797.6	34905.1
921.5439	1884.2458	35714.55	34821.6
921.6832	1885.8858	35576	34682.15
921.8225	1887.525	35487.5	34596.05
921.9617	1889.1634	35293.55	34400.9
922.101	1890.8011	35202.25	34307.85
922.2402	1892.4381	35169.3	34276.45
922.3794	1894.0743	35065.7	34174.05
922.5185	1895.7098	34961.4	34070.05
922.6577	1897.3446	34854.1	33960.75
922.7968	1898.9786	34727	33829.9
922.9359	1900.6118	34705	33813.75
923.075	1902.2443	34502.8	33608.75
923.214	1903.8761	34377.85	33487.15
923.3531	1905.5071	34179.8	33286
923.4921	1907.1374	34089.6	33196.95
923.6311	1908.7669	34004.95	33113.75
923.77	1910.3957	33964.9	33074.15
923.909	1912.0237	33689.3	32797.45
924.0479	1913.651	33621.95	32729.5
924.1868	1915.2776	33558.4	32667.65
924.3257	1916.9034	33417.6	32527.9
924.4646	1918.5285	33222.5	32331.5
924.6034	1920.1528	33085.1	32190.9
924.7422	1921.7764	33034.15	32140.95
924.881	1923.3992	32895.6	32005.15
925.0198	1925.0213	32656.9	31765.6
925.1586	1926.6427	32492.85	31601.75
925.2973	1928.2633	32544.65	31543.9
925.436	1929.8832	32365.7	31472.6
925.5747	1931.5023	32221	31329.2
925.7134	1933.1207	32123.3	31230
925.852	1934.7383	32083.15	31190.7
925.9906	1936.3552	31921.2	31030.05
926.1292	1937.9714	31819.7	30927.25
926.2678	1939.5868	31685.35	30790.95
926.4064	1941.2015	31504.2	30611.5
926.5449	1942.8154	31341	30451
926.6834	1944.4286	31209.3	30318.05
926.8219	1946.041	31089.8	30178.8
926.9604	1947.6528	30935	30037.3
927.0988	1949.2637	30850.85	29959.3
927.2372	1950.8739	30709.2	29819.15
927.3756	1952.4834	30672	29780.05
927.514	1954.0921	30588.2	29695.3
927.6523	1955.7001	30439.4	29543.45
927.7907	1957.3074	30372.15	29481.55
927.929	1958.9139	30210.65	29320.35
928.0673	1960.5197	30147.35	29254.55
928.2055	1962.1247	29994.15	29103.5
928.3438	1963.729	29847.75	28956.9
928.482	1965.3325	29708.25	28793.95
928.6202	1966.9353	29590.4	28698.6
928.7584	1968.5374	29506.95	28614.45
928.8965	1970.1387	29396.9	28503.3
929.0346	1971.7393	29285.95	28393.55
929.1727	1973.3392	29183.35	28294.05
929.3108	1974.9383	29066.2	28176
929.4489	1976.5366	28947.75	28055.3
929.5869	1978.1342	28908.55	28015.85
929.7249	1979.7311	28815.45	27923.15
929.8629	1981.3273	28730.45	27837.95
930.0009	1982.9227	28657.55	27765.45
930.1388	1984.5173	28518.15	27626.3
930.2767	1986.1112	28365.2	27476.55
930.4146	1987.7044	28289.25	27398.85
930.5525	1989.2968	28204.95	27312.9
930.6904	1990.8885	28112.85	27218.2
930.8282	1992.4795	28045.25	27150.9
930.966	1994.0697	27882.65	26988.7
931.1038	1995.6592	27764.55	26873.85
931.2415	1997.2479	27708.35	26817.75
931.3793	1998.8359	27618.05	26728.05
931.517	2000.4232	27468.45	26579.15
931.6547	2002.0097	27396.4	26506.35
931.7923	2003.5955	27256.55	26364.15
931.93	2005.1805	27261.3	26370.7
932.0676	2006.7648	27149.3	26259.4
932.2052	2008.3484	27078.25	26184.55
932.3427	2009.9312	27085.9	26193.75
932.4803	2011.5133	26918.95	26030.2
932.6178	2013.0946	26805.45	25914.9
932.7553	2014.6752	26732.35	25844.15
932.8928	2016.2551	26657.9	25766.1
933.0302	2017.8342	26551.5	25659.6
933.1676	2019.4126	26483.15	25592.15
933.305	2020.9902	26326.15	25437.55
933.4424	2022.5672	26321.6	25429.5
933.5798	2024.1433	26226.2	25328.6
933.7171	2025.7188	26072.2	25182.3
933.8544	2027.2935	25974.2	25083.6
933.9917	2028.8674	25896.85	25007.45
934.129	2030.4406	25801.1	24912.8
934.2662	2032.0131	25668.85	24779.05
934.4034	2033.5849	25601.9	24705.15
934.5406	2035.1559	25551.75	24660.1
934.6778	2036.7261	25468.8	24578.45
934.8149	2038.2957	25415.25	24522.35
934.952	2039.8645	25335.3	24444.85
935.0891	2041.4325	25316.05	24423.35
935.2262	2042.9998	25194.65	24302.45
935.3632	2044.5664	25122.9	24230.55
935.5002	2046.1323	25035.15	24145.05
935.6372	2047.6974	24951.2	24061.6
935.7742	2049.2617	24863.9	23973.1
935.9111	2050.8254	24851.3	23939.3
936.048	2052.3883	24781	23888
936.1849	2053.9504	24680.25	23790.3
936.3218	2055.5118	24557.7	23664.9
936.4586	2057.0725	24459	23565.85
936.5955	2058.6325	24382.65	23489.25
936.7323	2060.1917	24353.1	23463.65
936.869	2061.7502	24296.3	23402.15
937.0058	2063.3079	24184.55	23293.85
937.1425	2064.8649	24110.35	23217.45
937.2792	2066.4212	24042.75	23151
937.4159	2067.9767	23939.7	23049.95
937.5525	2069.5315	23865.55	22975.65
937.6891	2071.0856	23718.35	22825.55
937.8257	2072.6389	23652.05	22763.05
937.9623	2074.1915	23499.65	22610.1
938.0989	2075.7433	23400.05	22505.2
938.2354	2077.2945	23328.85	22439.1
938.3719	2078.8448	23296.45	22405.4
938.5084	2080.3945	23165.6	22275.35
938.6448	2081.9434	23149.5	22259.8
938.7812	2083.4916	23083.9	22191.95
938.9176	2085.039	22998.6	22105.85
939.054	2086.5857	22903.25	22009.75
939.1903	2088.1317	22843.95	21953.8
939.3267	2089.677	22784.85	21892.3
939.463	2091.2215	22704.95	21812.55
939.5992	2092.7652	22636.75	21744.95
939.7355	2094.3083	22593.3	21699.25
939.8717	2095.8506	22512.15	21623.4
940.0079	2097.3921	22510.9	21619.25
940.1441	2098.933	22401	21510.55
940.2802	2100.4731	22319.05	21426.75
940.4163	2102.0124	22287.05	21387.85
940.5524	2103.5511	22264.05	21372.45
940.6885	2105.089	22203.1	21311.05
940.8245	2106.6261	22091.65	21199.25
940.9606	2108.1626	22068.6	21176.85
941.0965	2109.6983	21978.3	21058.1
941.2325	2111.2332	21881.1	20989.1
941.3684	2112.7675	21819.7	20928.1
941.5044	2114.301	21731.15	20837.85
941.6403	2115.8337	21717.45	20825.8
941.7761	2117.3657	21659.25	20767.3
941.912	2118.897	21608	20716.15
942.0478	2120.4276	21542.6	20644.95
942.1835	2121.9575	21413.9	20520.8
942.3193	2123.4866	21399.95	20493.25
942.455	2125.0149	21312.1	20417.65
942.5907	2126.5426	21208.7	20317.85
942.7264	2128.0695	21149.1	20254.95
942.8621	2129.5956	21112.6	20223
942.9977	2131.1211	21053.75	20160.1
943.1333	2132.6458	21011.95	20120.65
943.2689	2134.1698	20931.55	20040.5
943.4044	2135.693	20859.2	19962.7
943.54	2137.2155	20853.1	19959
943.6755	2138.7373	20775.15	19885.65
943.8109	2140.2584	20695.75	19805
943.9464	2141.7787	20607.7	19710.4
944.0818	2143.2983	20492.8	19602.7
944.2172	2144.8171	20404.75	19515
944.3526	2146.3353	20378.5	19485.8
944.4879	2147.8527	20287.35	19396.7
944.6232	2149.3693	20286.45	19395.55
944.7585	2150.8853	20193.7	19301.25
944.8938	2152.4005	20088.4	19194.9
945.029	2153.9149	20057.4	19163.6
945.1642	2155.4287	19961.25	19070.9
945.2994	2156.9417	19918.75	19026.25
945.4346	2158.454	19831.9	18939.05
945.5697	2159.9655	19784.65	18892.9
945.7048	2161.4764	19750.55	18860.6
945.8399	2162.9865	19669.9	18777.4
945.9749	2164.4958	19623.8	18732.6
946.1099	2166.0045	19514	18619.7
946.2449	2167.5124	19528.3	18636.75
946.3799	2169.0195	19461.1	18569.7
946.5148	2170.526	19414.4	18520.55
946.6498	2172.0317	19346.8	18454.3
946.7846	2173.5367	19294.95	18401.4
946.9195	2175.0409	19236.55	18345.5
947.0543	2176.5445	19245.9	18354.75
947.1891	2178.0473	19136.4	18244.85
947.3239	2179.5494	19035.85	18141
947.4587	2181.0507	18966.25	18073.2
947.5934	2182.5513	18882.9	17991.15
947.7281	2184.0512	18852.8	17962
947.8628	2185.5504	18804.95	17911.7
947.9974	2187.0488	18692.75	17800.65
948.132	2188.5465	18611.35	17719.25
948.2666	2190.0435	18554.75	17662.6
948.4012	2191.5397	18478.35	17586.65
948.5357	2193.0353	18438.55	17549.95
948.6702	2194.5301	18321.45	17427.4
948.8047	2196.0241	18276.6	17383.4
948.9392	2197.5175	18220.65	17329.55
949.0736	2199.0101	18107.5	17212.95
949.208	2200.502	18040.75	17150.85
949.3424	2201.9931	17943.15	17052
949.4767	2203.4835	17909.65	17017.4
949.611	2204.9733	17865.7	16968.8
949.7453	2206.4622	17826.15	16933.45
949.8796	2207.9505	17725.65	16832.15
950.0138	2209.438	17661.4	16771.75
950.148	2210.9248	17592.2	16699.05
950.2822	2212.4109	17545.75	16653.6
950.4164	2213.8962	17464.7	16570.6
950.5505	2215.3809	17422.85	16528.75
950.6846	2216.8648	17368.75	16476.5
950.8186	2218.3479	17358.3	16463.95
950.9527	2219.8304	17235.65	16341.2
951.0867	2221.3121	17181.3	16286.25
951.2207	2222.7931	17114.55	16222.6
951.3546	2224.2733	17066.45	16175.45
951.4886	2225.7529	16971.8	16079.7
951.6225	2227.2317	16911.85	16018.1
951.7563	2228.7098	16915.2	16022.8
951.8902	2230.1872	16810.4	15919
952.024	2231.6638	16777.95	15885.05
952.1578	2233.1397	16737.05	15836.35
952.2916	2234.6149	16670.35	15778.95
952.4253	2236.0894	16589.25	15695.95
952.559	2237.5632	16568.75	15668.45
952.6927	2239.0362	16477.75	15586.35
952.8263	2240.5085	16418.75	15527.65
952.9599	2241.9801	16359.35	15465.75
953.0935	2243.4509	16318.4	15428.15
953.2271	2244.921	16247.75	15355.8
953.3606	2246.3904	16187.45	15290.85
953.4941	2247.8591	16108.45	15217.65
953.6276	2249.3271	16098.3	15207.9
953.7611	2250.7943	16040.15	15146.9
953.8945	2252.2608	15989.85	15097.9
954.0279	2253.7266	15937.45	15044.75
954.1612	2255.1917	15852.6	14959.55
954.2946	2256.656	15789.3	14897.55
954.4279	2258.1197	15740.1	14850.5
954.5612	2259.5826	15700.1	14807.1
954.6944	2261.0447	15671.55	14778.25
954.8276	2262.5062	15604.1	14710
954.9608	2263.9669	15602.3	14707.5
955.094	2265.4269	15533.3	14644.15
955.2271	2266.8862	15456.15	14565.4
955.3602	2268.3448	15422.55	14530.8
955.4933	2269.8026	15393	14502.05
955.6264	2271.2598	15338.6	14444.25
955.7594	2272.7162	15321.6	14428.7
955.8924	2274.1719	15225.65	14334.55
956.0253	2275.6268	15192.75	14301.05
956.1583	2277.0811	15135.95	14241.25
956.2912	2278.5346	15091.9	14201
956.4241	2279.9874	15021.1	14129.7
956.5569	2281.4395	14991.45	14101.45
956.6897	2282.8908	14953.7	14059.05
956.8225	2284.3414	14907.65	14012.45
956.9553	2285.7914	14873.45	13980.6
957.088	2287.2406	14813.3	13921.65
957.2207	2288.689	14749.85	13859
957.3534	2290.1368	14721.65	13830.7
957.486	2291.5838	14674.85	13779.05
957.6186	2293.0302	14621.3	13727.7
957.7512	2294.4758	14548.95	13656.05
957.8838	2295.9206	14489.65	13594.35
958.0163	2297.3648	14449.7	13557.8
958.1488	2298.8082	14444.15	13550.55
958.2813	2300.251	14370.6	13478.65
958.4137	2301.693	14299.2	13405.6
958.5461	2303.1343	14306.95	13414.8
958.6785	2304.5748	14272.2	13380
958.8108	2306.0147	14217.4	13324.6
958.9432	2307.4538	14168.9	13275.25
959.0754	2308.8922	14122.9	13232.5
959.2077	2310.3299	14110.2	13217.9
959.3399	2311.7669	14019.45	13129.2
959.4721	2313.2031	13958.9	13068.1
959.6043	2314.6387	13887.85	12996.45
959.7365	2316.0735	13864.15	12973.4
959.8686	2317.5076	13840.8	12948.35
960.0006	2318.941	13800.5	12909.95
960.1327	2320.3737	13764.95	12871.85
960.2647	2321.8056	13706.05	12811.2
960.3967	2323.2369	13650.6	12758.1
960.5287	2324.6674	13613.9	12719.25
960.6606	2326.0972	13563.15	12669.5
960.7925	2327.5263	13504.1	12611.1
960.9244	2328.9547	13459.9	12567.7
961.0562	2330.3823	13430.45	12537.85
961.1881	2331.8092	13398.65	12503.45
961.3198	2333.2355	13306.75	12411.45
961.4516	2334.661	13323.05	12430.4
961.5833	2336.0858	13271.2	12377.7
961.715	2337.5098	13248.5	12354.9
961.8467	2338.9332	13215.4	12321.9
961.9783	2340.3558	13170.75	12274.5
962.1099	2341.7778	13095.15	12204.45
962.2415	2343.199	13077.85	12183.65
962.373	2344.6195	13007.25	12116.9
962.5045	2346.0393	12942.95	12050.95
962.636	2347.4583	12972.6	12078.95
962.7675	2348.8767	12922.25	12029.55
962.8989	2350.2943	12880.95	11986.3
963.0303	2351.7113	12832.35	11939.95
963.1617	2353.1275	12777.65	11885.8
963.293	2354.543	12763.35	11847.65
963.4243	2355.9578	12679.4	11787.05
963.5556	2357.3718	12580.4	11689.65
963.6868	2358.7852	12541.55	11648.6
963.818	2360.1978	12524.45	11630.95
963.9492	2361.6098	12504.55	11612.5
964.0803	2363.021	12474.15	11579.1
964.2114	2364.4315	12404.55	11512.05
964.3425	2365.8413	12375.4	11481.55
964.4736	2367.2504	12337.45	11446.15
964.6046	2368.6587	12269.05	11377.3
964.7356	2370.0664	12183.25	11290.45
964.8666	2371.4733	12163.25	11272.55
964.9975	2372.8795	12128.45	11236
965.1284	2374.285	12089.45	11198.4
965.2593	2375.6899	12000.4	11109.9
965.3901	2377.0939	11923.9	11033.75
965.5209	2378.4973	11917.6	11025.15
965.6517	2379.9	11884.85	10993
965.7825	2381.3019	11835	10943
965.9132	2382.7032	11775.5	10884.75
966.0439	2384.1037	11753	10861.75
966.1745	2385.5035	11694.7	10803.75
966.3051	2386.9027	11640.5	10750.4
966.4357	2388.3011	11620.2	10726.55
966.5663	2389.6987	11598.95	10707.35
966.6968	2391.0957	11554.65	10663.7
966.8273	2392.492	11460.35	10570.05
966.9578	2393.8876	11405.55	10515
967.0882	2395.2824	11360.6	10469.7
967.2186	2396.6765	11318.7	10429
967.349	2398.07	11279.1	10388.3
967.4793	2399.4627	11247.35	10354.9
967.6097	2400.8547	11206.85	10313.8
967.7399	2402.246	11174.75	10278.9
967.8702	2403.6366	11110.25	10219.65
968.0004	2405.0265	11069.25	10179.45
968.1306	2406.4156	11034.3	10138.85
968.2607	2407.8041	10981.45	10087.55
968.3909	2409.1918	10929	10036.4
968.521	2410.5789	10907.8	10016.6
968.651	2411.9652	10870.9	9977
968.781	2413.3508	10828.35	9936.45
968.911	2414.7358	10799.75	9908.25
969.041	2416.12	10741.05	9848
969.1709	2417.5035	10717.1	9825.7
969.3008	2418.8863	10664.5	9769.95
969.4307	2420.2684	10619.55	9728.4
969.5606	2421.6497	10608.35	9716.6
969.6904	2423.0304	10517.85	9627.45
969.8201	2424.4104	10500.4	9608.95
969.9499	2425.7896	10462.35	9565.05
970.0796	2427.1682	10430.65	9540.25
970.2093	2428.546	10396.65	9503.8
970.3389	2429.9232	10381.25	9488.5
970.4685	2431.2996	10341.1	9449.6
970.5981	2432.6753	10322.15	9431.35
970.7277	2434.0503	10281.6	9389.9
970.8572	2435.4246	10212.25	9321.3
970.9867	2436.7982	10172.9	9281.1
971.1161	2438.1711	10146.5	9256.7
971.2456	2439.5433	10138.25	9248.05
971.375	2440.9148	10097.55	9204.75
971.5043	2442.2856	10026.95	9136.45
971.6336	2443.6557	10006.25	9113.2
971.7629	2445.025	9982.45	9092.65
971.8922	2446.3937	9940.75	9048.55
972.0214	2447.7617	9911.9	9018.9
972.1506	2449.1289	9922.15	9029.2
972.2798	2450.4955	9860.35	8966.05
972.4089	2451.8613	9811	8921.1
972.538	2453.2265	9797.7	8907.85
972.6671	2454.5909	9774.5	8882.2
972.7961	2455.9546	9781.2	8890.5
972.9251	2457.3177	9712.55	8821.15
973.0541	2458.68	9677.95	8783.75
973.1831	2460.0416	9667.4	8776.3
973.312	2461.4025	9654.4	8763
973.4408	2462.7627	9629.75	8725.45
973.5697	2464.1222	9600.6	8709.25
973.6985	2465.4811	9547.55	8654.95
973.8273	2466.8392	9519.45	8628.15
973.956	2468.1966	9492.45	8599.65
974.0847	2469.5533	9483.65	8591.1
974.2134	2470.9093	9444.3	8552.4
974.3421	2472.2645	9401.35	8509.65
974.4707	2473.6191	9365.85	8473.5
974.5993	2474.973	9337.5	8447
974.7278	2476.3262	9320.65	8426.5
974.8563	2477.6787	9268.85	8379.25
974.9848	2479.0305	9242.3	8351.35
975.1132	2480.3816	9209.1	8315.25
975.2417	2481.7319	9171.75	8278.9
975.37	2483.0816	9127.95	8234.6
975.4984	2484.4306	9091.05	8197.55
975.6267	2485.7789	9064.2	8175.4
975.755	2487.1264	9025.9	8133.4
975.8833	2488.4733	8992.1	8101.25
976.0115	2489.8195	8985.3	8087.05
976.1397	2491.165	8924.85	8029.9
976.2678	2492.5097	8899.85	8008.7
976.3959	2493.8538	8845.65	7955.5
976.524	2495.1972	8797.5	7906.1
976.6521	2496.5398	8791.85	7899.75
976.7801	2497.8818	8768.6	7875.6
976.9081	2499.2231	8711.6	7818.2
977.036	2500.5637	8669.85	7778.65
977.164	2501.9035	8654.7	7761.95
977.2918	2503.2427	8650.2	7753.25
977.4197	2504.5812	8608.7	7715.7
977.5475	2505.919	8594.8	7697.35
977.6753	2507.256	8567.15	7675.95
977.8031	2508.5924	8518	7626.55
977.9308	2509.9281	8485.05	7587.4
978.0585	2511.2631	8459.95	7567.7
978.1861	2512.5974	8445.5	7555.25
978.3137	2513.9309	8389.45	7499.25
978.4413	2515.2638	8380.55	7453.7
978.5689	2516.596	8373.1	7482.15
978.6964	2517.9275	8315.4	7423.65
978.8239	2519.2583	8280.4	7387.7
978.9513	2520.5884	8258.1	7366.4
979.0788	2521.9178	8234.1	7341.35
979.2062	2523.2465	8178.35	7287.3
979.3335	2524.5745	8146.1	7254.05
979.4608	2525.9018	8122.4	7229.8
979.5881	2527.2284	8097.8	7210.45
979.7154	2528.5543	8077.85	7187.55
979.8426	2529.8796	8067.9	7175.05
979.9698	2531.2041	8046.8	7155.35
980.0969	2532.5279	8007.05	7117.25
980.224	2533.851	8000.8	7108.45
980.3511	2535.1735	7974.55	7084.7
980.4781	2536.4952	7962.15	7070.8
980.6052	2537.8163	7939.15	7047.2
980.7321	2539.1366	7922.85	7030.8
980.8591	2540.4562	7872	6977.1
980.986	2541.7752	7856.5	6965.15
981.1129	2543.0935	7838.1	6946.2
981.2397	2544.411	7843.35	6950.4
981.3665	2545.7279	7818.05	6925.65
981.4933	2547.0441	7807	6915.45
981.62	2548.3596	7795.3	6900.9
981.7467	2549.6744	7753.7	6861.4
981.8734	2550.9885	7725.55	6832.9
982.0001	2552.3019	7712.35	6820.5
982.1267	2553.6146	7683.85	6791.4
982.2532	2554.9266	7668.55	6775.5
982.3798	2556.2379	7616.85	6723.2
982.5063	2557.5485	7614	6722.75
982.6327	2558.8585	7602.4	6703.85
982.7592	2560.1677	7599.95	6704.35
982.8856	2561.4762	7565.15	6673.5
983.0119	2562.7841	7558.2	6664.4
983.1383	2564.0913	7524.85	6634.45
983.2646	2565.3977	7517.9	6625.3
983.3908	2566.7035	7484.85	6592.55
983.517	2568.0086	7469.9	6576.3
983.6432	2569.313	7471.9	6582.2
983.7694	2570.6167	7420.75	6525.85
983.8955	2571.9197	7427.3	6535.5
984.0216	2573.222	7413.25	6518.65
984.1476	2574.5236	7398.05	6506.45
984.2737	2575.8246	7365.65	6471.7
984.3996	2577.1248	7369.85	6475.5
984.5256	2578.4244	7354.8	6461.95
984.6515	2579.7232	7314.25	6424.8
984.7774	2581.0214	7320.05	6403
984.9032	2582.3189	7308.05	6415.95
985.029	2583.6157	7283.05	6386.4
985.1548	2584.9118	7263.15	6372.3
985.2806	2586.2072	7236.95	6344.85
985.4063	2587.5019	7221.2	6330.45
985.5319	2588.7959	7211.25	6319.15
985.6576	2590.0893	7184.5	6292.05
985.7832	2591.3819	7199.8	6308.55
985.9087	2592.6739	7155.85	6264.05
986.0343	2593.9652	7131.65	6237.55
986.1597	2595.2557	7102.25	6209.05
986.2852	2596.5456	7065.75	6170.4
986.4106	2597.8348	7073.85	6182.4
986.536	2599.1234	7013.4	6123.4
986.6614	2600.4112	6988.45	6097.7
986.7867	2601.6983	6990	6095.05
986.912	2602.9848	6944.3	6051.25
987.0372	2604.2705	6928.65	6031.2
987.1624	2605.5556	6917.8	6026.65
987.2876	2606.84	6890.1	5997.15
987.4128	2608.1237	6850.75	5956.35
987.5379	2609.4067	6837.25	5945.15
987.6629	2610.689	6802.85	5902.15
987.788	2611.9707	6773.9	5878
987.913	2613.2516	6761.8	5864.85
988.0379	2614.5319	6715.05	5823.9
988.1629	2615.8115	6697.75	5806.95
988.2878	2617.0903	6684	5791.25
988.4126	2618.3685	6657.15	5764.2
988.5375	2619.6461	6617.6	5726.5
988.6622	2620.9229	6600.25	5708.05
988.787	2622.199	6590.65	5695.75
988.9117	2623.4745	6594.3	5700.9
989.0364	2624.7493	6556.5	5665.6
989.161	2626.0234	6542.85	5653.1
989.2857	2627.2968	6506.6	5613.25
989.4102	2628.5695	6485.7	5591.2
989.5348	2629.8415	6431.05	5540.25
989.6593	2631.1128	6434.25	5540.7
989.7837	2632.3835	6413.8	5520.65
989.9082	2633.6535	6363.85	5471.95
990.0326	2634.9228	6349.75	5458.2
990.1569	2636.1914	6350.9	5459.3
990.2812	2637.4593	6324.5	5427.75
990.4055	2638.7265	6293.05	5401.55
990.5298	2639.9931	6292.1	5401
990.654	2641.259	6266.9	5374.4
990.7782	2642.5242	6251.9	5359.95
990.9023	2643.7887	6228.35	5338
991.0264	2645.0525	6220.7	5328.35
991.1505	2646.3156	6183.35	5290.55
991.2745	2647.5781	6165.45	5274.4
991.3985	2648.8398	6141	5251.35
991.5225	2650.1009	6129.1	5229.7
991.6464	2651.3613	6115.6	5223.7
991.7703	2652.6211	6107.05	5216.15
991.8942	2653.8801	6071.85	5182.25
992.018	2655.1385	6055.3	5161.2
992.1418	2656.3961	6032.5	5140
992.2655	2657.6531	6023.75	5132.9
992.3892	2658.9094	6019.7	5127.45
992.5129	2660.1651	5967.65	5076.6
992.6366	2661.42	5986.05	5093.7
992.7602	2662.6743	5977.9	5084.25
992.8837	2663.9279	5960.9	5069.9
993.0073	2665.1808	5927.45	5034.65
993.1307	2666.433	5920.1	5025.5
993.2542	2667.6846	5894.65	5003
993.3776	2668.9354	5893.85	4997
993.501	2670.1856	5860.55	4966.2
993.6244	2671.4351	5852.65	4962.1
993.7477	2672.6839	5840.05	4946.45
993.8709	2673.9321	5828.3	4936.6
993.9942	2675.1795	5812.85	4923.35
994.1174	2676.4263	5796.35	4904.35
994.2405	2677.6724	5801.8	4911.35
994.3637	2678.9179	5758.1	4864.2
994.4868	2680.1626	5730.7	4836.55
994.6098	2681.4067	5729.55	4837.75
994.7328	2682.6501	5700.1	4808.1
994.8558	2683.8928	5701.95	4810.95
994.9788	2685.1348	5647.95	4756.1
995.1017	2686.3761	5630.75	4738.25
995.2245	2687.6168	5626.4	4734.4
995.3474	2688.8568	5602.25	4709
995.4702	2690.0961	5604.95	4714.05
995.5929	2691.3348	5580.65	4687.35
995.7156	2692.5727	5574.4	4680.1
995.8383	2693.81	5539.75	4648.3
995.961	2695.0466	5530.25	4641.45
996.0836	2696.2826	5513.55	4620.05
996.2062	2697.5178	5501.85	4607
996.3287	2698.7524	5470.55	4578.35
996.4512	2699.9863	5465.55	4572.75
996.5737	2701.2195	5436.3	4544.3
996.6961	2702.452	5445.75	4551.6
996.8185	2703.6839	5425.65	4532.85
996.9408	2704.9151	5412.9	4523.6
997.0631	2706.1456	5381.3	4487.85
997.1854	2707.3755	5384.2	4489.3
997.3077	2708.6046	5365.55	4472.3
997.4299	2709.8331	5371.75	4478.05
997.552	2711.0609	5348.9	4457.25
997.6742	2712.2881	5331	4437.6
997.7963	2713.5145	5338.15	4444.05
997.9183	2714.7403	5322.4	4432.05
998.0403	2715.9654	5307.95	4416.85
998.1623	2717.1899	5311.9	4406.85
998.2842	2718.4136	5304.15	4411.8
998.4062	2719.6367	5297.4	4405.15
998.528	2720.8591	5292.4	4393.6
998.6498	2722.0809	5274.85	4382.85
998.7716	2723.3019	5277.7	4382.1
998.8934	2724.5223	5276.3	4381
999.0151	2725.7421	5254.9	4363
999.1368	2726.9611	5248.65	4355.3
999.2584	2728.1795	5216.65	4321.05
999.38	2729.3972	5201.35	4309.45
999.5016	2730.6142	5173.25	4275
999.6231	2731.8306	5131.15	4237.95
999.7446	2733.0462	5107.8	4211.75
999.8661	2734.2612	5093.2	4195.75
999.9875	2735.4756	5051.55	4158.4
1000.1089	2736.6892	5010.05	4117.35
1000.2302	2737.9022	4967.85	4076.6
1000.3515	2739.1145	4947.3	4056.45
1000.4728	2740.3262	4937.4	4037.6
1000.594	2741.5372	4912.8	4021.1
1000.7152	2742.7475	4879.3	3986.55
1000.8363	2743.9571	4845.15	3950.65
1000.9575	2745.1661	4836.7	3940.65
1001.0785	2746.3744	4825.45	3934.35
1001.1996	2747.582	4796.4	3905.3
1001.3206	2748.7889	4775.6	3880.65
1001.4415	2749.9952	4741	3851.1
1001.5625	2751.2008	4730.9	3837.6
1001.6833	2752.4057	4719.05	3823.25
1001.8042	2753.61	4690.4	3796.5
1001.925	2754.8136	4674.35	3778.85
1002.0458	2756.0165	4652.2	3761.15
1002.1665	2757.2188	4638.8	3747.2
1002.2872	2758.4204	4635.45	3743
1002.4078	2759.6213	4609.9	3715.6
1002.5285	2760.8215	4604.55	3709.3
1002.649	2762.0211	4605.45	3712.3
1002.7696	2763.22	4570.05	3674.75
1002.8901	2764.4182	4557.55	3664.6
1003.0106	2765.6158	4555.65	3660.85
1003.131	2766.8127	4542.25	3650.8
1003.2514	2768.009	4518.95	3627.2
1003.3717	2769.2045	4505.1	3613.35
1003.492	2770.3994	4488.6	3594.7
1003.6123	2771.5936	4476.85	3582.75
1003.7325	2772.7872	4455.95	3563.75
1003.8527	2773.9801	4443.85	3551.45
1003.9729	2775.1723	4459.7	3552.65
1004.093	2776.3639	4421.7	3530.9
1004.2131	2777.5548	4400.45	3506.25
1004.3331	2778.745	4394.65	3500.85
1004.4531	2779.9346	4388.95	3498.15
1004.5731	2781.1235	4383.95	3488.9
1004.693	2782.3117	4366.75	3474.05
1004.8129	2783.4992	4353.35	3460.3
1004.9328	2784.6861	4349.7	3456.7
1005.0526	2785.8723	4360.45	3468.95
1005.1723	2787.0579	4331.5	3439.4
1005.2921	2788.2428	4324.55	3434.25
1005.4118	2789.427	4323.65	3431.7
1005.5314	2790.6106	4309.4	3417.25
1005.651	2791.7935	4318.75	3425.95
1005.7706	2792.9757	4322.55	3432.5
1005.8902	2794.1573	4307.65	3412.55
1006.0097	2795.3382	4308.75	3418.35
1006.1291	2796.5184	4304.2	3414.95
1006.2485	2797.698	4298.8	3407.05
1006.3679	2798.8769	4302.25	3411.4
1006.4873	2800.0551	4329.75	3436.8
1006.6066	2801.2327	4324.8	3430.5
1006.7258	2802.4096	4320.45	3427.95
1006.8451	2803.5859	4320.65	3428.55
1006.9642	2804.7615	4328.75	3436.9
1007.0834	2805.9364	4350.95	3459.95
1007.2025	2807.1106	4353.5	3463.25
1007.3216	2808.2842	4400.35	3509.05
1007.4406	2809.4572	4428.15	3536.05
1007.5596	2810.6294	4436.05	3542.9
1007.6785	2811.801	4459.65	3569.25
1007.7975	2812.972	4488.8	3598
1007.9163	2814.1423	4526.05	3635.55
1008.0352	2815.3119	4554.2	3661.5
1008.154	2816.4808	4602.6	3712.65
1008.2727	2817.6491	4633.6	3740.35
1008.3914	2818.8167	4667.2	3777.25
1008.5101	2819.9837	4714.95	3818.95
1008.6288	2821.15	4733.85	3842.2
1008.7474	2822.3157	4766.3	3876.75
1008.8659	2823.4807	4817.2	3925.5
1008.9844	2824.645	4865.5	3975.65
1009.1029	2825.8086	4896.5	4004.15
1009.2214	2826.9716	4924.25	4033.2
1009.3398	2828.134	4960.7	4068.65
1009.4581	2829.2957	4984.7	4091.3
1009.5764	2830.4567	5003.05	4112.35
1009.6947	2831.617	5013.9	4123.2
1009.813	2832.7767	5020.5	4128.9
1009.9312	2833.9358	4990.85	4103.05
1010.0493	2835.0941	4972.7	4080.8
1010.1675	2836.2519	4972.7	4082.9
1010.2855	2837.4089	4963.45	4070.6
1010.4036	2838.5653	4938.3	4046.05
1010.5216	2839.7211	4943.45	4052.25
1010.6396	2840.8761	4931.95	4039.4
1010.7575	2842.0306	4958.8	4069.45
1010.8754	2843.1843	4974.1	4083.1
1010.9932	2844.3374	5004.7	4112.75
1011.111	2845.4899	5063.8	4170.6
1011.2288	2846.6417	5127.4	4237.15
1011.3465	2847.7928	5198.75	4306.65
1011.4642	2848.9433	5270.8	4379.5
1011.5818	2850.0931	5335.3	4444
1011.6995	2851.2422	5423.45	4530.3
1011.817	2852.3907	5493.7	4600.5
1011.9345	2853.5385	5538.45	4647.35
1012.052	2854.6857	5617.6	4699.35
1012.1695	2855.8323	5639.7	4749.2
1012.2869	2856.9781	5690.5	4798.4
1012.4042	2858.1233	5711.75	4819.7
1012.5216	2859.2679	5730.9	4837.1
1012.6389	2860.4118	5788.6	4896.6
1012.7561	2861.555	5807.5	4909.85
1012.8733	2862.6976	5832.3	4937.95
1012.9905	2863.8395	5835.9	4945.65
1013.1076	2864.9808	5867.4	4977.7
1013.2247	2866.1214	5869.55	4979.3
1013.3417	2867.2614	5887.65	4996.7
1013.4587	2868.4007	5884.85	4994.65
1013.5757	2869.5393	5884.45	4991.35
1013.6926	2870.6773	5892.65	4996.8
1013.8095	2871.8146	5878.55	4983.2
1013.9263	2872.9513	5885.15	4990.55
1014.0431	2874.0874	5856.5	4965.45
1014.1599	2875.2227	5854.45	4964.15
1014.2766	2876.3574	5833.15	4940.55
1014.3933	2877.4915	5783.05	4893.45
1014.51	2878.6249	5753.1	4863.3
1014.6266	2879.7577	5714.9	4822.2
1014.7431	2880.8898	5696.65	4794.7
1014.8596	2882.0212	5676.3	4785.4
1014.9761	2883.152	5653.35	4762.05
1015.0925	2884.2821	5615.25	4723.5
1015.2089	2885.4116	5599.7	4708.65
1015.3253	2886.5405	5593.75	4702.5
1015.4416	2887.6686	5582.3	4687
1015.5579	2888.7962	5581.55	4691.8
1015.6741	2889.923	5569.7	4680.15
1015.7903	2891.0493	5581.85	4692.35
1015.9065	2892.1748	5566.75	4674.9
1016.0226	2893.2997	5594.7	4703.3
1016.1387	2894.424	5596.05	4705.1
1016.2547	2895.5476	5612.7	4722.45
1016.3707	2896.6706	5622.7	4732.3
1016.4866	2897.7929	5647.4	4754.45
1016.6025	2898.9145	5670.05	4778.7
1016.7184	2900.0355	5673.15	4781.4
1016.8342	2901.1559	5699.1	4808.35
1016.95	2902.2756	5717.35	4821.05
1017.0658	2903.3946	5738.95	4846.7
1017.1815	2904.513	5764.4	4869.15
1017.2971	2905.6308	5781.45	4891.15
1017.4127	2906.7479	5802.2	4910.15
1017.5283	2907.8643	5808.5	4916.85
1017.6439	2908.9801	5811.7	4920.85
1017.7594	2910.0953	5823.3	4932.1
1017.8748	2911.2098	5808.9	4915.65
1017.9902	2912.3236	5802.55	4903.9
1018.1056	2913.4368	5782.45	4888.3
1018.2209	2914.5494	5760.25	4869.4
1018.3362	2915.6613	5716.25	4819.1
1018.4515	2916.7725	5691.75	4796.5
1018.5667	2917.8831	5660.95	4769.9
1018.6819	2918.9931	5610.1	4716.25
1018.797	2920.1024	5573.25	4681.4
1018.9121	2921.211	5554.3	4664.1
1019.0271	2922.319	5524.8	4633.05
1019.1421	2923.4264	5495.05	4605.65
1019.2571	2924.5331	5490.25	4599.6
1019.372	2925.6391	5466.3	4576.4
1019.4869	2926.7445	5440.9	4550.7
1019.6017	2927.8493	5423.2	4531.65
1019.7165	2928.9534	5407.15	4514.75
1019.8313	2930.0569	5387.35	4492.85
1019.946	2931.1597	5375.3	4482.95
1020.0606	2932.2619	5371.3	4478.4
1020.1753	2933.3634	5353.6	4463.25
1020.2899	2934.4643	5341.1	4444.95
1020.4044	2935.5645	5304.1	4405.55
1020.5189	2936.6641	5256.45	4361.1
1020.6334	2937.763	5208.8	4319.9
1020.7478	2938.8613	5152.7	4261.45
1020.8622	2939.959	5092.95	4196.2
1020.9765	2941.056	4996.3	4106.2
1021.0908	2942.1523	4921.45	4026.2
1021.2051	2943.248	4821.8	3930
1021.3193	2944.3431	4712.25	3819.35
1021.4334	2945.4375	4589.7	3698.85
1021.5476	2946.5313	4514.65	3624.45
1021.6617	2947.6244	4395.3	3503.3
1021.7757	2948.7169	4290.55	3399.05
1021.8897	2949.8087	4168.05	3276.4
1022.0037	2950.8999	4073.45	3182.7
1022.1176	2951.9904	3979.35	3087.5
1022.2315	2953.0803	3887.3	2995.6
1022.3453	2954.1696	3829.2	2939.15
1022.4591	2955.2582	3771.4	2879.75
1022.5728	2956.3462	3715.5	2825.2
1022.6865	2957.4335	3668.25	2777.7
1022.8002	2958.5202	3628.7	2737.4
1022.9138	2959.6062	3586.05	2693.4
1023.0274	2960.6916	3551.75	2660.8
1023.141	2961.7764	3553.15	2661.7
1023.2545	2962.8605	3520.8	2629.15
1023.3679	2963.9439	3479.9	2589.9
1023.4813	2965.0267	3462.4	2568.85
1023.5947	2966.1089	3474.9	2561.8
1023.708	2967.1905	3435.35	2544
1023.8213	2968.2714	3418.45	2528.05
1023.9346	2969.3516	3434.8	2545.15
1024.0478	2970.4312	3424	2525.35
1024.1609	2971.5102	3397.25	2507.25
1024.274	2972.5885	3402.7	2511.85
1024.3871	2973.6662	3399.5	2504.4
1024.5002	2974.7432	3393.75	2503.75
1024.6132	2975.8196	3378.65	2487.6
1024.7261	2976.8954	3351.9	2461.25
1024.839	2977.9705	3341.3	2451.25
1024.9519	2979.045	3324.9	2433.5
1025.0647	2980.1188	3292.8	2404.3
1025.1775	2981.192	3252.85	2362
1025.2902	2982.2645	3243.35	2351.25
1025.4029	2983.3364	3215.4	2324.15
1025.5156	2984.4077	3182.65	2290.75
1025.6282	2985.4783	3156.9	2259.8
1025.7407	2986.5483	3109.85	2220.2
1025.8532	2987.6177	3074.7	2184.45
1025.9657	2988.6864	3014.2	2123.3
1026.0782	2989.7545	3002.2	2109.85
1026.1906	2990.8219	2957.3	2066.2
1026.3029	2991.8887	2917.3	2024.55
1026.4152	2992.9548	2875.95	1983.65
1026.5275	2994.0204	2845.95	1956.55
1026.6397	2995.0852	2804.55	1915.75
1026.7519	2996.1495	2775.35	1884.55
1026.864	2997.2131	2751.5	1861.15
1026.9761	2998.276	2713.85	1823.7
1027.0882	2999.3383	2700.45	1807.85
1027.2002	3000.4	2672.4	1780.2
1027.3122	3001.4611	2654.05	1762.45
1027.4241	3002.5215	2637.5	1746.25
1027.536	3003.5812	2609.4	1721.45
1027.6478	3004.6404	2601.3	1710.8
1027.7596	3005.6989	2591.6	1698.85
1027.8714	3006.7567	2573.5	1683.25
1027.9831	3007.8139	2587.25	1672.9
1028.0947	3008.8705	2549.5	1658.25
1028.2064	3009.9264	2542.85	1648.25
1028.3179	3010.9818	2527.3	1635.7
1028.4295	3012.0364	2531.15	1640.05
1028.541	3013.0905	2518.5	1627.6
1028.6524	3014.1439	2509.8	1619.4
1028.7638	3015.1966	2495.35	1605.75
1028.8752	3016.2487	2493.3	1603.3
1028.9865	3017.3002	2497.35	1599.55
1029.0978	3018.3511	2484.35	1595.25
1029.209	3019.4013	2476.2	1584.55
1029.3202	3020.4509	2480.95	1590.5
1029.4314	3021.4998	2479.9	1589.25
1029.5425	3022.5481	2468.15	1578.05
1029.6535	3023.5958	2464.25	1573.2
1029.7645	3024.6428	2472.05	1579.25
1029.8755	3025.6892	2459.9	1570.55
1029.9864	3026.735	2457.65	1566.8
1030.0973	3027.7802	2445.45	1554.65
1030.2082	3028.8247	2447.6	1559.3
1030.319	3029.8685	2447.75	1556.2
1030.4297	3030.9118	2437.1	1545.7
1030.5404	3031.9544	2444.75	1556.15
1030.6511	3032.9963	2448.7	1558.2
1030.7617	3034.0376	2434.5	1542.35
1030.8723	3035.0783	2443	1550.95
1030.9829	3036.1184	2435.6	1542.8
1031.0934	3037.1578	2446.95	1558.35
1031.2038	3038.1966	2445.4	1553.15
1031.3142	3039.2348	2430.95	1541.2
1031.4246	3040.2723	2431.55	1534.3
1031.5349	3041.3092	2414.25	1524.8
1031.6452	3042.3455	2417.95	1529.35
1031.7554	3043.3811	2403.4	1512.7
1031.8656	3044.4161	2392.9	1501.3
1031.9758	3045.4505	2382.1	1491.4
1032.0859	3046.4842	2384.85	1493.35
1032.1959	3047.5173	2367.2	1478.8
1032.3059	3048.5498	2353.95	1463.9
1032.4159	3049.5816	2339.5	1449.2
1032.5258	3050.6128	2340.65	1448.85
1032.6357	3051.6434	2332.4	1440.85
1032.7455	3052.6734	2311.1	1418.7
1032.8553	3053.7027	2308.3	1418.6
1032.9651	3054.7314	2291.15	1401.4
1033.0748	3055.7594	2282.75	1395.6
1033.1845	3056.7868	2269.2	1376.8
1033.2941	3057.8136	2276.65	1387.05
1033.4037	3058.8398	2258.95	1370.5
1033.5132	3059.8653	2241.45	1349.85
1033.6227	3060.8902	2227.4	1336.75
1033.7321	3061.9145	2221.8	1330.6
1033.8415	3062.9381	2209.55	1319.25
1033.9509	3063.9612	2238.3	1331.65
1034.0602	3064.9835	2199.3	1308.8
1034.1694	3066.0053	2191.95	1299.15
1034.2787	3067.0264	2180.75	1289.7
1034.3878	3068.0469	2164.4	1274
1034.497	3069.0668	2161.8	1269.5
1034.6061	3070.086	2143.2	1252.8
1034.7151	3071.1046	2135.85	1245.25
1034.8241	3072.1226	2118.4	1225.2
1034.9331	3073.1399	2110.65	1221.65
1035.042	3074.1567	2097	1205.45
1035.1508	3075.1727	2082.6	1190.45
1035.2597	3076.1882	2068.35	1178.2
1035.3684	3077.203	2066.2	1174.55
1035.4772	3078.2173	2050.5	1158.75
1035.5859	3079.2308	2031	1136.7
1035.6945	3080.2438	2025.1	1132.75
1035.8031	3081.2561	2007.55	1115.85
1035.9117	3082.2678	1997.3	1106.65
1036.0202	3083.2789	1987.1	1097.1
1036.1286	3084.2893	1977.95	1086.75
1036.2371	3085.2991	1973.6	1083.5
1036.3454	3086.3083	1965.5	1069.25
1036.4538	3087.3169	1956.35	1063.3
1036.562	3088.3248	1946.7	1056.1
1036.6703	3089.3321	1935.05	1043.35
1036.7785	3090.3388	1920.7	1032
1036.8866	3091.3449	1918.35	1027.3
1036.9948	3092.3503	1915.8	1021.7
1037.1028	3093.3551	1906.15	1018.2
1037.2108	3094.3593	1897.6	1007.55
1037.3188	3095.3629	1892.75	1003
1037.4267	3096.3658	1886.8	995.6
1037.5346	3097.3681	1877.55	985.6
1037.6425	3098.3698	1865.1	972.8
1037.7503	3099.3708	1876.4	978.9
1037.858	3100.3713	1855.9	967.3
1037.9657	3101.3711	1852.45	963.6
1038.0734	3102.3702	1952	948.65
1038.181	3103.3688	1849.9	956.3
1038.2886	3104.3667	1833.8	944.4
1038.3961	3105.364	1828.3	938.6
1038.5036	3106.3607	1820.3	928.85
1038.611	3107.3568	1817.85	925.35
1038.7184	3108.3522	1804.35	914.55
1038.8257	3109.347	1800.3	908.1
1038.933	3110.3412	1802	906.5
1039.0403	3111.3348	1792.25	903.3
1039.1475	3112.3277	1782.55	891
1039.2547	3113.32	1779.65	890.45
1039.3618	3114.3117	1774.6	885.75
1039.4689	3115.3028	1767.2	877.45
1039.5759	3116.2932	1771.25	879.4
1039.6829	3117.2831	1761.75	864.6
1039.7898	3118.2723	1756.25	865.05
1039.8967	3119.2608	1740.3	849.3
1040.0035	3120.2488	1748.35	856.75
1040.1103	3121.2361	1735.8	846.35
1040.2171	3122.2229	1736	846.3
1040.3238	3123.209	1723.65	832.75
1040.4305	3124.1944	1728.15	838.45
1040.5371	3125.1793	1719.8	827.5
1040.6437	3126.1635	1718.1	829.7
1040.7502	3127.1471	1710	821.45
1040.8567	3128.1301	1717.3	828.85
1040.9631	3129.1125	1707.7	820.25
1041.0695	3130.0942	1700.4	809.3
1041.1759	3131.0753	1699.05	800.7
1041.2822	3132.0558	1697.55	804.65
1041.3884	3133.0357	1690.75	799.6
1041.4946	3134.015	1679.35	788.5
1041.6008	3134.9936	1687.8	796.55
1041.7069	3135.9716	1695.85	785.95
1041.813	3136.949	1670.35	779.7
1041.919	3137.9258	1672.45	777.25
1042.025	3138.902	1668.15	771
1042.1309	3139.8775	1661.35	772
1042.2368	3140.8524	1657.75	766.2
1042.3427	3141.8267	1656.75	766.4
1042.4485	3142.8004	1653.4	762.75
1042.5542	3143.7735	1649.15	752
1042.6599	3144.7459	1649	756.95
1042.7656	3145.7178	1639.2	749.15
1042.8712	3146.689	1637.45	748.15
1042.9768	3147.6596	1624.25	731.6
1043.0823	3148.6295	1622.8	733.9
1043.1878	3149.5989	1621.75	732.9
1043.2932	3150.5676	1623.65	734.55
1043.3986	3151.5357	1616.9	726.8
1043.5039	3152.5032	1605.7	716.1
1043.6092	3153.4701	1605.75	717.75
1043.7145	3154.4364	1601.95	708.9
1043.8197	3155.402	1591.6	703.65
1043.9248	3156.367	1588.05	697.1
1044.03	3157.3315	1623.45	687.95
1044.135	3158.2952	1588.3	697
1044.24	3159.2584	1576.95	687.2
1044.345	3160.221	1573.75	682.25
1044.4499	3161.1829	1565.35	676.6
1044.5548	3162.1442	1569.5	678.1
1044.6596	3163.105	1558.05	668.05
1044.7644	3164.065	1554.15	665.7
1044.8692	3165.0245	1557.5	664.05
1044.9739	3165.9834	1549.85	661.05
1045.0785	3166.9416	1545.35	656.6
1045.1831	3167.8993	1547	656.5
1045.2877	3168.8563	1534.05	643.25
1045.3922	3169.8127	1524.9	634.7
1045.4966	3170.7684	1528.45	638.4
1045.6011	3171.7236	1528.9	638.25
1045.7054	3172.6782	1522.05	632.95
1045.8098	3173.6321	1520.15	628.05
1045.914	3174.5854	1522.15	626.45
1046.0183	3175.5381	1518.05	627.65
1046.1224	3176.4902	1511.2	620.4
1046.2266	3177.4417	1510.7	621.45
1046.3307	3178.3926	1505.55	615.75
1046.4347	3179.3428	1506.45	617.75
1046.5387	3180.2924	1495.15	603.9
1046.6427	3181.2415	1496.35	606.7
1046.7466	3182.1899	1481.95	590.7
1046.8504	3183.1377	1483.8	594.55
1046.9542	3184.0848	1482.7	589.15
1047.058	3185.0314	1472.85	581.85
1047.1617	3185.9773	1482.15	591.9
1047.2654	3186.9227	1471.7	582.5
1047.369	3187.8674	1468.4	579.75
1047.4726	3188.8115	1467.9	574.65
1047.5761	3189.755	1456.85	566.4
1047.6796	3190.6979	1465.65	578.55
1047.783	3191.6402	1456.75	566
1047.8864	3192.5818	1453.4	561.1
1047.9898	3193.5229	1478.3	565.5
1048.0931	3194.4633	1461.45	572.85
1048.1963	3195.4031	1440.9	550
1048.2995	3196.3423	1446.95	558.8
1048.4027	3197.2809	1448.4	557.15
1048.5058	3198.2189	1436.15	545.6
1048.6089	3199.1563	1452.85	549.35
1048.7119	3200.0931	1432.2	542.95
1048.8148	3201.0292	1423.6	535.55
1048.9178	3201.9648	1422.95	532.4
1049.0206	3202.8997	1433.45	540.2
1049.1235	3203.834	1422.6	532.3
1049.2262	3204.7677	1420.8	531.7
1049.329	3205.7008	1417.45	525.15
1049.4317	3206.6333	1410.25	522.2
1049.5343	3207.5652	1415.5	524.2
1049.6369	3208.4964	1407.4	516
1049.7394	3209.4271	1407.5	517.7
1049.8419	3210.3571	1401.2	511.6
1049.9444	3211.2865	1400.7	511
1050.0468	3212.2154	1401.6	512.7
1050.1491	3213.1436	1397.65	503.75
1050.2514	3214.0712	1402.75	506
1050.3537	3214.9982	1387.45	498.75
1050.4559	3215.9246	1386.15	495.85
1050.5581	3216.8503	1386.75	497.6
1050.6602	3217.7755	1392.85	502.05
1050.7623	3218.7001	1386.35	497.8
1050.8643	3219.624	1380.3	489.7
1050.9663	3220.5473	1372.25	481.2
1051.0682	3221.4701	1371.1	481.1
1051.1701	3222.3922	1376.1	484.8
1051.2719	3223.3137	1364.75	476.2
1051.3737	3224.2346	1374.7	487.2
1051.4754	3225.1549	1362.95	474
1051.5771	3226.0746	1357.25	468.25
1051.6788	3226.9937	1358.4	470.45
1051.7804	3227.9121	1354.2	464.95
1051.8819	3228.83	1358.25	467.9
1051.9834	3229.7473	1349.7	459.45
1052.0849	3230.6639	1351.55	461.9
1052.1863	3231.5799	1354.75	464.85
1052.2876	3232.4954	1345.95	455.7
1052.3889	3233.4102	1343.55	455.85
1052.4902	3234.3244	1338.9	449.05
1052.5914	3235.238	1332.65	446.35
1052.6926	3236.151	1352.8	438.95
1052.7937	3237.0634	1325.25	437.65
1052.8948	3237.9752	1326.75	437.75
1052.9958	3238.8864	1324.1	434.05
1053.0968	3239.797	1319	432
1053.1977	3240.7069	1326.95	436.45
1053.2986	3241.6163	1315.35	424.2
1053.3994	3242.5251	1313.9	424.85
1053.5002	3243.4332	1316.2	427.7
1053.6009	3244.3408	1309.55	419.9
1053.7016	3245.2477	1308	419.25
1053.8022	3246.154	1303.1	412.8
1053.9028	3247.0598	1304.15	412.45
1054.0034	3247.9649	1300.7	411.95
1054.1039	3248.8694	1295.4	403.6
1054.2043	3249.7733	1294.3	404.8
1054.3047	3250.6766	1301.95	412.85
1054.4051	3251.5793	1296.85	406.75
1054.5054	3252.4814	1285.05	397.8
1054.6056	3253.3829	1284.2	394.5
1054.7058	3254.2838	1282.1	393.5
1054.806	3255.1841	1274.45	385.15
1054.9061	3256.0838	1280.45	390.7
1055.0061	3256.9829	1271.5	383.5
1055.1062	3257.8814	1271.2	379.45
1055.2061	3258.7792	1271.05	377.2
1055.306	3259.6765	1261.9	372.1
1055.4059	3260.5731	1256.25	366.4
1055.5057	3261.4692	1254.3	366.2
1055.6055	3262.3647	1251.5	361.15
1055.7052	3263.2595	1241.85	354.4
1055.8049	3264.1538	1241	353.35
1055.9045	3265.0474	1231.15	340.45
1056.0041	3265.9404	1226.7	336.45
1056.1036	3266.8329	1222	331.25
1056.2031	3267.7247	1226.55	327.85
1056.3025	3268.616	1206.3	317.95
1056.4019	3269.5066	1205.4	314.9
1056.5013	3270.3966	1195.8	306
1056.6005	3271.286	1185.65	297.95
