Software Version:	3.9.2.0
Unit SN:	10000200
Spectrometer SN:	6960
Date:	3/6/2024 10:40:50 AM
Data Line Index:	25
Spectral Points:	2048
Integration time (ms):	125
Averages:	20
Delay (ms):	30
Sequence Number:	1
Processing:	dark subtract
Laser Power (mW):	300
Laser Current (mA):	823
Laser Diode Temp (C):	25.1
Laser Case Temp (C):	27
System Temp (C):	26.7
Spectrometer Temp (C):	24.2
CCD Temp (C):	0.001
Secondary Temp (C):	20.01
Heatsink Temp (C):	22.511
CCDPCB Temp (C):	36.174
SecondaryPCB Temp (C):	32.805

Wavelength	RamanShift	Raw Counts	Dark Subtracted
787.061	30.1047	1133.75	721.5
787.2016	32.3739	1177.75	765.7
787.3422	34.6426	1211.25	799.85
787.4828	36.9109	1260.75	848.35
787.6235	39.1787	1312.35	894.65
787.7642	41.4461	1383.2	960
787.9049	43.7131	1442.5	1015.55
788.0456	45.9796	1508.3	1078.1
788.1863	48.2456	1581.8	1147.95
788.3271	50.5112	1646.05	1208.15
788.4679	52.7764	1723.15	1284.45
788.6087	55.0411	1795.4	1352.15
788.7496	57.3054	1880.25	1430.6
788.8904	59.5692	1976.75	1523.6
789.0313	61.8326	2077.65	1622.55
789.1722	64.0955	2175.3	1717.55
789.3132	66.3579	2318	1855.25
789.4541	68.6199	2475.35	2008.75
789.5951	70.8815	2725.25	2256.35
789.7361	73.1426	3245.95	2771.9
789.8771	75.4032	4578.15	4099.75
790.0181	77.6634	7984.9	7502.95
790.1592	79.9231	17008.45	16517.5
790.3003	82.1824	55567.2	55066.2
790.4414	84.4412	65535	65016.4
790.5825	86.6995	65535	64991.15
790.7237	88.9574	65535	64963.6
790.8648	91.2148	65535	64944.55
791.006	93.4717	65535	64935.2
791.1472	95.7282	65535	64925.3
791.2885	97.9842	65535	64921.85
791.4297	100.2398	65535	64917.55
791.571	102.4949	65535	64918.45
791.7123	104.7495	65535	64912.2
791.8536	107.0036	65535	64914.15
791.9949	109.2573	65535	64917.2
792.1363	111.5105	65535	64913
792.2777	113.7632	65535	64907.4
792.4191	116.0154	65535	64894.5
792.5605	118.2672	65535	64907.6
792.7019	120.5185	65535	64903.45
792.8434	122.7693	65535	64900.95
792.9849	125.0197	65535	64898.15
793.1264	127.2696	65535	64890.1
793.2679	129.519	65535	64891.8
793.4094	131.7679	65535	64890.4
793.551	134.0163	65535	64883.35
793.6926	136.2642	65535	64883.25
793.8342	138.5117	65535	64874.05
793.9758	140.7587	65535	64881.95
794.1175	143.0052	65535	64874.65
794.2591	145.2512	65535	64873.85
794.4008	147.4967	65535	64874.8
794.5425	149.7417	65535	64868.9
794.6842	151.9863	65535	64866.05
794.826	154.2304	65535	64865.65
794.9677	156.4739	65535	64854.45
795.1095	158.717	65535	64861.6
795.2513	160.9596	65535	64854.7
795.3931	163.2017	65535	64851.5
795.535	165.4433	65535	64851.4
795.6768	167.6844	65535	64851.95
795.8187	169.925	65535	64845.55
795.9606	172.1651	65535	64842.15
796.1025	174.4047	65535	64839.45
796.2445	176.6439	65535	64836.5
796.3864	178.8825	65535	64835.75
796.5284	181.1206	65535	64833.65
796.6704	183.3582	65535	64829.6
796.8124	185.5954	65535	64827.9
796.9544	187.832	65535	64822.15
797.0965	190.0681	65535	64820.55
797.2386	192.3037	65535	64817
797.3806	194.5388	65535	64812.4
797.5228	196.7734	65535	64810.25
797.6649	199.0075	65535	64807.4
797.807	201.2411	65535	64807.2
797.9492	203.4742	65535	64808.45
798.0914	205.7068	65535	64804.85
798.2336	207.9389	65535	64800.85
798.3758	210.1704	65535	64796.25
798.518	212.4015	65535	64804.8
798.6603	214.632	65535	64812.95
798.8025	216.862	65535	64818.1
798.9448	219.0915	65535	64823.15
799.0871	221.3205	65535	64817.3
799.2294	223.549	65535	64822.4
799.3718	225.777	65535	64824.8
799.5141	228.0044	65535	64818.85
799.6565	230.2314	65535	64820.75
799.7989	232.4578	65535	64816.1
799.9413	234.6837	65535	64809.8
800.0837	236.909	65535	64805.85
800.2262	239.1339	65535	64780.35
800.3687	241.3582	65535	64795.8
800.5111	243.582	65535	64765.75
800.6536	245.8053	65535	64778.95
800.7961	248.0281	65535	64781.5
800.9387	250.2503	65535	64776.8
801.0812	252.472	65535	64772.2
801.2238	254.6932	65535	64773.85
801.3664	256.9139	65535	64776
801.509	259.134	65535	64771.25
801.6516	261.3536	65535	64771.95
801.7942	263.5727	65535	64771.25
801.9369	265.7912	65535	64772.7
802.0795	268.0092	65535	64769.8
802.2222	270.2267	65535	64769.9
802.3649	272.4436	65535	64766.05
802.5076	274.6601	65535	64763.9
802.6504	276.8759	65535	64763.1
802.7931	279.0913	65535	64760.3
802.9359	281.3061	65535	64761.4
803.0787	283.5204	65535	64758.25
803.2215	285.7341	65535	64757.1
803.3643	287.9473	65535	64742.45
803.5071	290.16	65535	64749.35
803.6499	292.3721	65535	64756.55
803.7928	294.5837	65535	64755.3
803.9357	296.7947	65535	64754.65
804.0786	299.0052	65535	64756.95
804.2215	301.2152	65535	64749.9
804.3644	303.4246	65535	64756.95
804.5074	305.6334	65535	64752.75
804.6503	307.8418	65535	64750.7
804.7933	310.0495	65535	64746.7
804.9363	312.2568	65535	64749.7
805.0793	314.4635	65535	64749.5
805.2223	316.6696	65535	64741.7
805.3653	318.8752	65535	64742.1
805.5084	321.0802	65535	64744.05
805.6514	323.2847	65535	64745.5
805.7945	325.4887	65535	64740.1
805.9376	327.692	65535	64738.25
806.0807	329.8949	65535	64739.65
806.2238	332.0972	65535	64736.55
806.367	334.2989	65535	64737.5
806.5101	336.5001	65535	64734.1
806.6533	338.7007	65535	64736.4
806.7965	340.9008	65535	64735.2
806.9397	343.1003	65535	64729.1
807.0829	345.2992	65535	64732.5
807.2261	347.4976	65535	64730.25
807.3693	349.6955	65535	64724.95
807.5126	351.8927	65535	64722.75
807.6559	354.0895	65535	64714
807.7991	356.2856	65535	64720.25
807.9424	358.4812	65535	64726.35
808.0857	360.6763	65535	64722.5
808.2291	362.8707	65535	64719.2
808.3724	365.0646	65535	64721.45
808.5158	367.258	65535	64715
808.6591	369.4508	65535	64711.85
808.8025	371.643	65535	64713.8
808.9459	373.8346	65535	64710.85
809.0893	376.0257	65535	64705.2
809.2327	378.2162	65535	64707.55
809.3762	380.4062	65535	64709.95
809.5196	382.5956	65535	64708.75
809.6631	384.7844	65535	64708.2
809.8066	386.9726	65535	64708.05
809.9501	389.1603	65535	64707.6
810.0936	391.3474	65535	64674.05
810.2371	393.5339	65535	64714.9
810.3806	395.7199	65535	64717.05
810.5241	397.9052	65535	64719.15
810.6677	400.09	65535	64713.2
810.8113	402.2743	65535	64716.1
810.9548	404.4579	65535	64713.4
811.0984	406.641	65535	64712.95
811.2421	408.8235	65535	64714.05
811.3857	411.0054	65535	64710.75
811.5293	413.1868	65535	64707
811.673	415.3675	65535	64704.05
811.8166	417.5477	65535	64701.05
811.9603	419.7273	65535	64701.65
812.104	421.9064	65535	64693
812.2477	424.0848	65535	64700.7
812.3914	426.2627	65535	64697.8
812.5351	428.4399	65535	64693.55
812.6788	430.6166	65535	64695.45
812.8226	432.7928	65535	64690.1
812.9663	434.9683	65535	64694.55
813.1101	437.1432	65535	64688.85
813.2539	439.3176	65535	64691.85
813.3977	441.4914	65535	64691.8
813.5415	443.6645	65535	64690.9
813.6853	445.8371	65535	64693.75
813.8291	448.0091	65535	64691.45
813.973	450.1806	65535	64688.85
814.1168	452.3514	65535	64688.75
814.2607	454.5216	65535	64681.8
814.4046	456.6913	65535	64684.5
814.5485	458.8603	65535	64690.65
814.6924	461.0288	65535	64687.75
814.8363	463.1967	65535	64690.7
814.9802	465.3639	65535	64687.95
815.1241	467.5306	65535	64687.85
815.2681	469.6967	65535	64688.1
815.412	471.8622	65535	64686.9
815.556	474.0271	65535	64688.25
815.7	476.1914	65535	64683.1
815.844	478.3551	65535	64684.2
815.988	480.5182	65535	64686.15
816.132	482.6807	65535	64684.15
816.276	484.8426	65535	64686.8
816.4201	487.0039	65535	64684.5
816.5641	489.1647	65535	64682.7
816.7082	491.3248	65535	64680.65
816.8522	493.4843	65535	64684.2
816.9963	495.6432	65535	64683.4
817.1404	497.8015	65535	64681
817.2845	499.9592	65535	64678.85
817.4286	502.1163	65535	64678.15
817.5727	504.2728	65535	64676.95
817.7168	506.4287	65535	64680.5
817.861	508.5839	65535	64678
818.0051	510.7386	65535	64678.15
818.1493	512.8927	65535	64675.85
818.2935	515.0461	65535	64671.7
818.4377	517.199	65535	64675.65
818.5818	519.3512	65535	64677.3
818.726	521.5029	65535	64673.25
818.8703	523.6539	65535	64674.45
819.0145	525.8043	65535	64669.9
819.1587	527.9541	65535	64670.35
819.303	530.1033	65535	64673.2
819.4472	532.2519	65535	64669.85
819.5915	534.3999	65535	64669.45
819.7357	536.5472	65535	64669.15
819.88	538.694	65535	64672.2
820.0243	540.8401	65535	64668.1
820.1686	542.9856	65535	64664.9
820.3129	545.1305	65535	64665.65
820.4572	547.2748	65535	64663.65
820.6016	549.4185	65535	64663.45
820.7459	551.5615	65535	64664.2
820.8902	553.704	65535	64663.05
821.0346	555.8458	65535	64666.05
821.1789	557.987	65535	64663.4
821.3233	560.1276	65535	64664.3
821.4677	562.2675	65535	64669.7
821.6121	564.4069	65535	64666.4
821.7565	566.5456	65535	64669.3
821.9009	568.6837	65535	64666
822.0453	570.8212	65535	64667.55
822.1897	572.958	65535	64667.45
822.3342	575.0942	65535	64664.55
822.4786	577.2299	65535	64666.9
822.6231	579.3648	65535	64670
822.7675	581.4992	65535	64665.75
822.912	583.6329	65535	64666.3
823.0565	585.766	65535	64666.45
823.201	587.8985	65535	64668.4
823.3454	590.0304	65535	64637.8
823.4899	592.1616	65535	64662.55
823.6345	594.2922	65535	64666.4
823.779	596.4222	65535	64660.5
823.9235	598.5515	65535	64662.2
824.068	600.6802	65535	64662.3
824.2126	602.8083	65535	64658.9
824.3571	604.9358	65535	64661.6
824.5017	607.0626	65535	64661.15
824.6462	609.1888	65535	64660.8
824.7908	611.3144	65535	64659.1
824.9354	613.4393	65535	64657
825.08	615.5636	65535	64656.95
825.2246	617.6873	65535	64659.05
825.3692	619.8103	65535	64660.2
825.5138	621.9327	65535	64657.6
825.6584	624.0544	65535	64656.25
825.803	626.1756	65535	64661.5
825.9477	628.2961	65535	64656.15
826.0923	630.4159	65535	64652.85
826.237	632.5351	65535	64655.9
826.3816	634.6537	65535	64658.1
826.5263	636.7716	65535	64652.5
826.6709	638.8889	65535	64654.9
826.8156	641.0056	65535	64654
826.9603	643.1216	65535	64652.65
827.105	645.237	65535	64653.9
827.2497	647.3518	65535	64655.1
827.3944	649.4659	65535	64655.2
827.5391	651.5793	65535	64656.1
827.6838	653.6922	65535	64657.95
827.8285	655.8043	65535	64653.6
827.9733	657.9159	65535	64653.05
828.118	660.0268	65535	64651.15
828.2627	662.137	65535	64649.3
828.4075	664.2466	65535	64649.05
828.5522	666.3556	65535	64650.55
828.697	668.4639	65535	64648.95
828.8418	670.5716	65535	64651.35
828.9865	672.6786	65535	64650
829.1313	674.785	65535	64646.05
829.2761	676.8907	65535	64648.45
829.4209	678.9958	65535	64648.9
829.5657	681.1002	65535	64650.75
829.7105	683.204	65535	64646.6
829.8553	685.3072	65535	64644.95
830.0001	687.4097	65535	64648.65
830.1449	689.5115	65535	64645.2
830.2898	691.6127	65535	64651.8
830.4346	693.7132	65535	64647.1
830.5794	695.8131	65535	64636.75
830.7243	697.9123	65535	64645.1
830.8691	700.0109	65535	64645.95
831.014	702.1089	65535	64649.4
831.1588	704.2061	65535	64647.25
831.3037	706.3028	65535	64645.7
831.4486	708.3987	65535	64645.55
831.5935	710.4941	65535	64649.15
831.7383	712.5887	65535	64647.15
831.8832	714.6827	65535	64640.65
832.0281	716.7761	65535	64647.3
832.173	718.8688	65535	64647.25
832.3179	720.9608	65535	64641.8
832.4628	723.0522	65535	64639.4
832.6077	725.1429	65535	64644.75
832.7527	727.233	65535	64646
832.8976	729.3224	65535	64645.15
833.0425	731.4112	65535	64639.8
833.1874	733.4993	65535	64640.55
833.3324	735.5867	65535	64641.4
833.4773	737.6735	65535	64642.9
833.6222	739.7596	65535	64640.9
833.7672	741.845	65535	64640.15
833.9122	743.9298	65535	64640.8
834.0571	746.014	65535	64643.75
834.2021	748.0974	65535	64641.9
834.347	750.1802	65535	64640.3
834.492	752.2624	65535	64640.4
834.637	754.3439	65535	64640.2
834.782	756.4247	65535	64631.9
834.9269	758.5048	65535	64641.8
835.0719	760.5843	65535	64642.9
835.2169	762.6631	65535	64642.35
835.3619	764.7413	65535	64642.6
835.5069	766.8188	65535	64641
835.6519	768.8956	65535	64638.8
835.7969	770.9718	65535	64640.95
835.9419	773.0473	65535	64642.7
836.0869	775.1221	65535	64641.8
836.232	777.1962	65535	64641.8
836.377	779.2697	65535	64638.55
836.522	781.3426	65535	64620.4
836.667	783.4147	65535	64638.2
836.8121	785.4862	65535	64641.65
836.9571	787.557	65535	64640.6
837.1021	789.6271	65535	64637.7
837.2472	791.6966	65535	64642.25
837.3922	793.7654	65535	64642.35
837.5373	795.8335	65535	64640.6
837.6823	797.901	65535	64641.05
837.8274	799.9678	65535	64637.4
837.9724	802.0339	65535	64637.8
838.1175	804.0993	65535	64626.7
838.2626	806.1641	65535	64638.1
838.4076	808.2282	65535	64642.7
838.5527	810.2916	65535	64635.25
838.6978	812.3544	65535	64641
838.8428	814.4164	65535	64639.9
838.9879	816.4778	65535	64636.9
839.133	818.5385	65535	64636.5
839.2781	820.5986	65535	64639.2
839.4232	822.658	65535	64637.1
839.5682	824.7166	65535	64636.85
839.7133	826.7747	65535	64636.7
839.8584	828.832	65535	64640.65
840.0035	830.8886	65535	64636.25
840.1486	832.9446	65535	64635.65
840.2937	834.9999	65535	64637.95
840.4388	837.0545	65535	64633.05
840.5839	839.1085	65535	64635.95
840.729	841.1618	65535	64634.35
840.8741	843.2143	65535	64639.3
841.0192	845.2662	65535	64637.1
841.1643	847.3175	65535	64635.75
841.3095	849.368	65535	64637.5
841.4546	851.4179	65535	64636.55
841.5997	853.467	65535	64636.7
841.7448	855.5155	65535	64637.25
841.8899	857.5633	65535	64638.85
842.0351	859.6105	65535	64637.6
842.1802	861.6569	65535	64637.8
842.3253	863.7027	65535	64636.05
842.4704	865.7478	65535	64637.4
842.6156	867.7922	65535	64634.2
842.7607	869.8359	65535	64634.8
842.9058	871.8789	65535	64634.2
843.0509	873.9212	65535	64602.2
843.1961	875.9629	65535	64635.15
843.3412	878.0039	65535	64634.8
843.4863	880.0441	65535	64634.85
843.6315	882.0837	65535	64635.9
843.7766	884.1226	65535	64633.55
843.9218	886.1609	65535	64638.7
844.0669	888.1984	65535	64637.85
844.212	890.2352	65535	64638.75
844.3572	892.2714	65535	64630.75
844.5023	894.3069	65535	64635.85
844.6475	896.3416	65535	64633.35
844.7926	898.3757	65535	64634.3
844.9377	900.4091	65535	64635.35
845.0829	902.4418	65535	64629.5
845.228	904.4739	65535	64631.6
845.3732	906.5052	65535	64633.95
845.5183	908.5358	65535	64635.65
845.6635	910.5658	65535	64634.3
845.8086	912.595	65535	64634.8
845.9538	914.6236	65535	64633.05
846.0989	916.6515	65535	64637.85
846.2441	918.6786	65535	64633.25
846.3892	920.7051	65535	64630.45
846.5344	922.7309	65535	64634.2
846.6795	924.756	65535	64633.3
846.8246	926.7804	65535	64633.15
846.9698	928.8041	65535	64626.9
847.1149	930.8272	65535	64633.9
847.2601	932.8495	65535	64632.05
847.4052	934.8711	65535	64631.95
847.5504	936.892	65535	64634.55
847.6955	938.9123	65535	64634.2
847.8407	940.9318	65535	64634.05
847.9858	942.9506	65535	64631.25
848.131	944.9688	65535	64631.9
848.2761	946.9862	65535	64631.85
848.4213	949.003	65535	64632.25
848.5664	951.019	65535	64633.9
848.7115	953.0344	65535	64633.85
848.8567	955.0491	65535	64634.3
849.0018	957.063	65535	64632.35
849.147	959.0763	65535	64633.15
849.2921	961.0888	65535	64632.5
849.4373	963.1007	65535	64632.5
849.5824	965.1119	65535	64635.95
849.7275	967.1223	65535	64634.6
849.8727	969.1321	65535	64637.7
850.0178	971.1412	65535	64634.3
850.1629	973.1495	65535	64633.45
850.3081	975.1572	65535	64582.65
850.4532	977.1641	65535	64632.75
850.5983	979.1704	65535	64632.9
850.7435	981.1759	65535	64629.05
850.8886	983.1808	65535	64634.1
851.0337	985.1849	65535	64621.6
851.1788	987.1884	65535	64631.5
851.324	989.1911	65535	64633.6
851.4691	991.1932	65535	64632.4
851.6142	993.1945	65535	64633.8
851.7593	995.1951	65535	64631.35
851.9045	997.1951	65535	64625.65
852.0496	999.1943	65535	64635.45
852.1947	1001.1928	65535	64632.7
852.3398	1003.1906	65535	64631.95
852.4849	1005.1877	65535	64629.6
852.63	1007.1841	65535	64631.95
852.7751	1009.1798	65535	64633.35
852.9202	1011.1748	65535	64634.65
853.0653	1013.1691	65535	64631.35
853.2104	1015.1627	65535	64632.7
853.3555	1017.1556	65535	64634.65
853.5006	1019.1477	65535	64630.35
853.6457	1021.1392	65535	64635.5
853.7908	1023.1299	65535	64633.15
853.9359	1025.12	65535	64634.25
854.081	1027.1093	65535	64639.1
854.2261	1029.0979	65535	64636.3
854.3712	1031.0859	65535	64638.65
854.5163	1033.0731	65535	64635.15
854.6613	1035.0596	65535	64635.45
854.8064	1037.0454	65535	64633.45
854.9515	1039.0304	65535	64630.05
855.0965	1041.0148	65535	64634.55
855.2416	1042.9985	65535	64632.1
855.3867	1044.9814	65535	64632.2
855.5317	1046.9636	65535	64630.1
855.6768	1048.9452	65535	64632.5
855.8219	1050.926	65535	64634.6
855.9669	1052.9061	65535	64634.55
856.112	1054.8855	65535	64634.4
856.257	1056.8642	65535	64633.6
856.4021	1058.8421	65535	64628
856.5471	1060.8194	65535	64628.95
856.6921	1062.7959	65535	64633.65
856.8372	1064.7717	65535	64629.9
856.9822	1066.7469	65535	64632.4
857.1272	1068.7213	65535	64630.6
857.2723	1070.695	65535	64632
857.4173	1072.6679	65535	64631.9
857.5623	1074.6402	65535	64631.7
857.7073	1076.6117	65535	64628.15
857.8523	1078.5826	65535	64634.3
857.9973	1080.5527	65535	64631.25
858.1423	1082.5221	65535	64631.5
858.2873	1084.4908	65535	64632.1
858.4323	1086.4587	65535	64630.85
858.5773	1088.426	65535	64634.2
858.7223	1090.3925	65535	64627.55
858.8673	1092.3584	65535	64634.25
859.0123	1094.3235	65535	64633.85
859.1573	1096.2879	65535	64632.1
859.3022	1098.2515	65535	64630.95
859.4472	1100.2145	65535	64635.1
859.5922	1102.1767	65535	64628.95
859.7371	1104.1382	65535	64633.2
859.8821	1106.099	65535	64629.2
860.027	1108.0591	65535	64633.25
860.172	1110.0185	65535	64631.35
860.3169	1111.9771	65535	64634.1
860.4619	1113.9351	65535	64631.7
860.6068	1115.8923	65535	64631.8
860.7517	1117.8488	65535	64630.7
860.8967	1119.8045	65535	64631.2
861.0416	1121.7596	65535	64634
861.1865	1123.7139	65535	64634.15
861.3314	1125.6675	65535	64633.95
861.4763	1127.6204	65535	64633.3
861.6212	1129.5726	65535	64629.2
861.7661	1131.524	65535	64634.45
861.911	1133.4748	65535	64631.15
862.0559	1135.4248	65535	64630.3
862.2008	1137.3741	65535	64634.25
862.3457	1139.3226	65535	64629.75
862.4905	1141.2705	65535	64632.95
862.6354	1143.2176	65535	64624.2
862.7803	1145.164	65535	64632.6
862.9251	1147.1097	65535	64634.25
863.07	1149.0546	65535	64628.9
863.2148	1150.9989	65535	64630.8
863.3597	1152.9424	65535	64633.25
863.5045	1154.8852	65535	64633.9
863.6493	1156.8272	65535	64633.4
863.7942	1158.7686	65535	64625.85
863.939	1160.7092	65535	64632.5
864.0838	1162.6491	65535	64631.5
864.2286	1164.5883	65535	64634.05
864.3734	1166.5267	65535	64632.5
864.5182	1168.4644	65535	64633.3
864.663	1170.4014	65535	64627.5
864.8078	1172.3377	65535	64634.25
864.9526	1174.2732	65535	64633.65
865.0974	1176.2081	65535	64633.2
865.2421	1178.1421	65535	64628.3
865.3869	1180.0755	65535	64633.75
865.5317	1182.0082	65535	64634.4
865.6764	1183.9401	65535	64629.65
865.8212	1185.8713	65535	64635.95
865.9659	1187.8017	65535	64635.8
866.1106	1189.7315	65535	64636.2
866.2554	1191.6605	65535	64609.65
866.4001	1193.5888	65535	64632.25
866.5448	1195.5163	65535	64636.45
866.6895	1197.4432	65535	64631.55
866.8342	1199.3693	65535	64635.85
866.9789	1201.2947	65535	64632.55
867.1236	1203.2193	65535	64634.35
867.2683	1205.1432	65535	64633.2
867.413	1207.0664	65535	64631.7
867.5576	1208.9889	65535	64632.25
867.7023	1210.9106	65535	64635.65
867.847	1212.8316	65535	64633.65
867.9916	1214.7519	65535	64624.1
868.1363	1216.6715	65535	64636
868.2809	1218.5903	65535	64634.7
868.4255	1220.5084	65535	64632.65
868.5701	1222.4257	65535	64632.55
868.7148	1224.3424	65535	64635.55
868.8594	1226.2583	65535	64631.5
869.004	1228.1735	65535	64633.9
869.1486	1230.0879	65535	64635.2
869.2932	1232.0016	65535	64634.35
869.4377	1233.9146	65535	64631.75
869.5823	1235.8269	65535	64634.2
869.7269	1237.7384	65535	64636
869.8715	1239.6492	65535	64631.8
870.016	1241.5592	65535	64631.25
870.1606	1243.4686	65535	64635.15
870.3051	1245.3772	65535	64633.55
870.4496	1247.285	65535	64635.15
870.5941	1249.1922	65535	64633.1
870.7387	1251.0986	65535	64633.05
870.8832	1253.0042	65535	64634.05
871.0277	1254.9092	65535	64633.35
871.1722	1256.8134	65535	64635.4
871.3167	1258.7169	65535	64632.55
871.4611	1260.6196	65535	64633.85
871.6056	1262.5216	65535	64634
871.7501	1264.4229	65535	64638.3
871.8945	1266.3234	65535	64632.4
872.039	1268.2232	65535	64632.45
872.1834	1270.1223	65535	64632.4
872.3278	1272.0207	65535	64633.85
872.4723	1273.9183	65535	64629.2
872.6167	1275.8151	65535	64634.95
872.7611	1277.7113	65535	64634.95
872.9055	1279.6067	65535	64633.2
873.0499	1281.5014	65535	64630.45
873.1943	1283.3953	65535	64633.25
873.3386	1285.2885	65535	64632.2
873.483	1287.181	65535	64633.15
873.6274	1289.0727	65535	64634.55
873.7717	1290.9637	65535	64634.9
873.9161	1292.854	65535	64636.05
874.0604	1294.7435	65535	64633.65
874.2047	1296.6323	65535	64631.9
874.349	1298.5204	65535	64628.75
874.4933	1300.4077	65535	64633.75
874.6376	1302.2943	65535	64633.1
874.7819	1304.1802	65535	64632.95
874.9262	1306.0653	65535	64631.45
875.0705	1307.9497	65535	64634.95
875.2147	1309.8333	65535	64633.9
875.359	1311.7162	65535	64633.1
875.5032	1313.5984	65535	64630.05
875.6475	1315.4798	65535	64619.35
875.7917	1317.3605	65535	64616.9
875.9359	1319.2405	65535	64632
876.0801	1321.1197	65535	64630.4
876.2243	1322.9982	65535	64628.65
876.3685	1324.876	65535	64635.15
876.5127	1326.753	65535	64635.8
876.6569	1328.6293	65535	64634.55
876.801	1330.5048	65535	64633.8
876.9452	1332.3796	65535	64634.7
877.0893	1334.2537	65535	64607.4
877.2335	1336.127	65535	64634.5
877.3776	1337.9996	65535	64633.6
877.5217	1339.8714	65535	64633.7
877.6658	1341.7426	65535	64588.5
877.8099	1343.6129	65535	64633.1
877.954	1345.4826	65535	64633.3
878.0981	1347.3515	65535	64631.5
878.2422	1349.2196	65535	64633.6
878.3862	1351.087	65535	64632
878.5303	1352.9537	65535	64634.5
878.6743	1354.8197	65535	64633.5
878.8184	1356.6849	65535	64632.25
878.9624	1358.5493	65535	64636.6
879.1064	1360.4131	65535	64633.75
879.2504	1362.276	65535	64633.85
879.3944	1364.1383	65535	64634.6
879.5384	1365.9998	65535	64627.35
879.6823	1367.8606	65535	64632.9
879.8263	1369.7206	65535	64634.1
879.9702	1371.5799	65535	64631.85
880.1142	1373.4384	65535	64634.55
880.2581	1375.2962	65535	64631.75
880.402	1377.1533	65535	64631.25
880.5459	1379.0096	65535	64632.6
880.6898	1380.8652	65535	64635
880.8337	1382.7201	65535	64636.55
880.9776	1384.5742	65535	64634.65
881.1215	1386.4275	65535	64632.95
881.2653	1388.2802	65535	64634.65
881.4092	1390.132	65535	64634.5
881.553	1391.9832	65535	64634.55
881.6968	1393.8336	65535	64633.4
881.8406	1395.6832	65535	64631.9
881.9844	1397.5322	65535	64636.1
882.1282	1399.3803	65535	64628.7
882.272	1401.2278	65535	64633.05
882.4158	1403.0745	65535	64632.75
882.5595	1404.9204	65535	64636.75
882.7033	1406.7656	65535	64635.1
882.847	1408.6101	65535	64633.95
882.9908	1410.4538	65535	64636.8
883.1345	1412.2968	65535	64633
883.2782	1414.139	65535	64634.6
883.4219	1415.9805	65535	64634.6
883.5656	1417.8213	65535	64627.1
883.7092	1419.6613	65535	64636.7
883.8529	1421.5006	65535	64633.7
883.9965	1423.3391	65535	64632.1
884.1402	1425.1769	65535	64634.7
884.2838	1427.0139	65535	64632.55
884.4274	1428.8502	65535	64633.8
884.571	1430.6858	65535	64633.65
884.7146	1432.5206	65535	64635.6
884.8582	1434.3547	65535	64631.75
885.0018	1436.188	65535	64634.5
885.1453	1438.0206	65535	64632.85
885.2889	1439.8524	65535	64634.35
885.4324	1441.6835	65535	64633.75
885.5759	1443.5139	65535	64630.75
885.7194	1445.3435	65535	64633
885.8629	1447.1724	65535	64637.15
886.0064	1449.0005	65535	64635.65
886.1499	1450.8279	65535	64633.25
886.2933	1452.6545	65535	64634.45
886.4368	1454.4804	65535	64638.4
886.5802	1456.3056	65535	64627.75
886.7237	1458.13	65535	64635.2
886.8671	1459.9536	65535	64635.4
887.0105	1461.7766	65535	64635.5
887.1539	1463.5987	65535	64631.1
887.2972	1465.4202	65535	64632.95
887.4406	1467.2409	65535	64635.5
887.584	1469.0608	65535	64635.65
887.7273	1470.88	65535	64633.75
887.8706	1472.6984	65535	64636.55
888.0139	1474.5161	65535	64632.75
888.1572	1476.3331	65535	64635.9
888.3005	1478.1493	65535	64633.25
888.4438	1479.9648	65535	64636.5
888.5871	1481.7795	65535	64635.8
888.7303	1483.5935	65535	64633.85
888.8736	1485.4067	65535	64634.55
889.0168	1487.2192	65535	64633.45
889.16	1489.031	65535	64635.2
889.3032	1490.842	65535	64635.4
889.4464	1492.6522	65535	64636.15
889.5896	1494.4618	65535	64633.65
889.7327	1496.2705	65535	64634.15
889.8759	1498.0785	65535	64634.1
890.019	1499.8858	65535	64631.9
890.1622	1501.6924	65535	64636.1
890.3053	1503.4981	65535	64633.9
890.4484	1505.3032	65535	64637
890.5914	1507.1075	65535	64635.1
890.7345	1508.911	65535	64635.2
890.8776	1510.7138	65535	64633.8
891.0206	1512.5159	65535	64635.5
891.1637	1514.3172	65535	64635.7
891.3067	1516.1178	65535	64638.05
891.4497	1517.9176	65535	64632.65
891.5927	1519.7166	65535	64635.65
891.7357	1521.515	65535	64629.4
891.8786	1523.3126	65535	64635.55
892.0216	1525.1094	65535	64635.05
892.1645	1526.9055	65535	64635.35
892.3074	1528.7008	65535	64637.6
892.4503	1530.4954	65535	64628.35
892.5932	1532.2893	65535	64635.8
892.7361	1534.0824	65535	64630.25
892.879	1535.8747	65535	64636.1
893.0218	1537.6663	65535	64637.05
893.1647	1539.4572	65535	64635.25
893.3075	1541.2473	65535	64634.85
893.4503	1543.0367	65535	64636.15
893.5931	1544.8253	65535	64631.55
893.7359	1546.6132	65535	64632.65
893.8787	1548.4003	65535	64627.35
894.0214	1550.1867	65535	64627.5
894.1642	1551.9723	65535	64631.75
894.3069	1553.7572	65535	64635.8
894.4496	1555.5414	65535	64637.1
894.5923	1557.3247	65535	64637.05
894.735	1559.1074	65535	64638.5
894.8777	1560.8893	65535	64637.2
895.0204	1562.6705	65535	64636.55
895.163	1564.4509	65535	64637.75
895.3056	1566.2305	65535	64638.6
895.4482	1568.0094	65535	64636.3
895.5908	1569.7876	65535	64636
895.7334	1571.565	65535	64636.85
895.876	1573.3417	65535	64637.45
896.0186	1575.1176	65535	64638.05
896.1611	1576.8928	65535	64637.7
896.3036	1578.6672	65535	64638.3
896.4461	1580.4409	65535	64640.55
896.5886	1582.2138	65535	64638.2
896.7311	1583.986	65535	64638.7
896.8736	1585.7575	65535	64637.7
897.0161	1587.5282	65535	64638.6
897.1585	1589.2981	65535	64641.35
897.3009	1591.0673	65533.85	64637.3
897.4433	1592.8358	65527.1	64631.55
897.5857	1594.6035	65535	64637.2
897.7281	1596.3704	65535	64639.75
897.8705	1598.1366	65521.1	64626
898.0128	1599.9021	65506.45	64609.5
898.1551	1601.6668	65529.35	64630.7
898.2975	1603.4308	65520.85	64624.85
898.4398	1605.194	65516.35	64615.2
898.5821	1606.9564	65464.9	64570.4
898.7243	1608.7182	65498.25	64601.65
898.8666	1610.4791	65456.95	64563.9
899.0088	1612.2394	65503.4	64609.6
899.1511	1613.9988	65444.45	64548.9
899.2933	1615.7576	65507.8	64612.65
899.4355	1617.5156	65505.75	64602.9
899.5776	1619.2728	65526.75	64629.1
899.7198	1621.0293	65466	64571.45
899.862	1622.785	65472.1	64572.25
900.0041	1624.54	65503.15	64604.8
900.1462	1626.2942	65434.85	64537.05
900.2883	1628.0477	65324	64428.9
900.4304	1629.8005	65165.45	64265.9
900.5725	1631.5525	65330.05	64436.45
900.7145	1633.3037	65084.25	64188.25
900.8566	1635.0542	65028.45	64132.65
900.9986	1636.804	65188.2	64292.85
901.1406	1638.553	64797.05	63823.65
901.2826	1640.3013	64957.7	64060.65
901.4245	1642.0488	64641.3	63743.7
901.5665	1643.7955	64913.65	64019.55
901.7085	1645.5416	64687.7	63793.75
901.8504	1647.2868	64369.75	63475.15
901.9923	1649.0313	64829.7	63935.7
902.1342	1650.7751	64546.1	63647.1
902.2761	1652.5181	64350.3	63454.55
902.4179	1654.2604	64423	63526.75
902.5598	1656.0019	64567.2	63671.35
902.7016	1657.7427	64472.2	63578.6
902.8434	1659.4828	64793.75	63900.75
902.9852	1661.222	64417.05	63522.1
903.127	1662.9606	64871.9	63976.15
903.2687	1664.6984	64272.65	63380.7
903.4105	1666.4354	64538.5	63643.25
903.5522	1668.1717	63724.35	62829.6
903.6939	1669.9072	62766.6	61872.7
903.8356	1671.642	62766.3	61867.25
903.9773	1673.3761	62469.55	61574.5
904.119	1675.1094	62279.55	61385.95
904.2606	1676.8419	61350.3	60454.85
904.4022	1678.5737	61611.1	60715.9
904.5439	1680.3048	61197.55	60302.15
904.6855	1682.0351	60785.3	59891.2
904.827	1683.7646	60478.55	59580.3
904.9686	1685.4934	60795.05	59902.6
905.1101	1687.2215	59329.15	58432.95
905.2517	1688.9488	60321.25	59428.05
905.3932	1690.6754	58242.25	57349.1
905.5347	1692.4012	59238.55	58344.4
905.6761	1694.1263	59279.2	58385.15
905.8176	1695.8506	58538	57643
905.9591	1697.5742	58550.6	57655.15
906.1005	1699.297	58275.25	57379.55
906.2419	1701.0191	58296.5	57401.2
906.3833	1702.7404	57447.25	56555.4
906.5246	1704.461	57124.7	56228.2
906.666	1706.1808	57370.4	56477.35
906.8073	1707.8999	57193.2	56298.65
906.9487	1709.6182	56847.7	55954.9
907.09	1711.3358	56793.9	55900.2
907.2313	1713.0527	56508	55615.7
907.3725	1714.7688	56513.85	55615.85
907.5138	1716.4841	55643.9	54747.05
907.655	1718.1987	56000.35	55101.35
907.7962	1719.9126	55744.85	54854.3
907.9374	1721.6257	55713.75	54817.5
908.0786	1723.338	55732.3	54838.1
908.2198	1725.0496	54797.85	53903.4
908.3609	1726.7605	54820.5	53925.6
908.502	1728.4706	54552.45	53655.45
908.6431	1730.18	54616.45	53719.8
908.7842	1731.8886	54318.65	53426.3
908.9253	1733.5964	54007	53093
909.0664	1735.3036	54185.35	53290.05
909.2074	1737.0099	53926.1	53032.8
909.3484	1738.7156	53555.15	52664.45
909.4894	1740.4204	53370.6	52474.95
909.6304	1742.1246	53356.9	52461.1
909.7714	1743.8279	53368.05	52474.5
909.9123	1745.5306	53280.6	52388.15
910.0532	1747.2325	52591.2	51699.25
910.1941	1748.9336	52540.75	51647.25
910.335	1750.634	52429.55	51532.95
910.4759	1752.3336	52595.55	51703.75
910.6168	1754.0325	52133.1	51242.45
910.7576	1755.7307	52249.65	51356.85
910.8984	1757.4281	51869.9	50977.15
911.0392	1759.1247	52136.2	51234.1
911.18	1760.8206	51643.3	50744.05
911.3208	1762.5158	51595.05	50699.1
911.4615	1764.2102	51411.05	50520.25
911.6022	1765.9039	51224.7	50331.35
911.7429	1767.5968	51129.9	50237.75
911.8836	1769.289	50926.1	50033.6
912.0243	1770.9804	50820.4	49926.95
912.1649	1772.6711	50685.65	49791.45
912.3056	1774.361	50556.75	49662.95
912.4462	1776.0502	50399.45	49505.8
912.5868	1777.7386	50216.65	49322.25
912.7274	1779.4263	50089.65	49197.55
912.8679	1781.1132	50038.45	49145.65
913.0084	1782.7994	49785.05	48890.85
913.149	1784.4849	49796.95	48905.8
913.2895	1786.1696	49404.95	48505.2
913.4299	1787.8535	49367.35	48474.65
913.5704	1789.5367	49301.35	48408.75
913.7108	1791.2192	49198.1	48306.45
913.8513	1792.9009	48964.85	48042.15
913.9917	1794.5818	48905.9	48011.45
914.132	1796.2621	48691.55	47800.15
914.2724	1797.9415	48578.55	47684.55
914.4128	1799.6202	48360.5	47468
914.5531	1801.2982	48327.15	47434.45
914.6934	1802.9755	48220.9	47325.95
914.8337	1804.6519	48116.75	47223.6
914.9739	1806.3277	47855.1	46962.3
915.1142	1808.0027	47520.75	46629.55
915.2544	1809.6769	47635.9	46742.6
915.3946	1811.3504	47525.8	46631.25
915.5348	1813.0231	47257.15	46363
915.675	1814.6951	47228.75	46335.35
915.8151	1816.3664	47179.05	46284.05
915.9553	1818.0369	47011.95	46118.6
916.0954	1819.7067	46837.5	45947.1
916.2355	1821.3757	46843.25	45949.6
916.3755	1823.044	46683.35	45790.6
916.5156	1824.7115	46543.3	45650.35
916.6556	1826.3783	46297.7	45406.4
916.7956	1828.0443	46133.7	45241.3
916.9356	1829.7096	46053.95	45159.5
917.0756	1831.3741	45998.1	45101.7
917.2155	1833.0379	45858.85	44967.05
917.3555	1834.701	45677.3	44783
917.4954	1836.3633	45535.6	44641.35
917.6353	1838.0248	45446.75	44552.6
917.7751	1839.6856	45375.35	44481.95
917.915	1841.3457	45271.95	44379.15
918.0548	1843.005	45088.5	44196.25
918.1946	1844.6636	45074.25	44181.45
918.3344	1846.3214	44893.45	44001.6
918.4742	1847.9785	44809.6	43918.4
918.6139	1849.6349	44703.45	43809
918.7537	1851.2904	44576.75	43674.35
918.8934	1852.9453	44381.05	43486.65
919.0331	1854.5994	44307.25	43412.8
919.1727	1856.2528	44354.45	43457.45
919.3124	1857.9054	44106.35	43213.45
919.452	1859.5572	44103.1	43211.4
919.5916	1861.2083	43938.3	43045.7
919.7312	1862.8587	43932.7	43041.05
919.8708	1864.5084	43741.75	42849.3
920.0103	1866.1572	43589.8	42697.45
920.1498	1867.8054	43420.15	42526.1
920.2893	1869.4528	43371.15	42479.45
920.4288	1871.0994	43217.6	42326.35
920.5683	1872.7453	43121.5	42227.55
920.7077	1874.3905	43037.65	42140
920.8471	1876.0349	42827.5	41934.15
920.9865	1877.6786	42840.05	41945.1
921.1259	1879.3215	42768.75	41877.2
921.2653	1880.9637	42609.25	41716.7
921.4046	1882.6051	42560.45	41667.8
921.5439	1884.2458	42384.05	41490.9
921.6832	1885.8858	42202.7	41311.25
921.8225	1887.525	42115.65	41221.8
921.9617	1889.1634	41867.95	40975
922.101	1890.8011	41772.35	40880.15
922.2402	1892.4381	41629.85	40736.45
922.3794	1894.0743	41579.65	40687.1
922.5185	1895.7098	41517.55	40624.45
922.6577	1897.3446	41406.8	40514.95
922.7968	1898.9786	41265.2	40369.85
922.9359	1900.6118	41126.05	40235.25
923.075	1902.2443	40924.95	40027.8
923.214	1903.8761	40849.05	39956.6
923.3531	1905.5071	40589.6	39696.1
923.4921	1907.1374	40479.3	39584.1
923.6311	1908.7669	40430.05	39540.2
923.77	1910.3957	40287	39396.1
923.909	1912.0237	40046.65	39158.15
924.0479	1913.651	40058.95	39166.1
924.1868	1915.2776	39868.65	38978.1
924.3257	1916.9034	39702.9	38813.2
924.4646	1918.5285	39493.5	38602.55
924.6034	1920.1528	39306.2	38412.6
924.7422	1921.7764	39313	38420.4
924.881	1923.3992	39129.2	38237.25
925.0198	1925.0213	38806.5	37913.6
925.1586	1926.6427	38632.8	37743.35
925.2973	1928.2633	38696.3	37690.3
925.436	1929.8832	38447.8	37552.15
925.5747	1931.5023	38258.75	37366.85
925.7134	1933.1207	38190.45	37296.95
925.852	1934.7383	38142.85	37250.05
925.9906	1936.3552	37961.6	37070.5
926.1292	1937.9714	37839.9	36949
926.2678	1939.5868	37638.05	36744.95
926.4064	1941.2015	37469.6	36576.25
926.5449	1942.8154	37307.6	36416.05
926.6834	1944.4286	37185.8	36293.45
926.8219	1946.041	37019.55	36107.35
926.9604	1947.6528	36797.45	35902.15
927.0988	1949.2637	36715.7	35823.35
927.2372	1950.8739	36540.7	35648.4
927.3756	1952.4834	36558.9	35666.55
927.514	1954.0921	36450.55	35559.45
927.6523	1955.7001	36258.2	35361.7
927.7907	1957.3074	36142.55	35251.65
927.929	1958.9139	35968.65	35078
928.0673	1960.5197	35940.55	35048.7
928.2055	1962.1247	35750.2	34859.65
928.3438	1963.729	35523.35	34634.4
928.482	1965.3325	35458.65	34542.5
928.6202	1966.9353	35273.1	34382.2
928.7584	1968.5374	35148.4	34256.45
928.8965	1970.1387	35088.5	34197.2
929.0346	1971.7393	34927.6	34035.45
929.1727	1973.3392	34837.35	33945.2
929.3108	1974.9383	34674.3	33784.65
929.4489	1976.5366	34465.9	33575.65
929.5869	1978.1342	34468	33576.25
929.7249	1979.7311	34401.8	33509.4
929.8629	1981.3273	34221.55	33328.5
930.0009	1982.9227	34115	33222.65
930.1388	1984.5173	33985.65	33094.9
930.2767	1986.1112	33794.15	32901.15
930.4146	1987.7044	33746.5	32857
930.5525	1989.2968	33608.6	32716.1
930.6904	1990.8885	33585.65	32690.6
930.8282	1992.4795	33446	32552.35
930.966	1994.0697	33272	32379.95
931.1038	1995.6592	33169.4	32278.4
931.2415	1997.2479	33085.8	32193.85
931.3793	1998.8359	32929.4	32039.7
931.517	2000.4232	32770.6	31881.45
931.6547	2002.0097	32665.75	31775.8
931.7923	2003.5955	32527.6	31637
931.93	2005.1805	32531.05	31639.55
932.0676	2006.7648	32426.75	31536.95
932.2052	2008.3484	32292.1	31401.45
932.3427	2009.9312	32290.55	31398.45
932.4803	2011.5133	32104.25	31215.5
932.6178	2013.0946	32024.5	31136.3
932.7553	2014.6752	31893.4	31004.4
932.8928	2016.2551	31839.15	30948.1
933.0302	2017.8342	31671	30780.9
933.1676	2019.4126	31568.05	30676.8
933.305	2020.9902	31401.35	30511.95
933.4424	2022.5672	31384	30492.25
933.5798	2024.1433	31281.5	30385.75
933.7171	2025.7188	31133.25	30245.45
933.8544	2027.2935	31030.15	30139.7
933.9917	2028.8674	30930.55	30039.9
934.129	2030.4406	30897	30008.4
934.2662	2032.0131	30665.7	29775
934.4034	2033.5849	30590.45	29693.6
934.5406	2035.1559	30534.55	29644.15
934.6778	2036.7261	30456.15	29566.9
934.8149	2038.2957	30375.65	29484.8
934.952	2039.8645	30257.95	29366.8
935.0891	2041.4325	30335.8	29441.65
935.2262	2042.9998	30118.5	29228.45
935.3632	2044.5664	30046.4	29154.9
935.5002	2046.1323	29899.9	29010.05
935.6372	2047.6974	29773.05	28883
935.7742	2049.2617	29709.75	28821.7
935.9111	2050.8254	29721.45	28810.4
936.048	2052.3883	29653.9	28761.9
936.1849	2053.9504	29528.25	28637.2
936.3218	2055.5118	29391.2	28499.55
936.4586	2057.0725	29251.85	28356.2
936.5955	2058.6325	29234.65	28344.05
936.7323	2060.1917	29098.9	28210
936.869	2061.7502	29050.9	28157.15
937.0058	2063.3079	28908.15	28020.45
937.1425	2064.8649	28753.75	27860
937.2792	2066.4212	28717.1	27824.8
937.4159	2067.9767	28644.5	27754.2
937.5525	2069.5315	28505.7	27613.9
937.6891	2071.0856	28348.4	27456.4
937.8257	2072.6389	28254	27361.2
937.9623	2074.1915	28104.65	27214.35
938.0989	2075.7433	27972.75	27079.35
938.2354	2077.2945	27974.1	27084.65
938.3719	2078.8448	27867.8	26977
938.5084	2080.3945	27727.65	26836.2
938.6448	2081.9434	27685.25	26795.5
938.7812	2083.4916	27600.95	26711.8
938.9176	2085.039	27491.1	26598.45
939.054	2086.5857	27389.6	26497.05
939.1903	2088.1317	27340.75	26449.35
939.3267	2089.677	27287	26395.05
939.463	2091.2215	27159	26268.3
939.5992	2092.7652	27077.95	26184.65
939.7355	2094.3083	26973.75	26082.2
939.8717	2095.8506	26972.15	26081.4
940.0079	2097.3921	26940.05	26050
940.1441	2098.933	26792.05	25901.65
940.2802	2100.4731	26734.8	25844.55
940.4163	2102.0124	26686.7	25788.8
940.5524	2103.5511	26630.6	25738.35
940.6885	2105.089	26558.85	25667.05
940.8245	2106.6261	26462.95	25572.15
940.9606	2108.1626	26374.75	25483.3
941.0965	2109.6983	26334.95	25415.3
941.2325	2111.2332	26213.65	25321.2
941.3684	2112.7675	26102	25210.55
941.5044	2114.301	26054.1	25160.4
941.6403	2115.8337	26051.6	25160.45
941.7761	2117.3657	25954.45	25064.3
941.912	2118.897	25878.05	24987
942.0478	2120.4276	25771.75	24875.15
942.1835	2121.9575	25654.25	24761.9
942.3193	2123.4866	25674.55	24770.75
942.455	2125.0149	25571	24676.4
942.5907	2126.5426	25382.1	24491.9
942.7264	2128.0695	25326.5	24432.7
942.8621	2129.5956	25263.25	24373.2
942.9977	2131.1211	25211.7	24316.95
943.1333	2132.6458	25115.1	24225.35
943.2689	2134.1698	25098.15	24206.9
943.4044	2135.693	24988.55	24095.75
943.54	2137.2155	24909.75	24015.25
943.6755	2138.7373	24875.2	23983.7
943.8109	2140.2584	24745.95	23853.7
943.9464	2141.7787	24646.7	23751.8
944.0818	2143.2983	24569.85	23679.65
944.2172	2144.8171	24461.8	23571
944.3526	2146.3353	24400.9	23509.1
944.4879	2147.8527	24306.5	23417.45
944.6232	2149.3693	24252.05	23360.5
944.7585	2150.8853	24127.6	23237.2
944.8938	2152.4005	24026.25	23136.75
945.029	2153.9149	24010.15	23117.35
945.1642	2155.4287	23924.05	23032.4
945.2994	2156.9417	23877.9	22986.25
945.4346	2158.454	23804.3	22911.55
945.5697	2159.9655	23742.45	22852.35
945.7048	2161.4764	23693.5	22801.55
945.8399	2162.9865	23602	22711.1
945.9749	2164.4958	23503.1	22608.45
946.1099	2166.0045	23431.35	22534.65
946.2449	2167.5124	23421	22529.95
946.3799	2169.0195	23315.5	22424.9
946.5148	2170.526	23268.15	22377.05
946.6498	2172.0317	23173.65	22282.2
946.7846	2173.5367	23139.3	22248.25
946.9195	2175.0409	23078.3	22186.6
947.0543	2176.5445	23046.95	22154.8
947.1891	2178.0473	22905.35	22014.35
947.3239	2179.5494	22797.25	21901.1
947.4587	2181.0507	22742.05	21851
947.5934	2182.5513	22673.75	21782.75
947.7281	2184.0512	22587.2	21696.65
947.8628	2185.5504	22519.15	21627.75
947.9974	2187.0488	22383.5	21492.65
948.132	2188.5465	22300.4	21408.65
948.2666	2190.0435	22233.6	21342.4
948.4012	2191.5397	22185.3	21294.5
948.5357	2193.0353	22115.65	21224.2
948.6702	2194.5301	22010.65	21118.45
948.8047	2196.0241	21915.5	21025.1
948.9392	2197.5175	21820.75	20929.15
949.0736	2199.0101	21766.05	20871.4
949.208	2200.502	21652.05	20762.25
949.3424	2201.9931	21562.2	20672.8
949.4767	2203.4835	21464.25	20571.8
949.611	2204.9733	21427.25	20529.75
949.7453	2206.4622	21350.9	20458.55
949.8796	2207.9505	21256.25	20361.2
950.0138	2209.438	21166.05	20276.85
950.148	2210.9248	21090.45	20199.85
950.2822	2212.4109	21032.1	20142.35
950.4164	2213.8962	20967.8	20074.3
950.5505	2215.3809	20911.9	20018.3
950.6846	2216.8648	20874.8	19981.55
950.8186	2218.3479	20795	19899.95
950.9527	2219.8304	20697.4	19802
951.0867	2221.3121	20564.35	19669.8
951.2207	2222.7931	20528	19637
951.3546	2224.2733	20465	19574.6
951.4886	2225.7529	20376.4	19485.7
951.6225	2227.2317	20294.7	19400.05
951.7563	2228.7098	20278	19388.8
951.8902	2230.1872	20179.85	19290.25
952.024	2231.6638	20151.05	19259.2
952.1578	2233.1397	20045.3	19149
952.2916	2234.6149	19992.1	19101.4
952.4253	2236.0894	19895.2	19003.75
952.559	2237.5632	19866.8	18965.2
952.6927	2239.0362	19738.25	18848.05
952.8263	2240.5085	19693.1	18802.05
952.9599	2241.9801	19642.15	18752.35
953.0935	2243.4509	19601.75	18709.6
953.2271	2244.921	19525	18633.75
953.3606	2246.3904	19433.75	18539.45
953.4941	2247.8591	19359.85	18469.2
953.6276	2249.3271	19284.3	18393.75
953.7611	2250.7943	19214.8	18322.8
953.8945	2252.2608	19128.4	18236.85
954.0279	2253.7266	19080.95	18189.95
954.1612	2255.1917	19043.45	18153.65
954.2946	2256.656	18945.05	18052.85
954.4279	2258.1197	18903.85	18013.9
954.5612	2259.5826	18830.75	17938.75
954.6944	2261.0447	18783.05	17891.95
954.8276	2262.5062	18692.5	17798.05
954.9608	2263.9669	18662.9	17770.55
955.094	2265.4269	18611	17718.65
955.2271	2266.8862	18564.55	17674.3
955.3602	2268.3448	18525.45	17634.15
955.4933	2269.8026	18474.35	17582.45
955.6264	2271.2598	18410.95	17519.45
955.7594	2272.7162	18328.55	17438.95
955.8924	2274.1719	18270.45	17378.75
956.0253	2275.6268	18215.8	17324.3
956.1583	2277.0811	18169.95	17279.45
956.2912	2278.5346	18137.7	17247.35
956.4241	2279.9874	18089.4	17196.35
956.5569	2281.4395	18061.85	17170.5
956.6897	2282.8908	17949.85	17053.45
956.8225	2284.3414	17924.4	17031.55
956.9553	2285.7914	17838.7	16949.65
957.088	2287.2406	17790.75	16897.15
957.2207	2288.689	17732.75	16843.2
957.3534	2290.1368	17674.6	16784.35
957.486	2291.5838	17623.5	16730.8
957.6186	2293.0302	17580.45	16684.4
957.7512	2294.4758	17485.6	16595.35
957.8838	2295.9206	17418.6	16524.75
958.0163	2297.3648	17347.05	16453.75
958.1488	2298.8082	17329.1	16436.4
958.2813	2300.251	17291.85	16400.65
958.4137	2301.693	17215.55	16322.5
958.5461	2303.1343	17207.35	16315.35
958.6785	2304.5748	17123.75	16234.1
958.8108	2306.0147	17030.55	16139.3
958.9432	2307.4538	17001.5	16109.3
959.0754	2308.8922	16948.95	16058.75
959.2077	2310.3299	16906.55	16014.65
959.3399	2311.7669	16833.3	15943.2
959.4721	2313.2031	16808.7	15917.2
959.6043	2314.6387	16692.5	15801.25
959.7365	2316.0735	16641.25	15751.15
959.8686	2317.5076	16582.95	15691.2
960.0006	2318.941	16557.75	15666.15
960.1327	2320.3737	16502.25	15611.15
960.2647	2321.8056	16464.5	15571.25
960.3967	2323.2369	16411.85	15521.55
960.5287	2324.6674	16338.2	15443.8
960.6606	2326.0972	16262.75	15368.45
960.7925	2327.5263	16204.9	15315.05
960.9244	2328.9547	16151.1	15259.95
961.0562	2330.3823	16122.4	15228.7
961.1881	2331.8092	16082.25	15187.1
961.3198	2333.2355	15998.75	15106.15
961.4516	2334.661	15978.65	15087.5
961.5833	2336.0858	15903	15008.1
961.715	2337.5098	15876.5	14987.2
961.8467	2338.9332	15865.2	14974.7
961.9783	2340.3558	15805.3	14909.6
962.1099	2341.7778	15739	14848.5
962.2415	2343.199	15657.1	14762.65
962.373	2344.6195	15597.2	14707.15
962.5045	2346.0393	15570.05	14680.85
962.636	2347.4583	15534.55	14642.2
962.7675	2348.8767	15518.2	14627.5
962.8989	2350.2943	15464.2	14572.6
963.0303	2351.7113	15410.35	14517.95
963.1617	2353.1275	15349	14456.65
963.293	2354.543	15318.7	14418.3
963.4243	2355.9578	15254.65	14363
963.5556	2357.3718	15195.35	14305.45
963.6868	2358.7852	15088.95	14195.55
963.818	2360.1978	15033.65	14139.35
963.9492	2361.6098	14988.3	14098.8
964.0803	2363.021	14935.45	14042.35
964.2114	2364.4315	14880.45	13988.9
964.3425	2365.8413	14849.15	13957.25
964.4736	2367.2504	14790.95	13903
964.6046	2368.6587	14706.55	13816.2
964.7356	2370.0664	14676.5	13785.95
964.8666	2371.4733	14616.15	13724.55
964.9975	2372.8795	14550.7	13659.65
965.1284	2374.285	14483.95	13594.75
965.2593	2375.6899	14405.05	13515
965.3901	2377.0939	14332.25	13441.2
965.5209	2378.4973	14314.9	13425.6
965.6517	2379.9	14271.4	13381.45
965.7825	2381.3019	14229.75	13339.75
965.9132	2382.7032	14164.95	13275.15
966.0439	2384.1037	14107.55	13218.9
966.1745	2385.5035	14096.85	13206.9
966.3051	2386.9027	13990.25	13100.55
966.4357	2388.3011	13953.6	13059.1
966.5663	2389.6987	13925.25	13034.85
966.6968	2391.0957	13885.15	12995
966.8273	2392.492	13801.6	12911.9
966.9578	2393.8876	13709.35	12819.8
967.0882	2395.2824	13690.65	12801
967.2186	2396.6765	13629.15	12741.9
967.349	2398.07	13571	12682.7
967.4793	2399.4627	13529.65	12638.2
967.6097	2400.8547	13455.8	12564.3
967.7399	2402.246	13440.7	12545.5
967.8702	2403.6366	13353	12460.35
968.0004	2405.0265	13310.1	12420.1
968.1306	2406.4156	13259.55	12364.05
968.2607	2407.8041	13182.2	12288.6
968.3909	2409.1918	13123.4	12232.45
968.521	2410.5789	13096.7	12205.2
968.651	2411.9652	13058.1	12165.4
968.781	2413.3508	13010.65	12120.6
968.911	2414.7358	12940.95	12048.55
969.041	2416.12	12870.15	11980.05
969.1709	2417.5035	12861.55	11971.2
969.3008	2418.8863	12798.45	11907.2
969.4307	2420.2684	12777.65	11887.9
969.5606	2421.6497	12708.7	11817.55
969.6904	2423.0304	12617.05	11727.05
969.8201	2424.4104	12598.45	11706.1
969.9499	2425.7896	12539.6	11647.95
970.0796	2427.1682	12526.8	11635.85
970.2093	2428.546	12496.15	11604.3
970.3389	2429.9232	12444.25	11551.6
970.4685	2431.2996	12405.55	11515.15
970.5981	2432.6753	12392.3	11502.2
970.7277	2434.0503	12365.3	11474.85
970.8572	2435.4246	12278.8	11389.35
970.9867	2436.7982	12242.5	11348.35
971.1161	2438.1711	12213	11322.55
971.2456	2439.5433	12185.45	11293.95
971.375	2440.9148	12133.15	11240.85
971.5043	2442.2856	12076.5	11184.85
971.6336	2443.6557	12047.35	11155.85
971.7629	2445.025	11981.1	11091.7
971.8922	2446.3937	11923.5	11033.55
972.0214	2447.7617	11898.55	11008.75
972.1506	2449.1289	11880.7	10988.45
972.2798	2450.4955	11826.5	10932.8
972.4089	2451.8613	11803.75	10912.8
972.538	2453.2265	11787.2	10897.05
972.6671	2454.5909	11760.05	10869.8
972.7961	2455.9546	11700.75	10810.65
972.9251	2457.3177	11644.4	10755.1
973.0541	2458.68	11626.45	10735.6
973.1831	2460.0416	11634.7	10744.6
973.312	2461.4025	11577.25	10686.2
973.4408	2462.7627	11568.15	10666.95
973.5697	2464.1222	11500.7	10610.7
973.6985	2465.4811	11464.05	10573.7
973.8273	2466.8392	11411.3	10520.5
973.956	2468.1966	11383.7	10492.2
974.0847	2469.5533	11397.25	10503.5
974.2134	2470.9093	11335.8	10444.6
974.3421	2472.2645	11280.2	10389.1
974.4707	2473.6191	11262.6	10372.75
974.5993	2474.973	11224.5	10334.55
974.7278	2476.3262	11202.7	10309.8
974.8563	2477.6787	11153.15	10263
974.9848	2479.0305	11086.75	10196.4
975.1132	2480.3816	11047.9	10154.55
975.2417	2481.7319	11003.6	10112.45
975.37	2483.0816	10959.9	10068.3
975.4984	2484.4306	10898.7	10008.5
975.6267	2485.7789	10871.75	9982
975.755	2487.1264	10819.05	9927.05
975.8833	2488.4733	10781.8	9891.45
976.0115	2489.8195	10756.2	9849.3
976.1397	2491.165	10689.85	9796.85
976.2678	2492.5097	10662.7	9772.45
976.3959	2493.8538	10627.35	9735.5
976.524	2495.1972	10561.75	9671.5
976.6521	2496.5398	10527.4	9636.2
976.7801	2497.8818	10501.7	9609.05
976.9081	2499.2231	10462.75	9571.8
977.036	2500.5637	10413.7	9521.1
977.164	2501.9035	10394.85	9504.35
977.2918	2503.2427	10366.5	9472.3
977.4197	2504.5812	10333.75	9444.2
977.5475	2505.919	10302.95	9410.2
977.6753	2507.256	10289.3	9399.6
977.8031	2508.5924	10229.5	9340
977.9308	2509.9281	10203.75	9307.4
978.0585	2511.2631	10159.5	9269.1
978.1861	2512.5974	10139.45	9249.7
978.3137	2513.9309	10062.95	9173.75
978.4413	2515.2638	10074.9	9158.1
978.5689	2516.596	10014.75	9124.05
978.6964	2517.9275	9957.4	9066.2
978.8239	2519.2583	9936.45	9044.3
978.9513	2520.5884	9879.9	8986.3
979.0788	2521.9178	9846.15	8954.25
979.2062	2523.2465	9823.55	8933.7
979.3335	2524.5745	9788.95	8899.15
979.4608	2525.9018	9757.65	8868.2
979.5881	2527.2284	9715	8825.05
979.7154	2528.5543	9678.2	8790.5
979.8426	2529.8796	9677.75	8785.6
979.9698	2531.2041	9647.65	8758.4
980.0969	2532.5279	9624.1	8733.75
980.224	2533.851	9611.3	8720.5
980.3511	2535.1735	9554.65	8663.5
980.4781	2536.4952	9546.75	8657.65
980.6052	2537.8163	9512.6	8622
980.7321	2539.1366	9489.15	8599.7
980.8591	2540.4562	9441.5	8550.3
980.986	2541.7752	9441.35	8552.35
981.1129	2543.0935	9422.1	8529.45
981.2397	2544.411	9389.65	8496.25
981.3665	2545.7279	9381.6	8491.65
981.4933	2547.0441	9344.85	8455.25
981.62	2548.3596	9360.65	8467.05
981.7467	2549.6744	9320.15	8431.7
981.8734	2550.9885	9258.7	8365.75
982.0001	2552.3019	9216	8325.5
982.1267	2553.6146	9224.8	8334.8
982.2532	2554.9266	9185.85	8295.7
982.3798	2556.2379	9163.75	8272.85
982.5063	2557.5485	9127.4	8238.2
982.6327	2558.8585	9097.2	8200.65
982.7592	2560.1677	9091.9	8196.85
982.8856	2561.4762	9067.45	8177.25
983.0119	2562.7841	9066.35	8171.4
983.1383	2564.0913	9029.8	8141
983.2646	2565.3977	9020.75	8131.55
983.3908	2566.7035	8969.75	8079.85
983.517	2568.0086	8970.05	8075.3
983.6432	2569.313	8950.65	8059.2
983.7694	2570.6167	8905.1	8010.65
983.8955	2571.9197	8896.1	8005.55
984.0216	2573.222	8899.5	8005.15
984.1476	2574.5236	8860.25	7968.55
984.2737	2575.8246	8824.15	7931.85
984.3996	2577.1248	8800.75	7906.85
984.5256	2578.4244	8779.55	7888.35
984.6515	2579.7232	8807.1	7916.65
984.7774	2581.0214	8759.15	7842.85
984.9032	2582.3189	8712.45	7823.75
985.029	2583.6157	8722.25	7829
985.1548	2584.9118	8687.9	7796.7
985.2806	2586.2072	8667.8	7777
985.4063	2587.5019	8630.25	7740.1
985.5319	2588.7959	8602.8	7711.15
985.6576	2590.0893	8615.05	7722.95
985.7832	2591.3819	8585.8	7696.25
985.9087	2592.6739	8556.15	7667.55
986.0343	2593.9652	8528.3	7633.7
986.1597	2595.2557	8493.9	7603.75
986.2852	2596.5456	8468.05	7573.9
986.4106	2597.8348	8434.2	7545.6
986.536	2599.1234	8388.9	7498.25
986.6614	2600.4112	8375.2	7485.35
986.7867	2601.6983	8336.05	7441.95
986.912	2602.9848	8311.9	7419.85
987.0372	2604.2705	8299.1	7400.4
987.1624	2605.5556	8281.15	7389.7
987.2876	2606.84	8237.5	7348.45
987.4128	2608.1237	8210.85	7318.4
987.5379	2609.4067	8147.65	7255.45
987.6629	2610.689	8128.15	7228.6
987.788	2611.9707	8112.4	7217.65
987.913	2613.2516	8077.95	7183.3
988.0379	2614.5319	8039.4	7150.6
988.1629	2615.8115	8019	7129.3
988.2878	2617.0903	7982.25	7090.9
988.4126	2618.3685	7924.65	7031
988.5375	2619.6461	7911.9	7019.9
988.6622	2620.9229	7890.75	7000.4
988.787	2622.199	7868.55	6978.95
988.9117	2623.4745	7866.2	6975.35
989.0364	2624.7493	7830.95	6939.55
989.161	2626.0234	7800.15	6908.85
989.2857	2627.2968	7767.8	6878.75
989.4102	2628.5695	7727.7	6836.1
989.5348	2629.8415	7704.7	6814.4
989.6593	2631.1128	7663.75	6772.9
989.7837	2632.3835	7653	6764.45
989.9082	2633.6535	7632.35	6742
990.0326	2634.9228	7594.15	6701.55
990.1569	2636.1914	7559.35	6669.45
990.2812	2637.4593	7542.6	6649.7
990.4055	2638.7265	7499.75	6605.4
990.5298	2639.9931	7474.35	6584.75
990.654	2641.259	7477.5	6585.25
990.7782	2642.5242	7443.65	6552.95
990.9023	2643.7887	7422.05	6531.95
991.0264	2645.0525	7396.1	6504.35
991.1505	2646.3156	7375.55	6484.45
991.2745	2647.5781	7343.1	6451.7
991.3985	2648.8398	7301.5	6411.5
991.5225	2650.1009	7305.1	6405.55
991.6464	2651.3613	7259.65	6368.65
991.7703	2652.6211	7254.8	6364.1
991.8942	2653.8801	7226.5	6336.5
992.018	2655.1385	7216.55	6322.2
992.1418	2656.3961	7191.9	6301.85
992.2655	2657.6531	7163.05	6271.25
992.3892	2658.9094	7145.2	6255.1
992.5129	2660.1651	7136.1	6247.3
992.6366	2661.42	7127.9	6237.85
992.7602	2662.6743	7075.75	6183.8
992.8837	2663.9279	7090.95	6201.65
993.0073	2665.1808	7057.85	6166.6
993.1307	2666.433	7032.5	6142.6
993.2542	2667.6846	7010.7	6121.2
993.3776	2668.9354	6992.9	6099.35
993.501	2670.1856	7003.95	6112.85
993.6244	2671.4351	6969.5	6081.3
993.7477	2672.6839	6949.95	6057.3
993.8709	2673.9321	6921	6031.7
993.9942	2675.1795	6915.7	6025.15
994.1174	2676.4263	6882.85	5993.5
994.2405	2677.6724	6865.75	5975
994.3637	2678.9179	6851.85	5960.4
994.4868	2680.1626	6829.25	5938.7
994.6098	2681.4067	6806.9	5917.05
994.7328	2682.6501	6791.45	5900.7
994.8558	2683.8928	6779.2	5887.7
994.9788	2685.1348	6732.15	5842.45
995.1017	2686.3761	6708.1	5817.55
995.2245	2687.6168	6684	5792.1
995.3474	2688.8568	6682.5	5791.65
995.4702	2690.0961	6650.6	5762.25
995.5929	2691.3348	6608.8	5717.25
995.7156	2692.5727	6601.75	5710.2
995.8383	2693.81	6582.15	5691.5
995.961	2695.0466	6565.15	5676.5
996.0836	2696.2826	6541.45	5649.4
996.2062	2697.5178	6539.9	5645.75
996.3287	2698.7524	6514.75	5623.8
996.4512	2699.9863	6496.2	5603.55
996.5737	2701.2195	6465.35	5574.95
996.6961	2702.452	6455.3	5560.95
996.8185	2703.6839	6427.4	5536.1
996.9408	2704.9151	6411.4	5521.85
997.0631	2706.1456	6382.1	5491.5
997.1854	2707.3755	6383.6	5492.35
997.3077	2708.6046	6381.4	5488.8
997.4299	2709.8331	6349.05	5457.7
997.552	2711.0609	6327.1	5438.05
997.6742	2712.2881	6324.5	5433.8
997.7963	2713.5145	6296.8	5405.2
997.9183	2714.7403	6314.15	5426.25
998.0403	2715.9654	6287.1	5395.95
998.1623	2717.1899	6262.9	5357.45
998.2842	2718.4136	6266.3	5376.1
998.4062	2719.6367	6267.6	5376.05
998.528	2720.8591	6247.9	5348.9
998.6498	2722.0809	6226.5	5334.6
998.7716	2723.3019	6209.9	5314.95
998.8934	2724.5223	6194.8	5301.5
999.0151	2725.7421	6164.4	5272.6
999.1368	2726.9611	6140.6	5247.35
999.2584	2728.1795	6163.2	5269.6
999.38	2729.3972	6137	5246
999.5016	2730.6142	6101.4	5197.65
999.6231	2731.8306	6049.15	5157.5
999.7446	2733.0462	6040.4	5147.7
999.8661	2734.2612	6000.75	5104.65
999.9875	2735.4756	5948.55	5057.65
1000.1089	2736.6892	5907.7	5015.25
1000.2302	2737.9022	5866.5	4978.3
1000.3515	2739.1145	5842.95	4952.85
1000.4728	2740.3262	5828.15	4929.55
1000.594	2741.5372	5756.55	4867.1
1000.7152	2742.7475	5748.25	4858.75
1000.8363	2743.9571	5735.2	4843.2
1000.9575	2745.1661	5712.9	4817.8
1001.0785	2746.3744	5674.35	4784.9
1001.1996	2747.582	5651.7	4760.65
1001.3206	2748.7889	5629.8	4737.1
1001.4415	2749.9952	5605.6	4714.85
1001.5625	2751.2008	5586.4	4695.65
1001.6833	2752.4057	5583.7	4690.4
1001.8042	2753.61	5538.5	4645.9
1001.925	2754.8136	5516.45	4624.55
1002.0458	2756.0165	5526.7	4637.55
1002.1665	2757.2188	5492.95	4602.3
1002.2872	2758.4204	5482.25	4592.15
1002.4078	2759.6213	5445.3	4553.75
1002.5285	2760.8215	5437	4543
1002.649	2762.0211	5426	4533.25
1002.7696	2763.22	5414.2	4519.5
1002.8901	2764.4182	5389.9	4497.75
1003.0106	2765.6158	5354.4	4464.05
1003.131	2766.8127	5346	4455.25
1003.2514	2768.009	5336.85	4446.95
1003.3717	2769.2045	5325.95	4435.65
1003.492	2770.3994	5302.6	4409.35
1003.6123	2771.5936	5302.8	4412.4
1003.7325	2772.7872	5252.55	4361.95
1003.8527	2773.9801	5254.9	4361.75
1003.9729	2775.1723	5249.3	4340.95
1004.093	2776.3639	5222.15	4332
1004.2131	2777.5548	5198.9	4305.75
1004.3331	2778.745	5165.95	4274.3
1004.4531	2779.9346	5172.05	4282.7
1004.5731	2781.1235	5156.1	4265.55
1004.693	2782.3117	5125.95	4236.75
1004.8129	2783.4992	5113.6	4225
1004.9328	2784.6861	5103.05	4212.9
1005.0526	2785.8723	5109.55	4218.95
1005.1723	2787.0579	5091.15	4199.3
1005.2921	2788.2428	5086.7	4196.85
1005.4118	2789.427	5063.95	4175.35
1005.5314	2790.6106	5052.3	4161.95
1005.651	2791.7935	5062.55	4171.85
1005.7706	2792.9757	5046.95	4157.35
1005.8902	2794.1573	5050.95	4159.4
1006.0097	2795.3382	5033.35	4144
1006.1291	2796.5184	5031.2	4144.05
1006.2485	2797.698	5025.75	4134.6
1006.3679	2798.8769	5025.55	4136.35
1006.4873	2800.0551	5021.6	4131.4
1006.6066	2801.2327	5020.2	4126.95
1006.7258	2802.4096	5017.45	4127.45
1006.8451	2803.5859	5032.15	4140.25
1006.9642	2804.7615	5038.55	4147.3
1007.0834	2805.9364	5036.2	4146.65
1007.2025	2807.1106	5061.25	4170.1
1007.3216	2808.2842	5084.15	4192.2
1007.4406	2809.4572	5097.25	4207.6
1007.5596	2810.6294	5126.05	4235.35
1007.6785	2811.801	5147.3	4258.05
1007.7975	2812.972	5183.85	4294.05
1007.9163	2814.1423	5214.65	4325.25
1008.0352	2815.3119	5235.15	4344.65
1008.154	2816.4808	5269.95	4378
1008.2727	2817.6491	5307.9	4416.7
1008.3914	2818.8167	5339.25	4450.1
1008.5101	2819.9837	5377.7	4481.25
1008.6288	2821.15	5406.65	4514.8
1008.7474	2822.3157	5424.95	4537.35
1008.8659	2823.4807	5466.55	4574.1
1008.9844	2824.645	5509.55	4618.2
1009.1029	2825.8086	5519	4630.9
1009.2214	2826.9716	5545	4658.8
1009.3398	2828.134	5577.55	4686.85
1009.4581	2829.2957	5621.7	4729.95
1009.5764	2830.4567	5633.5	4744.15
1009.6947	2831.617	5639.6	4750.8
1009.813	2832.7767	5625.5	4735.1
1009.9312	2833.9358	5624.9	4735.8
1010.0493	2835.0941	5627.15	4735.05
1010.1675	2836.2519	5595.8	4705.85
1010.2855	2837.4089	5589.3	4696.8
1010.4036	2838.5653	5565.4	4674.35
1010.5216	2839.7211	5551.55	4662.55
1010.6396	2840.8761	5547.75	4656.75
1010.7575	2842.0306	5563.85	4676.05
1010.8754	2843.1843	5589.55	4701.45
1010.9932	2844.3374	5637	4746.7
1011.111	2845.4899	5665	4773.05
1011.2288	2846.6417	5740.75	4850.15
1011.3465	2847.7928	5819.95	4931.25
1011.4642	2848.9433	5877.9	4988.6
1011.5818	2850.0931	5945.2	5055.7
1011.6995	2851.2422	6002.1	5111
1011.817	2852.3907	6074.8	5184.95
1011.9345	2853.5385	6145.6	5254.25
1012.052	2854.6857	6187.95	5270.6
1012.1695	2855.8323	6223.45	5334.3
1012.2869	2856.9781	6249.55	5362.05
1012.4042	2858.1233	6289.55	5398.95
1012.5216	2859.2679	6315.15	5425.05
1012.6389	2860.4118	6347.7	5455.9
1012.7561	2861.555	6376.85	5483.75
1012.8733	2862.6976	6393.2	5499.55
1012.9905	2863.8395	6411.25	5519.8
1013.1076	2864.9808	6410	5521.2
1013.2247	2866.1214	6429.2	5541.1
1013.3417	2867.2614	6434.8	5545.2
1013.4587	2868.4007	6423	5531.55
1013.5757	2869.5393	6398.65	5506.2
1013.6926	2870.6773	6430.8	5537.55
1013.8095	2871.8146	6417	5522.9
1013.9263	2872.9513	6394.45	5502.55
1014.0431	2874.0874	6400.4	5510.5
1014.1599	2875.2227	6379.9	5489.65
1014.2766	2876.3574	6349.75	5460.1
1014.3933	2877.4915	6303.7	5414.7
1014.51	2878.6249	6248.95	5359.8
1014.6266	2879.7577	6236	5343.95
1014.7431	2880.8898	6205.9	5305.3
1014.8596	2882.0212	6168.3	5278.65
1014.9761	2883.152	6166.9	5276.1
1015.0925	2884.2821	6122.1	5232.9
1015.2089	2885.4116	6094.1	5204.9
1015.3253	2886.5405	6093.95	5203.8
1015.4416	2887.6686	6068.85	5175.55
1015.5579	2888.7962	6056.25	5169.25
1015.6741	2889.923	6071.9	5182.3
1015.7903	2891.0493	6075.75	5186.3
1015.9065	2892.1748	6059.05	5169.65
1016.0226	2893.2997	6041.9	5151.2
1016.1387	2894.424	6075.75	5186.65
1016.2547	2895.5476	6059.25	5170
1016.3707	2896.6706	6072.55	5184.95
1016.4866	2897.7929	6087.3	5196.8
1016.6025	2898.9145	6125.95	5236.95
1016.7184	2900.0355	6132.6	5241.25
1016.8342	2901.1559	6147.35	5256.6
1016.95	2902.2756	6167.5	5275.7
1017.0658	2903.3946	6213.85	5324.6
1017.1815	2904.513	6224.05	5332.35
1017.2971	2905.6308	6201.7	5312.95
1017.4127	2906.7479	6216.85	5327.1
1017.5283	2907.8643	6244.2	5354.25
1017.6439	2908.9801	6245.45	5357.15
1017.7594	2910.0953	6234.05	5344.35
1017.8748	2911.2098	6243.1	5350.15
1017.9902	2912.3236	6226.2	5326.85
1018.1056	2913.4368	6211.7	5317
1018.2209	2914.5494	6182.55	5292.85
1018.3362	2915.6613	6145.1	5249.55
1018.4515	2916.7725	6093.75	5201.4
1018.5667	2917.8831	6064.25	5174.7
1018.6819	2918.9931	6032.55	5140.35
1018.797	2920.1024	5990	5098.25
1018.9121	2921.211	5949	5061
1019.0271	2922.319	5913	5024.35
1019.1421	2923.4264	5896.8	5007.7
1019.2571	2924.5331	5882.15	4994.25
1019.372	2925.6391	5856.1	4967.55
1019.4869	2926.7445	5847.75	4957.45
1019.6017	2927.8493	5804.35	4914.4
1019.7165	2928.9534	5792.55	4902.6
1019.8313	2930.0569	5802.25	4909.75
1019.946	2931.1597	5780.65	4891.2
1020.0606	2932.2619	5754.45	4865.95
1020.1753	2933.3634	5727.5	4838.4
1020.2899	2934.4643	5736.95	4839.45
1020.4044	2935.5645	5700.5	4803.2
1020.5189	2936.6641	5663.05	4768.5
1020.6334	2937.763	5595.8	4707.4
1020.7478	2938.8613	5545.45	4654.9
1020.8622	2939.959	5469.2	4574.25
1020.9765	2941.056	5385.7	4497.85
1021.0908	2942.1523	5296.5	4406.1
1021.2051	2943.248	5213.05	4322.25
1021.3193	2944.3431	5094.55	4204.25
1021.4334	2945.4375	4996.7	4105.6
1021.5476	2946.5313	4873.45	3985.7
1021.6617	2947.6244	4778.65	3889.5
1021.7757	2948.7169	4668.1	3777.9
1021.8897	2949.8087	4553.5	3663.2
1022.0037	2950.8999	4462.75	3572.15
1022.1176	2951.9904	4384.1	3494.35
1022.2315	2953.0803	4272.35	3380.35
1022.3453	2954.1696	4222.2	3332.65
1022.4591	2955.2582	4141.3	3251.55
1022.5728	2956.3462	4095.05	3204.8
1022.6865	2957.4335	4040.8	3150.7
1022.8002	2958.5202	3993.1	3099.8
1022.9138	2959.6062	3964.7	3076.75
1023.0274	2960.6916	3951.85	3061
1023.141	2961.7764	3913.65	3023.1
1023.2545	2962.8605	3870.3	2978.55
1023.3679	2963.9439	3851.05	2962.1
1023.4813	2965.0267	3840.85	2949.9
1023.5947	2966.1089	3844.75	2931.5
1023.708	2967.1905	3797.85	2908.2
1023.8213	2968.2714	3802.75	2915.85
1023.9346	2969.3516	3789.55	2899.35
1024.0478	2970.4312	3789.55	2892.6
1024.1609	2971.5102	3769.3	2879.7
1024.274	2972.5885	3764.6	2874.65
1024.3871	2973.6662	3780.95	2885.2
1024.5002	2974.7432	3761.6	2872.45
1024.6132	2975.8196	3733.7	2845
1024.7261	2976.8954	3709.2	2819.85
1024.839	2977.9705	3669.35	2778.5
1024.9519	2979.045	3657.1	2768.55
1025.0647	2980.1188	3644.75	2756.1
1025.1775	2981.192	3618.2	2730.5
1025.2902	2982.2645	3587.45	2697.4
1025.4029	2983.3364	3554.6	2663.85
1025.5156	2984.4077	3524	2637.05
1025.6282	2985.4783	3489.3	2594
1025.7407	2986.5483	3463.15	2571.6
1025.8532	2987.6177	3411.05	2521.45
1025.9657	2988.6864	3368.75	2478.25
1026.0782	2989.7545	3339.05	2449.4
1026.1906	2990.8219	3302.4	2412.75
1026.3029	2991.8887	3261.25	2368.7
1026.4152	2992.9548	3211.55	2321.65
1026.5275	2994.0204	3178.75	2290.5
1026.6397	2995.0852	3140.1	2252.45
1026.7519	2996.1495	3111.2	2219.75
1026.864	2997.2131	3088.4	2198.85
1026.9761	2998.276	3062.2	2173.35
1027.0882	2999.3383	3033.2	2141.75
1027.2002	3000.4	2998.8	2110.2
1027.3122	3001.4611	2970.8	2081.8
1027.4241	3002.5215	2968.15	2076.9
1027.536	3003.5812	2945.7	2057.1
1027.6478	3004.6404	2927.45	2037.1
1027.7596	3005.6989	2909.05	2016.9
1027.8714	3006.7567	2897.1	2007.45
1027.9831	3007.8139	2913.5	1998.85
1028.0947	3008.8705	2861.5	1972.8
1028.2064	3009.9264	2855.05	1960.05
1028.3179	3010.9818	2854.5	1965.35
1028.4295	3012.0364	2841.7	1950.4
1028.541	3013.0905	2832	1941.2
1028.6524	3014.1439	2821.65	1933.5
1028.7638	3015.1966	2817.25	1928
1028.8752	3016.2487	2810.05	1923.55
1028.9865	3017.3002	2809.65	1916.6
1029.0978	3018.3511	2777.25	1887.35
1029.209	3019.4013	2790.35	1900.75
1029.3202	3020.4509	2793.1	1902.75
1029.4314	3021.4998	2773.35	1883.8
1029.5425	3022.5481	2776.2	1886.75
1029.6535	3023.5958	2767.85	1877.35
1029.7645	3024.6428	2763.75	1872.75
1029.8755	3025.6892	2752.5	1863.45
1029.9864	3026.735	2756.5	1866.55
1030.0973	3027.7802	2749.3	1859.3
1030.2082	3028.8247	2732.05	1840.6
1030.319	3029.8685	2728.25	1841.1
1030.4297	3030.9118	2741.7	1852.6
1030.5404	3031.9544	2735.15	1846.2
1030.6511	3032.9963	2741.55	1851.85
1030.7617	3034.0376	2721.5	1831.1
1030.8723	3035.0783	2728.15	1836.8
1030.9829	3036.1184	2725.1	1835.6
1031.0934	3037.1578	2720.3	1833.25
1031.2038	3038.1966	2720.5	1831.35
1031.3142	3039.2348	2706.25	1818.65
1031.4246	3040.2723	2714.55	1817.15
1031.5349	3041.3092	2705.3	1816.85
1031.6452	3042.3455	2695.85	1807.7
1031.7554	3043.3811	2687.05	1799
1031.8656	3044.4161	2676.4	1784.45
1031.9758	3045.4505	2663.1	1774.35
1032.0859	3046.4842	2658.7	1767.7
1032.1959	3047.5173	2625.8	1737.25
1032.3059	3048.5498	2621.9	1733.5
1032.4159	3049.5816	2616.55	1727.15
1032.5258	3050.6128	2605.85	1716.6
1032.6357	3051.6434	2605.8	1713.4
1032.7455	3052.6734	2584.1	1693.95
1032.8553	3053.7027	2567	1677.8
1032.9651	3054.7314	2561.6	1673.55
1033.0748	3055.7594	2541.25	1652.5
1033.1845	3056.7868	2539.3	1649.45
1033.2941	3057.8136	2535.4	1644.45
1033.4037	3058.8398	2517.35	1628.15
1033.5132	3059.8653	2514.55	1626.8
1033.6227	3060.8902	2487.85	1599.25
1033.7321	3061.9145	2478.7	1589.35
1033.8415	3062.9381	2472.4	1583.35
1033.9509	3063.9612	2457.9	1552.9
1034.0602	3064.9835	2451.3	1561.35
1034.1694	3066.0053	2448.2	1555.1
1034.2787	3067.0264	2425.6	1538.15
1034.3878	3068.0469	2422.95	1533.95
1034.497	3069.0668	2416.95	1525.1
1034.6061	3070.086	2392.95	1505.4
1034.7151	3071.1046	2384.65	1493.8
1034.8241	3072.1226	2363.95	1472.2
1034.9331	3073.1399	2349.2	1461.15
1035.042	3074.1567	2342.65	1453.4
1035.1508	3075.1727	2330.05	1439.25
1035.2597	3076.1882	2316.25	1427.05
1035.3684	3077.203	2291.25	1403.85
1035.4772	3078.2173	2291.65	1400.25
1035.5859	3079.2308	2270.4	1380.35
1035.6945	3080.2438	2264.9	1372.7
1035.8031	3081.2561	2249.1	1357.4
1035.9117	3082.2678	2242.5	1353.75
1036.0202	3083.2789	2237.4	1348.75
1036.1286	3084.2893	2213.15	1323.15
1036.2371	3085.2991	2210.65	1321.85
1036.3454	3086.3083	2202.05	1306.45
1036.4538	3087.3169	2189.5	1297.95
1036.562	3088.3248	2175.35	1282.6
1036.6703	3089.3321	2168	1277.25
1036.7785	3090.3388	2160.5	1272.9
1036.8866	3091.3449	2148.95	1260.25
1036.9948	3092.3503	2140.25	1249.75
1037.1028	3093.3551	2137.6	1249.65
1037.2108	3094.3593	2126.65	1237.55
1037.3188	3095.3629	2111.35	1223.25
1037.4267	3096.3658	2110.75	1220.8
1037.5346	3097.3681	2107.85	1218
1037.6425	3098.3698	2096.75	1207.2
1037.7503	3099.3708	2095.85	1199.55
1037.858	3100.3713	2085.05	1194.45
1037.9657	3101.3711	2074.5	1183
1038.0734	3102.3702	2187.9	1157.7
1038.181	3103.3688	2078.5	1188.55
1038.2886	3104.3667	2040.7	1154.15
1038.3961	3105.364	2039.35	1150.5
1038.5036	3106.3607	2022.85	1131.5
1038.611	3107.3568	2033.8	1141.45
1038.7184	3108.3522	2024.75	1137.2
1038.8257	3109.347	2019.6	1130.6
1038.933	3110.3412	2015.55	1121.8
1039.0403	3111.3348	2012.65	1123.85
1039.1475	3112.3277	1993.2	1105.2
1039.2547	3113.32	1995.25	1106.7
1039.3618	3114.3117	1975.7	1087.15
1039.4689	3115.3028	1978.05	1089.45
1039.5759	3116.2932	1974.7	1083.6
1039.6829	3117.2831	1964.3	1069.8
1039.7898	3118.2723	1954.35	1064.35
1039.8967	3119.2608	1946.65	1058.8
1040.0035	3120.2488	1943.35	1053.7
1040.1103	3121.2361	1937.9	1047.45
1040.2171	3122.2229	1926.5	1036.65
1040.3238	3123.209	1928.1	1038.75
1040.4305	3124.1944	1923.75	1034.8
1040.5371	3125.1793	1919.9	1028.9
1040.6437	3126.1635	1903.8	1016.85
1040.7502	3127.1471	1893.25	1005.2
1040.8567	3128.1301	1886.7	999.2
1040.9631	3129.1125	1885.7	997.95
1041.0695	3130.0942	1888.1	998.5
1041.1759	3131.0753	1889.45	992.55
1041.2822	3132.0558	1883.6	990.65
1041.3884	3133.0357	1877.45	986.15
1041.4946	3134.015	1873.9	983.65
1041.6008	3134.9936	1864.15	972.8
1041.7069	3135.9716	1876.55	966.95
1041.813	3136.949	1854.45	967.4
1041.919	3137.9258	1856.6	961.8
1042.025	3138.902	1848.25	953.35
1042.1309	3139.8775	1852.45	963.6
1042.2368	3140.8524	1835.35	947.85
1042.3427	3141.8267	1833.45	941.25
1042.4485	3142.8004	1835.5	945.85
1042.5542	3143.7735	1839.15	945.8
1042.6599	3144.7459	1826.35	933.4
1042.7656	3145.7178	1822	934.45
1042.8712	3146.689	1809.6	923.1
1042.9768	3147.6596	1806	917.55
1043.0823	3148.6295	1799.3	909.75
1043.1878	3149.5989	1795	906.45
1043.2932	3150.5676	1787.75	898.35
1043.3986	3151.5357	1779.75	891.3
1043.5039	3152.5032	1782.65	894.55
1043.6092	3153.4701	1771.5	883.2
1043.7145	3154.4364	1767.5	876.6
1043.8197	3155.402	1763.85	875.05
1043.9248	3156.367	1765.65	875.95
1044.03	3157.3315	1789.65	856.5
1044.135	3158.2952	1755.25	863.65
1044.24	3159.2584	1745.05	855.75
1044.345	3160.221	1739.25	848.6
1044.4499	3161.1829	1735.8	847.65
1044.5548	3162.1442	1733.7	844.9
1044.6596	3163.105	1726.45	837.1
1044.7644	3164.065	1721.8	832.45
1044.8692	3165.0245	1714.25	822.35
1044.9739	3165.9834	1706.55	820.15
1045.0785	3166.9416	1707.3	819.2
1045.1831	3167.8993	1701.25	809.15
1045.2877	3168.8563	1695.45	806.15
1045.3922	3169.8127	1689.4	800.9
1045.4966	3170.7684	1688.45	797.55
1045.6011	3171.7236	1689.2	799
1045.7054	3172.6782	1678.7	789.4
1045.8098	3173.6321	1673.55	784
1045.914	3174.5854	1674.2	781.45
1046.0183	3175.5381	1669.3	778.85
1046.1224	3176.4902	1658.5	769.1
1046.2266	3177.4417	1654.15	764.7
1046.3307	3178.3926	1650.9	762.4
1046.4347	3179.3428	1645.15	758.55
1046.5387	3180.2924	1645.45	758.8
1046.6427	3181.2415	1635.7	747.5
1046.7466	3182.1899	1626.45	734.7
1046.8504	3183.1377	1622.8	733.35
1046.9542	3184.0848	1627.25	733.9
1047.058	3185.0314	1622.25	733.35
1047.1617	3185.9773	1618.25	728.35
1047.2654	3186.9227	1612.65	721.45
1047.369	3187.8674	1614.9	726.7
1047.4726	3188.8115	1610.3	718.75
1047.5761	3189.755	1599.45	711
1047.6796	3190.6979	1609.6	720
1047.783	3191.6402	1592.15	702.75
1047.8864	3192.5818	1587.55	696.85
1047.9898	3193.5229	1596.95	697.3
1048.0931	3194.4633	1589.05	698.7
1048.1963	3195.4031	1584.95	696.45
1048.2995	3196.3423	1570.45	682.35
1048.4027	3197.2809	1576.8	688.95
1048.5058	3198.2189	1569.3	679.9
1048.6089	3199.1563	1573.9	675.35
1048.7119	3200.0931	1563.9	674.8
1048.8148	3201.0292	1564.25	676.25
1048.9178	3201.9648	1558.35	669.7
1049.0206	3202.8997	1555.35	663.95
1049.1235	3203.834	1548.45	657.15
1049.2262	3204.7677	1544.1	655.75
1049.329	3205.7008	1545.5	653.75
1049.4317	3206.6333	1542.5	655.65
1049.5343	3207.5652	1534.6	644.5
1049.6369	3208.4964	1538.5	648.15
1049.7394	3209.4271	1530.45	641.45
1049.8419	3210.3571	1519.55	631.6
1049.9444	3211.2865	1519.2	631.1
1050.0468	3212.2154	1517.55	627.2
1050.1491	3213.1436	1516.5	625.35
1050.2514	3214.0712	1519.6	624.7
1050.3537	3214.9982	1521.35	632.45
1050.4559	3215.9246	1505.2	614.25
1050.5581	3216.8503	1496.5	608.15
1050.6602	3217.7755	1510.85	620.3
1050.7623	3218.7001	1501.15	613.4
1050.8643	3219.624	1503.5	614.5
1050.9663	3220.5473	1494.5	606.5
1051.0682	3221.4701	1495.9	606.55
1051.1701	3222.3922	1489.05	598.85
1051.2719	3223.3137	1481.85	594.7
1051.3737	3224.2346	1473.5	582.6
1051.4754	3225.1549	1473.5	584.65
1051.5771	3226.0746	1467.65	579.95
1051.6788	3226.9937	1466.65	578.7
1051.7804	3227.9121	1461.6	572
1051.8819	3228.83	1463.7	574.2
1051.9834	3229.7473	1457.35	567.35
1052.0849	3230.6639	1456.55	565.95
1052.1863	3231.5799	1457.9	570.75
1052.2876	3232.4954	1451.55	560.3
1052.3889	3233.4102	1449.2	562.9
1052.4902	3234.3244	1441.85	553
1052.5914	3235.238	1440.2	552.4
1052.6926	3236.151	1468.75	555.5
1052.7937	3237.0634	1435.9	548
1052.8948	3237.9752	1430.2	541.95
1052.9958	3238.8864	1425.8	538.25
1053.0968	3239.797	1429	539.75
1053.1977	3240.7069	1423.2	533.3
1053.2986	3241.6163	1418.55	527.35
1053.3994	3242.5251	1414.1	527.95
1053.5002	3243.4332	1410.2	521.15
1053.6009	3244.3408	1414.25	526.05
1053.7016	3245.2477	1398.25	508.8
1053.8022	3246.154	1411.25	520
1053.9028	3247.0598	1402.35	513.4
1054.0034	3247.9649	1396.35	508.6
1054.1039	3248.8694	1391.75	503.55
1054.2043	3249.7733	1388.95	502.35
1054.3047	3250.6766	1391.65	503.5
1054.4051	3251.5793	1388	499.15
1054.5054	3252.4814	1380.2	492.25
1054.6056	3253.3829	1384.3	496.05
1054.7058	3254.2838	1376.9	489.3
1054.806	3255.1841	1372.55	484.7
1054.9061	3256.0838	1370.1	483.05
1055.0061	3256.9829	1368.9	480.4
1055.1062	3257.8814	1359.75	468.45
1055.2061	3258.7792	1355.5	465.05
1055.306	3259.6765	1347.35	458.35
1055.4059	3260.5731	1341.65	453.5
1055.5057	3261.4692	1341.85	453.3
1055.6055	3262.3647	1332.2	443.2
1055.7052	3263.2595	1330.9	441.75
1055.8049	3264.1538	1322.75	434.6
1055.9045	3265.0474	1315.1	424.25
1056.0041	3265.9404	1312.05	423.9
1056.1036	3266.8329	1304.95	417.95
1056.2031	3267.7247	1308.9	409.8
1056.3025	3268.616	1284.75	397.75
1056.4019	3269.5066	1278.1	388.4
1056.5013	3270.3966	1273	380.55
1056.6005	3271.286	1256.55	368.45
