Software Version:	3.9.2.0
Unit SN:	10000200
Spectrometer SN:	6960
Date:	3/6/2024 9:25:16 AM
Data Line Index:	25
Spectral Points:	2048
Integration time (ms):	125
Averages:	20
Delay (ms):	30
Sequence Number:	1
Processing:	dark subtract
Laser Power (mW):	300
Laser Current (mA):	811
Laser Diode Temp (C):	25.1
Laser Case Temp (C):	22.7
System Temp (C):	22.5
Spectrometer Temp (C):	20.6
CCD Temp (C):	-0.013
Secondary Temp (C):	20.007
Heatsink Temp (C):	17.345
CCDPCB Temp (C):	29.382
SecondaryPCB Temp (C):	25.091

Wavelength	RamanShift	Raw Counts	Dark Subtracted
787.061	30.1047	848.2	439.9
787.2016	32.3739	869.1	461.8
787.3422	34.6426	896.1	487.9
787.4828	36.9109	927.4	519.3
787.6235	39.1787	957.4	544.85
787.7642	41.4461	993.5	575.35
787.9049	43.7131	1029.25	608.45
788.0456	45.9796	1077.5	653.55
788.1863	48.2456	1112.2	684.75
788.3271	50.5112	1150.5	720.45
788.4679	52.7764	1190.75	756.1
788.6087	55.0411	1236.1	798.8
788.7496	57.3054	1288.5	844.7
788.8904	59.5692	1341.25	896.95
789.0313	61.8326	1401.35	955.7
789.1722	64.0955	1469	1019.6
789.3132	66.3579	1553.3	1098.05
789.4541	68.6199	1645.35	1185.5
789.5951	70.8815	1816.45	1353
789.7361	73.1426	2202.05	1735.8
789.8771	75.4032	3174.7	2704.55
790.0181	77.6634	5627.1	5155.75
790.1592	79.9231	11774.65	11302
790.3003	82.1824	30388.4	29911
790.4414	84.4412	58284.85	57801.35
790.5825	86.6995	65402	64913.45
790.7237	88.9574	65535	65044.05
790.8648	91.2148	65535	65039.95
791.006	93.4717	65535	65038.4
791.1472	95.7282	65535	65037.8
791.2885	97.9842	65535	65036.25
791.4297	100.2398	65535	65032.45
791.571	102.4949	65535	65028.15
791.7123	104.7495	65535	65026.6
791.8536	107.0036	65535	65024.55
791.9949	109.2573	65535	65025.55
792.1363	111.5105	65535	65022.15
792.2777	113.7632	65535	65021.1
792.4191	116.0154	65535	65011.75
792.5605	118.2672	65535	65017.8
792.7019	120.5185	65535	65013.6
792.8434	122.7693	65535	65009.85
792.9849	125.0197	65535	65005.65
793.1264	127.2696	65535	65000.8
793.2679	129.519	65535	64999.75
793.4094	131.7679	65535	64999.05
793.551	134.0163	65535	64997.1
793.6926	136.2642	65535	64993.9
793.8342	138.5117	65535	64990
793.9758	140.7587	65535	64991.65
794.1175	143.0052	65535	64986.75
794.2591	145.2512	65535	64984.7
794.4008	147.4967	65535	64982.35
794.5425	149.7417	65535	64977.45
794.6842	151.9863	65535	64975.05
794.826	154.2304	65535	64970.75
794.9677	156.4739	65535	64966.3
795.1095	158.717	65535	64967
795.2513	160.9596	65535	64961
795.3931	163.2017	65535	64959.85
795.535	165.4433	65535	64957.35
795.6768	167.6844	65535	64955.1
795.8187	169.925	65535	64950.2
795.9606	172.1651	65535	64948.2
796.1025	174.4047	65535	64942.6
796.2445	176.6439	65535	64943.4
796.3864	178.8825	65535	64939
796.5284	181.1206	65535	64935.85
796.6704	183.3582	65535	64932.7
796.8124	185.5954	65535	64931.65
796.9544	187.832	65535	64925.1
797.0965	190.0681	65535	64923
797.2386	192.3037	65535	64919.3
797.3806	194.5388	65535	64918.55
797.5228	196.7734	65535	64916.2
797.6649	199.0075	65535	64917.4
797.807	201.2411	65535	64915.25
797.9492	203.4742	65535	64912
798.0914	205.7068	65535	64906.7
798.2336	207.9389	65535	64909.65
798.3758	210.1704	65535	64921.05
798.518	212.4015	65535	64929.6
798.6603	214.632	65535	64930.75
798.8025	216.862	65535	64930
798.9448	219.0915	65535	64929
799.0871	221.3205	65535	64928.9
799.2294	223.549	65535	64932.35
799.3718	225.777	65535	64927.95
799.5141	228.0044	65535	64916.8
799.6565	230.2314	65535	64914.25
799.7989	232.4578	65535	64909.95
799.9413	234.6837	65535	64902.9
800.0837	236.909	65535	64901.95
800.2262	239.1339	65535	64879.65
800.3687	241.3582	65535	64895.3
800.5111	243.582	65535	64863.55
800.6536	245.8053	65535	64877.2
800.7961	248.0281	65535	64880.75
800.9387	250.2503	65535	64877
801.0812	252.472	65535	64878.8
801.2238	254.6932	65535	64878.25
801.3664	256.9139	65535	64871.85
801.509	259.134	65535	64872.95
801.6516	261.3536	65535	64874.75
801.7942	263.5727	65535	64870.05
801.9369	265.7912	65535	64873.75
802.0795	268.0092	65535	64871.7
802.2222	270.2267	65535	64870.15
802.3649	272.4436	65535	64866.3
802.5076	274.6601	65535	64855.55
802.6504	276.8759	65535	64861.85
802.7931	279.0913	65535	64862.55
802.9359	281.3061	65535	64859.7
803.0787	283.5204	65535	64856.85
803.2215	285.7341	65535	64854.45
803.3643	287.9473	65535	64842.9
803.5071	290.16	65535	64849.85
803.6499	292.3721	65535	64858.65
803.7928	294.5837	65535	64856.85
803.9357	296.7947	65535	64856.35
804.0786	299.0052	65535	64854.25
804.2215	301.2152	65535	64850.55
804.3644	303.4246	65535	64852.5
804.5074	305.6334	65535	64849.95
804.6503	307.8418	65535	64847.3
804.7933	310.0495	65535	64847.35
804.9363	312.2568	65535	64847.25
805.0793	314.4635	65535	64844.75
805.2223	316.6696	65535	64844.15
805.3653	318.8752	65535	64833.7
805.5084	321.0802	65535	64839.85
805.6514	323.2847	65535	64838.5
805.7945	325.4887	65535	64838.15
805.9376	327.692	65535	64837.3
806.0807	329.8949	65535	64833.3
806.2238	332.0972	65535	64834.6
806.367	334.2989	65535	64829.8
806.5101	336.5001	65535	64827.3
806.6533	338.7007	65535	64827.85
806.7965	340.9008	65535	64827.9
806.9397	343.1003	65535	64825.4
807.0829	345.2992	65535	64824.55
807.2261	347.4976	65535	64823.5
807.3693	349.6955	65535	64818.25
807.5126	351.8927	65535	64816.4
807.6559	354.0895	65535	64807.55
807.7991	356.2856	65535	64815
807.9424	358.4812	65535	64812.6
808.0857	360.6763	65535	64812.3
808.2291	362.8707	65535	64810.25
808.3724	365.0646	65535	64805.35
808.5158	367.258	65535	64805.9
808.6591	369.4508	65535	64801.05
808.8025	371.643	65535	64801.3
808.9459	373.8346	65535	64803.2
809.0893	376.0257	65535	64797.85
809.2327	378.2162	65535	64799.05
809.3762	380.4062	65535	64802.9
809.5196	382.5956	65535	64802.8
809.6631	384.7844	65535	64808.4
809.8066	386.9726	65535	64807.5
809.9501	389.1603	65535	64808.5
810.0936	391.3474	65535	64759.65
810.2371	393.5339	65535	64805.45
810.3806	395.7199	65535	64806.35
810.5241	397.9052	65535	64804.55
810.6677	400.09	65535	64800.2
810.8113	402.2743	65535	64801.05
810.9548	404.4579	65535	64800.4
811.0984	406.641	65535	64797.35
811.2421	408.8235	65535	64793.85
811.3857	411.0054	65535	64791.5
811.5293	413.1868	65535	64789.1
811.673	415.3675	65535	64785.1
811.8166	417.5477	65535	64785.95
811.9603	419.7273	65535	64782.5
812.104	421.9064	65535	64776.45
812.2477	424.0848	65535	64783.5
812.3914	426.2627	65535	64781.25
812.5351	428.4399	65535	64781.1
812.6788	430.6166	65535	64776.5
812.8226	432.7928	65535	64776.5
812.9663	434.9683	65535	64775.95
813.1101	437.1432	65535	64772.9
813.2539	439.3176	65535	64776.45
813.3977	441.4914	65535	64775.25
813.5415	443.6645	65535	64773.8
813.6853	445.8371	65535	64772.45
813.8291	448.0091	65535	64775.1
813.973	450.1806	65535	64771.1
814.1168	452.3514	65535	64770.5
814.2607	454.5216	65535	64761.5
814.4046	456.6913	65535	64765.55
814.5485	458.8603	65535	64768.35
814.6924	461.0288	65535	64768.45
814.8363	463.1967	65535	64767.65
814.9802	465.3639	65535	64765.85
815.1241	467.5306	65535	64766.75
815.2681	469.6967	65535	64765.55
815.412	471.8622	65535	64764.8
815.556	474.0271	65535	64766
815.7	476.1914	65535	64761.5
815.844	478.3551	65535	64761.55
815.988	480.5182	65535	64762.7
816.132	482.6807	65535	64760
816.276	484.8426	65535	64762.25
816.4201	487.0039	65535	64759.95
816.5641	489.1647	65535	64757.05
816.7082	491.3248	65535	64758.3
816.8522	493.4843	65535	64758.25
816.9963	495.6432	65535	64759
817.1404	497.8015	65535	64752.35
817.2845	499.9592	65535	64757.4
817.4286	502.1163	65535	64757.25
817.5727	504.2728	65535	64751.8
817.7168	506.4287	65535	64752.8
817.861	508.5839	65535	64752.65
818.0051	510.7386	65535	64752.1
818.1493	512.8927	65535	64742.85
818.2935	515.0461	65535	64749.55
818.4377	517.199	65535	64749.3
818.5818	519.3512	65535	64747.85
818.726	521.5029	65535	64745.65
818.8703	523.6539	65535	64749.75
819.0145	525.8043	65535	64747.15
819.1587	527.9541	65535	64743.2
819.303	530.1033	65535	64744.3
819.4472	532.2519	65535	64744.6
819.5915	534.3999	65535	64745
819.7357	536.5472	65535	64744.9
819.88	538.694	65535	64745.15
820.0243	540.8401	65535	64745.2
820.1686	542.9856	65535	64742.55
820.3129	545.1305	65535	64740.9
820.4572	547.2748	65535	64741.55
820.6016	549.4185	65535	64740.5
820.7459	551.5615	65535	64740.1
820.8902	553.704	65535	64739.8
821.0346	555.8458	65535	64741.3
821.1789	557.987	65535	64742.7
821.3233	560.1276	65535	64738.75
821.4677	562.2675	65535	64741.8
821.6121	564.4069	65535	64739.5
821.7565	566.5456	65535	64737.4
821.9009	568.6837	65535	64738
822.0453	570.8212	65535	64736.55
822.1897	572.958	65535	64735.8
822.3342	575.0942	65535	64737.1
822.4786	577.2299	65535	64732.75
822.6231	579.3648	65535	64734.6
822.7675	581.4992	65535	64734.15
822.912	583.6329	65535	64732.2
823.0565	585.766	65535	64731.9
823.201	587.8985	65535	64732.8
823.3454	590.0304	65535	64707.85
823.4899	592.1616	65535	64728.3
823.6345	594.2922	65535	64729.05
823.779	596.4222	65535	64729.35
823.9235	598.5515	65535	64729.45
824.068	600.6802	65535	64729.8
824.2126	602.8083	65535	64729.35
824.3571	604.9358	65535	64727.85
824.5017	607.0626	65535	64727.5
824.6462	609.1888	65535	64725.2
824.7908	611.3144	65535	64724.95
824.9354	613.4393	65535	64726.2
825.08	615.5636	65535	64725.9
825.2246	617.6873	65535	64724.2
825.3692	619.8103	65535	64723.85
825.5138	621.9327	65535	64720.2
825.6584	624.0544	65535	64725.3
825.803	626.1756	65535	64726.05
825.9477	628.2961	65535	64721.5
826.0923	630.4159	65535	64722.3
826.237	632.5351	65535	64720.3
826.3816	634.6537	65535	64720.6
826.5263	636.7716	65535	64718.4
826.6709	638.8889	65535	64720
826.8156	641.0056	65535	64720.65
826.9603	643.1216	65535	64717.45
827.105	645.237	65535	64716.5
827.2497	647.3518	65535	64717.85
827.3944	649.4659	65535	64719.1
827.5391	651.5793	65535	64717.05
827.6838	653.6922	65535	64717.65
827.8285	655.8043	65535	64717.25
827.9733	657.9159	65535	64714.2
828.118	660.0268	65535	64712.85
828.2627	662.137	65535	64714.75
828.4075	664.2466	65535	64716.55
828.5522	666.3556	65535	64715.1
828.697	668.4639	65535	64710.95
828.8418	670.5716	65535	64714.55
828.9865	672.6786	65535	64710.15
829.1313	674.785	65535	64711.3
829.2761	676.8907	65535	64709.95
829.4209	678.9958	65535	64713.6
829.5657	681.1002	65535	64710.8
829.7105	683.204	65535	64707.3
829.8553	685.3072	65535	64708.25
830.0001	687.4097	65535	64708.55
830.1449	689.5115	65535	64706.9
830.2898	691.6127	65535	64709.65
830.4346	693.7132	65535	64708.8
830.5794	695.8131	65535	64686.1
830.7243	697.9123	65535	64706.65
830.8691	700.0109	65535	64707.35
831.014	702.1089	65535	64708.4
831.1588	704.2061	65535	64706.75
831.3037	706.3028	65535	64705.55
831.4486	708.3987	65535	64706.05
831.5935	710.4941	65535	64706.95
831.7383	712.5887	65535	64704.45
831.8832	714.6827	65535	64701.3
832.0281	716.7761	65535	64703.65
832.173	718.8688	65535	64701.85
832.3179	720.9608	65535	64699.15
832.4628	723.0522	65535	64699.25
832.6077	725.1429	65535	64701
832.7527	727.233	65535	64701.55
832.8976	729.3224	65535	64703.4
833.0425	731.4112	65535	64700.95
833.1874	733.4993	65535	64700.5
833.3324	735.5867	65535	64700
833.4773	737.6735	65535	64699.7
833.6222	739.7596	65535	64699.9
833.7672	741.845	65535	64697.15
833.9122	743.9298	65535	64697.05
834.0571	746.014	65535	64698.7
834.2021	748.0974	65535	64698.2
834.347	750.1802	65535	64699.15
834.492	752.2624	65535	64699.65
834.637	754.3439	65535	64696.85
834.782	756.4247	65535	64688.95
834.9269	758.5048	65535	64696.8
835.0719	760.5843	65535	64696.25
835.2169	762.6631	65535	64696.55
835.3619	764.7413	65535	64696.3
835.5069	766.8188	65535	64693.65
835.6519	768.8956	65535	64693.35
835.7969	770.9718	65535	64696.85
835.9419	773.0473	65535	64696.15
836.0869	775.1221	65535	64694.8
836.232	777.1962	65535	64694.3
836.377	779.2697	65535	64694.15
836.522	781.3426	65535	64684
836.667	783.4147	65535	64692.8
836.8121	785.4862	65535	64694.7
836.9571	787.557	65535	64695.65
837.1021	789.6271	65535	64693.4
837.2472	791.6966	65535	64692.6
837.3922	793.7654	65535	64692.25
837.5373	795.8335	65535	64694.45
837.6823	797.901	65535	64690.7
837.8274	799.9678	65535	64691.3
837.9724	802.0339	65535	64692.35
838.1175	804.0993	65535	64681.3
838.2626	806.1641	65535	64690.1
838.4076	808.2282	65535	64690.6
838.5527	810.2916	65535	64688
838.6978	812.3544	65535	64693.95
838.8428	814.4164	65535	64692.3
838.9879	816.4778	65535	64690.9
839.133	818.5385	65535	64690.7
839.2781	820.5986	65535	64690.95
839.4232	822.658	65535	64687.4
839.5682	824.7166	65535	64690.95
839.7133	826.7747	65535	64690
839.8584	828.832	65535	64688.6
840.0035	830.8886	65535	64689.35
840.1486	832.9446	65535	64687.35
840.2937	834.9999	65535	64690.55
840.4388	837.0545	65535	64684
840.5839	839.1085	65535	64685.05
840.729	841.1618	65535	64684.3
840.8741	843.2143	65535	64686.7
841.0192	845.2662	65535	64686.45
841.1643	847.3175	65535	64687.6
841.3095	849.368	65535	64686.65
841.4546	851.4179	65535	64686.6
841.5997	853.467	65535	64686.55
841.7448	855.5155	65535	64687.1
841.8899	857.5633	65535	64685
842.0351	859.6105	65535	64687.9
842.1802	861.6569	65535	64686.55
842.3253	863.7027	65535	64683.7
842.4704	865.7478	65535	64684.5
842.6156	867.7922	65535	64684.95
842.7607	869.8359	65535	64683.25
842.9058	871.8789	65535	64684.2
843.0509	873.9212	65535	64651
843.1961	875.9629	65535	64686.1
843.3412	878.0039	65535	64682.2
843.4863	880.0441	65535	64683.7
843.6315	882.0837	65535	64683.15
843.7766	884.1226	65535	64681.2
843.9218	886.1609	65535	64686.4
844.0669	888.1984	65535	64685.05
844.212	890.2352	65535	64684.35
844.3572	892.2714	65535	64679.4
844.5023	894.3069	65535	64681.95
844.6475	896.3416	65535	64680.5
844.7926	898.3757	65535	64681.15
844.9377	900.4091	65535	64681.4
845.0829	902.4418	65535	64676.5
845.228	904.4739	65535	64679.4
845.3732	906.5052	65535	64681.4
845.5183	908.5358	65535	64682
845.6635	910.5658	65535	64680.15
845.8086	912.595	65535	64680.5
845.9538	914.6236	65535	64681.8
846.0989	916.6515	65535	64680.15
846.2441	918.6786	65535	64678.15
846.3892	920.7051	65535	64678.4
846.5344	922.7309	65535	64678.8
846.6795	924.756	65535	64677.95
846.8246	926.7804	65535	64677.15
846.9698	928.8041	65535	64676.95
847.1149	930.8272	65535	64678.35
847.2601	932.8495	65535	64678.15
847.4052	934.8711	65535	64675.6
847.5504	936.892	65535	64679.3
847.6955	938.9123	65535	64677.5
847.8407	940.9318	65535	64675.75
847.9858	942.9506	65535	64676.55
848.131	944.9688	65535	64678.45
848.2761	946.9862	65535	64678.7
848.4213	949.003	65535	64677.95
848.5664	951.019	65535	64675.75
848.7115	953.0344	65535	64676.95
848.8567	955.0491	65535	64675.2
849.0018	957.063	65535	64675.95
849.147	959.0763	65535	64677.35
849.2921	961.0888	65535	64675.15
849.4373	963.1007	65535	64675.15
849.5824	965.1119	65535	64676.4
849.7275	967.1223	65535	64675.75
849.8727	969.1321	65535	64676.2
850.0178	971.1412	65535	64677.75
850.1629	973.1495	65535	64675.85
850.3081	975.1572	65535	64625.7
850.4532	977.1641	65535	64676.2
850.5983	979.1704	65535	64674.05
850.7435	981.1759	65535	64672.15
850.8886	983.1808	65535	64672.85
851.0337	985.1849	65535	64666.9
851.1788	987.1884	65535	64671.55
851.324	989.1911	65535	64670.5
851.4691	991.1932	65535	64672.25
851.6142	993.1945	65535	64674.05
851.7593	995.1951	65535	64672.65
851.9045	997.1951	65535	64668.2
852.0496	999.1943	65535	64671.7
852.1947	1001.1928	65535	64672.75
852.3398	1003.1906	65535	64671.6
852.4849	1005.1877	65535	64672.85
852.63	1007.1841	65535	64672.1
852.7751	1009.1798	65535	64672.75
852.9202	1011.1748	65535	64671.5
853.0653	1013.1691	65535	64671.8
853.2104	1015.1627	65535	64672.25
853.3555	1017.1556	65535	64673.5
853.5006	1019.1477	65535	64669.9
853.6457	1021.1392	65535	64673.85
853.7908	1023.1299	65535	64672.6
853.9359	1025.12	65535	64670.3
854.081	1027.1093	65535	64674.15
854.2261	1029.0979	65535	64672.7
854.3712	1031.0859	65535	64672.55
854.5163	1033.0731	65535	64673.2
854.6613	1035.0596	65535	64673.25
854.8064	1037.0454	65535	64672
854.9515	1039.0304	65535	64670.1
855.0965	1041.0148	65535	64670.75
855.2416	1042.9985	65535	64670.65
855.3867	1044.9814	65535	64670.3
855.5317	1046.9636	65535	64670
855.6768	1048.9452	65535	64670.7
855.8219	1050.926	65535	64671.6
855.9669	1052.9061	65535	64671.2
856.112	1054.8855	65535	64669.75
856.257	1056.8642	65535	64668.25
856.4021	1058.8421	65535	64665.85
856.5471	1060.8194	65535	64668.95
856.6921	1062.7959	65535	64671.25
856.8372	1064.7717	65535	64668.75
856.9822	1066.7469	65535	64668.85
857.1272	1068.7213	65535	64664.25
857.2723	1070.695	65535	64668.4
857.4173	1072.6679	65535	64667.9
857.5623	1074.6402	65535	64669.95
857.7073	1076.6117	65535	64664.6
857.8523	1078.5826	65535	64668.25
857.9973	1080.5527	65535	64665.75
858.1423	1082.5221	65535	64668.95
858.2873	1084.4908	65535	64669.3
858.4323	1086.4587	65535	64668.05
858.5773	1088.426	65535	64668.65
858.7223	1090.3925	65535	64663.65
858.8673	1092.3584	65535	64669.15
859.0123	1094.3235	65535	64669.45
859.1573	1096.2879	65535	64667.5
859.3022	1098.2515	65535	64669.2
859.4472	1100.2145	65535	64669.65
859.5922	1102.1767	65535	64666.65
859.7371	1104.1382	65535	64667.8
859.8821	1106.099	65535	64665.3
860.027	1108.0591	65535	64666.35
860.172	1110.0185	65531.2	64661.2
860.3169	1111.9771	65535	64668.75
860.4619	1113.9351	65535	64666
860.6068	1115.8923	65535	64667.6
860.7517	1117.8488	65535	64662.7
860.8967	1119.8045	65535	64665.25
861.0416	1121.7596	65535	64666.2
861.1865	1123.7139	65533.5	64665.65
861.3314	1125.6675	65533.95	64667.65
861.4763	1127.6204	65531.55	64662.85
861.6212	1129.5726	65519.4	64649.25
861.7661	1131.524	65529	64661.85
861.911	1133.4748	65531.55	64663.35
862.0559	1135.4248	65512.95	64643.25
862.2008	1137.3741	65518.55	64650.45
862.3457	1139.3226	65517.55	64648.9
862.4905	1141.2705	65506	64637
862.6354	1143.2176	65520.85	64644.45
862.7803	1145.164	65448.65	64577.55
862.9251	1147.1097	65509.55	64638.5
863.07	1149.0546	65512.95	64643.25
863.2148	1150.9989	65517.85	64647.25
863.3597	1152.9424	65423.05	64554.5
863.5045	1154.8852	65513.65	64644.95
863.6493	1156.8272	65437.2	64567.7
863.7942	1158.7686	65518.4	64640.9
863.939	1160.7092	65432.35	64562.15
864.0838	1162.6491	65459.65	64587.8
864.2286	1164.5883	65457.7	64587.05
864.3734	1166.5267	65419.5	64546.95
864.5182	1168.4644	65459	64587.75
864.663	1170.4014	65450.35	64574.45
864.8078	1172.3377	65466.25	64596.05
864.9526	1174.2732	65488.05	64617.3
865.0974	1176.2081	65464.05	64592.1
865.2421	1178.1421	65446.7	64571.75
865.3869	1180.0755	65509.75	64640.75
865.5317	1182.0082	65503.2	64632.2
865.6764	1183.9401	65505	64634.9
865.8212	1185.8713	65433.55	64562.05
865.9659	1187.8017	65420.15	64548
866.1106	1189.7315	65410.55	64539
866.2554	1191.6605	65421.3	64549.1
866.4001	1193.5888	65384.15	64513.05
866.5448	1195.5163	65303.95	64432.85
866.6895	1197.4432	65319.4	64444.6
866.8342	1199.3693	65320	64448.55
866.9789	1201.2947	65291.35	64418.55
867.1236	1203.2193	65343.15	64470.05
867.2683	1205.1432	65201.95	64330.3
867.413	1207.0664	65219.55	64347.3
867.5576	1208.9889	65201.75	64326.75
867.7023	1210.9106	65223	64350.6
867.847	1212.8316	65172.85	64301.95
867.9916	1214.7519	65154.3	64273.75
868.1363	1216.6715	65125.3	64253.15
868.2809	1218.5903	65099.85	64227.35
868.4255	1220.5084	65085.55	64212.9
868.5701	1222.4257	65095.2	64222.45
868.7148	1224.3424	65083.15	64212.2
868.8594	1226.2583	64975.3	64099.75
869.004	1228.1735	65092.4	64219.15
869.1486	1230.0879	64931.5	64058.55
869.2932	1232.0016	65073.65	64199.9
869.4377	1233.9146	64951.2	64077.05
869.5823	1235.8269	65021.9	64150.15
869.7269	1237.7384	64967.15	64095.05
869.8715	1239.6492	64952.6	64080.3
870.016	1241.5592	64840.55	63965.8
870.1606	1243.4686	64991.15	64118
870.3051	1245.3772	64855.85	63982.1
870.4496	1247.285	65015.1	64141.75
870.5941	1249.1922	64870.15	63995.15
870.7387	1251.0986	64991.9	64120.55
870.8832	1253.0042	64929.75	64056.95
871.0277	1254.9092	65035.1	64160.25
871.1722	1256.8134	64868.25	63996.55
871.3167	1258.7169	65080.75	64206.3
871.4611	1260.6196	64925.65	64054.3
871.6056	1262.5216	64918.55	64043
871.7501	1264.4229	64974.9	64101.5
871.8945	1266.3234	65038.15	64166.25
872.039	1268.2232	64946.9	64072.35
872.1834	1270.1223	64815.6	63939.45
872.3278	1272.0207	64815.2	63943.85
872.4723	1273.9183	64804.5	63924.9
872.6167	1275.8151	64823.75	63950
872.7611	1277.7113	64866.15	63991.55
872.9055	1279.6067	64794.75	63920
873.0499	1281.5014	64835.15	63958.55
873.1943	1283.3953	65010.65	64132.4
873.3386	1285.2885	64994.75	64121
873.483	1287.181	65040	64163.55
873.6274	1289.0727	65042.9	64169.95
873.7717	1290.9637	64772.9	63896.4
873.9161	1292.854	65019	64144.5
874.0604	1294.7435	64864.35	63988.85
874.2047	1296.6323	64835.1	63960.05
874.349	1298.5204	64725.6	63846.9
874.4933	1300.4077	64819	63942.85
874.6376	1302.2943	64639.6	63763.9
874.7819	1304.1802	64553.7	63677.5
874.9262	1306.0653	64529.9	63653.05
875.0705	1307.9497	64526.35	63650.3
875.2147	1309.8333	64600.4	63724.95
875.359	1311.7162	64530.8	63657.1
875.5032	1313.5984	64588.05	63710.85
875.6475	1315.4798	64483.85	63599.7
875.7917	1317.3605	64475.65	63599.85
875.9359	1319.2405	64504.1	63627.4
876.0801	1321.1197	64316.8	63440.65
876.2243	1322.9982	64426.55	63545.45
876.3685	1324.876	64337.05	63460.15
876.5127	1326.753	64244.85	63368.7
876.6569	1328.6293	64414.9	63538.8
876.801	1330.5048	64233.45	63354.85
876.9452	1332.3796	64134.2	63259.8
877.0893	1334.2537	64043.1	63142.25
877.2335	1336.127	64104.2	63227.4
877.3776	1337.9996	63947.55	63070.6
877.5217	1339.8714	64099.1	63225.35
877.6658	1341.7426	63772.65	62851.9
877.8099	1343.6129	63960.95	63085.45
877.954	1345.4826	63995.2	63117.05
878.0981	1347.3515	63719.15	62841.65
878.2422	1349.2196	63918.95	63040.8
878.3862	1351.087	63847.25	62970.35
878.5303	1352.9537	63863.35	62988.6
878.6743	1354.8197	63837	62962.4
878.8184	1356.6849	63831.9	62957.3
878.9624	1358.5493	63801.5	62924.85
879.1064	1360.4131	63700.4	62825.05
879.2504	1362.276	63951.1	63075.1
879.3944	1364.1383	63706.6	62829.4
879.5384	1365.9998	63619.45	62737.7
879.6823	1367.8606	63746.25	62868.15
879.8263	1369.7206	63636.65	62760.35
879.9702	1371.5799	63629.8	62752.4
880.1142	1373.4384	63539.75	62662.05
880.2581	1375.2962	63602.5	62722
880.402	1377.1533	63355.65	62479.1
880.5459	1379.0096	63304.8	62426.1
880.6898	1380.8652	63310.2	62432.05
880.8337	1382.7201	63242.25	62364.4
880.9776	1384.5742	63294	62417.2
881.1215	1386.4275	63010.4	62134.2
881.2653	1388.2802	63088.25	62212.05
881.4092	1390.132	63184.15	62306.85
881.553	1391.9832	62916.75	62038.55
881.6968	1393.8336	62807.8	61928.25
881.8406	1395.6832	62880	62002.35
881.9844	1397.5322	62937.4	62060.2
882.1282	1399.3803	62729.95	61849.15
882.272	1401.2278	62702.9	61825.55
882.4158	1403.0745	62627.65	61750.85
882.5595	1404.9204	62620.1	61743.05
882.7033	1406.7656	62593.9	61716.4
882.847	1408.6101	62376	61497.4
882.9908	1410.4538	62425.1	61548.4
883.1345	1412.2968	62413.35	61534.65
883.2782	1414.139	62216.5	61340.85
883.4219	1415.9805	62287.45	61411.25
883.5656	1417.8213	62165	61266.8
883.7092	1419.6613	62263.75	61387.3
883.8529	1421.5006	62133.7	61256.7
883.9965	1423.3391	62097.75	61217
884.1402	1425.1769	62086.3	61208
884.2838	1427.0139	62261.95	61385.1
884.4274	1428.8502	62147.75	61270.05
884.571	1430.6858	62137.3	61257.95
884.7146	1432.5206	62294.15	61416.25
884.8582	1434.3547	62108.4	61230.35
885.0018	1436.188	62006.85	61130.3
885.1453	1438.0206	62118.6	61240.95
885.2889	1439.8524	62073.9	61195
885.4324	1441.6835	61958.3	61082.35
885.5759	1443.5139	62051.85	61170.45
885.7194	1445.3435	61912.2	61034.9
885.8629	1447.1724	61933.7	61055.55
886.0064	1449.0005	61737.15	60860.45
886.1499	1450.8279	61896.95	61017.05
886.2933	1452.6545	61869.1	60992.3
886.4368	1454.4804	61755.2	60878.4
886.5802	1456.3056	61649.35	60765.3
886.7237	1458.13	61693.25	60815.45
886.8671	1459.9536	61853.65	60975
887.0105	1461.7766	61594.6	60716.55
887.1539	1463.5987	61376.35	60495.45
887.2972	1465.4202	61484.2	60605.35
887.4406	1467.2409	61367.1	60489.8
887.584	1469.0608	61099.2	60218.9
887.7273	1470.88	61160.35	60282.4
887.8706	1472.6984	61237.45	60361.75
888.0139	1474.5161	60877.2	59994.45
888.1572	1476.3331	61027.85	60150.9
888.3005	1478.1493	60794.2	59912.95
888.4438	1479.9648	60707.95	59829.6
888.5871	1481.7795	60909.85	60031.7
888.7303	1483.5935	60914.95	60038.5
888.8736	1485.4067	60616.2	59736.8
889.0168	1487.2192	60759.95	59880.55
889.16	1489.031	60529.3	59648.8
889.3032	1490.842	60602.7	59727.25
889.4464	1492.6522	60659.8	59782.2
889.5896	1494.4618	60443.4	59562.6
889.7327	1496.2705	60560.8	59684.8
889.8759	1498.0785	60136.1	59256.4
890.019	1499.8858	60359.2	59478.5
890.1622	1501.6924	60557.3	59679.65
890.3053	1503.4981	60133.5	59253.5
890.4484	1505.3032	60210.75	59331.6
890.5914	1507.1075	60010.65	59132.65
890.7345	1508.911	60094.2	59215.75
890.8776	1510.7138	60038.75	59161.35
891.0206	1512.5159	60139.9	59259.3
891.1637	1514.3172	59570.65	58691.25
891.3067	1516.1178	59696.75	58818.55
891.4497	1517.9176	59862.05	58981.05
891.5927	1519.7166	59651.2	58773.9
891.7357	1521.515	59526.65	58643.2
891.8786	1523.3126	59282.6	58402.75
892.0216	1525.1094	59501.85	58621.65
892.1645	1526.9055	59364.05	58487.6
892.3074	1528.7008	59382.8	58502.6
892.4503	1530.4954	59005.45	58124.25
892.5932	1532.2893	59238.15	58360.45
892.7361	1534.0824	58899.25	58015.7
892.879	1535.8747	58688.95	57809.25
893.0218	1537.6663	59140.05	58259.85
893.1647	1539.4572	58260.05	57380.35
893.3075	1541.2473	58615.65	57735.3
893.4503	1543.0367	58466.9	57586.15
893.5931	1544.8253	58362.1	57477
893.7359	1546.6132	58466	57583.5
893.8787	1548.4003	58148.8	57260.8
894.0214	1550.1867	58077.05	57188.8
894.1642	1551.9723	58026.25	57141.7
894.3069	1553.7572	58025.8	57144.65
894.4496	1555.5414	58170.75	57291.05
894.5923	1557.3247	57557.75	56677.95
894.735	1559.1074	58036.95	57158.1
894.8777	1560.8893	57814.15	56936.95
895.0204	1562.6705	57971.3	57092.65
895.163	1564.4509	57613.05	56733.7
895.3056	1566.2305	57747.15	56867.7
895.4482	1568.0094	57969.05	57090.45
895.5908	1569.7876	57734.45	56856.2
895.7334	1571.565	57431.15	56550.85
895.876	1573.3417	57608.35	56728.5
896.0186	1575.1176	57473.05	56592.9
896.1611	1576.8928	57380.8	56500.15
896.3036	1578.6672	57181.5	56302.25
896.4461	1580.4409	57332.75	56455.35
896.5886	1582.2138	57155.25	56273.3
896.7311	1583.986	57292.05	56412
896.8736	1585.7575	57170.1	56290.25
897.0161	1587.5282	57258.25	56380.4
897.1585	1589.2981	57387	56508.25
897.3009	1591.0673	57067.3	56189.05
897.4433	1592.8358	57000.1	56119.65
897.5857	1594.6035	57117.35	56235.55
897.7281	1596.3704	57089.9	56210.6
897.8705	1598.1366	56691.55	55812.65
898.0128	1599.9021	56476.75	55597.75
898.1551	1601.6668	56497.9	55617
898.2975	1603.4308	56285.25	55405.4
898.4398	1605.194	56306.35	55422.6
898.5821	1606.9564	55884.55	55006.15
898.7243	1608.7182	56185.4	55302.75
898.8666	1610.4791	56100.05	55221.6
899.0088	1612.2394	56330.2	55449.95
899.1511	1613.9988	56331.5	55452.6
899.2933	1615.7576	56667.15	55789.35
899.4355	1617.5156	56684.95	55800.9
899.5776	1619.2728	56811.55	55932.55
899.7198	1621.0293	56202.85	55325
899.862	1622.785	55897.3	55013
900.0041	1624.54	55751.3	54869.1
900.1462	1626.2942	55405.2	54522.95
900.2883	1628.0477	54821.4	53940.4
900.4304	1629.8005	54579.6	53696.5
900.5725	1631.5525	54589.95	53712.65
900.7145	1633.3037	54155.15	53275.55
900.8566	1635.0542	54080.1	53200.45
900.9986	1636.804	54057	53176.85
901.1406	1638.553	53817.2	52847.45
901.2826	1640.3013	53663.25	52785.1
901.4245	1642.0488	53377.05	52496.35
901.5665	1643.7955	53509.85	52631
901.7085	1645.5416	53258.7	52378.45
901.8504	1647.2868	53085.4	52206.85
901.9923	1649.0313	53187.05	52308.1
902.1342	1650.7751	52911.55	52029.3
902.2761	1652.5181	52719.7	51840.85
902.4179	1654.2604	52645.1	51764.85
902.5598	1656.0019	52605.85	51724.95
902.7016	1657.7427	52446.8	51567.05
902.8434	1659.4828	52552.25	51672.6
902.9852	1661.222	52265.45	51385.25
903.127	1662.9606	52468.95	51587.9
903.2687	1664.6984	52343.1	51465.85
903.4105	1666.4354	52562.9	51682.1
903.5522	1668.1717	52229.65	51351.2
903.6939	1669.9072	51869.6	50989.1
903.8356	1671.642	51789.85	50906.7
903.9773	1673.3761	51559.65	50680.6
904.119	1675.1094	51412.2	50533.25
904.2606	1676.8419	51065.1	50183.25
904.4022	1678.5737	51035.75	50154.9
904.5439	1680.3048	50814.85	49933.45
904.6855	1682.0351	50641.35	49762.85
904.827	1683.7646	50334.9	49449.65
904.9686	1685.4934	50415.9	49535.6
905.1101	1687.2215	49974.25	49093.1
905.2517	1688.9488	50159.05	49279.1
905.3932	1690.6754	49380.65	48500.05
905.5347	1692.4012	49664.9	48783.95
905.6761	1694.1263	49616.2	48736.05
905.8176	1695.8506	49309	48429.45
905.9591	1697.5742	49234.25	48353.95
906.1005	1699.297	49071.05	48189.65
906.2419	1701.0191	49028.5	48146.9
906.3833	1702.7404	48611.75	47732.7
906.5246	1704.461	48372.7	47489.85
906.666	1706.1808	48434.8	47551.35
906.8073	1707.8999	48312.3	47428.5
906.9487	1709.6182	48155.85	47275
907.09	1711.3358	48077.5	47197.15
907.2313	1713.0527	47952.9	47074.2
907.3725	1714.7688	47861.75	46977.45
907.5138	1716.4841	47402.55	46520.15
907.655	1718.1987	47523.4	46638.25
907.7962	1719.9126	47361.25	46481.2
907.9374	1721.6257	47344.65	46459.8
908.0786	1723.338	47269.8	46388.75
908.2198	1725.0496	46790.05	45908
908.3609	1726.7605	46793.85	45915.3
908.502	1728.4706	46638.15	45756.15
908.6431	1730.18	46607.3	45724.3
908.7842	1731.8886	46400.95	45523.05
908.9253	1733.5964	46224.1	45320.9
909.0664	1735.3036	46378.9	45495.55
909.2074	1737.0099	46213.9	45334.6
909.3484	1738.7156	45952	45072.95
909.4894	1740.4204	45762.15	44876.95
909.6304	1742.1246	45828.4	44946.45
909.7714	1743.8279	45787	44907.45
909.9123	1745.5306	45687.6	44804.4
910.0532	1747.2325	45211.8	44332.15
910.1941	1748.9336	45224.05	44341.55
910.335	1750.634	45158	44276.15
910.4759	1752.3336	45281.7	44402
910.6168	1754.0325	44952.65	44073
910.7576	1755.7307	45116.1	44236.25
910.8984	1757.4281	44788.75	43908
911.0392	1759.1247	44959.3	44068.8
911.18	1760.8206	44541.3	43656.95
911.3208	1762.5158	44590.95	43707.9
911.4615	1764.2102	44508	43628.6
911.6022	1765.9039	44330	43448.95
911.7429	1767.5968	44234.45	43351.8
911.8836	1769.289	44081.65	43201.85
912.0243	1770.9804	44061.9	43180.65
912.1649	1772.6711	43957.95	43077.9
912.3056	1774.361	43852.35	42970.45
912.4462	1776.0502	43776.75	42897.1
912.5868	1777.7386	43504.05	42619.8
912.7274	1779.4263	43487.3	42607.6
912.8679	1781.1132	43481.15	42601.3
913.0084	1782.7994	43321.35	42437.4
913.149	1784.4849	43260.85	42379.1
913.2895	1786.1696	42969.45	42070.3
913.4299	1787.8535	43032	42154.55
913.5704	1789.5367	42972.8	42092.05
913.7108	1791.2192	42772.35	41892.9
913.8513	1792.9009	42605.4	41705.1
913.9917	1794.5818	42623.95	41742.4
914.132	1796.2621	42379.35	41500.7
914.2724	1797.9415	42322.2	41439.7
914.4128	1799.6202	42263.4	41381.35
914.5531	1801.2982	42197.15	41316.6
914.6934	1802.9755	41984.3	41103.75
914.8337	1804.6519	41875.8	40994.65
914.9739	1806.3277	41797.55	40917.8
915.1142	1808.0027	41424.65	40544.6
915.2544	1809.6769	41505.85	40625.4
915.3946	1811.3504	41458.75	40575.55
915.5348	1813.0231	41167.5	40285.85
915.675	1814.6951	41259.3	40377.2
915.8151	1816.3664	41199.8	40317.1
915.9553	1818.0369	41133.05	40249.75
916.0954	1819.7067	40987.3	40107.3
916.2355	1821.3757	41008.6	40124.4
916.3755	1823.044	40771.25	39891.7
916.5156	1824.7115	40672.95	39792.75
916.6556	1826.3783	40548.55	39670.55
916.7956	1828.0443	40408.35	39528.15
916.9356	1829.7096	40356.1	39473.55
917.0756	1831.3741	40290.3	39405.95
917.2155	1833.0379	40222.5	39341.25
917.3555	1834.701	40105.35	39222.35
917.4954	1836.3633	39986.75	39103.1
917.6353	1838.0248	39914.8	39029.55
917.7751	1839.6856	39863.7	38981.8
917.915	1841.3457	39728.3	38850.2
918.0548	1843.005	39723.45	38842
918.1946	1844.6636	39622.9	38744.05
918.3344	1846.3214	39412.4	38531.6
918.4742	1847.9785	39429.35	38549.3
918.6139	1849.6349	39263.15	38381.2
918.7537	1851.2904	39251.2	38361.35
918.8934	1852.9453	39129.25	38247.55
919.0331	1854.5994	38984.55	38102.7
919.1727	1856.2528	38993.15	38105.35
919.3124	1857.9054	38794.95	37914.35
919.452	1859.5572	38712.25	37834.05
919.5916	1861.2083	38671.35	37790.95
919.7312	1862.8587	38742.4	37862.3
919.8708	1864.5084	38517.25	37635.35
920.0103	1866.1572	38451.85	37574.9
920.1498	1867.8054	38231.05	37350.7
920.2893	1869.4528	38297.25	37415.4
920.4288	1871.0994	38102.35	37223.2
920.5683	1872.7453	38025.95	37143.85
920.7077	1874.3905	37974.95	37086.25
920.8471	1876.0349	37795.75	36915.15
920.9865	1877.6786	37825.95	36944.3
921.1259	1879.3215	37754.6	36873.5
921.2653	1880.9637	37697.6	36815.55
921.4046	1882.6051	37593.05	36714
921.5439	1884.2458	37428.45	36546.35
921.6832	1885.8858	37339.45	36458.7
921.8225	1887.525	37262.25	36381.25
921.9617	1889.1634	37130.9	36253.6
922.101	1890.8011	36992.35	36112
922.2402	1892.4381	36912.2	36031.8
922.3794	1894.0743	36930.45	36050
922.5185	1895.7098	36782.15	35901.9
922.6577	1897.3446	36699.35	35819.5
922.7968	1898.9786	36605.05	35720.05
922.9359	1900.6118	36553.7	35675.1
923.075	1902.2443	36335.85	35452.2
923.214	1903.8761	36325.55	35446.55
923.3531	1905.5071	36068.7	35186.3
923.4921	1907.1374	35978.75	35098.1
923.6311	1908.7669	35912.6	35032.4
923.77	1910.3957	35905.6	35024.45
923.909	1912.0237	35675.7	34794.1
924.0479	1913.651	35585.8	34704.05
924.1868	1915.2776	35489.1	34610.35
924.3257	1916.9034	35358	34479.15
924.4646	1918.5285	35196.65	34317
924.6034	1920.1528	35024.55	34142.65
924.7422	1921.7764	34966.6	34087.05
924.881	1923.3992	34855.85	33974.5
925.0198	1925.0213	34608.8	33726.45
925.1586	1926.6427	34473	33593.45
925.2973	1928.2633	34599	33511.55
925.436	1929.8832	34355.25	33473.05
925.5747	1931.5023	34151.25	33271.35
925.7134	1933.1207	34083.3	33201.85
925.852	1934.7383	34051	33170.2
925.9906	1936.3552	33899.6	33018.95
926.1292	1937.9714	33786.85	32906.1
926.2678	1939.5868	33615.7	32731.1
926.4064	1941.2015	33497.1	32615.55
926.5449	1942.8154	33367.55	32486.65
926.6834	1944.4286	33191.45	32310.85
926.8219	1946.041	33086.65	32183.3
926.9604	1947.6528	32909.15	32024.4
927.0988	1949.2637	32895.35	32014.35
927.2372	1950.8739	32743.35	31864.25
927.3756	1952.4834	32753.1	31871.25
927.514	1954.0921	32625.95	31744.6
927.6523	1955.7001	32501.5	31616.9
927.7907	1957.3074	32435.9	31557.6
927.929	1958.9139	32291.7	31410.35
928.0673	1960.5197	32164.3	31280.45
928.2055	1962.1247	32036.95	31156.05
928.3438	1963.729	31897.85	31017.85
928.482	1965.3325	31760.35	30856.25
928.6202	1966.9353	31667.8	30787.6
928.7584	1968.5374	31602.6	30721.75
928.8965	1970.1387	31493.1	30611.75
929.0346	1971.7393	31380.3	30498.8
929.1727	1973.3392	31331.05	30451.75
929.3108	1974.9383	31183.7	30303.2
929.4489	1976.5366	30990.8	30109.65
929.5869	1978.1342	30995.15	30113.55
929.7249	1979.7311	30956.7	30076.15
929.8629	1981.3273	30831.4	29949.8
930.0009	1982.9227	30702.05	29819.95
930.1388	1984.5173	30625.2	29745.65
930.2767	1986.1112	30450.75	29568.25
930.4146	1987.7044	30432.35	29553.35
930.5525	1989.2968	30310.8	29428.2
930.6904	1990.8885	30256.6	29372.75
930.8282	1992.4795	30219.15	29336.1
930.966	1994.0697	30101.35	29220.85
931.1038	1995.6592	30003.4	29121.9
931.2415	1997.2479	29875.6	28995.05
931.3793	1998.8359	29785.05	28904.1
931.517	2000.4232	29669.35	28789.25
931.6547	2002.0097	29604.55	28722.5
931.7923	2003.5955	29434.25	28553.7
931.93	2005.1805	29436.7	28551.25
932.0676	2006.7648	29323.3	28443.35
932.2052	2008.3484	29193.9	28310.95
932.3427	2009.9312	29186.55	28304.45
932.4803	2011.5133	29065.95	28185.25
932.6178	2013.0946	29005.6	28125.45
932.7553	2014.6752	28909.45	28030.3
932.8928	2016.2551	28821.55	27939.9
933.0302	2017.8342	28677.45	27796.9
933.1676	2019.4126	28604.25	27723.7
933.305	2020.9902	28479.9	27599.2
933.4424	2022.5672	28415.65	27532.85
933.5798	2024.1433	28369.65	27484.8
933.7171	2025.7188	28244.25	27364.6
933.8544	2027.2935	28188.9	27308.75
933.9917	2028.8674	28118.9	27238.75
934.129	2030.4406	27988.6	27109
934.2662	2032.0131	27808	26927.45
934.4034	2033.5849	27753.05	26864.8
934.5406	2035.1559	27689.5	26809.85
934.6778	2036.7261	27664.8	26782.95
934.8149	2038.2957	27558.2	26678.5
934.952	2039.8645	27544.95	26664.65
935.0891	2041.4325	27522.55	26639.45
935.2262	2042.9998	27412.8	26531.75
935.3632	2044.5664	27349.05	26467.05
935.5002	2046.1323	27209.25	26327.95
935.6372	2047.6974	27130.95	26251.15
935.7742	2049.2617	27051.1	26169
935.9111	2050.8254	27098.4	26196.25
936.048	2052.3883	27006.05	26125.25
936.1849	2053.9504	26903.6	26021.65
936.3218	2055.5118	26802.7	25921.05
936.4586	2057.0725	26687.85	25802.95
936.5955	2058.6325	26631.7	25749.35
936.7323	2060.1917	26570.75	25691.65
936.869	2061.7502	26524.15	25641.65
937.0058	2063.3079	26401.35	25520.75
937.1425	2064.8649	26306.8	25422.35
937.2792	2066.4212	26278	25396.65
937.4159	2067.9767	26183.8	25303.2
937.5525	2069.5315	26069.75	25187.65
937.6891	2071.0856	25956	25074.55
937.8257	2072.6389	25873.9	24992.2
937.9623	2074.1915	25785.4	24906.2
938.0989	2075.7433	25667.45	24786.45
938.2354	2077.2945	25625.05	24744.65
938.3719	2078.8448	25526.75	24646.85
938.5084	2080.3945	25450.9	24569.75
938.6448	2081.9434	25409	24529.15
938.7812	2083.4916	25319	24437.05
938.9176	2085.039	25241.25	24359.3
939.054	2086.5857	25140.1	24257.45
939.1903	2088.1317	25130.85	24251.4
939.3267	2089.677	25059.85	24179.55
939.463	2091.2215	24966.95	24087.75
939.5992	2092.7652	24925.25	24044.1
939.7355	2094.3083	24856.8	23976.2
939.8717	2095.8506	24814.75	23935.5
940.0079	2097.3921	24762.55	23882.55
940.1441	2098.933	24699.25	23820.1
940.2802	2100.4731	24661.75	23780.75
940.4163	2102.0124	24600.95	23703.3
940.5524	2103.5511	24543.25	23661.65
940.6885	2105.089	24473.85	23594.15
940.8245	2106.6261	24418.65	23537.7
940.9606	2108.1626	24321.7	23440.55
941.0965	2109.6983	24300.15	23389.95
941.2325	2111.2332	24218.7	23336.9
941.3684	2112.7675	24146.2	23264.4
941.5044	2114.301	24106.35	23224.85
941.6403	2115.8337	24058.6	23178.5
941.7761	2117.3657	23977.75	23096.8
941.912	2118.897	23916.7	23035.55
942.0478	2120.4276	23845.7	22956.1
942.1835	2121.9575	23741.3	22861.35
942.3193	2123.4866	23759.65	22875.8
942.455	2125.0149	23654.9	22772.2
942.5907	2126.5426	23516.95	22636.45
942.7264	2128.0695	23441.9	22556.7
942.8621	2129.5956	23412	22532.15
942.9977	2131.1211	23356.4	22471.1
943.1333	2132.6458	23303.85	22424.75
943.2689	2134.1698	23275.35	22395.25
943.4044	2135.693	23184.9	22301.3
943.54	2137.2155	23123.4	22239.85
943.6755	2138.7373	23043.3	22162.6
943.8109	2140.2584	22972.85	22090.25
943.9464	2141.7787	22898.65	22011.2
944.0818	2143.2983	22794.1	21913.85
944.2172	2144.8171	22708.3	21827.15
944.3526	2146.3353	22666.2	21784.3
944.4879	2147.8527	22585.5	21705.6
944.6232	2149.3693	22523.05	21641.6
944.7585	2150.8853	22459.35	21575.6
944.8938	2152.4005	22330.3	21449.25
945.029	2153.9149	22338.45	21457.75
945.1642	2155.4287	22265.45	21386.25
945.2994	2156.9417	22180.9	21299.85
945.4346	2158.454	22120.4	21238.5
945.5697	2159.9655	22091.95	21211.4
945.7048	2161.4764	22068.95	21188.85
945.8399	2162.9865	21954.3	21074.8
945.9749	2164.4958	21868.6	20986.15
946.1099	2166.0045	21780.1	20895.35
946.2449	2167.5124	21716.8	20836.45
946.3799	2169.0195	21699.3	20820.6
946.5148	2170.526	21666.5	20784.7
946.6498	2172.0317	21585.6	20703.8
946.7846	2173.5367	21521.1	20640.6
946.9195	2175.0409	21463.6	20584.95
947.0543	2176.5445	21458.1	20577.8
947.1891	2178.0473	21356.45	20474.8
947.3239	2179.5494	21235	20350.75
947.4587	2181.0507	21197.35	20317.4
947.5934	2182.5513	21136.35	20254.9
947.7281	2184.0512	21060.05	20179.75
947.8628	2185.5504	20955.65	20075.05
947.9974	2187.0488	20866.95	19985.95
948.132	2188.5465	20815.75	19934.35
948.2666	2190.0435	20794.25	19914.3
948.4012	2191.5397	20715.55	19834.95
948.5357	2193.0353	20613.2	19734.65
948.6702	2194.5301	20522.75	19642.5
948.8047	2196.0241	20478.8	19597.05
948.9392	2197.5175	20399.1	19517.95
949.0736	2199.0101	20321.15	19437.35
949.208	2200.502	20248.05	19367.9
949.3424	2201.9931	20160.55	19280.2
949.4767	2203.4835	20069.75	19187.05
949.611	2204.9733	20037.9	19150.55
949.7453	2206.4622	19977.85	19098.75
949.8796	2207.9505	19914.65	19031.25
950.0138	2209.438	19823.15	18943.35
950.148	2210.9248	19769.35	18887.8
950.2822	2212.4109	19675.25	18795.45
950.4164	2213.8962	19608.35	18725.3
950.5505	2215.3809	19577.45	18698.4
950.6846	2216.8648	19534	18653
950.8186	2218.3479	19473.4	18587.35
950.9527	2219.8304	19388.3	18504.5
951.0867	2221.3121	19295.75	18413.8
951.2207	2222.7931	19217.1	18337.1
951.3546	2224.2733	19156.4	18274.55
951.4886	2225.7529	19087.3	18206.45
951.6225	2227.2317	19040.5	18158.1
951.7563	2228.7098	19006.55	18126.6
951.8902	2230.1872	18914.3	18032.8
952.024	2231.6638	18880.2	17999.95
952.1578	2233.1397	18807.4	17922.35
952.2916	2234.6149	18733.35	17851.5
952.4253	2236.0894	18697.65	17816.3
952.559	2237.5632	18643.65	17759.9
952.6927	2239.0362	18558.45	17679.05
952.8263	2240.5085	18506.2	17627.1
952.9599	2241.9801	18435.55	17554.85
953.0935	2243.4509	18385.9	17506.65
953.2271	2244.921	18294.05	17413.5
953.3606	2246.3904	18223.65	17342.15
953.4941	2247.8591	18169.95	17288.2
953.6276	2249.3271	18129	17247
953.7611	2250.7943	18051.25	17170.85
953.8945	2252.2608	18007.9	17126.55
954.0279	2253.7266	17946.4	17066.6
954.1612	2255.1917	17869.15	16989.25
954.2946	2256.656	17833.8	16951.95
954.4279	2258.1197	17769.6	16888.8
954.5612	2259.5826	17711.9	16830.4
954.6944	2261.0447	17676.5	16795.45
954.8276	2262.5062	17571.85	16689.75
954.9608	2263.9669	17574.4	16693.15
955.094	2265.4269	17557.45	16677.4
955.2271	2266.8862	17500.2	16620.05
955.3602	2268.3448	17439.5	16556.6
955.4933	2269.8026	17389.5	16508.5
955.6264	2271.2598	17328.7	16446.8
955.7594	2272.7162	17279.55	16400.2
955.8924	2274.1719	17234.35	16354.95
956.0253	2275.6268	17179.75	16298.6
956.1583	2277.0811	17130.75	16250.55
956.2912	2278.5346	17097.15	16217.85
956.4241	2279.9874	17039.7	16159.95
956.5569	2281.4395	17009.6	16131.15
956.6897	2282.8908	16902.55	16015.75
956.8225	2284.3414	16898.05	16014.5
956.9553	2285.7914	16828.45	15948.85
957.088	2287.2406	16777.05	15894.2
957.2207	2288.689	16725.25	15846.1
957.3534	2290.1368	16690.8	15808
957.486	2291.5838	16623.25	15739.9
957.6186	2293.0302	16591.15	15709.5
957.7512	2294.4758	16502.6	15621.75
957.8838	2295.9206	16416.25	15533.55
958.0163	2297.3648	16393.75	15513.25
958.1488	2298.8082	16355.2	15473.7
958.2813	2300.251	16333.1	15451.35
958.4137	2301.693	16246.05	15362
958.5461	2303.1343	16257.85	15374.95
958.6785	2304.5748	16191.7	15311.05
958.8108	2306.0147	16135.55	15253.45
958.9432	2307.4538	16087.75	15205.8
959.0754	2308.8922	16019.35	15142.55
959.2077	2310.3299	15985.35	15104
959.3399	2311.7669	15903.45	15025.25
959.4721	2313.2031	15840.5	14959.95
959.6043	2314.6387	15786.6	14904.65
959.7365	2316.0735	15726.85	14845.4
959.8686	2317.5076	15681.9	14799.95
960.0006	2318.941	15676.25	14795.15
960.1327	2320.3737	15608.5	14726.4
960.2647	2321.8056	15579.4	14696.85
960.3967	2323.2369	15510.65	14628.9
960.5287	2324.6674	15497.9	14614.95
960.6606	2326.0972	15416.75	14535.3
960.7925	2327.5263	15374.5	14492.65
960.9244	2328.9547	15304.55	14423.85
961.0562	2330.3823	15257.5	14374.5
961.1881	2331.8092	15267.4	14384.45
961.3198	2333.2355	15164.15	14284.1
961.4516	2334.661	15139.2	14257.8
961.5833	2336.0858	15131.15	14249.45
961.715	2337.5098	15057.25	14175.45
961.8467	2338.9332	15031.6	14151.45
961.9783	2340.3558	14963.2	14080
962.1099	2341.7778	14931.2	14050.7
962.2415	2343.199	14869.05	13987.6
962.373	2344.6195	14824.9	13944.55
962.5045	2346.0393	14771.3	13889.7
962.636	2347.4583	14763.95	13881.4
962.7675	2348.8767	14691.25	13809.85
962.8989	2350.2943	14652.75	13771.15
963.0303	2351.7113	14626.5	13743.9
963.1617	2353.1275	14570.15	13688.2
963.293	2354.543	14539.5	13649.2
963.4243	2355.9578	14505.2	13624.25
963.5556	2357.3718	14422.9	13541.7
963.6868	2358.7852	14356.4	13471.8
963.818	2360.1978	14300.7	13417.25
963.9492	2361.6098	14273.6	13391.7
964.0803	2363.021	14235.55	13350.5
964.2114	2364.4315	14167.8	13287.25
964.3425	2365.8413	14158.8	13269.55
964.4736	2367.2504	14101.7	13221.8
964.6046	2368.6587	14023.4	13141.1
964.7356	2370.0664	13982.9	13101.8
964.8666	2371.4733	13927.45	13045.95
964.9975	2372.8795	13877.65	12996.4
965.1284	2374.285	13846.3	12965.1
965.2593	2375.6899	13767.1	12884.9
965.3901	2377.0939	13728.25	12847.9
965.5209	2378.4973	13692.85	12811.7
965.6517	2379.9	13633.65	12751.35
965.7825	2381.3019	13601.05	12719.1
965.9132	2382.7032	13547.25	12667.7
966.0439	2384.1037	13537.9	12657.25
966.1745	2385.5035	13486	12604.6
966.3051	2386.9027	13445.1	12567
966.4357	2388.3011	13423.9	12540.35
966.5663	2389.6987	13360.95	12477.85
966.6968	2391.0957	13335	12456.4
966.8273	2392.492	13255.7	12373.05
966.9578	2393.8876	13162.95	12279.1
967.0882	2395.2824	13125.85	12243.45
967.2186	2396.6765	13087.6	12207
967.349	2398.07	13020.3	12141
967.4793	2399.4627	13028.35	12146.9
967.6097	2400.8547	12994.15	12114.35
967.7399	2402.246	12899.65	12013.9
967.8702	2403.6366	12866.65	11986.5
968.0004	2405.0265	12816.15	11935.2
968.1306	2406.4156	12744.55	11858.95
968.2607	2407.8041	12697.15	11814.1
968.3909	2409.1918	12655.05	11771.3
968.521	2410.5789	12618.15	11735.45
968.651	2411.9652	12545.9	11661.4
968.781	2413.3508	12515.45	11632.8
968.911	2414.7358	12478.7	11595.4
969.041	2416.12	12441.65	11562.1
969.1709	2417.5035	12412.85	11530.95
969.3008	2418.8863	12324.3	11441.45
969.4307	2420.2684	12293.95	11415.2
969.5606	2421.6497	12205.1	11323.45
969.6904	2423.0304	12163.3	11282
969.8201	2424.4104	12146.85	11263.4
969.9499	2425.7896	12092.45	11202.05
970.0796	2427.1682	12065.75	11184.3
970.2093	2428.546	12037.05	11154.9
970.3389	2429.9232	11975.45	11092.25
970.4685	2431.2996	11935.5	11054.35
970.5981	2432.6753	11948.05	11067.25
970.7277	2434.0503	11906.05	11024.2
970.8572	2435.4246	11819.75	10937.4
970.9867	2436.7982	11788.8	10906.3
971.1161	2438.1711	11762.95	10882.85
971.2456	2439.5433	11749.25	10865.45
971.375	2440.9148	11673.5	10787.55
971.5043	2442.2856	11606.5	10721.45
971.6336	2443.6557	11593.4	10710.25
971.7629	2445.025	11561.05	10680.2
971.8922	2446.3937	11521.45	10637.15
972.0214	2447.7617	11469.2	10587.35
972.1506	2449.1289	11461.45	10579.55
972.2798	2450.4955	11413	10527.5
972.4089	2451.8613	11391.55	10511.3
972.538	2453.2265	11345.95	10464.3
972.6671	2454.5909	11322.4	10441.2
972.7961	2455.9546	11283.2	10402.8
972.9251	2457.3177	11228.7	10347.95
973.0541	2458.68	11192.65	10309.1
973.1831	2460.0416	11192.5	10310.6
973.312	2461.4025	11191.85	10310.15
973.4408	2462.7627	11153.1	10259.75
973.5697	2464.1222	11100.35	10218.85
973.6985	2465.4811	11056.7	10172.65
973.8273	2466.8392	11003.55	10122.85
973.956	2468.1966	10987.6	10102.45
974.0847	2469.5533	10985.5	10101.4
974.2134	2470.9093	10939.8	10057.4
974.3421	2472.2645	10896.3	10013.75
974.4707	2473.6191	10850.5	9969.85
974.5993	2474.973	10798.4	9916.5
974.7278	2476.3262	10785.9	9904.25
974.8563	2477.6787	10760.15	9879.15
974.9848	2479.0305	10664.25	9781.45
975.1132	2480.3816	10634	9752.9
975.2417	2481.7319	10618.15	9737.35
975.37	2483.0816	10572.65	9688.05
975.4984	2484.4306	10560.15	9678.5
975.6267	2485.7789	10511.85	9630.3
975.755	2487.1264	10473.15	9590.95
975.8833	2488.4733	10415.95	9533.35
976.0115	2489.8195	10365.1	9477.8
976.1397	2491.165	10309.75	9426
976.2678	2492.5097	10291.8	9408.7
976.3959	2493.8538	10292.45	9410.95
976.524	2495.1972	10209.9	9328.6
976.6521	2496.5398	10179.25	9296.9
976.7801	2497.8818	10156.3	9273.55
976.9081	2499.2231	10124.95	9243.6
977.036	2500.5637	10063.4	9181.15
977.164	2501.9035	10038.55	9156
977.2918	2503.2427	10008.4	9124.15
977.4197	2504.5812	9996.95	9114.5
977.5475	2505.919	9962.05	9078.2
977.6753	2507.256	9929.4	9048.8
977.8031	2508.5924	9878.3	8996.45
977.9308	2509.9281	9851.75	8964.3
978.0585	2511.2631	9816.6	8934.7
978.1861	2512.5974	9793.5	8912.8
978.3137	2513.9309	9742.8	8861.2
978.4413	2515.2638	9735.8	8826.8
978.5689	2516.596	9706.3	8826.55
978.6964	2517.9275	9641	8758.1
978.8239	2519.2583	9608.5	8727.05
978.9513	2520.5884	9570.8	8688.3
979.0788	2521.9178	9527	8645.2
979.2062	2523.2465	9491.25	8609.3
979.3335	2524.5745	9462.55	8581.7
979.4608	2525.9018	9451.95	8570.6
979.5881	2527.2284	9424.9	8545.05
979.7154	2528.5543	9419.8	8539.5
979.8426	2529.8796	9366.3	8483.55
979.9698	2531.2041	9337.7	8456.05
980.0969	2532.5279	9306.1	8425.95
980.224	2533.851	9300.65	8416.9
980.3511	2535.1735	9252.35	8372.4
980.4781	2536.4952	9210.7	8328.85
980.6052	2537.8163	9208.7	8325.95
980.7321	2539.1366	9167.2	8286.6
980.8591	2540.4562	9126.7	8244.65
980.986	2541.7752	9140.7	8259.1
981.1129	2543.0935	9121.95	8240.1
981.2397	2544.411	9093.25	8211.15
981.3665	2545.7279	9067.2	8185.8
981.4933	2547.0441	9060.7	8181.1
981.62	2548.3596	9053.6	8168.9
981.7467	2549.6744	9016.55	8135.2
981.8734	2550.9885	8979.7	8090.1
982.0001	2552.3019	8943.7	8062.7
982.1267	2553.6146	8944.6	8062.65
982.2532	2554.9266	8908.65	8025.95
982.3798	2556.2379	8871.3	7988.35
982.5063	2557.5485	8870.95	7991.65
982.6327	2558.8585	8829.3	7940.9
982.7592	2560.1677	8810.8	7928
982.8856	2561.4762	8794.7	7913.3
983.0119	2562.7841	8760.1	7875.65
983.1383	2564.0913	8765.85	7887.9
983.2646	2565.3977	8732	7850.55
983.3908	2566.7035	8709.85	7827.5
983.517	2568.0086	8693.7	7810.45
983.6432	2569.313	8682.15	7799.05
983.7694	2570.6167	8665.35	7779.65
983.8955	2571.9197	8629.1	7748.8
984.0216	2573.222	8625.7	7741.95
984.1476	2574.5236	8575.75	7694.55
984.2737	2575.8246	8578.3	7695.4
984.3996	2577.1248	8554.85	7670.5
984.5256	2578.4244	8534.15	7653.8
984.6515	2579.7232	8538.45	7657.55
984.7774	2581.0214	8544.1	7637.9
984.9032	2582.3189	8495.65	7613.8
985.029	2583.6157	8453.45	7567.75
985.1548	2584.9118	8455.55	7572.9
985.2806	2586.2072	8398	7516.1
985.4063	2587.5019	8375.2	7495.9
985.5319	2588.7959	8353.95	7471.5
985.6576	2590.0893	8362.25	7480.2
985.7832	2591.3819	8331.05	7451.05
985.9087	2592.6739	8286.75	7406.9
986.0343	2593.9652	8267.2	7383.85
986.1597	2595.2557	8249.3	7368.8
986.2852	2596.5456	8209.45	7325
986.4106	2597.8348	8162.2	7282.85
986.536	2599.1234	8133.45	7251.8
986.6614	2600.4112	8099.55	7218.75
986.7867	2601.6983	8066.55	7180.45
986.912	2602.9848	8035.75	7156.85
987.0372	2604.2705	7996.55	7108
987.1624	2605.5556	7987.25	7106.65
987.2876	2606.84	7959.65	7080.65
987.4128	2608.1237	7928.35	7044.7
987.5379	2609.4067	7895.75	7014.2
987.6629	2610.689	7869.05	6978.55
987.788	2611.9707	7837.85	6955.3
987.913	2613.2516	7821.15	6935.45
988.0379	2614.5319	7786.5	6906.65
988.1629	2615.8115	7749.55	6867.5
988.2878	2617.0903	7715.95	6834.3
988.4126	2618.3685	7709.9	6828.1
988.5375	2619.6461	7656.1	6775.55
988.6622	2620.9229	7640.95	6758.65
988.787	2622.199	7631.6	6749.45
988.9117	2623.4745	7615.25	6734.7
989.0364	2624.7493	7551.8	6671.25
989.161	2626.0234	7563.05	6683.55
989.2857	2627.2968	7516.4	6635.85
989.4102	2628.5695	7493.5	6609.75
989.5348	2629.8415	7457.7	6577.95
989.6593	2631.1128	7422.95	6539
989.7837	2632.3835	7405.85	6526.05
989.9082	2633.6535	7351.65	6471.65
990.0326	2634.9228	7346.25	6464.8
990.1569	2636.1914	7298.5	6416.85
990.2812	2637.4593	7293.3	6406.6
990.4055	2638.7265	7262.9	6379.95
990.5298	2639.9931	7261.65	6379.8
990.654	2641.259	7224.05	6339.9
990.7782	2642.5242	7204.95	6324.3
990.9023	2643.7887	7177.55	6296.2
991.0264	2645.0525	7171.35	6291
991.1505	2646.3156	7125.5	6241.8
991.2745	2647.5781	7093.85	6215.15
991.3985	2648.8398	7079.05	6198.05
991.5225	2650.1009	7086.55	6167.45
991.6464	2651.3613	7045.4	6163.45
991.7703	2652.6211	6993.3	6112.45
991.8942	2653.8801	6992.45	6111.25
992.018	2655.1385	6962.65	6078.35
992.1418	2656.3961	6958.85	6075.75
992.2655	2657.6531	6952	6070.65
992.3892	2658.9094	6923.35	6042.05
992.5129	2660.1651	6890.1	6009.2
992.6366	2661.42	6878.9	6001.95
992.7602	2662.6743	6877	5994.45
992.8837	2663.9279	6849.5	5967.65
993.0073	2665.1808	6824.45	5942.65
993.1307	2666.433	6804.9	5920.75
993.2542	2667.6846	6768.3	5889.05
993.3776	2668.9354	6769.4	5884.6
993.501	2670.1856	6751.55	5869.45
993.6244	2671.4351	6713.3	5832.55
993.7477	2672.6839	6727.5	5845.6
993.8709	2673.9321	6691.9	5811.95
993.9942	2675.1795	6664.5	5783.4
994.1174	2676.4263	6624.75	5742.2
994.2405	2677.6724	6605.2	5724.55
994.3637	2678.9179	6606.35	5722.95
994.4868	2680.1626	6587.55	5707.5
994.6098	2681.4067	6564.85	5683.1
994.7328	2682.6501	6548.15	5666.25
994.8558	2683.8928	6532.85	5652.95
994.9788	2685.1348	6502.7	5623.1
995.1017	2686.3761	6457.8	5579.5
995.2245	2687.6168	6439.95	5558.45
995.3474	2688.8568	6424	5543.45
995.4702	2690.0961	6391.4	5512.2
995.5929	2691.3348	6371.2	5488.85
995.7156	2692.5727	6345.3	5465.3
995.8383	2693.81	6357	5475.5
995.961	2695.0466	6324.8	5444.5
996.0836	2696.2826	6313.85	5431.5
996.2062	2697.5178	6291.25	5406.5
996.3287	2698.7524	6272.65	5392.95
996.4512	2699.9863	6253.4	5370.2
996.5737	2701.2195	6234.4	5355.2
996.6961	2702.452	6215.95	5332.7
996.8185	2703.6839	6195.9	5314.9
996.9408	2704.9151	6191.15	5310.2
997.0631	2706.1456	6136.55	5256.4
997.1854	2707.3755	6113.7	5233.7
997.3077	2708.6046	6118.4	5235.35
997.4299	2709.8331	6077.7	5195.9
997.552	2711.0609	6076.8	5194.95
997.6742	2712.2881	6065	5183.6
997.7963	2713.5145	6030	5147.35
997.9183	2714.7403	6016.55	5135.3
998.0403	2715.9654	5984.25	5102.45
998.1623	2717.1899	5965.5	5071.1
998.2842	2718.4136	5955.85	5077.1
998.4062	2719.6367	5923.15	5042.55
998.528	2720.8591	5918.2	5028.25
998.6498	2722.0809	5878.45	4996.55
998.7716	2723.3019	5848.5	4964.75
998.8934	2724.5223	5856.35	4973.8
999.0151	2725.7421	5820.7	4936.75
999.1368	2726.9611	5807.35	4923.7
999.2584	2728.1795	5789.45	4903.6
999.38	2729.3972	5750.3	4868.75
999.5016	2730.6142	5736.4	4847.15
999.6231	2731.8306	5707.1	4824.05
999.7446	2733.0462	5674.95	4792.1
999.8661	2734.2612	5650	4764
999.9875	2735.4756	5630.9	4748.55
1000.1089	2736.6892	5597.05	4716.75
1000.2302	2737.9022	5585.1	4707
1000.3515	2739.1145	5571.2	4688.95
1000.4728	2740.3262	5543.75	4654.5
1000.594	2741.5372	5531.65	4649.35
1000.7152	2742.7475	5501.9	4620.4
1000.8363	2743.9571	5494.6	4610.1
1000.9575	2745.1661	5491.2	4603.3
1001.0785	2746.3744	5465.6	4583.95
1001.1996	2747.582	5436.15	4554.8
1001.3206	2748.7889	5434.15	4550.4
1001.4415	2749.9952	5416.3	4536.55
1001.5625	2751.2008	5372.55	4492
1001.6833	2752.4057	5368.2	4483.65
1001.8042	2753.61	5338.25	4458.25
1001.925	2754.8136	5332.9	4449.8
1002.0458	2756.0165	5319.5	4440.65
1002.1665	2757.2188	5290.3	4407.8
1002.2872	2758.4204	5274.15	4394
1002.4078	2759.6213	5236.9	4354.15
1002.5285	2760.8215	5249.25	4363.7
1002.649	2762.0211	5224.3	4344.25
1002.7696	2763.22	5218.8	4330.85
1002.8901	2764.4182	5194.9	4313.4
1003.0106	2765.6158	5173.9	4291.35
1003.131	2766.8127	5149.65	4267.85
1003.2514	2768.009	5132.5	4250.8
1003.3717	2769.2045	5126	4243.15
1003.492	2770.3994	5111.15	4228.3
1003.6123	2771.5936	5093.2	4212.1
1003.7325	2772.7872	5065.45	4184.95
1003.8527	2773.9801	5040	4156.6
1003.9729	2775.1723	5036.1	4138
1004.093	2776.3639	5018.75	4138.3
1004.2131	2777.5548	4996.65	4115.75
1004.3331	2778.745	4982.65	4100.7
1004.4531	2779.9346	4970.2	4088.35
1004.5731	2781.1235	4962.05	4080.55
1004.693	2782.3117	4933.7	4053.15
1004.8129	2783.4992	4913.95	4031.95
1004.9328	2784.6861	4890.3	4008.5
1005.0526	2785.8723	4910.9	4029.85
1005.1723	2787.0579	4888.1	4005.2
1005.2921	2788.2428	4862.95	3980.1
1005.4118	2789.427	4824.75	3944.9
1005.5314	2790.6106	4826.85	3945.3
1005.651	2791.7935	4787	3904
1005.7706	2792.9757	4783.05	3902
1005.8902	2794.1573	4748.8	3867.05
1006.0097	2795.3382	4760.5	3880.5
1006.1291	2796.5184	4731.55	3852.55
1006.2485	2797.698	4718.9	3833.8
1006.3679	2798.8769	4702.25	3824
1006.4873	2800.0551	4683.25	3801.35
1006.6066	2801.2327	4660.4	3776.5
1006.7258	2802.4096	4633.7	3752.3
1006.8451	2803.5859	4637.75	3753.8
1006.9642	2804.7615	4609.55	3727.9
1007.0834	2805.9364	4591.2	3709.1
1007.2025	2807.1106	4603.6	3722.6
1007.3216	2808.2842	4587.5	3705.2
1007.4406	2809.4572	4550.45	3669.2
1007.5596	2810.6294	4552.8	3669
1007.6785	2811.801	4547.6	3669.55
1007.7975	2812.972	4544.9	3661.75
1007.9163	2814.1423	4536.15	3656.2
1008.0352	2815.3119	4534.4	3653.4
1008.154	2816.4808	4532.4	3653.3
1008.2727	2817.6491	4510.9	3628.15
1008.3914	2818.8167	4540	3658.85
1008.5101	2819.9837	4524.55	3637.9
1008.6288	2821.15	4504.7	3624.3
1008.7474	2822.3157	4540.75	3660.6
1008.8659	2823.4807	4552.4	3669.85
1008.9844	2824.645	4580.75	3696.15
1009.1029	2825.8086	4575.9	3694.55
1009.2214	2826.9716	4603.1	3724.3
1009.3398	2828.134	4621.6	3738.25
1009.4581	2829.2957	4646.85	3765.65
1009.5764	2830.4567	4656.1	3775.1
1009.6947	2831.617	4658.35	3778.7
1009.813	2832.7767	4655.35	3774.45
1009.9312	2833.9358	4635.85	3757.05
1010.0493	2835.0941	4636.75	3753.5
1010.1675	2836.2519	4636.25	3753.75
1010.2855	2837.4089	4598.95	3715.85
1010.4036	2838.5653	4581.05	3699.45
1010.5216	2839.7211	4553.2	3673.1
1010.6396	2840.8761	4539.2	3656.15
1010.7575	2842.0306	4509.35	3629.45
1010.8754	2843.1843	4507.65	3626.5
1010.9932	2844.3374	4515.9	3635.45
1011.111	2845.4899	4497.5	3616.15
1011.2288	2846.6417	4491.35	3610.2
1011.3465	2847.7928	4476.1	3594.2
1011.4642	2848.9433	4475.85	3593.7
1011.5818	2850.0931	4470	3588.45
1011.6995	2851.2422	4477.9	3595.1
1011.817	2852.3907	4452	3571.55
1011.9345	2853.5385	4467.05	3585
1012.052	2854.6857	4459.15	3567.35
1012.1695	2855.8323	4448.75	3569.25
1012.2869	2856.9781	4446.9	3564.95
1012.4042	2858.1233	4445.4	3566.45
1012.5216	2859.2679	4433.35	3552.35
1012.6389	2860.4118	4436	3556.1
1012.7561	2861.555	4447.8	3562.25
1012.8733	2862.6976	4452.75	3571.2
1012.9905	2863.8395	4440.65	3559.3
1013.1076	2864.9808	4433.55	3552.05
1013.2247	2866.1214	4432.45	3552
1013.3417	2867.2614	4435.8	3554.65
1013.4587	2868.4007	4409.75	3528
1013.5757	2869.5393	4423.5	3540.1
1013.6926	2870.6773	4414.35	3532.45
1013.8095	2871.8146	4419.5	3535.8
1013.9263	2872.9513	4411.8	3529.35
1014.0431	2874.0874	4373.8	3492.65
1014.1599	2875.2227	4369.25	3488.05
1014.2766	2876.3574	4367.5	3484.95
1014.3933	2877.4915	4359.75	3479.6
1014.51	2878.6249	4356	3475.65
1014.6266	2879.7577	4355.15	3471.95
1014.7431	2880.8898	4355.55	3464.7
1014.8596	2882.0212	4349.55	3470.4
1014.9761	2883.152	4332.55	3450.1
1015.0925	2884.2821	4335.05	3456.55
1015.2089	2885.4116	4332.95	3452.9
1015.3253	2886.5405	4303.55	3422.3
1015.4416	2887.6686	4315.4	3430.6
1015.5579	2888.7962	4302.35	3421.45
1015.6741	2889.923	4294.85	3414.35
1015.7903	2891.0493	4270.4	3388.65
1015.9065	2892.1748	4247.55	3366.05
1016.0226	2893.2997	4229.8	3347.5
1016.1387	2894.424	4216.25	3336.95
1016.2547	2895.5476	4203.25	3322.75
1016.3707	2896.6706	4206.7	3325.1
1016.4866	2897.7929	4186.05	3304.4
1016.6025	2898.9145	4175.7	3294.4
1016.7184	2900.0355	4157.05	3274.8
1016.8342	2901.1559	4146.8	3264.85
1016.95	2902.2756	4130.7	3250.75
1017.0658	2903.3946	4116.5	3234.35
1017.1815	2904.513	4122.55	3238.45
1017.2971	2905.6308	4082.8	3203.15
1017.4127	2906.7479	4095	3211.2
1017.5283	2907.8643	4055.15	3172.65
1017.6439	2908.9801	4067.75	3186.65
1017.7594	2910.0953	4038.05	3156.9
1017.8748	2911.2098	4038.15	3153.5
1017.9902	2912.3236	4030.4	3141.45
1018.1056	2913.4368	4008.85	3123.45
1018.2209	2914.5494	3986.15	3104.15
1018.3362	2915.6613	3971.5	3085.55
1018.4515	2916.7725	3957	3073.8
1018.5667	2917.8831	3938.2	3056.55
1018.6819	2918.9931	3911.4	3029.3
1018.797	2920.1024	3885.15	3001.35
1018.9121	2921.211	3884.4	3003.25
1019.0271	2922.319	3862.1	2980.05
1019.1421	2923.4264	3839.9	2959.55
1019.2571	2924.5331	3844.35	2965.65
1019.372	2925.6391	3826.8	2944.2
1019.4869	2926.7445	3808.95	2928.65
1019.6017	2927.8493	3795.5	2915.55
1019.7165	2928.9534	3785.4	2903.6
1019.8313	2930.0569	3803.05	2920.45
1019.946	2931.1597	3781	2900.3
1020.0606	2932.2619	3770.25	2889.35
1020.1753	2933.3634	3767.85	2888.95
1020.2899	2934.4643	3781.35	2891.25
1020.4044	2935.5645	3774.85	2888
1020.5189	2936.6641	3775.75	2889.4
1020.6334	2937.763	3746.8	2865.55
1020.7478	2938.8613	3734.35	2852.35
1020.8622	2939.959	3754.6	2868.8
1020.9765	2941.056	3696.55	2817.6
1021.0908	2942.1523	3685.65	2802.85
1021.2051	2943.248	3644.35	2763
1021.3193	2944.3431	3608.55	2728.2
1021.4334	2945.4375	3554.55	2672.35
1021.5476	2946.5313	3521.65	2642.75
1021.6617	2947.6244	3476.45	2596.45
1021.7757	2948.7169	3452.8	2568.8
1021.8897	2949.8087	3409.15	2529.3
1022.0037	2950.8999	3371.4	2489.45
1022.1176	2951.9904	3328.95	2448.05
1022.2315	2953.0803	3315.35	2433.3
1022.3453	2954.1696	3299.7	2419.75
1022.4591	2955.2582	3266.95	2386.55
1022.5728	2956.3462	3248.15	2366.85
1022.6865	2957.4335	3221.85	2338.75
1022.8002	2958.5202	3214.6	2330.7
1022.9138	2959.6062	3212.9	2332.5
1023.0274	2960.6916	3193.75	2313.7
1023.141	2961.7764	3177.5	2295.15
1023.2545	2962.8605	3176.5	2294.05
1023.3679	2963.9439	3170.7	2289.65
1023.4813	2965.0267	3150.3	2269.05
1023.5947	2966.1089	3154.95	2251.4
1023.708	2967.1905	3116.1	2234.45
1023.8213	2968.2714	3128.3	2246.05
1023.9346	2969.3516	3103.5	2220.85
1024.0478	2970.4312	3099.6	2209.95
1024.1609	2971.5102	3080.4	2200.25
1024.274	2972.5885	3064	2183.8
1024.3871	2973.6662	3077.4	2193.05
1024.5002	2974.7432	3053.25	2173.9
1024.6132	2975.8196	3056.75	2177.3
1024.7261	2976.8954	3049.5	2168.45
1024.839	2977.9705	3024.25	2144.35
1024.9519	2979.045	3020.35	2140.15
1025.0647	2980.1188	3005.55	2125.35
1025.1775	2981.192	2989.45	2108.65
1025.2902	2982.2645	2995.4	2113.15
1025.4029	2983.3364	2975.35	2094.7
1025.5156	2984.4077	2961.25	2080.55
1025.6282	2985.4783	2942.85	2054.5
1025.7407	2986.5483	2928.6	2049.75
1025.8532	2987.6177	2896.15	2014.4
1025.9657	2988.6864	2899.6	2016.75
1026.0782	2989.7545	2880.5	1997.55
1026.1906	2990.8219	2860	1979.1
1026.3029	2991.8887	2842.2	1959
1026.4152	2992.9548	2831.2	1949
1026.5275	2994.0204	2816.1	1934.7
1026.6397	2995.0852	2792.8	1912.35
1026.7519	2996.1495	2780.65	1898.2
1026.864	2997.2131	2768.2	1888
1026.9761	2998.276	2732.35	1850.85
1027.0882	2999.3383	2735.1	1853.65
1027.2002	3000.4	2713.95	1832.3
1027.3122	3001.4611	2698.9	1817.8
1027.4241	3002.5215	2693.45	1811.55
1027.536	3003.5812	2681.15	1799.35
1027.6478	3004.6404	2668.1	1786.05
1027.7596	3005.6989	2643.95	1761.7
1027.8714	3006.7567	2639.4	1758.75
1027.9831	3007.8139	2648.85	1746
1028.0947	3008.8705	2608.65	1728.35
1028.2064	3009.9264	2614.65	1728.95
1028.3179	3010.9818	2599.25	1719.1
1028.4295	3012.0364	2590.4	1707.05
1028.541	3013.0905	2580.95	1700.7
1028.6524	3014.1439	2577.35	1696.05
1028.7638	3015.1966	2571.8	1690.05
1028.8752	3016.2487	2566.3	1683.6
1028.9865	3017.3002	2567.95	1685.9
1029.0978	3018.3511	2550.25	1672.05
1029.209	3019.4013	2540.65	1658.95
1029.3202	3020.4509	2540.1	1659.5
1029.4314	3021.4998	2524.45	1641.75
1029.5425	3022.5481	2516.55	1635.5
1029.6535	3023.5958	2502.8	1622
1029.7645	3024.6428	2504.95	1621.55
1029.8755	3025.6892	2493.7	1614.3
1029.9864	3026.735	2486.6	1604.7
1030.0973	3027.7802	2477.15	1595.75
1030.2082	3028.8247	2475.3	1594.95
1030.319	3029.8685	2461.8	1580.9
1030.4297	3030.9118	2450.75	1569.05
1030.5404	3031.9544	2445.95	1564.5
1030.6511	3032.9963	2435.15	1553.2
1030.7617	3034.0376	2430.65	1551.2
1030.8723	3035.0783	2425.75	1545.5
1030.9829	3036.1184	2428.2	1545.65
1031.0934	3037.1578	2412.9	1531.2
1031.2038	3038.1966	2410.9	1529
1031.3142	3039.2348	2397.5	1516.85
1031.4246	3040.2723	2391.85	1503.15
1031.5349	3041.3092	2388.7	1511.95
1031.6452	3042.3455	2387.45	1506.7
1031.7554	3043.3811	2378.45	1495.6
1031.8656	3044.4161	2365.9	1485.25
1031.9758	3045.4505	2362.55	1483.3
1032.0859	3046.4842	2359.8	1476.8
1032.1959	3047.5173	2344.3	1464.45
1032.3059	3048.5498	2355.05	1473.7
1032.4159	3049.5816	2350.9	1468.3
1032.5258	3050.6128	2333.55	1451
1032.6357	3051.6434	2338.6	1456
1032.7455	3052.6734	2324.3	1442.3
1032.8553	3053.7027	2327.45	1446.3
1032.9651	3054.7314	2323.65	1442.5
1033.0748	3055.7594	2308.9	1429.9
1033.1845	3056.7868	2303.85	1422.75
1033.2941	3057.8136	2285.65	1406.65
1033.4037	3058.8398	2291.55	1412.8
1033.5132	3059.8653	2298.95	1415.75
1033.6227	3060.8902	2286.05	1406.15
1033.7321	3061.9145	2284.55	1404.7
1033.8415	3062.9381	2283.5	1401.75
1033.9509	3063.9612	2296.5	1399.9
1034.0602	3064.9835	2274.25	1393.9
1034.1694	3066.0053	2258.85	1375.45
1034.2787	3067.0264	2263.85	1384.85
1034.3878	3068.0469	2257.55	1376.1
1034.497	3069.0668	2252.6	1366.6
1034.6061	3070.086	2243.1	1362.6
1034.7151	3071.1046	2237.05	1356.2
1034.8241	3072.1226	2240.55	1357.35
1034.9331	3073.1399	2221.6	1340.15
1035.042	3074.1567	2220.15	1339.6
1035.1508	3075.1727	2205.6	1320
1035.2597	3076.1882	2209.65	1328.65
1035.3684	3077.203	2207.5	1325.25
1035.4772	3078.2173	2183.35	1299.35
1035.5859	3079.2308	2178.55	1294.45
1035.6945	3080.2438	2174.05	1292.1
1035.8031	3081.2561	2165.75	1282.95
1035.9117	3082.2678	2164.3	1283
1036.0202	3083.2789	2159.05	1278.3
1036.1286	3084.2893	2157.35	1274.55
1036.2371	3085.2991	2145.45	1264.15
1036.3454	3086.3083	2127.8	1240.9
1036.4538	3087.3169	2125.35	1243
1036.562	3088.3248	2126.35	1244.1
1036.6703	3089.3321	2120.1	1240.05
1036.7785	3090.3388	2106.3	1226.75
1036.8866	3091.3449	2096.05	1213.7
1036.9948	3092.3503	2095.75	1212.9
1037.1028	3093.3551	2090.4	1211.65
1037.2108	3094.3593	2079.7	1199.05
1037.3188	3095.3629	2068.05	1187.8
1037.4267	3096.3658	2062.35	1180.9
1037.5346	3097.3681	2060.4	1180
1037.6425	3098.3698	2057.25	1173.75
1037.7503	3099.3708	2057.85	1169.7
1037.858	3100.3713	2042.25	1163.35
1037.9657	3101.3711	2038.3	1156.35
1038.0734	3102.3702	2158.2	1138.45
1038.181	3103.3688	2027.25	1144.05
1038.2886	3104.3667	2017.15	1138.3
1038.3961	3105.364	2005.75	1122.55
1038.5036	3106.3607	2003.8	1123.3
1038.611	3107.3568	1996.35	1113.85
1038.7184	3108.3522	1979.8	1098.05
1038.8257	3109.347	1986.95	1103.95
1038.933	3110.3412	1978.5	1093.25
1039.0403	3111.3348	1972.9	1094.8
1039.1475	3112.3277	1960.7	1079.2
1039.2547	3113.32	1957.8	1077.4
1039.3618	3114.3117	1943.6	1060.6
1039.4689	3115.3028	1944.2	1063.1
1039.5759	3116.2932	1935.1	1053.35
1039.6829	3117.2831	1943.25	1057.85
1039.7898	3118.2723	1924.05	1041.5
1039.8967	3119.2608	1919.35	1040.45
1040.0035	3120.2488	1912.5	1031.1
1040.1103	3121.2361	1898.45	1019.95
1040.2171	3122.2229	1900.65	1018.45
1040.3238	3123.209	1903.2	1020.5
1040.4305	3124.1944	1895.3	1014.8
1040.5371	3125.1793	1883.75	1000.95
1040.6437	3126.1635	1883.05	1001.2
1040.7502	3127.1471	1873.5	992.85
1040.8567	3128.1301	1862.15	982.05
1040.9631	3129.1125	1870.6	989.65
1041.0695	3130.0942	1858.65	977.75
1041.1759	3131.0753	1864.85	976.05
1041.2822	3132.0558	1857.95	975.65
1041.3884	3133.0357	1849.45	967.25
1041.4946	3134.015	1841.45	960.45
1041.6008	3134.9936	1838.35	954.4
1041.7069	3135.9716	1858	957.4
1041.813	3136.949	1830.1	948.45
1041.919	3137.9258	1832.8	945.35
1042.025	3138.902	1816.1	929.55
1042.1309	3139.8775	1818.95	938.55
1042.2368	3140.8524	1812.2	931.4
1042.3427	3141.8267	1813.4	928.25
1042.4485	3142.8004	1806.4	926.2
1042.5542	3143.7735	1810.2	923.55
1042.6599	3144.7459	1801.25	918.4
1042.7656	3145.7178	1802.9	922.4
1042.8712	3146.689	1794.35	915.4
1042.9768	3147.6596	1786.4	902.35
1043.0823	3148.6295	1784.55	902.4
1043.1878	3149.5989	1765.95	884.55
1043.2932	3150.5676	1767.75	888.4
1043.3986	3151.5357	1774.65	893.85
1043.5039	3152.5032	1764.25	884.35
1043.6092	3153.4701	1757.45	878.4
1043.7145	3154.4364	1744.2	861.4
1043.8197	3155.402	1750.75	870.4
1043.9248	3156.367	1741.2	859.1
1044.03	3157.3315	1768.65	851.8
1044.135	3158.2952	1734.55	855.65
1044.24	3159.2584	1724.8	841.7
1044.345	3160.221	1719.75	838.15
1044.4499	3161.1829	1719.45	838.5
1044.5548	3162.1442	1708.75	827.85
1044.6596	3163.105	1707.15	828
1044.7644	3164.065	1707.3	825.4
1044.8692	3165.0245	1701	818.3
1044.9739	3165.9834	1690.5	811.85
1045.0785	3166.9416	1694.15	814.8
1045.1831	3167.8993	1684.95	802.5
1045.2877	3168.8563	1679.2	798.9
1045.3922	3169.8127	1669.2	788.55
1045.4966	3170.7684	1667.45	789.35
1045.6011	3171.7236	1669.35	787.25
1045.7054	3172.6782	1660.15	780.05
1045.8098	3173.6321	1666.6	784.3
1045.914	3174.5854	1661.3	774.25
1046.0183	3175.5381	1648.2	769.6
1046.1224	3176.4902	1645	763.5
1046.2266	3177.4417	1639.1	758.1
1046.3307	3178.3926	1630.25	749.45
1046.4347	3179.3428	1633.55	753.95
1046.5387	3180.2924	1624.7	744.35
1046.6427	3181.2415	1617.15	736.45
1046.7466	3182.1899	1614.55	730.75
1046.8504	3183.1377	1608.45	727.1
1046.9542	3184.0848	1609.85	727.05
1047.058	3185.0314	1611.25	729.25
1047.1617	3185.9773	1600.05	717.7
1047.2654	3186.9227	1590	709
1047.369	3187.8674	1597.85	718.4
1047.4726	3188.8115	1591.3	704.9
1047.5761	3189.755	1593.05	714
1047.6796	3190.6979	1580.45	699.2
1047.783	3191.6402	1579.15	699.85
1047.8864	3192.5818	1581.35	699.95
1047.9898	3193.5229	1577.95	690.25
1048.0931	3194.4633	1569.15	689.85
1048.1963	3195.4031	1564.9	683.95
1048.2995	3196.3423	1559.8	678.05
1048.4027	3197.2809	1561.75	681.55
1048.5058	3198.2189	1554.6	671.65
1048.6089	3199.1563	1560.75	673.15
1048.7119	3200.0931	1542.7	661.65
1048.8148	3201.0292	1538.9	659.25
1048.9178	3201.9648	1541.45	659.2
1049.0206	3202.8997	1542.55	659.3
1049.1235	3203.834	1537.85	657.35
1049.2262	3204.7677	1542.35	661.6
1049.329	3205.7008	1526.9	646.05
1049.4317	3206.6333	1526.5	645.15
1049.5343	3207.5652	1530	645.7
1049.6369	3208.4964	1519.6	639.1
1049.7394	3209.4271	1509.7	629.25
1049.8419	3210.3571	1508.9	627.05
1049.9444	3211.2865	1509.35	627
1050.0468	3212.2154	1504	623.4
1050.1491	3213.1436	1502.35	617.95
1050.2514	3214.0712	1507.35	620.3
1050.3537	3214.9982	1492.6	609.8
1050.4559	3215.9246	1494.65	614.15
1050.5581	3216.8503	1491.5	612.5
1050.6602	3217.7755	1491.25	610.8
1050.7623	3218.7001	1481.6	601.75
1050.8643	3219.624	1473.75	592.3
1050.9663	3220.5473	1478.5	598.7
1051.0682	3221.4701	1479.3	596.85
1051.1701	3222.3922	1477.5	595.2
1051.2719	3223.3137	1472.25	591.35
1051.3737	3224.2346	1463.9	582.85
1051.4754	3225.1549	1467.05	587.65
1051.5771	3226.0746	1460.9	580.25
1051.6788	3226.9937	1457.3	577.3
1051.7804	3227.9121	1450.15	571.4
1051.8819	3228.83	1452.55	570.9
1051.9834	3229.7473	1446.35	566
1052.0849	3230.6639	1444.65	562.35
1052.1863	3231.5799	1442.9	562.3
1052.2876	3232.4954	1433.3	551.5
1052.3889	3233.4102	1434.6	554.55
1052.4902	3234.3244	1433.1	550.2
1052.5914	3235.238	1429.2	548.55
1052.6926	3236.151	1444.45	539.45
1052.7937	3237.0634	1418.7	538.95
1052.8948	3237.9752	1417.2	535.65
1052.9958	3238.8864	1414.9	533.85
1053.0968	3239.797	1413	533.4
1053.1977	3240.7069	1405.75	523.1
1053.2986	3241.6163	1403.05	520.55
1053.3994	3242.5251	1401.95	523.4
1053.5002	3243.4332	1392.6	512.75
1053.6009	3244.3408	1394.4	513.9
1053.7016	3245.2477	1387.65	506.65
1053.8022	3246.154	1385.3	505.25
1053.9028	3247.0598	1389.1	506.75
1054.0034	3247.9649	1379.95	500
1054.1039	3248.8694	1380.65	499.45
1054.2043	3249.7733	1372.5	491.45
1054.3047	3250.6766	1374.2	491.8
1054.4051	3251.5793	1376.45	493.75
1054.5054	3252.4814	1363.6	481.9
1054.6056	3253.3829	1360.2	479.55
1054.7058	3254.2838	1362.6	480.7
1054.806	3255.1841	1354.4	474.05
1054.9061	3256.0838	1348.1	467.1
1055.0061	3256.9829	1348	468.5
1055.1062	3257.8814	1347.5	463.65
1055.2061	3258.7792	1339.5	457.15
1055.306	3259.6765	1333.5	453.25
1055.4059	3260.5731	1332.2	451.4
1055.5057	3261.4692	1328.85	445.9
1055.6055	3262.3647	1321.4	439.6
1055.7052	3263.2595	1311.45	430.45
1055.8049	3264.1538	1307.55	428.1
1055.9045	3265.0474	1300.7	417.85
1056.0041	3265.9404	1290.35	410.6
1056.1036	3266.8329	1288.75	407.85
1056.2031	3267.7247	1288.6	398.8
1056.3025	3268.616	1270.85	391.25
1056.4019	3269.5066	1261.8	379.35
1056.5013	3270.3966	1254.7	372.3
1056.6005	3271.286	1241.7	363.05
