Software Version:	3.9.2.0
Unit SN:	10000200
Spectrometer SN:	6960
Date:	3/6/2024 10:41:09 AM
Data Line Index:	25
Spectral Points:	2048
Integration time (ms):	125
Averages:	20
Delay (ms):	30
Sequence Number:	1
Processing:	dark subtract
Laser Power (mW):	305
Laser Current (mA):	823
Laser Diode Temp (C):	25.1
Laser Case Temp (C):	27
System Temp (C):	26.8
Spectrometer Temp (C):	24.2
CCD Temp (C):	0
Secondary Temp (C):	20.01
Heatsink Temp (C):	22.524
CCDPCB Temp (C):	36.529
SecondaryPCB Temp (C):	32.661

Wavelength	RamanShift	Raw Counts	Dark Subtracted
787.061	30.1047	1119.85	704.15
787.2016	32.3739	1148.15	734.4
787.3422	34.6426	1194	779.2
787.4828	36.9109	1245.85	830.8
787.6235	39.1787	1303.45	884.2
787.7642	41.4461	1359.2	935.3
787.9049	43.7131	1426.9	997.05
788.0456	45.9796	1483.45	1053
788.1863	48.2456	1554.8	1120.35
788.3271	50.5112	1625.55	1189.7
788.4679	52.7764	1694.85	1254.45
788.6087	55.0411	1773.2	1329.05
788.7496	57.3054	1851.25	1402.05
788.8904	59.5692	1938.55	1486.65
789.0313	61.8326	2031.35	1576.25
789.1722	64.0955	2151	1692.95
789.3132	66.3579	2279.15	1815.9
789.4541	68.6199	2429.45	1962.85
789.5951	70.8815	2682.8	2214.6
789.7361	73.1426	3198.7	2723.75
789.8771	75.4032	4520	4040.65
790.0181	77.6634	7850.5	7367.1
790.1592	79.9231	16572.6	16083.5
790.3003	82.1824	54192.8	53693.8
790.4414	84.4412	65535	65014.55
790.5825	86.6995	65535	64989.4
790.7237	88.9574	65535	64964.6
790.8648	91.2148	65535	64943.85
791.006	93.4717	65535	64929.95
791.1472	95.7282	65535	64926.7
791.2885	97.9842	65535	64923
791.4297	100.2398	65535	64920.1
791.571	102.4949	65535	64915.9
791.7123	104.7495	65535	64907.9
791.8536	107.0036	65535	64910.5
791.9949	109.2573	65535	64913.85
792.1363	111.5105	65535	64910
792.2777	113.7632	65535	64907.9
792.4191	116.0154	65535	64895.95
792.5605	118.2672	65535	64903.8
792.7019	120.5185	65535	64903.75
792.8434	122.7693	65535	64899.55
792.9849	125.0197	65535	64898.85
793.1264	127.2696	65535	64893.6
793.2679	129.519	65535	64889.55
793.4094	131.7679	65535	64886.9
793.551	134.0163	65535	64884.3
793.6926	136.2642	65535	64883.1
793.8342	138.5117	65535	64869.5
793.9758	140.7587	65535	64878.95
794.1175	143.0052	65535	64873.3
794.2591	145.2512	65535	64872.15
794.4008	147.4967	65535	64873.75
794.5425	149.7417	65535	64871.35
794.6842	151.9863	65535	64866.75
794.826	154.2304	65535	64863.5
794.9677	156.4739	65535	64855.05
795.1095	158.717	65535	64859.55
795.2513	160.9596	65535	64852.35
795.3931	163.2017	65535	64851.75
795.535	165.4433	65535	64850.1
795.6768	167.6844	65535	64847.65
795.8187	169.925	65535	64849.65
795.9606	172.1651	65535	64843.55
796.1025	174.4047	65535	64837.3
796.2445	176.6439	65535	64833.35
796.3864	178.8825	65535	64833
796.5284	181.1206	65535	64829.7
796.6704	183.3582	65535	64829.3
796.8124	185.5954	65535	64823.7
796.9544	187.832	65535	64823.6
797.0965	190.0681	65535	64818.4
797.2386	192.3037	65535	64816.95
797.3806	194.5388	65535	64813.6
797.5228	196.7734	65535	64806.75
797.6649	199.0075	65535	64808.75
797.807	201.2411	65535	64809.7
797.9492	203.4742	65535	64808.1
798.0914	205.7068	65535	64804.45
798.2336	207.9389	65535	64802.1
798.3758	210.1704	65535	64800
798.518	212.4015	65535	64803.8
798.6603	214.632	65535	64813.7
798.8025	216.862	65535	64827.15
798.9448	219.0915	65535	64823.2
799.0871	221.3205	65535	64820.9
799.2294	223.549	65535	64820.6
799.3718	225.777	65535	64823.55
799.5141	228.0044	65535	64816.5
799.6565	230.2314	65535	64821.75
799.7989	232.4578	65535	64811.65
799.9413	234.6837	65535	64804.65
800.0837	236.909	65535	64805.8
800.2262	239.1339	65535	64777.8
800.3687	241.3582	65535	64793.8
800.5111	243.582	65535	64762.5
800.6536	245.8053	65535	64777.5
800.7961	248.0281	65535	64780.45
800.9387	250.2503	65535	64777.35
801.0812	252.472	65535	64774.85
801.2238	254.6932	65535	64777.35
801.3664	256.9139	65535	64773.8
801.509	259.134	65535	64767.55
801.6516	261.3536	65535	64770
801.7942	263.5727	65535	64767.1
801.9369	265.7912	65535	64772.3
802.0795	268.0092	65535	64769.65
802.2222	270.2267	65535	64770.15
802.3649	272.4436	65535	64766.2
802.5076	274.6601	65535	64758.6
802.6504	276.8759	65535	64761.4
802.7931	279.0913	65535	64759.35
802.9359	281.3061	65535	64761.5
803.0787	283.5204	65535	64759.9
803.2215	285.7341	65535	64755.9
803.3643	287.9473	65535	64738.35
803.5071	290.16	65535	64747.3
803.6499	292.3721	65535	64754
803.7928	294.5837	65535	64757.05
803.9357	296.7947	65535	64750.85
804.0786	299.0052	65535	64755.05
804.2215	301.2152	65535	64749.15
804.3644	303.4246	65535	64753.3
804.5074	305.6334	65535	64754.7
804.6503	307.8418	65535	64750.6
804.7933	310.0495	65535	64748.05
804.9363	312.2568	65535	64748.55
805.0793	314.4635	65535	64745.35
805.2223	316.6696	65535	64747.3
805.3653	318.8752	65535	64736.3
805.5084	321.0802	65535	64747.1
805.6514	323.2847	65535	64743.95
805.7945	325.4887	65535	64739.55
805.9376	327.692	65535	64742
806.0807	329.8949	65535	64743.05
806.2238	332.0972	65535	64737.2
806.367	334.2989	65535	64735.25
806.5101	336.5001	65535	64733.95
806.6533	338.7007	65535	64736.3
806.7965	340.9008	65535	64730.7
806.9397	343.1003	65535	64730.35
807.0829	345.2992	65535	64730.45
807.2261	347.4976	65535	64728.75
807.3693	349.6955	65535	64723.2
807.5126	351.8927	65535	64722.75
807.6559	354.0895	65535	64713.45
807.7991	356.2856	65535	64722.55
807.9424	358.4812	65535	64724.7
808.0857	360.6763	65535	64719.05
808.2291	362.8707	65535	64717.9
808.3724	365.0646	65535	64712.85
808.5158	367.258	65535	64714.65
808.6591	369.4508	65535	64710.6
808.8025	371.643	65535	64710.4
808.9459	373.8346	65535	64710.35
809.0893	376.0257	65535	64706.75
809.2327	378.2162	65535	64708.45
809.3762	380.4062	65535	64705.6
809.5196	382.5956	65535	64704.2
809.6631	384.7844	65535	64709.35
809.8066	386.9726	65535	64712
809.9501	389.1603	65535	64710.75
810.0936	391.3474	65535	64672.65
810.2371	393.5339	65535	64713.75
810.3806	395.7199	65535	64716.75
810.5241	397.9052	65535	64713.95
810.6677	400.09	65535	64714.85
810.8113	402.2743	65535	64715.5
810.9548	404.4579	65535	64715.35
811.0984	406.641	65535	64709.4
811.2421	408.8235	65535	64708.7
811.3857	411.0054	65535	64711.75
811.5293	413.1868	65535	64704.35
811.673	415.3675	65535	64707.05
811.8166	417.5477	65535	64704.75
811.9603	419.7273	65535	64695.65
812.104	421.9064	65535	64693.45
812.2477	424.0848	65535	64698.55
812.3914	426.2627	65535	64696.85
812.5351	428.4399	65535	64696.85
812.6788	430.6166	65535	64691.1
812.8226	432.7928	65535	64690.15
812.9663	434.9683	65535	64689.65
813.1101	437.1432	65535	64685.1
813.2539	439.3176	65535	64691.1
813.3977	441.4914	65535	64690.5
813.5415	443.6645	65535	64689.25
813.6853	445.8371	65535	64692.25
813.8291	448.0091	65535	64692.95
813.973	450.1806	65535	64686.25
814.1168	452.3514	65535	64687.35
814.2607	454.5216	65535	64679
814.4046	456.6913	65535	64686.4
814.5485	458.8603	65535	64686.8
814.6924	461.0288	65535	64688.95
814.8363	463.1967	65535	64683.3
814.9802	465.3639	65535	64683
815.1241	467.5306	65535	64685.6
815.2681	469.6967	65535	64685.3
815.412	471.8622	65535	64684.95
815.556	474.0271	65535	64685.2
815.7	476.1914	65535	64682.95
815.844	478.3551	65535	64682.55
815.988	480.5182	65535	64683.65
816.132	482.6807	65535	64684.75
816.276	484.8426	65535	64685.55
816.4201	487.0039	65535	64683.75
816.5641	489.1647	65535	64680.1
816.7082	491.3248	65535	64683.85
816.8522	493.4843	65535	64684.45
816.9963	495.6432	65535	64684.55
817.1404	497.8015	65535	64679.1
817.2845	499.9592	65535	64676.8
817.4286	502.1163	65535	64677.1
817.5727	504.2728	65535	64674
817.7168	506.4287	65535	64681.35
817.861	508.5839	65535	64680.25
818.0051	510.7386	65535	64677
818.1493	512.8927	65535	64672
818.2935	515.0461	65535	64674.65
818.4377	517.199	65535	64676.5
818.5818	519.3512	65535	64674.45
818.726	521.5029	65535	64671.65
818.8703	523.6539	65535	64671.65
819.0145	525.8043	65535	64672.25
819.1587	527.9541	65535	64670.35
819.303	530.1033	65535	64669.7
819.4472	532.2519	65535	64672.8
819.5915	534.3999	65535	64667.2
819.7357	536.5472	65535	64669.05
819.88	538.694	65535	64669.55
820.0243	540.8401	65535	64669.95
820.1686	542.9856	65535	64667.35
820.3129	545.1305	65535	64665.9
820.4572	547.2748	65535	64666.65
820.6016	549.4185	65535	64664.3
820.7459	551.5615	65535	64665.7
820.8902	553.704	65535	64661.85
821.0346	555.8458	65535	64663.55
821.1789	557.987	65535	64666.2
821.3233	560.1276	65535	64664.6
821.4677	562.2675	65535	64666.75
821.6121	564.4069	65535	64666.8
821.7565	566.5456	65535	64668.45
821.9009	568.6837	65535	64664.75
822.0453	570.8212	65535	64667.8
822.1897	572.958	65535	64664.25
822.3342	575.0942	65535	64667.2
822.4786	577.2299	65535	64664.1
822.6231	579.3648	65535	64666.65
822.7675	581.4992	65535	64664.7
822.912	583.6329	65535	64667.65
823.0565	585.766	65535	64667.75
823.201	587.8985	65535	64665.35
823.3454	590.0304	65535	64641.55
823.4899	592.1616	65535	64661
823.6345	594.2922	65535	64662
823.779	596.4222	65535	64658.65
823.9235	598.5515	65535	64657.6
824.068	600.6802	65535	64659.65
824.2126	602.8083	65535	64665.65
824.3571	604.9358	65535	64656.1
824.5017	607.0626	65535	64660
824.6462	609.1888	65535	64656.95
824.7908	611.3144	65535	64656.35
824.9354	613.4393	65535	64660.55
825.08	615.5636	65535	64656.15
825.2246	617.6873	65535	64658.4
825.3692	619.8103	65535	64654.8
825.5138	621.9327	65535	64652.25
825.6584	624.0544	65535	64655.9
825.803	626.1756	65535	64658.65
825.9477	628.2961	65535	64654.65
826.0923	630.4159	65535	64658.75
826.237	632.5351	65535	64654.6
826.3816	634.6537	65535	64655
826.5263	636.7716	65535	64653.65
826.6709	638.8889	65535	64653.45
826.8156	641.0056	65535	64653.75
826.9603	643.1216	65535	64649.2
827.105	645.237	65535	64649.4
827.2497	647.3518	65535	64650.55
827.3944	649.4659	65535	64652.05
827.5391	651.5793	65535	64653.75
827.6838	653.6922	65535	64653.25
827.8285	655.8043	65535	64653.3
827.9733	657.9159	65535	64652.25
828.118	660.0268	65535	64650.45
828.2627	662.137	65535	64650.85
828.4075	664.2466	65535	64649.1
828.5522	666.3556	65535	64652.5
828.697	668.4639	65535	64644.6
828.8418	670.5716	65535	64650.9
828.9865	672.6786	65535	64648.55
829.1313	674.785	65535	64649.35
829.2761	676.8907	65535	64649.05
829.4209	678.9958	65535	64653.4
829.5657	681.1002	65535	64651.7
829.7105	683.204	65535	64643.7
829.8553	685.3072	65535	64645.8
830.0001	687.4097	65535	64650.25
830.1449	689.5115	65535	64647.6
830.2898	691.6127	65535	64651.3
830.4346	693.7132	65535	64650.3
830.5794	695.8131	65535	64638.8
830.7243	697.9123	65535	64646.1
830.8691	700.0109	65535	64646
831.014	702.1089	65535	64648.1
831.1588	704.2061	65535	64645.75
831.3037	706.3028	65535	64646.4
831.4486	708.3987	65535	64644.25
831.5935	710.4941	65535	64645.85
831.7383	712.5887	65535	64642.8
831.8832	714.6827	65535	64641.05
832.0281	716.7761	65535	64645.1
832.173	718.8688	65535	64643.75
832.3179	720.9608	65535	64640.15
832.4628	723.0522	65535	64641.35
832.6077	725.1429	65535	64643.85
832.7527	727.233	65535	64647.45
832.8976	729.3224	65535	64645.45
833.0425	731.4112	65535	64639.55
833.1874	733.4993	65535	64641.05
833.3324	735.5867	65535	64640.95
833.4773	737.6735	65535	64640.35
833.6222	739.7596	65535	64641.6
833.7672	741.845	65535	64641.9
833.9122	743.9298	65535	64644.4
834.0571	746.014	65535	64643.6
834.2021	748.0974	65535	64636.7
834.347	750.1802	65535	64640.95
834.492	752.2624	65535	64639.55
834.637	754.3439	65535	64638.4
834.782	756.4247	65535	64629.8
834.9269	758.5048	65535	64638.9
835.0719	760.5843	65535	64639.55
835.2169	762.6631	65535	64638.5
835.3619	764.7413	65535	64642.85
835.5069	766.8188	65535	64638.8
835.6519	768.8956	65535	64640.15
835.7969	770.9718	65535	64639.05
835.9419	773.0473	65535	64637.75
836.0869	775.1221	65535	64641.85
836.232	777.1962	65535	64640.6
836.377	779.2697	65535	64638.6
836.522	781.3426	65535	64620.3
836.667	783.4147	65535	64636.55
836.8121	785.4862	65535	64640.55
836.9571	787.557	65535	64637.15
837.1021	789.6271	65535	64638.3
837.2472	791.6966	65535	64638.3
837.3922	793.7654	65535	64639.85
837.5373	795.8335	65535	64638.5
837.6823	797.901	65535	64640.5
837.8274	799.9678	65535	64635.2
837.9724	802.0339	65535	64638.65
838.1175	804.0993	65535	64628.4
838.2626	806.1641	65535	64638.7
838.4076	808.2282	65535	64636.85
838.5527	810.2916	65535	64635.8
838.6978	812.3544	65535	64638.05
838.8428	814.4164	65535	64643.15
838.9879	816.4778	65535	64638.4
839.133	818.5385	65535	64640.8
839.2781	820.5986	65535	64640.3
839.4232	822.658	65535	64635.5
839.5682	824.7166	65535	64637.85
839.7133	826.7747	65535	64637
839.8584	828.832	65535	64637.45
840.0035	830.8886	65535	64634.35
840.1486	832.9446	65535	64636.45
840.2937	834.9999	65535	64636.45
840.4388	837.0545	65535	64633.85
840.5839	839.1085	65535	64637.4
840.729	841.1618	65535	64630.4
840.8741	843.2143	65535	64637.75
841.0192	845.2662	65535	64639.2
841.1643	847.3175	65535	64638.25
841.3095	849.368	65535	64635.3
841.4546	851.4179	65535	64635.4
841.5997	853.467	65535	64635.2
841.7448	855.5155	65535	64636.75
841.8899	857.5633	65535	64635.35
842.0351	859.6105	65535	64635.05
842.1802	861.6569	65535	64638.2
842.3253	863.7027	65535	64634.6
842.4704	865.7478	65535	64636.1
842.6156	867.7922	65535	64633.85
842.7607	869.8359	65535	64637.7
842.9058	871.8789	65535	64635.55
843.0509	873.9212	65535	64603.85
843.1961	875.9629	65535	64637.65
843.3412	878.0039	65535	64633.55
843.4863	880.0441	65535	64638.3
843.6315	882.0837	65535	64632.8
843.7766	884.1226	65535	64634.85
843.9218	886.1609	65535	64638.35
844.0669	888.1984	65535	64636.55
844.212	890.2352	65535	64636.85
844.3572	892.2714	65535	64631.4
844.5023	894.3069	65535	64633.45
844.6475	896.3416	65535	64634.3
844.7926	898.3757	65535	64635.6
844.9377	900.4091	65535	64635.3
845.0829	902.4418	65535	64629.95
845.228	904.4739	65535	64629.5
845.3732	906.5052	65535	64631.4
845.5183	908.5358	65535	64636
845.6635	910.5658	65535	64633.35
845.8086	912.595	65535	64633.4
845.9538	914.6236	65535	64633.9
846.0989	916.6515	65535	64634.35
846.2441	918.6786	65535	64629.35
846.3892	920.7051	65535	64631.35
846.5344	922.7309	65535	64633.6
846.6795	924.756	65535	64632.9
846.8246	926.7804	65535	64632.45
846.9698	928.8041	65535	64629.95
847.1149	930.8272	65535	64631.5
847.2601	932.8495	65535	64631.35
847.4052	934.8711	65535	64630.6
847.5504	936.892	65535	64630.15
847.6955	938.9123	65535	64631.65
847.8407	940.9318	65535	64631.3
847.9858	942.9506	65535	64631.25
848.131	944.9688	65535	64631.85
848.2761	946.9862	65535	64631.2
848.4213	949.003	65535	64631.9
848.5664	951.019	65535	64633.6
848.7115	953.0344	65535	64632.65
848.8567	955.0491	65535	64631.4
849.0018	957.063	65535	64629.95
849.147	959.0763	65535	64633.7
849.2921	961.0888	65535	64628.9
849.4373	963.1007	65535	64632.95
849.5824	965.1119	65535	64634.15
849.7275	967.1223	65535	64633.05
849.8727	969.1321	65535	64635.2
850.0178	971.1412	65535	64634.05
850.1629	973.1495	65535	64632.95
850.3081	975.1572	65535	64586.85
850.4532	977.1641	65535	64632.8
850.5983	979.1704	65535	64631.85
850.7435	981.1759	65535	64630.2
850.8886	983.1808	65535	64630.15
851.0337	985.1849	65535	64619.65
851.1788	987.1884	65535	64628.25
851.324	989.1911	65535	64630.5
851.4691	991.1932	65535	64630
851.6142	993.1945	65535	64631.65
851.7593	995.1951	65535	64633.9
851.9045	997.1951	65535	64625.1
852.0496	999.1943	65535	64631.45
852.1947	1001.1928	65535	64631.55
852.3398	1003.1906	65535	64631.35
852.4849	1005.1877	65535	64629.85
852.63	1007.1841	65535	64630.75
852.7751	1009.1798	65535	64635.95
852.9202	1011.1748	65535	64633.6
853.0653	1013.1691	65535	64633.15
853.2104	1015.1627	65535	64631.15
853.3555	1017.1556	65535	64629.25
853.5006	1019.1477	65535	64630
853.6457	1021.1392	65535	64632.5
853.7908	1023.1299	65535	64633.75
853.9359	1025.12	65535	64632.6
854.081	1027.1093	65535	64636.65
854.2261	1029.0979	65535	64636.35
854.3712	1031.0859	65535	64634.35
854.5163	1033.0731	65535	64630.45
854.6613	1035.0596	65535	64633.4
854.8064	1037.0454	65535	64633.1
854.9515	1039.0304	65535	64632.7
855.0965	1041.0148	65535	64633.6
855.2416	1042.9985	65535	64629.25
855.3867	1044.9814	65535	64634
855.5317	1046.9636	65535	64631.65
855.6768	1048.9452	65535	64632.3
855.8219	1050.926	65535	64635.7
855.9669	1052.9061	65535	64632.35
856.112	1054.8855	65535	64633.15
856.257	1056.8642	65535	64633.1
856.4021	1058.8421	65535	64627.5
856.5471	1060.8194	65535	64633.7
856.6921	1062.7959	65535	64632.65
856.8372	1064.7717	65535	64632.55
856.9822	1066.7469	65535	64633.35
857.1272	1068.7213	65535	64629.15
857.2723	1070.695	65535	64632.85
857.4173	1072.6679	65535	64629.95
857.5623	1074.6402	65535	64632.65
857.7073	1076.6117	65535	64626.95
857.8523	1078.5826	65535	64630.4
857.9973	1080.5527	65535	64628.15
858.1423	1082.5221	65535	64631.15
858.2873	1084.4908	65535	64633
858.4323	1086.4587	65535	64630.2
858.5773	1088.426	65535	64631.15
858.7223	1090.3925	65535	64626.75
858.8673	1092.3584	65535	64632.55
859.0123	1094.3235	65535	64635.05
859.1573	1096.2879	65535	64632.4
859.3022	1098.2515	65535	64633.55
859.4472	1100.2145	65535	64633.7
859.5922	1102.1767	65535	64632.3
859.7371	1104.1382	65535	64633.15
859.8821	1106.099	65535	64630.2
860.027	1108.0591	65535	64632.4
860.172	1110.0185	65535	64629.65
860.3169	1111.9771	65535	64632.3
860.4619	1113.9351	65535	64633.45
860.6068	1115.8923	65535	64631.95
860.7517	1117.8488	65535	64628.9
860.8967	1119.8045	65535	64631.5
861.0416	1121.7596	65535	64630.25
861.1865	1123.7139	65535	64634.3
861.3314	1125.6675	65535	64631.2
861.4763	1127.6204	65535	64632.1
861.6212	1129.5726	65535	64631.65
861.7661	1131.524	65535	64632.2
861.911	1133.4748	65535	64631.55
862.0559	1135.4248	65535	64632.35
862.2008	1137.3741	65535	64631.95
862.3457	1139.3226	65535	64631.15
862.4905	1141.2705	65535	64631.3
862.6354	1143.2176	65535	64625.5
862.7803	1145.164	65535	64631.6
862.9251	1147.1097	65535	64631.5
863.07	1149.0546	65535	64630.45
863.2148	1150.9989	65535	64632.65
863.3597	1152.9424	65535	64631.35
863.5045	1154.8852	65535	64630.7
863.6493	1156.8272	65535	64631.65
863.7942	1158.7686	65535	64625.95
863.939	1160.7092	65535	64630.7
864.0838	1162.6491	65535	64630.85
864.2286	1164.5883	65535	64630.45
864.3734	1166.5267	65535	64632.7
864.5182	1168.4644	65535	64628.95
864.663	1170.4014	65535	64628.3
864.8078	1172.3377	65535	64633.45
864.9526	1174.2732	65535	64634.5
865.0974	1176.2081	65535	64632.65
865.2421	1178.1421	65535	64626.95
865.3869	1180.0755	65535	64632.85
865.5317	1182.0082	65535	64632.65
865.6764	1183.9401	65535	64630.55
865.8212	1185.8713	65535	64632.1
865.9659	1187.8017	65535	64634.75
866.1106	1189.7315	65535	64634.85
866.2554	1191.6605	65535	64607
866.4001	1193.5888	65535	64634.05
866.5448	1195.5163	65535	64633.05
866.6895	1197.4432	65535	64631.15
866.8342	1199.3693	65535	64631.3
866.9789	1201.2947	65535	64631.35
867.1236	1203.2193	65535	64632.3
867.2683	1205.1432	65535	64634.45
867.413	1207.0664	65535	64633.75
867.5576	1208.9889	65535	64631.95
867.7023	1210.9106	65535	64633.05
867.847	1212.8316	65535	64634.1
867.9916	1214.7519	65535	64623.3
868.1363	1216.6715	65535	64636.85
868.2809	1218.5903	65535	64634.5
868.4255	1220.5084	65535	64632.85
868.5701	1222.4257	65535	64634.8
868.7148	1224.3424	65535	64635.6
868.8594	1226.2583	65535	64630.55
869.004	1228.1735	65535	64632.8
869.1486	1230.0879	65535	64632.85
869.2932	1232.0016	65535	64632.35
869.4377	1233.9146	65535	64630.7
869.5823	1235.8269	65535	64634.3
869.7269	1237.7384	65535	64634.15
869.8715	1239.6492	65535	64634.75
870.016	1241.5592	65535	64633.7
870.1606	1243.4686	65535	64633.05
870.3051	1245.3772	65535	64632.5
870.4496	1247.285	65535	64634.1
870.5941	1249.1922	65535	64631.9
870.7387	1251.0986	65535	64634.9
870.8832	1253.0042	65535	64633.2
871.0277	1254.9092	65535	64633.05
871.1722	1256.8134	65535	64634.6
871.3167	1258.7169	65535	64632.55
871.4611	1260.6196	65535	64633.6
871.6056	1262.5216	65535	64632.05
871.7501	1264.4229	65535	64635.1
871.8945	1266.3234	65535	64634.85
872.039	1268.2232	65535	64631.55
872.1834	1270.1223	65535	64632.6
872.3278	1272.0207	65535	64634
872.4723	1273.9183	65535	64623.2
872.6167	1275.8151	65535	64632.75
872.7611	1277.7113	65535	64632.3
872.9055	1279.6067	65535	64634.3
873.0499	1281.5014	65535	64631.75
873.1943	1283.3953	65535	64630.8
873.3386	1285.2885	65535	64635.95
873.483	1287.181	65535	64631.35
873.6274	1289.0727	65535	64636.35
873.7717	1290.9637	65535	64633.75
873.9161	1292.854	65535	64632.3
874.0604	1294.7435	65535	64634.75
874.2047	1296.6323	65535	64633.8
874.349	1298.5204	65535	64630.65
874.4933	1300.4077	65535	64633.6
874.6376	1302.2943	65535	64633.45
874.7819	1304.1802	65535	64635.45
874.9262	1306.0653	65535	64632.8
875.0705	1307.9497	65535	64634.3
875.2147	1309.8333	65535	64633.05
875.359	1311.7162	65535	64634.45
875.5032	1313.5984	65535	64629.7
875.6475	1315.4798	65535	64621.5
875.7917	1317.3605	65535	64616.25
875.9359	1319.2405	65535	64630.8
876.0801	1321.1197	65535	64631.2
876.2243	1322.9982	65535	64629.25
876.3685	1324.876	65535	64633.3
876.5127	1326.753	65535	64633.4
876.6569	1328.6293	65535	64632.55
876.801	1330.5048	65535	64631.9
876.9452	1332.3796	65535	64633.7
877.0893	1334.2537	65535	64607.2
877.2335	1336.127	65535	64632.4
877.3776	1337.9996	65535	64633.8
877.5217	1339.8714	65535	64632.8
877.6658	1341.7426	65535	64588.2
877.8099	1343.6129	65535	64631.65
877.954	1345.4826	65535	64631.85
878.0981	1347.3515	65535	64628.65
878.2422	1349.2196	65535	64634.25
878.3862	1351.087	65535	64634.65
878.5303	1352.9537	65535	64631.9
878.6743	1354.8197	65535	64633.25
878.8184	1356.6849	65535	64633.5
878.9624	1358.5493	65535	64632.3
879.1064	1360.4131	65535	64633.85
879.2504	1362.276	65535	64634.95
879.3944	1364.1383	65535	64634.2
879.5384	1365.9998	65535	64629.8
879.6823	1367.8606	65535	64631.85
879.8263	1369.7206	65535	64633.95
879.9702	1371.5799	65535	64630.3
880.1142	1373.4384	65535	64633
880.2581	1375.2962	65535	64631.8
880.402	1377.1533	65535	64632.9
880.5459	1379.0096	65535	64632.4
880.6898	1380.8652	65535	64634.45
880.8337	1382.7201	65535	64634.7
880.9776	1384.5742	65535	64632.5
881.1215	1386.4275	65535	64633.35
881.2653	1388.2802	65535	64633.25
881.4092	1390.132	65535	64634.45
881.553	1391.9832	65535	64632.1
881.6968	1393.8336	65535	64634.05
881.8406	1395.6832	65535	64631.9
881.9844	1397.5322	65535	64631.3
882.1282	1399.3803	65535	64628.55
882.272	1401.2278	65535	64632.6
882.4158	1403.0745	65535	64634.45
882.5595	1404.9204	65535	64636.3
882.7033	1406.7656	65535	64634.85
882.847	1408.6101	65535	64633.85
882.9908	1410.4538	65535	64633.6
883.1345	1412.2968	65535	64634.85
883.2782	1414.139	65535	64633.1
883.4219	1415.9805	65535	64635.5
883.5656	1417.8213	65535	64626.4
883.7092	1419.6613	65535	64635.2
883.8529	1421.5006	65535	64632.35
883.9965	1423.3391	65535	64633.15
884.1402	1425.1769	65535	64632.65
884.2838	1427.0139	65535	64634.35
884.4274	1428.8502	65535	64632.7
884.571	1430.6858	65535	64632.8
884.7146	1432.5206	65535	64633
884.8582	1434.3547	65535	64632.9
885.0018	1436.188	65535	64635.7
885.1453	1438.0206	65535	64632.85
885.2889	1439.8524	65535	64633.45
885.4324	1441.6835	65535	64631.95
885.5759	1443.5139	65535	64628.55
885.7194	1445.3435	65535	64632.8
885.8629	1447.1724	65535	64633.55
886.0064	1449.0005	65535	64637.25
886.1499	1450.8279	65535	64632.15
886.2933	1452.6545	65535	64634.2
886.4368	1454.4804	65535	64633.55
886.5802	1456.3056	65535	64625.7
886.7237	1458.13	65535	64633.7
886.8671	1459.9536	65535	64634
887.0105	1461.7766	65535	64634.45
887.1539	1463.5987	65535	64632.6
887.2972	1465.4202	65535	64633.6
887.4406	1467.2409	65535	64632.25
887.584	1469.0608	65535	64633
887.7273	1470.88	65535	64634.9
887.8706	1472.6984	65535	64634.5
888.0139	1474.5161	65535	64629.95
888.1572	1476.3331	65535	64635.5
888.3005	1478.1493	65535	64633.65
888.4438	1479.9648	65535	64633.95
888.5871	1481.7795	65535	64636.05
888.7303	1483.5935	65535	64634.65
888.8736	1485.4067	65535	64634.75
889.0168	1487.2192	65535	64633.9
889.16	1489.031	65535	64630.95
889.3032	1490.842	65535	64636.55
889.4464	1492.6522	65535	64635.9
889.5896	1494.4618	65535	64632.3
889.7327	1496.2705	65535	64636
889.8759	1498.0785	65535	64635.4
890.019	1499.8858	65535	64634
890.1622	1501.6924	65535	64634.2
890.3053	1503.4981	65535	64633.6
890.4484	1505.3032	65535	64636.5
890.5914	1507.1075	65535	64632.25
890.7345	1508.911	65535	64634.2
890.8776	1510.7138	65535	64632.85
891.0206	1512.5159	65535	64634.2
891.1637	1514.3172	65535	64636.8
891.3067	1516.1178	65535	64634.1
891.4497	1517.9176	65535	64631.25
891.5927	1519.7166	65535	64634.15
891.7357	1521.515	65535	64628.7
891.8786	1523.3126	65535	64633.85
892.0216	1525.1094	65535	64631.6
892.1645	1526.9055	65535	64634.85
892.3074	1528.7008	65535	64636.3
892.4503	1530.4954	65535	64628.65
892.5932	1532.2893	65535	64638.25
892.7361	1534.0824	65535	64630.2
892.879	1535.8747	65535	64635.65
893.0218	1537.6663	65535	64635.65
893.1647	1539.4572	65535	64633.95
893.3075	1541.2473	65535	64636.05
893.4503	1543.0367	65535	64636.45
893.5931	1544.8253	65535	64632.35
893.7359	1546.6132	65535	64634.2
893.8787	1548.4003	65535	64625.4
894.0214	1550.1867	65535	64627.6
894.1642	1551.9723	65535	64631.3
894.3069	1553.7572	65535	64634.5
894.4496	1555.5414	65535	64637.15
894.5923	1557.3247	65535	64634.95
894.735	1559.1074	65535	64638.2
894.8777	1560.8893	65535	64635.25
895.0204	1562.6705	65535	64638.2
895.163	1564.4509	65535	64637
895.3056	1566.2305	65535	64638.75
895.4482	1568.0094	65535	64637.9
895.5908	1569.7876	65535	64638.6
895.7334	1571.565	65535	64634.95
895.876	1573.3417	65535	64638.15
896.0186	1575.1176	65535	64637.75
896.1611	1576.8928	65535	64638.25
896.3036	1578.6672	65535	64638.4
896.4461	1580.4409	65535	64638.35
896.5886	1582.2138	65535	64636.1
896.7311	1583.986	65535	64636.15
896.8736	1585.7575	65535	64638.65
897.0161	1587.5282	65535	64639.5
897.1585	1589.2981	65535	64639.45
897.3009	1591.0673	65532.9	64636.35
897.4433	1592.8358	65525.3	64626.3
897.5857	1594.6035	65534	64638.3
897.7281	1596.3704	65532.15	64633.7
897.8705	1598.1366	65506.25	64608.5
898.0128	1599.9021	65481.4	64584.85
898.1551	1601.6668	65520.8	64621.3
898.2975	1603.4308	65512.35	64615.05
898.4398	1605.194	65509.2	64609.95
898.5821	1606.9564	65434	64538.8
898.7243	1608.7182	65473.55	64575
898.8666	1610.4791	65426.05	64530.9
899.0088	1612.2394	65495.65	64602
899.1511	1613.9988	65398.55	64503.15
899.2933	1615.7576	65493.95	64599.35
899.4355	1617.5156	65486.5	64587.9
899.5776	1619.2728	65521.35	64624.8
899.7198	1621.0293	65451.3	64555.3
899.862	1622.785	65454.4	64556.75
900.0041	1624.54	65483.8	64585.45
900.1462	1626.2942	65415.45	64519
900.2883	1628.0477	65244.1	64346.55
900.4304	1629.8005	64967.55	64067
900.5725	1631.5525	65235.15	64341.15
900.7145	1633.3037	64780.2	63884.7
900.8566	1635.0542	64651.3	63756.2
900.9986	1636.804	65006.9	64112.35
901.1406	1638.553	64252.25	63274.85
901.2826	1640.3013	64536.75	63641.35
901.4245	1642.0488	63983.55	63084.8
901.5665	1643.7955	64457.15	63562.05
901.7085	1645.5416	64029.8	63134.15
901.8504	1647.2868	63479.4	62585.05
901.9923	1649.0313	64295.5	63401.3
902.1342	1650.7751	63890	62988.95
902.2761	1652.5181	63499.9	62604.55
902.4179	1654.2604	63641.2	62746.35
902.5598	1656.0019	63897.7	63002.95
902.7016	1657.7427	63780.25	62883.65
902.8434	1659.4828	64322.85	63428.6
902.9852	1661.222	63701.3	62805.75
903.127	1662.9606	64417.1	63524.1
903.2687	1664.6984	63437.3	62541.45
903.4105	1666.4354	63878	62982.3
903.5522	1668.1717	62733.65	61838.3
903.6939	1669.9072	61715.65	60820.4
903.8356	1671.642	61645.85	60749.7
903.9773	1673.3761	61400.55	60505.3
904.119	1675.1094	61138.1	60244.25
904.2606	1676.8419	60233.05	59337.9
904.4022	1678.5737	60396.85	59500.6
904.5439	1680.3048	59989.9	59094.05
904.6855	1682.0351	59676.4	58781
904.827	1683.7646	59359.85	58461.85
904.9686	1685.4934	59606.25	58712.35
905.1101	1687.2215	58254.65	57358
905.2517	1688.9488	59155	58259.35
905.3932	1690.6754	57209.9	56314.4
905.5347	1692.4012	57999.65	57108.15
905.6761	1694.1263	58020.15	57125
905.8176	1695.8506	57436.45	56541.9
905.9591	1697.5742	57377.25	56482.55
906.1005	1699.297	57098	56203.95
906.2419	1701.0191	57136.35	56242.3
906.3833	1702.7404	56357.35	55465.35
906.5246	1704.461	56120.65	55225.65
906.666	1706.1808	56258.9	55362.8
906.8073	1707.8999	56144.15	55246.7
906.9487	1709.6182	55772.05	54878.7
907.09	1711.3358	55697.4	54804.45
907.2313	1713.0527	55504.75	54611.2
907.3725	1714.7688	55456.85	54560.15
907.5138	1716.4841	54689	53794.75
907.655	1718.1987	54945.2	54047.05
907.7962	1719.9126	54581.1	53688.6
907.9374	1721.6257	54596.65	53702.25
908.0786	1723.338	54636.1	53742.95
908.2198	1725.0496	53746.95	52849.85
908.3609	1726.7605	53713.8	52817.25
908.502	1728.4706	53509.65	52613.1
908.6431	1730.18	53403.75	52507.6
908.7842	1731.8886	53258.75	52367.5
908.9253	1733.5964	53001	52088.55
909.0664	1735.3036	53132.35	52236.05
909.2074	1737.0099	52892	51999.8
909.3484	1738.7156	52547.2	51655.45
909.4894	1740.4204	52305	51410.8
909.6304	1742.1246	52315.35	51419.1
909.7714	1743.8279	52258	51364.6
909.9123	1745.5306	52260.3	51368.05
910.0532	1747.2325	51620.05	50727.25
910.1941	1748.9336	51604.8	50711.2
910.335	1750.634	51432.5	50536.1
910.4759	1752.3336	51441.2	50547.55
910.6168	1754.0325	51118.15	50226.95
910.7576	1755.7307	51197.5	50305.7
910.8984	1757.4281	50927.55	50035.35
911.0392	1759.1247	51040.2	50138.65
911.18	1760.8206	50613.3	49714.2
911.3208	1762.5158	50593.35	49696.75
911.4615	1764.2102	50399.15	49505.35
911.6022	1765.9039	50256.1	49363.4
911.7429	1767.5968	50118.95	49225.85
911.8836	1769.289	49930.4	49039.4
912.0243	1770.9804	49819.55	48924.8
912.1649	1772.6711	49769.95	48876.2
912.3056	1774.361	49543.15	48648.7
912.4462	1776.0502	49472.1	48579.45
912.5868	1777.7386	49235.45	48338.8
912.7274	1779.4263	49078	48185.8
912.8679	1781.1132	49013.85	48121.35
913.0084	1782.7994	48846.85	47953.7
913.149	1784.4849	48754.95	47862.9
913.2895	1786.1696	48467.05	47567.45
913.4299	1787.8535	48497.25	47605.05
913.5704	1789.5367	48355.55	47464.25
913.7108	1791.2192	48227.3	47336.05
913.8513	1792.9009	48000.65	47076.05
913.9917	1794.5818	47887.85	46992.15
914.132	1796.2621	47762.85	46873.1
914.2724	1797.9415	47648.65	46756.55
914.4128	1799.6202	47489.7	46596.6
914.5531	1801.2982	47390.95	46497.35
914.6934	1802.9755	47234.15	46338.55
914.8337	1804.6519	47197.15	46303.75
914.9739	1806.3277	46958.65	46065.95
915.1142	1808.0027	46654.8	45763.55
915.2544	1809.6769	46692.65	45799.45
915.3946	1811.3504	46587.65	45694.1
915.5348	1813.0231	46361.25	45469.7
915.675	1814.6951	46399.5	45506.1
915.8151	1816.3664	46300.1	45404.6
915.9553	1818.0369	46140.3	45246.8
916.0954	1819.7067	45954.5	45062.7
916.2355	1821.3757	45916.3	45023.3
916.3755	1823.044	45741.55	44848.7
916.5156	1824.7115	45669.2	44776.6
916.6556	1826.3783	45441.1	44549.8
916.7956	1828.0443	45243.15	44352.1
916.9356	1829.7096	45213.25	44318.7
917.0756	1831.3741	45116.7	44220.8
917.2155	1833.0379	44986.55	44093.1
917.3555	1834.701	44774.45	43879.9
917.4954	1836.3633	44719.85	43826.45
917.6353	1838.0248	44592.75	43698.2
917.7751	1839.6856	44502.6	43607.6
917.915	1841.3457	44433.5	43540.7
918.0548	1843.005	44306.75	43415.15
918.1946	1844.6636	44191.8	43299.3
918.3344	1846.3214	44031.75	43138.9
918.4742	1847.9785	44009.95	43117.8
918.6139	1849.6349	43798.6	42903
918.7537	1851.2904	43746	42845.2
918.8934	1852.9453	43566.05	42673.3
919.0331	1854.5994	43417.4	42521.3
919.1727	1856.2528	43513.6	42615.2
919.3124	1857.9054	43280.3	42387.6
919.452	1859.5572	43263.7	42371.8
919.5916	1861.2083	43132.9	42238.85
919.7312	1862.8587	43044.45	42150.65
919.8708	1864.5084	42935.25	42039.8
920.0103	1866.1572	42746.75	41854.85
920.1498	1867.8054	42605	41713.85
920.2893	1869.4528	42559.8	41667.65
920.4288	1871.0994	42383.6	41491.35
920.5683	1872.7453	42298.8	41406.6
920.7077	1874.3905	42172.15	41271.6
920.8471	1876.0349	42044.85	41152.45
920.9865	1877.6786	42020.65	41126.75
921.1259	1879.3215	41946.5	41053.5
921.2653	1880.9637	41814.1	40922.05
921.4046	1882.6051	41730.6	40839
921.5439	1884.2458	41593.9	40700.45
921.6832	1885.8858	41384.1	40491.75
921.8225	1887.525	41318.7	40427.1
921.9617	1889.1634	41132.75	40240.8
922.101	1890.8011	40972.6	40078.4
922.2402	1892.4381	40819.75	39928.1
922.3794	1894.0743	40757.55	39865.55
922.5185	1895.7098	40688.6	39795.95
922.6577	1897.3446	40581.7	39687.05
922.7968	1898.9786	40463.45	39565.25
922.9359	1900.6118	40302.1	39408.3
923.075	1902.2443	40116	39221.85
923.214	1903.8761	40040.8	39149.15
923.3531	1905.5071	39773.7	38881.55
923.4921	1907.1374	39613.25	38720.9
923.6311	1908.7669	39630	38737.4
923.77	1910.3957	39578.35	38687.05
923.909	1912.0237	39335.55	38443.4
924.0479	1913.651	39221.6	38328.65
924.1868	1915.2776	39088.65	38195.85
924.3257	1916.9034	38891.7	38002.5
924.4646	1918.5285	38740.4	37850.65
924.6034	1920.1528	38531.65	37639
924.7422	1921.7764	38502.85	37611.2
924.881	1923.3992	38378.05	37485.2
925.0198	1925.0213	38111.3	37220.7
925.1586	1926.6427	37941.8	37049.75
925.2973	1928.2633	37935.35	36926.15
925.436	1929.8832	37758.75	36863.55
925.5747	1931.5023	37572.4	36680.15
925.7134	1933.1207	37466.65	36574.05
925.852	1934.7383	37384.6	36492.25
925.9906	1936.3552	37250.55	36358.5
926.1292	1937.9714	37091.2	36199.85
926.2678	1939.5868	36997.35	36102.85
926.4064	1941.2015	36736.2	35842.55
926.5449	1942.8154	36617.85	35725.3
926.6834	1944.4286	36446.4	35551.45
926.8219	1946.041	36346.05	35436.25
926.9604	1947.6528	36116.25	35218.8
927.0988	1949.2637	36083.8	35194.3
927.2372	1950.8739	35925.65	35035.2
927.3756	1952.4834	35867.65	34976.55
927.514	1954.0921	35803.65	34913.65
927.6523	1955.7001	35609.4	34711.8
927.7907	1957.3074	35473.3	34581.45
927.929	1958.9139	35329.25	34439.25
928.0673	1960.5197	35244.9	34352.15
928.2055	1962.1247	35046.95	34154.55
928.3438	1963.729	34846.65	33955.55
928.482	1965.3325	34775.7	33859.3
928.6202	1966.9353	34656	33764.1
928.7584	1968.5374	34510.15	33617.8
928.8965	1970.1387	34385.3	33493.25
929.0346	1971.7393	34253.95	33360.65
929.1727	1973.3392	34186.6	33294.45
929.3108	1974.9383	34033.95	33142.75
929.4489	1976.5366	33860.65	32970.05
929.5869	1978.1342	33816.85	32926.3
929.7249	1979.7311	33733.5	32842.05
929.8629	1981.3273	33588.45	32694.35
930.0009	1982.9227	33507.25	32614.75
930.1388	1984.5173	33349.85	32457.25
930.2767	1986.1112	33197.05	32305.95
930.4146	1987.7044	33107.95	32218.2
930.5525	1989.2968	33017.8	32126.35
930.6904	1990.8885	32958.7	32064.2
930.8282	1992.4795	32820.9	31927.35
930.966	1994.0697	32640.4	31750.55
931.1038	1995.6592	32527.3	31635.45
931.2415	1997.2479	32444.65	31551.85
931.3793	1998.8359	32345.85	31454.75
931.517	2000.4232	32195.4	31303.85
931.6547	2002.0097	32086.65	31196.75
931.7923	2003.5955	31931.95	31041.75
931.93	2005.1805	31883.85	30991.3
932.0676	2006.7648	31818.15	30928.75
932.2052	2008.3484	31689.75	30798.55
932.3427	2009.9312	31701.55	30811.25
932.4803	2011.5133	31506.95	30618.3
932.6178	2013.0946	31410.45	30520.6
932.7553	2014.6752	31306.8	30418.55
932.8928	2016.2551	31242.65	30350.95
933.0302	2017.8342	31085.35	30194.1
933.1676	2019.4126	30983.85	30093.6
933.305	2020.9902	30852.55	29961.55
933.4424	2022.5672	30814.3	29922.5
933.5798	2024.1433	30708.6	29812.3
933.7171	2025.7188	30543.9	29652.75
933.8544	2027.2935	30485.9	29595.2
933.9917	2028.8674	30321.5	29431.45
934.129	2030.4406	30273.35	29384.4
934.2662	2032.0131	30125.4	29235.9
934.4034	2033.5849	30000.9	29101.45
934.5406	2035.1559	29928.25	29038.5
934.6778	2036.7261	29850.45	28961
934.8149	2038.2957	29822.55	28931.3
934.952	2039.8645	29744.8	28854
935.0891	2041.4325	29730.4	28834.65
935.2262	2042.9998	29559.85	28669.8
935.3632	2044.5664	29502.35	28608.9
935.5002	2046.1323	29367	28477.75
935.6372	2047.6974	29275.95	28385.95
935.7742	2049.2617	29169.55	28278.45
935.9111	2050.8254	29143.9	28233.3
936.048	2052.3883	29097.05	28204.1
936.1849	2053.9504	28943.85	28050.8
936.3218	2055.5118	28897.4	28005.85
936.4586	2057.0725	28703.9	27808.3
936.5955	2058.6325	28658.05	27766.9
936.7323	2060.1917	28574.85	27685.25
936.869	2061.7502	28462.1	27567.75
937.0058	2063.3079	28350.75	27462.35
937.1425	2064.8649	28272.2	27378.5
937.2792	2066.4212	28233.6	27342.5
937.4159	2067.9767	28099.95	27208.95
937.5525	2069.5315	27961.95	27071
937.6891	2071.0856	27827.1	26935
937.8257	2072.6389	27788.45	26894.9
937.9623	2074.1915	27638.25	26748.35
938.0989	2075.7433	27521.05	26629.75
938.2354	2077.2945	27445.9	26554.45
938.3719	2078.8448	27342.55	26453.05
938.5084	2080.3945	27239.55	26348.4
938.6448	2081.9434	27216.5	26327.2
938.7812	2083.4916	27094.1	26203.45
938.9176	2085.039	26996.1	26103.85
939.054	2086.5857	26904.85	26013.25
939.1903	2088.1317	26845.75	25954.1
939.3267	2089.677	26760	25867.3
939.463	2091.2215	26682.85	25793.55
939.5992	2092.7652	26591.9	25697.15
939.7355	2094.3083	26488.35	25596.45
939.8717	2095.8506	26513.9	25622.55
940.0079	2097.3921	26444.8	25556.3
940.1441	2098.933	26342.45	25451.45
940.2802	2100.4731	26244.8	25351.8
940.4163	2102.0124	26227.3	25329.55
940.5524	2103.5511	26106.05	25215.45
940.6885	2105.089	26098.35	25206.4
940.8245	2106.6261	25987.65	25095.4
940.9606	2108.1626	25882.9	24990.65
941.0965	2109.6983	25856.05	24937.85
941.2325	2111.2332	25742.3	24849.35
941.3684	2112.7675	25675	24783.65
941.5044	2114.301	25549.65	24656.4
941.6403	2115.8337	25570.15	24678.6
941.7761	2117.3657	25437	24547.4
941.912	2118.897	25426.95	24534.25
942.0478	2120.4276	25328.35	24432.3
942.1835	2121.9575	25208.9	24320.5
942.3193	2123.4866	25191.4	24285.3
942.455	2125.0149	25089.2	24197.1
942.5907	2126.5426	24943.85	24053.6
942.7264	2128.0695	24895.55	23998.1
942.8621	2129.5956	24801.85	23914.75
942.9977	2131.1211	24756.95	23858.95
943.1333	2132.6458	24676.7	23787.45
943.2689	2134.1698	24632.35	23740.3
943.4044	2135.693	24537.1	23642.65
943.54	2137.2155	24496.1	23602.4
943.6755	2138.7373	24400.7	23508.15
943.8109	2140.2584	24315.4	23425.25
943.9464	2141.7787	24206.25	23310.1
944.0818	2143.2983	24098.75	23208.6
944.2172	2144.8171	24022.2	23133.2
944.3526	2146.3353	23929.8	23035.55
944.4879	2147.8527	23824.55	22935
944.6232	2149.3693	23849.7	22957.55
944.7585	2150.8853	23749.55	22858.15
944.8938	2152.4005	23594.85	22702.4
945.029	2153.9149	23553.35	22661.7
945.1642	2155.4287	23497.9	22606
945.2994	2156.9417	23421.55	22529.35
945.4346	2158.454	23353.85	22460.05
945.5697	2159.9655	23256.6	22365.65
945.7048	2161.4764	23254.5	22363.05
945.8399	2162.9865	23176.6	22285.95
945.9749	2164.4958	23139.15	22247.4
946.1099	2166.0045	23000.9	22105.25
946.2449	2167.5124	23000.5	22110.3
946.3799	2169.0195	22925.5	22034.7
946.5148	2170.526	22855.3	21964.25
946.6498	2172.0317	22774.8	21882.25
946.7846	2173.5367	22688.8	21795.9
946.9195	2175.0409	22661.5	21770.75
947.0543	2176.5445	22618	21726.5
947.1891	2178.0473	22489.7	21600.4
947.3239	2179.5494	22414.7	21519.6
947.4587	2181.0507	22319.25	21428
947.5934	2182.5513	22239.1	21346.75
947.7281	2184.0512	22205.3	21315
947.8628	2185.5504	22100.5	21210.75
947.9974	2187.0488	21971.95	21081.4
948.132	2188.5465	21921.95	21030.35
948.2666	2190.0435	21866.7	20976.05
948.4012	2191.5397	21766.45	20876.95
948.5357	2193.0353	21702.25	20811.9
948.6702	2194.5301	21617.15	20724.1
948.8047	2196.0241	21519.85	20626.45
948.9392	2197.5175	21470.6	20578.15
949.0736	2199.0101	21380.6	20487
949.208	2200.502	21241.7	20352.35
949.3424	2201.9931	21155.4	20265.5
949.4767	2203.4835	21096.55	20203.5
949.611	2204.9733	21073.5	20175.35
949.7453	2206.4622	20975.9	20085.45
949.8796	2207.9505	20886.25	19992.05
950.0138	2209.438	20808.55	19917.2
950.148	2210.9248	20758.1	19866.35
950.2822	2212.4109	20664.05	19773.2
950.4164	2213.8962	20577.75	19681.9
950.5505	2215.3809	20553	19662.4
950.6846	2216.8648	20472.65	19582.15
950.8186	2218.3479	20447.85	19551.55
950.9527	2219.8304	20327.6	19432.3
951.0867	2221.3121	20214.9	19321.15
951.2207	2222.7931	20176.35	19284.9
951.3546	2224.2733	20093.15	19202.35
951.4886	2225.7529	20022	19131
951.6225	2227.2317	19984	19090.55
951.7563	2228.7098	19953.25	19062.55
951.8902	2230.1872	19819.25	18926.05
952.024	2231.6638	19776.55	18885.6
952.1578	2233.1397	19695.15	18798
952.2916	2234.6149	19599.5	18709.35
952.4253	2236.0894	19575.25	18683.85
952.559	2237.5632	19528.9	18626.85
952.6927	2239.0362	19446.65	18554.05
952.8263	2240.5085	19337.05	18445.45
952.9599	2241.9801	19281.8	18390.7
953.0935	2243.4509	19218.25	18327.55
953.2271	2244.921	19142.8	18251.45
953.3606	2246.3904	19062.3	18168.55
953.4941	2247.8591	19007.85	18116.1
953.6276	2249.3271	18958.05	18068.15
953.7611	2250.7943	18909.5	18017.3
953.8945	2252.2608	18813.7	17923.25
954.0279	2253.7266	18778.3	17887.1
954.1612	2255.1917	18702.45	17812.75
954.2946	2256.656	18628.65	17735.7
954.4279	2258.1197	18592.95	17702.4
954.5612	2259.5826	18510.4	17617.15
954.6944	2261.0447	18503.6	17610.45
954.8276	2262.5062	18379.45	17485.85
954.9608	2263.9669	18361.8	17467.55
955.094	2265.4269	18297.5	17408.8
955.2271	2266.8862	18214.8	17323.3
955.3602	2268.3448	18211.65	17318.65
955.4933	2269.8026	18188.75	17297.2
955.6264	2271.2598	18103.6	17211.6
955.7594	2272.7162	18022.7	17132.3
955.8924	2274.1719	17982.3	17091.15
956.0253	2275.6268	17925.35	17034.95
956.1583	2277.0811	17859.45	16967.95
956.2912	2278.5346	17795.95	16904.4
956.4241	2279.9874	17778.8	16886.75
956.5569	2281.4395	17740.65	16848.5
956.6897	2282.8908	17650.05	16754.25
956.8225	2284.3414	17606.9	16713
956.9553	2285.7914	17515.7	16625.35
957.088	2287.2406	17495.75	16603.9
957.2207	2288.689	17422.05	16530.7
957.3534	2290.1368	17360.65	16468.25
957.486	2291.5838	17314.45	16420.35
957.6186	2293.0302	17252.1	16358.1
957.7512	2294.4758	17157	16266.85
957.8838	2295.9206	17101.8	16208.75
958.0163	2297.3648	17060.8	16170.6
958.1488	2298.8082	17043.95	16150.2
958.2813	2300.251	16974.35	16084.3
958.4137	2301.693	16937.3	16043.1
958.5461	2303.1343	16916.55	16024.4
958.6785	2304.5748	16820.5	15929.35
958.8108	2306.0147	16758.6	15869.35
958.9432	2307.4538	16730.85	15836.6
959.0754	2308.8922	16641.35	15751.4
959.2077	2310.3299	16612.25	15722.3
959.3399	2311.7669	16574.15	15682.95
959.4721	2313.2031	16508.1	15617.2
959.6043	2314.6387	16396.2	15503.6
959.7365	2316.0735	16374.05	15480.55
959.8686	2317.5076	16324.6	15432.9
960.0006	2318.941	16258.25	15366.6
960.1327	2320.3737	16210.25	15319.05
960.2647	2321.8056	16164.75	15270.2
960.3967	2323.2369	16135.65	15243.6
960.5287	2324.6674	16065.35	15172.95
960.6606	2326.0972	16001.4	15108
960.7925	2327.5263	15925.9	15036
960.9244	2328.9547	15853.9	14962.8
961.0562	2330.3823	15838.15	14946.15
961.1881	2331.8092	15835.4	14942.45
961.3198	2333.2355	15782.55	14892
961.4516	2334.661	15738.8	14847.2
961.5833	2336.0858	15705.8	14812.6
961.715	2337.5098	15607.1	14717.05
961.8467	2338.9332	15590.05	14698.6
961.9783	2340.3558	15501.3	14606.2
962.1099	2341.7778	15462.9	14572.5
962.2415	2343.199	15405.4	14513.75
962.373	2344.6195	15350	14459.6
962.5045	2346.0393	15321.45	14430.95
962.636	2347.4583	15279.5	14387.35
962.7675	2348.8767	15213.8	14320.3
962.8989	2350.2943	15172.55	14279.1
963.0303	2351.7113	15155.5	14262.75
963.1617	2353.1275	15090.6	14199.55
963.293	2354.543	15061.1	14160.8
963.4243	2355.9578	14996.4	14104.45
963.5556	2357.3718	14901.7	14009.25
963.6868	2358.7852	14831.05	13936.5
963.818	2360.1978	14758.45	13867.3
963.9492	2361.6098	14712.9	13823.8
964.0803	2363.021	14694.75	13800.75
964.2114	2364.4315	14664.9	13774
964.3425	2365.8413	14625.05	13730.6
964.4736	2367.2504	14525.4	13635.05
964.6046	2368.6587	14464.75	13571.1
964.7356	2370.0664	14406.7	13518.5
964.8666	2371.4733	14366.5	13475.55
964.9975	2372.8795	14319.45	13428.65
965.1284	2374.285	14258.15	13366.4
965.2593	2375.6899	14154.45	13263.9
965.3901	2377.0939	14123.9	13234.35
965.5209	2378.4973	14076.55	13186.55
965.6517	2379.9	14028.05	13138.1
965.7825	2381.3019	13971.05	13081.1
965.9132	2382.7032	13915.4	13026.55
966.0439	2384.1037	13896	13007.6
966.1745	2385.5035	13830.75	12940.65
966.3051	2386.9027	13758.45	12866.9
966.4357	2388.3011	13757.7	12864.55
966.5663	2389.6987	13723.55	12832.35
966.6968	2391.0957	13632.5	12742.95
966.8273	2392.492	13573.55	12684.05
966.9578	2393.8876	13468.7	12578.5
967.0882	2395.2824	13434.3	12544.8
967.2186	2396.6765	13424.7	12535.8
967.349	2398.07	13317.65	12427.25
967.4793	2399.4627	13290.6	12400.1
967.6097	2400.8547	13259.6	12368.3
967.7399	2402.246	13187.1	12290.4
967.8702	2403.6366	13102.9	12213.2
968.0004	2405.0265	13079.05	12188.5
968.1306	2406.4156	13030.55	12134.1
968.2607	2407.8041	12973.2	12079.5
968.3909	2409.1918	12898.7	12005.2
968.521	2410.5789	12847.45	11955.5
968.651	2411.9652	12819.2	11925.65
968.781	2413.3508	12801.35	11911.7
968.911	2414.7358	12742.95	11849.75
969.041	2416.12	12680.9	11792.25
969.1709	2417.5035	12663.95	11773.65
969.3008	2418.8863	12611.25	11719.15
969.4307	2420.2684	12565.3	11677.3
969.5606	2421.6497	12504.4	11613.45
969.6904	2423.0304	12441.15	11551.4
969.8201	2424.4104	12395.75	11505.25
969.9499	2425.7896	12371.55	11479.7
970.0796	2427.1682	12335.3	11443.9
970.2093	2428.546	12292.1	11399.6
970.3389	2429.9232	12253.5	11362.75
970.4685	2431.2996	12223.85	11332.2
970.5981	2432.6753	12185.1	11296.1
970.7277	2434.0503	12181.25	11290.65
970.8572	2435.4246	12108.45	11217.85
970.9867	2436.7982	12030.7	11139.6
971.1161	2438.1711	12020.9	11129.8
971.2456	2439.5433	11988.95	11096.9
971.375	2440.9148	11905	11013.45
971.5043	2442.2856	11857.05	10967.25
971.6336	2443.6557	11841.5	10948.2
971.7629	2445.025	11791.7	10901.05
971.8922	2446.3937	11766.3	10874.8
972.0214	2447.7617	11715.6	10824.15
972.1506	2449.1289	11695.4	10805.3
972.2798	2450.4955	11639.75	10745.05
972.4089	2451.8613	11619.8	10731.2
972.538	2453.2265	11575.25	10685.45
972.6671	2454.5909	11535.25	10645.15
972.7961	2455.9546	11508.05	10617.2
972.9251	2457.3177	11468.6	10578.8
973.0541	2458.68	11452.5	10560.05
973.1831	2460.0416	11434.55	10544.6
973.312	2461.4025	11406.4	10514.1
973.4408	2462.7627	11351.8	10449.8
973.5697	2464.1222	11323.9	10432.3
973.6985	2465.4811	11281.35	10389.55
973.8273	2466.8392	11210.4	10319.5
973.956	2468.1966	11215.2	10322.45
974.0847	2469.5533	11196.8	10303.4
974.2134	2470.9093	11157.95	10265.35
974.3421	2472.2645	11126.5	10235.35
974.4707	2473.6191	11096.2	10205.55
974.5993	2474.973	11043.15	10152.55
974.7278	2476.3262	10991.4	10101.65
974.8563	2477.6787	10971.1	10081.55
974.9848	2479.0305	10901.7	10013.25
975.1132	2480.3816	10889.35	9995.5
975.2417	2481.7319	10855.1	9961.45
975.37	2483.0816	10799.75	9907.4
975.4984	2484.4306	10713.3	9819.55
975.6267	2485.7789	10709	9818.65
975.755	2487.1264	10674.15	9782.8
975.8833	2488.4733	10607.5	9719.15
976.0115	2489.8195	10580.3	9673
976.1397	2491.165	10534.05	9639.6
976.2678	2492.5097	10529.8	9639.2
976.3959	2493.8538	10433.45	9543.65
976.524	2495.1972	10382.55	9491.05
976.6521	2496.5398	10380.05	9490.65
976.7801	2497.8818	10342.25	9450.35
976.9081	2499.2231	10312.9	9421.65
977.036	2500.5637	10253.35	9361
977.164	2501.9035	10222.8	9331.2
977.2918	2503.2427	10180.85	9286.45
977.4197	2504.5812	10155.1	9262.35
977.5475	2505.919	10150.45	9258.55
977.6753	2507.256	10145.25	9253.65
977.8031	2508.5924	10057.1	9167.55
977.9308	2509.9281	10018.15	9121.5
978.0585	2511.2631	9993.3	9103.35
978.1861	2512.5974	9963.85	9072.15
978.3137	2513.9309	9926	9035.45
978.4413	2515.2638	9891.75	8976.5
978.5689	2516.596	9848.25	8958.35
978.6964	2517.9275	9796.9	8903.65
978.8239	2519.2583	9797.4	8906.75
978.9513	2520.5884	9741.9	8850.9
979.0788	2521.9178	9697.9	8805.2
979.2062	2523.2465	9664.4	8772.55
979.3335	2524.5745	9623.7	8733.15
979.4608	2525.9018	9593.7	8702.85
979.5881	2527.2284	9573	8682
979.7154	2528.5543	9535.1	8645.45
979.8426	2529.8796	9520.1	8628.4
979.9698	2531.2041	9483.55	8592.8
980.0969	2532.5279	9481.65	8592.3
980.224	2533.851	9471.75	8581.8
980.3511	2535.1735	9418	8526.3
980.4781	2536.4952	9393.15	8502.7
980.6052	2537.8163	9393.75	8502.85
980.7321	2539.1366	9351.8	8462.3
980.8591	2540.4562	9304.75	8412.45
980.986	2541.7752	9317.85	8426.65
981.1129	2543.0935	9272.75	8382.25
981.2397	2544.411	9221.65	8331.05
981.3665	2545.7279	9230.7	8340.5
981.4933	2547.0441	9206.45	8317.55
981.62	2548.3596	9207.75	8315.5
981.7467	2549.6744	9169.3	8277.1
981.8734	2550.9885	9130.25	8236.05
982.0001	2552.3019	9102.7	8211.55
982.1267	2553.6146	9067.4	8175.15
982.2532	2554.9266	9039.3	8148.35
982.3798	2556.2379	9005.3	8111.95
982.5063	2557.5485	9015.75	8125.1
982.6327	2558.8585	8989.7	8089
982.7592	2560.1677	8950.35	8056.9
982.8856	2561.4762	8931.3	8038.8
983.0119	2562.7841	8921.75	8028.7
983.1383	2564.0913	8898.35	8008.1
983.2646	2565.3977	8862.3	7970.8
983.3908	2566.7035	8819.4	7929.15
983.517	2568.0086	8840.15	7945.15
983.6432	2569.313	8807.35	7915.15
983.7694	2570.6167	8772.35	7878.1
983.8955	2571.9197	8765.55	7876.05
984.0216	2573.222	8739.35	7845.8
984.1476	2574.5236	8713.5	7820.45
984.2737	2575.8246	8691.25	7796.6
984.3996	2577.1248	8669.65	7774.5
984.5256	2578.4244	8667.85	7776.95
984.6515	2579.7232	8634.4	7744.1
984.7774	2581.0214	8641.55	7726.7
984.9032	2582.3189	8604.7	7713.1
985.029	2583.6157	8574.05	7679.9
985.1548	2584.9118	8554.55	7664.05
985.2806	2586.2072	8516.05	7627.5
985.4063	2587.5019	8493.85	7603.4
985.5319	2588.7959	8462.55	7571.9
985.6576	2590.0893	8466.7	7573.35
985.7832	2591.3819	8455.1	7566.1
985.9087	2592.6739	8416.55	7526.6
986.0343	2593.9652	8383.25	7491.2
986.1597	2595.2557	8362.6	7471
986.2852	2596.5456	8317.75	7426.2
986.4106	2597.8348	8313.05	7420.95
986.536	2599.1234	8275.7	7386.05
986.6614	2600.4112	8247.15	7357.6
986.7867	2601.6983	8237.35	7343.15
986.912	2602.9848	8167.65	7276.45
987.0372	2604.2705	8161.5	7262.5
987.1624	2605.5556	8147.15	7255.95
987.2876	2606.84	8095.85	7203.95
987.4128	2608.1237	8081.7	7190.75
987.5379	2609.4067	8042.15	7152.1
987.6629	2610.689	8014.95	7116.7
987.788	2611.9707	8002.85	7108.85
987.913	2613.2516	7939.6	7045
988.0379	2614.5319	7913.05	7022.55
988.1629	2615.8115	7892.85	7001.1
988.2878	2617.0903	7861.05	6968.65
988.4126	2618.3685	7821.35	6930.5
988.5375	2619.6461	7784.65	6892.5
988.6622	2620.9229	7772.35	6880.55
988.787	2622.199	7770.9	6879.65
988.9117	2623.4745	7742.65	6853.3
989.0364	2624.7493	7723.05	6833.75
989.161	2626.0234	7682.55	6791.8
989.2857	2627.2968	7638.75	6749.35
989.4102	2628.5695	7618.9	6726.5
989.5348	2629.8415	7595.1	6703.65
989.6593	2631.1128	7555	6663.25
989.7837	2632.3835	7522.15	6631.7
989.9082	2633.6535	7494.25	6604.05
990.0326	2634.9228	7462.45	6571.3
990.1569	2636.1914	7451.25	6562.1
990.2812	2637.4593	7430.95	6538.4
990.4055	2638.7265	7394.75	6503.6
990.5298	2639.9931	7387.95	6498.1
990.654	2641.259	7375.3	6485.45
990.7782	2642.5242	7339.65	6448.55
990.9023	2643.7887	7321.2	6430.7
991.0264	2645.0525	7303.7	6412.6
991.1505	2646.3156	7269.2	6377
991.2745	2647.5781	7257.6	6366.55
991.3985	2648.8398	7207.05	6316.95
991.5225	2650.1009	7184.15	6285.2
991.6464	2651.3613	7186.55	6295.3
991.7703	2652.6211	7145.75	6253.5
991.8942	2653.8801	7112.4	6220.2
992.018	2655.1385	7106.7	6211.3
992.1418	2656.3961	7098.65	6207.8
992.2655	2657.6531	7072.9	6182.65
992.3892	2658.9094	7061.65	6169.45
992.5129	2660.1651	7019.15	6131.1
992.6366	2661.42	7011.3	6121.2
992.7602	2662.6743	6980.75	6087.4
992.8837	2663.9279	6975.15	6085.35
993.0073	2665.1808	6954.8	6063
993.1307	2666.433	6938.95	6047.1
993.2542	2667.6846	6912.05	6022.4
993.3776	2668.9354	6920.15	6024.85
993.501	2670.1856	6887.35	5996.45
993.6244	2671.4351	6870.6	5981.15
993.7477	2672.6839	6848.7	5956.85
993.8709	2673.9321	6835.05	5944.65
993.9942	2675.1795	6814.45	5922.95
994.1174	2676.4263	6796.55	5904.8
994.2405	2677.6724	6760.95	5872.05
994.3637	2678.9179	6761	5868.5
994.4868	2680.1626	6739.3	5847.5
994.6098	2681.4067	6728.15	5836.35
994.7328	2682.6501	6713.4	5822.95
994.8558	2683.8928	6670.4	5781.05
994.9788	2685.1348	6642.25	5750.3
995.1017	2686.3761	6611.75	5721.8
995.2245	2687.6168	6601.85	5712.95
995.3474	2688.8568	6579.8	5688.5
995.4702	2690.0961	6551.15	5661.6
995.5929	2691.3348	6539.75	5648.05
995.7156	2692.5727	6503.6	5611.8
995.8383	2693.81	6480.9	5590.15
995.961	2695.0466	6480.4	5591.15
996.0836	2696.2826	6434.2	5542.75
996.2062	2697.5178	6422	5531.15
996.3287	2698.7524	6422.1	5530.4
996.4512	2699.9863	6402.5	5509.05
996.5737	2701.2195	6390.05	5499.5
996.6961	2702.452	6348.65	5456.05
996.8185	2703.6839	6344.05	5449.7
996.9408	2704.9151	6333	5444.15
997.0631	2706.1456	6298.3	5408.3
997.1854	2707.3755	6290	5398.55
997.3077	2708.6046	6279.5	5386.7
997.4299	2709.8331	6240.15	5348.6
997.552	2711.0609	6231.3	5340.3
997.6742	2712.2881	6243.3	5352.65
997.7963	2713.5145	6227.9	5335.85
997.9183	2714.7403	6206.7	5318.55
998.0403	2715.9654	6178.25	5287.45
998.1623	2717.1899	6189.5	5283.8
998.2842	2718.4136	6161.45	5271.85
998.4062	2719.6367	6178	5287.65
998.528	2720.8591	6175.75	5279
998.6498	2722.0809	6137.85	5246.3
998.7716	2723.3019	6122.25	5228.05
998.8934	2724.5223	6112.05	5220.45
999.0151	2725.7421	6102.55	5208.55
999.1368	2726.9611	6080.6	5187.5
999.2584	2728.1795	6066.4	5170.6
999.38	2729.3972	6035.8	5147.2
999.5016	2730.6142	6011.8	5109.35
999.6231	2731.8306	5957.8	5067.6
999.7446	2733.0462	5943.1	5051.05
999.8661	2734.2612	5887.95	4991.9
999.9875	2735.4756	5854.9	4963.2
1000.1089	2736.6892	5822.7	4931.9
1000.2302	2737.9022	5808.75	4919.35
1000.3515	2739.1145	5769.35	4877.95
1000.4728	2740.3262	5759.45	4861.25
1000.594	2741.5372	5682.15	4793.1
1000.7152	2742.7475	5667.2	4775.25
1000.8363	2743.9571	5638.35	4743.6
1000.9575	2745.1661	5630.75	4734.1
1001.0785	2746.3744	5600.9	4709.6
1001.1996	2747.582	5582.55	4690.85
1001.3206	2748.7889	5540.4	4648.05
1001.4415	2749.9952	5531	4641.05
1001.5625	2751.2008	5519.7	4629.55
1001.6833	2752.4057	5491.25	4599.05
1001.8042	2753.61	5479	4587.7
1001.925	2754.8136	5449.15	4556.8
1002.0458	2756.0165	5448.55	4557.1
1002.1665	2757.2188	5424.45	4532.8
1002.2872	2758.4204	5396.65	4507.75
1002.4078	2759.6213	5380.35	4488.8
1002.5285	2760.8215	5376.7	4481.2
1002.649	2762.0211	5360.3	4469.8
1002.7696	2763.22	5327.3	4432.55
1002.8901	2764.4182	5325.55	4434.95
1003.0106	2765.6158	5297.65	4407.45
1003.131	2766.8127	5282	4392.65
1003.2514	2768.009	5260.35	4369.1
1003.3717	2769.2045	5249.6	4357.7
1003.492	2770.3994	5246.5	4354.35
1003.6123	2771.5936	5206.85	4313.75
1003.7325	2772.7872	5175.2	4283.95
1003.8527	2773.9801	5173.75	4281.85
1003.9729	2775.1723	5170.35	4262.9
1004.093	2776.3639	5128	4240.15
1004.2131	2777.5548	5115.85	4223.75
1004.3331	2778.745	5100.05	4207.9
1004.4531	2779.9346	5089.75	4200.55
1004.5731	2781.1235	5107.45	4217
1004.693	2782.3117	5062.7	4175.65
1004.8129	2783.4992	5044.55	4153.75
1004.9328	2784.6861	5033	4141.95
1005.0526	2785.8723	5021.35	4128.45
1005.1723	2787.0579	5030.25	4136.45
1005.2921	2788.2428	5014.15	4124.55
1005.4118	2789.427	4993.85	4103.4
1005.5314	2790.6106	4992.95	4103.85
1005.651	2791.7935	4983.1	4093.05
1005.7706	2792.9757	4976.7	4087.95
1005.8902	2794.1573	4971.05	4077.75
1006.0097	2795.3382	4962.55	4072.2
1006.1291	2796.5184	4966.3	4077
1006.2485	2797.698	4986.7	4093.8
1006.3679	2798.8769	4967.35	4075.9
1006.4873	2800.0551	4977.9	4086.2
1006.6066	2801.2327	4982.75	4090.65
1006.7258	2802.4096	4964.1	4074.8
1006.8451	2803.5859	4978.75	4086.7
1006.9642	2804.7615	4982.05	4091.3
1007.0834	2805.9364	5010.45	4121.75
1007.2025	2807.1106	5009.8	4120.4
1007.3216	2808.2842	5029.5	4137.75
1007.4406	2809.4572	5042.3	4152.35
1007.5596	2810.6294	5056.75	4165.55
1007.6785	2811.801	5074.45	4185.6
1007.7975	2812.972	5105.85	4215.65
1007.9163	2814.1423	5124.55	4235.9
1008.0352	2815.3119	5171.7	4280.9
1008.154	2816.4808	5212.5	4321
1008.2727	2817.6491	5250.1	4359.4
1008.3914	2818.8167	5265.95	4375.75
1008.5101	2819.9837	5323.75	4429.8
1008.6288	2821.15	5339.5	4447.85
1008.7474	2822.3157	5389.15	4498.9
1008.8659	2823.4807	5407.3	4515.85
1008.9844	2824.645	5440.95	4549.35
1009.1029	2825.8086	5447.85	4558.45
1009.2214	2826.9716	5496.5	4606.7
1009.3398	2828.134	5551.55	4660.55
1009.4581	2829.2957	5564.3	4675.75
1009.5764	2830.4567	5581.75	4693.05
1009.6947	2831.617	5581.55	4689.55
1009.813	2832.7767	5592.95	4702.55
1009.9312	2833.9358	5587.3	4698.6
1010.0493	2835.0941	5568.6	4675.7
1010.1675	2836.2519	5546.25	4655
1010.2855	2837.4089	5515	4622.45
1010.4036	2838.5653	5509.7	4619.75
1010.5216	2839.7211	5495.85	4607.7
1010.6396	2840.8761	5497.45	4604.25
1010.7575	2842.0306	5511	4622.25
1010.8754	2843.1843	5549.8	4658.65
1010.9932	2844.3374	5579	4689.8
1011.111	2845.4899	5642.15	4750.6
1011.2288	2846.6417	5693.5	4803.85
1011.3465	2847.7928	5748.65	4859.3
1011.4642	2848.9433	5842.95	4954.7
1011.5818	2850.0931	5891.45	5001.95
1011.6995	2851.2422	5954.8	5064.55
1011.817	2852.3907	6011.1	5118.1
1011.9345	2853.5385	6071.15	5178.95
1012.052	2854.6857	6142.1	5226
1012.1695	2855.8323	6170.8	5280.35
1012.2869	2856.9781	6190.5	5301.05
1012.4042	2858.1233	6230.55	5340.6
1012.5216	2859.2679	6242.25	5355.15
1012.6389	2860.4118	6293.65	5404.55
1012.7561	2861.555	6317.6	5422.15
1012.8733	2862.6976	6326.3	5435.85
1012.9905	2863.8395	6356.65	5467.15
1013.1076	2864.9808	6367.1	5477.35
1013.2247	2866.1214	6358.95	5468.25
1013.3417	2867.2614	6372.05	5481.8
1013.4587	2868.4007	6365.3	5474.4
1013.5757	2869.5393	6374.7	5483.6
1013.6926	2870.6773	6375.4	5481.9
1013.8095	2871.8146	6368.7	5475.95
1013.9263	2872.9513	6363.55	5470.55
1014.0431	2874.0874	6352.6	5460.9
1014.1599	2875.2227	6316.35	5427.3
1014.2766	2876.3574	6293	5403.15
1014.3933	2877.4915	6262.6	5373.15
1014.51	2878.6249	6216.9	5328.9
1014.6266	2879.7577	6198.15	5306.55
1014.7431	2880.8898	6160.7	5258.05
1014.8596	2882.0212	6114.3	5224.55
1014.9761	2883.152	6095.25	5203.85
1015.0925	2884.2821	6078.35	5190.4
1015.2089	2885.4116	6055.35	5168.15
1015.3253	2886.5405	6045.6	5155.1
1015.4416	2887.6686	6057.8	5164.15
1015.5579	2888.7962	6031.6	5142.8
1015.6741	2889.923	6022	5133.2
1015.7903	2891.0493	6036.6	5147.8
1015.9065	2892.1748	6026.75	5136.25
1016.0226	2893.2997	6018.55	5127.5
1016.1387	2894.424	6024.65	5134.55
1016.2547	2895.5476	6033.15	5143.4
1016.3707	2896.6706	6058.35	5171.15
1016.4866	2897.7929	6064.05	5175.4
1016.6025	2898.9145	6073.25	5182.55
1016.7184	2900.0355	6086.6	5196.1
1016.8342	2901.1559	6108.1	5217.55
1016.95	2902.2756	6131.55	5241.85
1017.0658	2903.3946	6163.55	5272.4
1017.1815	2904.513	6194.25	5300.35
1017.2971	2905.6308	6198.35	5307.3
1017.4127	2906.7479	6175.75	5284.6
1017.5283	2907.8643	6205.05	5315.3
1017.6439	2908.9801	6223.5	5333.05
1017.7594	2910.0953	6217.35	5327
1017.8748	2911.2098	6202.45	5307.9
1017.9902	2912.3236	6189.35	5292.75
1018.1056	2913.4368	6150.85	5257.25
1018.2209	2914.5494	6138.25	5247.4
1018.3362	2915.6613	6106.8	5212.1
1018.4515	2916.7725	6057.45	5166.05
1018.5667	2917.8831	6023.85	5132.8
1018.6819	2918.9931	5995.95	5106.05
1018.797	2920.1024	5938.65	5045.85
1018.9121	2921.211	5933.4	5044.45
1019.0271	2922.319	5901.7	5011
1019.1421	2923.4264	5868.85	4978.85
1019.2571	2924.5331	5842.85	4953.75
1019.372	2925.6391	5813.05	4922.45
1019.4869	2926.7445	5797.1	4909
1019.6017	2927.8493	5788.7	4899.1
1019.7165	2928.9534	5767.3	4875.4
1019.8313	2930.0569	5756.4	4862.75
1019.946	2931.1597	5732.55	4842
1020.0606	2932.2619	5692.8	4804.65
1020.1753	2933.3634	5694	4805.5
1020.2899	2934.4643	5685.85	4789.05
1020.4044	2935.5645	5671.6	4773.05
1020.5189	2936.6641	5608.1	4712.85
1020.6334	2937.763	5554.9	4667.1
1020.7478	2938.8613	5501.75	4613.3
1020.8622	2939.959	5432.5	4539.2
1020.9765	2941.056	5361.45	4473
1021.0908	2942.1523	5264.8	4375.25
1021.2051	2943.248	5175.65	4283.45
1021.3193	2944.3431	5057.75	4168.1
1021.4334	2945.4375	4962.35	4070.2
1021.5476	2946.5313	4850.5	3961.7
1021.6617	2947.6244	4737.8	3847.4
1021.7757	2948.7169	4637.35	3747.7
1021.8897	2949.8087	4529.3	3638.2
1022.0037	2950.8999	4418.15	3527.7
1022.1176	2951.9904	4344	3455.45
1022.2315	2953.0803	4246.45	3355.75
1022.3453	2954.1696	4175.75	3284.55
1022.4591	2955.2582	4116.6	3227.85
1022.5728	2956.3462	4066.9	3178.15
1022.6865	2957.4335	4008	3117.9
1022.8002	2958.5202	3980.6	3089.85
1022.9138	2959.6062	3930.25	3039.85
1023.0274	2960.6916	3905.4	3016.9
1023.141	2961.7764	3875.05	2984.2
1023.2545	2962.8605	3847	2957.6
1023.3679	2963.9439	3845.05	2956
1023.4813	2965.0267	3812.95	2921.5
1023.5947	2966.1089	3805.15	2891.6
1023.708	2967.1905	3771.3	2880.8
1023.8213	2968.2714	3762.95	2874.9
1023.9346	2969.3516	3748.1	2859.45
1024.0478	2970.4312	3745.95	2846.8
1024.1609	2971.5102	3740.95	2850.6
1024.274	2972.5885	3738.7	2849.15
1024.3871	2973.6662	3723.4	2828.7
1024.5002	2974.7432	3712.8	2823.7
1024.6132	2975.8196	3704.3	2814.7
1024.7261	2976.8954	3686.3	2797.65
1024.839	2977.9705	3658.45	2768.85
1024.9519	2979.045	3626.7	2737.25
1025.0647	2980.1188	3619.05	2728.85
1025.1775	2981.192	3587.2	2698.05
1025.2902	2982.2645	3586.15	2696.45
1025.4029	2983.3364	3535.75	2645.7
1025.5156	2984.4077	3495.15	2605.45
1025.6282	2985.4783	3466.7	2568.9
1025.7407	2986.5483	3431.15	2541.65
1025.8532	2987.6177	3389.65	2500.9
1025.9657	2988.6864	3344.85	2454.4
1026.0782	2989.7545	3304.2	2414.2
1026.1906	2990.8219	3254.95	2364.8
1026.3029	2991.8887	3214.7	2320.95
1026.4152	2992.9548	3193.5	2304.35
1026.5275	2994.0204	3152.55	2262.3
1026.6397	2995.0852	3124.05	2237.45
1026.7519	2996.1495	3091	2201.3
1026.864	2997.2131	3063.4	2173.2
1026.9761	2998.276	3033.4	2144.55
1027.0882	2999.3383	3007.6	2117.5
1027.2002	3000.4	2983.1	2091.25
1027.3122	3001.4611	2955.4	2066
1027.4241	3002.5215	2946	2056.25
1027.536	3003.5812	2926.45	2037.1
1027.6478	3004.6404	2899	2009.75
1027.7596	3005.6989	2886.1	1994.25
1027.8714	3006.7567	2865.5	1977.25
1027.9831	3007.8139	2893	1980.9
1028.0947	3008.8705	2845.9	1957
1028.2064	3009.9264	2845.65	1952.6
1028.3179	3010.9818	2824.4	1935.35
1028.4295	3012.0364	2811.8	1921.5
1028.541	3013.0905	2811.1	1920.4
1028.6524	3014.1439	2799.5	1909.9
1028.7638	3015.1966	2791.6	1901.9
1028.8752	3016.2487	2781.65	1892.25
1028.9865	3017.3002	2778	1886.55
1029.0978	3018.3511	2774.2	1886.65
1029.209	3019.4013	2753.65	1864.95
1029.3202	3020.4509	2764.15	1876.25
1029.4314	3021.4998	2766.1	1877.2
1029.5425	3022.5481	2743.5	1855.45
1029.6535	3023.5958	2744.2	1855.25
1029.7645	3024.6428	2743.85	1852.45
1029.8755	3025.6892	2733	1844.65
1029.9864	3026.735	2726.15	1835.9
1030.0973	3027.7802	2728.35	1839
1030.2082	3028.8247	2708.9	1820.3
1030.319	3029.8685	2701.2	1811.1
1030.4297	3030.9118	2703.8	1813.6
1030.5404	3031.9544	2714.75	1825.45
1030.6511	3032.9963	2715.7	1825.55
1030.7617	3034.0376	2711.4	1822.9
1030.8723	3035.0783	2707	1815.2
1030.9829	3036.1184	2696.9	1806.85
1031.0934	3037.1578	2701.35	1811.55
1031.2038	3038.1966	2701.1	1810.35
1031.3142	3039.2348	2681.55	1793.55
1031.4246	3040.2723	2684.7	1786.65
1031.5349	3041.3092	2680.2	1794.2
1031.6452	3042.3455	2667	1776.25
1031.7554	3043.3811	2656.55	1766.55
1031.8656	3044.4161	2652.55	1762.65
1031.9758	3045.4505	2630.1	1740.4
1032.0859	3046.4842	2627.1	1738.1
1032.1959	3047.5173	2610.25	1720.7
1032.3059	3048.5498	2590.25	1700.85
1032.4159	3049.5816	2590.5	1702.95
1032.5258	3050.6128	2575.45	1684.5
1032.6357	3051.6434	2574.55	1682.15
1032.7455	3052.6734	2561	1670.45
1032.8553	3053.7027	2551.45	1661.6
1032.9651	3054.7314	2540.8	1651.65
1033.0748	3055.7594	2521.7	1630.8
1033.1845	3056.7868	2522.75	1631.85
1033.2941	3057.8136	2502.85	1613.15
1033.4037	3058.8398	2489.85	1602.55
1033.5132	3059.8653	2479.95	1592.85
1033.6227	3060.8902	2470.65	1579.95
1033.7321	3061.9145	2462.35	1572.9
1033.8415	3062.9381	2461.05	1572.1
1033.9509	3063.9612	2455.5	1549.9
1034.0602	3064.9835	2432.2	1541.6
1034.1694	3066.0053	2426.5	1535
1034.2787	3067.0264	2409.65	1522.35
1034.3878	3068.0469	2399.45	1509.7
1034.497	3069.0668	2395.8	1504.15
1034.6061	3070.086	2383.45	1493.8
1034.7151	3071.1046	2362.55	1472.5
1034.8241	3072.1226	2347.95	1457.35
1034.9331	3073.1399	2336.9	1447.5
1035.042	3074.1567	2318.05	1426.55
1035.1508	3075.1727	2303.25	1411.7
1035.2597	3076.1882	2285.9	1395.8
1035.3684	3077.203	2286	1396
1035.4772	3078.2173	2260.65	1372.85
1035.5859	3079.2308	2248.7	1355.8
1035.6945	3080.2438	2247.15	1355.75
1035.8031	3081.2561	2237.3	1346.55
1035.9117	3082.2678	2216	1328.45
1036.0202	3083.2789	2213.55	1324.55
1036.1286	3084.2893	2200.3	1308.85
1036.2371	3085.2991	2186.85	1298.05
1036.3454	3086.3083	2172.75	1279.1
1036.4538	3087.3169	2170.9	1279.15
1036.562	3088.3248	2158.25	1268.9
1036.6703	3089.3321	2143.1	1252.15
1036.7785	3090.3388	2143.5	1255.45
1036.8866	3091.3449	2139.55	1250.9
1036.9948	3092.3503	2128.35	1237.65
1037.1028	3093.3551	2121.5	1232.55
1037.2108	3094.3593	2110.45	1221.6
1037.3188	3095.3629	2096.9	1209.65
1037.4267	3096.3658	2089.15	1200.95
1037.5346	3097.3681	2090.8	1200.8
1037.6425	3098.3698	2073.85	1182.3
1037.7503	3099.3708	2078	1181.95
1037.858	3100.3713	2063.95	1175.1
1037.9657	3101.3711	2054.3	1166.65
1038.0734	3102.3702	2170.35	1142.85
1038.181	3103.3688	2055.5	1166
1038.2886	3104.3667	2025.5	1137.95
1038.3961	3105.364	2020.8	1132.65
1038.5036	3106.3607	2023.1	1132.75
1038.611	3107.3568	2013.3	1122.5
1038.7184	3108.3522	2000.95	1111.9
1038.8257	3109.347	1999.4	1108.9
1038.933	3110.3412	1993.75	1102.95
1039.0403	3111.3348	1990.7	1102.45
1039.1475	3112.3277	1969	1081.15
1039.2547	3113.32	1965.95	1077.85
1039.3618	3114.3117	1958.05	1066.85
1039.4689	3115.3028	1963.05	1072.95
1039.5759	3116.2932	1949.15	1058.25
1039.6829	3117.2831	1949.65	1053.25
1039.7898	3118.2723	1936.25	1047.05
1039.8967	3119.2608	1935.05	1046.55
1040.0035	3120.2488	1930.55	1042.05
1040.1103	3121.2361	1916.45	1028.7
1040.2171	3122.2229	1911.9	1023.8
1040.3238	3123.209	1906.7	1018.65
1040.4305	3124.1944	1908.7	1018.55
1040.5371	3125.1793	1899	1007.4
1040.6437	3126.1635	1895.05	1007.3
1040.7502	3127.1471	1889.9	1000.85
1040.8567	3128.1301	1876.95	988.1
1040.9631	3129.1125	1875.8	985.35
1041.0695	3130.0942	1875.3	985.15
1041.1759	3131.0753	1875.4	977.65
1041.2822	3132.0558	1879.25	986.35
1041.3884	3133.0357	1857.45	968.65
1041.4946	3134.015	1859.25	969.5
1041.6008	3134.9936	1856.65	965.55
1041.7069	3135.9716	1861.2	951.35
1041.813	3136.949	1844.05	952.55
1041.919	3137.9258	1846.35	952.7
1042.025	3138.902	1829.45	934.95
1042.1309	3139.8775	1831.5	943.3
1042.2368	3140.8524	1821.2	930.9
1042.3427	3141.8267	1812.45	922.15
1042.4485	3142.8004	1804.35	914.45
1042.5542	3143.7735	1807.55	912.7
1042.6599	3144.7459	1816.85	926.4
1042.7656	3145.7178	1810.15	919.75
1042.8712	3146.689	1798.55	909.6
1042.9768	3147.6596	1792.6	902.5
1043.0823	3148.6295	1782	891.35
1043.1878	3149.5989	1772.45	881.25
1043.2932	3150.5676	1781.1	893.55
1043.3986	3151.5357	1783.55	897.3
1043.5039	3152.5032	1763.35	874.95
1043.6092	3153.4701	1762.6	874.45
1043.7145	3154.4364	1755.8	864.85
1043.8197	3155.402	1758.7	869.45
1043.9248	3156.367	1753	862.25
1044.03	3157.3315	1777.5	844.55
1044.135	3158.2952	1739	850.1
1044.24	3159.2584	1733.45	844
1044.345	3160.221	1723.55	834.8
1044.4499	3161.1829	1713.7	824.55
1044.5548	3162.1442	1709.85	819.4
1044.6596	3163.105	1712.45	824.75
1044.7644	3164.065	1704	814.9
1044.8692	3165.0245	1697.2	804.35
1044.9739	3165.9834	1696.05	808.45
1045.0785	3166.9416	1687.8	800.25
1045.1831	3167.8993	1686.95	796.3
1045.2877	3168.8563	1683.45	792.3
1045.3922	3169.8127	1672.85	781.8
1045.4966	3170.7684	1674	785.2
1045.6011	3171.7236	1674.45	784.3
1045.7054	3172.6782	1665.6	775.75
1045.8098	3173.6321	1662.1	771.65
1045.914	3174.5854	1666.85	774.1
1046.0183	3175.5381	1652.1	761.25
1046.1224	3176.4902	1651.95	764.1
1046.2266	3177.4417	1639.75	751.75
1046.3307	3178.3926	1635.65	747.9
1046.4347	3179.3428	1634.4	746.2
1046.5387	3180.2924	1633.9	745.45
1046.6427	3181.2415	1627.9	739
1046.7466	3182.1899	1623.7	733.45
1046.8504	3183.1377	1613.8	725.8
1046.9542	3184.0848	1622	729.3
1047.058	3185.0314	1612.2	724.35
1047.1617	3185.9773	1608.75	720.2
1047.2654	3186.9227	1602.85	714.9
1047.369	3187.8674	1597.3	711.1
1047.4726	3188.8115	1599.65	706
1047.5761	3189.755	1591.2	700
1047.6796	3190.6979	1590.9	702.1
1047.783	3191.6402	1583.75	695.3
1047.8864	3192.5818	1588.4	700.05
1047.9898	3193.5229	1588.8	686.9
1048.0931	3194.4633	1575	685.4
1048.1963	3195.4031	1570.9	681.95
1048.2995	3196.3423	1571	682.65
1048.4027	3197.2809	1566.3	678.2
1048.5058	3198.2189	1560.9	671.05
1048.6089	3199.1563	1560.6	664.7
1048.7119	3200.0931	1552.7	663
1048.8148	3201.0292	1542.8	655.25
1048.9178	3201.9648	1543.55	652.75
1049.0206	3202.8997	1547.45	655.9
1049.1235	3203.834	1538.6	649.5
1049.2262	3204.7677	1539.25	650.3
1049.329	3205.7008	1540.75	650.35
1049.4317	3206.6333	1530.4	643.5
1049.5343	3207.5652	1533.2	641.8
1049.6369	3208.4964	1527.35	636.95
1049.7394	3209.4271	1526.3	636.8
1049.8419	3210.3571	1508.5	619.5
1049.9444	3211.2865	1513.7	624.5
1050.0468	3212.2154	1515.3	626.5
1050.1491	3213.1436	1509.45	619.35
1050.2514	3214.0712	1513.25	617.55
1050.3537	3214.9982	1514	625.35
1050.4559	3215.9246	1502.85	616.4
1050.5581	3216.8503	1495.8	608.15
1050.6602	3217.7755	1506.85	617.7
1050.7623	3218.7001	1490.7	603.15
1050.8643	3219.624	1495.9	604.75
1050.9663	3220.5473	1485.4	595.45
1051.0682	3221.4701	1481.1	591.8
1051.1701	3222.3922	1475.5	584.2
1051.2719	3223.3137	1479.85	591.05
1051.3737	3224.2346	1474.25	586.45
1051.4754	3225.1549	1465	576.05
1051.5771	3226.0746	1468.15	579.9
1051.6788	3226.9937	1459.45	570.8
1051.7804	3227.9121	1459.9	572.35
1051.8819	3228.83	1455.9	567.55
1051.9834	3229.7473	1452.55	562.95
1052.0849	3230.6639	1456.2	566.15
1052.1863	3231.5799	1453.95	564.9
1052.2876	3232.4954	1440.25	551.3
1052.3889	3233.4102	1436.2	547.95
1052.4902	3234.3244	1431.8	541.7
1052.5914	3235.238	1434.9	547.55
1052.6926	3236.151	1456.65	543.05
1052.7937	3237.0634	1423.25	536.5
1052.8948	3237.9752	1421.65	532
1052.9958	3238.8864	1424.15	535.35
1053.0968	3239.797	1410.65	521.35
1053.1977	3240.7069	1415.5	524.45
1053.2986	3241.6163	1406.25	516.85
1053.3994	3242.5251	1401.6	514.2
1053.5002	3243.4332	1408	520.15
1053.6009	3244.3408	1408.1	519.95
1053.7016	3245.2477	1397.45	511.5
1053.8022	3246.154	1394.65	506
1053.9028	3247.0598	1394.3	506.25
1054.0034	3247.9649	1388.75	498.8
1054.1039	3248.8694	1392.15	504.3
1054.2043	3249.7733	1386.05	497.1
1054.3047	3250.6766	1383.1	495.25
1054.4051	3251.5793	1380.65	491.1
1054.5054	3252.4814	1375.15	488.6
1054.6056	3253.3829	1372.95	485.1
1054.7058	3254.2838	1367.9	480.5
1054.806	3255.1841	1362.45	474.75
1054.9061	3256.0838	1358.15	467.55
1055.0061	3256.9829	1360.4	470.65
1055.1062	3257.8814	1358.5	467.85
1055.2061	3258.7792	1350.35	459.4
1055.306	3259.6765	1347.4	457.9
1055.4059	3260.5731	1341.15	454.65
1055.5057	3261.4692	1334.7	445.7
1055.6055	3262.3647	1332.2	444.85
1055.7052	3263.2595	1317.05	427.95
1055.8049	3264.1538	1317.25	429.65
1055.9045	3265.0474	1317.35	427.15
1056.0041	3265.9404	1300.45	412.45
1056.1036	3266.8329	1296.8	407.4
1056.2031	3267.7247	1300.9	400.55
1056.3025	3268.616	1282.25	393.65
1056.4019	3269.5066	1269.4	380.25
1056.5013	3270.3966	1260.9	373.05
1056.6005	3271.286	1249.35	362.7
