Software Version:	3.9.2.0
Unit SN:	10000200
Spectrometer SN:	6960
Date:	3/6/2024 10:19:49 AM
Data Line Index:	25
Spectral Points:	2048
Integration time (ms):	125
Averages:	20
Delay (ms):	30
Sequence Number:	1
Processing:	dark subtract
Laser Power (mW):	300
Laser Current (mA):	826
Laser Diode Temp (C):	25.1
Laser Case Temp (C):	25.4
System Temp (C):	25.1
Spectrometer Temp (C):	22.6
CCD Temp (C):	0
Secondary Temp (C):	20.003
Heatsink Temp (C):	20.47
CCDPCB Temp (C):	34.395
SecondaryPCB Temp (C):	26.769

Wavelength	RamanShift	Raw Counts	Dark Subtracted
787.061	30.1047	1062.65	651
787.2016	32.3739	1083.7	673.35
787.3422	34.6426	1126.95	715.5
787.4828	36.9109	1163.05	750.3
787.6235	39.1787	1221.15	806.2
787.7642	41.4461	1264.35	843.5
787.9049	43.7131	1332	910.45
788.0456	45.9796	1382.4	958.4
788.1863	48.2456	1445.65	1015.6
788.3271	50.5112	1500.5	1065.95
788.4679	52.7764	1572.4	1134.85
788.6087	55.0411	1642	1200.65
788.7496	57.3054	1721.6	1274.95
788.8904	59.5692	1796.15	1347.05
789.0313	61.8326	1882.9	1433.35
789.1722	64.0955	1975.6	1521.25
789.3132	66.3579	2088.5	1629.55
789.4541	68.6199	2233.9	1774.05
789.5951	70.8815	2467.45	2002.8
789.7361	73.1426	2967.95	2497.75
789.8771	75.4032	4266.3	3789.3
790.0181	77.6634	7593.55	7113.65
790.1592	79.9231	16463.5	15979.65
790.3003	82.1824	50783.75	50285.75
790.4414	84.4412	65526.95	65009.3
790.5825	86.6995	65535	64990.2
790.7237	88.9574	65535	64968.7
790.8648	91.2148	65535	64948.35
791.006	93.4717	65535	64938.9
791.1472	95.7282	65535	64932.75
791.2885	97.9842	65535	64933.55
791.4297	100.2398	65535	64930
791.571	102.4949	65535	64926.1
791.7123	104.7495	65535	64919.8
791.8536	107.0036	65535	64918.15
791.9949	109.2573	65535	64923.15
792.1363	111.5105	65535	64919.35
792.2777	113.7632	65535	64920.4
792.4191	116.0154	65535	64904.4
792.5605	118.2672	65535	64916.4
792.7019	120.5185	65535	64909.55
792.8434	122.7693	65535	64910.5
792.9849	125.0197	65535	64905.1
793.1264	127.2696	65535	64896.55
793.2679	129.519	65535	64897.85
793.4094	131.7679	65535	64893.85
793.551	134.0163	65535	64894.5
793.6926	136.2642	65535	64886.3
793.8342	138.5117	65535	64882.65
793.9758	140.7587	65535	64887.95
794.1175	143.0052	65535	64882.8
794.2591	145.2512	65535	64882.3
794.4008	147.4967	65535	64883.2
794.5425	149.7417	65535	64878.85
794.6842	151.9863	65535	64872.4
794.826	154.2304	65535	64868.1
794.9677	156.4739	65535	64864
795.1095	158.717	65535	64864
795.2513	160.9596	65535	64861.1
795.3931	163.2017	65535	64859.3
795.535	165.4433	65535	64855.55
795.6768	167.6844	65535	64858.9
795.8187	169.925	65535	64852.25
795.9606	172.1651	65535	64850.3
796.1025	174.4047	65535	64846.55
796.2445	176.6439	65535	64842.4
796.3864	178.8825	65535	64842.45
796.5284	181.1206	65535	64838.7
796.6704	183.3582	65535	64834.65
796.8124	185.5954	65535	64833.05
796.9544	187.832	65535	64829.85
797.0965	190.0681	65535	64825.1
797.2386	192.3037	65535	64824.15
797.3806	194.5388	65535	64821.75
797.5228	196.7734	65535	64816.95
797.6649	199.0075	65535	64813.05
797.807	201.2411	65535	64814.75
797.9492	203.4742	65535	64814.55
798.0914	205.7068	65535	64811.7
798.2336	207.9389	65535	64807.15
798.3758	210.1704	65535	64807.95
798.518	212.4015	65535	64818.25
798.6603	214.632	65535	64823.8
798.8025	216.862	65535	64831.25
798.9448	219.0915	65535	64826.95
799.0871	221.3205	65535	64827.45
799.2294	223.549	65535	64831.85
799.3718	225.777	65535	64833.35
799.5141	228.0044	65535	64826.6
799.6565	230.2314	65535	64825.95
799.7989	232.4578	65535	64820.65
799.9413	234.6837	65535	64811.55
800.0837	236.909	65535	64811.1
800.2262	239.1339	65535	64781.35
800.3687	241.3582	65535	64798.25
800.5111	243.582	65535	64768.5
800.6536	245.8053	65535	64782.25
800.7961	248.0281	65535	64788.45
800.9387	250.2503	65535	64783.6
801.0812	252.472	65535	64781.1
801.2238	254.6932	65535	64782.45
801.3664	256.9139	65535	64779.95
801.509	259.134	65535	64775
801.6516	261.3536	65535	64775.95
801.7942	263.5727	65535	64774.5
801.9369	265.7912	65535	64778.45
802.0795	268.0092	65535	64772.25
802.2222	270.2267	65535	64777.05
802.3649	272.4436	65535	64776.15
802.5076	274.6601	65535	64764.3
802.6504	276.8759	65535	64768
802.7931	279.0913	65535	64766.45
802.9359	281.3061	65535	64765.65
803.0787	283.5204	65535	64762.35
803.2215	285.7341	65535	64759.75
803.3643	287.9473	65535	64745.8
803.5071	290.16	65535	64755.6
803.6499	292.3721	65535	64762.75
803.7928	294.5837	65535	64763.55
803.9357	296.7947	65535	64761.2
804.0786	299.0052	65535	64764.8
804.2215	301.2152	65535	64758.8
804.3644	303.4246	65535	64760.8
804.5074	305.6334	65535	64760.65
804.6503	307.8418	65535	64756.35
804.7933	310.0495	65535	64754.15
804.9363	312.2568	65535	64757.6
805.0793	314.4635	65535	64752.85
805.2223	316.6696	65535	64751.9
805.3653	318.8752	65535	64741.95
805.5084	321.0802	65535	64749.7
805.6514	323.2847	65535	64748.3
805.7945	325.4887	65535	64746.5
805.9376	327.692	65535	64749.65
806.0807	329.8949	65535	64741.1
806.2238	332.0972	65535	64743.15
806.367	334.2989	65535	64739.9
806.5101	336.5001	65535	64737
806.6533	338.7007	65535	64739.95
806.7965	340.9008	65535	64737
806.9397	343.1003	65535	64733.95
807.0829	345.2992	65535	64734.3
807.2261	347.4976	65535	64733.55
807.3693	349.6955	65535	64728.65
807.5126	351.8927	65535	64728.4
807.6559	354.0895	65535	64713.95
807.7991	356.2856	65535	64727.55
807.9424	358.4812	65535	64731.9
808.0857	360.6763	65535	64726.7
808.2291	362.8707	65535	64723.55
808.3724	365.0646	65535	64723.2
808.5158	367.258	65535	64720.55
808.6591	369.4508	65535	64713.4
808.8025	371.643	65535	64717.35
808.9459	373.8346	65535	64712.75
809.0893	376.0257	65535	64709.4
809.2327	378.2162	65535	64713.15
809.3762	380.4062	65535	64710.4
809.5196	382.5956	65535	64710.35
809.6631	384.7844	65535	64716.2
809.8066	386.9726	65535	64715.25
809.9501	389.1603	65535	64719.35
810.0936	391.3474	65535	64678.5
810.2371	393.5339	65535	64717
810.3806	395.7199	65535	64722.3
810.5241	397.9052	65535	64721.25
810.6677	400.09	65535	64720.3
810.8113	402.2743	65535	64719.85
810.9548	404.4579	65535	64718.75
811.0984	406.641	65535	64714.3
811.2421	408.8235	65535	64716.05
811.3857	411.0054	65535	64712.8
811.5293	413.1868	65535	64709.15
811.673	415.3675	65535	64707.1
811.8166	417.5477	65535	64705.7
811.9603	419.7273	65535	64702.95
812.104	421.9064	65535	64695
812.2477	424.0848	65535	64700.1
812.3914	426.2627	65535	64697.55
812.5351	428.4399	65535	64700.5
812.6788	430.6166	65535	64695.55
812.8226	432.7928	65535	64694.8
812.9663	434.9683	65535	64693.35
813.1101	437.1432	65535	64693.3
813.2539	439.3176	65535	64694.5
813.3977	441.4914	65535	64694.75
813.5415	443.6645	65535	64693.9
813.6853	445.8371	65535	64690.55
813.8291	448.0091	65535	64694.45
813.973	450.1806	65535	64693.7
814.1168	452.3514	65535	64687.65
814.2607	454.5216	65535	64686.95
814.4046	456.6913	65535	64688.75
814.5485	458.8603	65535	64690.9
814.6924	461.0288	65535	64690.35
814.8363	463.1967	65535	64693.9
814.9802	465.3639	65535	64692.95
815.1241	467.5306	65535	64691.35
815.2681	469.6967	65535	64692.3
815.412	471.8622	65535	64690.85
815.556	474.0271	65535	64689.7
815.7	476.1914	65535	64685.2
815.844	478.3551	65535	64685.6
815.988	480.5182	65535	64687.35
816.132	482.6807	65535	64686.75
816.276	484.8426	65535	64690.5
816.4201	487.0039	65535	64686.45
816.5641	489.1647	65535	64684.7
816.7082	491.3248	65535	64682.55
816.8522	493.4843	65535	64684.9
816.9963	495.6432	65535	64685.3
817.1404	497.8015	65535	64679.8
817.2845	499.9592	65535	64682.2
817.4286	502.1163	65535	64682.15
817.5727	504.2728	65535	64680
817.7168	506.4287	65535	64687.35
817.861	508.5839	65535	64680.15
818.0051	510.7386	65535	64681.9
818.1493	512.8927	65535	64675.6
818.2935	515.0461	65535	64678.6
818.4377	517.199	65535	64679
818.5818	519.3512	65535	64679.65
818.726	521.5029	65535	64672.6
818.8703	523.6539	65535	64672.6
819.0145	525.8043	65535	64673.5
819.1587	527.9541	65535	64671.7
819.303	530.1033	65535	64671.45
819.4472	532.2519	65535	64670.95
819.5915	534.3999	65535	64672.2
819.7357	536.5472	65535	64672.1
819.88	538.694	65535	64672.05
820.0243	540.8401	65535	64671
820.1686	542.9856	65535	64671.35
820.3129	545.1305	65535	64668.05
820.4572	547.2748	65535	64668.4
820.6016	549.4185	65535	64667.3
820.7459	551.5615	65535	64664.5
820.8902	553.704	65535	64663.65
821.0346	555.8458	65535	64666.05
821.1789	557.987	65535	64670.65
821.3233	560.1276	65535	64666.55
821.4677	562.2675	65535	64670.4
821.6121	564.4069	65535	64669.4
821.7565	566.5456	65535	64672.35
821.9009	568.6837	65535	64669.95
822.0453	570.8212	65535	64671.15
822.1897	572.958	65535	64663.9
822.3342	575.0942	65535	64671.65
822.4786	577.2299	65535	64668.1
822.6231	579.3648	65535	64670.8
822.7675	581.4992	65535	64671.05
822.912	583.6329	65535	64669.25
823.0565	585.766	65535	64670.7
823.201	587.8985	65535	64670.65
823.3454	590.0304	65535	64641.7
823.4899	592.1616	65535	64663.75
823.6345	594.2922	65535	64666.85
823.779	596.4222	65535	64662.85
823.9235	598.5515	65535	64658.55
824.068	600.6802	65535	64660.8
824.2126	602.8083	65535	64662.05
824.3571	604.9358	65535	64659.6
824.5017	607.0626	65535	64664.85
824.6462	609.1888	65535	64659.4
824.7908	611.3144	65535	64659.75
824.9354	613.4393	65535	64661.6
825.08	615.5636	65535	64656.85
825.2246	617.6873	65535	64662.9
825.3692	619.8103	65535	64657.95
825.5138	621.9327	65535	64658
825.6584	624.0544	65535	64662.35
825.803	626.1756	65535	64658.45
825.9477	628.2961	65535	64654.7
826.0923	630.4159	65535	64658.1
826.237	632.5351	65535	64658.3
826.3816	634.6537	65535	64656.35
826.5263	636.7716	65535	64655.4
826.6709	638.8889	65535	64656.1
826.8156	641.0056	65535	64655.95
826.9603	643.1216	65535	64653.8
827.105	645.237	65535	64653.95
827.2497	647.3518	65535	64656.15
827.3944	649.4659	65535	64656.35
827.5391	651.5793	65535	64656.65
827.6838	653.6922	65535	64657.65
827.8285	655.8043	65535	64653.3
827.9733	657.9159	65535	64654.2
828.118	660.0268	65535	64653.9
828.2627	662.137	65535	64653.1
828.4075	664.2466	65535	64651.8
828.5522	666.3556	65535	64652.4
828.697	668.4639	65535	64649.9
828.8418	670.5716	65535	64653.6
828.9865	672.6786	65535	64649.7
829.1313	674.785	65535	64651.75
829.2761	676.8907	65535	64647.75
829.4209	678.9958	65535	64650.45
829.5657	681.1002	65535	64651.2
829.7105	683.204	65535	64646
829.8553	685.3072	65535	64651.7
830.0001	687.4097	65535	64647.1
830.1449	689.5115	65535	64647.8
830.2898	691.6127	65535	64649.35
830.4346	693.7132	65535	64649.1
830.5794	695.8131	65535	64627.3
830.7243	697.9123	65535	64644.85
830.8691	700.0109	65535	64647.4
831.014	702.1089	65535	64647.9
831.1588	704.2061	65535	64649.15
831.3037	706.3028	65535	64646.2
831.4486	708.3987	65535	64644.9
831.5935	710.4941	65535	64648.6
831.7383	712.5887	65535	64648.45
831.8832	714.6827	65535	64643.4
832.0281	716.7761	65535	64647.3
832.173	718.8688	65535	64646.05
832.3179	720.9608	65535	64640.6
832.4628	723.0522	65535	64638
832.6077	725.1429	65535	64644.75
832.7527	727.233	65535	64645.55
832.8976	729.3224	65535	64643.7
833.0425	731.4112	65535	64646.45
833.1874	733.4993	65535	64640.95
833.3324	735.5867	65535	64646.45
833.4773	737.6735	65535	64643.05
833.6222	739.7596	65535	64643.2
833.7672	741.845	65535	64640.6
833.9122	743.9298	65535	64641.5
834.0571	746.014	65535	64643.8
834.2021	748.0974	65535	64640.9
834.347	750.1802	65535	64642.3
834.492	752.2624	65535	64640.85
834.637	754.3439	65535	64640.3
834.782	756.4247	65535	64633.05
834.9269	758.5048	65535	64641.6
835.0719	760.5843	65535	64642.35
835.2169	762.6631	65535	64642.55
835.3619	764.7413	65535	64642.15
835.5069	766.8188	65535	64638.7
835.6519	768.8956	65535	64638.95
835.7969	770.9718	65535	64641.95
835.9419	773.0473	65535	64638.5
836.0869	775.1221	65535	64640.9
836.232	777.1962	65535	64643.25
836.377	779.2697	65535	64639.3
836.522	781.3426	65535	64623.9
836.667	783.4147	65535	64640.3
836.8121	785.4862	65535	64640.25
836.9571	787.557	65535	64642.7
837.1021	789.6271	65535	64639.95
837.2472	791.6966	65535	64642.65
837.3922	793.7654	65535	64637.9
837.5373	795.8335	65535	64639.5
837.6823	797.901	65535	64641.05
837.8274	799.9678	65535	64639.25
837.9724	802.0339	65535	64639.15
838.1175	804.0993	65535	64629.4
838.2626	806.1641	65535	64639.35
838.4076	808.2282	65535	64637.9
838.5527	810.2916	65535	64634.25
838.6978	812.3544	65535	64640.9
838.8428	814.4164	65535	64641.3
838.9879	816.4778	65535	64636.6
839.133	818.5385	65535	64639.05
839.2781	820.5986	65535	64637.65
839.4232	822.658	65535	64635.5
839.5682	824.7166	65535	64640.75
839.7133	826.7747	65535	64636.45
839.8584	828.832	65535	64638.4
840.0035	830.8886	65535	64634.8
840.1486	832.9446	65535	64636.55
840.2937	834.9999	65535	64636.25
840.4388	837.0545	65535	64630.8
840.5839	839.1085	65535	64637.5
840.729	841.1618	65535	64635.35
840.8741	843.2143	65535	64637.55
841.0192	845.2662	65535	64641.3
841.1643	847.3175	65535	64637.4
841.3095	849.368	65535	64638
841.4546	851.4179	65535	64637.2
841.5997	853.467	65535	64636.05
841.7448	855.5155	65535	64638.2
841.8899	857.5633	65535	64635.85
842.0351	859.6105	65535	64638.65
842.1802	861.6569	65535	64635.4
842.3253	863.7027	65535	64636.65
842.4704	865.7478	65535	64635.15
842.6156	867.7922	65535	64637.15
842.7607	869.8359	65535	64636.25
842.9058	871.8789	65535	64635.9
843.0509	873.9212	65535	64602.1
843.1961	875.9629	65535	64637.25
843.3412	878.0039	65535	64634.5
843.4863	880.0441	65535	64636.3
843.6315	882.0837	65535	64635.9
843.7766	884.1226	65535	64631.85
843.9218	886.1609	65535	64633.95
844.0669	888.1984	65535	64636.85
844.212	890.2352	65535	64635.95
844.3572	892.2714	65535	64631.3
844.5023	894.3069	65535	64634.3
844.6475	896.3416	65535	64635.45
844.7926	898.3757	65535	64634
844.9377	900.4091	65535	64633.85
845.0829	902.4418	65535	64628.65
845.228	904.4739	65535	64634.35
845.3732	906.5052	65535	64633.15
845.5183	908.5358	65535	64632
845.6635	910.5658	65535	64629.65
845.8086	912.595	65535	64632.05
845.9538	914.6236	65535	64634.2
846.0989	916.6515	65535	64636.95
846.2441	918.6786	65535	64633
846.3892	920.7051	65535	64631.25
846.5344	922.7309	65535	64634.4
846.6795	924.756	65535	64632.6
846.8246	926.7804	65535	64629.2
846.9698	928.8041	65535	64624.9
847.1149	930.8272	65535	64634.55
847.2601	932.8495	65535	64630.2
847.4052	934.8711	65535	64634.25
847.5504	936.892	65535	64634.4
847.6955	938.9123	65535	64631.7
847.8407	940.9318	65535	64631.3
847.9858	942.9506	65535	64632.25
848.131	944.9688	65535	64631.95
848.2761	946.9862	65535	64632.7
848.4213	949.003	65535	64632.8
848.5664	951.019	65535	64632.2
848.7115	953.0344	65535	64630.9
848.8567	955.0491	65535	64631.5
849.0018	957.063	65535	64631.8
849.147	959.0763	65535	64633
849.2921	961.0888	65535	64630.1
849.4373	963.1007	65535	64635.7
849.5824	965.1119	65535	64634.75
849.7275	967.1223	65535	64635.4
849.8727	969.1321	65535	64636
850.0178	971.1412	65535	64633.05
850.1629	973.1495	65535	64632.7
850.3081	975.1572	65535	64600.75
850.4532	977.1641	65535	64633.45
850.5983	979.1704	65535	64630.4
850.7435	981.1759	65535	64629.8
850.8886	983.1808	65535	64634.75
851.0337	985.1849	65535	64620.85
851.1788	987.1884	65535	64629.3
851.324	989.1911	65535	64629.25
851.4691	991.1932	65535	64631.5
851.6142	993.1945	65535	64633.05
851.7593	995.1951	65535	64630
851.9045	997.1951	65535	64624.5
852.0496	999.1943	65535	64630.85
852.1947	1001.1928	65535	64630.55
852.3398	1003.1906	65535	64633
852.4849	1005.1877	65535	64627.7
852.63	1007.1841	65535	64631.95
852.7751	1009.1798	65535	64631.85
852.9202	1011.1748	65535	64632.45
853.0653	1013.1691	65535	64632.45
853.2104	1015.1627	65535	64630.8
853.3555	1017.1556	65535	64633.1
853.5006	1019.1477	65535	64632.8
853.6457	1021.1392	65535	64634.75
853.7908	1023.1299	65535	64635.75
853.9359	1025.12	65535	64632.3
854.081	1027.1093	65535	64635.95
854.2261	1029.0979	65535	64640.3
854.3712	1031.0859	65535	64635.5
854.5163	1033.0731	65535	64634.45
854.6613	1035.0596	65535	64634
854.8064	1037.0454	65535	64631.15
854.9515	1039.0304	65535	64631.3
855.0965	1041.0148	65535	64636.5
855.2416	1042.9985	65535	64631.2
855.3867	1044.9814	65535	64632.25
855.5317	1046.9636	65535	64626.75
855.6768	1048.9452	65535	64630.4
855.8219	1050.926	65535	64632.9
855.9669	1052.9061	65535	64632
856.112	1054.8855	65535	64628.75
856.257	1056.8642	65535	64633.35
856.4021	1058.8421	65535	64629.6
856.5471	1060.8194	65535	64633.05
856.6921	1062.7959	65535	64632.7
856.8372	1064.7717	65535	64630.3
856.9822	1066.7469	65535	64631.6
857.1272	1068.7213	65535	64629.25
857.2723	1070.695	65535	64633.65
857.4173	1072.6679	65535	64632.25
857.5623	1074.6402	65535	64633.3
857.7073	1076.6117	65535	64629.55
857.8523	1078.5826	65535	64633.05
857.9973	1080.5527	65535	64633.25
858.1423	1082.5221	65535	64633.05
858.2873	1084.4908	65535	64629.95
858.4323	1086.4587	65535	64631.95
858.5773	1088.426	65535	64632.25
858.7223	1090.3925	65535	64626.3
858.8673	1092.3584	65535	64634.7
859.0123	1094.3235	65535	64633.4
859.1573	1096.2879	65535	64630.65
859.3022	1098.2515	65535	64630.2
859.4472	1100.2145	65535	64630.7
859.5922	1102.1767	65535	64628.35
859.7371	1104.1382	65535	64631.9
859.8821	1106.099	65535	64630.6
860.027	1108.0591	65535	64631.7
860.172	1110.0185	65535	64628.15
860.3169	1111.9771	65535	64631.75
860.4619	1113.9351	65535	64634.95
860.6068	1115.8923	65535	64632.05
860.7517	1117.8488	65535	64631.05
860.8967	1119.8045	65535	64631.6
861.0416	1121.7596	65535	64632.25
861.1865	1123.7139	65535	64634
861.3314	1125.6675	65535	64634.2
861.4763	1127.6204	65535	64632.95
861.6212	1129.5726	65535	64631.05
861.7661	1131.524	65535	64630.7
861.911	1133.4748	65535	64633.85
862.0559	1135.4248	65535	64633
862.2008	1137.3741	65535	64631.05
862.3457	1139.3226	65535	64630.7
862.4905	1141.2705	65535	64632.05
862.6354	1143.2176	65535	64626.3
862.7803	1145.164	65535	64632.05
862.9251	1147.1097	65535	64631.1
863.07	1149.0546	65535	64631.75
863.2148	1150.9989	65535	64633.1
863.3597	1152.9424	65535	64631.8
863.5045	1154.8852	65535	64630.25
863.6493	1156.8272	65535	64633.85
863.7942	1158.7686	65535	64626.5
863.939	1160.7092	65535	64632.4
864.0838	1162.6491	65535	64631.9
864.2286	1164.5883	65535	64634.3
864.3734	1166.5267	65535	64631.7
864.5182	1168.4644	65535	64632.35
864.663	1170.4014	65535	64630.4
864.8078	1172.3377	65535	64632.8
864.9526	1174.2732	65535	64632.7
865.0974	1176.2081	65535	64632.9
865.2421	1178.1421	65535	64628.35
865.3869	1180.0755	65535	64633.35
865.5317	1182.0082	65535	64633.75
865.6764	1183.9401	65535	64633.55
865.8212	1185.8713	65535	64633.4
865.9659	1187.8017	65535	64635.7
866.1106	1189.7315	65535	64637.1
866.2554	1191.6605	65535	64607.6
866.4001	1193.5888	65535	64634.7
866.5448	1195.5163	65535	64636.05
866.6895	1197.4432	65535	64632.4
866.8342	1199.3693	65535	64636.25
866.9789	1201.2947	65535	64631.7
867.1236	1203.2193	65535	64633.1
867.2683	1205.1432	65535	64630.65
867.413	1207.0664	65535	64632.65
867.5576	1208.9889	65535	64631.75
867.7023	1210.9106	65535	64635.45
867.847	1212.8316	65535	64633.85
867.9916	1214.7519	65535	64625
868.1363	1216.6715	65535	64633.1
868.2809	1218.5903	65535	64632.6
868.4255	1220.5084	65535	64633.25
868.5701	1222.4257	65535	64631.3
868.7148	1224.3424	65535	64631.8
868.8594	1226.2583	65535	64628.6
869.004	1228.1735	65535	64630.4
869.1486	1230.0879	65535	64632.9
869.2932	1232.0016	65535	64632.85
869.4377	1233.9146	65535	64632.45
869.5823	1235.8269	65535	64633.95
869.7269	1237.7384	65535	64630.8
869.8715	1239.6492	65535	64634.15
870.016	1241.5592	65535	64634.05
870.1606	1243.4686	65535	64633.1
870.3051	1245.3772	65535	64632.75
870.4496	1247.285	65535	64632.45
870.5941	1249.1922	65535	64633.6
870.7387	1251.0986	65535	64635.15
870.8832	1253.0042	65535	64633
871.0277	1254.9092	65535	64633.25
871.1722	1256.8134	65535	64634.15
871.3167	1258.7169	65535	64632.5
871.4611	1260.6196	65535	64634.2
871.6056	1262.5216	65535	64634.35
871.7501	1264.4229	65535	64635.2
871.8945	1266.3234	65535	64631.95
872.039	1268.2232	65535	64629.75
872.1834	1270.1223	65535	64634.85
872.3278	1272.0207	65535	64630.8
872.4723	1273.9183	65535	64629.75
872.6167	1275.8151	65535	64635.1
872.7611	1277.7113	65535	64632.55
872.9055	1279.6067	65535	64632.7
873.0499	1281.5014	65535	64632.55
873.1943	1283.3953	65535	64630.95
873.3386	1285.2885	65535	64632.95
873.483	1287.181	65535	64633.3
873.6274	1289.0727	65535	64635.25
873.7717	1290.9637	65535	64632.6
873.9161	1292.854	65535	64634.6
874.0604	1294.7435	65535	64629.1
874.2047	1296.6323	65535	64633.95
874.349	1298.5204	65535	64629.3
874.4933	1300.4077	65535	64633.5
874.6376	1302.2943	65535	64634.7
874.7819	1304.1802	65535	64635.1
874.9262	1306.0653	65535	64631.1
875.0705	1307.9497	65535	64634.4
875.2147	1309.8333	65535	64634.3
875.359	1311.7162	65535	64632.6
875.5032	1313.5984	65535	64630.25
875.6475	1315.4798	65535	64622.2
875.7917	1317.3605	65535	64617.5
875.9359	1319.2405	65535	64634.4
876.0801	1321.1197	65535	64630.55
876.2243	1322.9982	65535	64628.35
876.3685	1324.876	65535	64634.8
876.5127	1326.753	65535	64634.1
876.6569	1328.6293	65535	64633.55
876.801	1330.5048	65535	64632.4
876.9452	1332.3796	65535	64631.9
877.0893	1334.2537	65535	64607.5
877.2335	1336.127	65535	64634.05
877.3776	1337.9996	65535	64633.1
877.5217	1339.8714	65535	64635.4
877.6658	1341.7426	65535	64591.95
877.8099	1343.6129	65535	64633.75
877.954	1345.4826	65535	64634.3
878.0981	1347.3515	65535	64631.1
878.2422	1349.2196	65535	64632.4
878.3862	1351.087	65535	64633.5
878.5303	1352.9537	65535	64631.15
878.6743	1354.8197	65535	64635.7
878.8184	1356.6849	65535	64632.55
878.9624	1358.5493	65535	64632.6
879.1064	1360.4131	65535	64633.75
879.2504	1362.276	65535	64636.5
879.3944	1364.1383	65535	64634.8
879.5384	1365.9998	65535	64630.05
879.6823	1367.8606	65535	64633.65
879.8263	1369.7206	65535	64632.9
879.9702	1371.5799	65535	64631.45
880.1142	1373.4384	65535	64633.2
880.2581	1375.2962	65535	64632.2
880.402	1377.1533	65535	64633.55
880.5459	1379.0096	65535	64632.9
880.6898	1380.8652	65535	64634.9
880.8337	1382.7201	65535	64633.5
880.9776	1384.5742	65535	64633.5
881.1215	1386.4275	65535	64634.4
881.2653	1388.2802	65535	64634.25
881.4092	1390.132	65535	64632.85
881.553	1391.9832	65535	64632.4
881.6968	1393.8336	65535	64632.15
881.8406	1395.6832	65535	64631.7
881.9844	1397.5322	65535	64633.45
882.1282	1399.3803	65535	64627.9
882.272	1401.2278	65535	64633.15
882.4158	1403.0745	65535	64634.05
882.5595	1404.9204	65535	64634.7
882.7033	1406.7656	65535	64633.05
882.847	1408.6101	65535	64635.4
882.9908	1410.4538	65535	64634.65
883.1345	1412.2968	65535	64633.05
883.2782	1414.139	65535	64633.8
883.4219	1415.9805	65535	64634.65
883.5656	1417.8213	65535	64627.35
883.7092	1419.6613	65535	64633.65
883.8529	1421.5006	65535	64633.4
883.9965	1423.3391	65535	64635.25
884.1402	1425.1769	65535	64630.95
884.2838	1427.0139	65535	64635.6
884.4274	1428.8502	65535	64632.1
884.571	1430.6858	65535	64633.05
884.7146	1432.5206	65535	64634.5
884.8582	1434.3547	65535	64632.5
885.0018	1436.188	65535	64635.55
885.1453	1438.0206	65535	64635.7
885.2889	1439.8524	65535	64631.15
885.4324	1441.6835	65535	64634.9
885.5759	1443.5139	65535	64632.85
885.7194	1445.3435	65535	64634.55
885.8629	1447.1724	65535	64635.1
886.0064	1449.0005	65535	64634.85
886.1499	1450.8279	65535	64632.5
886.2933	1452.6545	65535	64633.45
886.4368	1454.4804	65535	64636.9
886.5802	1456.3056	65535	64625.75
886.7237	1458.13	65535	64635.85
886.8671	1459.9536	65535	64634.95
887.0105	1461.7766	65535	64635.55
887.1539	1463.5987	65535	64635.3
887.2972	1465.4202	65535	64634.65
887.4406	1467.2409	65535	64634.85
887.584	1469.0608	65535	64634.15
887.7273	1470.88	65535	64633.35
887.8706	1472.6984	65535	64633.25
888.0139	1474.5161	65529.7	64623.35
888.1572	1476.3331	65535	64636.15
888.3005	1478.1493	65530.9	64632.15
888.4438	1479.9648	65527.1	64627.6
888.5871	1481.7795	65534.1	64635.85
888.7303	1483.5935	65535	64635.1
888.8736	1485.4067	65520.8	64619.85
889.0168	1487.2192	65528.2	64629.5
889.16	1489.031	65518.15	64615.4
889.3032	1490.842	65523.7	64624.6
889.4464	1492.6522	65523.75	64625.25
889.5896	1494.4618	65514.95	64616
889.7327	1496.2705	65521.3	64623.15
889.8759	1498.0785	65453.85	64553.7
890.019	1499.8858	65518.6	64617.55
890.1622	1501.6924	65528.1	64629.9
890.3053	1503.4981	65478.1	64577.4
890.4484	1505.3032	65497.1	64598.2
890.5914	1507.1075	65459.2	64558.2
890.7345	1508.911	65471.8	64570.5
890.8776	1510.7138	65459	64557.7
891.0206	1512.5159	65489.7	64589.05
891.1637	1514.3172	65395.3	64496.25
891.3067	1516.1178	65419.8	64521.25
891.4497	1517.9176	65449.65	64548.15
891.5927	1519.7166	65411	64513.95
891.7357	1521.515	65409.5	64503.7
891.8786	1523.3126	65362.3	64462.75
892.0216	1525.1094	65410.35	64510
892.1645	1526.9055	65376.35	64477.55
892.3074	1528.7008	65385.4	64487.4
892.4503	1530.4954	65342.45	64443.7
892.5932	1532.2893	65381.4	64484.7
892.7361	1534.0824	65335.8	64431.35
892.879	1535.8747	65300.05	64401.45
893.0218	1537.6663	65393.9	64494.15
893.1647	1539.4572	65217.95	64317.9
893.3075	1541.2473	65285.65	64386.7
893.4503	1543.0367	65273.35	64374.4
893.5931	1544.8253	65265.1	64363.15
893.7359	1546.6132	65278.95	64377.5
893.8787	1548.4003	65232.1	64324.3
894.0214	1550.1867	65208.85	64303.05
894.1642	1551.9723	65202.15	64300.95
894.3069	1553.7572	65228	64329.65
894.4496	1555.5414	65251.05	64351.75
894.5923	1557.3247	65067.6	64171.4
894.735	1559.1074	65217.8	64322.05
894.8777	1560.8893	65149.3	64252.9
895.0204	1562.6705	65196.5	64298
895.163	1564.4509	65080.7	64184.2
895.3056	1566.2305	65145.7	64250.5
895.4482	1568.0094	65209.05	64313.55
895.5908	1569.7876	65137.2	64241.35
895.7334	1571.565	65069.85	64173.4
895.876	1573.3417	65097.25	64201.3
896.0186	1575.1176	65079.95	64184.15
896.1611	1576.8928	65068.8	64172.1
896.3036	1578.6672	65013.2	64120.05
896.4461	1580.4409	65020.9	64129
896.5886	1582.2138	64954.05	64056.85
896.7311	1583.986	64998.7	64102
896.8736	1585.7575	64945.55	64049.5
897.0161	1587.5282	64952.4	64057.1
897.1585	1589.2981	64972.35	64077
897.3009	1591.0673	64916.1	64019.9
897.4433	1592.8358	64892.7	64000.95
897.5857	1594.6035	64940.5	64044.45
897.7281	1596.3704	64947.2	64052.35
897.8705	1598.1366	64852.25	63956.05
898.0128	1599.9021	64801.95	63908.5
898.1551	1601.6668	64873.55	63977.9
898.2975	1603.4308	64848.9	63953.15
898.4398	1605.194	64871.15	63970.9
898.5821	1606.9564	64756	63860.55
898.7243	1608.7182	64810.9	63913.5
898.8666	1610.4791	64771.5	63878.55
899.0088	1612.2394	64799.3	63903.85
899.1511	1613.9988	64749.75	63856.2
899.2933	1615.7576	64823.4	63929.65
899.4355	1617.5156	64806.95	63905.6
899.5776	1619.2728	64864.85	63968.75
899.7198	1621.0293	64724.65	63831.7
899.862	1622.785	64731.6	63832.8
900.0041	1624.54	64772.35	63876.6
900.1462	1626.2942	64711.65	63815.85
900.2883	1628.0477	64594.6	63697.35
900.4304	1629.8005	64463.55	63564.8
900.5725	1631.5525	64583.55	63690
900.7145	1633.3037	64404.65	63509.5
900.8566	1635.0542	64383.5	63490.75
900.9986	1636.804	64467.6	63573.8
901.1406	1638.553	64277.35	63301.3
901.2826	1640.3013	64360.85	63466.25
901.4245	1642.0488	64242	63347.1
901.5665	1643.7955	64340	63446.3
901.7085	1645.5416	64255.7	63362.65
901.8504	1647.2868	64174.3	63279.9
901.9923	1649.0313	64294.05	63399.05
902.1342	1650.7751	64203.3	63306.3
902.2761	1652.5181	64122.65	63228.95
902.4179	1654.2604	64113.6	63217.3
902.5598	1656.0019	64169.25	63277.15
902.7016	1657.7427	64110.4	63215.8
902.8434	1659.4828	64193	63301
902.9852	1661.222	64104.15	63208.55
903.127	1662.9606	64185.05	63292.2
903.2687	1664.6984	64040.4	63145.9
903.4105	1666.4354	64071.2	63176.5
903.5522	1668.1717	63878.4	62982.4
903.6939	1669.9072	63748.85	62854.6
903.8356	1671.642	63735.3	62837.4
903.9773	1673.3761	63667.2	62773.35
904.119	1675.1094	63618.4	62726.9
904.2606	1676.8419	63516.65	62624.5
904.4022	1678.5737	63502	62609.2
904.5439	1680.3048	63452.8	62558.85
904.6855	1682.0351	63398.25	62504.1
904.827	1683.7646	63362.85	62465.05
904.9686	1685.4934	63364.95	62471.65
905.1101	1687.2215	63186	62290.45
905.2517	1688.9488	63286.85	62392.85
905.3932	1690.6754	63019.85	62127.55
905.5347	1692.4012	63130.8	62237.4
905.6761	1694.1263	63111.8	62219.1
905.8176	1695.8506	63052.6	62160.25
905.9591	1697.5742	63012.8	62120.2
906.1005	1699.297	62962.6	62069.25
906.2419	1701.0191	62956.5	62062.85
906.3833	1702.7404	62822.85	61932.35
906.5246	1704.461	62729.15	61835.25
906.666	1706.1808	62768.55	61875.9
906.8073	1707.8999	62720.55	61827.85
906.9487	1709.6182	62704.7	61811.15
907.09	1711.3358	62657.95	61764.85
907.2313	1713.0527	62606.8	61714.3
907.3725	1714.7688	62609.95	61712.25
907.5138	1716.4841	62345.6	61449.1
907.655	1718.1987	62437.35	61538.25
907.7962	1719.9126	62318.65	61428.35
907.9374	1721.6257	62379.55	61484
908.0786	1723.338	62405	61511.9
908.2198	1725.0496	62032.7	61139.65
908.3609	1726.7605	62066.65	61173.85
908.502	1728.4706	61942.95	61049.6
908.6431	1730.18	62060.55	61165.9
908.7842	1731.8886	61871.5	60978.85
908.9253	1733.5964	61778.95	60883.25
909.0664	1735.3036	61953.35	61059.2
909.2074	1737.0099	61786.3	60893.9
909.3484	1738.7156	61628.15	60736.25
909.4894	1740.4204	61567	60672.2
909.6304	1742.1246	61611.1	60716.5
909.7714	1743.8279	61617.1	60726.4
909.9123	1745.5306	61592.15	60700.85
910.0532	1747.2325	61074.6	60183.65
910.1941	1748.9336	61110.1	60219.5
910.335	1750.634	61254.1	60359.55
910.4759	1752.3336	61364.8	60470.7
910.6168	1754.0325	60988.85	60097.4
910.7576	1755.7307	61292.15	60400.05
910.8984	1757.4281	60847.6	59954.5
911.0392	1759.1247	61182.9	60283.2
911.18	1760.8206	60644	59745.05
911.3208	1762.5158	60685.75	59790.15
911.4615	1764.2102	60764.65	59874.95
911.6022	1765.9039	60642.2	59750.05
911.7429	1767.5968	60517.85	59625.1
911.8836	1769.289	60459.2	59567.3
912.0243	1770.9804	60528.8	59637.5
912.1649	1772.6711	60391.2	59499.2
912.3056	1774.361	60320.65	59427.65
912.4462	1776.0502	60314.65	59422.7
912.5868	1777.7386	59860.5	58964.9
912.7274	1779.4263	60109.95	59216.5
912.8679	1781.1132	60118.4	59226.75
913.0084	1782.7994	59967.5	59074.4
913.149	1784.4849	59960.4	59070.55
913.2895	1786.1696	59462.5	58564.05
913.4299	1787.8535	59726.45	58836.7
913.5704	1789.5367	59803.35	58912.65
913.7108	1791.2192	59431.2	58541.05
913.8513	1792.9009	59173	58251.4
913.9917	1794.5818	59471.2	58578.05
914.132	1796.2621	59145.9	58255.4
914.2724	1797.9415	59135.4	58242.6
914.4128	1799.6202	59097.8	58204.7
914.5531	1801.2982	59131.15	58240.9
914.6934	1802.9755	58778.75	57887.1
914.8337	1804.6519	58650.95	57758.45
914.9739	1806.3277	59103.4	58213.85
915.1142	1808.0027	58302.45	57412.45
915.2544	1809.6769	58654.05	57763.1
915.3946	1811.3504	58650.75	57758.75
915.5348	1813.0231	58038	57146.8
915.675	1814.6951	58411.5	57519.45
915.8151	1816.3664	58180.35	57287
915.9553	1818.0369	58181.25	57289.55
916.0954	1819.7067	57965.8	57075.1
916.2355	1821.3757	58230.9	57339.65
916.3755	1823.044	57729.05	56839.8
916.5156	1824.7115	57483.6	56591.85
916.6556	1826.3783	57667.55	56777.45
916.7956	1828.0443	57668.9	56780.55
916.9356	1829.7096	57448.3	56555.7
917.0756	1831.3741	57014.65	56121.2
917.2155	1833.0379	57244.85	56352.9
917.3555	1834.701	57228.5	56334.8
917.4954	1836.3633	56886.3	55995.1
917.6353	1838.0248	57092.45	56199.95
917.7751	1839.6856	56940.1	56050.05
917.915	1841.3457	56562.85	55673.25
918.0548	1843.005	56941.35	56049.85
918.1946	1844.6636	56692.05	55803.75
918.3344	1846.3214	56189.5	55298.05
918.4742	1847.9785	56313.2	55422.2
918.6139	1849.6349	56290.85	55398.45
918.7537	1851.2904	56581.15	55679.85
918.8934	1852.9453	56009.7	55118.45
919.0331	1854.5994	56201.6	55307.4
919.1727	1856.2528	56166.65	55271.65
919.3124	1857.9054	55787.7	54895.3
919.452	1859.5572	55627.3	54736.25
919.5916	1861.2083	55753.85	54860.55
919.7312	1862.8587	56132.2	55241.9
919.8708	1864.5084	55165.5	54274.4
920.0103	1866.1572	55546.3	54656.3
920.1498	1867.8054	54999.65	54107.95
920.2893	1869.4528	55264.85	54373.45
920.4288	1871.0994	54888.75	53997.35
920.5683	1872.7453	54821.2	53928
920.7077	1874.3905	54991.35	54094.45
920.8471	1876.0349	54532.5	53640.65
920.9865	1877.6786	54853.9	53962.8
921.1259	1879.3215	54487.3	53597.1
921.2653	1880.9637	54807.55	53916.15
921.4046	1882.6051	54422.15	53531
921.5439	1884.2458	54214.2	53320.6
921.6832	1885.8858	53946.9	53056.75
921.8225	1887.525	54123.3	53230.4
921.9617	1889.1634	53972.75	53084
922.101	1890.8011	53779.75	52889.5
922.2402	1892.4381	53347.5	52457.7
922.3794	1894.0743	53862.35	52970.4
922.5185	1895.7098	53543.15	52652.1
922.6577	1897.3446	53254.4	52362.4
922.7968	1898.9786	53310.2	52414.95
922.9359	1900.6118	53032.85	52141
923.075	1902.2443	52748.1	51853.85
923.214	1903.8761	53007.6	52117.45
923.3531	1905.5071	52649.4	51757.15
923.4921	1907.1374	52035.1	51144.6
923.6311	1908.7669	52279.85	51388.6
923.77	1910.3957	52484.75	51595.25
923.909	1912.0237	51970.75	51080.7
924.0479	1913.651	51733.25	50840.2
924.1868	1915.2776	51619	50728.8
924.3257	1916.9034	51581.5	50692.45
924.4646	1918.5285	51277.6	50388.25
924.6034	1920.1528	51267.15	50376.75
924.7422	1921.7764	51065.3	50174.5
924.881	1923.3992	51050.9	50160.05
925.0198	1925.0213	50685.85	49795.95
925.1586	1926.6427	50235.35	49346.3
925.2973	1928.2633	50451.9	49483.25
925.436	1929.8832	50269.9	49376.6
925.5747	1931.5023	50038.2	49147.15
925.7134	1933.1207	49619.05	48729.7
925.852	1934.7383	49840.35	48950.7
925.9906	1936.3552	49471.65	48581.3
926.1292	1937.9714	49465.15	48573.85
926.2678	1939.5868	49311.75	48420.15
926.4064	1941.2015	48990	48099.55
926.5449	1942.8154	48541.7	47650.85
926.6834	1944.4286	48615.5	47725.3
926.8219	1946.041	48595.4	47686
926.9604	1947.6528	48254.75	47358.65
927.0988	1949.2637	48059.9	47169.15
927.2372	1950.8739	47802.5	46911.05
927.3756	1952.4834	47959.9	47069.8
927.514	1954.0921	47745.05	46852.3
927.6523	1955.7001	47448.35	46554.8
927.7907	1957.3074	47458.5	46568.85
927.929	1958.9139	47015.25	46125.75
928.0673	1960.5197	47140.15	46247.9
928.2055	1962.1247	46846.4	45957
928.3438	1963.729	46590.85	45701.25
928.482	1965.3325	46460.6	45548.05
928.6202	1966.9353	46525.35	45634.3
928.7584	1968.5374	46164.45	45274
928.8965	1970.1387	45976.1	45084.6
929.0346	1971.7393	45964.1	45074.7
929.1727	1973.3392	45741	44851.1
929.3108	1974.9383	45500.1	44610.2
929.4489	1976.5366	45328.95	44438.05
929.5869	1978.1342	45287.95	44396.9
929.7249	1979.7311	45183	44292
929.8629	1981.3273	45048.3	44156.75
930.0009	1982.9227	44863.95	43972.8
930.1388	1984.5173	44841.7	43953.85
930.2767	1986.1112	44487.75	43597.95
930.4146	1987.7044	44606.45	43717.9
930.5525	1989.2968	44210.15	43316.7
930.6904	1990.8885	44263.95	43372.55
930.8282	1992.4795	43969.95	43078.4
930.966	1994.0697	43860.65	42974.05
931.1038	1995.6592	43774	42886.15
931.2415	1997.2479	43581.3	42691.55
931.3793	1998.8359	43528.4	42637.95
931.517	2000.4232	43279.55	42393.95
931.6547	2002.0097	43234.55	42348.05
931.7923	2003.5955	43049.9	42163
931.93	2005.1805	43006.25	42114.9
932.0676	2006.7648	42809.7	41919.75
932.2052	2008.3484	42677.2	41788.1
932.3427	2009.9312	42730.85	41839.85
932.4803	2011.5133	42548	41661.15
932.6178	2013.0946	42443.5	41553.55
932.7553	2014.6752	42263.4	41376.15
932.8928	2016.2551	42175.15	41287.55
933.0302	2017.8342	41962.35	41076.05
933.1676	2019.4126	41767.05	40879.85
933.305	2020.9902	41634.05	40747.7
933.4424	2022.5672	41570.25	40679.6
933.5798	2024.1433	41441.35	40547.15
933.7171	2025.7188	41332.95	40446.3
933.8544	2027.2935	41162.15	40272.7
933.9917	2028.8674	40986.5	40098.7
934.129	2030.4406	40913	40025.3
934.2662	2032.0131	40701.45	39813.85
934.4034	2033.5849	40530	39632.2
934.5406	2035.1559	40507.15	39618.5
934.6778	2036.7261	40431.35	39543.1
934.8149	2038.2957	40305.65	39413.45
934.952	2039.8645	40210.6	39322.55
935.0891	2041.4325	40233.6	39339.2
935.2262	2042.9998	40061.1	39172.65
935.3632	2044.5664	39801.45	38910.7
935.5002	2046.1323	39822.35	38933.65
935.6372	2047.6974	39694.2	38800.55
935.7742	2049.2617	39567.85	38674
935.9111	2050.8254	39641.05	38734.75
936.048	2052.3883	39399.05	38492.65
936.1849	2053.9504	39283.65	38371.3
936.3218	2055.5118	39165.55	38251.25
936.4586	2057.0725	38991.95	38067.45
936.5955	2058.6325	38919.3	37992.35
936.7323	2060.1917	38785.35	37856.85
936.869	2061.7502	38712	37781.9
937.0058	2063.3079	38561.25	37635
937.1425	2064.8649	38455.5	37527.6
937.2792	2066.4212	38358.95	37443.75
937.4159	2067.9767	38198.95	37291.35
937.5525	2069.5315	38077.35	37174.25
937.6891	2071.0856	37841.15	36940.8
937.8257	2072.6389	37696.05	36800.05
937.9623	2074.1915	37581.7	36691.65
938.0989	2075.7433	37383.9	36490.85
938.2354	2077.2945	37358.9	36469.95
938.3719	2078.8448	37164.65	36274.25
938.5084	2080.3945	37076.2	36186.9
938.6448	2081.9434	36962	36072.65
938.7812	2083.4916	36904.95	36014.7
938.9176	2085.039	36718.35	35825.4
939.054	2086.5857	36709	35817.6
939.1903	2088.1317	36602.3	35711.2
939.3267	2089.677	36528.95	35636.9
939.463	2091.2215	36384.2	35495.45
939.5992	2092.7652	36250.85	35359.55
939.7355	2094.3083	36142.7	35254.35
939.8717	2095.8506	36167.7	35279
940.0079	2097.3921	36069.5	35181.75
940.1441	2098.933	35945.65	35057.2
940.2802	2100.4731	35811.05	34921.75
940.4163	2102.0124	35829.45	34933.85
940.5524	2103.5511	35709.95	34822.4
940.6885	2105.089	35628.35	34739.25
940.8245	2106.6261	35517.55	34628.9
940.9606	2108.1626	35440.8	34553.4
941.0965	2109.6983	35293.6	34378.9
941.2325	2111.2332	35220.55	34329.95
941.3684	2112.7675	35116.95	34226.8
941.5044	2114.301	35027.1	34137.65
941.6403	2115.8337	34978.25	34088.2
941.7761	2117.3657	34872.85	33984
941.912	2118.897	34806.25	33916.7
942.0478	2120.4276	34642.95	33745.85
942.1835	2121.9575	34438.25	33546.95
942.3193	2123.4866	34445.6	33541.1
942.455	2125.0149	34355.15	33464.1
942.5907	2126.5426	34170.45	33281.55
942.7264	2128.0695	34049.4	33157.2
942.8621	2129.5956	34029.9	33142.7
942.9977	2131.1211	33948.7	33053.9
943.1333	2132.6458	33829.8	32939.45
943.2689	2134.1698	33762.2	32871.65
943.4044	2135.693	33626.6	32732.6
943.54	2137.2155	33617.25	32723.75
943.6755	2138.7373	33497.85	32609.15
943.8109	2140.2584	33370.2	32481.3
943.9464	2141.7787	33296.8	32403.3
944.0818	2143.2983	33134.25	32245.25
944.2172	2144.8171	32960.3	32073.05
944.3526	2146.3353	32878.9	31987.85
944.4879	2147.8527	32742	31852.95
944.6232	2149.3693	32735.3	31846.75
944.7585	2150.8853	32533.9	31644.35
944.8938	2152.4005	32440.9	31552.3
945.029	2153.9149	32399.3	31510.6
945.1642	2155.4287	32270.2	31380.1
945.2994	2156.9417	32198.95	31307
945.4346	2158.454	32071.85	31180.95
945.5697	2159.9655	31987.25	31098.75
945.7048	2161.4764	31980.9	31092.2
945.8399	2162.9865	31852.9	30962.1
945.9749	2164.4958	31787.35	30898.15
946.1099	2166.0045	31637.25	30746.15
946.2449	2167.5124	31592.45	30702.7
946.3799	2169.0195	31510.35	30624.95
946.5148	2170.526	31437.35	30548.85
946.6498	2172.0317	31361.4	30473.75
946.7846	2173.5367	31262.25	30372.3
946.9195	2175.0409	31193.35	30305.5
947.0543	2176.5445	31151.95	30264.05
947.1891	2178.0473	31036.65	30147.8
947.3239	2179.5494	30890.4	29999
947.4587	2181.0507	30793.55	29904.05
947.5934	2182.5513	30685.2	29797.65
947.7281	2184.0512	30639.3	29750.2
947.8628	2185.5504	30528.05	29638.65
947.9974	2187.0488	30312.05	29422.8
948.132	2188.5465	30210.8	29323.4
948.2666	2190.0435	30127.25	29238.9
948.4012	2191.5397	30026.55	29138.9
948.5357	2193.0353	29955.65	29067.5
948.6702	2194.5301	29806.1	28914.75
948.8047	2196.0241	29615.85	28726.4
948.9392	2197.5175	29638.7	28749
949.0736	2199.0101	29533.95	28640.35
949.208	2200.502	29368.85	28480.3
949.3424	2201.9931	29241.4	28351.75
949.4767	2203.4835	29114.1	28225.1
949.611	2204.9733	29057.45	28163.45
949.7453	2206.4622	28987.5	28099.85
949.8796	2207.9505	28873.45	27982.25
950.0138	2209.438	28747.8	27860.7
950.148	2210.9248	28637.75	27746.65
950.2822	2212.4109	28540.1	27650.95
950.4164	2213.8962	28462.7	27570.2
950.5505	2215.3809	28418.45	27527
950.6846	2216.8648	28339.05	27449.85
950.8186	2218.3479	28240.2	27346.9
950.9527	2219.8304	28115.2	27223.2
951.0867	2221.3121	27993.55	27101.1
951.2207	2222.7931	27889.55	27000.85
951.3546	2224.2733	27764.75	26876.9
951.4886	2225.7529	27712.95	26823.35
951.6225	2227.2317	27636.45	26744.1
951.7563	2228.7098	27592.3	26703.05
951.8902	2230.1872	27426.85	26539.85
952.024	2231.6638	27389.35	26500.1
952.1578	2233.1397	27259.95	26368
952.2916	2234.6149	27180.2	26293.1
952.4253	2236.0894	27075.1	26185.3
952.559	2237.5632	27049.4	26160.6
952.6927	2239.0362	26912.3	26023.35
952.8263	2240.5085	26854.25	25963.9
952.9599	2241.9801	26721.45	25832.35
953.0935	2243.4509	26647.5	25758.65
953.2271	2244.921	26553.85	25664.95
953.3606	2246.3904	26464.65	25574.05
953.4941	2247.8591	26377.55	25486.8
953.6276	2249.3271	26295.65	25406.5
953.7611	2250.7943	26169.85	25279.7
953.8945	2252.2608	26110.5	25220.05
954.0279	2253.7266	26049.15	25160.35
954.1612	2255.1917	25942.1	25054.85
954.2946	2256.656	25860.5	24970.1
954.4279	2258.1197	25785.05	24896.3
954.5612	2259.5826	25764.25	24873.95
954.6944	2261.0447	25716.55	24827.3
954.8276	2262.5062	25552.3	24662.15
954.9608	2263.9669	25515.7	24625
955.094	2265.4269	25427.7	24537.8
955.2271	2266.8862	25354.65	24463.35
955.3602	2268.3448	25345.4	24455.8
955.4933	2269.8026	25264.65	24376.85
955.6264	2271.2598	25151.05	24261.85
955.7594	2272.7162	25052.75	24164.65
955.8924	2274.1719	25003.55	24115
956.0253	2275.6268	24949.25	24059.4
956.1583	2277.0811	24872.9	23984.1
956.2912	2278.5346	24748.55	23860
956.4241	2279.9874	24683.8	23794.7
956.5569	2281.4395	24662.15	23774.65
956.6897	2282.8908	24543.05	23648.95
956.8225	2284.3414	24539.5	23648.55
956.9553	2285.7914	24408.2	23519.75
957.088	2287.2406	24342.5	23452.8
957.2207	2288.689	24280.6	23390.25
957.3534	2290.1368	24186.25	23294.7
957.486	2291.5838	24090.4	23198.1
957.6186	2293.0302	24073.35	23180.8
957.7512	2294.4758	23946.15	23055.45
957.8838	2295.9206	23848.2	22955.85
958.0163	2297.3648	23764.7	22874.4
958.1488	2298.8082	23736.1	22846
958.2813	2300.251	23667.55	22780.45
958.4137	2301.693	23555.05	22663
958.5461	2303.1343	23546.05	22657.9
958.6785	2304.5748	23437.5	22548.1
958.8108	2306.0147	23344.5	22453.6
958.9432	2307.4538	23331.15	22441.15
959.0754	2308.8922	23229.65	22342.15
959.2077	2310.3299	23163.35	22273.7
959.3399	2311.7669	23112.8	22223.15
959.4721	2313.2031	23062.1	22171.7
959.6043	2314.6387	22882	21992.05
959.7365	2316.0735	22820.55	21931.1
959.8686	2317.5076	22831.5	21942.65
960.0006	2318.941	22732.6	21844.75
960.1327	2320.3737	22648.35	21756.2
960.2647	2321.8056	22563.45	21671.35
960.3967	2323.2369	22474.2	21584.3
960.5287	2324.6674	22435.95	21544
960.6606	2326.0972	22357.1	21466.1
960.7925	2327.5263	22269.9	21380.4
960.9244	2328.9547	22204.25	21313.9
961.0562	2330.3823	22165.55	21277.75
961.1881	2331.8092	22106.2	21214.85
961.3198	2333.2355	21999.95	21112.35
961.4516	2334.661	21979	21088.35
961.5833	2336.0858	21945.3	21054.75
961.715	2337.5098	21869.95	20979.75
961.8467	2338.9332	21824.75	20933.95
961.9783	2340.3558	21736.6	20842
962.1099	2341.7778	21657.15	20768.1
962.2415	2343.199	21570	20680.95
962.373	2344.6195	21475.75	20586.3
962.5045	2346.0393	21415.9	20527.15
962.636	2347.4583	21421	20531.45
962.7675	2348.8767	21350.8	20460
962.8989	2350.2943	21290.2	20400.1
963.0303	2351.7113	21234.35	20343.2
963.1617	2353.1275	21149.95	20260.55
963.293	2354.543	21048.15	20150.75
963.4243	2355.9578	20975.2	20087.9
963.5556	2357.3718	20870.2	19982.45
963.6868	2358.7852	20780.65	19888.1
963.818	2360.1978	20722.4	19833.05
963.9492	2361.6098	20676.35	19789.9
964.0803	2363.021	20600.45	19707.1
964.2114	2364.4315	20540.85	19652.15
964.3425	2365.8413	20483.55	19593.1
964.4736	2367.2504	20400.8	19513.4
964.6046	2368.6587	20320.7	19429.75
964.7356	2370.0664	20244.3	19354
964.8666	2371.4733	20171.1	19280.5
964.9975	2372.8795	20120.25	19232.05
965.1284	2374.285	20055.5	19164.95
965.2593	2375.6899	19939.8	19053.3
965.3901	2377.0939	19814.45	18925.7
965.5209	2378.4973	19798	18909.05
965.6517	2379.9	19707.85	18819.15
965.7825	2381.3019	19642.2	18752.7
965.9132	2382.7032	19571.4	18683.75
966.0439	2384.1037	19560.1	18674.45
966.1745	2385.5035	19472.4	18583.5
966.3051	2386.9027	19401.7	18514.6
966.4357	2388.3011	19353.9	18461.5
966.5663	2389.6987	19294.25	18406.25
966.6968	2391.0957	19227.95	18341.2
966.8273	2392.492	19158.2	18269.7
966.9578	2393.8876	19044.35	18155.4
967.0882	2395.2824	18965.05	18075.85
967.2186	2396.6765	18866.85	17979.35
967.349	2398.07	18779.55	17890.9
967.4793	2399.4627	18758.6	17868.85
967.6097	2400.8547	18719.85	17832.05
967.7399	2402.246	18669.5	17772.55
967.8702	2403.6366	18548.25	17657.75
968.0004	2405.0265	18459.85	17572.65
968.1306	2406.4156	18402.05	17507.8
968.2607	2407.8041	18328	17436.65
968.3909	2409.1918	18250.35	17360.35
968.521	2410.5789	18168.25	17281.55
968.651	2411.9652	18107.15	17216.2
968.781	2413.3508	18056.45	17167.05
968.911	2414.7358	17965.6	17078.1
969.041	2416.12	17918.9	17030.55
969.1709	2417.5035	17877.85	16989.7
969.3008	2418.8863	17784.55	16893.7
969.4307	2420.2684	17752	16862.9
969.5606	2421.6497	17661.6	16771.95
969.6904	2423.0304	17526.25	16638.25
969.8201	2424.4104	17509.1	16621.55
969.9499	2425.7896	17446.3	16555.7
970.0796	2427.1682	17414.8	16524.2
970.2093	2428.546	17349.95	16460.05
970.3389	2429.9232	17336.35	16446.3
970.4685	2431.2996	17282.25	16393.05
970.5981	2432.6753	17208.35	16320.5
970.7277	2434.0503	17180.65	16293.05
970.8572	2435.4246	17071.2	16183.5
970.9867	2436.7982	17037.7	16145.9
971.1161	2438.1711	17008.2	16119.65
971.2456	2439.5433	16944.7	16054.55
971.375	2440.9148	16870	15974.4
971.5043	2442.2856	16795.7	15906.4
971.6336	2443.6557	16752.4	15861.4
971.7629	2445.025	16675.65	15788.1
971.8922	2446.3937	16620.55	15731.8
972.0214	2447.7617	16555.15	15666.6
972.1506	2449.1289	16546.9	15659.4
972.2798	2450.4955	16469.5	15575.2
972.4089	2451.8613	16405.95	15518
972.538	2453.2265	16384.65	15497.35
972.6671	2454.5909	16335.6	15446.9
972.7961	2455.9546	16299.4	15409.9
972.9251	2457.3177	16210.15	15323.1
973.0541	2458.68	16167	15275.9
973.1831	2460.0416	16157.85	15269.75
973.312	2461.4025	16131.15	15241
973.4408	2462.7627	16079.05	15179.65
973.5697	2464.1222	15984.6	15096.9
973.6985	2465.4811	15953.95	15062.95
973.8273	2466.8392	15906.2	15015.55
973.956	2468.1966	15836	14945.2
974.0847	2469.5533	15833.6	14942.5
974.2134	2470.9093	15758.05	14869.45
974.3421	2472.2645	15724.4	14835.7
974.4707	2473.6191	15656.8	14767.9
974.5993	2474.973	15577	14688.1
974.7278	2476.3262	15544.3	14652.75
974.8563	2477.6787	15502	14614.15
974.9848	2479.0305	15406.35	14518.05
975.1132	2480.3816	15353.25	14461.75
975.2417	2481.7319	15300.55	14411.35
975.37	2483.0816	15263.55	14373.45
975.4984	2484.4306	15193	14304.3
975.6267	2485.7789	15148.35	14262.35
975.755	2487.1264	15023.8	14134.6
975.8833	2488.4733	15006.55	14119.45
976.0115	2489.8195	14969.4	14073.4
976.1397	2491.165	14879.3	13987.1
976.2678	2492.5097	14882.05	13989.9
976.3959	2493.8538	14748.2	13859.2
976.524	2495.1972	14718.35	13830.4
976.6521	2496.5398	14657.95	13768.75
976.7801	2497.8818	14633.9	13742.65
976.9081	2499.2231	14550.05	13661.65
977.036	2500.5637	14507.9	13619.15
977.164	2501.9035	14486.25	13595.2
977.2918	2503.2427	14422.7	13531.35
977.4197	2504.5812	14360.75	13471.95
977.5475	2505.919	14325	13433.8
977.6753	2507.256	14297.7	13409.4
977.8031	2508.5924	14223.65	13335.1
977.9308	2509.9281	14199.6	13305.9
978.0585	2511.2631	14136.95	13248
978.1861	2512.5974	14105.45	13217.55
978.3137	2513.9309	14024.75	13136.15
978.4413	2515.2638	14007	13092.2
978.5689	2516.596	13948.5	13057.65
978.6964	2517.9275	13878.2	12987.9
978.8239	2519.2583	13814.75	12926.7
978.9513	2520.5884	13762.85	12873.4
979.0788	2521.9178	13735.6	12847.1
979.2062	2523.2465	13674.95	12785.85
979.3335	2524.5745	13610.3	12721.55
979.4608	2525.9018	13563.9	12674.75
979.5881	2527.2284	13554.4	12668.25
979.7154	2528.5543	13488	12601.45
979.8426	2529.8796	13453.8	12567.5
979.9698	2531.2041	13448.3	12558.75
980.0969	2532.5279	13404.95	12519.85
980.224	2533.851	13365.85	12477.7
980.3511	2535.1735	13323	12435.9
980.4781	2536.4952	13270.85	12383.15
980.6052	2537.8163	13259.35	12370.6
980.7321	2539.1366	13192.2	12303.5
980.8591	2540.4562	13155.25	12265.25
980.986	2541.7752	13160.7	12273.3
981.1129	2543.0935	13106.9	12219.75
981.2397	2544.411	13083.2	12192.65
981.3665	2545.7279	13055.65	12167.6
981.4933	2547.0441	13056.95	12169.55
981.62	2548.3596	13017.55	12125.1
981.7467	2549.6744	12953.6	12063.85
981.8734	2550.9885	12923.1	12027.8
982.0001	2552.3019	12879.35	11988.85
982.1267	2553.6146	12848.85	11959.1
982.2532	2554.9266	12819.75	11930.35
982.3798	2556.2379	12769.4	11879.1
982.5063	2557.5485	12761.8	11875
982.6327	2558.8585	12706.8	11810.45
982.7592	2560.1677	12669.05	11775.45
982.8856	2561.4762	12634.95	11745.9
983.0119	2562.7841	12616.85	11724.85
983.1383	2564.0913	12578.35	11689
983.2646	2565.3977	12596.75	11709.65
983.3908	2566.7035	12515.45	11629.45
983.517	2568.0086	12505.65	11616.3
983.6432	2569.313	12485.1	11597.4
983.7694	2570.6167	12442.9	11551.85
983.8955	2571.9197	12416.7	11528.75
984.0216	2573.222	12356.75	11464.2
984.1476	2574.5236	12358.85	11469.1
984.2737	2575.8246	12312.45	11421.3
984.3996	2577.1248	12293.6	11402.55
984.5256	2578.4244	12301.5	11415.25
984.6515	2579.7232	12272.1	11384.1
984.7774	2581.0214	12228.25	11314.45
984.9032	2582.3189	12206.75	11317
985.029	2583.6157	12170.8	11278.05
985.1548	2584.9118	12121.65	11230.6
985.2806	2586.2072	12085.05	11197.75
985.4063	2587.5019	12059.7	11172.25
985.5319	2588.7959	12032.95	11143.6
985.6576	2590.0893	12001.25	11112.05
985.7832	2591.3819	11953.95	11066.9
985.9087	2592.6739	11895.8	11007.95
986.0343	2593.9652	11865.9	10977.4
986.1597	2595.2557	11840.05	10952.6
986.2852	2596.5456	11772.35	10883.7
986.4106	2597.8348	11728.75	10841.15
986.536	2599.1234	11707.7	10820.9
986.6614	2600.4112	11643.6	10755.85
986.7867	2601.6983	11619.35	10726.95
986.912	2602.9848	11590.65	10701.35
987.0372	2604.2705	11515.7	10620.4
987.1624	2605.5556	11509.55	10620.9
987.2876	2606.84	11455.15	10564.85
987.4128	2608.1237	11422.55	10533.6
987.5379	2609.4067	11359.85	10472
987.6629	2610.689	11332.55	10433.75
987.788	2611.9707	11275.95	10386.05
987.913	2613.2516	11255.45	10362.75
988.0379	2614.5319	11163.5	10275.45
988.1629	2615.8115	11149.85	10261.3
988.2878	2617.0903	11115.5	10225.15
988.4126	2618.3685	11035.55	10146.5
988.5375	2619.6461	11023.2	10134.4
988.6622	2620.9229	11003.9	10117.45
988.787	2622.199	10951.6	10061.35
988.9117	2623.4745	10927.65	10039.7
989.0364	2624.7493	10894.05	10006.95
989.161	2626.0234	10845.45	9958.65
989.2857	2627.2968	10803.8	9915.2
989.4102	2628.5695	10732.6	9843.6
989.5348	2629.8415	10701.55	9813.7
989.6593	2631.1128	10648.5	9759.85
989.7837	2632.3835	10610.75	9722.8
989.9082	2633.6535	10563.4	9674.95
990.0326	2634.9228	10544.55	9658.35
990.1569	2636.1914	10509.85	9622.35
990.2812	2637.4593	10512.65	9618.5
990.4055	2638.7265	10442.65	9555.6
990.5298	2639.9931	10420	9534.35
990.654	2641.259	10371.8	9483.05
990.7782	2642.5242	10350.9	9462.05
990.9023	2643.7887	10312.05	9423.75
991.0264	2645.0525	10285.05	9397.45
991.1505	2646.3156	10228.3	9339.45
991.2745	2647.5781	10178.95	9290.8
991.3985	2648.8398	10155.65	9267.55
991.5225	2650.1009	10169	9242.65
991.6464	2651.3613	10121.8	9231.85
991.7703	2652.6211	10082.25	9194.3
991.8942	2653.8801	10020.9	9132.8
992.018	2655.1385	10009	9120.1
992.1418	2656.3961	9945.2	9054.45
992.2655	2657.6531	9972.1	9083.15
992.3892	2658.9094	9926	9037.1
992.5129	2660.1651	9876.25	8989.4
992.6366	2661.42	9874.8	8986.6
992.7602	2662.6743	9870.25	8980.25
992.8837	2663.9279	9813.65	8926.9
993.0073	2665.1808	9798.5	8907.85
993.1307	2666.433	9761.45	8871.9
993.2542	2667.6846	9726.45	8839.4
993.3776	2668.9354	9697.45	8805.25
993.501	2670.1856	9683.15	8794.05
993.6244	2671.4351	9645.8	8758.75
993.7477	2672.6839	9616.05	8727.3
993.8709	2673.9321	9587.7	8699.9
993.9942	2675.1795	9578.8	8689.25
994.1174	2676.4263	9550.55	8662.35
994.2405	2677.6724	9525.6	8638.65
994.3637	2678.9179	9495.8	8607.65
994.4868	2680.1626	9465.1	8580.15
994.6098	2681.4067	9441.55	8551
994.7328	2682.6501	9392.4	8502.05
994.8558	2683.8928	9344.8	8457.15
994.9788	2685.1348	9312.55	8424.75
995.1017	2686.3761	9304.95	8416.65
995.2245	2687.6168	9253.65	8365.6
995.3474	2688.8568	9241.05	8353.6
995.4702	2690.0961	9189.6	8302.15
995.5929	2691.3348	9175.7	8287.85
995.7156	2692.5727	9142.15	8252.05
995.8383	2693.81	9100.2	8212.05
995.961	2695.0466	9072	8185.85
996.0836	2696.2826	9042.95	8153.35
996.2062	2697.5178	9046.4	8156.4
996.3287	2698.7524	9011.2	8122.5
996.4512	2699.9863	9006.55	8116.75
996.5737	2701.2195	8951.05	8065.75
996.6961	2702.452	8923.95	8035.25
996.8185	2703.6839	8888.75	7998.6
996.9408	2704.9151	8867.1	7980.1
997.0631	2706.1456	8821.5	7933
997.1854	2707.3755	8815.7	7925.1
997.3077	2708.6046	8774.55	7882.6
997.4299	2709.8331	8763	7874.65
997.552	2711.0609	8736.9	7849.2
997.6742	2712.2881	8707.45	7819.4
997.7963	2713.5145	8669.9	7778.3
997.9183	2714.7403	8647.8	7761.4
998.0403	2715.9654	8615.45	7726.1
998.1623	2717.1899	8606.15	7714.85
998.2842	2718.4136	8577.25	7690
998.4062	2719.6367	8544.75	7656.3
998.528	2720.8591	8559.5	7664.85
998.6498	2722.0809	8488.55	7599.8
998.7716	2723.3019	8474.25	7584.7
998.8934	2724.5223	8432.7	7542.85
999.0151	2725.7421	8413.55	7525.2
999.1368	2726.9611	8377.2	7487.35
999.2584	2728.1795	8368.45	7476.7
999.38	2729.3972	8332.8	7444.6
999.5016	2730.6142	8306.3	7409.05
999.6231	2731.8306	8257.7	7368.3
999.7446	2733.0462	8206.9	7318.6
999.8661	2734.2612	8176.8	7283.4
999.9875	2735.4756	8148.05	7258.6
1000.1089	2736.6892	8086.3	7195.95
1000.2302	2737.9022	8040.75	7153.95
1000.3515	2739.1145	7999.75	7112.3
1000.4728	2740.3262	7976.8	7080.15
1000.594	2741.5372	7941.7	7054.8
1000.7152	2742.7475	7891.35	7003.55
1000.8363	2743.9571	7866.15	6976.3
1000.9575	2745.1661	7831.35	6937.35
1001.0785	2746.3744	7802.3	6914.25
1001.1996	2747.582	7787.3	6899.15
1001.3206	2748.7889	7744.55	6855.1
1001.4415	2749.9952	7711	6825.05
1001.5625	2751.2008	7691.3	6802.25
1001.6833	2752.4057	7671	6782.15
1001.8042	2753.61	7646	6756.85
1001.925	2754.8136	7593	6703.4
1002.0458	2756.0165	7591.35	6702.7
1002.1665	2757.2188	7550.95	6664.45
1002.2872	2758.4204	7510.5	6623.4
1002.4078	2759.6213	7482.45	6590.4
1002.5285	2760.8215	7473.15	6582.55
1002.649	2762.0211	7439.35	6550.55
1002.7696	2763.22	7430	6540.45
1002.8901	2764.4182	7414.7	6525.4
1003.0106	2765.6158	7384.2	6495.15
1003.131	2766.8127	7360.05	6472.75
1003.2514	2768.009	7319.25	6431.05
1003.3717	2769.2045	7298.45	6408.3
1003.492	2770.3994	7308.5	6419.65
1003.6123	2771.5936	7254.65	6366.85
1003.7325	2772.7872	7217.5	6331.65
1003.8527	2773.9801	7195.8	6306.65
1003.9729	2775.1723	7195.25	6293.4
1004.093	2776.3639	7136.8	6248.65
1004.2131	2777.5548	7109.7	6219.45
1004.3331	2778.745	7081.8	6192.65
1004.4531	2779.9346	7087.1	6200.6
1004.5731	2781.1235	7068.6	6179.6
1004.693	2782.3117	7018.5	6130.1
1004.8129	2783.4992	7004.05	6116.5
1004.9328	2784.6861	6979.7	6092.65
1005.0526	2785.8723	6983.15	6093.45
1005.1723	2787.0579	6949.9	6058.25
1005.2921	2788.2428	6927.9	6038
1005.4118	2789.427	6886.2	5998.75
1005.5314	2790.6106	6893.85	6005.25
1005.651	2791.7935	6866.65	5978.45
1005.7706	2792.9757	6847.8	5963
1005.8902	2794.1573	6799.65	5908.15
1006.0097	2795.3382	6807.8	5921.55
1006.1291	2796.5184	6782.7	5897.35
1006.2485	2797.698	6772.7	5883.4
1006.3679	2798.8769	6770.05	5882.5
1006.4873	2800.0551	6745.85	5856.9
1006.6066	2801.2327	6728.65	5838.4
1006.7258	2802.4096	6701.95	5814.35
1006.8451	2803.5859	6693.85	5804.35
1006.9642	2804.7615	6693.25	5805
1007.0834	2805.9364	6670.6	5784.8
1007.2025	2807.1106	6684.45	5797.85
1007.3216	2808.2842	6670.75	5783
1007.4406	2809.4572	6675.55	5785.65
1007.5596	2810.6294	6680.45	5791.95
1007.6785	2811.801	6692.15	5804.2
1007.7975	2812.972	6702.65	5816.05
1007.9163	2814.1423	6734.95	5847
1008.0352	2815.3119	6744.25	5854.85
1008.154	2816.4808	6760.55	5872.65
1008.2727	2817.6491	6789.9	5900.65
1008.3914	2818.8167	6812.3	5927.55
1008.5101	2819.9837	6847.15	5955.05
1008.6288	2821.15	6876.8	5988.65
1008.7474	2822.3157	6898.55	6012.35
1008.8659	2823.4807	6916.95	6028.45
1008.9844	2824.645	6935.55	6048.05
1009.1029	2825.8086	6942.1	6058.05
1009.2214	2826.9716	6982.7	6096.3
1009.3398	2828.134	7017.7	6131.05
1009.4581	2829.2957	7042.3	6154
1009.5764	2830.4567	7044.15	6156.75
1009.6947	2831.617	7072.7	6184.55
1009.813	2832.7767	7059.55	6171.75
1009.9312	2833.9358	7029.2	6142.5
1010.0493	2835.0941	7022.5	6133.6
1010.1675	2836.2519	6996.9	6109.3
1010.2855	2837.4089	6965.9	6077.8
1010.4036	2838.5653	6943.1	6056.1
1010.5216	2839.7211	6928.55	6041.85
1010.6396	2840.8761	6864.85	5977.25
1010.7575	2842.0306	6883.05	5996.15
1010.8754	2843.1843	6916.55	6028.6
1010.9932	2844.3374	6919.7	6031.8
1011.111	2845.4899	6930.45	6041.45
1011.2288	2846.6417	6984.75	6097.45
1011.3465	2847.7928	7010.3	6124.3
1011.4642	2848.9433	7048.55	6162.2
1011.5818	2850.0931	7087.65	6202.75
1011.6995	2851.2422	7144.45	6254.5
1011.817	2852.3907	7184.5	6296.05
1011.9345	2853.5385	7208.2	6318.25
1012.052	2854.6857	7228.7	6333.4
1012.1695	2855.8323	7249.35	6363.1
1012.2869	2856.9781	7272.65	6385.45
1012.4042	2858.1233	7290.9	6403.25
1012.5216	2859.2679	7315.85	6427.05
1012.6389	2860.4118	7356.65	6470.3
1012.7561	2861.555	7345.55	6452.9
1012.8733	2862.6976	7353.5	6463.4
1012.9905	2863.8395	7369.25	6481.85
1013.1076	2864.9808	7382	6494.75
1013.2247	2866.1214	7376.4	6489.95
1013.3417	2867.2614	7350.2	6461.55
1013.4587	2868.4007	7372.4	6484.85
1013.5757	2869.5393	7328.05	6438.7
1013.6926	2870.6773	7350.35	6458.55
1013.8095	2871.8146	7341.4	6451.15
1013.9263	2872.9513	7329.4	6439.75
1014.0431	2874.0874	7275	6387.15
1014.1599	2875.2227	7252.55	6364.2
1014.2766	2876.3574	7243.45	6356.15
1014.3933	2877.4915	7175.75	6287.8
1014.51	2878.6249	7136.7	6249.85
1014.6266	2879.7577	7100.9	6212.7
1014.7431	2880.8898	7085.55	6189.6
1014.8596	2882.0212	7029.3	6141.95
1014.9761	2883.152	7033.3	6144.25
1015.0925	2884.2821	6983.3	6095.7
1015.2089	2885.4116	6938.35	6051.3
1015.3253	2886.5405	6948.5	6061.25
1015.4416	2887.6686	6928.95	6038.75
1015.5579	2888.7962	6924.6	6036.8
1015.6741	2889.923	6887.55	6002.1
1015.7903	2891.0493	6869.65	5983.3
1015.9065	2892.1748	6859.1	5971.3
1016.0226	2893.2997	6860.45	5973.05
1016.1387	2894.424	6849.5	5962.5
1016.2547	2895.5476	6838.65	5953.5
1016.3707	2896.6706	6824.8	5938.55
1016.4866	2897.7929	6846.7	5958.95
1016.6025	2898.9145	6841.5	5953.15
1016.7184	2900.0355	6844.4	5955.65
1016.8342	2901.1559	6872.25	5984.9
1016.95	2902.2756	6864.95	5977.05
1017.0658	2903.3946	6872.45	5986.4
1017.1815	2904.513	6888.25	5998.15
1017.2971	2905.6308	6869.3	5981.4
1017.4127	2906.7479	6891.55	6004.7
1017.5283	2907.8643	6894.3	6004.3
1017.6439	2908.9801	6891.65	6004.5
1017.7594	2910.0953	6865.75	5979
1017.8748	2911.2098	6850.3	5960.3
1017.9902	2912.3236	6816.8	5921.75
1018.1056	2913.4368	6798.6	5909.3
1018.2209	2914.5494	6776.2	5887.5
1018.3362	2915.6613	6750.95	5858.6
1018.4515	2916.7725	6704.95	5815.75
1018.5667	2917.8831	6658.15	5769.85
1018.6819	2918.9931	6611.9	5722.6
1018.797	2920.1024	6571	5681.75
1018.9121	2921.211	6544.4	5657.7
1019.0271	2922.319	6545.3	5657.65
1019.1421	2923.4264	6491.2	5604.5
1019.2571	2924.5331	6464.35	5577.6
1019.372	2925.6391	6433.5	5546
1019.4869	2926.7445	6423.9	5539.65
1019.6017	2927.8493	6426.4	5539.35
1019.7165	2928.9534	6406.55	5519.8
1019.8313	2930.0569	6406.4	5516.3
1019.946	2931.1597	6376	5488.6
1020.0606	2932.2619	6351.45	5464.4
1020.1753	2933.3634	6367.35	5480.5
1020.2899	2934.4643	6359.8	5468
1020.4044	2935.5645	6329	5435.95
1020.5189	2936.6641	6298.15	5405.95
1020.6334	2937.763	6230.75	5344.95
1020.7478	2938.8613	6197.75	5309.25
1020.8622	2939.959	6140.9	5249.75
1020.9765	2941.056	6070.45	5184.4
1021.0908	2942.1523	5996.45	5108
1021.2051	2943.248	5928.4	5040.95
1021.3193	2944.3431	5829.45	4942.35
1021.4334	2945.4375	5725.6	4838.15
1021.5476	2946.5313	5628.5	4743.35
1021.6617	2947.6244	5538.3	4650.95
1021.7757	2948.7169	5457.35	4569.8
1021.8897	2949.8087	5365.5	4477.8
1022.0037	2950.8999	5267.3	4380.8
1022.1176	2951.9904	5173.4	4286
1022.2315	2953.0803	5111.3	4223.45
1022.3453	2954.1696	5061.45	4174.05
1022.4591	2955.2582	4998.3	4112.65
1022.5728	2956.3462	4936.9	4049.6
1022.6865	2957.4335	4890.1	4000.25
1022.8002	2958.5202	4852.15	3961.05
1022.9138	2959.6062	4807.9	3919.8
1023.0274	2960.6916	4772.85	3885.3
1023.141	2961.7764	4734.2	3845.9
1023.2545	2962.8605	4706.1	3818.25
1023.3679	2963.9439	4688.1	3802.15
1023.4813	2965.0267	4686.6	3799
1023.5947	2966.1089	4674.65	3765.3
1023.708	2967.1905	4623.65	3736.75
1023.8213	2968.2714	4616.05	3730.05
1023.9346	2969.3516	4595.9	3710.25
1024.0478	2970.4312	4584.65	3689.8
1024.1609	2971.5102	4563.65	3676.8
1024.274	2972.5885	4549.85	3663.45
1024.3871	2973.6662	4549.6	3657.9
1024.5002	2974.7432	4519.2	3632.3
1024.6132	2975.8196	4513.9	3628.5
1024.7261	2976.8954	4494.6	3608.85
1024.839	2977.9705	4466.35	3580.45
1024.9519	2979.045	4449.5	3564.85
1025.0647	2980.1188	4431.55	3544.8
1025.1775	2981.192	4398.7	3513.1
1025.2902	2982.2645	4373.45	3484.4
1025.4029	2983.3364	4357.3	3470.35
1025.5156	2984.4077	4319.8	3433.9
1025.6282	2985.4783	4283.3	3390.1
1025.7407	2986.5483	4245.35	3358.1
1025.8532	2987.6177	4204.5	3317.7
1025.9657	2988.6864	4177.15	3289.4
1026.0782	2989.7545	4149.05	3261.45
1026.1906	2990.8219	4102	3216.7
1026.3029	2991.8887	4067.35	3177.4
1026.4152	2992.9548	4024	3137.15
1026.5275	2994.0204	3999.25	3112.05
1026.6397	2995.0852	3946.05	3060.65
1026.7519	2996.1495	3926.95	3037.8
1026.864	2997.2131	3893.1	3007.15
1026.9761	2998.276	3854.25	2965.4
1027.0882	2999.3383	3849.2	2961.25
1027.2002	3000.4	3812.1	2925.1
1027.3122	3001.4611	3793.45	2905.3
1027.4241	3002.5215	3766.35	2879.4
1027.536	3003.5812	3734.3	2847.55
1027.6478	3004.6404	3720	2832.25
1027.7596	3005.6989	3702.2	2812
1027.8714	3006.7567	3686.7	2799.3
1027.9831	3007.8139	3673.75	2764.4
1028.0947	3008.8705	3643.8	2758
1028.2064	3009.9264	3624.65	2734.1
1028.3179	3010.9818	3613.1	2726.9
1028.4295	3012.0364	3604.4	2716.15
1028.541	3013.0905	3594.2	2707.4
1028.6524	3014.1439	3570.75	2683.55
1028.7638	3015.1966	3560.75	2673.25
1028.8752	3016.2487	3552.05	2665.15
1028.9865	3017.3002	3554.8	2663.45
1029.0978	3018.3511	3517.45	2630.4
1029.209	3019.4013	3504.9	2618.7
1029.3202	3020.4509	3506.7	2620.95
1029.4314	3021.4998	3502.15	2615.05
1029.5425	3022.5481	3479.85	2595.7
1029.6535	3023.5958	3483.45	2596.85
1029.7645	3024.6428	3461.3	2573.75
1029.8755	3025.6892	3443.65	2557.05
1029.9864	3026.735	3454	2568.35
1030.0973	3027.7802	3430.45	2542.85
1030.2082	3028.8247	3421.6	2535.25
1030.319	3029.8685	3403.7	2517.7
1030.4297	3030.9118	3402.9	2512.95
1030.5404	3031.9544	3379.4	2494.25
1030.6511	3032.9963	3379.2	2493.55
1030.7617	3034.0376	3384.25	2498.7
1030.8723	3035.0783	3368.65	2478.15
1030.9829	3036.1184	3350.75	2463.9
1031.0934	3037.1578	3345.75	2459.75
1031.2038	3038.1966	3344.65	2457.35
1031.3142	3039.2348	3339.25	2453.15
1031.4246	3040.2723	3320.3	2425.5
1031.5349	3041.3092	3322.9	2435.85
1031.6452	3042.3455	3303.8	2418.85
1031.7554	3043.3811	3296.95	2410.8
1031.8656	3044.4161	3284.05	2396.55
1031.9758	3045.4505	3272.1	2386.6
1032.0859	3046.4842	3255.7	2367.45
1032.1959	3047.5173	3235.2	2349
1032.3059	3048.5498	3238.5	2351.2
1032.4159	3049.5816	3229.65	2341.75
1032.5258	3050.6128	3215.1	2328.85
1032.6357	3051.6434	3209.75	2320.35
1032.7455	3052.6734	3194.25	2307.8
1032.8553	3053.7027	3191.25	2304.1
1032.9651	3054.7314	3168.4	2282.2
1033.0748	3055.7594	3157.25	2270.9
1033.1845	3056.7868	3165.8	2276.55
1033.2941	3057.8136	3138.85	2252.05
1033.4037	3058.8398	3123.75	2237.7
1033.5132	3059.8653	3113.45	2229
1033.6227	3060.8902	3114.75	2229.3
1033.7321	3061.9145	3101.15	2212.6
1033.8415	3062.9381	3076.4	2190.6
1033.9509	3063.9612	3085.15	2183.1
1034.0602	3064.9835	3062.8	2175.7
1034.1694	3066.0053	3053.05	2165.1
1034.2787	3067.0264	3050.2	2162.45
1034.3878	3068.0469	3023.8	2135.6
1034.497	3069.0668	3021.9	2131.45
1034.6061	3070.086	2989.75	2103.7
1034.7151	3071.1046	3003.6	2116.7
1034.8241	3072.1226	2981.4	2091.05
1034.9331	3073.1399	2966.5	2081.8
1035.042	3074.1567	2959	2073.5
1035.1508	3075.1727	2929.35	2041.55
1035.2597	3076.1882	2912.55	2027.2
1035.3684	3077.203	2909.7	2023.55
1035.4772	3078.2173	2893.1	2007.9
1035.5859	3079.2308	2895.15	2004.15
1035.6945	3080.2438	2869.1	1980.5
1035.8031	3081.2561	2862.15	1974.15
1035.9117	3082.2678	2847.15	1959.35
1036.0202	3083.2789	2832	1943.2
1036.1286	3084.2893	2823.4	1937.65
1036.2371	3085.2991	2798.85	1912.45
1036.3454	3086.3083	2796.55	1905.8
1036.4538	3087.3169	2783.75	1896
1036.562	3088.3248	2783.85	1895.85
1036.6703	3089.3321	2768.5	1880.35
1036.7785	3090.3388	2746.3	1862.65
1036.8866	3091.3449	2742.15	1855.8
1036.9948	3092.3503	2735.7	1846.75
1037.1028	3093.3551	2734.5	1848.7
1037.2108	3094.3593	2722.5	1836.3
1037.3188	3095.3629	2706.1	1818.95
1037.4267	3096.3658	2712.45	1825.9
1037.5346	3097.3681	2677.15	1790.85
1037.6425	3098.3698	2681.95	1793.9
1037.7503	3099.3708	2662.4	1771.85
1037.858	3100.3713	2642.6	1755.1
1037.9657	3101.3711	2642.15	1753.55
1038.0734	3102.3702	2739.85	1713.15
1038.181	3103.3688	2635.3	1746.05
1038.2886	3104.3667	2607.7	1720.8
1038.3961	3105.364	2601.7	1717.3
1038.5036	3106.3607	2587.1	1698.55
1038.611	3107.3568	2577.35	1688.9
1038.7184	3108.3522	2570	1681.65
1038.8257	3109.347	2560.05	1672.95
1038.933	3110.3412	2546.9	1656.55
1039.0403	3111.3348	2538.4	1652.3
1039.1475	3112.3277	2531.55	1645.95
1039.2547	3113.32	2514.45	1628.6
1039.3618	3114.3117	2516.7	1630.55
1039.4689	3115.3028	2509.05	1621.75
1039.5759	3116.2932	2490.2	1602.9
1039.6829	3117.2831	2487.1	1597.3
1039.7898	3118.2723	2476.45	1590.1
1039.8967	3119.2608	2466.55	1580.65
1040.0035	3120.2488	2456.95	1569.5
1040.1103	3121.2361	2440.4	1552.45
1040.2171	3122.2229	2433.4	1548.95
1040.3238	3123.209	2433.25	1547
1040.4305	3124.1944	2424.15	1539
1040.5371	3125.1793	2408.9	1521.95
1040.6437	3126.1635	2402.65	1515.65
1040.7502	3127.1471	2387.45	1501.35
1040.8567	3128.1301	2386.8	1499.75
1040.9631	3129.1125	2381.65	1494.8
1041.0695	3130.0942	2373	1486.6
1041.1759	3131.0753	2372.5	1478.35
1041.2822	3132.0558	2357.4	1468.45
1041.3884	3133.0357	2345.75	1459.9
1041.4946	3134.015	2340	1451.85
1041.6008	3134.9936	2340	1453.1
1041.7069	3135.9716	2347.9	1439.1
1041.813	3136.949	2320.9	1434.5
1041.919	3137.9258	2322.6	1430.3
1042.025	3138.902	2319.6	1426.4
1042.1309	3139.8775	2293.95	1409.1
1042.2368	3140.8524	2299.95	1414.8
1042.3427	3141.8267	2307.2	1419.2
1042.4485	3142.8004	2285.45	1397.85
1042.5542	3143.7735	2288.7	1395.65
1042.6599	3144.7459	2284.5	1394.95
1042.7656	3145.7178	2277.2	1389.05
1042.8712	3146.689	2258.85	1371.85
1042.9768	3147.6596	2249.05	1360.5
1043.0823	3148.6295	2248.8	1361.75
1043.1878	3149.5989	2244.1	1360.1
1043.2932	3150.5676	2228.9	1342.7
1043.3986	3151.5357	2222.05	1337.2
1043.5039	3152.5032	2216.8	1329.4
1043.6092	3153.4701	2211.2	1325.1
1043.7145	3154.4364	2206.85	1318.6
1043.8197	3155.402	2188.5	1303.15
1043.9248	3156.367	2184.2	1297.7
1044.03	3157.3315	2217.45	1285.6
1044.135	3158.2952	2174.7	1286.5
1044.24	3159.2584	2166.7	1281.85
1044.345	3160.221	2157.65	1271.3
1044.4499	3161.1829	2153.2	1268.25
1044.5548	3162.1442	2138.2	1251.35
1044.6596	3163.105	2130.05	1243.3
1044.7644	3164.065	2124.9	1237.9
1044.8692	3165.0245	2125.85	1235.9
1044.9739	3165.9834	2113.3	1228.3
1045.0785	3166.9416	2114	1227.5
1045.1831	3167.8993	2096.25	1210.3
1045.2877	3168.8563	2103.05	1215.95
1045.3922	3169.8127	2087.1	1203.15
1045.4966	3170.7684	2069.7	1183.2
1045.6011	3171.7236	2065.95	1179.3
1045.7054	3172.6782	2071.1	1185
1045.8098	3173.6321	2070.2	1182.2
1045.914	3174.5854	2054.4	1163
1046.0183	3175.5381	2048.1	1160.85
1046.1224	3176.4902	2036.75	1150.45
1046.2266	3177.4417	2035.15	1147.95
1046.3307	3178.3926	2022.65	1134.3
1046.4347	3179.3428	2024.5	1139.05
1046.5387	3180.2924	2014.45	1128.3
1046.6427	3181.2415	2014.8	1128.1
1046.7466	3182.1899	2005.8	1117.15
1046.8504	3183.1377	2006.3	1121.5
1046.9542	3184.0848	1998.3	1108.75
1047.058	3185.0314	1974.95	1088.35
1047.1617	3185.9773	1980.5	1093.15
1047.2654	3186.9227	1979.65	1093.1
1047.369	3187.8674	1969.6	1082.55
1047.4726	3188.8115	1968	1077.25
1047.5761	3189.755	1961.05	1074.65
1047.6796	3190.6979	1949.6	1062.85
1047.783	3191.6402	1958.15	1073.05
1047.8864	3192.5818	1945.25	1059.75
1047.9898	3193.5229	1958.45	1055.9
1048.0931	3194.4633	1940.4	1054.95
1048.1963	3195.4031	1934.4	1045.9
1048.2995	3196.3423	1926.45	1039.55
1048.4027	3197.2809	1912.75	1026.45
1048.5058	3198.2189	1909.2	1024.15
1048.6089	3199.1563	1913.95	1012.8
1048.7119	3200.0931	1907.7	1024.05
1048.8148	3201.0292	1886.85	1000.95
1048.9178	3201.9648	1881.1	994.3
1049.0206	3202.8997	1894.2	1006.15
1049.1235	3203.834	1886.2	998
1049.2262	3204.7677	1864.6	979.45
1049.329	3205.7008	1872.7	985.5
1049.4317	3206.6333	1864.25	978.4
1049.5343	3207.5652	1853	966.65
1049.6369	3208.4964	1855.05	966.7
1049.7394	3209.4271	1847.4	962
1049.8419	3210.3571	1841.9	955.2
1049.9444	3211.2865	1834.85	948
1050.0468	3212.2154	1834.5	946.85
1050.1491	3213.1436	1829.55	939.75
1050.2514	3214.0712	1839.25	946.8
1050.3537	3214.9982	1818.3	931.7
1050.4559	3215.9246	1810.1	926.2
1050.5581	3216.8503	1817.15	932.6
1050.6602	3217.7755	1803.15	915.95
1050.7623	3218.7001	1807.7	922.8
1050.8643	3219.624	1796.35	910.8
1050.9663	3220.5473	1781.95	896.1
1051.0682	3221.4701	1790.55	901.95
1051.1701	3222.3922	1777.9	889
1051.2719	3223.3137	1779.2	894
1051.3737	3224.2346	1766.25	879.35
1051.4754	3225.1549	1761.8	875.95
1051.5771	3226.0746	1763.1	878.05
1051.6788	3226.9937	1759.7	873.9
1051.7804	3227.9121	1754.85	869.7
1051.8819	3228.83	1741.1	852.7
1051.9834	3229.7473	1739.7	854.3
1052.0849	3230.6639	1733.9	846.8
1052.1863	3231.5799	1734.45	849.65
1052.2876	3232.4954	1728.65	842.15
1052.3889	3233.4102	1724.1	839.2
1052.4902	3234.3244	1726.05	841.2
1052.5914	3235.238	1709.4	822.45
1052.6926	3236.151	1730.3	819.2
1052.7937	3237.0634	1701.6	816.25
1052.8948	3237.9752	1698.45	812.65
1052.9958	3238.8864	1697.2	811.8
1053.0968	3239.797	1691.4	805.45
1053.1977	3240.7069	1684.5	797.45
1053.2986	3241.6163	1681.2	794.7
1053.3994	3242.5251	1678.95	793.75
1053.5002	3243.4332	1675.05	790.45
1053.6009	3244.3408	1671.95	784.3
1053.7016	3245.2477	1661.1	774.8
1053.8022	3246.154	1655.3	768.1
1053.9028	3247.0598	1657.85	770.25
1054.0034	3247.9649	1655.55	769.8
1054.1039	3248.8694	1644.6	759
1054.2043	3249.7733	1637.6	749.8
1054.3047	3250.6766	1636.9	749.5
1054.4051	3251.5793	1636.05	748.1
1054.5054	3252.4814	1629.6	741.65
1054.6056	3253.3829	1624.1	737.8
1054.7058	3254.2838	1612.95	727.85
1054.806	3255.1841	1603.95	719.8
1054.9061	3256.0838	1611.15	723.4
1055.0061	3256.9829	1596.95	714.15
1055.1062	3257.8814	1595.9	709.15
1055.2061	3258.7792	1587.45	699.65
1055.306	3259.6765	1573.05	685.55
1055.4059	3260.5731	1573.15	687.1
1055.5057	3261.4692	1559.2	671.75
1055.6055	3262.3647	1549.95	663.1
1055.7052	3263.2595	1543.65	656.6
1055.8049	3264.1538	1532.7	647.25
1055.9045	3265.0474	1533.3	647.5
1056.0041	3265.9404	1524.9	639.6
1056.1036	3266.8329	1511.55	627.2
1056.2031	3267.7247	1501.6	605.75
1056.3025	3268.616	1480.1	593
1056.4019	3269.5066	1470.45	584.5
1056.5013	3270.3966	1450.85	564.35
1056.6005	3271.286	1431.95	548.05
