Software Version:	3.9.2.0
Unit SN:	10000200
Spectrometer SN:	6960
Date:	3/6/2024 10:23:24 AM
Data Line Index:	25
Spectral Points:	2048
Integration time (ms):	125
Averages:	20
Delay (ms):	30
Sequence Number:	1
Processing:	dark subtract
Laser Power (mW):	305
Laser Current (mA):	824
Laser Diode Temp (C):	25
Laser Case Temp (C):	25.6
System Temp (C):	25.4
Spectrometer Temp (C):	22.9
CCD Temp (C):	-0.011
Secondary Temp (C):	20.007
Heatsink Temp (C):	21.095
CCDPCB Temp (C):	35.218
SecondaryPCB Temp (C):	27.714

Wavelength	RamanShift	Raw Counts	Dark Subtracted
787.061	30.1047	1087.15	676.4
787.2016	32.3739	1118	710.05
787.3422	34.6426	1144.65	733.75
787.4828	36.9109	1198.7	784.95
787.6235	39.1787	1253.95	837.65
787.7642	41.4461	1306.05	885
787.9049	43.7131	1371.05	946.95
788.0456	45.9796	1430.05	1003.05
788.1863	48.2456	1488.25	1059.55
788.3271	50.5112	1549.95	1115.65
788.4679	52.7764	1621.1	1184.45
788.6087	55.0411	1687.75	1245.75
788.7496	57.3054	1764.4	1315.1
788.8904	59.5692	1841.7	1391.95
789.0313	61.8326	1940.25	1488.95
789.1722	64.0955	2046.5	1590.65
789.3132	66.3579	2155.7	1694.2
789.4541	68.6199	2306.05	1841.55
789.5951	70.8815	2546.3	2078.1
789.7361	73.1426	3055.1	2582.3
789.8771	75.4032	4385.15	3907.2
790.0181	77.6634	7775.25	7294.2
790.1592	79.9231	16708.55	16224.25
790.3003	82.1824	53124.75	52626.8
790.4414	84.4412	65535	65017.5
790.5825	86.6995	65535	64986.5
790.7237	88.9574	65535	64962.75
790.8648	91.2148	65535	64944.8
791.006	93.4717	65535	64936.4
791.1472	95.7282	65535	64928.5
791.2885	97.9842	65535	64924.35
791.4297	100.2398	65535	64922.5
791.571	102.4949	65535	64920.85
791.7123	104.7495	65535	64917.15
791.8536	107.0036	65535	64916.5
791.9949	109.2573	65535	64917.5
792.1363	111.5105	65535	64915.2
792.2777	113.7632	65535	64915.1
792.4191	116.0154	65535	64900.65
792.5605	118.2672	65535	64910.05
792.7019	120.5185	65535	64907.45
792.8434	122.7693	65535	64903.65
792.9849	125.0197	65535	64897.45
793.1264	127.2696	65535	64894.35
793.2679	129.519	65535	64895
793.4094	131.7679	65535	64892.5
793.551	134.0163	65535	64892.15
793.6926	136.2642	65535	64885.8
793.8342	138.5117	65535	64875.5
793.9758	140.7587	65535	64882.8
794.1175	143.0052	65535	64882.35
794.2591	145.2512	65535	64876.95
794.4008	147.4967	65535	64875.95
794.5425	149.7417	65535	64872.75
794.6842	151.9863	65535	64869.75
794.826	154.2304	65535	64863.8
794.9677	156.4739	65535	64859.55
795.1095	158.717	65535	64861.15
795.2513	160.9596	65535	64855.2
795.3931	163.2017	65535	64854.8
795.535	165.4433	65535	64853.85
795.6768	167.6844	65535	64849.15
795.8187	169.925	65535	64848.05
795.9606	172.1651	65535	64845.15
796.1025	174.4047	65535	64839.1
796.2445	176.6439	65535	64843.7
796.3864	178.8825	65535	64836.45
796.5284	181.1206	65535	64831.9
796.6704	183.3582	65535	64828.45
796.8124	185.5954	65535	64830.35
796.9544	187.832	65535	64826.7
797.0965	190.0681	65535	64821.95
797.2386	192.3037	65535	64818
797.3806	194.5388	65535	64815.35
797.5228	196.7734	65535	64815.3
797.6649	199.0075	65535	64812.55
797.807	201.2411	65535	64810.5
797.9492	203.4742	65535	64814.15
798.0914	205.7068	65535	64808.6
798.2336	207.9389	65535	64805.65
798.3758	210.1704	65535	64805.4
798.518	212.4015	65535	64813.4
798.6603	214.632	65535	64824
798.8025	216.862	65535	64828.35
798.9448	219.0915	65535	64826.35
799.0871	221.3205	65535	64821.3
799.2294	223.549	65535	64828.2
799.3718	225.777	65535	64826.9
799.5141	228.0044	65535	64821.6
799.6565	230.2314	65535	64819.65
799.7989	232.4578	65535	64815.4
799.9413	234.6837	65535	64805.85
800.0837	236.909	65535	64806.3
800.2262	239.1339	65535	64780.4
800.3687	241.3582	65535	64793.2
800.5111	243.582	65535	64762
800.6536	245.8053	65535	64776.05
800.7961	248.0281	65535	64784.1
800.9387	250.2503	65535	64778.5
801.0812	252.472	65535	64779.05
801.2238	254.6932	65535	64778.65
801.3664	256.9139	65535	64778.75
801.509	259.134	65535	64770.8
801.6516	261.3536	65535	64774.6
801.7942	263.5727	65535	64774.1
801.9369	265.7912	65535	64774.05
802.0795	268.0092	65535	64773.85
802.2222	270.2267	65535	64771.85
802.3649	272.4436	65535	64772.4
802.5076	274.6601	65535	64759.5
802.6504	276.8759	65535	64763.2
802.7931	279.0913	65535	64765.05
802.9359	281.3061	65535	64761.85
803.0787	283.5204	65535	64756.85
803.2215	285.7341	65535	64757.15
803.3643	287.9473	65535	64748.35
803.5071	290.16	65535	64751.9
803.6499	292.3721	65535	64759.7
803.7928	294.5837	65535	64756.45
803.9357	296.7947	65535	64754.7
804.0786	299.0052	65535	64759.9
804.2215	301.2152	65535	64754.15
804.3644	303.4246	65535	64756.55
804.5074	305.6334	65535	64756.35
804.6503	307.8418	65535	64751.35
804.7933	310.0495	65535	64753.15
804.9363	312.2568	65535	64753.05
805.0793	314.4635	65535	64747
805.2223	316.6696	65535	64750.25
805.3653	318.8752	65535	64738.6
805.5084	321.0802	65535	64745.6
805.6514	323.2847	65535	64743
805.7945	325.4887	65535	64741.8
805.9376	327.692	65535	64744.35
806.0807	329.8949	65535	64741.25
806.2238	332.0972	65535	64741.2
806.367	334.2989	65535	64737.65
806.5101	336.5001	65535	64735.7
806.6533	338.7007	65535	64739.2
806.7965	340.9008	65535	64736.3
806.9397	343.1003	65535	64731.55
807.0829	345.2992	65535	64730.8
807.2261	347.4976	65535	64729.6
807.3693	349.6955	65535	64725.75
807.5126	351.8927	65535	64725.3
807.6559	354.0895	65535	64716.5
807.7991	356.2856	65535	64725.05
807.9424	358.4812	65535	64726.05
808.0857	360.6763	65535	64722.35
808.2291	362.8707	65535	64718.95
808.3724	365.0646	65535	64717.15
808.5158	367.258	65535	64719.05
808.6591	369.4508	65535	64711.5
808.8025	371.643	65535	64713.85
808.9459	373.8346	65535	64709.45
809.0893	376.0257	65535	64707.25
809.2327	378.2162	65535	64708.75
809.3762	380.4062	65535	64707.95
809.5196	382.5956	65535	64709.55
809.6631	384.7844	65535	64714.9
809.8066	386.9726	65535	64715.15
809.9501	389.1603	65535	64718.05
810.0936	391.3474	65535	64675.4
810.2371	393.5339	65535	64713.75
810.3806	395.7199	65535	64718.65
810.5241	397.9052	65535	64720.8
810.6677	400.09	65535	64714.8
810.8113	402.2743	65535	64714.15
810.9548	404.4579	65535	64714.55
811.0984	406.641	65535	64712.65
811.2421	408.8235	65535	64711.2
811.3857	411.0054	65535	64707.8
811.5293	413.1868	65535	64707.5
811.673	415.3675	65535	64704.1
811.8166	417.5477	65535	64702.25
811.9603	419.7273	65535	64699.5
812.104	421.9064	65535	64689.95
812.2477	424.0848	65535	64698.2
812.3914	426.2627	65535	64696.15
812.5351	428.4399	65535	64695.3
812.6788	430.6166	65535	64694.35
812.8226	432.7928	65535	64697.35
812.9663	434.9683	65535	64693
813.1101	437.1432	65535	64688.5
813.2539	439.3176	65535	64689.75
813.3977	441.4914	65535	64692.65
813.5415	443.6645	65535	64691.8
813.6853	445.8371	65535	64688.5
813.8291	448.0091	65535	64692
813.973	450.1806	65535	64691.95
814.1168	452.3514	65535	64691.8
814.2607	454.5216	65535	64681.15
814.4046	456.6913	65535	64687.9
814.5485	458.8603	65535	64689.9
814.6924	461.0288	65535	64691.9
814.8363	463.1967	65535	64689.4
814.9802	465.3639	65535	64684.6
815.1241	467.5306	65535	64685.15
815.2681	469.6967	65535	64688.1
815.412	471.8622	65535	64690
815.556	474.0271	65535	64687.25
815.7	476.1914	65535	64684.1
815.844	478.3551	65535	64688.7
815.988	480.5182	65535	64685.1
816.132	482.6807	65535	64685.1
816.276	484.8426	65535	64687.3
816.4201	487.0039	65535	64684.6
816.5641	489.1647	65535	64682.8
816.7082	491.3248	65535	64682.5
816.8522	493.4843	65535	64683.6
816.9963	495.6432	65535	64683.9
817.1404	497.8015	65535	64677.4
817.2845	499.9592	65535	64677.25
817.4286	502.1163	65535	64678.15
817.5727	504.2728	65535	64677.4
817.7168	506.4287	65535	64682.95
817.861	508.5839	65535	64681.8
818.0051	510.7386	65535	64681.25
818.1493	512.8927	65535	64672.65
818.2935	515.0461	65535	64675.15
818.4377	517.199	65535	64677.9
818.5818	519.3512	65535	64677.9
818.726	521.5029	65535	64671.25
818.8703	523.6539	65535	64677
819.0145	525.8043	65535	64671.25
819.1587	527.9541	65535	64669.5
819.303	530.1033	65535	64672.55
819.4472	532.2519	65535	64670.45
819.5915	534.3999	65535	64667.9
819.7357	536.5472	65535	64671
819.88	538.694	65535	64672.05
820.0243	540.8401	65535	64670.25
820.1686	542.9856	65535	64663.8
820.3129	545.1305	65535	64668.05
820.4572	547.2748	65535	64666.9
820.6016	549.4185	65535	64663.25
820.7459	551.5615	65535	64665.7
820.8902	553.704	65535	64666.5
821.0346	555.8458	65535	64665.45
821.1789	557.987	65535	64666.85
821.3233	560.1276	65535	64665.75
821.4677	562.2675	65535	64669.55
821.6121	564.4069	65535	64667.05
821.7565	566.5456	65535	64669.9
821.9009	568.6837	65535	64666.85
822.0453	570.8212	65535	64666.1
822.1897	572.958	65535	64664.65
822.3342	575.0942	65535	64668.55
822.4786	577.2299	65535	64668.4
822.6231	579.3648	65535	64669.95
822.7675	581.4992	65535	64663.9
822.912	583.6329	65535	64672.05
823.0565	585.766	65535	64669.2
823.201	587.8985	65535	64669.1
823.3454	590.0304	65535	64640.8
823.4899	592.1616	65535	64663
823.6345	594.2922	65535	64662.55
823.779	596.4222	65535	64661.25
823.9235	598.5515	65535	64659.95
824.068	600.6802	65535	64662.6
824.2126	602.8083	65535	64659.85
824.3571	604.9358	65535	64660.7
824.5017	607.0626	65535	64659.05
824.6462	609.1888	65535	64655.9
824.7908	611.3144	65535	64656.95
824.9354	613.4393	65535	64658.8
825.08	615.5636	65535	64659.85
825.2246	617.6873	65535	64661.1
825.3692	619.8103	65535	64654.45
825.5138	621.9327	65535	64656.95
825.6584	624.0544	65535	64660.75
825.803	626.1756	65535	64658.3
825.9477	628.2961	65535	64657.3
826.0923	630.4159	65535	64659
826.237	632.5351	65535	64658.6
826.3816	634.6537	65535	64654.4
826.5263	636.7716	65535	64652.85
826.6709	638.8889	65535	64653.8
826.8156	641.0056	65535	64653.15
826.9603	643.1216	65535	64653.35
827.105	645.237	65535	64653.95
827.2497	647.3518	65535	64652.2
827.3944	649.4659	65535	64655.45
827.5391	651.5793	65535	64655.25
827.6838	653.6922	65535	64654.55
827.8285	655.8043	65535	64656.05
827.9733	657.9159	65535	64656.2
828.118	660.0268	65535	64652.15
828.2627	662.137	65535	64652.3
828.4075	664.2466	65535	64652.15
828.5522	666.3556	65535	64652.15
828.697	668.4639	65535	64648.45
828.8418	670.5716	65535	64652.7
828.9865	672.6786	65535	64652.6
829.1313	674.785	65535	64649.8
829.2761	676.8907	65535	64649.1
829.4209	678.9958	65535	64653.1
829.5657	681.1002	65535	64650.65
829.7105	683.204	65535	64646.35
829.8553	685.3072	65535	64647.35
830.0001	687.4097	65535	64644.4
830.1449	689.5115	65535	64647.5
830.2898	691.6127	65535	64650.3
830.4346	693.7132	65535	64646.7
830.5794	695.8131	65535	64637.4
830.7243	697.9123	65535	64645.55
830.8691	700.0109	65535	64645.05
831.014	702.1089	65535	64647.2
831.1588	704.2061	65535	64646.6
831.3037	706.3028	65535	64645.5
831.4486	708.3987	65535	64647.45
831.5935	710.4941	65535	64645.55
831.7383	712.5887	65535	64643.95
831.8832	714.6827	65535	64645.2
832.0281	716.7761	65535	64649.4
832.173	718.8688	65535	64644.3
832.3179	720.9608	65535	64641.7
832.4628	723.0522	65535	64638.45
832.6077	725.1429	65535	64643.4
832.7527	727.233	65535	64643.15
832.8976	729.3224	65535	64645.35
833.0425	731.4112	65535	64642.25
833.1874	733.4993	65535	64640.85
833.3324	735.5867	65535	64643.2
833.4773	737.6735	65535	64639.7
833.6222	739.7596	65535	64640.2
833.7672	741.845	65535	64643.15
833.9122	743.9298	65535	64638.8
834.0571	746.014	65535	64643.55
834.2021	748.0974	65535	64639.35
834.347	750.1802	65535	64638.05
834.492	752.2624	65535	64641.5
834.637	754.3439	65535	64638.75
834.782	756.4247	65535	64634.8
834.9269	758.5048	65535	64640.35
835.0719	760.5843	65535	64639.1
835.2169	762.6631	65535	64642.8
835.3619	764.7413	65535	64644.45
835.5069	766.8188	65535	64641.85
835.6519	768.8956	65535	64637.8
835.7969	770.9718	65535	64640.25
835.9419	773.0473	65535	64643.6
836.0869	775.1221	65535	64641.1
836.232	777.1962	65535	64640.8
836.377	779.2697	65535	64639.9
836.522	781.3426	65535	64622.35
836.667	783.4147	65535	64639.55
836.8121	785.4862	65535	64637.8
836.9571	787.557	65535	64640.65
837.1021	789.6271	65535	64639.3
837.2472	791.6966	65535	64639.9
837.3922	793.7654	65535	64635.85
837.5373	795.8335	65535	64641.75
837.6823	797.901	65535	64641.95
837.8274	799.9678	65535	64638.95
837.9724	802.0339	65535	64639.65
838.1175	804.0993	65535	64628.4
838.2626	806.1641	65535	64639.35
838.4076	808.2282	65535	64638.25
838.5527	810.2916	65535	64634.35
838.6978	812.3544	65535	64642.1
838.8428	814.4164	65535	64643.55
838.9879	816.4778	65535	64638.3
839.133	818.5385	65535	64637.1
839.2781	820.5986	65535	64638.1
839.4232	822.658	65535	64637.9
839.5682	824.7166	65535	64638.9
839.7133	826.7747	65535	64640.3
839.8584	828.832	65535	64638.2
840.0035	830.8886	65535	64633.55
840.1486	832.9446	65535	64635.35
840.2937	834.9999	65535	64637.1
840.4388	837.0545	65535	64631.75
840.5839	839.1085	65535	64636.5
840.729	841.1618	65535	64635
840.8741	843.2143	65535	64638.25
841.0192	845.2662	65535	64636.15
841.1643	847.3175	65535	64639.5
841.3095	849.368	65535	64634.35
841.4546	851.4179	65535	64638
841.5997	853.467	65535	64635.95
841.7448	855.5155	65535	64634.45
841.8899	857.5633	65535	64637.45
842.0351	859.6105	65535	64636.05
842.1802	861.6569	65535	64639.7
842.3253	863.7027	65535	64633.75
842.4704	865.7478	65535	64636
842.6156	867.7922	65535	64633.5
842.7607	869.8359	65535	64632.55
842.9058	871.8789	65535	64634
843.0509	873.9212	65535	64603.6
843.1961	875.9629	65535	64634
843.3412	878.0039	65535	64635.2
843.4863	880.0441	65535	64636.15
843.6315	882.0837	65535	64635.6
843.7766	884.1226	65535	64633.3
843.9218	886.1609	65535	64634.05
844.0669	888.1984	65535	64638.45
844.212	890.2352	65535	64634
844.3572	892.2714	65535	64632.2
844.5023	894.3069	65535	64634.15
844.6475	896.3416	65535	64633.45
844.7926	898.3757	65535	64634.35
844.9377	900.4091	65535	64635.75
845.0829	902.4418	65535	64630.75
845.228	904.4739	65535	64630.2
845.3732	906.5052	65535	64634.25
845.5183	908.5358	65535	64634.85
845.6635	910.5658	65535	64633
845.8086	912.595	65535	64636.85
845.9538	914.6236	65535	64635.45
846.0989	916.6515	65535	64634.9
846.2441	918.6786	65535	64633.6
846.3892	920.7051	65535	64632.65
846.5344	922.7309	65535	64634.05
846.6795	924.756	65535	64634.95
846.8246	926.7804	65535	64631.95
846.9698	928.8041	65535	64629
847.1149	930.8272	65535	64632.95
847.2601	932.8495	65535	64631.95
847.4052	934.8711	65535	64633.7
847.5504	936.892	65535	64630.2
847.6955	938.9123	65535	64633.3
847.8407	940.9318	65535	64631.5
847.9858	942.9506	65535	64632.7
848.131	944.9688	65535	64634.05
848.2761	946.9862	65535	64631.55
848.4213	949.003	65535	64634.05
848.5664	951.019	65535	64634.3
848.7115	953.0344	65535	64631.5
848.8567	955.0491	65535	64632.1
849.0018	957.063	65535	64633
849.147	959.0763	65535	64632.6
849.2921	961.0888	65535	64630.05
849.4373	963.1007	65535	64634.35
849.5824	965.1119	65535	64634.4
849.7275	967.1223	65535	64635.4
849.8727	969.1321	65535	64636.45
850.0178	971.1412	65535	64636.75
850.1629	973.1495	65535	64634.95
850.3081	975.1572	65535	64603.8
850.4532	977.1641	65535	64631.5
850.5983	979.1704	65535	64633
850.7435	981.1759	65535	64627.6
850.8886	983.1808	65535	64632.5
851.0337	985.1849	65535	64623.65
851.1788	987.1884	65535	64627.2
851.324	989.1911	65535	64629.75
851.4691	991.1932	65535	64633.2
851.6142	993.1945	65535	64633.65
851.7593	995.1951	65535	64633.7
851.9045	997.1951	65535	64623.9
852.0496	999.1943	65535	64633.1
852.1947	1001.1928	65535	64631.55
852.3398	1003.1906	65535	64633.35
852.4849	1005.1877	65535	64632.55
852.63	1007.1841	65535	64631.7
852.7751	1009.1798	65535	64630.45
852.9202	1011.1748	65535	64633.9
853.0653	1013.1691	65535	64633.45
853.2104	1015.1627	65535	64632.5
853.3555	1017.1556	65535	64633.1
853.5006	1019.1477	65535	64631.3
853.6457	1021.1392	65535	64635.55
853.7908	1023.1299	65535	64632.25
853.9359	1025.12	65535	64631.9
854.081	1027.1093	65535	64637.75
854.2261	1029.0979	65535	64639.1
854.3712	1031.0859	65535	64635.85
854.5163	1033.0731	65535	64632.95
854.6613	1035.0596	65535	64639.25
854.8064	1037.0454	65535	64632.6
854.9515	1039.0304	65535	64632.45
855.0965	1041.0148	65535	64631.15
855.2416	1042.9985	65535	64632.5
855.3867	1044.9814	65535	64634.5
855.5317	1046.9636	65535	64630.1
855.6768	1048.9452	65535	64634.7
855.8219	1050.926	65535	64635.8
855.9669	1052.9061	65535	64634.2
856.112	1054.8855	65535	64633.55
856.257	1056.8642	65535	64634.5
856.4021	1058.8421	65535	64628
856.5471	1060.8194	65535	64633.15
856.6921	1062.7959	65535	64632.45
856.8372	1064.7717	65535	64630.15
856.9822	1066.7469	65535	64629.05
857.1272	1068.7213	65535	64630
857.2723	1070.695	65535	64634.05
857.4173	1072.6679	65535	64634.7
857.5623	1074.6402	65535	64630.55
857.7073	1076.6117	65535	64630.1
857.8523	1078.5826	65535	64631.65
857.9973	1080.5527	65535	64630.55
858.1423	1082.5221	65535	64634.8
858.2873	1084.4908	65535	64631.3
858.4323	1086.4587	65535	64632.15
858.5773	1088.426	65535	64631.05
858.7223	1090.3925	65535	64627
858.8673	1092.3584	65535	64632.1
859.0123	1094.3235	65535	64633.45
859.1573	1096.2879	65535	64633.85
859.3022	1098.2515	65535	64631.8
859.4472	1100.2145	65535	64634.05
859.5922	1102.1767	65535	64628.9
859.7371	1104.1382	65535	64633
859.8821	1106.099	65535	64631.4
860.027	1108.0591	65535	64634.55
860.172	1110.0185	65535	64633.4
860.3169	1111.9771	65535	64633.25
860.4619	1113.9351	65535	64632.05
860.6068	1115.8923	65535	64631.4
860.7517	1117.8488	65535	64629.75
860.8967	1119.8045	65535	64633.7
861.0416	1121.7596	65535	64631.1
861.1865	1123.7139	65535	64633.2
861.3314	1125.6675	65535	64634
861.4763	1127.6204	65535	64634.45
861.6212	1129.5726	65535	64630.45
861.7661	1131.524	65535	64634.15
861.911	1133.4748	65535	64634.35
862.0559	1135.4248	65535	64633.45
862.2008	1137.3741	65535	64631.65
862.3457	1139.3226	65535	64629.85
862.4905	1141.2705	65535	64633.1
862.6354	1143.2176	65535	64628.45
862.7803	1145.164	65535	64632.85
862.9251	1147.1097	65535	64632.45
863.07	1149.0546	65535	64632.15
863.2148	1150.9989	65535	64632.9
863.3597	1152.9424	65535	64629.35
863.5045	1154.8852	65535	64633.05
863.6493	1156.8272	65535	64633.2
863.7942	1158.7686	65535	64626.7
863.939	1160.7092	65535	64633.25
864.0838	1162.6491	65535	64629.1
864.2286	1164.5883	65535	64635.15
864.3734	1166.5267	65535	64631.5
864.5182	1168.4644	65535	64632.7
864.663	1170.4014	65535	64625.9
864.8078	1172.3377	65535	64636.4
864.9526	1174.2732	65535	64635.35
865.0974	1176.2081	65535	64633.55
865.2421	1178.1421	65535	64628.65
865.3869	1180.0755	65535	64633.4
865.5317	1182.0082	65535	64633.25
865.6764	1183.9401	65535	64632.6
865.8212	1185.8713	65535	64634.6
865.9659	1187.8017	65535	64633.15
866.1106	1189.7315	65535	64637.1
866.2554	1191.6605	65535	64609.5
866.4001	1193.5888	65535	64636.1
866.5448	1195.5163	65535	64634.45
866.6895	1197.4432	65535	64632.3
866.8342	1199.3693	65535	64634.25
866.9789	1201.2947	65535	64630.4
867.1236	1203.2193	65535	64631.7
867.2683	1205.1432	65535	64630.75
867.413	1207.0664	65535	64634.95
867.5576	1208.9889	65535	64629.6
867.7023	1210.9106	65535	64633.55
867.847	1212.8316	65535	64634.05
867.9916	1214.7519	65535	64623.5
868.1363	1216.6715	65535	64632
868.2809	1218.5903	65535	64631.85
868.4255	1220.5084	65535	64633.9
868.5701	1222.4257	65535	64632.7
868.7148	1224.3424	65535	64636.25
868.8594	1226.2583	65535	64630.1
869.004	1228.1735	65535	64631.75
869.1486	1230.0879	65535	64634.35
869.2932	1232.0016	65535	64634.4
869.4377	1233.9146	65535	64633.45
869.5823	1235.8269	65535	64634.05
869.7269	1237.7384	65535	64634.6
869.8715	1239.6492	65535	64637.95
870.016	1241.5592	65535	64633.75
870.1606	1243.4686	65535	64634.9
870.3051	1245.3772	65535	64632
870.4496	1247.285	65535	64633.35
870.5941	1249.1922	65535	64635.15
870.7387	1251.0986	65535	64636.2
870.8832	1253.0042	65535	64634.75
871.0277	1254.9092	65535	64633.1
871.1722	1256.8134	65535	64633.75
871.3167	1258.7169	65535	64631.8
871.4611	1260.6196	65535	64635.4
871.6056	1262.5216	65535	64633.95
871.7501	1264.4229	65535	64636.15
871.8945	1266.3234	65535	64634.05
872.039	1268.2232	65535	64632.5
872.1834	1270.1223	65535	64630.4
872.3278	1272.0207	65535	64632.8
872.4723	1273.9183	65535	64625.55
872.6167	1275.8151	65535	64636.4
872.7611	1277.7113	65535	64634.55
872.9055	1279.6067	65535	64635.45
873.0499	1281.5014	65535	64630.4
873.1943	1283.3953	65535	64630.9
873.3386	1285.2885	65535	64633.85
873.483	1287.181	65535	64635
873.6274	1289.0727	65535	64636.65
873.7717	1290.9637	65535	64634.5
873.9161	1292.854	65535	64634.85
874.0604	1294.7435	65535	64633.15
874.2047	1296.6323	65535	64635
874.349	1298.5204	65535	64631.9
874.4933	1300.4077	65535	64632.7
874.6376	1302.2943	65535	64633.95
874.7819	1304.1802	65535	64634.5
874.9262	1306.0653	65535	64633.4
875.0705	1307.9497	65535	64634
875.2147	1309.8333	65535	64634.95
875.359	1311.7162	65535	64632.7
875.5032	1313.5984	65535	64632.25
875.6475	1315.4798	65535	64633.9
875.7917	1317.3605	65535	64614.65
875.9359	1319.2405	65535	64630.8
876.0801	1321.1197	65535	64631.75
876.2243	1322.9982	65535	64631.55
876.3685	1324.876	65535	64636.4
876.5127	1326.753	65535	64634.1
876.6569	1328.6293	65535	64632.95
876.801	1330.5048	65535	64629.9
876.9452	1332.3796	65535	64635.15
877.0893	1334.2537	65535	64607.3
877.2335	1336.127	65535	64632.6
877.3776	1337.9996	65535	64633.55
877.5217	1339.8714	65535	64635.45
877.6658	1341.7426	65535	64593.45
877.8099	1343.6129	65535	64634.05
877.954	1345.4826	65535	64636.3
878.0981	1347.3515	65535	64634.55
878.2422	1349.2196	65535	64631.4
878.3862	1351.087	65535	64633.1
878.5303	1352.9537	65535	64634.45
878.6743	1354.8197	65535	64634.6
878.8184	1356.6849	65535	64634.2
878.9624	1358.5493	65535	64635.7
879.1064	1360.4131	65535	64634.9
879.2504	1362.276	65535	64637.2
879.3944	1364.1383	65535	64634.35
879.5384	1365.9998	65535	64628
879.6823	1367.8606	65535	64631.65
879.8263	1369.7206	65535	64633.25
879.9702	1371.5799	65535	64632.5
880.1142	1373.4384	65535	64634.05
880.2581	1375.2962	65535	64630.9
880.402	1377.1533	65535	64634.3
880.5459	1379.0096	65535	64635.6
880.6898	1380.8652	65535	64635.2
880.8337	1382.7201	65535	64634.4
880.9776	1384.5742	65535	64634.55
881.1215	1386.4275	65535	64631.45
881.2653	1388.2802	65535	64635.4
881.4092	1390.132	65535	64636.4
881.553	1391.9832	65535	64632.3
881.6968	1393.8336	65535	64634.3
881.8406	1395.6832	65535	64634.1
881.9844	1397.5322	65535	64633.4
882.1282	1399.3803	65535	64632.1
882.272	1401.2278	65535	64635.35
882.4158	1403.0745	65535	64635.6
882.5595	1404.9204	65535	64634.95
882.7033	1406.7656	65535	64634.35
882.847	1408.6101	65535	64631.4
882.9908	1410.4538	65535	64635.4
883.1345	1412.2968	65535	64635.75
883.2782	1414.139	65535	64634.85
883.4219	1415.9805	65535	64636.7
883.5656	1417.8213	65535	64626.85
883.7092	1419.6613	65535	64634.65
883.8529	1421.5006	65535	64632.35
883.9965	1423.3391	65535	64634.35
884.1402	1425.1769	65535	64634.2
884.2838	1427.0139	65535	64636.5
884.4274	1428.8502	65535	64632.55
884.571	1430.6858	65535	64635.5
884.7146	1432.5206	65535	64635.2
884.8582	1434.3547	65535	64631.65
885.0018	1436.188	65535	64634.55
885.1453	1438.0206	65535	64634.65
885.2889	1439.8524	65535	64634
885.4324	1441.6835	65535	64635.35
885.5759	1443.5139	65535	64632
885.7194	1445.3435	65535	64635.45
885.8629	1447.1724	65535	64635.9
886.0064	1449.0005	65535	64638.45
886.1499	1450.8279	65535	64630.95
886.2933	1452.6545	65535	64634.95
886.4368	1454.4804	65535	64636.9
886.5802	1456.3056	65535	64628.55
886.7237	1458.13	65535	64635.85
886.8671	1459.9536	65535	64635.5
887.0105	1461.7766	65535	64635.3
887.1539	1463.5987	65535	64635.95
887.2972	1465.4202	65535	64635.5
887.4406	1467.2409	65535	64634.1
887.584	1469.0608	65535	64633.8
887.7273	1470.88	65535	64635.5
887.8706	1472.6984	65535	64636.7
888.0139	1474.5161	65535	64631.7
888.1572	1476.3331	65535	64634.55
888.3005	1478.1493	65535	64635.5
888.4438	1479.9648	65535	64638.15
888.5871	1481.7795	65535	64634.35
888.7303	1483.5935	65535	64637.1
888.8736	1485.4067	65535	64636.75
889.0168	1487.2192	65535	64635.55
889.16	1489.031	65535	64632.95
889.3032	1490.842	65535	64633.9
889.4464	1492.6522	65535	64636.05
889.5896	1494.4618	65535	64634.7
889.7327	1496.2705	65535	64634.75
889.8759	1498.0785	65535	64634.05
890.019	1499.8858	65535	64633.45
890.1622	1501.6924	65535	64636.85
890.3053	1503.4981	65535	64636.15
890.4484	1505.3032	65535	64635.55
890.5914	1507.1075	65535	64635.6
890.7345	1508.911	65535	64633
890.8776	1510.7138	65535	64633.95
891.0206	1512.5159	65535	64636.1
891.1637	1514.3172	65535	64637.15
891.3067	1516.1178	65535	64636.55
891.4497	1517.9176	65535	64632.75
891.5927	1519.7166	65535	64638.75
891.7357	1521.515	65535	64630.55
891.8786	1523.3126	65535	64635.1
892.0216	1525.1094	65535	64635.25
892.1645	1526.9055	65535	64636.65
892.3074	1528.7008	65535	64639.55
892.4503	1530.4954	65535	64635.75
892.5932	1532.2893	65535	64638.85
892.7361	1534.0824	65535	64632.9
892.879	1535.8747	65535	64635.55
893.0218	1537.6663	65535	64637.5
893.1647	1539.4572	65535	64635.45
893.3075	1541.2473	65535	64636
893.4503	1543.0367	65535	64638.7
893.5931	1544.8253	65535	64631.65
893.7359	1546.6132	65535	64634.7
893.8787	1548.4003	65535	64628.95
894.0214	1550.1867	65535	64629.55
894.1642	1551.9723	65535	64633.9
894.3069	1553.7572	65535	64635.8
894.4496	1555.5414	65535	64637.3
894.5923	1557.3247	65535	64638.5
894.735	1559.1074	65535	64637.95
894.8777	1560.8893	65535	64639.7
895.0204	1562.6705	65535	64638.15
895.163	1564.4509	65535	64636.85
895.3056	1566.2305	65535	64639.75
895.4482	1568.0094	65535	64638.75
895.5908	1569.7876	65535	64639.3
895.7334	1571.565	65535	64636.65
895.876	1573.3417	65535	64641.45
896.0186	1575.1176	65535	64639.5
896.1611	1576.8928	65535	64638.8
896.3036	1578.6672	65535	64641.8
896.4461	1580.4409	65535	64644.6
896.5886	1582.2138	65535	64639.35
896.7311	1583.986	65535	64639.85
896.8736	1585.7575	65535	64640.4
897.0161	1587.5282	65535	64640.6
897.1585	1589.2981	65535	64640.4
897.3009	1591.0673	65535	64639.4
897.4433	1592.8358	65535	64641.65
897.5857	1594.6035	65535	64638.6
897.7281	1596.3704	65535	64637.25
897.8705	1598.1366	65535	64640.9
898.0128	1599.9021	65535	64639.75
898.1551	1601.6668	65535	64638.7
898.2975	1603.4308	65535	64637.65
898.4398	1605.194	65535	64635.05
898.5821	1606.9564	65535	64640.85
898.7243	1608.7182	65535	64637.3
898.8666	1610.4791	65535	64640.9
899.0088	1612.2394	65535	64641.7
899.1511	1613.9988	65535	64641.95
899.2933	1615.7576	65535	64642.1
899.4355	1617.5156	65535	64633.65
899.5776	1619.2728	65535	64641.3
899.7198	1621.0293	65535	64640
899.862	1622.785	65535	64636.2
900.0041	1624.54	65535	64638.2
900.1462	1626.2942	65535	64638.5
900.2883	1628.0477	65535	64638.35
900.4304	1629.8005	65535	64638.8
900.5725	1631.5525	65535	64641.8
900.7145	1633.3037	65535	64642.45
900.8566	1635.0542	65535	64641.85
900.9986	1636.804	65535	64640.3
901.1406	1638.553	65535	64550.8
901.2826	1640.3013	65535	64638.95
901.4245	1642.0488	65535	64640.55
901.5665	1643.7955	65535	64639.95
901.7085	1645.5416	65535	64643.6
901.8504	1647.2868	65535	64643
901.9923	1649.0313	65535	64641.65
902.1342	1650.7751	65535	64638.1
902.2761	1652.5181	65535	64640.55
902.4179	1654.2604	65535	64641.75
902.5598	1656.0019	65535	64640.95
902.7016	1657.7427	65535	64641.9
902.8434	1659.4828	65535	64641.35
902.9852	1661.222	65535	64639.9
903.127	1662.9606	65535	64642.75
903.2687	1664.6984	65535	64642.3
903.4105	1666.4354	65535	64641.45
903.5522	1668.1717	65535	64641.7
903.6939	1669.9072	65519.9	64626.35
903.8356	1671.642	65524.6	64626.85
903.9773	1673.3761	65521.3	64629.35
904.119	1675.1094	65518.8	64625.25
904.2606	1676.8419	65465.4	64573.65
904.4022	1678.5737	65497.7	64604.25
904.5439	1680.3048	65465.5	64572.5
904.6855	1682.0351	65450.45	64559.05
904.827	1683.7646	65429.65	64532.75
904.9686	1685.4934	65454.35	64562.95
905.1101	1687.2215	65360.15	64467.9
905.2517	1688.9488	65436.15	64542.1
905.3932	1690.6754	65285.05	64393.1
905.5347	1692.4012	65369.25	64475.15
905.6761	1694.1263	65390.55	64497.3
905.8176	1695.8506	65320.5	64426.9
905.9591	1697.5742	65336.95	64444.95
906.1005	1699.297	65317.8	64427.6
906.2419	1701.0191	65335.95	64442.2
906.3833	1702.7404	65210.55	64319.9
906.5246	1704.461	65147.2	64251.9
906.666	1706.1808	65275.25	64381.6
906.8073	1707.8999	65202.2	64309.25
906.9487	1709.6182	65184.65	64291.45
907.09	1711.3358	65153.25	64262.15
907.2313	1713.0527	65136.35	64245.35
907.3725	1714.7688	65158.2	64260.95
907.5138	1716.4841	64926.55	64033.1
907.655	1718.1987	65017.4	64118.7
907.7962	1719.9126	64962.55	64071.25
907.9374	1721.6257	65028.25	64135.8
908.0786	1723.338	65032.65	64139.95
908.2198	1725.0496	64694.95	63804.35
908.3609	1726.7605	64755.5	63863.25
908.502	1728.4706	64658.65	63766.1
908.6431	1730.18	64828.35	63932.8
908.7842	1731.8886	64628.75	63736.7
908.9253	1733.5964	64528.4	63633.3
909.0664	1735.3036	64727.9	63834.25
909.2074	1737.0099	64595.55	63703.7
909.3484	1738.7156	64431.25	63540.75
909.4894	1740.4204	64377.35	63483.9
909.6304	1742.1246	64472.9	63582.4
909.7714	1743.8279	64520.1	63628.85
909.9123	1745.5306	64456.95	63566.35
910.0532	1747.2325	63871.55	62980.5
910.1941	1748.9336	63906.15	63016.2
910.335	1750.634	64093.8	63199.15
910.4759	1752.3336	64257.7	63364.2
910.6168	1754.0325	63843.5	62952.25
910.7576	1755.7307	64248.85	63357.95
910.8984	1757.4281	63705.3	62812.35
911.0392	1759.1247	64099.3	63199.95
911.18	1760.8206	63480.95	62583.55
911.3208	1762.5158	63572.3	62676.35
911.4615	1764.2102	63724	62834.3
911.6022	1765.9039	63631.25	62741.25
911.7429	1767.5968	63486.4	62597.05
911.8836	1769.289	63401.25	62510.15
912.0243	1770.9804	63544.7	62651.75
912.1649	1772.6711	63415.4	62522.4
912.3056	1774.361	63280.7	62387.6
912.4462	1776.0502	63273.65	62382.7
912.5868	1777.7386	62770.2	61876.3
912.7274	1779.4263	63068.45	62176.85
912.8679	1781.1132	63056.05	62162.75
913.0084	1782.7994	62952.1	62060.2
913.149	1784.4849	62941.35	62051.6
913.2895	1786.1696	62278.1	61381.3
913.4299	1787.8535	62706.6	61816.65
913.5704	1789.5367	62767.6	61878
913.7108	1791.2192	62337.25	61445.5
913.8513	1792.9009	62097.85	61177
913.9917	1794.5818	62443.85	61549.9
914.132	1796.2621	62060	61170.7
914.2724	1797.9415	62117.1	61226.25
914.4128	1799.6202	62067.1	61176.75
914.5531	1801.2982	62073.2	61183.25
914.6934	1802.9755	61708.25	60817.5
914.8337	1804.6519	61557	60664.75
914.9739	1806.3277	62141.7	61250.85
915.1142	1808.0027	61190.85	60300.95
915.2544	1809.6769	61530.2	60639.5
915.3946	1811.3504	61664.75	60772.25
915.5348	1813.0231	60912.5	60022.15
915.675	1814.6951	61369.2	60478.6
915.8151	1816.3664	61070.95	60176.95
915.9553	1818.0369	61091.35	60198
916.0954	1819.7067	60871	59981.3
916.2355	1821.3757	61290.9	60399.05
916.3755	1823.044	60713.8	59823.25
916.5156	1824.7115	60405.05	59514.75
916.6556	1826.3783	60572.8	59683.3
916.7956	1828.0443	60592.35	59703.2
916.9356	1829.7096	60342.4	59448.25
917.0756	1831.3741	59802.6	58909
917.2155	1833.0379	60154.65	59261.6
917.3555	1834.701	60133.25	59241.95
917.4954	1836.3633	59686.85	58794.15
917.6353	1838.0248	59946.65	59053.9
917.7751	1839.6856	59817.6	58927.55
917.915	1841.3457	59360.15	58471.15
918.0548	1843.005	59912.2	59021.8
918.1946	1844.6636	59544.6	58653.55
918.3344	1846.3214	58796.9	57904.15
918.4742	1847.9785	58977.25	58087.35
918.6139	1849.6349	58906.3	58013.7
918.7537	1851.2904	59469.75	58568.7
918.8934	1852.9453	58582.05	57690.3
919.0331	1854.5994	58964.4	58071.6
919.1727	1856.2528	58905.85	58010.7
919.3124	1857.9054	58309.7	57420.15
919.452	1859.5572	58104.35	57215.05
919.5916	1861.2083	58392	57500.95
919.7312	1862.8587	58898.15	58007.75
919.8708	1864.5084	57450	56556.85
920.0103	1866.1572	58137.9	57245.35
920.1498	1867.8054	57365.8	56474.5
920.2893	1869.4528	57754.65	56864.2
920.4288	1871.0994	57269.75	56377.8
920.5683	1872.7453	57125.9	56233.15
920.7077	1874.3905	57401.05	56503.3
920.8471	1876.0349	56880.15	55987.95
920.9865	1877.6786	57259.2	56365.8
921.1259	1879.3215	56674.7	55785.75
921.2653	1880.9637	57227.85	56335.6
921.4046	1882.6051	56615.7	55726.1
921.5439	1884.2458	56367.25	55475.65
921.6832	1885.8858	55998.4	55110.1
921.8225	1887.525	56368.7	55477
921.9617	1889.1634	56129.05	55240
922.101	1890.8011	55862.5	54972.25
922.2402	1892.4381	55220.4	54329.95
922.3794	1894.0743	55941.2	55051.15
922.5185	1895.7098	55507.25	54616.15
922.6577	1897.3446	55107.25	54214.65
922.7968	1898.9786	55264.9	54369.3
922.9359	1900.6118	54933.55	54043.35
923.075	1902.2443	54541.65	53648.4
923.214	1903.8761	54916.2	54024.35
923.3531	1905.5071	54498.2	53606.55
923.4921	1907.1374	53721.15	52829
923.6311	1908.7669	54029.15	53138
923.77	1910.3957	54362.05	53472.15
923.909	1912.0237	53663.45	52773.6
924.0479	1913.651	53427.3	52536.5
924.1868	1915.2776	53201.65	52312.35
924.3257	1916.9034	53256.25	52366.5
924.4646	1918.5285	52946.6	52058.4
924.6034	1920.1528	52956.65	52066.75
924.7422	1921.7764	52720.75	51830.15
924.881	1923.3992	52609.75	51719.55
925.0198	1925.0213	52273.85	51383.2
925.1586	1926.6427	51813.1	50925.85
925.2973	1928.2633	52020.7	51048.65
925.436	1929.8832	51801.6	50909.6
925.5747	1931.5023	51605.05	50715
925.7134	1933.1207	51192.45	50301.9
925.852	1934.7383	51383.45	50493.45
925.9906	1936.3552	51066.45	50176.45
926.1292	1937.9714	51013.25	50123.95
926.2678	1939.5868	50866.3	49972.6
926.4064	1941.2015	50465.85	49573.95
926.5449	1942.8154	50166.05	49275.6
926.6834	1944.4286	50133.9	49243.45
926.8219	1946.041	50062.7	49153.6
926.9604	1947.6528	49787.5	48891.55
927.0988	1949.2637	49625.8	48735.45
927.2372	1950.8739	49372.15	48480.6
927.3756	1952.4834	49417.9	48527.85
927.514	1954.0921	49250.55	48360.7
927.6523	1955.7001	48943.7	48050.35
927.7907	1957.3074	48991.9	48102.4
927.929	1958.9139	48585.9	47695.3
928.0673	1960.5197	48632.5	47741.85
928.2055	1962.1247	48382.6	47492.8
928.3438	1963.729	48098.95	47210.1
928.482	1965.3325	47902.9	46990.55
928.6202	1966.9353	47908.7	47019.5
928.7584	1968.5374	47584.55	46693.65
928.8965	1970.1387	47440.15	46550.8
929.0346	1971.7393	47383.5	46494.1
929.1727	1973.3392	47180.2	46289.3
929.3108	1974.9383	46907.45	46018.4
929.4489	1976.5366	46754.4	45865.15
929.5869	1978.1342	46686.15	45798.85
929.7249	1979.7311	46534.1	45642.65
929.8629	1981.3273	46478.3	45590.2
930.0009	1982.9227	46277.15	45387.65
930.1388	1984.5173	46155.9	45266.35
930.2767	1986.1112	45906	45016.7
930.4146	1987.7044	45943.55	45054.85
930.5525	1989.2968	45596.4	44706.45
930.6904	1990.8885	45567.05	44673.95
930.8282	1992.4795	45423.75	44532.3
930.966	1994.0697	45240	44350.9
931.1038	1995.6592	45120.85	44231.95
931.2415	1997.2479	44970.9	44082.45
931.3793	1998.8359	44861.55	43973.35
931.517	2000.4232	44592.7	43704.5
931.6547	2002.0097	44523.9	43636.8
931.7923	2003.5955	44339.7	43449.5
931.93	2005.1805	44260.45	43369.7
932.0676	2006.7648	44173.9	43284.2
932.2052	2008.3484	43947.2	43056.15
932.3427	2009.9312	44020.2	43131.45
932.4803	2011.5133	43778.1	42890.15
932.6178	2013.0946	43675.4	42786.25
932.7553	2014.6752	43557.65	42669.65
932.8928	2016.2551	43455.55	42567
933.0302	2017.8342	43278.45	42389.45
933.1676	2019.4126	43062.9	42175.45
933.305	2020.9902	42890.05	42002.4
933.4424	2022.5672	42793.1	41901.9
933.5798	2024.1433	42705.2	41810.45
933.7171	2025.7188	42570.45	41682.6
933.8544	2027.2935	42421.85	41533.65
933.9917	2028.8674	42319.05	41433.3
934.129	2030.4406	42235.85	41348.4
934.2662	2032.0131	42016.5	41131.2
934.4034	2033.5849	41830.15	40935.9
934.5406	2035.1559	41744.35	40855.45
934.6778	2036.7261	41743.15	40855.3
934.8149	2038.2957	41606.95	40719.7
934.952	2039.8645	41476.45	40587.65
935.0891	2041.4325	41488.15	40596.8
935.2262	2042.9998	41258.85	40372.2
935.3632	2044.5664	41145.9	40255.75
935.5002	2046.1323	41015.65	40128.85
935.6372	2047.6974	40890.2	40001.65
935.7742	2049.2617	40836.5	39947.5
935.9111	2050.8254	40825.35	39931.2
936.048	2052.3883	40634.7	39743.9
936.1849	2053.9504	40492.4	39602.25
936.3218	2055.5118	40377.4	39488.25
936.4586	2057.0725	40171.25	39278.4
936.5955	2058.6325	40098.85	39210.35
936.7323	2060.1917	39919.65	39032.25
936.869	2061.7502	39862.05	38971.25
937.0058	2063.3079	39693.2	38807.05
937.1425	2064.8649	39564.75	38674.45
937.2792	2066.4212	39490.85	38602.15
937.4159	2067.9767	39394.4	38506.4
937.5525	2069.5315	39186.9	38299.35
937.6891	2071.0856	39022.3	38134.55
937.8257	2072.6389	38875.2	37986.45
937.9623	2074.1915	38716.5	37828.4
938.0989	2075.7433	38507	37617.35
938.2354	2077.2945	38449.85	37563.15
938.3719	2078.8448	38312.7	37425.05
938.5084	2080.3945	38158.45	37271.25
938.6448	2081.9434	38165.8	37277.3
938.7812	2083.4916	38054.7	37165.75
938.9176	2085.039	37899.2	37009.45
939.054	2086.5857	37778.2	36888.45
939.1903	2088.1317	37775.4	36886.8
939.3267	2089.677	37609.95	36722
939.463	2091.2215	37485.05	36597.1
939.5992	2092.7652	37366.05	36476
939.7355	2094.3083	37271.2	36380.95
939.8717	2095.8506	37220.15	36331.45
940.0079	2097.3921	37185.75	36299.2
940.1441	2098.933	37004.2	36114.8
940.2802	2100.4731	36951.1	36062.4
940.4163	2102.0124	36879.45	35982.65
940.5524	2103.5511	36797.9	35908.95
940.6885	2105.089	36696.2	35807
940.8245	2106.6261	36629.1	35739.3
940.9606	2108.1626	36504.95	35614.5
941.0965	2109.6983	36424.5	35507.45
941.2325	2111.2332	36298.85	35409.3
941.3684	2112.7675	36188.45	35297.15
941.5044	2114.301	36083	35193.4
941.6403	2115.8337	36033.4	35144.25
941.7761	2117.3657	35887.7	34998.25
941.912	2118.897	35840.2	34949.35
942.0478	2120.4276	35722.2	34826.1
942.1835	2121.9575	35570.95	34681.6
942.3193	2123.4866	35562.75	34659.35
942.455	2125.0149	35421.45	34529.95
942.5907	2126.5426	35213.4	34325.9
942.7264	2128.0695	35138.6	34246
942.8621	2129.5956	35074.65	34187.3
942.9977	2131.1211	35022.6	34130.75
943.1333	2132.6458	34904.55	34017.55
943.2689	2134.1698	34828.45	33938.6
943.4044	2135.693	34692.2	33798.3
943.54	2137.2155	34628.3	33734.95
943.6755	2138.7373	34587.1	33699.3
943.8109	2140.2584	34475.5	33585.8
943.9464	2141.7787	34311.6	33419.1
944.0818	2143.2983	34108.15	33220.25
944.2172	2144.8171	33923.75	33036.65
944.3526	2146.3353	33868.15	32976.9
944.4879	2147.8527	33745.8	32858
944.6232	2149.3693	33740.85	32851.9
944.7585	2150.8853	33558.35	32670.1
944.8938	2152.4005	33434.7	32545.6
945.029	2153.9149	33398.1	32510.6
945.1642	2155.4287	33217.5	32328.15
945.2994	2156.9417	33214.8	32323.65
945.4346	2158.454	33149.4	32257
945.5697	2159.9655	33027.7	32138.25
945.7048	2161.4764	32958.3	32070.65
945.8399	2162.9865	32865	31977.25
945.9749	2164.4958	32839.3	31949.6
946.1099	2166.0045	32626.05	31732.75
946.2449	2167.5124	32571.55	31684.2
946.3799	2169.0195	32473.6	31586.25
946.5148	2170.526	32466	31576.55
946.6498	2172.0317	32335.25	31447.8
946.7846	2173.5367	32167.75	31276.3
946.9195	2175.0409	32145.85	31257.15
947.0543	2176.5445	32109	31221.15
947.1891	2178.0473	31952.85	31064.35
947.3239	2179.5494	31787.6	30895.9
947.4587	2181.0507	31677.75	30789
947.5934	2182.5513	31589.1	30700.55
947.7281	2184.0512	31530.85	30642.9
947.8628	2185.5504	31436.85	30548.8
947.9974	2187.0488	31233	30345.3
948.132	2188.5465	31137.15	30249.4
948.2666	2190.0435	31062.8	30173.6
948.4012	2191.5397	30937.4	30047
948.5357	2193.0353	30835.25	29946.8
948.6702	2194.5301	30734.9	29842.55
948.8047	2196.0241	30593.45	29705.8
948.9392	2197.5175	30516.55	29626.85
949.0736	2199.0101	30424.45	29529.9
949.208	2200.502	30241.75	29355.25
949.3424	2201.9931	30142.15	29255
949.4767	2203.4835	29982.1	29092.4
949.611	2204.9733	29969.75	29075.9
949.7453	2206.4622	29865.45	28976.25
949.8796	2207.9505	29744.8	28853.4
950.0138	2209.438	29622.95	28736.85
950.148	2210.9248	29534.4	28644.6
950.2822	2212.4109	29456	28568.65
950.4164	2213.8962	29296.35	28404.4
950.5505	2215.3809	29236.25	28348.3
950.6846	2216.8648	29169.2	28281.6
950.8186	2218.3479	29068	28177.05
950.9527	2219.8304	28990.25	28098.95
951.0867	2221.3121	28886.05	27993.5
951.2207	2222.7931	28755.6	27867
951.3546	2224.2733	28647.35	27758.5
951.4886	2225.7529	28555.6	27668.05
951.6225	2227.2317	28444.7	27554.1
951.7563	2228.7098	28438.7	27549.7
951.8902	2230.1872	28342.1	27455.5
952.024	2231.6638	28239.55	27351.95
952.1578	2233.1397	28131.55	27236.75
952.2916	2234.6149	28063.3	27175.5
952.4253	2236.0894	27922.2	27034.45
952.559	2237.5632	27867.25	26975.7
952.6927	2239.0362	27759.05	26870.9
952.8263	2240.5085	27633.2	26743.85
952.9599	2241.9801	27542.9	26654.05
953.0935	2243.4509	27478.35	26589.7
953.2271	2244.921	27294.35	26406.15
953.3606	2246.3904	27259.65	26367.6
953.4941	2247.8591	27166.4	26277.1
953.6276	2249.3271	27106.95	26218.9
953.7611	2250.7943	26992.65	26102.5
953.8945	2252.2608	26889.85	26001.45
954.0279	2253.7266	26785.95	25897.55
954.1612	2255.1917	26731.85	25843.7
954.2946	2256.656	26651.8	25762.45
954.4279	2258.1197	26550.2	25661.85
954.5612	2259.5826	26485.85	25596.05
954.6944	2261.0447	26430.3	25539.85
954.8276	2262.5062	26316.25	25424.8
954.9608	2263.9669	26282.65	25391
955.094	2265.4269	26200.55	25311.55
955.2271	2266.8862	26105.6	25216.05
955.3602	2268.3448	26066.85	25178.75
955.4933	2269.8026	26035.65	25145.95
955.6264	2271.2598	25885.25	24994.7
955.7594	2272.7162	25837.95	24951.15
955.8924	2274.1719	25750.85	24862.1
956.0253	2275.6268	25664	24774.65
956.1583	2277.0811	25650.2	24761.85
956.2912	2278.5346	25569.4	24681.3
956.4241	2279.9874	25493.6	24604.65
956.5569	2281.4395	25454.45	24566.3
956.6897	2282.8908	25340.75	24446.15
956.8225	2284.3414	25251.55	24358.55
956.9553	2285.7914	25149.1	24260.15
957.088	2287.2406	25095.55	24205.5
957.2207	2288.689	25087.75	24199.05
957.3534	2290.1368	24956.9	24066.5
957.486	2291.5838	24855.8	23965.8
957.6186	2293.0302	24765.6	23874.7
957.7512	2294.4758	24609.35	23718.9
957.8838	2295.9206	24542.75	23653
958.0163	2297.3648	24476.65	23588.7
958.1488	2298.8082	24461.7	23571.55
958.2813	2300.251	24391.95	23502.15
958.4137	2301.693	24323.75	23434.15
958.5461	2303.1343	24284.45	23393.4
958.6785	2304.5748	24182.05	23293.05
958.8108	2306.0147	24040.5	23152.05
958.9432	2307.4538	24021.95	23130.8
959.0754	2308.8922	23919.9	23034.3
959.2077	2310.3299	23866.15	22976.25
959.3399	2311.7669	23782.45	22894.65
959.4721	2313.2031	23716.95	22827.55
959.6043	2314.6387	23606.35	22716.65
959.7365	2316.0735	23528.5	22641.1
959.8686	2317.5076	23509	22618.35
960.0006	2318.941	23449.15	22560.4
960.1327	2320.3737	23359.2	22470
960.2647	2321.8056	23261.6	22370.95
960.3967	2323.2369	23170.2	22279.3
960.5287	2324.6674	23136.6	22243.9
960.6606	2326.0972	23006.35	22114.5
960.7925	2327.5263	22951	22064.35
960.9244	2328.9547	22835.8	21946.3
961.0562	2330.3823	22755.15	21867.1
961.1881	2331.8092	22769.3	21878.55
961.3198	2333.2355	22651.25	21759.8
961.4516	2334.661	22605.5	21715.35
961.5833	2336.0858	22565.5	21674.85
961.715	2337.5098	22500.6	21610.35
961.8467	2338.9332	22434.5	21544.45
961.9783	2340.3558	22344.35	21449.3
962.1099	2341.7778	22308.65	21418.75
962.2415	2343.199	22229.7	21340
962.373	2344.6195	22157.95	21269.85
962.5045	2346.0393	22099.05	21210.15
962.636	2347.4583	22048.25	21157.65
962.7675	2348.8767	21947.1	21055.2
962.8989	2350.2943	21906.95	21016.55
963.0303	2351.7113	21860.95	20971.25
963.1617	2353.1275	21768.5	20877.65
963.293	2354.543	21724.15	20828.45
963.4243	2355.9578	21648.8	20760.1
963.5556	2357.3718	21523.9	20636.35
963.6868	2358.7852	21410.2	20518.7
963.818	2360.1978	21346.05	20458
963.9492	2361.6098	21304.95	20417.85
964.0803	2363.021	21217.35	20324.3
964.2114	2364.4315	21163.65	20274.35
964.3425	2365.8413	21096.95	20207.25
964.4736	2367.2504	21019.15	20132.6
964.6046	2368.6587	20928.05	20040.55
964.7356	2370.0664	20793	19905.4
964.8666	2371.4733	20745.15	19856.95
964.9975	2372.8795	20705.65	19818.8
965.1284	2374.285	20615.1	19726.75
965.2593	2375.6899	20472.6	19584.5
965.3901	2377.0939	20428.9	19539.6
965.5209	2378.4973	20346.65	19457.85
965.6517	2379.9	20307.1	19418.2
965.7825	2381.3019	20230.15	19341.95
965.9132	2382.7032	20169.6	19282.25
966.0439	2384.1037	20142.2	19257.6
966.1745	2385.5035	20064.2	19177.6
966.3051	2386.9027	19981.95	19094.25
966.4357	2388.3011	19917.35	19026.45
966.5663	2389.6987	19862.55	18972.3
966.6968	2391.0957	19775.3	18888.45
966.8273	2392.492	19683.85	18795.05
966.9578	2393.8876	19603.85	18714.75
967.0882	2395.2824	19556.35	18667.6
967.2186	2396.6765	19441.3	18554.9
967.349	2398.07	19339.05	18451.8
967.4793	2399.4627	19316.9	18428.45
967.6097	2400.8547	19263.85	18374.65
967.7399	2402.246	19194.45	18299.2
967.8702	2403.6366	19033.25	18142.45
968.0004	2405.0265	18982.4	18095
968.1306	2406.4156	18918.5	18025.15
968.2607	2407.8041	18840.75	17948.05
968.3909	2409.1918	18787.4	17898.75
968.521	2410.5789	18707.95	17817.15
968.651	2411.9652	18628.35	17739.05
968.781	2413.3508	18544	17655.95
968.911	2414.7358	18482.75	17592.75
969.041	2416.12	18431.25	17544
969.1709	2417.5035	18375	17487.05
969.3008	2418.8863	18309.55	17420.8
969.4307	2420.2684	18237.05	17348.25
969.5606	2421.6497	18144.85	17255.5
969.6904	2423.0304	18048.35	17160.75
969.8201	2424.4104	18010.6	17120.9
969.9499	2425.7896	17972	17080.3
970.0796	2427.1682	17911.25	17024
970.2093	2428.546	17843.5	16954.15
970.3389	2429.9232	17808.75	16919.8
970.4685	2431.2996	17754.25	16865.7
970.5981	2432.6753	17728.25	16841.75
970.7277	2434.0503	17670.55	16782.3
970.8572	2435.4246	17572	16684.7
970.9867	2436.7982	17516.9	16626
971.1161	2438.1711	17470.5	16582.55
971.2456	2439.5433	17420.75	16529.95
971.375	2440.9148	17336.3	16442.8
971.5043	2442.2856	17255	16366.35
971.6336	2443.6557	17198.45	16310.4
971.7629	2445.025	17127.45	16240.75
971.8922	2446.3937	17096.3	16207.1
972.0214	2447.7617	17032.25	16142.5
972.1506	2449.1289	17022.15	16132.45
972.2798	2450.4955	16978.65	16089.3
972.4089	2451.8613	16925.1	16036.95
972.538	2453.2265	16843	15956
972.6671	2454.5909	16788.7	15899.5
972.7961	2455.9546	16755.05	15866.2
972.9251	2457.3177	16672	15785.35
973.0541	2458.68	16638.5	15750.6
973.1831	2460.0416	16610.35	15721.95
973.312	2461.4025	16595.85	15707.7
973.4408	2462.7627	16505.65	15606.1
973.5697	2464.1222	16485.7	15598.15
973.6985	2465.4811	16397.5	15507.05
973.8273	2466.8392	16332.75	15444.8
973.956	2468.1966	16306.7	15415.35
974.0847	2469.5533	16309	15419.55
974.2134	2470.9093	16236.15	15346.9
974.3421	2472.2645	16170.75	15278.85
974.4707	2473.6191	16122.35	15234.15
974.5993	2474.973	16059	15171.95
974.7278	2476.3262	15978.1	15088.3
974.8563	2477.6787	15891.2	15003.05
974.9848	2479.0305	15855.4	14966
975.1132	2480.3816	15783.8	14891.4
975.2417	2481.7319	15740.3	14851.65
975.37	2483.0816	15659.05	14767.8
975.4984	2484.4306	15606.2	14719
975.6267	2485.7789	15554.5	14669.4
975.755	2487.1264	15482.3	14592.9
975.8833	2488.4733	15433.5	14546.2
976.0115	2489.8195	15382.95	14490.2
976.1397	2491.165	15332.6	14440.5
976.2678	2492.5097	15285.25	14394.75
976.3959	2493.8538	15206.95	14319.25
976.524	2495.1972	15129.3	14242.85
976.6521	2496.5398	15063.65	14173.2
976.7801	2497.8818	15044	14153.85
976.9081	2499.2231	14972.05	14084.45
977.036	2500.5637	14906.7	14017.7
977.164	2501.9035	14864.4	13975.4
977.2918	2503.2427	14831.35	13939.95
977.4197	2504.5812	14776.95	13887.65
977.5475	2505.919	14724.6	13835.35
977.6753	2507.256	14727.8	13839.8
977.8031	2508.5924	14655.95	13766.05
977.9308	2509.9281	14606	13711.2
978.0585	2511.2631	14547.15	13657.45
978.1861	2512.5974	14504.95	13618.3
978.3137	2513.9309	14432.1	13543.45
978.4413	2515.2638	14383	13466.55
978.5689	2516.596	14372	13483.65
978.6964	2517.9275	14276.65	13388.95
978.8239	2519.2583	14223.05	13334.5
978.9513	2520.5884	14171.45	13281.45
979.0788	2521.9178	14115.05	13227.3
979.2062	2523.2465	14055.5	13167.4
979.3335	2524.5745	13970.75	13086.05
979.4608	2525.9018	13956.6	13068.8
979.5881	2527.2284	13942.05	13055.2
979.7154	2528.5543	13915.25	13027.8
979.8426	2529.8796	13873.85	12987
979.9698	2531.2041	13814.8	12926.55
980.0969	2532.5279	13785.35	12897.6
980.224	2533.851	13732.7	12845.15
980.3511	2535.1735	13708.45	12820.4
980.4781	2536.4952	13666.85	12776.85
980.6052	2537.8163	13645.2	12756.4
980.7321	2539.1366	13559.35	12673.2
980.8591	2540.4562	13543.4	12655.75
980.986	2541.7752	13526	12638.05
981.1129	2543.0935	13493.8	12607.1
981.2397	2544.411	13446.05	12556.6
981.3665	2545.7279	13455	12567.1
981.4933	2547.0441	13386.9	12497.75
981.62	2548.3596	13392.5	12500
981.7467	2549.6744	13324.95	12435.95
981.8734	2550.9885	13289.05	12390.9
982.0001	2552.3019	13216.9	12329.3
982.1267	2553.6146	13209.7	12321.1
982.2532	2554.9266	13190.8	12302.35
982.3798	2556.2379	13131.55	12242.35
982.5063	2557.5485	13094.55	12207.25
982.6327	2558.8585	13066.6	12171.55
982.7592	2560.1677	13016.05	12124.4
982.8856	2561.4762	12977.6	12089
983.0119	2562.7841	12987.5	12096.75
983.1383	2564.0913	12967.05	12079.05
983.2646	2565.3977	12913.85	12025.95
983.3908	2566.7035	12874.7	11983.9
983.517	2568.0086	12854.75	11964.8
983.6432	2569.313	12850.9	11962.85
983.7694	2570.6167	12813	11921.05
983.8955	2571.9197	12747.55	11861.95
984.0216	2573.222	12747.2	11854.45
984.1476	2574.5236	12706.4	11817.4
984.2737	2575.8246	12661.3	11769.3
984.3996	2577.1248	12648.2	11756.45
984.5256	2578.4244	12609.2	11719.65
984.6515	2579.7232	12609.55	11723.75
984.7774	2581.0214	12565.45	11653.4
984.9032	2582.3189	12509.9	11621.35
985.029	2583.6157	12518.2	11626.05
985.1548	2584.9118	12477.1	11588.05
985.2806	2586.2072	12427.2	11540.8
985.4063	2587.5019	12355.3	11467.3
985.5319	2588.7959	12346.1	11459.15
985.6576	2590.0893	12321.65	11430.85
985.7832	2591.3819	12291.25	11404
985.9087	2592.6739	12248.55	11358.05
986.0343	2593.9652	12198.6	11309.5
986.1597	2595.2557	12159.25	11270.25
986.2852	2596.5456	12129.5	11239.1
986.4106	2597.8348	12105.7	11217.6
986.536	2599.1234	12006.95	11118.05
986.6614	2600.4112	11992.45	11105.05
986.7867	2601.6983	11918.15	11026.8
986.912	2602.9848	11875.1	10987.9
987.0372	2604.2705	11827.35	10932.55
987.1624	2605.5556	11798.85	10910.25
987.2876	2606.84	11764.25	10877.6
987.4128	2608.1237	11721.1	10833
987.5379	2609.4067	11675.8	10784.85
987.6629	2610.689	11640.9	10744.7
987.788	2611.9707	11573.45	10679.5
987.913	2613.2516	11545.8	10651.45
988.0379	2614.5319	11454.4	10566.65
988.1629	2615.8115	11448.3	10559.9
988.2878	2617.0903	11390.55	10503.05
988.4126	2618.3685	11333.3	10446.35
988.5375	2619.6461	11307.5	10419.15
988.6622	2620.9229	11286.35	10398.75
988.787	2622.199	11278.6	10388.9
988.9117	2623.4745	11237.55	10349.95
989.0364	2624.7493	11183.55	10295.05
989.161	2626.0234	11130.05	10243.5
989.2857	2627.2968	11100.55	10212.7
989.4102	2628.5695	11041.5	10152.6
989.5348	2629.8415	11019.65	10133.6
989.6593	2631.1128	10957.45	10068.65
989.7837	2632.3835	10891.9	10002.1
989.9082	2633.6535	10843.75	9956.1
990.0326	2634.9228	10810.55	9923.85
990.1569	2636.1914	10792.85	9904.55
990.2812	2637.4593	10768.3	9874.65
990.4055	2638.7265	10717.35	9828.75
990.5298	2639.9931	10686.4	9798.4
990.654	2641.259	10685.7	9796.35
990.7782	2642.5242	10640.1	9750
990.9023	2643.7887	10597.3	9709.9
991.0264	2645.0525	10573.65	9686.15
991.1505	2646.3156	10538.55	9650.25
991.2745	2647.5781	10483.95	9597.5
991.3985	2648.8398	10437.55	9548.55
991.5225	2650.1009	10410	9485.15
991.6464	2651.3613	10380.4	9491.4
991.7703	2652.6211	10367	9478.4
991.8942	2653.8801	10328.75	9441
992.018	2655.1385	10305.05	9414.5
992.1418	2656.3961	10251.95	9364.85
992.2655	2657.6531	10264.35	9375.35
992.3892	2658.9094	10211.75	9323.75
992.5129	2660.1651	10185.35	9297.85
992.6366	2661.42	10173.4	9285.05
992.7602	2662.6743	10136.55	9247.7
992.8837	2663.9279	10124.65	9235.9
993.0073	2665.1808	10040.8	9154.7
993.1307	2666.433	10033.2	9144.65
993.2542	2667.6846	10023.35	9134.25
993.3776	2668.9354	9970.65	9080.6
993.501	2670.1856	9931.9	9042.2
993.6244	2671.4351	9910.05	9023.95
993.7477	2672.6839	9899.75	9009.2
993.8709	2673.9321	9860	8973.25
993.9942	2675.1795	9843.65	8954.95
994.1174	2676.4263	9815.15	8926.05
994.2405	2677.6724	9778.2	8892.5
994.3637	2678.9179	9762.05	8871.95
994.4868	2680.1626	9739.8	8852.95
994.6098	2681.4067	9702.3	8813.65
994.7328	2682.6501	9650.05	8761.75
994.8558	2683.8928	9616.55	8728.2
994.9788	2685.1348	9593.85	8707.3
995.1017	2686.3761	9543.85	8654.6
995.2245	2687.6168	9511	8625.75
995.3474	2688.8568	9503.4	8615.6
995.4702	2690.0961	9464.5	8576.6
995.5929	2691.3348	9442.85	8555.65
995.7156	2692.5727	9411.7	8521
995.8383	2693.81	9351.7	8465.05
995.961	2695.0466	9331.7	8447.85
996.0836	2696.2826	9313.55	8421.85
996.2062	2697.5178	9276.8	8387.75
996.3287	2698.7524	9241.8	8353.65
996.4512	2699.9863	9226.6	8338.4
996.5737	2701.2195	9216.8	8328.45
996.6961	2702.452	9175.55	8285.7
996.8185	2703.6839	9144.2	8255.05
996.9408	2704.9151	9111.9	8224.8
997.0631	2706.1456	9074.9	8188.55
997.1854	2707.3755	9057.4	8168.45
997.3077	2708.6046	9030.35	8141
997.4299	2709.8331	8990.65	8102.4
997.552	2711.0609	8931.35	8043.7
997.6742	2712.2881	8933.95	8047.05
997.7963	2713.5145	8915.2	8025.65
997.9183	2714.7403	8882.7	7996.05
998.0403	2715.9654	8838.8	7951.5
998.1623	2717.1899	8854.2	7952.6
998.2842	2718.4136	8833.3	7946.55
998.4062	2719.6367	8795.45	7908.6
998.528	2720.8591	8775.1	7882.05
998.6498	2722.0809	8741.8	7854.65
998.7716	2723.3019	8699.95	7806.75
998.8934	2724.5223	8695.9	7806.95
999.0151	2725.7421	8666.75	7776.85
999.1368	2726.9611	8631.6	7741.6
999.2584	2728.1795	8601	7709.25
999.38	2729.3972	8590.85	7703
999.5016	2730.6142	8549.65	7654.35
999.6231	2731.8306	8476.75	7589.45
999.7446	2733.0462	8427.85	7540.55
999.8661	2734.2612	8394.1	7501.5
999.9875	2735.4756	8330	7440.5
1000.1089	2736.6892	8295.4	7405.1
1000.2302	2737.9022	8246.35	7360.45
1000.3515	2739.1145	8215.4	7328.7
1000.4728	2740.3262	8204.8	7309.55
1000.594	2741.5372	8153.85	7266.65
1000.7152	2742.7475	8112.8	7223.25
1000.8363	2743.9571	8078.1	7190.25
1000.9575	2745.1661	8050.75	7155.85
1001.0785	2746.3744	8038.75	7151.2
1001.1996	2747.582	7999.45	7112.45
1001.3206	2748.7889	7966.1	7078.4
1001.4415	2749.9952	7930.65	7044.2
1001.5625	2751.2008	7890.15	7001.55
1001.6833	2752.4057	7881.05	6989.7
1001.8042	2753.61	7857.7	6969.7
1001.925	2754.8136	7813.55	6921.9
1002.0458	2756.0165	7805.1	6918.05
1002.1665	2757.2188	7759.2	6871.35
1002.2872	2758.4204	7716.1	6828.9
1002.4078	2759.6213	7691.3	6801.4
1002.5285	2760.8215	7694.85	6801.4
1002.649	2762.0211	7670.7	6780.85
1002.7696	2763.22	7637.6	6746.6
1002.8901	2764.4182	7621.45	6732.7
1003.0106	2765.6158	7588.55	6700.15
1003.131	2766.8127	7562.7	6676.15
1003.2514	2768.009	7513.3	6625.05
1003.3717	2769.2045	7491.7	6603.25
1003.492	2770.3994	7482.1	6591.35
1003.6123	2771.5936	7441.05	6551.95
1003.7325	2772.7872	7411.8	6526.15
1003.8527	2773.9801	7372.05	6485.3
1003.9729	2775.1723	7371.15	6467.3
1004.093	2776.3639	7330.7	6442.35
1004.2131	2777.5548	7313.85	6422.75
1004.3331	2778.745	7283	6393.85
1004.4531	2779.9346	7256.25	6370.85
1004.5731	2781.1235	7250	6359.7
1004.693	2782.3117	7231.75	6345.5
1004.8129	2783.4992	7202.85	6317.4
1004.9328	2784.6861	7181.9	6295.5
1005.0526	2785.8723	7172.1	6285.55
1005.1723	2787.0579	7159.1	6269.85
1005.2921	2788.2428	7098.15	6210.65
1005.4118	2789.427	7084.55	6197.95
1005.5314	2790.6106	7065.8	6178.85
1005.651	2791.7935	7047.55	6158.35
1005.7706	2792.9757	7033.6	6147.2
1005.8902	2794.1573	7008	6117.05
1006.0097	2795.3382	6999.8	6112
1006.1291	2796.5184	6961.4	6073.4
1006.2485	2797.698	6973.45	6085.2
1006.3679	2798.8769	6952.8	6064.15
1006.4873	2800.0551	6947.9	6059.85
1006.6066	2801.2327	6927.6	6039.75
1006.7258	2802.4096	6921.25	6036.75
1006.8451	2803.5859	6903.75	6016.55
1006.9642	2804.7615	6881.45	5993.3
1007.0834	2805.9364	6861.15	5973.85
1007.2025	2807.1106	6878.9	5991.25
1007.3216	2808.2842	6870.75	5982.25
1007.4406	2809.4572	6888.2	6000.7
1007.5596	2810.6294	6907.5	6018.05
1007.6785	2811.801	6937.15	6050.95
1007.7975	2812.972	6924.5	6036.2
1007.9163	2814.1423	6940.05	6052.3
1008.0352	2815.3119	6969.75	6081.25
1008.154	2816.4808	6984.15	6096.75
1008.2727	2817.6491	7010.1	6122
1008.3914	2818.8167	7032.5	6146.7
1008.5101	2819.9837	7072.45	6181.4
1008.6288	2821.15	7091.5	6202.15
1008.7474	2822.3157	7120.8	6234.35
1008.8659	2823.4807	7140.1	6253.55
1008.9844	2824.645	7170.95	6283
1009.1029	2825.8086	7208.95	6320.45
1009.2214	2826.9716	7241.35	6355.45
1009.3398	2828.134	7256.25	6369.85
1009.4581	2829.2957	7281.45	6394.8
1009.5764	2830.4567	7302.4	6416.1
1009.6947	2831.617	7301.25	6415.3
1009.813	2832.7767	7281.15	6394.05
1009.9312	2833.9358	7281.6	6394.05
1010.0493	2835.0941	7260.8	6372.1
1010.1675	2836.2519	7222.45	6335.1
1010.2855	2837.4089	7196.85	6307.55
1010.4036	2838.5653	7166.7	6278.8
1010.5216	2839.7211	7157.8	6272.5
1010.6396	2840.8761	7147.9	6259.8
1010.7575	2842.0306	7145.9	6259.1
1010.8754	2843.1843	7157.5	6270.8
1010.9932	2844.3374	7165.1	6278.5
1011.111	2845.4899	7212.4	6323.25
1011.2288	2846.6417	7231	6344.65
1011.3465	2847.7928	7284.85	6396.95
1011.4642	2848.9433	7310.5	6421.95
1011.5818	2850.0931	7372.9	6485.85
1011.6995	2851.2422	7427.75	6537.6
1011.817	2852.3907	7460.2	6571.3
1011.9345	2853.5385	7522.3	6631.9
1012.052	2854.6857	7540	6640
1012.1695	2855.8323	7538.45	6650.85
1012.2869	2856.9781	7564.1	6679.3
1012.4042	2858.1233	7597	6709.3
1012.5216	2859.2679	7594.5	6707.5
1012.6389	2860.4118	7642.6	6753.95
1012.7561	2861.555	7682.85	6789.5
1012.8733	2862.6976	7675.45	6788
1012.9905	2863.8395	7695.75	6810.7
1013.1076	2864.9808	7696.2	6808.55
1013.2247	2866.1214	7679	6794.15
1013.3417	2867.2614	7704.65	6817.25
1013.4587	2868.4007	7704.95	6816.8
1013.5757	2869.5393	7668.9	6778.45
1013.6926	2870.6773	7666.6	6776.9
1013.8095	2871.8146	7672.55	6780.95
1013.9263	2872.9513	7636.15	6746.05
1014.0431	2874.0874	7600.95	6714.75
1014.1599	2875.2227	7581.75	6692.4
1014.2766	2876.3574	7568.4	6681.45
1014.3933	2877.4915	7495.05	6606.5
1014.51	2878.6249	7454.1	6567.5
1014.6266	2879.7577	7424.75	6535.25
1014.7431	2880.8898	7394.7	6495.2
1014.8596	2882.0212	7361.35	6473.5
1014.9761	2883.152	7311.95	6425.55
1015.0925	2884.2821	7284.85	6401.25
1015.2089	2885.4116	7253.25	6366.5
1015.3253	2886.5405	7242.1	6355.9
1015.4416	2887.6686	7242.2	6351.85
1015.5579	2888.7962	7207.25	6322.95
1015.6741	2889.923	7197.35	6309.8
1015.7903	2891.0493	7185.35	6297.6
1015.9065	2892.1748	7194.1	6304.85
1016.0226	2893.2997	7176.55	6289.15
1016.1387	2894.424	7171.75	6287.45
1016.2547	2895.5476	7159.1	6273
1016.3707	2896.6706	7151.55	6265.4
1016.4866	2897.7929	7164.95	6276.55
1016.6025	2898.9145	7165.85	6279.45
1016.7184	2900.0355	7165.55	6278.2
1016.8342	2901.1559	7168.2	6279.95
1016.95	2902.2756	7183	6297.25
1017.0658	2903.3946	7203.75	6315.75
1017.1815	2904.513	7197.25	6305.5
1017.2971	2905.6308	7198.2	6311.6
1017.4127	2906.7479	7208.5	6319.9
1017.5283	2907.8643	7202.25	6314.8
1017.6439	2908.9801	7203.3	6315.45
1017.7594	2910.0953	7191.7	6304.2
1017.8748	2911.2098	7166.4	6275.15
1017.9902	2912.3236	7151.6	6257
1018.1056	2913.4368	7132.25	6240.05
1018.2209	2914.5494	7087.5	6201.25
1018.3362	2915.6613	7056.8	6165.15
1018.4515	2916.7725	7017.8	6127.1
1018.5667	2917.8831	6971.95	6084.35
1018.6819	2918.9931	6927.75	6038.45
1018.797	2920.1024	6875.65	5984.6
1018.9121	2921.211	6890.95	6003.45
1019.0271	2922.319	6834.5	5947.65
1019.1421	2923.4264	6793.25	5906.15
1019.2571	2924.5331	6779.8	5894.75
1019.372	2925.6391	6769.45	5881.4
1019.4869	2926.7445	6738.9	5853.7
1019.6017	2927.8493	6728.9	5840.15
1019.7165	2928.9534	6701.15	5815.1
1019.8313	2930.0569	6693.25	5802.25
1019.946	2931.1597	6663.3	5776.35
1020.0606	2932.2619	6674.95	5787.4
1020.1753	2933.3634	6656.05	5769.2
1020.2899	2934.4643	6636.15	5741.5
1020.4044	2935.5645	6602.6	5709.05
1020.5189	2936.6641	6576.55	5686.3
1020.6334	2937.763	6513.1	5627.85
1020.7478	2938.8613	6468.35	5582.6
1020.8622	2939.959	6420.5	5528.15
1020.9765	2941.056	6350.5	5465.05
1021.0908	2942.1523	6248.55	5360.55
1021.2051	2943.248	6178	5289.95
1021.3193	2944.3431	6065.95	5178.4
1021.4334	2945.4375	5958.7	5071.75
1021.5476	2946.5313	5866.5	4980.05
1021.6617	2947.6244	5770.15	4882.85
1021.7757	2948.7169	5661.4	4772.55
1021.8897	2949.8087	5548.4	4662
1022.0037	2950.8999	5472.8	4586
1022.1176	2951.9904	5373.7	4486
1022.2315	2953.0803	5282.15	4394.2
1022.3453	2954.1696	5217.2	4328.8
1022.4591	2955.2582	5161.6	4275.25
1022.5728	2956.3462	5114.35	4227.1
1022.6865	2957.4335	5055.55	4167.25
1022.8002	2958.5202	5010.1	4120.05
1022.9138	2959.6062	4966.05	4078.4
1023.0274	2960.6916	4939.35	4055.35
1023.141	2961.7764	4901.25	4012.6
1023.2545	2962.8605	4868.9	3980.4
1023.3679	2963.9439	4835.15	3949.75
1023.4813	2965.0267	4822.15	3934.05
1023.5947	2966.1089	4812.35	3901.25
1023.708	2967.1905	4784.55	3898.9
1023.8213	2968.2714	4767.9	3881.15
1023.9346	2969.3516	4748.75	3863.1
1024.0478	2970.4312	4732.15	3837.35
1024.1609	2971.5102	4734.8	3846.6
1024.274	2972.5885	4705.55	3819.4
1024.3871	2973.6662	4702.35	3809.25
1024.5002	2974.7432	4669.35	3782.7
1024.6132	2975.8196	4673.6	3788.15
1024.7261	2976.8954	4632.55	3745.3
1024.839	2977.9705	4617.4	3729.1
1024.9519	2979.045	4603.05	3717.2
1025.0647	2980.1188	4581.4	3695.6
1025.1775	2981.192	4548.25	3661.85
1025.2902	2982.2645	4519	3633.8
1025.4029	2983.3364	4472.45	3585.5
1025.5156	2984.4077	4437.55	3551.05
1025.6282	2985.4783	4422.4	3530.1
1025.7407	2986.5483	4373.25	3487.6
1025.8532	2987.6177	4336.85	3450.3
1025.9657	2988.6864	4297.2	3409.6
1026.0782	2989.7545	4247.1	3360.45
1026.1906	2990.8219	4220.45	3334.8
1026.3029	2991.8887	4167.1	3278.75
1026.4152	2992.9548	4143.55	3256.15
1026.5275	2994.0204	4106.55	3221.35
1026.6397	2995.0852	4076.95	3190.8
1026.7519	2996.1495	4039.65	3151.65
1026.864	2997.2131	3985.65	3100.1
1026.9761	2998.276	3954.35	3067.85
1027.0882	2999.3383	3937.55	3051.1
1027.2002	3000.4	3915.35	3027.75
1027.3122	3001.4611	3881.7	2994.55
1027.4241	3002.5215	3864.75	2977.65
1027.536	3003.5812	3831.35	2943
1027.6478	3004.6404	3814.15	2926.65
1027.7596	3005.6989	3800.3	2910.6
1027.8714	3006.7567	3786.2	2900.65
1027.9831	3007.8139	3762.85	2854.05
1028.0947	3008.8705	3738.15	2851.4
1028.2064	3009.9264	3737.3	2845.9
1028.3179	3010.9818	3711.15	2825.65
1028.4295	3012.0364	3690.8	2803.4
1028.541	3013.0905	3676.8	2789.75
1028.6524	3014.1439	3672.3	2786.35
1028.7638	3015.1966	3657.45	2770.25
1028.8752	3016.2487	3639.55	2753.15
1028.9865	3017.3002	3637.55	2747.6
1029.0978	3018.3511	3619.35	2733.4
1029.209	3019.4013	3608.25	2720.25
1029.3202	3020.4509	3585.45	2701.15
1029.4314	3021.4998	3601.15	2714.05
1029.5425	3022.5481	3586.65	2701.05
1029.6535	3023.5958	3570.3	2684.9
1029.7645	3024.6428	3556	2669.3
1029.8755	3025.6892	3559.4	2673.75
1029.9864	3026.735	3534.9	2649.1
1030.0973	3027.7802	3521.75	2635.85
1030.2082	3028.8247	3504	2617.2
1030.319	3029.8685	3507.35	2619.85
1030.4297	3030.9118	3500.85	2614.3
1030.5404	3031.9544	3490.9	2604.1
1030.6511	3032.9963	3473.85	2586.6
1030.7617	3034.0376	3462.7	2577.85
1030.8723	3035.0783	3460.35	2570.45
1030.9829	3036.1184	3463.05	2574.8
1031.0934	3037.1578	3452.9	2568.75
1031.2038	3038.1966	3458.4	2569.6
1031.3142	3039.2348	3440.3	2554.55
1031.4246	3040.2723	3434.1	2538.35
1031.5349	3041.3092	3412.2	2527.05
1031.6452	3042.3455	3393.7	2507.55
1031.7554	3043.3811	3389.2	2502.15
1031.8656	3044.4161	3381.45	2494.7
1031.9758	3045.4505	3362	2477.1
1032.0859	3046.4842	3352.35	2463.45
1032.1959	3047.5173	3335.7	2448
1032.3059	3048.5498	3333.55	2446.4
1032.4159	3049.5816	3325.3	2439
1032.5258	3050.6128	3308	2419.95
1032.6357	3051.6434	3296.05	2407.65
1032.7455	3052.6734	3289.75	2401.9
1032.8553	3053.7027	3268.45	2381.9
1032.9651	3054.7314	3255.8	2369.6
1033.0748	3055.7594	3260.85	2375.65
1033.1845	3056.7868	3236.75	2347.6
1033.2941	3057.8136	3228.1	2341.35
1033.4037	3058.8398	3202.75	2316.25
1033.5132	3059.8653	3199.35	2313.05
1033.6227	3060.8902	3187.75	2301.9
1033.7321	3061.9145	3156.55	2270.35
1033.8415	3062.9381	3162.05	2274.85
1033.9509	3063.9612	3167.25	2264.7
1034.0602	3064.9835	3134.55	2249.6
1034.1694	3066.0053	3121.15	2234.45
1034.2787	3067.0264	3110.8	2223.85
1034.3878	3068.0469	3099.6	2211.85
1034.497	3069.0668	3107.3	2219
1034.6061	3070.086	3073.85	2189.9
1034.7151	3071.1046	3063.05	2176.25
1034.8241	3072.1226	3046.8	2159.15
1034.9331	3073.1399	3040.2	2153.8
1035.042	3074.1567	3026.55	2140.4
1035.1508	3075.1727	3014.5	2124
1035.2597	3076.1882	2989.7	2102.65
1035.3684	3077.203	2991.5	2105.25
1035.4772	3078.2173	2952.65	2065.05
1035.5859	3079.2308	2958.25	2067.75
1035.6945	3080.2438	2937.35	2048.05
1035.8031	3081.2561	2929.2	2042.7
1035.9117	3082.2678	2910.5	2022.95
1036.0202	3083.2789	2904.75	2018.65
1036.1286	3084.2893	2885.6	1999.35
1036.2371	3085.2991	2861.55	1975.2
1036.3454	3086.3083	2860.3	1968.3
1036.4538	3087.3169	2853.1	1965.7
1036.562	3088.3248	2835.35	1947.2
1036.6703	3089.3321	2829.15	1941.25
1036.7785	3090.3388	2811.05	1925.3
1036.8866	3091.3449	2793.1	1906.65
1036.9948	3092.3503	2781	1893.45
1037.1028	3093.3551	2770.25	1884.6
1037.2108	3094.3593	2771.95	1887.35
1037.3188	3095.3629	2760.3	1875.8
1037.4267	3096.3658	2739.15	1850.5
1037.5346	3097.3681	2742.45	1854.6
1037.6425	3098.3698	2733.4	1844.25
1037.7503	3099.3708	2723.3	1831.6
1037.858	3100.3713	2703.05	1816.15
1037.9657	3101.3711	2687.35	1800.1
1038.0734	3102.3702	2792.25	1766.2
1038.181	3103.3688	2697	1809.2
1038.2886	3104.3667	2657.95	1773
1038.3961	3105.364	2650.95	1766.15
1038.5036	3106.3607	2630.05	1743.8
1038.611	3107.3568	2622.3	1733.05
1038.7184	3108.3522	2601.8	1715
1038.8257	3109.347	2609.65	1721.7
1038.933	3110.3412	2596.35	1703.8
1039.0403	3111.3348	2592.45	1705.75
1039.1475	3112.3277	2575.15	1689.25
1039.2547	3113.32	2561.15	1676.55
1039.3618	3114.3117	2550.25	1661.55
1039.4689	3115.3028	2544.1	1659
1039.5759	3116.2932	2546.35	1657.2
1039.6829	3117.2831	2538.45	1646.35
1039.7898	3118.2723	2515.7	1629.75
1039.8967	3119.2608	2513.85	1628.1
1040.0035	3120.2488	2507.1	1619.65
1040.1103	3121.2361	2495.45	1609.2
1040.2171	3122.2229	2484.1	1596.85
1040.3238	3123.209	2474.2	1587.05
1040.4305	3124.1944	2464.9	1577.1
1040.5371	3125.1793	2457.95	1568.85
1040.6437	3126.1635	2449.65	1563.3
1040.7502	3127.1471	2440.1	1551.85
1040.8567	3128.1301	2422.35	1537.15
1040.9631	3129.1125	2417.45	1531.15
1041.0695	3130.0942	2419.75	1533.15
1041.1759	3131.0753	2415.15	1518.9
1041.2822	3132.0558	2406.4	1514.95
1041.3884	3133.0357	2397.6	1511.15
1041.4946	3134.015	2383.05	1495.55
1041.6008	3134.9936	2383.85	1496.65
1041.7069	3135.9716	2395.5	1487.5
1041.813	3136.949	2356.35	1469.55
1041.919	3137.9258	2356.4	1467.15
1042.025	3138.902	2356.65	1464.9
1042.1309	3139.8775	2343.9	1457.2
1042.2368	3140.8524	2339.6	1453.7
1042.3427	3141.8267	2328.5	1440.65
1042.4485	3142.8004	2329.85	1442.3
1042.5542	3143.7735	2332.25	1439.6
1042.6599	3144.7459	2324.55	1437.85
1042.7656	3145.7178	2311.2	1424.6
1042.8712	3146.689	2298.4	1414.5
1042.9768	3147.6596	2292.8	1404.95
1043.0823	3148.6295	2284.95	1398.1
1043.1878	3149.5989	2271.05	1384.8
1043.2932	3150.5676	2276.8	1391.25
1043.3986	3151.5357	2266.9	1381.55
1043.5039	3152.5032	2257.7	1370.9
1043.6092	3153.4701	2245.15	1358.75
1043.7145	3154.4364	2242.05	1351.95
1043.8197	3155.402	2233.15	1349
1043.9248	3156.367	2224.65	1336.25
1044.03	3157.3315	2262.6	1331.7
1044.135	3158.2952	2209.55	1320.6
1044.24	3159.2584	2199.9	1312.25
1044.345	3160.221	2191.05	1303.1
1044.4499	3161.1829	2190.95	1305.15
1044.5548	3162.1442	2173.35	1287.2
1044.6596	3163.105	2176.35	1289.15
1044.7644	3164.065	2158.4	1270.9
1044.8692	3165.0245	2151.7	1264.3
1044.9739	3165.9834	2150.25	1265.25
1045.0785	3166.9416	2145.15	1259.45
1045.1831	3167.8993	2130.2	1242.55
1045.2877	3168.8563	2126.2	1239.6
1045.3922	3169.8127	2124.35	1238.3
1045.4966	3170.7684	2111.45	1223.85
1045.6011	3171.7236	2109.95	1222.65
1045.7054	3172.6782	2101.15	1214.1
1045.8098	3173.6321	2098.5	1212.05
1045.914	3174.5854	2085.5	1196.2
1046.0183	3175.5381	2088.65	1203.85
1046.1224	3176.4902	2077.8	1194.1
1046.2266	3177.4417	2069.95	1183.25
1046.3307	3178.3926	2058.2	1171.8
1046.4347	3179.3428	2054.55	1170.55
1046.5387	3180.2924	2046.7	1162.25
1046.6427	3181.2415	2053.05	1166.05
1046.7466	3182.1899	2039.6	1151.15
1046.8504	3183.1377	2039.8	1152.9
1046.9542	3184.0848	2022.75	1132.1
1047.058	3185.0314	2011.75	1126.35
1047.1617	3185.9773	2011.7	1127.5
1047.2654	3186.9227	2006.05	1120.05
1047.369	3187.8674	2006.3	1120.85
1047.4726	3188.8115	1990.9	1101.05
1047.5761	3189.755	1991	1104.35
1047.6796	3190.6979	1978.45	1092.75
1047.783	3191.6402	1973.55	1089.25
1047.8864	3192.5818	1975.2	1087.75
1047.9898	3193.5229	1989.3	1078.4
1048.0931	3194.4633	1957.5	1070.95
1048.1963	3195.4031	1954.1	1067.3
1048.2995	3196.3423	1954.45	1068.95
1048.4027	3197.2809	1938.5	1053.65
1048.5058	3198.2189	1942	1055.5
1048.6089	3199.1563	1941	1048.75
1048.7119	3200.0931	1923.15	1036.8
1048.8148	3201.0292	1931.5	1045.05
1048.9178	3201.9648	1911.25	1024.25
1049.0206	3202.8997	1915	1025.45
1049.1235	3203.834	1905.3	1018.45
1049.2262	3204.7677	1904.55	1020.25
1049.329	3205.7008	1891.35	1003.9
1049.4317	3206.6333	1875.9	989.75
1049.5343	3207.5652	1886.6	997.25
1049.6369	3208.4964	1875.35	988.35
1049.7394	3209.4271	1875.9	990.15
1049.8419	3210.3571	1870.05	983.2
1049.9444	3211.2865	1872.75	985.85
1050.0468	3212.2154	1865.95	978.15
1050.1491	3213.1436	1859.8	971.3
1050.2514	3214.0712	1863.45	969.25
1050.3537	3214.9982	1849.4	963.7
1050.4559	3215.9246	1843.2	956.85
1050.5581	3216.8503	1837.3	952.05
1050.6602	3217.7755	1836.45	948.2
1050.7623	3218.7001	1825.7	938
1050.8643	3219.624	1817.75	931.7
1050.9663	3220.5473	1823	937.55
1051.0682	3221.4701	1812.8	924.6
1051.1701	3222.3922	1812.35	925.1
1051.2719	3223.3137	1800.3	915.8
1051.3737	3224.2346	1804.6	919.75
1051.4754	3225.1549	1796.9	910
1051.5771	3226.0746	1783.95	898.85
1051.6788	3226.9937	1788	899.15
1051.7804	3227.9121	1771.6	885.55
1051.8819	3228.83	1782.2	895.95
1051.9834	3229.7473	1768.85	881.95
1052.0849	3230.6639	1763.2	876.25
1052.1863	3231.5799	1756.65	869.85
1052.2876	3232.4954	1756.3	869.6
1052.3889	3233.4102	1752.1	865.2
1052.4902	3234.3244	1754.9	868.6
1052.5914	3235.238	1735.95	850.1
1052.6926	3236.151	1763.4	853.25
1052.7937	3237.0634	1736.35	851
1052.8948	3237.9752	1718.45	831.6
1052.9958	3238.8864	1714.9	828.25
1053.0968	3239.797	1709.9	822.1
1053.1977	3240.7069	1707.4	820.65
1053.2986	3241.6163	1709.85	822.5
1053.3994	3242.5251	1703.15	817
1053.5002	3243.4332	1690.7	804.4
1053.6009	3244.3408	1693.45	806.5
1053.7016	3245.2477	1679.65	795.25
1053.8022	3246.154	1682.6	795.4
1053.9028	3247.0598	1676.8	791.5
1054.0034	3247.9649	1674.9	791.15
1054.1039	3248.8694	1667.85	779.6
1054.2043	3249.7733	1657.4	770.1
1054.3047	3250.6766	1660.9	774.05
1054.4051	3251.5793	1644.6	756.65
1054.5054	3252.4814	1644.55	759.55
1054.6056	3253.3829	1639	752.3
1054.7058	3254.2838	1626.95	743
1054.806	3255.1841	1637.45	752.45
1054.9061	3256.0838	1623.35	735.9
1055.0061	3256.9829	1617.9	732.5
1055.1062	3257.8814	1620.9	730.6
1055.2061	3258.7792	1608	720
1055.306	3259.6765	1598.15	710.75
1055.4059	3260.5731	1586.95	701.15
1055.5057	3261.4692	1582.8	696.95
1055.6055	3262.3647	1582.75	697.45
1055.7052	3263.2595	1564.5	677.8
1055.8049	3264.1538	1561.9	675.2
1055.9045	3265.0474	1549	662.2
1056.0041	3265.9404	1534.8	648.25
1056.1036	3266.8329	1523.35	638.65
1056.2031	3267.7247	1518.1	623.5
1056.3025	3268.616	1505.4	621.55
1056.4019	3269.5066	1481.45	593.25
1056.5013	3270.3966	1468.55	580.25
1056.6005	3271.286	1442.05	558.1
