Software Version:	3.9.2.0
Unit SN:	10000200
Spectrometer SN:	6960
Date:	3/6/2024 10:24:00 AM
Data Line Index:	25
Spectral Points:	2048
Integration time (ms):	125
Averages:	20
Delay (ms):	30
Sequence Number:	1
Processing:	dark subtract
Laser Power (mW):	305
Laser Current (mA):	825
Laser Diode Temp (C):	25.1
Laser Case Temp (C):	25.7
System Temp (C):	25.5
Spectrometer Temp (C):	22.9
CCD Temp (C):	0.007
Secondary Temp (C):	20.006
Heatsink Temp (C):	20.945
CCDPCB Temp (C):	35.484
SecondaryPCB Temp (C):	28.259

Wavelength	RamanShift	Raw Counts	Dark Subtracted
787.061	30.1047	1055.25	643.5
787.2016	32.3739	1091.5	682.7
787.3422	34.6426	1128.25	717.85
787.4828	36.9109	1166.8	754.15
787.6235	39.1787	1222.8	805.15
787.7642	41.4461	1276.05	855.45
787.9049	43.7131	1334.05	909.8
788.0456	45.9796	1388.5	963.75
788.1863	48.2456	1451.45	1020
788.3271	50.5112	1515.15	1079.65
788.4679	52.7764	1568.85	1131.05
788.6087	55.0411	1649.65	1209.2
788.7496	57.3054	1719.25	1272.5
788.8904	59.5692	1798.5	1350.3
789.0313	61.8326	1892	1439.75
789.1722	64.0955	1986.4	1532.5
789.3132	66.3579	2091.55	1632.95
789.4541	68.6199	2237.75	1775.65
789.5951	70.8815	2460.35	1995.55
789.7361	73.1426	2969.15	2497.45
789.8771	75.4032	4226.15	3749
790.0181	77.6634	7501.15	7020.8
790.1592	79.9231	15980.4	15493.6
790.3003	82.1824	50220.45	49719.3
790.4414	84.4412	65535	65015.55
790.5825	86.6995	65535	64989.9
790.7237	88.9574	65535	64963.5
790.8648	91.2148	65535	64947.6
791.006	93.4717	65535	64934.9
791.1472	95.7282	65535	64928.8
791.2885	97.9842	65535	64925.85
791.4297	100.2398	65535	64923.3
791.571	102.4949	65535	64917.05
791.7123	104.7495	65535	64914.25
791.8536	107.0036	65535	64915.9
791.9949	109.2573	65535	64920.1
792.1363	111.5105	65535	64916.5
792.2777	113.7632	65535	64915.95
792.4191	116.0154	65535	64901.35
792.5605	118.2672	65535	64910.55
792.7019	120.5185	65535	64907.75
792.8434	122.7693	65535	64903.6
792.9849	125.0197	65535	64900.5
793.1264	127.2696	65535	64895.65
793.2679	129.519	65535	64895.35
793.4094	131.7679	65535	64891.15
793.551	134.0163	65535	64884.9
793.6926	136.2642	65535	64881.6
793.8342	138.5117	65535	64870.65
793.9758	140.7587	65535	64880.4
794.1175	143.0052	65535	64878.1
794.2591	145.2512	65535	64879.15
794.4008	147.4967	65535	64878.3
794.5425	149.7417	65535	64872.85
794.6842	151.9863	65535	64868.55
794.826	154.2304	65535	64868.4
794.9677	156.4739	65535	64862.4
795.1095	158.717	65535	64865.65
795.2513	160.9596	65535	64859.75
795.3931	163.2017	65535	64855.4
795.535	165.4433	65535	64851.05
795.6768	167.6844	65535	64850.65
795.8187	169.925	65535	64847.3
795.9606	172.1651	65535	64844.85
796.1025	174.4047	65535	64840.7
796.2445	176.6439	65535	64841.2
796.3864	178.8825	65535	64837.85
796.5284	181.1206	65535	64833.35
796.6704	183.3582	65535	64829.95
796.8124	185.5954	65535	64830.8
796.9544	187.832	65535	64823.4
797.0965	190.0681	65535	64821.55
797.2386	192.3037	65535	64815.4
797.3806	194.5388	65535	64815
797.5228	196.7734	65535	64813.45
797.6649	199.0075	65535	64810.05
797.807	201.2411	65535	64811.9
797.9492	203.4742	65535	64810.5
798.0914	205.7068	65535	64806.8
798.2336	207.9389	65535	64802.35
798.3758	210.1704	65535	64803.45
798.518	212.4015	65535	64809.6
798.6603	214.632	65535	64818.15
798.8025	216.862	65535	64825.85
798.9448	219.0915	65535	64822.85
799.0871	221.3205	65535	64819
799.2294	223.549	65535	64827.2
799.3718	225.777	65535	64827.1
799.5141	228.0044	65535	64821.85
799.6565	230.2314	65535	64823.45
799.7989	232.4578	65535	64816.6
799.9413	234.6837	65535	64808.5
800.0837	236.909	65535	64805.5
800.2262	239.1339	65535	64781.25
800.3687	241.3582	65535	64795.95
800.5111	243.582	65535	64763.2
800.6536	245.8053	65535	64778.6
800.7961	248.0281	65535	64785.35
800.9387	250.2503	65535	64777.25
801.0812	252.472	65535	64775.8
801.2238	254.6932	65535	64776.45
801.3664	256.9139	65535	64774.1
801.509	259.134	65535	64769.6
801.6516	261.3536	65535	64771.65
801.7942	263.5727	65535	64775.1
801.9369	265.7912	65535	64772.75
802.0795	268.0092	65535	64771.05
802.2222	270.2267	65535	64773.95
802.3649	272.4436	65535	64770
802.5076	274.6601	65535	64756.3
802.6504	276.8759	65535	64761.5
802.7931	279.0913	65535	64760.1
802.9359	281.3061	65535	64761.9
803.0787	283.5204	65535	64757.6
803.2215	285.7341	65535	64757.25
803.3643	287.9473	65535	64742.5
803.5071	290.16	65535	64751.15
803.6499	292.3721	65535	64757.2
803.7928	294.5837	65535	64757.5
803.9357	296.7947	65535	64756.4
804.0786	299.0052	65535	64758.3
804.2215	301.2152	65535	64751.55
804.3644	303.4246	65535	64758.25
804.5074	305.6334	65535	64756
804.6503	307.8418	65535	64751.2
804.7933	310.0495	65535	64749.35
804.9363	312.2568	65535	64749.65
805.0793	314.4635	65535	64752.75
805.2223	316.6696	65535	64745.05
805.3653	318.8752	65535	64737.65
805.5084	321.0802	65535	64742.8
805.6514	323.2847	65535	64743.15
805.7945	325.4887	65535	64742.9
805.9376	327.692	65535	64741.05
806.0807	329.8949	65535	64739.95
806.2238	332.0972	65535	64739.95
806.367	334.2989	65535	64734.1
806.5101	336.5001	65535	64736.35
806.6533	338.7007	65535	64732.45
806.7965	340.9008	65535	64734
806.9397	343.1003	65535	64730.55
807.0829	345.2992	65535	64729.9
807.2261	347.4976	65535	64729.2
807.3693	349.6955	65535	64726.05
807.5126	351.8927	65535	64729.9
807.6559	354.0895	65535	64715.5
807.7991	356.2856	65535	64724.85
807.9424	358.4812	65535	64723.6
808.0857	360.6763	65535	64722.25
808.2291	362.8707	65535	64718.65
808.3724	365.0646	65535	64721.1
808.5158	367.258	65535	64716.5
808.6591	369.4508	65535	64711.65
808.8025	371.643	65535	64711.65
808.9459	373.8346	65535	64709.5
809.0893	376.0257	65535	64707.25
809.2327	378.2162	65535	64706.35
809.3762	380.4062	65535	64706.95
809.5196	382.5956	65535	64709.25
809.6631	384.7844	65535	64711.2
809.8066	386.9726	65535	64711.3
809.9501	389.1603	65535	64712.75
810.0936	391.3474	65535	64674.35
810.2371	393.5339	65535	64713
810.3806	395.7199	65535	64718.6
810.5241	397.9052	65535	64714.65
810.6677	400.09	65535	64715.5
810.8113	402.2743	65535	64715.35
810.9548	404.4579	65535	64713.7
811.0984	406.641	65535	64714.1
811.2421	408.8235	65535	64712.9
811.3857	411.0054	65535	64711.55
811.5293	413.1868	65535	64705.7
811.673	415.3675	65535	64704
811.8166	417.5477	65535	64698.7
811.9603	419.7273	65535	64698.75
812.104	421.9064	65535	64694.6
812.2477	424.0848	65535	64698.05
812.3914	426.2627	65535	64698.45
812.5351	428.4399	65535	64695.8
812.6788	430.6166	65535	64693.4
812.8226	432.7928	65535	64694.3
812.9663	434.9683	65535	64689.1
813.1101	437.1432	65535	64690.55
813.2539	439.3176	65535	64693.3
813.3977	441.4914	65535	64692.35
813.5415	443.6645	65535	64689.35
813.6853	445.8371	65535	64692
813.8291	448.0091	65535	64692.95
813.973	450.1806	65535	64692.95
814.1168	452.3514	65535	64690.1
814.2607	454.5216	65535	64678.35
814.4046	456.6913	65535	64685.6
814.5485	458.8603	65535	64685.25
814.6924	461.0288	65535	64688.75
814.8363	463.1967	65535	64689.85
814.9802	465.3639	65535	64688.85
815.1241	467.5306	65535	64687.35
815.2681	469.6967	65535	64686.7
815.412	471.8622	65535	64688.8
815.556	474.0271	65535	64686.9
815.7	476.1914	65535	64682.9
815.844	478.3551	65535	64685.6
815.988	480.5182	65535	64684.6
816.132	482.6807	65535	64684
816.276	484.8426	65535	64687
816.4201	487.0039	65535	64684.5
816.5641	489.1647	65535	64680
816.7082	491.3248	65535	64682.2
816.8522	493.4843	65535	64682.7
816.9963	495.6432	65535	64682.75
817.1404	497.8015	65535	64676.7
817.2845	499.9592	65535	64679.2
817.4286	502.1163	65535	64677.9
817.5727	504.2728	65535	64677.7
817.7168	506.4287	65535	64676.8
817.861	508.5839	65535	64678.65
818.0051	510.7386	65535	64677.85
818.1493	512.8927	65535	64672.6
818.2935	515.0461	65535	64675.05
818.4377	517.199	65535	64674.35
818.5818	519.3512	65535	64675.35
818.726	521.5029	65535	64667.75
818.8703	523.6539	65535	64676
819.0145	525.8043	65535	64672.6
819.1587	527.9541	65535	64673
819.303	530.1033	65535	64670.45
819.4472	532.2519	65535	64672.8
819.5915	534.3999	65535	64668
819.7357	536.5472	65535	64671.3
819.88	538.694	65535	64667.4
820.0243	540.8401	65535	64667.4
820.1686	542.9856	65535	64670.9
820.3129	545.1305	65535	64662.75
820.4572	547.2748	65535	64665.85
820.6016	549.4185	65535	64664.7
820.7459	551.5615	65535	64664.6
820.8902	553.704	65535	64666.75
821.0346	555.8458	65535	64668.75
821.1789	557.987	65535	64667.05
821.3233	560.1276	65535	64667.1
821.4677	562.2675	65535	64665.25
821.6121	564.4069	65535	64663.65
821.7565	566.5456	65535	64669.5
821.9009	568.6837	65535	64667.1
822.0453	570.8212	65535	64662.1
822.1897	572.958	65535	64666.55
822.3342	575.0942	65535	64662.95
822.4786	577.2299	65535	64662.85
822.6231	579.3648	65535	64665.75
822.7675	581.4992	65535	64669.7
822.912	583.6329	65535	64667.75
823.0565	585.766	65535	64666.65
823.201	587.8985	65535	64667
823.3454	590.0304	65535	64639.75
823.4899	592.1616	65535	64660.6
823.6345	594.2922	65535	64664.1
823.779	596.4222	65535	64659.5
823.9235	598.5515	65535	64658.3
824.068	600.6802	65535	64658.9
824.2126	602.8083	65535	64658.45
824.3571	604.9358	65535	64659.9
824.5017	607.0626	65535	64659.75
824.6462	609.1888	65535	64656.85
824.7908	611.3144	65535	64659.05
824.9354	613.4393	65535	64663.05
825.08	615.5636	65535	64654.15
825.2246	617.6873	65535	64658.2
825.3692	619.8103	65535	64655.15
825.5138	621.9327	65535	64655.2
825.6584	624.0544	65535	64659.75
825.803	626.1756	65535	64658.85
825.9477	628.2961	65535	64656.85
826.0923	630.4159	65535	64658.4
826.237	632.5351	65535	64654.2
826.3816	634.6537	65535	64653.5
826.5263	636.7716	65535	64654.75
826.6709	638.8889	65535	64651.5
826.8156	641.0056	65535	64653.7
826.9603	643.1216	65535	64655.95
827.105	645.237	65535	64652.65
827.2497	647.3518	65535	64653.5
827.3944	649.4659	65535	64653.85
827.5391	651.5793	65535	64653.65
827.6838	653.6922	65535	64652.35
827.8285	655.8043	65535	64650.8
827.9733	657.9159	65535	64651.3
828.118	660.0268	65535	64649.45
828.2627	662.137	65535	64653.25
828.4075	664.2466	65535	64647.55
828.5522	666.3556	65535	64646.65
828.697	668.4639	65535	64647.4
828.8418	670.5716	65535	64648.5
828.9865	672.6786	65535	64649.55
829.1313	674.785	65535	64645.8
829.2761	676.8907	65535	64647.55
829.4209	678.9958	65535	64650.45
829.5657	681.1002	65535	64648.55
829.7105	683.204	65535	64646.5
829.8553	685.3072	65535	64648.65
830.0001	687.4097	65535	64645.85
830.1449	689.5115	65535	64644.55
830.2898	691.6127	65535	64648.55
830.4346	693.7132	65535	64647.35
830.5794	695.8131	65535	64638.3
830.7243	697.9123	65535	64648.1
830.8691	700.0109	65535	64644.05
831.014	702.1089	65535	64646.9
831.1588	704.2061	65535	64649.15
831.3037	706.3028	65535	64646.2
831.4486	708.3987	65535	64644.85
831.5935	710.4941	65535	64643.45
831.7383	712.5887	65535	64642.8
831.8832	714.6827	65535	64640.15
832.0281	716.7761	65535	64646.95
832.173	718.8688	65535	64645.2
832.3179	720.9608	65535	64641.25
832.4628	723.0522	65535	64639.5
832.6077	725.1429	65535	64642.1
832.7527	727.233	65535	64641.95
832.8976	729.3224	65535	64641.95
833.0425	731.4112	65535	64639.65
833.1874	733.4993	65535	64641.3
833.3324	735.5867	65535	64640.85
833.4773	737.6735	65535	64638.95
833.6222	739.7596	65535	64640.4
833.7672	741.845	65535	64645.15
833.9122	743.9298	65535	64637.95
834.0571	746.014	65535	64642.05
834.2021	748.0974	65535	64636.85
834.347	750.1802	65535	64638.2
834.492	752.2624	65535	64642.1
834.637	754.3439	65535	64637.85
834.782	756.4247	65535	64632.25
834.9269	758.5048	65535	64640.5
835.0719	760.5843	65535	64639.45
835.2169	762.6631	65535	64640.3
835.3619	764.7413	65535	64643.3
835.5069	766.8188	65535	64638.2
835.6519	768.8956	65535	64636.65
835.7969	770.9718	65535	64638.1
835.9419	773.0473	65535	64642.05
836.0869	775.1221	65535	64638.7
836.232	777.1962	65535	64641.55
836.377	779.2697	65535	64640.7
836.522	781.3426	65535	64619.95
836.667	783.4147	65535	64637.95
836.8121	785.4862	65535	64640.35
836.9571	787.557	65535	64641.7
837.1021	789.6271	65535	64642.15
837.2472	791.6966	65535	64639.2
837.3922	793.7654	65535	64637.85
837.5373	795.8335	65535	64640.1
837.6823	797.901	65535	64637.25
837.8274	799.9678	65535	64634.9
837.9724	802.0339	65535	64638.7
838.1175	804.0993	65535	64628.75
838.2626	806.1641	65535	64639.5
838.4076	808.2282	65535	64638.8
838.5527	810.2916	65535	64634.75
838.6978	812.3544	65535	64640.95
838.8428	814.4164	65535	64637.85
838.9879	816.4778	65535	64636.85
839.133	818.5385	65535	64639.65
839.2781	820.5986	65535	64637.65
839.4232	822.658	65535	64634.95
839.5682	824.7166	65535	64636.4
839.7133	826.7747	65535	64637.6
839.8584	828.832	65535	64634.7
840.0035	830.8886	65535	64637.2
840.1486	832.9446	65535	64635.1
840.2937	834.9999	65535	64639.55
840.4388	837.0545	65535	64632.8
840.5839	839.1085	65535	64637.95
840.729	841.1618	65535	64632.35
840.8741	843.2143	65535	64633.55
841.0192	845.2662	65535	64635.3
841.1643	847.3175	65535	64637.75
841.3095	849.368	65535	64636.8
841.4546	851.4179	65535	64638.55
841.5997	853.467	65535	64639.1
841.7448	855.5155	65535	64636.85
841.8899	857.5633	65535	64636.25
842.0351	859.6105	65535	64635.25
842.1802	861.6569	65535	64635.95
842.3253	863.7027	65535	64635.95
842.4704	865.7478	65535	64633.6
842.6156	867.7922	65535	64635.5
842.7607	869.8359	65535	64633.45
842.9058	871.8789	65535	64634.85
843.0509	873.9212	65535	64601.2
843.1961	875.9629	65535	64636.75
843.3412	878.0039	65535	64632.7
843.4863	880.0441	65535	64634.8
843.6315	882.0837	65535	64634.95
843.7766	884.1226	65535	64631.8
843.9218	886.1609	65535	64634.15
844.0669	888.1984	65535	64637.2
844.212	890.2352	65535	64634.75
844.3572	892.2714	65535	64631.55
844.5023	894.3069	65535	64632.05
844.6475	896.3416	65535	64635.85
844.7926	898.3757	65535	64633.7
844.9377	900.4091	65535	64629.8
845.0829	902.4418	65535	64625.85
845.228	904.4739	65535	64631.3
845.3732	906.5052	65535	64632.55
845.5183	908.5358	65535	64633.05
845.6635	910.5658	65535	64628.8
845.8086	912.595	65535	64631.6
845.9538	914.6236	65535	64633.1
846.0989	916.6515	65535	64633.7
846.2441	918.6786	65535	64630.5
846.3892	920.7051	65535	64630.95
846.5344	922.7309	65535	64629.95
846.6795	924.756	65535	64632.5
846.8246	926.7804	65535	64631.2
846.9698	928.8041	65535	64631.05
847.1149	930.8272	65535	64633.85
847.2601	932.8495	65535	64632.5
847.4052	934.8711	65535	64631.25
847.5504	936.892	65535	64632.65
847.6955	938.9123	65535	64633
847.8407	940.9318	65535	64632.25
847.9858	942.9506	65535	64634.9
848.131	944.9688	65535	64629.7
848.2761	946.9862	65535	64633
848.4213	949.003	65535	64632.05
848.5664	951.019	65535	64631.65
848.7115	953.0344	65535	64630.35
848.8567	955.0491	65535	64630.8
849.0018	957.063	65535	64634.95
849.147	959.0763	65535	64632.7
849.2921	961.0888	65535	64628.15
849.4373	963.1007	65535	64629.6
849.5824	965.1119	65535	64632.9
849.7275	967.1223	65535	64633
849.8727	969.1321	65535	64633.15
850.0178	971.1412	65535	64632.05
850.1629	973.1495	65535	64635.25
850.3081	975.1572	65535	64597.2
850.4532	977.1641	65535	64632.45
850.5983	979.1704	65535	64632.1
850.7435	981.1759	65535	64628.8
850.8886	983.1808	65535	64631.15
851.0337	985.1849	65535	64620.05
851.1788	987.1884	65535	64628.35
851.324	989.1911	65535	64625.85
851.4691	991.1932	65535	64632.55
851.6142	993.1945	65535	64631.7
851.7593	995.1951	65535	64629
851.9045	997.1951	65535	64629.3
852.0496	999.1943	65535	64633.1
852.1947	1001.1928	65535	64631.6
852.3398	1003.1906	65535	64631.95
852.4849	1005.1877	65535	64631.1
852.63	1007.1841	65535	64632.05
852.7751	1009.1798	65535	64632.35
852.9202	1011.1748	65535	64634.45
853.0653	1013.1691	65535	64629.65
853.2104	1015.1627	65535	64632.5
853.3555	1017.1556	65535	64633.1
853.5006	1019.1477	65535	64629.05
853.6457	1021.1392	65535	64633.9
853.7908	1023.1299	65535	64629.4
853.9359	1025.12	65535	64632.9
854.081	1027.1093	65535	64637.75
854.2261	1029.0979	65535	64636.15
854.3712	1031.0859	65535	64634.65
854.5163	1033.0731	65535	64634.85
854.6613	1035.0596	65535	64633.55
854.8064	1037.0454	65535	64630.25
854.9515	1039.0304	65535	64633.3
855.0965	1041.0148	65535	64631.1
855.2416	1042.9985	65535	64630.5
855.3867	1044.9814	65535	64632.35
855.5317	1046.9636	65535	64630.3
855.6768	1048.9452	65535	64636.35
855.8219	1050.926	65535	64633.75
855.9669	1052.9061	65535	64634.65
856.112	1054.8855	65535	64631.1
856.257	1056.8642	65535	64632.55
856.4021	1058.8421	65535	64628.95
856.5471	1060.8194	65535	64627.35
856.6921	1062.7959	65535	64632.95
856.8372	1064.7717	65535	64630.25
856.9822	1066.7469	65535	64630.3
857.1272	1068.7213	65535	64630.15
857.2723	1070.695	65535	64632.85
857.4173	1072.6679	65535	64630.9
857.5623	1074.6402	65535	64632.45
857.7073	1076.6117	65535	64626.45
857.8523	1078.5826	65535	64629.2
857.9973	1080.5527	65535	64630.55
858.1423	1082.5221	65535	64633.2
858.2873	1084.4908	65535	64631.3
858.4323	1086.4587	65535	64631.8
858.5773	1088.426	65535	64632.75
858.7223	1090.3925	65535	64628.55
858.8673	1092.3584	65535	64634.05
859.0123	1094.3235	65535	64632.1
859.1573	1096.2879	65535	64633.7
859.3022	1098.2515	65535	64630.85
859.4472	1100.2145	65535	64630.7
859.5922	1102.1767	65535	64629.35
859.7371	1104.1382	65535	64631.2
859.8821	1106.099	65535	64630.7
860.027	1108.0591	65535	64628.9
860.172	1110.0185	65535	64630.6
860.3169	1111.9771	65535	64634.65
860.4619	1113.9351	65535	64630.65
860.6068	1115.8923	65535	64633.25
860.7517	1117.8488	65535	64625.9
860.8967	1119.8045	65535	64630.85
861.0416	1121.7596	65535	64629.8
861.1865	1123.7139	65535	64636.2
861.3314	1125.6675	65535	64633.95
861.4763	1127.6204	65535	64631.85
861.6212	1129.5726	65535	64632.25
861.7661	1131.524	65535	64632.65
861.911	1133.4748	65535	64634.5
862.0559	1135.4248	65535	64631.55
862.2008	1137.3741	65535	64632.85
862.3457	1139.3226	65535	64629.75
862.4905	1141.2705	65535	64633.3
862.6354	1143.2176	65535	64629.05
862.7803	1145.164	65535	64631.3
862.9251	1147.1097	65535	64631.3
863.07	1149.0546	65535	64633.75
863.2148	1150.9989	65535	64633.5
863.3597	1152.9424	65535	64630.45
863.5045	1154.8852	65535	64631.9
863.6493	1156.8272	65535	64634.75
863.7942	1158.7686	65535	64624.5
863.939	1160.7092	65535	64630.45
864.0838	1162.6491	65535	64630.75
864.2286	1164.5883	65535	64630
864.3734	1166.5267	65535	64632.9
864.5182	1168.4644	65535	64631.15
864.663	1170.4014	65535	64625.35
864.8078	1172.3377	65535	64633.8
864.9526	1174.2732	65535	64633.45
865.0974	1176.2081	65535	64632.05
865.2421	1178.1421	65535	64627.1
865.3869	1180.0755	65535	64633.9
865.5317	1182.0082	65535	64632.9
865.6764	1183.9401	65535	64633.3
865.8212	1185.8713	65535	64633.4
865.9659	1187.8017	65535	64633
866.1106	1189.7315	65535	64635.75
866.2554	1191.6605	65535	64606.65
866.4001	1193.5888	65535	64632.4
866.5448	1195.5163	65535	64634.1
866.6895	1197.4432	65535	64633.1
866.8342	1199.3693	65535	64632.5
866.9789	1201.2947	65535	64632.25
867.1236	1203.2193	65535	64632.9
867.2683	1205.1432	65535	64632.25
867.413	1207.0664	65535	64631.7
867.5576	1208.9889	65535	64630.05
867.7023	1210.9106	65535	64633.35
867.847	1212.8316	65535	64632.75
867.9916	1214.7519	65535	64623.65
868.1363	1216.6715	65535	64633.25
868.2809	1218.5903	65535	64633.95
868.4255	1220.5084	65535	64632.3
868.5701	1222.4257	65535	64633.45
868.7148	1224.3424	65535	64634.4
868.8594	1226.2583	65535	64628.95
869.004	1228.1735	65535	64633.75
869.1486	1230.0879	65535	64634.05
869.2932	1232.0016	65535	64633.6
869.4377	1233.9146	65535	64631.15
869.5823	1235.8269	65535	64633.45
869.7269	1237.7384	65535	64635
869.8715	1239.6492	65535	64635.05
870.016	1241.5592	65535	64631.2
870.1606	1243.4686	65535	64632.7
870.3051	1245.3772	65535	64632.6
870.4496	1247.285	65535	64634.7
870.5941	1249.1922	65535	64634.2
870.7387	1251.0986	65535	64634.3
870.8832	1253.0042	65535	64631.45
871.0277	1254.9092	65535	64630.35
871.1722	1256.8134	65535	64634.8
871.3167	1258.7169	65535	64631.7
871.4611	1260.6196	65535	64633.85
871.6056	1262.5216	65535	64632.6
871.7501	1264.4229	65535	64633.05
871.8945	1266.3234	65535	64632.95
872.039	1268.2232	65535	64633
872.1834	1270.1223	65535	64633.55
872.3278	1272.0207	65535	64632.4
872.4723	1273.9183	65535	64628.45
872.6167	1275.8151	65535	64634.65
872.7611	1277.7113	65535	64632.85
872.9055	1279.6067	65535	64635.35
873.0499	1281.5014	65535	64634.2
873.1943	1283.3953	65535	64631.5
873.3386	1285.2885	65535	64634.85
873.483	1287.181	65535	64632.2
873.6274	1289.0727	65535	64631.6
873.7717	1290.9637	65535	64633.95
873.9161	1292.854	65535	64634.1
874.0604	1294.7435	65535	64634.05
874.2047	1296.6323	65535	64632.05
874.349	1298.5204	65535	64627.6
874.4933	1300.4077	65535	64632.25
874.6376	1302.2943	65535	64635.05
874.7819	1304.1802	65535	64634.65
874.9262	1306.0653	65535	64633.45
875.0705	1307.9497	65535	64633.6
875.2147	1309.8333	65535	64634.45
875.359	1311.7162	65535	64634.7
875.5032	1313.5984	65535	64632.25
875.6475	1315.4798	65535	64633.7
875.7917	1317.3605	65535	64618.7
875.9359	1319.2405	65535	64631.65
876.0801	1321.1197	65535	64632.85
876.2243	1322.9982	65535	64627.3
876.3685	1324.876	65535	64634.2
876.5127	1326.753	65535	64634.6
876.6569	1328.6293	65535	64632.65
876.801	1330.5048	65535	64632.55
876.9452	1332.3796	65535	64637.1
877.0893	1334.2537	65535	64609.6
877.2335	1336.127	65535	64633.7
877.3776	1337.9996	65535	64632
877.5217	1339.8714	65535	64632.45
877.6658	1341.7426	65535	64590.3
877.8099	1343.6129	65535	64634.9
877.954	1345.4826	65535	64635.6
878.0981	1347.3515	65535	64630.25
878.2422	1349.2196	65535	64633.1
878.3862	1351.087	65535	64632.1
878.5303	1352.9537	65535	64633.4
878.6743	1354.8197	65535	64632.7
878.8184	1356.6849	65535	64632.65
878.9624	1358.5493	65535	64633.75
879.1064	1360.4131	65535	64633.1
879.2504	1362.276	65535	64633.8
879.3944	1364.1383	65535	64632.45
879.5384	1365.9998	65535	64624.15
879.6823	1367.8606	65535	64633.55
879.8263	1369.7206	65535	64632.65
879.9702	1371.5799	65535	64631.2
880.1142	1373.4384	65535	64632.15
880.2581	1375.2962	65535	64632.3
880.402	1377.1533	65535	64636.05
880.5459	1379.0096	65535	64634.55
880.6898	1380.8652	65535	64635
880.8337	1382.7201	65535	64636.25
880.9776	1384.5742	65535	64633.55
881.1215	1386.4275	65535	64634
881.2653	1388.2802	65535	64633.3
881.4092	1390.132	65535	64634.1
881.553	1391.9832	65535	64632.3
881.6968	1393.8336	65535	64632.65
881.8406	1395.6832	65535	64633.55
881.9844	1397.5322	65535	64633.05
882.1282	1399.3803	65535	64627.75
882.272	1401.2278	65535	64637.05
882.4158	1403.0745	65535	64634.75
882.5595	1404.9204	65535	64633.6
882.7033	1406.7656	65535	64636.8
882.847	1408.6101	65535	64633.65
882.9908	1410.4538	65535	64633.25
883.1345	1412.2968	65535	64634.8
883.2782	1414.139	65535	64634.25
883.4219	1415.9805	65535	64635.45
883.5656	1417.8213	65535	64626.6
883.7092	1419.6613	65535	64636.1
883.8529	1421.5006	65535	64633.75
883.9965	1423.3391	65535	64633.85
884.1402	1425.1769	65535	64632.7
884.2838	1427.0139	65535	64634.2
884.4274	1428.8502	65535	64633.75
884.571	1430.6858	65535	64632.15
884.7146	1432.5206	65535	64635.8
884.8582	1434.3547	65535	64633.3
885.0018	1436.188	65535	64635.65
885.1453	1438.0206	65535	64634.8
885.2889	1439.8524	65535	64634.85
885.4324	1441.6835	65535	64634.5
885.5759	1443.5139	65535	64632.15
885.7194	1445.3435	65535	64631
885.8629	1447.1724	65535	64635.85
886.0064	1449.0005	65535	64632.45
886.1499	1450.8279	65535	64634.65
886.2933	1452.6545	65535	64635.25
886.4368	1454.4804	65535	64635.1
886.5802	1456.3056	65535	64628.85
886.7237	1458.13	65535	64634
886.8671	1459.9536	65535	64637
887.0105	1461.7766	65535	64635.75
887.1539	1463.5987	65535	64633.9
887.2972	1465.4202	65535	64634.95
887.4406	1467.2409	65535	64634.75
887.584	1469.0608	65535	64635.45
887.7273	1470.88	65535	64634.55
887.8706	1472.6984	65535	64636.6
888.0139	1474.5161	65535	64633.15
888.1572	1476.3331	65535	64635.6
888.3005	1478.1493	65535	64634.35
888.4438	1479.9648	65535	64635.35
888.5871	1481.7795	65535	64636.35
888.7303	1483.5935	65535	64635.2
888.8736	1485.4067	65535	64635.35
889.0168	1487.2192	65535	64636.6
889.16	1489.031	65535	64634.45
889.3032	1490.842	65535	64636.3
889.4464	1492.6522	65535	64635.05
889.5896	1494.4618	65535	64633.45
889.7327	1496.2705	65535	64635.65
889.8759	1498.0785	65535	64634.25
890.019	1499.8858	65535	64634
890.1622	1501.6924	65535	64636.75
890.3053	1503.4981	65535	64635.95
890.4484	1505.3032	65535	64634.95
890.5914	1507.1075	65535	64634.65
890.7345	1508.911	65535	64636.9
890.8776	1510.7138	65535	64634.6
891.0206	1512.5159	65535	64637.25
891.1637	1514.3172	65535	64635.65
891.3067	1516.1178	65535	64636.85
891.4497	1517.9176	65535	64631.3
891.5927	1519.7166	65535	64637
891.7357	1521.515	65535	64629.55
891.8786	1523.3126	65535	64635.65
892.0216	1525.1094	65535	64634.9
892.1645	1526.9055	65535	64637.6
892.3074	1528.7008	65535	64636.75
892.4503	1530.4954	65535	64635.75
892.5932	1532.2893	65535	64636.6
892.7361	1534.0824	65535	64631.25
892.879	1535.8747	65535	64634.45
893.0218	1537.6663	65535	64634.95
893.1647	1539.4572	65535	64637
893.3075	1541.2473	65535	64635.2
893.4503	1543.0367	65535	64636.7
893.5931	1544.8253	65535	64630.85
893.7359	1546.6132	65535	64633.3
893.8787	1548.4003	65535	64628.85
894.0214	1550.1867	65535	64627.8
894.1642	1551.9723	65535	64633.5
894.3069	1553.7572	65535	64635.95
894.4496	1555.5414	65535	64638.45
894.5923	1557.3247	65535	64637.4
894.735	1559.1074	65535	64638.4
894.8777	1560.8893	65535	64637.25
895.0204	1562.6705	65535	64638.95
895.163	1564.4509	65535	64638.05
895.3056	1566.2305	65535	64638.6
895.4482	1568.0094	65535	64638.15
895.5908	1569.7876	65535	64640.1
895.7334	1571.565	65535	64636.5
895.876	1573.3417	65535	64639
896.0186	1575.1176	65535	64638.25
896.1611	1576.8928	65535	64639.45
896.3036	1578.6672	65535	64639.95
896.4461	1580.4409	65535	64640.85
896.5886	1582.2138	65535	64639.15
896.7311	1583.986	65535	64637.7
896.8736	1585.7575	65535	64639.85
897.0161	1587.5282	65535	64640.65
897.1585	1589.2981	65535	64639.8
897.3009	1591.0673	65535	64638.2
897.4433	1592.8358	65535	64639.3
897.5857	1594.6035	65535	64636.7
897.7281	1596.3704	65535	64639.35
897.8705	1598.1366	65535	64640.65
898.0128	1599.9021	65535	64641.85
898.1551	1601.6668	65535	64638.25
898.2975	1603.4308	65535	64637.75
898.4398	1605.194	65535	64633.65
898.5821	1606.9564	65535	64639.2
898.7243	1608.7182	65535	64637.75
898.8666	1610.4791	65535	64641.35
899.0088	1612.2394	65535	64643.85
899.1511	1613.9988	65533.95	64639.3
899.2933	1615.7576	65535	64640.35
899.4355	1617.5156	65535	64632.95
899.5776	1619.2728	65535	64636.9
899.7198	1621.0293	65535	64641.05
899.862	1622.785	65535	64635.75
900.0041	1624.54	65535	64638.55
900.1462	1626.2942	65532.85	64636.7
900.2883	1628.0477	65524.7	64627.65
900.4304	1629.8005	65488.1	64590.2
900.5725	1631.5525	65526.2	64632.75
900.7145	1633.3037	65484.9	64591.7
900.8566	1635.0542	65477.55	64585.85
900.9986	1636.804	65519.55	64626.5
901.1406	1638.553	65446.95	64464.15
901.2826	1640.3013	65466.4	64570.75
901.4245	1642.0488	65403.4	64507.55
901.5665	1643.7955	65471	64578.65
901.7085	1645.5416	65437.05	64543.35
901.8504	1647.2868	65368.05	64473.8
901.9923	1649.0313	65471.4	64578.4
902.1342	1650.7751	65428.05	64530.95
902.2761	1652.5181	65357.5	64463.45
902.4179	1654.2604	65363.7	64470.4
902.5598	1656.0019	65382.75	64487.15
902.7016	1657.7427	65362.45	64469.4
902.8434	1659.4828	65426.35	64531.3
902.9852	1661.222	65311.65	64416.3
903.127	1662.9606	65426.35	64530.55
903.2687	1664.6984	65275.5	64380.75
903.4105	1666.4354	65354.65	64460.4
903.5522	1668.1717	65179.75	64284.95
903.6939	1669.9072	65013.7	64120.05
903.8356	1671.642	65043	64145.95
903.9773	1673.3761	65003.45	64111.1
904.119	1675.1094	64981.8	64088.05
904.2606	1676.8419	64767.1	63872.5
904.4022	1678.5737	64863.45	63969.95
904.5439	1680.3048	64778.95	63883.95
904.6855	1682.0351	64681.75	63788.7
904.827	1683.7646	64611	63714.1
904.9686	1685.4934	64697.15	63804.1
905.1101	1687.2215	64311.4	63416.8
905.2517	1688.9488	64599.6	63705.85
905.3932	1690.6754	64033.3	63142.35
905.5347	1692.4012	64304.5	63411.7
905.6761	1694.1263	64360.8	63469.25
905.8176	1695.8506	64121.95	63227.5
905.9591	1697.5742	64163.3	63271.45
906.1005	1699.297	64097.05	63203.3
906.2419	1701.0191	64125	63233.4
906.3833	1702.7404	63849.1	62955.8
906.5246	1704.461	63761.95	62868.6
906.666	1706.1808	63913.95	63019.65
906.8073	1707.8999	63840.35	62947.35
906.9487	1709.6182	63751.6	62858.8
907.09	1711.3358	63721	62827.8
907.2313	1713.0527	63649.35	62759.65
907.3725	1714.7688	63670.25	62771.95
907.5138	1716.4841	63374.8	62480.05
907.655	1718.1987	63484.45	62588.2
907.7962	1719.9126	63408.8	62516.95
907.9374	1721.6257	63448.9	62553.65
908.0786	1723.338	63473.95	62582.15
908.2198	1725.0496	63037.35	62144.1
908.3609	1726.7605	63109.6	62215.2
908.502	1728.4706	62942	62049.7
908.6431	1730.18	63121.35	62226.05
908.7842	1731.8886	62890.6	61998.65
908.9253	1733.5964	62762.7	61866.05
909.0664	1735.3036	62975.5	62080.5
909.2074	1737.0099	62818.85	61925.7
909.3484	1738.7156	62612.6	61721.05
909.4894	1740.4204	62538.3	61643.9
909.6304	1742.1246	62634.3	61742.65
909.7714	1743.8279	62666.9	61774.95
909.9123	1745.5306	62629.4	61735.95
910.0532	1747.2325	61894.3	61001.6
910.1941	1748.9336	61936.4	61046.35
910.335	1750.634	62115.3	61221.1
910.4759	1752.3336	62284.45	61391.7
910.6168	1754.0325	61834.55	60943.5
910.7576	1755.7307	62245.3	61354.2
910.8984	1757.4281	61594.3	60703.65
911.0392	1759.1247	62093.65	61194.55
911.18	1760.8206	61416.55	60519.1
911.3208	1762.5158	61467.3	60571.2
911.4615	1764.2102	61584.85	60693.85
911.6022	1765.9039	61460.8	60569.9
911.7429	1767.5968	61291.4	60400.2
911.8836	1769.289	61172.25	60280.5
912.0243	1770.9804	61320.3	60427
912.1649	1772.6711	61132.45	60241.5
912.3056	1774.361	61005.6	60112.95
912.4462	1776.0502	61035	60144.7
912.5868	1777.7386	60474.9	59579.4
912.7274	1779.4263	60742.7	59849.85
912.8679	1781.1132	60769.4	59876.45
913.0084	1782.7994	60595.6	59702.15
913.149	1784.4849	60618.4	59727.7
913.2895	1786.1696	59905.6	59010.4
913.4299	1787.8535	60282.9	59393.75
913.5704	1789.5367	60332.85	59442.85
913.7108	1791.2192	59965.4	59075.35
913.8513	1792.9009	59715.9	58793.85
913.9917	1794.5818	59981.55	59088.75
914.132	1796.2621	59654.95	58766.1
914.2724	1797.9415	59640.1	58748.05
914.4128	1799.6202	59564.15	58670.75
914.5531	1801.2982	59627	58734.85
914.6934	1802.9755	59203	58311.3
914.8337	1804.6519	59061.3	58170.15
914.9739	1806.3277	59576.75	58684.85
915.1142	1808.0027	58708.9	57817.4
915.2544	1809.6769	58955.7	58065.95
915.3946	1811.3504	59017.85	58124.95
915.5348	1813.0231	58325.15	57432.65
915.675	1814.6951	58753.3	57862
915.8151	1816.3664	58520.6	57626.55
915.9553	1818.0369	58502.25	57611.25
916.0954	1819.7067	58282.8	57393.05
916.2355	1821.3757	58622.1	57728.25
916.3755	1823.044	58063.55	57172.7
916.5156	1824.7115	57731.85	56840.55
916.6556	1826.3783	57922.2	57032.05
916.7956	1828.0443	57934.1	57044.7
916.9356	1829.7096	57659	56765.1
917.0756	1831.3741	57173.75	56279.45
917.2155	1833.0379	57486.85	56594.6
917.3555	1834.701	57403.1	56509.35
917.4954	1836.3633	56994.4	56102.55
917.6353	1838.0248	57226.25	56332.75
917.7751	1839.6856	57023.35	56132.2
917.915	1841.3457	56633.35	55742.9
918.0548	1843.005	57053.15	56163.1
918.1946	1844.6636	56772.15	55882.45
918.3344	1846.3214	56186.4	55293.25
918.4742	1847.9785	56339	55448.8
918.6139	1849.6349	56164.15	55271.9
918.7537	1851.2904	56630.85	55731.15
918.8934	1852.9453	55891.3	54998.1
919.0331	1854.5994	56117.05	55222.05
919.1727	1856.2528	56134.05	55237.95
919.3124	1857.9054	55704	54813.45
919.452	1859.5572	55509.5	54619.65
919.5916	1861.2083	55707.6	54815.8
919.7312	1862.8587	56101.9	55208.7
919.8708	1864.5084	54897.9	54005.3
920.0103	1866.1572	55385.1	54496
920.1498	1867.8054	54756.95	53864.7
920.2893	1869.4528	55134.45	54243.45
920.4288	1871.0994	54605.9	53713.25
920.5683	1872.7453	54543.2	53650.8
920.7077	1874.3905	54734.7	53836.35
920.8471	1876.0349	54236.1	53341.35
920.9865	1877.6786	54604.05	53710.85
921.1259	1879.3215	54112.15	53220.7
921.2653	1880.9637	54547.45	53656.3
921.4046	1882.6051	54056.6	53167.6
921.5439	1884.2458	53792.15	52900.2
921.6832	1885.8858	53496.9	52605.4
921.8225	1887.525	53668.2	52774.55
921.9617	1889.1634	53498.65	52606.25
922.101	1890.8011	53316.6	52425.4
922.2402	1892.4381	52797.1	51905.75
922.3794	1894.0743	53309.1	52419.35
922.5185	1895.7098	52901	52010.95
922.6577	1897.3446	52600.8	51711
922.7968	1898.9786	52665.05	51770.6
922.9359	1900.6118	52370.45	51479.1
923.075	1902.2443	52069.25	51175.95
923.214	1903.8761	52368.45	51478
923.3531	1905.5071	51954.55	51061.85
923.4921	1907.1374	51373.85	50482
923.6311	1908.7669	51643.15	50752.6
923.77	1910.3957	51751.35	50860.8
923.909	1912.0237	51213.5	50322.2
924.0479	1913.651	50948.1	50056.35
924.1868	1915.2776	50783.85	49896.3
924.3257	1916.9034	50728.2	49840.05
924.4646	1918.5285	50546.75	49656.7
924.6034	1920.1528	50462.3	49571.75
924.7422	1921.7764	50283.55	49392.35
924.881	1923.3992	50146.55	49257.2
925.0198	1925.0213	49802.1	48911.05
925.1586	1926.6427	49395.15	48505.7
925.2973	1928.2633	49592.1	48624.8
925.436	1929.8832	49402	48510.8
925.5747	1931.5023	49191.05	48300.45
925.7134	1933.1207	48884.85	47993.9
925.852	1934.7383	49020.75	48129.35
925.9906	1936.3552	48684.55	47795.45
926.1292	1937.9714	48636.45	47744.4
926.2678	1939.5868	48493.65	47600.8
926.4064	1941.2015	48085.3	47193.1
926.5449	1942.8154	47853.35	46961.5
926.6834	1944.4286	47797.1	46906.85
926.8219	1946.041	47711.55	46803.25
926.9604	1947.6528	47419.45	46524
927.0988	1949.2637	47292.4	46403.2
927.2372	1950.8739	47103.8	46212.5
927.3756	1952.4834	47085.6	46194.9
927.514	1954.0921	47005	46114.5
927.6523	1955.7001	46688.35	45792.2
927.7907	1957.3074	46697.75	45809.15
927.929	1958.9139	46372.85	45481.8
928.0673	1960.5197	46327.85	45437.2
928.2055	1962.1247	46137.15	45246.95
928.3438	1963.729	45932.65	45044.4
928.482	1965.3325	45744	44830.55
928.6202	1966.9353	45713.2	44824.3
928.7584	1968.5374	45394.6	44502.6
928.8965	1970.1387	45225.25	44334.9
929.0346	1971.7393	45150.9	44259.9
929.1727	1973.3392	44991.9	44102.45
929.3108	1974.9383	44731.65	43842.95
929.4489	1976.5366	44555.4	43664.25
929.5869	1978.1342	44513.55	43623.35
929.7249	1979.7311	44453.65	43562.25
929.8629	1981.3273	44308.95	43417.8
930.0009	1982.9227	44091.45	43200.8
930.1388	1984.5173	43977.15	43088.05
930.2767	1986.1112	43743.3	42855.25
930.4146	1987.7044	43792.8	42904.45
930.5525	1989.2968	43493.6	42603.3
930.6904	1990.8885	43453.95	42561.2
930.8282	1992.4795	43347.1	42456.45
930.966	1994.0697	43173.35	42284.1
931.1038	1995.6592	43014.5	42124.75
931.2415	1997.2479	42855.6	41968
931.3793	1998.8359	42834.8	41946.3
931.517	2000.4232	42599.25	41709.55
931.6547	2002.0097	42474.65	41588.95
931.7923	2003.5955	42258.2	41369.4
931.93	2005.1805	42253.6	41364.2
932.0676	2006.7648	42113.85	41224.1
932.2052	2008.3484	41983.05	41093.5
932.3427	2009.9312	42018.85	41126.85
932.4803	2011.5133	41773.6	40886.5
932.6178	2013.0946	41666.95	40777.25
932.7553	2014.6752	41563.7	40675.05
932.8928	2016.2551	41408.05	40514.75
933.0302	2017.8342	41256.15	40367.15
933.1676	2019.4126	41093.65	40204.9
933.305	2020.9902	40928	40039.15
933.4424	2022.5672	40868.5	39978.7
933.5798	2024.1433	40733.6	39837.75
933.7171	2025.7188	40624.25	39736.05
933.8544	2027.2935	40446.55	39557.1
933.9917	2028.8674	40296.15	39409.95
934.129	2030.4406	40222.65	39335.5
934.2662	2032.0131	39983.85	39095.1
934.4034	2033.5849	39891.9	38998.1
934.5406	2035.1559	39858.8	38970.3
934.6778	2036.7261	39791.95	38901.55
934.8149	2038.2957	39583.8	38694.3
934.952	2039.8645	39538.7	38650.2
935.0891	2041.4325	39577.35	38686.75
935.2262	2042.9998	39381.15	38494.05
935.3632	2044.5664	39203.7	38312.9
935.5002	2046.1323	39140	38251.15
935.6372	2047.6974	39001.5	38112.7
935.7742	2049.2617	38920.5	38031.3
935.9111	2050.8254	38885.4	37992.85
936.048	2052.3883	38781.85	37892.2
936.1849	2053.9504	38663.3	37774.5
936.3218	2055.5118	38501.65	37612.1
936.4586	2057.0725	38350.35	37458.1
936.5955	2058.6325	38259	37369.85
936.7323	2060.1917	38161.6	37275.4
936.869	2061.7502	38001.35	37109.8
937.0058	2063.3079	37837.65	36948.95
937.1425	2064.8649	37728.1	36835.45
937.2792	2066.4212	37680.65	36791.2
937.4159	2067.9767	37562.5	36674.45
937.5525	2069.5315	37403.05	36513.05
937.6891	2071.0856	37220.25	36332.1
937.8257	2072.6389	37100.25	36211.4
937.9623	2074.1915	36908.65	36022.1
938.0989	2075.7433	36731.7	35841.75
938.2354	2077.2945	36671	35783.7
938.3719	2078.8448	36583.55	35693.7
938.5084	2080.3945	36462.7	35574.45
938.6448	2081.9434	36422.1	35532.75
938.7812	2083.4916	36254.15	35365.3
938.9176	2085.039	36101.75	35210.6
939.054	2086.5857	35992.95	35103.65
939.1903	2088.1317	35930.8	35042.05
939.3267	2089.677	35838.55	34949.45
939.463	2091.2215	35707.2	34819.85
939.5992	2092.7652	35628.35	34736.6
939.7355	2094.3083	35571	34681.05
939.8717	2095.8506	35496.9	34608.3
940.0079	2097.3921	35480.25	34592.35
940.1441	2098.933	35317.55	34428.1
940.2802	2100.4731	35202.3	34313.9
940.4163	2102.0124	35150.2	34255.65
940.5524	2103.5511	35056	34167.35
940.6885	2105.089	34953.45	34063.8
940.8245	2106.6261	34900.7	34010.45
940.9606	2108.1626	34795.85	33906.95
941.0965	2109.6983	34725.9	33806.7
941.2325	2111.2332	34628.25	33737.95
941.3684	2112.7675	34522.25	33631.3
941.5044	2114.301	34401.5	33510.6
941.6403	2115.8337	34388.55	33498.55
941.7761	2117.3657	34255.35	33367.05
941.912	2118.897	34183.65	33294.6
942.0478	2120.4276	34071.9	33173.95
942.1835	2121.9575	33858.15	32968
942.3193	2123.4866	33948.2	33044.4
942.455	2125.0149	33829.5	32936.95
942.5907	2126.5426	33541.7	32652.7
942.7264	2128.0695	33487.65	32593.95
942.8621	2129.5956	33418.3	32532.5
942.9977	2131.1211	33332.5	32438.45
943.1333	2132.6458	33239.9	32350.95
943.2689	2134.1698	33196.8	32307.65
943.4044	2135.693	33077.05	32183.65
943.54	2137.2155	32979	32086.5
943.6755	2138.7373	32897.35	32007.4
943.8109	2140.2584	32803.05	31913.05
943.9464	2141.7787	32706.15	31811.9
944.0818	2143.2983	32533.15	31644.75
944.2172	2144.8171	32439.25	31552.35
944.3526	2146.3353	32370.95	31480.6
944.4879	2147.8527	32186.5	31298.25
944.6232	2149.3693	32144.8	31254.4
944.7585	2150.8853	32001.85	31111.8
944.8938	2152.4005	31851.7	30962.1
945.029	2153.9149	31854	30963.35
945.1642	2155.4287	31724.6	30836.7
945.2994	2156.9417	31697.7	30807.85
945.4346	2158.454	31574.5	30684.35
945.5697	2159.9655	31498.05	30610.2
945.7048	2161.4764	31427.15	30535.75
945.8399	2162.9865	31298	30405.65
945.9749	2164.4958	31242.6	30351.9
946.1099	2166.0045	31127.95	30236.25
946.2449	2167.5124	31093.2	30203.8
946.3799	2169.0195	31023.5	30134.35
946.5148	2170.526	30914.75	30024.55
946.6498	2172.0317	30801.95	29912.6
946.7846	2173.5367	30716.25	29826.35
946.9195	2175.0409	30626.5	29736.7
947.0543	2176.5445	30640.65	29752.25
947.1891	2178.0473	30449.8	29560.45
947.3239	2179.5494	30375.7	29483.85
947.4587	2181.0507	30256.2	29365.95
947.5934	2182.5513	30153.55	29264.65
947.7281	2184.0512	30099.3	29209
947.8628	2185.5504	30000.1	29110.85
947.9974	2187.0488	29829.1	28942.5
948.132	2188.5465	29746.75	28858.3
948.2666	2190.0435	29608.35	28718.5
948.4012	2191.5397	29494.15	28606.35
948.5357	2193.0353	29388.25	28500.45
948.6702	2194.5301	29201.5	28310.1
948.8047	2196.0241	29176.95	28286.95
948.9392	2197.5175	29087.15	28197
949.0736	2199.0101	28958.15	28066.75
949.208	2200.502	28851.1	27963.2
949.3424	2201.9931	28707.05	27819.55
949.4767	2203.4835	28613.7	27723.25
949.611	2204.9733	28593.2	27696.55
949.7453	2206.4622	28492.6	27603.15
949.8796	2207.9505	28337.75	27445.75
950.0138	2209.438	28278.8	27391.65
950.148	2210.9248	28172	27283.4
950.2822	2212.4109	28076.85	27187.15
950.4164	2213.8962	27975.6	27085.1
950.5505	2215.3809	27918.45	27027.9
950.6846	2216.8648	27892.2	27001.9
950.8186	2218.3479	27777.5	26884.7
950.9527	2219.8304	27646.7	26752
951.0867	2221.3121	27490.55	26599.65
951.2207	2222.7931	27420.15	26531.95
951.3546	2224.2733	27371.2	26481.9
951.4886	2225.7529	27264.35	26376.55
951.6225	2227.2317	27116.7	26224.75
951.7563	2228.7098	27094.7	26205.05
951.8902	2230.1872	26941.85	26053.1
952.024	2231.6638	26944	26056.3
952.1578	2233.1397	26805.25	25909.7
952.2916	2234.6149	26734	25845.8
952.4253	2236.0894	26657.2	25766.75
952.559	2237.5632	26570.4	25680.55
952.6927	2239.0362	26446.2	25558.35
952.8263	2240.5085	26402.9	25513.85
952.9599	2241.9801	26277.25	25389
953.0935	2243.4509	26207.1	25319.3
953.2271	2244.921	26093.8	25205.5
953.3606	2246.3904	25974.95	25081.35
953.4941	2247.8591	25937.95	25049.4
953.6276	2249.3271	25844.55	24956.15
953.7611	2250.7943	25757.6	24867.9
953.8945	2252.2608	25646.75	24757.3
954.0279	2253.7266	25585.9	24696.5
954.1612	2255.1917	25501.95	24612.75
954.2946	2256.656	25424.15	24532.55
954.4279	2258.1197	25323.35	24434.45
954.5612	2259.5826	25295.6	24403.55
954.6944	2261.0447	25227.85	24337.55
954.8276	2262.5062	25059.8	24167.85
954.9608	2263.9669	25082.25	24191
955.094	2265.4269	25009.7	24121.3
955.2271	2266.8862	24925.8	24038.55
955.3602	2268.3448	24863.9	23975.5
955.4933	2269.8026	24787.2	23896.8
955.6264	2271.2598	24727.75	23839.25
955.7594	2272.7162	24597.85	23709.8
955.8924	2274.1719	24564.95	23676.1
956.0253	2275.6268	24493.65	23604.5
956.1583	2277.0811	24435.05	23546.75
956.2912	2278.5346	24396.65	23509.25
956.4241	2279.9874	24279.5	23389.75
956.5569	2281.4395	24241.6	23354.5
956.6897	2282.8908	24167.1	23272.5
956.8225	2284.3414	24098.75	23207.35
956.9553	2285.7914	24022.9	23133.95
957.088	2287.2406	23934.7	23044.65
957.2207	2288.689	23869.9	22979.4
957.3534	2290.1368	23785.3	22894.55
957.486	2291.5838	23692.4	22800.15
957.6186	2293.0302	23647.2	22757.05
957.7512	2294.4758	23544.6	22655.3
957.8838	2295.9206	23393.55	22503.85
958.0163	2297.3648	23349.2	22460.4
958.1488	2298.8082	23339.15	22449.75
958.2813	2300.251	23218.05	22329.55
958.4137	2301.693	23134.7	22242.35
958.5461	2303.1343	23153.75	22264.7
958.6785	2304.5748	23073	22182.15
958.8108	2306.0147	22955.65	22066.5
958.9432	2307.4538	22927.7	22036.05
959.0754	2308.8922	22824.15	21936.7
959.2077	2310.3299	22769.6	21881.5
959.3399	2311.7669	22722.9	21833.25
959.4721	2313.2031	22608.7	21721.25
959.6043	2314.6387	22487	21597.1
959.7365	2316.0735	22466.4	21576.95
959.8686	2317.5076	22388.35	21499.6
960.0006	2318.941	22375.4	21485.5
960.1327	2320.3737	22281.6	21392
960.2647	2321.8056	22210.95	21320.5
960.3967	2323.2369	22129.8	21238.85
960.5287	2324.6674	22067.3	21176.05
960.6606	2326.0972	21955.3	21063.7
960.7925	2327.5263	21844.95	20955.25
960.9244	2328.9547	21817.6	20927.6
961.0562	2330.3823	21739.5	20849.65
961.1881	2331.8092	21730.1	20836.9
961.3198	2333.2355	21618.8	20729.55
961.4516	2334.661	21597.8	20708.5
961.5833	2336.0858	21535.05	20644.2
961.715	2337.5098	21455.1	20566.15
961.8467	2338.9332	21434.45	20542.95
961.9783	2340.3558	21358.6	20466.7
962.1099	2341.7778	21261.35	20372.85
962.2415	2343.199	21200.75	20310.7
962.373	2344.6195	21096	20207.6
962.5045	2346.0393	21058.85	20170.85
962.636	2347.4583	21041.45	20152.6
962.7675	2348.8767	20915.9	20026.15
962.8989	2350.2943	20924.45	20033.95
963.0303	2351.7113	20869.7	19979.8
963.1617	2353.1275	20776.05	19885.5
963.293	2354.543	20680.15	19781.7
963.4243	2355.9578	20655.55	19764.6
963.5556	2357.3718	20514.55	19626.1
963.6868	2358.7852	20438.85	19548.3
963.818	2360.1978	20356.9	19466.55
963.9492	2361.6098	20316.75	19428.4
964.0803	2363.021	20254	19361.9
964.2114	2364.4315	20192.15	19303.35
964.3425	2365.8413	20099.15	19210.65
964.4736	2367.2504	20028.65	19140.35
964.6046	2368.6587	19930.4	19041.8
964.7356	2370.0664	19842.4	18954.5
964.8666	2371.4733	19832.45	18942.2
964.9975	2372.8795	19757.05	18868.7
965.1284	2374.285	19707.55	18816.6
965.2593	2375.6899	19565.9	18677.55
965.3901	2377.0939	19479.4	18591.05
965.5209	2378.4973	19412.2	18526.3
965.6517	2379.9	19349.35	18460.2
965.7825	2381.3019	19289.35	18398.75
965.9132	2382.7032	19231.7	18344.45
966.0439	2384.1037	19218.9	18331.6
966.1745	2385.5035	19135.95	18247.1
966.3051	2386.9027	19046.5	18158.7
966.4357	2388.3011	18987.65	18096.4
966.5663	2389.6987	18936.85	18049.45
966.6968	2391.0957	18861.4	17974.4
966.8273	2392.492	18775.85	17888.5
966.9578	2393.8876	18670.55	17781.8
967.0882	2395.2824	18606.05	17718.3
967.2186	2396.6765	18555.3	17668.65
967.349	2398.07	18477	17589.85
967.4793	2399.4627	18473.1	17582.6
967.6097	2400.8547	18388.5	17499.25
967.7399	2402.246	18307.85	17414.75
967.8702	2403.6366	18196.6	17307.2
968.0004	2405.0265	18149.55	17262
968.1306	2406.4156	18053.95	17162.35
968.2607	2407.8041	17987.2	17094.75
968.3909	2409.1918	17898.55	17007.95
968.521	2410.5789	17842.8	16953.7
968.651	2411.9652	17768.85	16877.8
968.781	2413.3508	17741.05	16851.65
968.911	2414.7358	17629.95	16740.4
969.041	2416.12	17556.15	16668.7
969.1709	2417.5035	17536.5	16650.25
969.3008	2418.8863	17472.15	16583.2
969.4307	2420.2684	17427.4	16539.3
969.5606	2421.6497	17325.4	16437.85
969.6904	2423.0304	17239.45	16351.95
969.8201	2424.4104	17205.9	16316.45
969.9499	2425.7896	17126.1	16232.45
970.0796	2427.1682	17093.35	16203.55
970.2093	2428.546	17074.05	16183.7
970.3389	2429.9232	17001.55	16112.55
970.4685	2431.2996	16978.55	16091.55
970.5981	2432.6753	16914.6	16027.6
970.7277	2434.0503	16901.35	16011.9
970.8572	2435.4246	16776.05	15888.6
970.9867	2436.7982	16728.2	15836.35
971.1161	2438.1711	16661.9	15773.25
971.2456	2439.5433	16618.9	15729.4
971.375	2440.9148	16543.75	15649.7
971.5043	2442.2856	16473.7	15585.75
971.6336	2443.6557	16397.85	15507.45
971.7629	2445.025	16368.6	15480.55
971.8922	2446.3937	16328.1	15440.3
972.0214	2447.7617	16267.9	15379.7
972.1506	2449.1289	16217	15329.25
972.2798	2450.4955	16165.55	15274.55
972.4089	2451.8613	16144.5	15257.9
972.538	2453.2265	16092.35	15201.35
972.6671	2454.5909	16047.7	15158.15
972.7961	2455.9546	15981.95	15095.2
972.9251	2457.3177	15907.35	15018.4
973.0541	2458.68	15875.65	14986.2
973.1831	2460.0416	15826.05	14938.75
973.312	2461.4025	15808.45	14918.75
973.4408	2462.7627	15774.9	14873.7
973.5697	2464.1222	15753.35	14866.2
973.6985	2465.4811	15673.05	14782.7
973.8273	2466.8392	15594.9	14704.45
973.956	2468.1966	15532.7	14640.8
974.0847	2469.5533	15514.75	14623.95
974.2134	2470.9093	15490.1	14602.4
974.3421	2472.2645	15436.7	14546.55
974.4707	2473.6191	15378.5	14488.6
974.5993	2474.973	15285.15	14395.95
974.7278	2476.3262	15244.25	14353.7
974.8563	2477.6787	15216.75	14329.35
974.9848	2479.0305	15099.7	14212.4
975.1132	2480.3816	15091.55	14202.9
975.2417	2481.7319	15032.85	14143.9
975.37	2483.0816	14949	14058.3
975.4984	2484.4306	14926.2	14037.6
975.6267	2485.7789	14837.8	13949.5
975.755	2487.1264	14787.6	13898.1
975.8833	2488.4733	14732.85	13844.2
976.0115	2489.8195	14675.45	13779.2
976.1397	2491.165	14618.55	13725.25
976.2678	2492.5097	14584.15	13694.35
976.3959	2493.8538	14500.05	13611.85
976.524	2495.1972	14458.95	13570.9
976.6521	2496.5398	14382.45	13491.85
976.7801	2497.8818	14352.7	13460.7
976.9081	2499.2231	14282.05	13393.15
977.036	2500.5637	14225.7	13335
977.164	2501.9035	14207.2	13318.3
977.2918	2503.2427	14136.8	13246.05
977.4197	2504.5812	14102.75	13213.85
977.5475	2505.919	14081.65	13192.3
977.6753	2507.256	14023.9	13135.5
977.8031	2508.5924	13966.75	13079.45
977.9308	2509.9281	13897.6	13002.55
978.0585	2511.2631	13851.35	12964.3
978.1861	2512.5974	13846.5	12956.5
978.3137	2513.9309	13786.6	12898.15
978.4413	2515.2638	13722.95	12808.8
978.5689	2516.596	13713.5	12825.6
978.6964	2517.9275	13626.65	12737.35
978.8239	2519.2583	13599.65	12709.95
978.9513	2520.5884	13537.8	12645.95
979.0788	2521.9178	13471.75	12582.85
979.2062	2523.2465	13432.9	12543.65
979.3335	2524.5745	13374.3	12485.8
979.4608	2525.9018	13300.45	12412.25
979.5881	2527.2284	13269.45	12382
979.7154	2528.5543	13254.1	12368.55
979.8426	2529.8796	13208.9	12323.05
979.9698	2531.2041	13169.6	12282.25
980.0969	2532.5279	13134.7	12247
980.224	2533.851	13138.5	12249.35
980.3511	2535.1735	13074.35	12187.9
980.4781	2536.4952	13053.95	12167.6
980.6052	2537.8163	13013.45	12122.7
980.7321	2539.1366	12977.6	12088.65
980.8591	2540.4562	12924.35	12035.05
980.986	2541.7752	12906.85	12018.3
981.1129	2543.0935	12857.35	11969.55
981.2397	2544.411	12835.6	11947.15
981.3665	2545.7279	12814.65	11926.2
981.4933	2547.0441	12798.25	11908.45
981.62	2548.3596	12749.1	11857.4
981.7467	2549.6744	12728.2	11839.15
981.8734	2550.9885	12688	11792.3
982.0001	2552.3019	12627.65	11740.15
982.1267	2553.6146	12624.15	11734.55
982.2532	2554.9266	12585	11697.65
982.3798	2556.2379	12532.1	11641.8
982.5063	2557.5485	12511.1	11624
982.6327	2558.8585	12467.15	11571.6
982.7592	2560.1677	12445.15	11553.7
982.8856	2561.4762	12437.4	11548.25
983.0119	2562.7841	12414.2	11521.7
983.1383	2564.0913	12355.75	11468.75
983.2646	2565.3977	12343.45	11456.55
983.3908	2566.7035	12301.5	11413.9
983.517	2568.0086	12247	11357.15
983.6432	2569.313	12254.7	11365.65
983.7694	2570.6167	12180.5	11289.2
983.8955	2571.9197	12157.6	11270.65
984.0216	2573.222	12166.15	11273.3
984.1476	2574.5236	12132.95	11243.2
984.2737	2575.8246	12111.05	11220.3
984.3996	2577.1248	12069.5	11178.65
984.5256	2578.4244	12033.3	11144.65
984.6515	2579.7232	12027.55	11139.9
984.7774	2581.0214	12012.4	11098.55
984.9032	2582.3189	11947.45	11059.15
985.029	2583.6157	11922.1	11028.25
985.1548	2584.9118	11903.15	11013.35
985.2806	2586.2072	11861.8	10974.95
985.4063	2587.5019	11810.95	10923.25
985.5319	2588.7959	11785.15	10896.65
985.6576	2590.0893	11809.7	10919.85
985.7832	2591.3819	11761.95	10873.45
985.9087	2592.6739	11680.5	10791.7
986.0343	2593.9652	11686	10796.3
986.1597	2595.2557	11634	10746
986.2852	2596.5456	11559.95	10667.85
986.4106	2597.8348	11527.15	10640.75
986.536	2599.1234	11500.25	10612.7
986.6614	2600.4112	11448.25	10559.45
986.7867	2601.6983	11404.65	10513.75
986.912	2602.9848	11354.25	10466
987.0372	2604.2705	11309.3	10414.05
987.1624	2605.5556	11284.85	10397.55
987.2876	2606.84	11232.75	10343.1
987.4128	2608.1237	11225.8	10339.05
987.5379	2609.4067	11160.4	10273.4
987.6629	2610.689	11112.7	10216.2
987.788	2611.9707	11075.75	10182.35
987.913	2613.2516	11022.35	10129.35
988.0379	2614.5319	11000.2	10111.35
988.1629	2615.8115	10962.55	10072.25
988.2878	2617.0903	10900.15	10010.4
988.4126	2618.3685	10860.4	9972.7
988.5375	2619.6461	10808.65	9920.8
988.6622	2620.9229	10778.75	9890.9
988.787	2622.199	10752.35	9862.7
988.9117	2623.4745	10727.15	9838.55
989.0364	2624.7493	10707.1	9818.45
989.161	2626.0234	10651.3	9762.8
989.2857	2627.2968	10622.2	9733.95
989.4102	2628.5695	10563.25	9674.8
989.5348	2629.8415	10517.35	9630.05
989.6593	2631.1128	10455.6	9566.7
989.7837	2632.3835	10410.3	9522.2
989.9082	2633.6535	10390.55	9501
990.0326	2634.9228	10341.75	9454.4
990.1569	2636.1914	10348.55	9459.7
990.2812	2637.4593	10315.05	9422.35
990.4055	2638.7265	10246.85	9355.4
990.5298	2639.9931	10214.05	9327.65
990.654	2641.259	10196.45	9305.8
990.7782	2642.5242	10177.1	9288.5
990.9023	2643.7887	10129.1	9241.9
991.0264	2645.0525	10098.75	9209.5
991.1505	2646.3156	10046.35	9157.65
991.2745	2647.5781	10011.1	9124
991.3985	2648.8398	9994.2	9105.9
991.5225	2650.1009	10003.3	9077.85
991.6464	2651.3613	9952.95	9064
991.7703	2652.6211	9887.65	9000.15
991.8942	2653.8801	9863.95	8977.75
992.018	2655.1385	9854.6	8965.1
992.1418	2656.3961	9819.1	8932.9
992.2655	2657.6531	9793.5	8902.85
992.3892	2658.9094	9772.75	8883.1
992.5129	2660.1651	9723.6	8835.05
992.6366	2661.42	9704.45	8815.95
992.7602	2662.6743	9688.7	8800.85
992.8837	2663.9279	9651.8	8762.95
993.0073	2665.1808	9617.65	8726.9
993.1307	2666.433	9591.9	8701.15
993.2542	2667.6846	9578	8689.75
993.3776	2668.9354	9528.55	8637.8
993.501	2670.1856	9482.9	8594.05
993.6244	2671.4351	9464.7	8578.05
993.7477	2672.6839	9473.45	8585
993.8709	2673.9321	9433.4	8546.55
993.9942	2675.1795	9403.9	8515.6
994.1174	2676.4263	9389.9	8500.25
994.2405	2677.6724	9335.85	8448.8
994.3637	2678.9179	9312.05	8421.5
994.4868	2680.1626	9294.55	8405.1
994.6098	2681.4067	9255.65	8366.1
994.7328	2682.6501	9238.6	8351.6
994.8558	2683.8928	9206.5	8316.75
994.9788	2685.1348	9148.15	8261.85
995.1017	2686.3761	9119.15	8232
995.2245	2687.6168	9095.4	8206.05
995.3474	2688.8568	9059.1	8172.65
995.4702	2690.0961	9011.3	8124.15
995.5929	2691.3348	9006.45	8117.05
995.7156	2692.5727	8976.45	8087.75
995.8383	2693.81	8975.2	8087.25
995.961	2695.0466	8954.15	8066.75
996.0836	2696.2826	8908.4	8016.4
996.2062	2697.5178	8879.8	7991.15
996.3287	2698.7524	8841.4	7952.45
996.4512	2699.9863	8844.65	7954.6
996.5737	2701.2195	8790.8	7905.65
996.6961	2702.452	8742.95	7852.9
996.8185	2703.6839	8749.95	7862.7
996.9408	2704.9151	8715.4	7827.85
997.0631	2706.1456	8672.45	7783.45
997.1854	2707.3755	8646.45	7758.35
997.3077	2708.6046	8602.25	7711.7
997.4299	2709.8331	8594.8	7704.85
997.552	2711.0609	8558.4	7671.75
997.6742	2712.2881	8537.1	7647.75
997.7963	2713.5145	8527.9	7638.35
997.9183	2714.7403	8498.95	7611.7
998.0403	2715.9654	8468.3	7577.9
998.1623	2717.1899	8456.9	7556.25
998.2842	2718.4136	8419.15	7529.95
998.4062	2719.6367	8419.45	7530.05
998.528	2720.8591	8396.6	7500.25
998.6498	2722.0809	8371.55	7483.75
998.7716	2723.3019	8334.65	7443.25
998.8934	2724.5223	8305.9	7416.8
999.0151	2725.7421	8289.9	7400.15
999.1368	2726.9611	8273.95	7382.05
999.2584	2728.1795	8223.65	7330.15
999.38	2729.3972	8222.55	7333.35
999.5016	2730.6142	8162.45	7266
999.6231	2731.8306	8123.15	7234.25
999.7446	2733.0462	8054.25	7163.75
999.8661	2734.2612	8038	7145.55
999.9875	2735.4756	7982.25	7091.8
1000.1089	2736.6892	7963.6	7074.5
1000.2302	2737.9022	7922.1	7035.4
1000.3515	2739.1145	7863.1	6973.85
1000.4728	2740.3262	7827.85	6930.45
1000.594	2741.5372	7820.75	6932.8
1000.7152	2742.7475	7774.8	6887.55
1000.8363	2743.9571	7743.8	6855.05
1000.9575	2745.1661	7723.6	6831.75
1001.0785	2746.3744	7662.8	6771.55
1001.1996	2747.582	7654.75	6766.8
1001.3206	2748.7889	7610.9	6722.05
1001.4415	2749.9952	7587.3	6699.05
1001.5625	2751.2008	7552	6662.4
1001.6833	2752.4057	7535.6	6642.35
1001.8042	2753.61	7501.7	6613.8
1001.925	2754.8136	7481.7	6592
1002.0458	2756.0165	7464.8	6578.45
1002.1665	2757.2188	7413.45	6525.05
1002.2872	2758.4204	7370.75	6482.4
1002.4078	2759.6213	7372.95	6481.45
1002.5285	2760.8215	7353.6	6461.55
1002.649	2762.0211	7313.85	6423.3
1002.7696	2763.22	7290.9	6400.95
1002.8901	2764.4182	7288.6	6398.3
1003.0106	2765.6158	7254.3	6365.5
1003.131	2766.8127	7234.45	6347.5
1003.2514	2768.009	7215.05	6329
1003.3717	2769.2045	7183.75	6294.35
1003.492	2770.3994	7162.55	6271.5
1003.6123	2771.5936	7142.2	6253.8
1003.7325	2772.7872	7095.75	6208.5
1003.8527	2773.9801	7073.1	6182.6
1003.9729	2775.1723	7075.4	6169.05
1004.093	2776.3639	7021.85	6134.1
1004.2131	2777.5548	6995.7	6106.4
1004.3331	2778.745	6990.85	6100.45
1004.4531	2779.9346	6954.65	6069.2
1004.5731	2781.1235	6932.95	6044.6
1004.693	2782.3117	6918.55	6030.7
1004.8129	2783.4992	6880.6	5992.6
1004.9328	2784.6861	6861.4	5973.6
1005.0526	2785.8723	6848.55	5958.7
1005.1723	2787.0579	6834.25	5944.75
1005.2921	2788.2428	6814.45	5925.35
1005.4118	2789.427	6788.8	5901.55
1005.5314	2790.6106	6773.35	5885.15
1005.651	2791.7935	6745.3	5857.2
1005.7706	2792.9757	6746.2	5858.35
1005.8902	2794.1573	6718.85	5828.2
1006.0097	2795.3382	6703.5	5816.05
1006.1291	2796.5184	6702.95	5816.3
1006.2485	2797.698	6683.35	5792.25
1006.3679	2798.8769	6677.8	5789
1006.4873	2800.0551	6670.45	5783.6
1006.6066	2801.2327	6649.05	5758.25
1006.7258	2802.4096	6616.2	5727.15
1006.8451	2803.5859	6618.85	5729.3
1006.9642	2804.7615	6596.9	5707.95
1007.0834	2805.9364	6601.7	5714.85
1007.2025	2807.1106	6603.55	5716.8
1007.3216	2808.2842	6602.7	5713.2
1007.4406	2809.4572	6606.2	5719.1
1007.5596	2810.6294	6612.2	5723.5
1007.6785	2811.801	6638.55	5751.8
1007.7975	2812.972	6629.05	5740.75
1007.9163	2814.1423	6664.8	5779.2
1008.0352	2815.3119	6691.7	5801.5
1008.154	2816.4808	6687.6	5800.95
1008.2727	2817.6491	6703.3	5813.7
1008.3914	2818.8167	6727.4	5842.25
1008.5101	2819.9837	6758.15	5866.75
1008.6288	2821.15	6797.3	5908.3
1008.7474	2822.3157	6835.6	5949.15
1008.8659	2823.4807	6853.6	5965.05
1008.9844	2824.645	6877.65	5987.2
1009.1029	2825.8086	6900.8	6013.45
1009.2214	2826.9716	6923	6036.1
1009.3398	2828.134	6979.1	6090.65
1009.4581	2829.2957	6993.5	6106.05
1009.5764	2830.4567	6997.3	6111.15
1009.6947	2831.617	7012.85	6124.6
1009.813	2832.7767	6982.5	6094.45
1009.9312	2833.9358	6963.3	6076.8
1010.0493	2835.0941	6964.9	6074.5
1010.1675	2836.2519	6939.7	6052.6
1010.2855	2837.4089	6911.8	6022.75
1010.4036	2838.5653	6892.95	6004.6
1010.5216	2839.7211	6850.9	5963.75
1010.6396	2840.8761	6842.95	5954.2
1010.7575	2842.0306	6855.55	5968.7
1010.8754	2843.1843	6877.05	5989.7
1010.9932	2844.3374	6876.45	5989.75
1011.111	2845.4899	6918.55	6028.15
1011.2288	2846.6417	6937.6	6051.1
1011.3465	2847.7928	6992.05	6107
1011.4642	2848.9433	7019.7	6132.95
1011.5818	2850.0931	7074.95	6188.15
1011.6995	2851.2422	7134	6247
1011.817	2852.3907	7180.1	6293.75
1011.9345	2853.5385	7199.5	6310.95
1012.052	2854.6857	7237.3	6338.7
1012.1695	2855.8323	7251.4	6364.15
1012.2869	2856.9781	7267.25	6380.3
1012.4042	2858.1233	7319.05	6434.2
1012.5216	2859.2679	7327.6	6440.2
1012.6389	2860.4118	7354.35	6468
1012.7561	2861.555	7372.1	6480.9
1012.8733	2862.6976	7366.25	6476.85
1012.9905	2863.8395	7387.55	6500.45
1013.1076	2864.9808	7385.65	6497.95
1013.2247	2866.1214	7391.35	6504.35
1013.3417	2867.2614	7396	6508.2
1013.4587	2868.4007	7370.5	6482.1
1013.5757	2869.5393	7363.65	6474.5
1013.6926	2870.6773	7354	6463.1
1013.8095	2871.8146	7371.6	6481.6
1013.9263	2872.9513	7347.05	6456.35
1014.0431	2874.0874	7302.7	6415.65
1014.1599	2875.2227	7283.9	6397.35
1014.2766	2876.3574	7244.85	6356.95
1014.3933	2877.4915	7187.05	6299.05
1014.51	2878.6249	7138.1	6250.95
1014.6266	2879.7577	7147.35	6258.05
1014.7431	2880.8898	7126.4	6228.15
1014.8596	2882.0212	7070.05	6182.35
1014.9761	2883.152	7051.55	6164.5
1015.0925	2884.2821	7010.05	6124.5
1015.2089	2885.4116	6966.45	6079.85
1015.3253	2886.5405	6944.3	6058
1015.4416	2887.6686	6944.05	6053.15
1015.5579	2888.7962	6920.55	6034.3
1015.6741	2889.923	6921.95	6033.95
1015.7903	2891.0493	6913.4	6027.75
1015.9065	2892.1748	6891.05	6004.85
1016.0226	2893.2997	6876	5987.9
1016.1387	2894.424	6901.3	6014.4
1016.2547	2895.5476	6865.9	5978.75
1016.3707	2896.6706	6868.95	5983.15
1016.4866	2897.7929	6858.2	5970.2
1016.6025	2898.9145	6886.7	5995.95
1016.7184	2900.0355	6882.9	5995.1
1016.8342	2901.1559	6889.95	6002.45
1016.95	2902.2756	6904.35	6017.8
1017.0658	2903.3946	6922.1	6035.6
1017.1815	2904.513	6931.35	6042.25
1017.2971	2905.6308	6931.45	6043.9
1017.4127	2906.7479	6933.2	6045.65
1017.5283	2907.8643	6943.85	6055.55
1017.6439	2908.9801	6932.65	6044.45
1017.7594	2910.0953	6898.5	6010.25
1017.8748	2911.2098	6892.35	6002.35
1017.9902	2912.3236	6893.6	5999.25
1018.1056	2913.4368	6856.8	5965.8
1018.2209	2914.5494	6824.5	5936.5
1018.3362	2915.6613	6808.6	5916.6
1018.4515	2916.7725	6750.05	5860.85
1018.5667	2917.8831	6708.2	5820.65
1018.6819	2918.9931	6666.35	5776.35
1018.797	2920.1024	6625.4	5736.9
1018.9121	2921.211	6619.25	5729.8
1019.0271	2922.319	6573.55	5686.6
1019.1421	2923.4264	6536.3	5649
1019.2571	2924.5331	6514	5626.65
1019.372	2925.6391	6507.25	5620.45
1019.4869	2926.7445	6476	5589.8
1019.6017	2927.8493	6472.25	5584.85
1019.7165	2928.9534	6445.2	5557.65
1019.8313	2930.0569	6441.65	5551.15
1019.946	2931.1597	6419.25	5530.4
1020.0606	2932.2619	6400.5	5513.15
1020.1753	2933.3634	6382.95	5496.75
1020.2899	2934.4643	6376.6	5484.15
1020.4044	2935.5645	6361.1	5467.85
1020.5189	2936.6641	6328.05	5438.5
1020.6334	2937.763	6274.2	5387.2
1020.7478	2938.8613	6220.45	5333.95
1020.8622	2939.959	6172.35	5281.55
1020.9765	2941.056	6079.7	5193.05
1021.0908	2942.1523	6002.05	5113.75
1021.2051	2943.248	5918.4	5031.15
1021.3193	2944.3431	5832.5	4944.85
1021.4334	2945.4375	5744.4	4858.15
1021.5476	2946.5313	5629.15	4742.7
1021.6617	2947.6244	5542.4	4655.4
1021.7757	2948.7169	5433.4	4543.85
1021.8897	2949.8087	5342.25	4455
1022.0037	2950.8999	5240.6	4352
1022.1176	2951.9904	5171.95	4285.75
1022.2315	2953.0803	5100.85	4211.95
1022.3453	2954.1696	5027.3	4141.35
1022.4591	2955.2582	4968.6	4081.7
1022.5728	2956.3462	4917.25	4028.5
1022.6865	2957.4335	4854.35	3966.5
1022.8002	2958.5202	4829.15	3939.4
1022.9138	2959.6062	4779.6	3892.7
1023.0274	2960.6916	4746.4	3859.65
1023.141	2961.7764	4711.35	3822.9
1023.2545	2962.8605	4690.2	3802.1
1023.3679	2963.9439	4667.15	3782.3
1023.4813	2965.0267	4640.85	3750.75
1023.5947	2966.1089	4661.2	3749.4
1023.708	2967.1905	4597.9	3709.65
1023.8213	2968.2714	4605.9	3719.75
1023.9346	2969.3516	4590.05	3703.35
1024.0478	2970.4312	4571.15	3676.65
1024.1609	2971.5102	4546.75	3660.15
1024.274	2972.5885	4542.65	3655.6
1024.3871	2973.6662	4522.15	3632.15
1024.5002	2974.7432	4515.35	3627.9
1024.6132	2975.8196	4483.45	3595.9
1024.7261	2976.8954	4461.05	3572.65
1024.839	2977.9705	4452.6	3565.3
1024.9519	2979.045	4430.25	3543.9
1025.0647	2980.1188	4402.85	3515.05
1025.1775	2981.192	4361.05	3475.8
1025.2902	2982.2645	4345.95	3456.35
1025.4029	2983.3364	4317.15	3429.7
1025.5156	2984.4077	4283.85	3397
1025.6282	2985.4783	4252.3	3358.85
1025.7407	2986.5483	4223.8	3338.5
1025.8532	2987.6177	4172.35	3284.4
1025.9657	2988.6864	4136.1	3247.2
1026.0782	2989.7545	4104.5	3215.25
1026.1906	2990.8219	4062.8	3175.9
1026.3029	2991.8887	4019.7	3130.05
1026.4152	2992.9548	3986.25	3097.75
1026.5275	2994.0204	3943.25	3056.6
1026.6397	2995.0852	3913.45	3027.75
1026.7519	2996.1495	3886.25	2999.35
1026.864	2997.2131	3853.55	2966.85
1026.9761	2998.276	3825.55	2937.65
1027.0882	2999.3383	3807.85	2920.05
1027.2002	3000.4	3765.1	2878.75
1027.3122	3001.4611	3743.1	2857.25
1027.4241	3002.5215	3706.8	2819.45
1027.536	3003.5812	3706.6	2819.35
1027.6478	3004.6404	3680.6	2793.85
1027.7596	3005.6989	3671.05	2782.75
1027.8714	3006.7567	3629.05	2742.25
1027.9831	3007.8139	3624.3	2715.6
1028.0947	3008.8705	3598.85	2711
1028.2064	3009.9264	3594.45	2704
1028.3179	3010.9818	3576.15	2688.85
1028.4295	3012.0364	3566.65	2676.8
1028.541	3013.0905	3545.35	2657.35
1028.6524	3014.1439	3533.35	2647
1028.7638	3015.1966	3513.25	2627
1028.8752	3016.2487	3524.55	2638.3
1028.9865	3017.3002	3500.9	2610
1029.0978	3018.3511	3489.7	2603.7
1029.209	3019.4013	3481.05	2595.05
1029.3202	3020.4509	3470.95	2586.35
1029.4314	3021.4998	3457.05	2570.8
1029.5425	3022.5481	3459.7	2572.1
1029.6535	3023.5958	3436.3	2550.4
1029.7645	3024.6428	3431.3	2542.25
1029.8755	3025.6892	3424.05	2536.25
1029.9864	3026.735	3398.35	2510.5
1030.0973	3027.7802	3412.45	2527.55
1030.2082	3028.8247	3401.2	2514.45
1030.319	3029.8685	3382.6	2497.15
1030.4297	3030.9118	3364.5	2477.5
1030.5404	3031.9544	3360.4	2474.2
1030.6511	3032.9963	3348.75	2461.75
1030.7617	3034.0376	3355.7	2470.6
1030.8723	3035.0783	3348.7	2458.45
1030.9829	3036.1184	3340.8	2451
1031.0934	3037.1578	3339.05	2452.35
1031.2038	3038.1966	3326.55	2438.75
1031.3142	3039.2348	3304.8	2420.6
1031.4246	3040.2723	3314.7	2419.3
1031.5349	3041.3092	3296.35	2412.6
1031.6452	3042.3455	3276.6	2390.55
1031.7554	3043.3811	3272.9	2387.15
1031.8656	3044.4161	3262.75	2374.05
1031.9758	3045.4505	3240.5	2354.8
1032.0859	3046.4842	3232.7	2345.05
1032.1959	3047.5173	3221	2335.4
1032.3059	3048.5498	3215	2326.7
1032.4159	3049.5816	3213.65	2326.2
1032.5258	3050.6128	3198.25	2311.2
1032.6357	3051.6434	3184.4	2294.05
1032.7455	3052.6734	3176	2289.75
1032.8553	3053.7027	3172	2285.85
1032.9651	3054.7314	3145.4	2260.15
1033.0748	3055.7594	3130.5	2245.05
1033.1845	3056.7868	3123.05	2234
1033.2941	3057.8136	3111.3	2223.9
1033.4037	3058.8398	3114.7	2230.5
1033.5132	3059.8653	3089.85	2201.55
1033.6227	3060.8902	3080.45	2194.3
1033.7321	3061.9145	3055.1	2166.95
1033.8415	3062.9381	3053.75	2169.55
1033.9509	3063.9612	3064.95	2162.55
1034.0602	3064.9835	3029.3	2142.1
1034.1694	3066.0053	3025.8	2137.8
1034.2787	3067.0264	3007.2	2120.65
1034.3878	3068.0469	2987.25	2100.8
1034.497	3069.0668	2983.1	2092.75
1034.6061	3070.086	2971.3	2084.9
1034.7151	3071.1046	2967.45	2078.85
1034.8241	3072.1226	2950.2	2062.45
1034.9331	3073.1399	2922.65	2036.2
1035.042	3074.1567	2916	2030.05
1035.1508	3075.1727	2904.55	2016.4
1035.2597	3076.1882	2892.95	2006.35
1035.3684	3077.203	2875.6	1988.3
1035.4772	3078.2173	2862.8	1975.3
1035.5859	3079.2308	2852.05	1960.45
1035.6945	3080.2438	2832.65	1941.4
1035.8031	3081.2561	2811.55	1922.7
1035.9117	3082.2678	2810	1924.25
1036.0202	3083.2789	2798	1911.6
1036.1286	3084.2893	2784.05	1897.85
1036.2371	3085.2991	2764.8	1877.6
1036.3454	3086.3083	2767.8	1876.25
1036.4538	3087.3169	2752.85	1863.9
1036.562	3088.3248	2735.95	1847.75
1036.6703	3089.3321	2727.25	1839.9
1036.7785	3090.3388	2700.3	1814.45
1036.8866	3091.3449	2698.95	1813.1
1036.9948	3092.3503	2697.75	1808.75
1037.1028	3093.3551	2687.65	1803.4
1037.2108	3094.3593	2680.1	1794.7
1037.3188	3095.3629	2668.2	1782.05
1037.4267	3096.3658	2659.4	1771.95
1037.5346	3097.3681	2653.85	1767.05
1037.6425	3098.3698	2636.6	1748.4
1037.7503	3099.3708	2637.15	1743.4
1037.858	3100.3713	2612.2	1725.25
1037.9657	3101.3711	2599.1	1711.6
1038.0734	3102.3702	2709.9	1685.1
1038.181	3103.3688	2590.25	1700.05
1038.2886	3104.3667	2566.35	1680.05
1038.3961	3105.364	2565.75	1678.2
1038.5036	3106.3607	2557.45	1669.5
1038.611	3107.3568	2546.5	1658.2
1038.7184	3108.3522	2531.1	1645.3
1038.8257	3109.347	2520.75	1633.35
1038.933	3110.3412	2514	1622.95
1039.0403	3111.3348	2487.55	1600.5
1039.1475	3112.3277	2480.7	1593.15
1039.2547	3113.32	2486.95	1602.45
1039.3618	3114.3117	2480	1593.15
1039.4689	3115.3028	2466.6	1579.75
1039.5759	3116.2932	2459.75	1571.4
1039.6829	3117.2831	2459.25	1566.25
1039.7898	3118.2723	2444.35	1557.7
1039.8967	3119.2608	2428.8	1541.35
1040.0035	3120.2488	2405.6	1521.7
1040.1103	3121.2361	2400.6	1512.65
1040.2171	3122.2229	2398.3	1513.15
1040.3238	3123.209	2396.4	1508.85
1040.4305	3124.1944	2400.25	1514.05
1040.5371	3125.1793	2385.6	1497.7
1040.6437	3126.1635	2370.4	1482.45
1040.7502	3127.1471	2354.2	1469.15
1040.8567	3128.1301	2352.45	1465.5
1040.9631	3129.1125	2341.5	1456.25
1041.0695	3130.0942	2341.9	1453.95
1041.1759	3131.0753	2347.05	1449.6
1041.2822	3132.0558	2329.1	1438.95
1041.3884	3133.0357	2326.4	1438.15
1041.4946	3134.015	2312.25	1425.5
1041.6008	3134.9936	2299.45	1411.85
1041.7069	3135.9716	2310.15	1405.6
1041.813	3136.949	2291.4	1405.4
1041.919	3137.9258	2293.75	1401.9
1042.025	3138.902	2281.05	1389.4
1042.1309	3139.8775	2281.4	1395.15
1042.2368	3140.8524	2273.3	1387.2
1042.3427	3141.8267	2267.3	1379.3
1042.4485	3142.8004	2253.7	1367.35
1042.5542	3143.7735	2272.65	1379
1042.6599	3144.7459	2253.9	1366.25
1042.7656	3145.7178	2255.15	1366.7
1042.8712	3146.689	2221.85	1336
1042.9768	3147.6596	2222.2	1333.85
1043.0823	3148.6295	2218.95	1331.4
1043.1878	3149.5989	2205.65	1318.8
1043.2932	3150.5676	2191.15	1305.05
1043.3986	3151.5357	2191.75	1305.3
1043.5039	3152.5032	2179.9	1295.15
1043.6092	3153.4701	2176.5	1291.65
1043.7145	3154.4364	2178.9	1289.3
1043.8197	3155.402	2164.55	1278.7
1043.9248	3156.367	2170.45	1282.4
1044.03	3157.3315	2197.65	1265.85
1044.135	3158.2952	2161	1272.25
1044.24	3159.2584	2142.25	1258.6
1044.345	3160.221	2130.6	1243.4
1044.4499	3161.1829	2128.4	1242.25
1044.5548	3162.1442	2117.3	1230.9
1044.6596	3163.105	2118.15	1231.4
1044.7644	3164.065	2098.75	1212.95
1044.8692	3165.0245	2094.7	1205.35
1044.9739	3165.9834	2084.7	1198.6
1045.0785	3166.9416	2078.3	1192.6
1045.1831	3167.8993	2074.55	1187.9
1045.2877	3168.8563	2072.55	1186.15
1045.3922	3169.8127	2050.4	1165.85
1045.4966	3170.7684	2063.9	1178.2
1045.6011	3171.7236	2049.45	1160.9
1045.7054	3172.6782	2043.65	1158.55
1045.8098	3173.6321	2038.75	1150.75
1045.914	3174.5854	2035.55	1145.05
1046.0183	3175.5381	2013.65	1125.4
1046.1224	3176.4902	2012.3	1125.35
1046.2266	3177.4417	2010.35	1124.05
1046.3307	3178.3926	2007.7	1121.75
1046.4347	3179.3428	1990.95	1104.85
1046.5387	3180.2924	1991.55	1107.1
1046.6427	3181.2415	1984.7	1099
1046.7466	3182.1899	1982.35	1093.15
1046.8504	3183.1377	1971.15	1084.45
1046.9542	3184.0848	1974.95	1085.15
1047.058	3185.0314	1966.3	1080.1
1047.1617	3185.9773	1961.2	1073
1047.2654	3186.9227	1956.3	1069.8
1047.369	3187.8674	1954.05	1066.65
1047.4726	3188.8115	1944	1055.35
1047.5761	3189.755	1935.85	1048.65
1047.6796	3190.6979	1923.95	1038.1
1047.783	3191.6402	1925.2	1039.15
1047.8864	3192.5818	1920.7	1033.85
1047.9898	3193.5229	1935.8	1026
1048.0931	3194.4633	1910.45	1023.75
1048.1963	3195.4031	1892.7	1006.75
1048.2995	3196.3423	1897.25	1011.35
1048.4027	3197.2809	1897.7	1012.4
1048.5058	3198.2189	1895.6	1008.2
1048.6089	3199.1563	1889.1	996.8
1048.7119	3200.0931	1871.15	984.5
1048.8148	3201.0292	1862.5	975.05
1048.9178	3201.9648	1872.25	984.75
1049.0206	3202.8997	1869.5	979.45
1049.1235	3203.834	1856.8	968.9
1049.2262	3204.7677	1852.6	966.8
1049.329	3205.7008	1843.3	954.6
1049.4317	3206.6333	1849.7	963.55
1049.5343	3207.5652	1840.35	951.25
1049.6369	3208.4964	1835	948.9
1049.7394	3209.4271	1839.9	952.65
1049.8419	3210.3571	1821.85	933.9
1049.9444	3211.2865	1814.55	926.25
1050.0468	3212.2154	1808.55	921.6
1050.1491	3213.1436	1811.7	922.55
1050.2514	3214.0712	1815.35	924.05
1050.3537	3214.9982	1802.35	916.7
1050.4559	3215.9246	1795.65	907.95
1050.5581	3216.8503	1784.55	899.35
1050.6602	3217.7755	1792.9	903.6
1050.7623	3218.7001	1789.35	903.05
1050.8643	3219.624	1785.75	899.25
1050.9663	3220.5473	1771.85	883.75
1051.0682	3221.4701	1773.15	884.8
1051.1701	3222.3922	1767.3	880.8
1051.2719	3223.3137	1766.15	881.2
1051.3737	3224.2346	1754.5	867.8
1051.4754	3225.1549	1758.15	872.55
1051.5771	3226.0746	1742.35	855
1051.6788	3226.9937	1734.8	849.15
1051.7804	3227.9121	1739.3	853.55
1051.8819	3228.83	1731.7	844.8
1051.9834	3229.7473	1726.85	839
1052.0849	3230.6639	1732.75	847.6
1052.1863	3231.5799	1713.9	826.8
1052.2876	3232.4954	1715.1	826.65
1052.3889	3233.4102	1694.85	808.25
1052.4902	3234.3244	1692	806
1052.5914	3235.238	1702.8	818.2
1052.6926	3236.151	1711.85	803.65
1052.7937	3237.0634	1688.9	802.6
1052.8948	3237.9752	1678	792.7
1052.9958	3238.8864	1679.75	792.35
1053.0968	3239.797	1685.65	798.3
1053.1977	3240.7069	1671.5	784.2
1053.2986	3241.6163	1659	769.95
1053.3994	3242.5251	1663	775.25
1053.5002	3243.4332	1650	764.6
1053.6009	3244.3408	1647.35	760.15
1053.7016	3245.2477	1646.5	759.25
1053.8022	3246.154	1645.75	755.9
1053.9028	3247.0598	1649	763.35
1054.0034	3247.9649	1626	739.8
1054.1039	3248.8694	1627.2	742.4
1054.2043	3249.7733	1624.5	737.95
1054.3047	3250.6766	1614.85	728.05
1054.4051	3251.5793	1613.55	727.6
1054.5054	3252.4814	1606.25	719.75
1054.6056	3253.3829	1605.65	719.55
1054.7058	3254.2838	1602.9	716.9
1054.806	3255.1841	1595	709.45
1054.9061	3256.0838	1599.65	713.15
1055.0061	3256.9829	1585.5	699.85
1055.1062	3257.8814	1575.95	686.3
1055.2061	3258.7792	1570.45	682.85
1055.306	3259.6765	1568.55	681.2
1055.4059	3260.5731	1559.15	673.5
1055.5057	3261.4692	1556.55	669.7
1055.6055	3262.3647	1544.6	658.7
1055.7052	3263.2595	1541.5	654.45
1055.8049	3264.1538	1518.85	633.85
1055.9045	3265.0474	1519.1	632.05
1056.0041	3265.9404	1504.05	617.1
1056.1036	3266.8329	1497.55	614
1056.2031	3267.7247	1497.3	603.15
1056.3025	3268.616	1471.3	586.3
1056.4019	3269.5066	1459.55	572.7
1056.5013	3270.3966	1434.8	545.15
1056.6005	3271.286	1420.75	536.75
