Software Version:	3.9.2.0
Unit SN:	10000200
Spectrometer SN:	6960
Date:	3/6/2024 10:29:01 AM
Data Line Index:	25
Spectral Points:	2048
Integration time (ms):	125
Averages:	20
Delay (ms):	30
Sequence Number:	1
Processing:	dark subtract
Laser Power (mW):	305
Laser Current (mA):	824
Laser Diode Temp (C):	25
Laser Case Temp (C):	26.1
System Temp (C):	25.9
Spectrometer Temp (C):	23.3
CCD Temp (C):	-0.006
Secondary Temp (C):	20.007
Heatsink Temp (C):	21.474
CCDPCB Temp (C):	36.151
SecondaryPCB Temp (C):	29.026

Wavelength	RamanShift	Raw Counts	Dark Subtracted
787.061	30.1047	1109.65	698.6
787.2016	32.3739	1133.4	722.95
787.3422	34.6426	1175.65	764.25
787.4828	36.9109	1227.6	813.5
787.6235	39.1787	1285	866.2
787.7642	41.4461	1337.65	916.2
787.9049	43.7131	1394.85	968.5
788.0456	45.9796	1457.55	1031.55
788.1863	48.2456	1527.75	1095.85
788.3271	50.5112	1596.6	1162.35
788.4679	52.7764	1663.95	1224.6
788.6087	55.0411	1728.15	1285.55
788.7496	57.3054	1812.05	1361.9
788.8904	59.5692	1908.25	1459.1
789.0313	61.8326	1992.2	1539.8
789.1722	64.0955	2091.45	1634.95
789.3132	66.3579	2214.2	1752.15
789.4541	68.6199	2366.15	1902.25
789.5951	70.8815	2604.75	2136.6
789.7361	73.1426	3121.35	2649.25
789.8771	75.4032	4458	3979.55
790.0181	77.6634	7844.45	7363.5
790.1592	79.9231	16732.95	16244.85
790.3003	82.1824	53467.05	52968.55
790.4414	84.4412	65535	65012.1
790.5825	86.6995	65535	64985.5
790.7237	88.9574	65535	64958.05
790.8648	91.2148	65535	64939.75
791.006	93.4717	65535	64928.75
791.1472	95.7282	65535	64923.6
791.2885	97.9842	65535	64918.3
791.4297	100.2398	65535	64915.45
791.571	102.4949	65535	64912.15
791.7123	104.7495	65535	64911.9
791.8536	107.0036	65535	64911.55
791.9949	109.2573	65535	64907.25
792.1363	111.5105	65535	64908.55
792.2777	113.7632	65535	64904.4
792.4191	116.0154	65535	64897.85
792.5605	118.2672	65535	64900.75
792.7019	120.5185	65535	64899.55
792.8434	122.7693	65535	64899.65
792.9849	125.0197	65535	64895.9
793.1264	127.2696	65535	64890.85
793.2679	129.519	65535	64887.35
793.4094	131.7679	65535	64883.6
793.551	134.0163	65535	64881.45
793.6926	136.2642	65535	64876.5
793.8342	138.5117	65535	64869.3
793.9758	140.7587	65535	64873.7
794.1175	143.0052	65535	64871.95
794.2591	145.2512	65535	64874.1
794.4008	147.4967	65535	64872.35
794.5425	149.7417	65535	64864.55
794.6842	151.9863	65535	64865.25
794.826	154.2304	65535	64857.5
794.9677	156.4739	65535	64850.5
795.1095	158.717	65535	64856.9
795.2513	160.9596	65535	64848.85
795.3931	163.2017	65535	64852.15
795.535	165.4433	65535	64847.6
795.6768	167.6844	65535	64846.65
795.8187	169.925	65535	64841.75
795.9606	172.1651	65535	64839.6
796.1025	174.4047	65535	64835
796.2445	176.6439	65535	64836.35
796.3864	178.8825	65535	64833.95
796.5284	181.1206	65535	64828.55
796.6704	183.3582	65535	64826.65
796.8124	185.5954	65535	64821
796.9544	187.832	65535	64820.5
797.0965	190.0681	65535	64815.75
797.2386	192.3037	65535	64812.8
797.3806	194.5388	65535	64811.15
797.5228	196.7734	65535	64808.9
797.6649	199.0075	65535	64803.35
797.807	201.2411	65535	64803.35
797.9492	203.4742	65535	64805.95
798.0914	205.7068	65535	64800.2
798.2336	207.9389	65535	64797.25
798.3758	210.1704	65535	64796.5
798.518	212.4015	65535	64801.1
798.6603	214.632	65535	64815.2
798.8025	216.862	65535	64816.8
798.9448	219.0915	65535	64816.2
799.0871	221.3205	65535	64816.7
799.2294	223.549	65535	64820.5
799.3718	225.777	65535	64822.2
799.5141	228.0044	65535	64816.85
799.6565	230.2314	65535	64819.2
799.7989	232.4578	65535	64811.2
799.9413	234.6837	65535	64803.1
800.0837	236.909	65535	64798.9
800.2262	239.1339	65535	64776.7
800.3687	241.3582	65535	64789.95
800.5111	243.582	65535	64756.7
800.6536	245.8053	65535	64773.95
800.7961	248.0281	65535	64780.4
800.9387	250.2503	65535	64777.1
801.0812	252.472	65535	64767.55
801.2238	254.6932	65535	64770.15
801.3664	256.9139	65535	64771.35
801.509	259.134	65535	64766.55
801.6516	261.3536	65535	64764.4
801.7942	263.5727	65535	64764.35
801.9369	265.7912	65535	64769.75
802.0795	268.0092	65535	64765.8
802.2222	270.2267	65535	64766.45
802.3649	272.4436	65535	64763.6
802.5076	274.6601	65535	64757.3
802.6504	276.8759	65535	64759.45
802.7931	279.0913	65535	64758.55
802.9359	281.3061	65535	64751.95
803.0787	283.5204	65535	64758
803.2215	285.7341	65535	64745.6
803.3643	287.9473	65535	64739.95
803.5071	290.16	65535	64741.8
803.6499	292.3721	65535	64750.65
803.7928	294.5837	65535	64749.15
803.9357	296.7947	65535	64751.65
804.0786	299.0052	65535	64748.9
804.2215	301.2152	65535	64751.45
804.3644	303.4246	65535	64754.15
804.5074	305.6334	65535	64753
804.6503	307.8418	65535	64745.1
804.7933	310.0495	65535	64743.35
804.9363	312.2568	65535	64747.45
805.0793	314.4635	65535	64740.55
805.2223	316.6696	65535	64741.1
805.3653	318.8752	65535	64735.35
805.5084	321.0802	65535	64742
805.6514	323.2847	65535	64741.5
805.7945	325.4887	65535	64737.4
805.9376	327.692	65535	64733.3
806.0807	329.8949	65535	64734.15
806.2238	332.0972	65535	64734.15
806.367	334.2989	65535	64727.65
806.5101	336.5001	65535	64729.05
806.6533	338.7007	65535	64730.3
806.7965	340.9008	65535	64727
806.9397	343.1003	65535	64725.6
807.0829	345.2992	65535	64724.2
807.2261	347.4976	65535	64724
807.3693	349.6955	65535	64721.85
807.5126	351.8927	65535	64717.4
807.6559	354.0895	65535	64712.35
807.7991	356.2856	65535	64718.3
807.9424	358.4812	65535	64724.4
808.0857	360.6763	65535	64717.05
808.2291	362.8707	65535	64716.85
808.3724	365.0646	65535	64712.1
808.5158	367.258	65535	64710.55
808.6591	369.4508	65535	64705.3
808.8025	371.643	65535	64709
808.9459	373.8346	65535	64706
809.0893	376.0257	65535	64701.2
809.2327	378.2162	65535	64701.3
809.3762	380.4062	65535	64701.5
809.5196	382.5956	65535	64701.75
809.6631	384.7844	65535	64702.95
809.8066	386.9726	65535	64707.65
809.9501	389.1603	65535	64708.55
810.0936	391.3474	65535	64667.65
810.2371	393.5339	65535	64707.5
810.3806	395.7199	65535	64712.55
810.5241	397.9052	65535	64710.95
810.6677	400.09	65535	64711.95
810.8113	402.2743	65535	64713.8
810.9548	404.4579	65535	64712.4
811.0984	406.641	65535	64709.85
811.2421	408.8235	65535	64704.35
811.3857	411.0054	65535	64705.3
811.5293	413.1868	65535	64701.7
811.673	415.3675	65535	64701.9
811.8166	417.5477	65535	64697.9
811.9603	419.7273	65535	64699.15
812.104	421.9064	65535	64686.8
812.2477	424.0848	65535	64694.4
812.3914	426.2627	65535	64690.8
812.5351	428.4399	65535	64693.5
812.6788	430.6166	65535	64690.1
812.8226	432.7928	65535	64688.75
812.9663	434.9683	65535	64688.4
813.1101	437.1432	65535	64687.05
813.2539	439.3176	65535	64688.9
813.3977	441.4914	65535	64688.7
813.5415	443.6645	65535	64686.25
813.6853	445.8371	65535	64686.95
813.8291	448.0091	65535	64685.65
813.973	450.1806	65535	64687
814.1168	452.3514	65535	64685.75
814.2607	454.5216	65535	64679.1
814.4046	456.6913	65535	64682.85
814.5485	458.8603	65535	64683
814.6924	461.0288	65535	64682.6
814.8363	463.1967	65535	64684.65
814.9802	465.3639	65535	64685.9
815.1241	467.5306	65535	64678.2
815.2681	469.6967	65535	64686.15
815.412	471.8622	65535	64685.55
815.556	474.0271	65535	64682.3
815.7	476.1914	65535	64680.6
815.844	478.3551	65535	64684.1
815.988	480.5182	65535	64680.75
816.132	482.6807	65535	64682.6
816.276	484.8426	65535	64684.75
816.4201	487.0039	65535	64683.4
816.5641	489.1647	65535	64678.7
816.7082	491.3248	65535	64679.3
816.8522	493.4843	65535	64677.3
816.9963	495.6432	65535	64678.9
817.1404	497.8015	65535	64674.6
817.2845	499.9592	65535	64675.65
817.4286	502.1163	65535	64675.85
817.5727	504.2728	65535	64676.35
817.7168	506.4287	65535	64679.3
817.861	508.5839	65535	64674.05
818.0051	510.7386	65535	64675.2
818.1493	512.8927	65535	64671.15
818.2935	515.0461	65535	64672.35
818.4377	517.199	65535	64672.75
818.5818	519.3512	65535	64669.5
818.726	521.5029	65535	64667.95
818.8703	523.6539	65535	64668.8
819.0145	525.8043	65535	64670.3
819.1587	527.9541	65535	64666.1
819.303	530.1033	65535	64667.4
819.4472	532.2519	65535	64669.4
819.5915	534.3999	65535	64666.7
819.7357	536.5472	65535	64667.95
819.88	538.694	65535	64669.8
820.0243	540.8401	65535	64667.4
820.1686	542.9856	65535	64663.1
820.3129	545.1305	65535	64663.05
820.4572	547.2748	65535	64662.55
820.6016	549.4185	65535	64660
820.7459	551.5615	65535	64658.3
820.8902	553.704	65535	64664.95
821.0346	555.8458	65535	64662.5
821.1789	557.987	65535	64661.45
821.3233	560.1276	65535	64662.8
821.4677	562.2675	65535	64661.9
821.6121	564.4069	65535	64660.6
821.7565	566.5456	65535	64663.4
821.9009	568.6837	65535	64665.15
822.0453	570.8212	65535	64662.25
822.1897	572.958	65535	64659.95
822.3342	575.0942	65535	64662.9
822.4786	577.2299	65535	64661.05
822.6231	579.3648	65535	64664.15
822.7675	581.4992	65535	64663.85
822.912	583.6329	65535	64665
823.0565	585.766	65535	64666.3
823.201	587.8985	65535	64665.05
823.3454	590.0304	65535	64635.1
823.4899	592.1616	65535	64658.65
823.6345	594.2922	65535	64660.6
823.779	596.4222	65535	64656.4
823.9235	598.5515	65535	64658.15
824.068	600.6802	65535	64658.9
824.2126	602.8083	65535	64657.95
824.3571	604.9358	65535	64653.6
824.5017	607.0626	65535	64658.35
824.6462	609.1888	65535	64653.2
824.7908	611.3144	65535	64657.25
824.9354	613.4393	65535	64652.25
825.08	615.5636	65535	64654.6
825.2246	617.6873	65535	64653.55
825.3692	619.8103	65535	64652.75
825.5138	621.9327	65535	64650.65
825.6584	624.0544	65535	64653.55
825.803	626.1756	65535	64653.45
825.9477	628.2961	65535	64651.7
826.0923	630.4159	65535	64650.85
826.237	632.5351	65535	64650.45
826.3816	634.6537	65535	64649.65
826.5263	636.7716	65535	64648.15
826.6709	638.8889	65535	64646.95
826.8156	641.0056	65535	64651
826.9603	643.1216	65535	64647.8
827.105	645.237	65535	64647.95
827.2497	647.3518	65535	64649.4
827.3944	649.4659	65535	64652.8
827.5391	651.5793	65535	64650.05
827.6838	653.6922	65535	64652.85
827.8285	655.8043	65535	64649.95
827.9733	657.9159	65535	64650.2
828.118	660.0268	65535	64647.3
828.2627	662.137	65535	64645.9
828.4075	664.2466	65535	64648.55
828.5522	666.3556	65535	64647.45
828.697	668.4639	65535	64643.05
828.8418	670.5716	65535	64649.65
828.9865	672.6786	65535	64646.8
829.1313	674.785	65535	64643.05
829.2761	676.8907	65535	64645.1
829.4209	678.9958	65535	64649.05
829.5657	681.1002	65535	64643.85
829.7105	683.204	65535	64639.55
829.8553	685.3072	65535	64643.7
830.0001	687.4097	65535	64646.5
830.1449	689.5115	65535	64643.1
830.2898	691.6127	65535	64645.15
830.4346	693.7132	65535	64647.55
830.5794	695.8131	65535	64635.25
830.7243	697.9123	65535	64643.1
830.8691	700.0109	65535	64641.2
831.014	702.1089	65535	64641
831.1588	704.2061	65535	64643
831.3037	706.3028	65535	64639.85
831.4486	708.3987	65535	64641.85
831.5935	710.4941	65535	64639.35
831.7383	712.5887	65535	64639.2
831.8832	714.6827	65535	64640.4
832.0281	716.7761	65535	64639.95
832.173	718.8688	65535	64641.9
832.3179	720.9608	65535	64637.9
832.4628	723.0522	65535	64637.4
832.6077	725.1429	65535	64638.85
832.7527	727.233	65535	64637.65
832.8976	729.3224	65535	64640.5
833.0425	731.4112	65535	64637.7
833.1874	733.4993	65535	64636.2
833.3324	735.5867	65535	64639.15
833.4773	737.6735	65535	64637.05
833.6222	739.7596	65535	64635.3
833.7672	741.845	65535	64640.1
833.9122	743.9298	65535	64638.6
834.0571	746.014	65535	64641.75
834.2021	748.0974	65535	64638.35
834.347	750.1802	65535	64635.8
834.492	752.2624	65535	64636.35
834.637	754.3439	65535	64637.2
834.782	756.4247	65535	64630.4
834.9269	758.5048	65535	64638.15
835.0719	760.5843	65535	64636.55
835.2169	762.6631	65535	64635.85
835.3619	764.7413	65535	64636.8
835.5069	766.8188	65535	64636.4
835.6519	768.8956	65535	64635.1
835.7969	770.9718	65535	64637.95
835.9419	773.0473	65535	64636.05
836.0869	775.1221	65535	64638.35
836.232	777.1962	65535	64638.05
836.377	779.2697	65535	64633.35
836.522	781.3426	65535	64615.8
836.667	783.4147	65535	64633.25
836.8121	785.4862	65535	64637
836.9571	787.557	65535	64636.65
837.1021	789.6271	65535	64635.7
837.2472	791.6966	65535	64635.95
837.3922	793.7654	65535	64636.65
837.5373	795.8335	65535	64636.3
837.6823	797.901	65535	64636.75
837.8274	799.9678	65535	64634.25
837.9724	802.0339	65535	64633.9
838.1175	804.0993	65535	64625
838.2626	806.1641	65535	64634.45
838.4076	808.2282	65535	64636.95
838.5527	810.2916	65535	64633.2
838.6978	812.3544	65535	64638.95
838.8428	814.4164	65535	64636.85
838.9879	816.4778	65535	64634
839.133	818.5385	65535	64632.8
839.2781	820.5986	65535	64633.55
839.4232	822.658	65535	64633.85
839.5682	824.7166	65535	64633.6
839.7133	826.7747	65535	64637.25
839.8584	828.832	65535	64633.35
840.0035	830.8886	65535	64631.1
840.1486	832.9446	65535	64628.65
840.2937	834.9999	65535	64636.4
840.4388	837.0545	65535	64628.7
840.5839	839.1085	65535	64635.9
840.729	841.1618	65535	64628.6
840.8741	843.2143	65535	64632.65
841.0192	845.2662	65535	64633.75
841.1643	847.3175	65535	64635.6
841.3095	849.368	65535	64634.05
841.4546	851.4179	65535	64632.5
841.5997	853.467	65535	64634.2
841.7448	855.5155	65535	64630.65
841.8899	857.5633	65535	64631.65
842.0351	859.6105	65535	64633.7
842.1802	861.6569	65535	64630.95
842.3253	863.7027	65535	64631.6
842.4704	865.7478	65535	64634.05
842.6156	867.7922	65535	64635.2
842.7607	869.8359	65535	64630
842.9058	871.8789	65535	64630.65
843.0509	873.9212	65535	64597.55
843.1961	875.9629	65535	64630.85
843.3412	878.0039	65535	64631.45
843.4863	880.0441	65535	64632.6
843.6315	882.0837	65535	64632.35
843.7766	884.1226	65535	64631
843.9218	886.1609	65535	64632.85
844.0669	888.1984	65535	64632.3
844.212	890.2352	65535	64632.85
844.3572	892.2714	65535	64629.55
844.5023	894.3069	65535	64630.8
844.6475	896.3416	65535	64631.1
844.7926	898.3757	65535	64630.85
844.9377	900.4091	65535	64631.1
845.0829	902.4418	65535	64628.2
845.228	904.4739	65535	64627.7
845.3732	906.5052	65535	64628.4
845.5183	908.5358	65535	64628.9
845.6635	910.5658	65535	64628.45
845.8086	912.595	65535	64628.7
845.9538	914.6236	65535	64629.9
846.0989	916.6515	65535	64632.6
846.2441	918.6786	65535	64629.15
846.3892	920.7051	65535	64628.75
846.5344	922.7309	65535	64630.1
846.6795	924.756	65535	64630.45
846.8246	926.7804	65535	64628.4
846.9698	928.8041	65535	64627.1
847.1149	930.8272	65535	64630.5
847.2601	932.8495	65535	64627
847.4052	934.8711	65535	64627.2
847.5504	936.892	65535	64629.75
847.6955	938.9123	65535	64627.35
847.8407	940.9318	65535	64627.35
847.9858	942.9506	65535	64629.45
848.131	944.9688	65535	64630
848.2761	946.9862	65535	64630.75
848.4213	949.003	65535	64631.8
848.5664	951.019	65535	64630.5
848.7115	953.0344	65535	64629.25
848.8567	955.0491	65535	64629.75
849.0018	957.063	65535	64629.6
849.147	959.0763	65535	64628.05
849.2921	961.0888	65535	64627.65
849.4373	963.1007	65535	64632.4
849.5824	965.1119	65535	64631.75
849.7275	967.1223	65535	64630.1
849.8727	969.1321	65535	64630.85
850.0178	971.1412	65535	64631.7
850.1629	973.1495	65535	64631.9
850.3081	975.1572	65535	64600.2
850.4532	977.1641	65535	64628.25
850.5983	979.1704	65535	64629.15
850.7435	981.1759	65535	64624.5
850.8886	983.1808	65535	64629.15
851.0337	985.1849	65535	64617.55
851.1788	987.1884	65535	64626.7
851.324	989.1911	65535	64625.55
851.4691	991.1932	65535	64627.75
851.6142	993.1945	65535	64630.95
851.7593	995.1951	65535	64626.8
851.9045	997.1951	65535	64623.35
852.0496	999.1943	65535	64629.55
852.1947	1001.1928	65535	64625.95
852.3398	1003.1906	65535	64628.9
852.4849	1005.1877	65535	64626.85
852.63	1007.1841	65535	64630.6
852.7751	1009.1798	65535	64630.2
852.9202	1011.1748	65535	64630.45
853.0653	1013.1691	65535	64630.7
853.2104	1015.1627	65535	64629.25
853.3555	1017.1556	65535	64630.6
853.5006	1019.1477	65535	64628.55
853.6457	1021.1392	65535	64633.55
853.7908	1023.1299	65535	64633.65
853.9359	1025.12	65535	64625.75
854.081	1027.1093	65535	64635
854.2261	1029.0979	65535	64635.7
854.3712	1031.0859	65535	64634.5
854.5163	1033.0731	65535	64632.4
854.6613	1035.0596	65535	64632.25
854.8064	1037.0454	65535	64630.9
854.9515	1039.0304	65535	64628.25
855.0965	1041.0148	65535	64632.35
855.2416	1042.9985	65535	64626.25
855.3867	1044.9814	65535	64625.35
855.5317	1046.9636	65535	64629
855.6768	1048.9452	65535	64631.65
855.8219	1050.926	65535	64629.8
855.9669	1052.9061	65535	64630.4
856.112	1054.8855	65535	64628.25
856.257	1056.8642	65535	64626.45
856.4021	1058.8421	65535	64626.05
856.5471	1060.8194	65535	64627.2
856.6921	1062.7959	65535	64631.7
856.8372	1064.7717	65535	64629.9
856.9822	1066.7469	65535	64628
857.1272	1068.7213	65535	64627.95
857.2723	1070.695	65535	64628.55
857.4173	1072.6679	65535	64627.85
857.5623	1074.6402	65535	64632.2
857.7073	1076.6117	65535	64625.1
857.8523	1078.5826	65535	64627.95
857.9973	1080.5527	65535	64624.8
858.1423	1082.5221	65535	64630.3
858.2873	1084.4908	65535	64629.6
858.4323	1086.4587	65535	64627.3
858.5773	1088.426	65535	64630.3
858.7223	1090.3925	65535	64623.9
858.8673	1092.3584	65535	64630.95
859.0123	1094.3235	65535	64630.9
859.1573	1096.2879	65535	64630.8
859.3022	1098.2515	65535	64630.4
859.4472	1100.2145	65535	64629
859.5922	1102.1767	65535	64627.2
859.7371	1104.1382	65535	64628.2
859.8821	1106.099	65535	64625.25
860.027	1108.0591	65535	64630.9
860.172	1110.0185	65535	64629.4
860.3169	1111.9771	65535	64630.7
860.4619	1113.9351	65535	64630.6
860.6068	1115.8923	65535	64626.6
860.7517	1117.8488	65535	64626
860.8967	1119.8045	65535	64629.1
861.0416	1121.7596	65535	64627
861.1865	1123.7139	65535	64631.75
861.3314	1125.6675	65535	64628.55
861.4763	1127.6204	65535	64632.1
861.6212	1129.5726	65535	64627.5
861.7661	1131.524	65535	64629.05
861.911	1133.4748	65535	64631.45
862.0559	1135.4248	65535	64628.2
862.2008	1137.3741	65535	64632.15
862.3457	1139.3226	65535	64627.5
862.4905	1141.2705	65535	64630.35
862.6354	1143.2176	65535	64624.2
862.7803	1145.164	65535	64626.5
862.9251	1147.1097	65535	64627.7
863.07	1149.0546	65535	64629.2
863.2148	1150.9989	65535	64630.05
863.3597	1152.9424	65535	64629.2
863.5045	1154.8852	65535	64629.65
863.6493	1156.8272	65535	64629.7
863.7942	1158.7686	65535	64623.2
863.939	1160.7092	65535	64626.85
864.0838	1162.6491	65535	64628.8
864.2286	1164.5883	65535	64628.3
864.3734	1166.5267	65535	64628.9
864.5182	1168.4644	65535	64632.3
864.663	1170.4014	65535	64625.85
864.8078	1172.3377	65535	64632.8
864.9526	1174.2732	65535	64630.65
865.0974	1176.2081	65535	64627.85
865.2421	1178.1421	65535	64626
865.3869	1180.0755	65535	64630.85
865.5317	1182.0082	65535	64627.15
865.6764	1183.9401	65535	64629.5
865.8212	1185.8713	65535	64630.55
865.9659	1187.8017	65535	64632
866.1106	1189.7315	65535	64633.45
866.2554	1191.6605	65535	64605
866.4001	1193.5888	65535	64632.5
866.5448	1195.5163	65535	64631.7
866.6895	1197.4432	65535	64629.25
866.8342	1199.3693	65535	64629.6
866.9789	1201.2947	65535	64629.75
867.1236	1203.2193	65535	64630.4
867.2683	1205.1432	65535	64629.95
867.413	1207.0664	65535	64633.4
867.5576	1208.9889	65535	64630.05
867.7023	1210.9106	65535	64630.65
867.847	1212.8316	65535	64631.45
867.9916	1214.7519	65535	64621.7
868.1363	1216.6715	65535	64630.6
868.2809	1218.5903	65535	64630.5
868.4255	1220.5084	65535	64633.7
868.5701	1222.4257	65535	64631.2
868.7148	1224.3424	65535	64631.35
868.8594	1226.2583	65535	64625.35
869.004	1228.1735	65535	64627.95
869.1486	1230.0879	65535	64630.35
869.2932	1232.0016	65535	64632.45
869.4377	1233.9146	65535	64630.65
869.5823	1235.8269	65535	64630.65
869.7269	1237.7384	65535	64633.1
869.8715	1239.6492	65535	64633.1
870.016	1241.5592	65535	64629.65
870.1606	1243.4686	65535	64631.7
870.3051	1245.3772	65535	64629.6
870.4496	1247.285	65535	64627.6
870.5941	1249.1922	65535	64631.1
870.7387	1251.0986	65535	64633.25
870.8832	1253.0042	65535	64631.6
871.0277	1254.9092	65535	64630.6
871.1722	1256.8134	65535	64633.1
871.3167	1258.7169	65535	64632.65
871.4611	1260.6196	65535	64630.4
871.6056	1262.5216	65535	64630.6
871.7501	1264.4229	65535	64632.7
871.8945	1266.3234	65535	64632.1
872.039	1268.2232	65535	64628.7
872.1834	1270.1223	65535	64629.15
872.3278	1272.0207	65535	64630.75
872.4723	1273.9183	65535	64624.55
872.6167	1275.8151	65535	64630.3
872.7611	1277.7113	65535	64632.05
872.9055	1279.6067	65535	64629.6
873.0499	1281.5014	65535	64625.7
873.1943	1283.3953	65535	64628.65
873.3386	1285.2885	65535	64633.1
873.483	1287.181	65535	64629.35
873.6274	1289.0727	65535	64630.6
873.7717	1290.9637	65535	64629.55
873.9161	1292.854	65535	64632.55
874.0604	1294.7435	65535	64631.35
874.2047	1296.6323	65535	64631.8
874.349	1298.5204	65535	64628.4
874.4933	1300.4077	65535	64628.05
874.6376	1302.2943	65535	64631.85
874.7819	1304.1802	65535	64631.3
874.9262	1306.0653	65535	64629.2
875.0705	1307.9497	65535	64634.15
875.2147	1309.8333	65535	64631.6
875.359	1311.7162	65535	64630.95
875.5032	1313.5984	65535	64627.9
875.6475	1315.4798	65535	64629.75
875.7917	1317.3605	65535	64614.95
875.9359	1319.2405	65535	64630.65
876.0801	1321.1197	65535	64628.95
876.2243	1322.9982	65535	64626.7
876.3685	1324.876	65535	64632.7
876.5127	1326.753	65535	64631.2
876.6569	1328.6293	65535	64631.1
876.801	1330.5048	65535	64628.45
876.9452	1332.3796	65535	64631.55
877.0893	1334.2537	65535	64606.3
877.2335	1336.127	65535	64632.65
877.3776	1337.9996	65535	64630.7
877.5217	1339.8714	65535	64627.25
877.6658	1341.7426	65535	64588.4
877.8099	1343.6129	65535	64630
877.954	1345.4826	65535	64630.45
878.0981	1347.3515	65535	64627.95
878.2422	1349.2196	65535	64630.2
878.3862	1351.087	65535	64630.35
878.5303	1352.9537	65535	64629.3
878.6743	1354.8197	65535	64632.15
878.8184	1356.6849	65535	64630.1
878.9624	1358.5493	65535	64631.1
879.1064	1360.4131	65535	64630
879.2504	1362.276	65535	64631.75
879.3944	1364.1383	65535	64631.6
879.5384	1365.9998	65535	64627.25
879.6823	1367.8606	65535	64629.4
879.8263	1369.7206	65535	64630.65
879.9702	1371.5799	65535	64628.35
880.1142	1373.4384	65535	64631.1
880.2581	1375.2962	65535	64631.55
880.402	1377.1533	65535	64634.2
880.5459	1379.0096	65535	64631.4
880.6898	1380.8652	65535	64633.6
880.8337	1382.7201	65535	64630.15
880.9776	1384.5742	65535	64631.85
881.1215	1386.4275	65535	64631.8
881.2653	1388.2802	65535	64631.3
881.4092	1390.132	65535	64631.2
881.553	1391.9832	65535	64631.05
881.6968	1393.8336	65535	64632.15
881.8406	1395.6832	65535	64630.8
881.9844	1397.5322	65535	64631.4
882.1282	1399.3803	65535	64626.7
882.272	1401.2278	65535	64630.2
882.4158	1403.0745	65535	64634.2
882.5595	1404.9204	65535	64633.8
882.7033	1406.7656	65535	64633.95
882.847	1408.6101	65535	64631.7
882.9908	1410.4538	65535	64630.15
883.1345	1412.2968	65535	64632.4
883.2782	1414.139	65535	64632.5
883.4219	1415.9805	65535	64631.6
883.5656	1417.8213	65535	64624.35
883.7092	1419.6613	65535	64634.6
883.8529	1421.5006	65535	64634.35
883.9965	1423.3391	65535	64632
884.1402	1425.1769	65535	64631.95
884.2838	1427.0139	65535	64631.3
884.4274	1428.8502	65535	64631.2
884.571	1430.6858	65535	64631.25
884.7146	1432.5206	65535	64632.5
884.8582	1434.3547	65535	64631.4
885.0018	1436.188	65535	64631.2
885.1453	1438.0206	65535	64631.7
885.2889	1439.8524	65535	64630.45
885.4324	1441.6835	65535	64630.2
885.5759	1443.5139	65535	64628.6
885.7194	1445.3435	65535	64631.4
885.8629	1447.1724	65535	64633.45
886.0064	1449.0005	65535	64634.25
886.1499	1450.8279	65535	64632.6
886.2933	1452.6545	65535	64631.65
886.4368	1454.4804	65535	64632.85
886.5802	1456.3056	65535	64627.6
886.7237	1458.13	65535	64634.5
886.8671	1459.9536	65535	64631
887.0105	1461.7766	65535	64633.15
887.1539	1463.5987	65535	64631.5
887.2972	1465.4202	65535	64633.55
887.4406	1467.2409	65535	64631.5
887.584	1469.0608	65535	64632.45
887.7273	1470.88	65535	64633.2
887.8706	1472.6984	65535	64632.2
888.0139	1474.5161	65535	64629.4
888.1572	1476.3331	65535	64636.15
888.3005	1478.1493	65535	64633.4
888.4438	1479.9648	65535	64632.95
888.5871	1481.7795	65535	64631.95
888.7303	1483.5935	65535	64632.05
888.8736	1485.4067	65535	64633.05
889.0168	1487.2192	65535	64633.55
889.16	1489.031	65535	64632.3
889.3032	1490.842	65535	64633.05
889.4464	1492.6522	65535	64631.2
889.5896	1494.4618	65535	64632.4
889.7327	1496.2705	65535	64632.45
889.8759	1498.0785	65535	64634.1
890.019	1499.8858	65535	64632.3
890.1622	1501.6924	65535	64631.75
890.3053	1503.4981	65535	64631.85
890.4484	1505.3032	65535	64633.65
890.5914	1507.1075	65535	64633.6
890.7345	1508.911	65535	64633.6
890.8776	1510.7138	65535	64632.7
891.0206	1512.5159	65535	64635.4
891.1637	1514.3172	65535	64633.35
891.3067	1516.1178	65535	64633.5
891.4497	1517.9176	65535	64632
891.5927	1519.7166	65535	64633.85
891.7357	1521.515	65535	64626.6
891.8786	1523.3126	65535	64634.05
892.0216	1525.1094	65535	64630.65
892.1645	1526.9055	65535	64635.1
892.3074	1528.7008	65535	64634.45
892.4503	1530.4954	65535	64632.35
892.5932	1532.2893	65535	64638.05
892.7361	1534.0824	65535	64630.05
892.879	1535.8747	65535	64633.3
893.0218	1537.6663	65535	64634
893.1647	1539.4572	65535	64633.85
893.3075	1541.2473	65535	64632.8
893.4503	1543.0367	65535	64636
893.5931	1544.8253	65535	64629.7
893.7359	1546.6132	65535	64632.3
893.8787	1548.4003	65535	64624.75
894.0214	1550.1867	65535	64626.25
894.1642	1551.9723	65535	64631.55
894.3069	1553.7572	65535	64636.4
894.4496	1555.5414	65535	64635.1
894.5923	1557.3247	65532.6	64634.3
894.735	1559.1074	65535	64637.8
894.8777	1560.8893	65535	64633.85
895.0204	1562.6705	65535	64635.05
895.163	1564.4509	65535	64637
895.3056	1566.2305	65535	64636.65
895.4482	1568.0094	65535	64637.2
895.5908	1569.7876	65535	64635.4
895.7334	1571.565	65535	64635.45
895.876	1573.3417	65535	64636.8
896.0186	1575.1176	65535	64637.75
896.1611	1576.8928	65535	64635.65
896.3036	1578.6672	65525.55	64628.85
896.4461	1580.4409	65533.75	64637.35
896.5886	1582.2138	65519.8	64619.8
896.7311	1583.986	65526.6	64629
896.8736	1585.7575	65512.7	64615.35
897.0161	1587.5282	65521.4	64623.9
897.1585	1589.2981	65522.15	64626.55
897.3009	1591.0673	65498.9	64602.7
897.4433	1592.8358	65468.4	64569.8
897.5857	1594.6035	65508.1	64609.75
897.7281	1596.3704	65517.8	64619.7
897.8705	1598.1366	65474.9	64578.35
898.0128	1599.9021	65460.3	64563.5
898.1551	1601.6668	65494.75	64593.85
898.2975	1603.4308	65473.7	64574.05
898.4398	1605.194	65466.35	64565.2
898.5821	1606.9564	65423.8	64527.75
898.7243	1608.7182	65445.9	64547.4
898.8666	1610.4791	65417.7	64522.75
899.0088	1612.2394	65443.55	64548.85
899.1511	1613.9988	65405.75	64511.3
899.2933	1615.7576	65449.45	64552.95
899.4355	1617.5156	65444.6	64541.9
899.5776	1619.2728	65480.05	64579.6
899.7198	1621.0293	65399.95	64504.65
899.862	1622.785	65401.3	64502.1
900.0041	1624.54	65427.35	64528.5
900.1462	1626.2942	65392.05	64495.6
900.2883	1628.0477	65351.2	64453.1
900.4304	1629.8005	65312.45	64412.65
900.5725	1631.5525	65359.85	64463.45
900.7145	1633.3037	65297.95	64401.95
900.8566	1635.0542	65297.1	64401.9
900.9986	1636.804	65315.75	64419.1
901.1406	1638.553	65276.1	64288.15
901.2826	1640.3013	65306.35	64408.1
901.4245	1642.0488	65251.1	64355.5
901.5665	1643.7955	65284.3	64390.1
901.7085	1645.5416	65260.1	64364.25
901.8504	1647.2868	65237.9	64343.95
901.9923	1649.0313	65276.3	64382.55
902.1342	1650.7751	65256.4	64359.65
902.2761	1652.5181	65230.25	64333.8
902.4179	1654.2604	65234.2	64337.15
902.5598	1656.0019	65246.5	64351.6
902.7016	1657.7427	65227.65	64331.35
902.8434	1659.4828	65245.65	64350.65
902.9852	1661.222	65221.2	64326.15
903.127	1662.9606	65252.55	64357.15
903.2687	1664.6984	65212.9	64317.25
903.4105	1666.4354	65227.2	64331.3
903.5522	1668.1717	65169.05	64272.25
903.6939	1669.9072	65090.1	64195.05
903.8356	1671.642	65110.3	64210.05
903.9773	1673.3761	65090.35	64195.95
904.119	1675.1094	65072.45	64179.85
904.2606	1676.8419	64975.5	64080.6
904.4022	1678.5737	65003.95	64106.75
904.5439	1680.3048	64970.2	64074.55
904.6855	1682.0351	64950.8	64056.1
904.827	1683.7646	64912.7	64016.5
904.9686	1685.4934	64956.25	64062.85
905.1101	1687.2215	64807.05	63911.2
905.2517	1688.9488	64893.85	63999.1
905.3932	1690.6754	64679.35	63786.05
905.5347	1692.4012	64794.25	63899.05
905.6761	1694.1263	64794.2	63897.6
905.8176	1695.8506	64723.95	63828
905.9591	1697.5742	64708.95	63813.95
906.1005	1699.297	64687.35	63793.3
906.2419	1701.0191	64696.55	63803.55
906.3833	1702.7404	64588.8	63695.2
906.5246	1704.461	64536.85	63642.95
906.666	1706.1808	64626.55	63730.05
906.8073	1707.8999	64566.9	63672.2
906.9487	1709.6182	64529.05	63634.85
907.09	1711.3358	64494.8	63601.85
907.2313	1713.0527	64490.75	63598.5
907.3725	1714.7688	64509.6	63608.6
907.5138	1716.4841	64347.75	63453.85
907.655	1718.1987	64412.9	63513.8
907.7962	1719.9126	64359.8	63467
907.9374	1721.6257	64392.5	63495.9
908.0786	1723.338	64407.15	63514
908.2198	1725.0496	64186.45	63292.3
908.3609	1726.7605	64194.5	63297.7
908.502	1728.4706	64140.55	63247.15
908.6431	1730.18	64188.35	63291.95
908.7842	1731.8886	64096	63201.55
908.9253	1733.5964	64008.05	63110.35
909.0664	1735.3036	64152.65	63255.05
909.2074	1737.0099	64053.8	63161.6
909.3484	1738.7156	63918.15	63025.2
909.4894	1740.4204	63851.7	62956.7
909.6304	1742.1246	63913.3	63017.8
909.7714	1743.8279	63953.5	63060.3
909.9123	1745.5306	63911.2	63017.05
910.0532	1747.2325	63513.55	62620.6
910.1941	1748.9336	63551.15	62659.25
910.335	1750.634	63657.9	62762.85
910.4759	1752.3336	63745.45	62852.35
910.6168	1754.0325	63434.8	62543.25
910.7576	1755.7307	63735.3	62842.95
910.8984	1757.4281	63314.3	62420.15
911.0392	1759.1247	63622.9	62721.55
911.18	1760.8206	63145	62247
911.3208	1762.5158	63204.75	62306.9
911.4615	1764.2102	63350.5	62456.8
911.6022	1765.9039	63253.55	62361.65
911.7429	1767.5968	63117.95	62224
911.8836	1769.289	63023.65	62130
912.0243	1770.9804	63143.1	62248.3
912.1649	1772.6711	62979.65	62088.35
912.3056	1774.361	62890.8	61997.5
912.4462	1776.0502	62935.6	62042.65
912.5868	1777.7386	62384.25	61487.9
912.7274	1779.4263	62756.8	61863.75
912.8679	1781.1132	62682.1	61790.6
913.0084	1782.7994	62543.6	61648.7
913.149	1784.4849	62563.5	61671.25
913.2895	1786.1696	61855.5	60958.5
913.4299	1787.8535	62313.05	61421.45
913.5704	1789.5367	62375.75	61484.1
913.7108	1791.2192	61924.55	61034.35
913.8513	1792.9009	61607	60685.65
913.9917	1794.5818	62036.9	61143.8
914.132	1796.2621	61594.15	60701.45
914.2724	1797.9415	61651.65	60759.15
914.4128	1799.6202	61570.65	60677.4
914.5531	1801.2982	61585.9	60693.85
914.6934	1802.9755	61049.55	60155.15
914.8337	1804.6519	60888.8	59994.8
914.9739	1806.3277	61691.1	60797.7
915.1142	1808.0027	60371.75	59482.6
915.2544	1809.6769	60838.9	59947.4
915.3946	1811.3504	60972.8	60080.05
915.5348	1813.0231	59982.8	59089.7
915.675	1814.6951	60619.55	59727.95
915.8151	1816.3664	60243.85	59349.6
915.9553	1818.0369	60286.35	59392.9
916.0954	1819.7067	59992.1	59100.35
916.2355	1821.3757	60524.3	59629.4
916.3755	1823.044	59698.3	58805.05
916.5156	1824.7115	59224.05	58330.75
916.6556	1826.3783	59565.35	58673.9
916.7956	1828.0443	59594.1	58703
916.9356	1829.7096	59267.9	58373.45
917.0756	1831.3741	58552.05	57656.55
917.2155	1833.0379	58979	58088.7
917.3555	1834.701	58990	58095.15
917.4954	1836.3633	58432.65	57540.3
917.6353	1838.0248	58796.5	57902.75
917.7751	1839.6856	58543.8	57653.1
917.915	1841.3457	58057.85	57168.25
918.0548	1843.005	58688.05	57797.4
918.1946	1844.6636	58282.45	57390.45
918.3344	1846.3214	57509.5	56617.55
918.4742	1847.9785	57700.3	56807.85
918.6139	1849.6349	57676.4	56781.9
918.7537	1851.2904	58176.1	57273.6
918.8934	1852.9453	57278.35	56385.45
919.0331	1854.5994	57609.8	56714.2
919.1727	1856.2528	57569.4	56672.65
919.3124	1857.9054	56977.4	56083.95
919.452	1859.5572	56754.7	55864.2
919.5916	1861.2083	56987.45	56093.95
919.7312	1862.8587	57514.65	56622.5
919.8708	1864.5084	56044.8	55149.7
920.0103	1866.1572	56693.8	55801.4
920.1498	1867.8054	55947.6	55054.3
920.2893	1869.4528	56419.35	55526.9
920.4288	1871.0994	55803.15	54911.7
920.5683	1872.7453	55792.1	54899
920.7077	1874.3905	56053.3	55156.05
920.8471	1876.0349	55399.05	54504.75
920.9865	1877.6786	55844.6	54951
921.1259	1879.3215	55369	54477.3
921.2653	1880.9637	55884.45	54989.45
921.4046	1882.6051	55294.15	54400.5
921.5439	1884.2458	54970.7	54074.75
921.6832	1885.8858	54678.55	53787.45
921.8225	1887.525	54930.65	54036.5
921.9617	1889.1634	54697.2	53802.65
922.101	1890.8011	54452.2	53560.25
922.2402	1892.4381	53865.5	52974.5
922.3794	1894.0743	54536.6	53644.95
922.5185	1895.7098	54086.3	53193.6
922.6577	1897.3446	53765.2	52872.9
922.7968	1898.9786	53877.75	52980.95
922.9359	1900.6118	53570.8	52680.45
923.075	1902.2443	53189.1	52294.15
923.214	1903.8761	53441.4	52549.85
923.3531	1905.5071	53053.55	52159.3
923.4921	1907.1374	52407.6	51515.2
923.6311	1908.7669	52665.4	51774.85
923.77	1910.3957	52917.75	52026.85
923.909	1912.0237	52250.2	51358.55
924.0479	1913.651	52066.25	51173.75
924.1868	1915.2776	51905.1	51013.3
924.3257	1916.9034	51850.3	50959.25
924.4646	1918.5285	51600.6	50709.1
924.6034	1920.1528	51531.85	50640.3
924.7422	1921.7764	51385.75	50495.85
924.881	1923.3992	51278.85	50388.05
925.0198	1925.0213	50902.9	50011.3
925.1586	1926.6427	50482.3	49593.4
925.2973	1928.2633	50686.55	49714.7
925.436	1929.8832	50461.1	49567.4
925.5747	1931.5023	50286.35	49394.2
925.7134	1933.1207	49913.85	49021.2
925.852	1934.7383	50043.25	49152.2
925.9906	1936.3552	49746.35	48853.85
926.1292	1937.9714	49658.35	48766
926.2678	1939.5868	49594.1	48702.55
926.4064	1941.2015	49123.8	48232.1
926.5449	1942.8154	48876	47984.75
926.6834	1944.4286	48813.7	47923.7
926.8219	1946.041	48728.2	47820
926.9604	1947.6528	48409.75	47512.9
927.0988	1949.2637	48310.7	47418.9
927.2372	1950.8739	48068.75	47177.3
927.3756	1952.4834	48098.45	47206.85
927.514	1954.0921	47914.85	47024.6
927.6523	1955.7001	47638.05	46743.95
927.7907	1957.3074	47616.95	46726.65
927.929	1958.9139	47277.15	46383.55
928.0673	1960.5197	47287.3	46393.65
928.2055	1962.1247	47048.55	46158.55
928.3438	1963.729	46804.2	45913.75
928.482	1965.3325	46680.05	45764.75
928.6202	1966.9353	46585.95	45695.1
928.7584	1968.5374	46369.3	45479.75
928.8965	1970.1387	46171.8	45280
929.0346	1971.7393	46084.1	45192.5
929.1727	1973.3392	45909.3	45019.05
929.3108	1974.9383	45679.85	44791.3
929.4489	1976.5366	45491.6	44601.45
929.5869	1978.1342	45463.05	44574.3
929.7249	1979.7311	45342.05	44448.45
929.8629	1981.3273	45186.15	44293.85
930.0009	1982.9227	45052.7	44158.55
930.1388	1984.5173	44889	43998.45
930.2767	1986.1112	44663.35	43773.85
930.4146	1987.7044	44684.05	43794.45
930.5525	1989.2968	44347.95	43455.7
930.6904	1990.8885	44379.65	43484.5
930.8282	1992.4795	44224	43332.15
930.966	1994.0697	43997.55	43105.8
931.1038	1995.6592	43891.2	43000.45
931.2415	1997.2479	43764.9	42874.75
931.3793	1998.8359	43628.95	42739.05
931.517	2000.4232	43376	42487.75
931.6547	2002.0097	43273.2	42385.2
931.7923	2003.5955	43047.55	42159.15
931.93	2005.1805	43088.05	42197.7
932.0676	2006.7648	42941.8	42052.4
932.2052	2008.3484	42762	41871.8
932.3427	2009.9312	42797.7	41906.55
932.4803	2011.5133	42539.55	41651.1
932.6178	2013.0946	42415.2	41526
932.7553	2014.6752	42338.2	41452.6
932.8928	2016.2551	42247.75	41357.15
933.0302	2017.8342	42003.5	41115.3
933.1676	2019.4126	41839.5	40951.5
933.305	2020.9902	41676.4	40787.1
933.4424	2022.5672	41651.45	40761.2
933.5798	2024.1433	41521.1	40624.8
933.7171	2025.7188	41385.9	40496.75
933.8544	2027.2935	41280.35	40388.45
933.9917	2028.8674	41133.6	40245.55
934.129	2030.4406	40982.3	40094.75
934.2662	2032.0131	40771	39883.6
934.4034	2033.5849	40689	39793.95
934.5406	2035.1559	40588.7	39700.3
934.6778	2036.7261	40548.25	39658.85
934.8149	2038.2957	40397.5	39508.05
934.952	2039.8645	40300.95	39409.8
935.0891	2041.4325	40348.05	39455.25
935.2262	2042.9998	40141.6	39251.15
935.3632	2044.5664	40015.15	39122.65
935.5002	2046.1323	39864.1	38974.3
935.6372	2047.6974	39726.75	38836.25
935.7742	2049.2617	39675.95	38786.45
935.9111	2050.8254	39664.7	38771.8
936.048	2052.3883	39524.95	38634.2
936.1849	2053.9504	39370.9	38480.15
936.3218	2055.5118	39225.5	38335.45
936.4586	2057.0725	39075.35	38182.5
936.5955	2058.6325	38987.5	38099.3
936.7323	2060.1917	38814.3	37925.65
936.869	2061.7502	38753.8	37860.15
937.0058	2063.3079	38592.2	37702.5
937.1425	2064.8649	38462	37570.5
937.2792	2066.4212	38318.5	37427.5
937.4159	2067.9767	38272.2	37383.85
937.5525	2069.5315	38099	37208.7
937.6891	2071.0856	37910.9	37021.3
937.8257	2072.6389	37761.5	36871.35
937.9623	2074.1915	37594.25	36707.85
938.0989	2075.7433	37405.6	36515.15
938.2354	2077.2945	37346.45	36458.95
938.3719	2078.8448	37237.05	36349.35
938.5084	2080.3945	37084.9	36195.4
938.6448	2081.9434	37033.05	36144.5
938.7812	2083.4916	36921.7	36030.85
938.9176	2085.039	36775.9	35882.55
939.054	2086.5857	36714.55	35820.1
939.1903	2088.1317	36606.2	35716.55
939.3267	2089.677	36552.55	35663.4
939.463	2091.2215	36447.8	35556.45
939.5992	2092.7652	36324.45	35432.85
939.7355	2094.3083	36223	35332.6
939.8717	2095.8506	36161.55	35274.1
940.0079	2097.3921	36092.7	35202.7
940.1441	2098.933	35950.8	35060.45
940.2802	2100.4731	35856.8	34969.2
940.4163	2102.0124	35778	34878.8
940.5524	2103.5511	35676.2	34785.5
940.6885	2105.089	35634.8	34745.95
940.8245	2106.6261	35530.7	34640.7
940.9606	2108.1626	35386.55	34495.7
941.0965	2109.6983	35337.2	34420
941.2325	2111.2332	35180.2	34287.5
941.3684	2112.7675	35147.2	34254.8
941.5044	2114.301	35002.2	34110.2
941.6403	2115.8337	34959.2	34072
941.7761	2117.3657	34814.4	33925.4
941.912	2118.897	34729.55	33838.1
942.0478	2120.4276	34635.6	33739.45
942.1835	2121.9575	34455.6	33565.55
942.3193	2123.4866	34500.9	33596.2
942.455	2125.0149	34375.7	33483.2
942.5907	2126.5426	34181.8	33292.15
942.7264	2128.0695	34087.8	33195.85
942.8621	2129.5956	34027.45	33138.85
942.9977	2131.1211	33936.35	33041.5
943.1333	2132.6458	33844.55	32955.75
943.2689	2134.1698	33759.45	32868.3
943.4044	2135.693	33671.9	32779.35
943.54	2137.2155	33624.3	32730.75
943.6755	2138.7373	33508.25	32617.8
943.8109	2140.2584	33407.5	32516.85
943.9464	2141.7787	33285.25	32389.3
944.0818	2143.2983	33073.35	32184.8
944.2172	2144.8171	32928.25	32039.1
944.3526	2146.3353	32864.9	31973.35
944.4879	2147.8527	32698.5	31809.65
944.6232	2149.3693	32729.6	31838.7
944.7585	2150.8853	32564.05	31672.7
944.8938	2152.4005	32411	31519.8
945.029	2153.9149	32396.8	31507.8
945.1642	2155.4287	32246.9	31358.9
945.2994	2156.9417	32214.35	31323.1
945.4346	2158.454	32100.9	31208.2
945.5697	2159.9655	31991.45	31101.75
945.7048	2161.4764	31941.45	31050.6
945.8399	2162.9865	31841.8	30950.25
945.9749	2164.4958	31742.5	30850.9
946.1099	2166.0045	31608.45	30714.95
946.2449	2167.5124	31557.95	30668.5
946.3799	2169.0195	31499.75	30609.85
946.5148	2170.526	31444.5	30552.9
946.6498	2172.0317	31345.3	30455.15
946.7846	2173.5367	31259.2	30368.75
946.9195	2175.0409	31125.3	30235.95
947.0543	2176.5445	31106.6	30217.2
947.1891	2178.0473	30969.9	30080
947.3239	2179.5494	30797.55	29902.7
947.4587	2181.0507	30715	29826.2
947.5934	2182.5513	30661.05	29771.35
947.7281	2184.0512	30586.4	29698.35
947.8628	2185.5504	30477	29588.8
947.9974	2187.0488	30293.35	29402.1
948.132	2188.5465	30221.05	29330.25
948.2666	2190.0435	30124.8	29236
948.4012	2191.5397	29979.9	29090.5
948.5357	2193.0353	29886.4	28996.75
948.6702	2194.5301	29748.9	28858.75
948.8047	2196.0241	29644.45	28754.3
948.9392	2197.5175	29596.9	28706.05
949.0736	2199.0101	29428.7	28535.3
949.208	2200.502	29310.35	28422
949.3424	2201.9931	29185.3	28295.3
949.4767	2203.4835	29088.2	28195.55
949.611	2204.9733	29037.55	28141.45
949.7453	2206.4622	28987.5	28098.45
949.8796	2207.9505	28834.6	27944.5
950.0138	2209.438	28709.85	27823.55
950.148	2210.9248	28642.1	27750.45
950.2822	2212.4109	28485.35	27596.9
950.4164	2213.8962	28385.55	27492.7
950.5505	2215.3809	28368.15	27476.8
950.6846	2216.8648	28292.75	27401.2
950.8186	2218.3479	28229.75	27331.8
950.9527	2219.8304	28101.8	27207.55
951.0867	2221.3121	27975.35	27082
951.2207	2222.7931	27878.95	26988.1
951.3546	2224.2733	27773.2	26883.4
951.4886	2225.7529	27721.6	26831.2
951.6225	2227.2317	27607.1	26715.5
951.7563	2228.7098	27501.55	26611.45
951.8902	2230.1872	27378.05	26489.75
952.024	2231.6638	27386.65	26493.55
952.1578	2233.1397	27252.95	26358.5
952.2916	2234.6149	27136.25	26246.35
952.4253	2236.0894	27058.85	26169.75
952.559	2237.5632	26987.3	26096.9
952.6927	2239.0362	26838.55	25949.25
952.8263	2240.5085	26803.35	25913.25
952.9599	2241.9801	26655.95	25766.05
953.0935	2243.4509	26606.35	25718.3
953.2271	2244.921	26540.35	25651.3
953.3606	2246.3904	26415.55	25522.4
953.4941	2247.8591	26346.5	25457.5
953.6276	2249.3271	26269.65	25378.9
953.7611	2250.7943	26142.15	25251.3
953.8945	2252.2608	26040	25151
954.0279	2253.7266	25978.2	25089.1
954.1612	2255.1917	25931.5	25040.3
954.2946	2256.656	25802.7	24912
954.4279	2258.1197	25732.35	24843.85
954.5612	2259.5826	25691.05	24802.3
954.6944	2261.0447	25627.45	24734.7
954.8276	2262.5062	25474.3	24583.25
954.9608	2263.9669	25445.05	24553.85
955.094	2265.4269	25412.8	24524.35
955.2271	2266.8862	25288.15	24398.25
955.3602	2268.3448	25234.65	24342.6
955.4933	2269.8026	25216.85	24325.8
955.6264	2271.2598	25068.15	24179.1
955.7594	2272.7162	24995.45	24106.45
955.8924	2274.1719	24926.25	24035.6
956.0253	2275.6268	24885.5	23995.4
956.1583	2277.0811	24819.45	23928.65
956.2912	2278.5346	24750.75	23862.7
956.4241	2279.9874	24652.95	23765.15
956.5569	2281.4395	24608.85	23719.25
956.6897	2282.8908	24490.5	23594.4
956.8225	2284.3414	24474.2	23581.75
956.9553	2285.7914	24365.45	23478.5
957.088	2287.2406	24268.9	23377.8
957.2207	2288.689	24213.75	23325.75
957.3534	2290.1368	24152	23261.15
957.486	2291.5838	24052.55	23157.35
957.6186	2293.0302	23973.95	23083.2
957.7512	2294.4758	23880.45	22990.7
957.8838	2295.9206	23778.95	22889.85
958.0163	2297.3648	23726.05	22837.25
958.1488	2298.8082	23668.95	22780.2
958.2813	2300.251	23601.8	22711.8
958.4137	2301.693	23497.2	22604.1
958.5461	2303.1343	23478.9	22589.2
958.6785	2304.5748	23432.25	22543.05
958.8108	2306.0147	23296.3	22405.6
958.9432	2307.4538	23236.05	22345.35
959.0754	2308.8922	23175.9	22287
959.2077	2310.3299	23102	22212.9
959.3399	2311.7669	23001.25	22113.55
959.4721	2313.2031	22899.6	22009.7
959.6043	2314.6387	22861.25	21970.65
959.7365	2316.0735	22747.65	21856.2
959.8686	2317.5076	22690.55	21801.5
960.0006	2318.941	22707.9	21817.75
960.1327	2320.3737	22569.35	21679.2
960.2647	2321.8056	22474.35	21584.45
960.3967	2323.2369	22403.7	21513.3
960.5287	2324.6674	22350.15	21456
960.6606	2326.0972	22299.3	21407.05
960.7925	2327.5263	22194.75	21304
960.9244	2328.9547	22113.85	21222.85
961.0562	2330.3823	22073.3	21183.35
961.1881	2331.8092	22061.05	21168.5
961.3198	2333.2355	21941.5	21051.95
961.4516	2334.661	21901.55	21012.35
961.5833	2336.0858	21846.8	20953.9
961.715	2337.5098	21791.1	20901.35
961.8467	2338.9332	21737.75	20847.95
961.9783	2340.3558	21658.6	20764.55
962.1099	2341.7778	21557.15	20668.55
962.2415	2343.199	21487.6	20596.4
962.373	2344.6195	21434	20544.5
962.5045	2346.0393	21372.7	20485.45
962.636	2347.4583	21325	20435.1
962.7675	2348.8767	21196	20305.55
962.8989	2350.2943	21158.3	20266.7
963.0303	2351.7113	21146.9	20254.35
963.1617	2353.1275	21036.4	20145.9
963.293	2354.543	20951.6	20052.15
963.4243	2355.9578	20902.85	20012.15
963.5556	2357.3718	20794.95	19905
963.6868	2358.7852	20738.2	19845
963.818	2360.1978	20615.35	19723.6
963.9492	2361.6098	20596	19707.4
964.0803	2363.021	20535.7	19642
964.2114	2364.4315	20452.9	19562.75
964.3425	2365.8413	20392.7	19502
964.4736	2367.2504	20308.8	19421.1
964.6046	2368.6587	20220.05	19331.25
964.7356	2370.0664	20145.5	19256.8
964.8666	2371.4733	20086.1	19194.8
964.9975	2372.8795	20001.05	19112.45
965.1284	2374.285	19949.3	19059.35
965.2593	2375.6899	19844.3	18955.45
965.3901	2377.0939	19767.7	18880.85
965.5209	2378.4973	19692.1	18804.1
965.6517	2379.9	19608.85	18719.55
965.7825	2381.3019	19532.1	18639.45
965.9132	2382.7032	19487.8	18597.5
966.0439	2384.1037	19455.55	18568.3
966.1745	2385.5035	19365.05	18477.2
966.3051	2386.9027	19275.4	18387.25
966.4357	2388.3011	19233.6	18339.3
966.5663	2389.6987	19184.25	18292.8
966.6968	2391.0957	19093.55	18202.8
966.8273	2392.492	18985.9	18098.3
966.9578	2393.8876	18900.25	18011
967.0882	2395.2824	18797.85	17908.75
967.2186	2396.6765	18726.15	17837.3
967.349	2398.07	18680.8	17791.25
967.4793	2399.4627	18647.75	17757.25
967.6097	2400.8547	18541.4	17652.45
967.7399	2402.246	18481.55	17585.8
967.8702	2403.6366	18400.05	17510.1
968.0004	2405.0265	18334.45	17443.3
968.1306	2406.4156	18256.5	17363.55
968.2607	2407.8041	18162.9	17270.8
968.3909	2409.1918	18103.65	17213.55
968.521	2410.5789	18047.2	17156.85
968.651	2411.9652	18018.25	17125.2
968.781	2413.3508	17928.1	17037.1
968.911	2414.7358	17829.15	16937.55
969.041	2416.12	17763.8	16873.55
969.1709	2417.5035	17753.55	16865.95
969.3008	2418.8863	17666.2	16778.25
969.4307	2420.2684	17627.9	16736.15
969.5606	2421.6497	17531.6	16641.95
969.6904	2423.0304	17423.7	16534.6
969.8201	2424.4104	17374.4	16486.5
969.9499	2425.7896	17300.5	16409.45
970.0796	2427.1682	17244.6	16355
970.2093	2428.546	17224.55	16334.7
970.3389	2429.9232	17189.65	16298
970.4685	2431.2996	17148.6	16261.8
970.5981	2432.6753	17078.45	16190.05
970.7277	2434.0503	17061.45	16173
970.8572	2435.4246	16945.45	16055.3
970.9867	2436.7982	16894.1	16003.25
971.1161	2438.1711	16864.65	15975.75
971.2456	2439.5433	16792.35	15901.55
971.375	2440.9148	16694.35	15800.6
971.5043	2442.2856	16644	15753.85
971.6336	2443.6557	16610.05	15718.85
971.7629	2445.025	16565.3	15675.35
971.8922	2446.3937	16499.6	15611.5
972.0214	2447.7617	16437.85	15546.65
972.1506	2449.1289	16428.1	15538.85
972.2798	2450.4955	16371.4	15480.45
972.4089	2451.8613	16290.6	15402.9
972.538	2453.2265	16250.5	15361.45
972.6671	2454.5909	16219.15	15327.45
972.7961	2455.9546	16148.6	15258.4
972.9251	2457.3177	16086.45	15197.75
973.0541	2458.68	16071.2	15180.65
973.1831	2460.0416	16030.3	15141.15
973.312	2461.4025	15998.25	15106.7
973.4408	2462.7627	15936.3	15037.2
973.5697	2464.1222	15882.85	14994.05
973.6985	2465.4811	15843.9	14954.45
973.8273	2466.8392	15756.1	14867.3
973.956	2468.1966	15726.75	14834.3
974.0847	2469.5533	15705.55	14811.7
974.2134	2470.9093	15665.1	14775.4
974.3421	2472.2645	15598.05	14707.5
974.4707	2473.6191	15573.5	14683.8
974.5993	2474.973	15475.9	14585.8
974.7278	2476.3262	15441.95	14549.6
974.8563	2477.6787	15360.95	14473.5
974.9848	2479.0305	15294.9	14404.35
975.1132	2480.3816	15218.85	14329
975.2417	2481.7319	15170.45	14280.3
975.37	2483.0816	15112.45	14220.15
975.4984	2484.4306	15077.55	14185.8
975.6267	2485.7789	15016.1	14127.8
975.755	2487.1264	14953.2	14062.65
975.8833	2488.4733	14885.25	13999.05
976.0115	2489.8195	14835	13937.1
976.1397	2491.165	14759.3	13867.75
976.2678	2492.5097	14710.1	13818.8
976.3959	2493.8538	14667.3	13777.75
976.524	2495.1972	14576.9	13688.1
976.6521	2496.5398	14529.7	13639.35
976.7801	2497.8818	14506.25	13613.35
976.9081	2499.2231	14439.95	13550.95
977.036	2500.5637	14385	13493.25
977.164	2501.9035	14335.8	13443.7
977.2918	2503.2427	14304.5	13411.35
977.4197	2504.5812	14247.25	13358.65
977.5475	2505.919	14213.9	13322.3
977.6753	2507.256	14213	13323.65
977.8031	2508.5924	14138.55	13249.05
977.9308	2509.9281	14079.7	13183.2
978.0585	2511.2631	14024.15	13134.15
978.1861	2512.5974	13979.7	13091.05
978.3137	2513.9309	13968.2	13079.5
978.4413	2515.2638	13910.05	12993.65
978.5689	2516.596	13833.7	12945.4
978.6964	2517.9275	13789.6	12896.8
978.8239	2519.2583	13732.7	12842.85
978.9513	2520.5884	13667.6	12774.7
979.0788	2521.9178	13623.75	12733.95
979.2062	2523.2465	13583.75	12695.15
979.3335	2524.5745	13498.2	12610.1
979.4608	2525.9018	13466.7	12578.05
979.5881	2527.2284	13428.85	12539.4
979.7154	2528.5543	13415.55	12529
979.8426	2529.8796	13359.85	12470.3
979.9698	2531.2041	13319.15	12428.65
980.0969	2532.5279	13287.6	12399.8
980.224	2533.851	13271.25	12382.45
980.3511	2535.1735	13217.85	12328.25
980.4781	2536.4952	13161.4	12273.55
980.6052	2537.8163	13181.55	12292.65
980.7321	2539.1366	13124.05	12233.1
980.8591	2540.4562	13077.9	12187.85
980.986	2541.7752	13058.05	12168.55
981.1129	2543.0935	12998.15	12110.75
981.2397	2544.411	12953.85	12062.3
981.3665	2545.7279	12928.9	12039.35
981.4933	2547.0441	12927.7	12038.85
981.62	2548.3596	12904.9	12010.2
981.7467	2549.6744	12840	11949.65
981.8734	2550.9885	12799.2	11902.2
982.0001	2552.3019	12774.1	11886.3
982.1267	2553.6146	12745.2	11857
982.2532	2554.9266	12714.95	11824.35
982.3798	2556.2379	12656.65	11764.45
982.5063	2557.5485	12639.75	11750.85
982.6327	2558.8585	12624.1	11727.6
982.7592	2560.1677	12581.55	11687.8
982.8856	2561.4762	12547.65	11657.6
983.0119	2562.7841	12527.05	11635.15
983.1383	2564.0913	12476.95	11588.55
983.2646	2565.3977	12450.75	11562.1
983.3908	2566.7035	12419.6	11529.95
983.517	2568.0086	12415.6	11525.35
983.6432	2569.313	12384.2	11493.7
983.7694	2570.6167	12328.65	11436.85
983.8955	2571.9197	12306.6	11416.6
984.0216	2573.222	12290.45	11398.05
984.1476	2574.5236	12229.4	11338.8
984.2737	2575.8246	12198.95	11306.3
984.3996	2577.1248	12193.15	11300.55
984.5256	2578.4244	12161.45	11272.9
984.6515	2579.7232	12137.8	11247.5
984.7774	2581.0214	12134.7	11220.5
984.9032	2582.3189	12083.25	11193.9
985.029	2583.6157	12031.4	11136.3
985.1548	2584.9118	12007.95	11117.4
985.2806	2586.2072	11989.85	11100.75
985.4063	2587.5019	11957.8	11069.65
985.5319	2588.7959	11900.65	11011.8
985.6576	2590.0893	11892.7	11003.05
985.7832	2591.3819	11827	10938.15
985.9087	2592.6739	11774.7	10885.4
986.0343	2593.9652	11760.75	10869
986.1597	2595.2557	11742.15	10852.75
986.2852	2596.5456	11673.1	10782.55
986.4106	2597.8348	11628.95	10739.6
986.536	2599.1234	11573.9	10686.35
986.6614	2600.4112	11556.15	10666.45
986.7867	2601.6983	11535	10642.15
986.912	2602.9848	11481.55	10590.8
987.0372	2604.2705	11425.45	10528.5
987.1624	2605.5556	11393.05	10503.55
987.2876	2606.84	11345.3	10455.65
987.4128	2608.1237	11317.35	10428.25
987.5379	2609.4067	11262.05	10371.8
987.6629	2610.689	11246.5	10350.65
987.788	2611.9707	11170.25	10278.3
987.913	2613.2516	11149.65	10256
988.0379	2614.5319	11077.75	10188.7
988.1629	2615.8115	11055.05	10165.2
988.2878	2617.0903	11007.05	10116.65
988.4126	2618.3685	10958.85	10069.8
988.5375	2619.6461	10904	10014.8
988.6622	2620.9229	10876	9985.2
988.787	2622.199	10848.8	9956.9
988.9117	2623.4745	10836.2	9946.6
989.0364	2624.7493	10775.05	9887.55
989.161	2626.0234	10764.85	9878.7
989.2857	2627.2968	10719.1	9830.85
989.4102	2628.5695	10649.2	9758.6
989.5348	2629.8415	10589.8	9701.35
989.6593	2631.1128	10557	9665.65
989.7837	2632.3835	10512.55	9622.75
989.9082	2633.6535	10481.75	9592.25
990.0326	2634.9228	10443.95	9554.1
990.1569	2636.1914	10399.95	9512.3
990.2812	2637.4593	10377.4	9482.65
990.4055	2638.7265	10351.9	9462.85
990.5298	2639.9931	10294.15	9404.55
990.654	2641.259	10293.95	9405.05
990.7782	2642.5242	10266.7	9376.15
990.9023	2643.7887	10198.1	9311.3
991.0264	2645.0525	10199.8	9310.05
991.1505	2646.3156	10169.65	9278.75
991.2745	2647.5781	10125.75	9234.95
991.3985	2648.8398	10059.55	9170.85
991.5225	2650.1009	10074.65	9148.3
991.6464	2651.3613	10003.25	9113.7
991.7703	2652.6211	9977.45	9087.8
991.8942	2653.8801	9950.65	9059.5
992.018	2655.1385	9912.65	9021.2
992.1418	2656.3961	9893.3	9002.7
992.2655	2657.6531	9893.95	9003.5
992.3892	2658.9094	9857.45	8967.1
992.5129	2660.1651	9814.55	8926
992.6366	2661.42	9812.9	8923.6
992.7602	2662.6743	9770.45	8878.6
992.8837	2663.9279	9750.6	8860.8
993.0073	2665.1808	9717.1	8827.15
993.1307	2666.433	9676.1	8785.8
993.2542	2667.6846	9627.25	8737.9
993.3776	2668.9354	9642.5	8751.1
993.501	2670.1856	9593.2	8704.25
993.6244	2671.4351	9563.85	8676.5
993.7477	2672.6839	9566.3	8676
993.8709	2673.9321	9518.4	8630.85
993.9942	2675.1795	9487.05	8597.3
994.1174	2676.4263	9444.05	8555
994.2405	2677.6724	9428.95	8541.15
994.3637	2678.9179	9413.5	8524.9
994.4868	2680.1626	9368.65	8480.9
994.6098	2681.4067	9367.35	8478.8
994.7328	2682.6501	9322.05	8432.45
994.8558	2683.8928	9248.9	8358.85
994.9788	2685.1348	9234.2	8344.5
995.1017	2686.3761	9200.55	8312.15
995.2245	2687.6168	9180.15	8291.65
995.3474	2688.8568	9142.8	8253.95
995.4702	2690.0961	9109.6	8222.15
995.5929	2691.3348	9096.85	8206.1
995.7156	2692.5727	9080.25	8189.85
995.8383	2693.81	9028.6	8138.2
995.961	2695.0466	9003.75	8114.8
996.0836	2696.2826	8986.45	8096.15
996.2062	2697.5178	8967.8	8076.25
996.3287	2698.7524	8930.1	8040.75
996.4512	2699.9863	8901.05	8009.85
996.5737	2701.2195	8876.4	7988.75
996.6961	2702.452	8843.95	7954.35
996.8185	2703.6839	8816.3	7926.25
996.9408	2704.9151	8788.65	7900.15
997.0631	2706.1456	8766.75	7877.2
997.1854	2707.3755	8720.8	7831.2
997.3077	2708.6046	8712.35	7820.3
997.4299	2709.8331	8671.5	7782.35
997.552	2711.0609	8644.6	7756.3
997.6742	2712.2881	8616.85	7728.2
997.7963	2713.5145	8611.95	7721.1
997.9183	2714.7403	8571.25	7683.55
998.0403	2715.9654	8554.6	7665.05
998.1623	2717.1899	8537.3	7634.2
998.2842	2718.4136	8492.6	7602.95
998.4062	2719.6367	8518	7628.45
998.528	2720.8591	8485.9	7588
998.6498	2722.0809	8447.5	7558.15
998.7716	2723.3019	8415.15	7523.8
998.8934	2724.5223	8405	7515.45
999.0151	2725.7421	8398.4	7507.8
999.1368	2726.9611	8338.7	7446.7
999.2584	2728.1795	8297.25	7403.6
999.38	2729.3972	8270.45	7378.9
999.5016	2730.6142	8253.55	7362.3
999.6231	2731.8306	8199.85	7311.15
999.7446	2733.0462	8166.4	7275.2
999.8661	2734.2612	8137.35	7243.9
999.9875	2735.4756	8070.4	7179.3
1000.1089	2736.6892	8033.75	7143.75
1000.2302	2737.9022	7982.45	7093.15
1000.3515	2739.1145	7933.65	7045.1
1000.4728	2740.3262	7902.7	7005.95
1000.594	2741.5372	7859.45	6970.3
1000.7152	2742.7475	7822.2	6932.35
1000.8363	2743.9571	7808.9	6917.95
1000.9575	2745.1661	7789.05	6896.35
1001.0785	2746.3744	7741.75	6852.05
1001.1996	2747.582	7704.85	6818.2
1001.3206	2748.7889	7694.35	6801.45
1001.4415	2749.9952	7650.25	6762.55
1001.5625	2751.2008	7623.9	6732.7
1001.6833	2752.4057	7594.5	6702.95
1001.8042	2753.61	7566	6675.55
1001.925	2754.8136	7541.65	6650.65
1002.0458	2756.0165	7542.6	6652.65
1002.1665	2757.2188	7488.25	6600.85
1002.2872	2758.4204	7476.6	6587.75
1002.4078	2759.6213	7434.7	6542.25
1002.5285	2760.8215	7414.05	6518.3
1002.649	2762.0211	7403.95	6512.85
1002.7696	2763.22	7360	6469.55
1002.8901	2764.4182	7330.7	6439.25
1003.0106	2765.6158	7309.1	6420.3
1003.131	2766.8127	7296.5	6408.25
1003.2514	2768.009	7266.55	6378.2
1003.3717	2769.2045	7239.6	6351.5
1003.492	2770.3994	7231.1	6339.6
1003.6123	2771.5936	7204.5	6314.95
1003.7325	2772.7872	7159.6	6271.75
1003.8527	2773.9801	7128.35	6237.65
1003.9729	2775.1723	7124.95	6220.25
1004.093	2776.3639	7090.65	6202.15
1004.2131	2777.5548	7074.45	6185.3
1004.3331	2778.745	7033.6	6143.6
1004.4531	2779.9346	7015.45	6128.05
1004.5731	2781.1235	7009.9	6120.95
1004.693	2782.3117	6989.55	6102
1004.8129	2783.4992	6948.4	6058.75
1004.9328	2784.6861	6944.05	6054.4
1005.0526	2785.8723	6939.75	6048.35
1005.1723	2787.0579	6899.1	6010.4
1005.2921	2788.2428	6890.3	6001.25
1005.4118	2789.427	6848.85	5961.75
1005.5314	2790.6106	6830.7	5942.9
1005.651	2791.7935	6806.85	5918.85
1005.7706	2792.9757	6794.3	5907.3
1005.8902	2794.1573	6802.6	5911.6
1006.0097	2795.3382	6761.25	5872.15
1006.1291	2796.5184	6736.5	5848.15
1006.2485	2797.698	6746.8	5855.15
1006.3679	2798.8769	6748.8	5859.65
1006.4873	2800.0551	6730.9	5841
1006.6066	2801.2327	6713.65	5822.4
1006.7258	2802.4096	6689.4	5801.7
1006.8451	2803.5859	6679.2	5792.15
1006.9642	2804.7615	6687.45	5797.4
1007.0834	2805.9364	6709.3	5821.1
1007.2025	2807.1106	6689.85	5799.25
1007.3216	2808.2842	6677.75	5787.75
1007.4406	2809.4572	6706.75	5817.25
1007.5596	2810.6294	6734	5842.75
1007.6785	2811.801	6742.4	5852.45
1007.7975	2812.972	6758.75	5870.65
1007.9163	2814.1423	6768.05	5878.7
1008.0352	2815.3119	6784.2	5896.3
1008.154	2816.4808	6829.35	5942.15
1008.2727	2817.6491	6847.5	5957.8
1008.3914	2818.8167	6873.6	5985.85
1008.5101	2819.9837	6908.35	6016.1
1008.6288	2821.15	6926.95	6037.55
1008.7474	2822.3157	6940.4	6052.35
1008.8659	2823.4807	6984.25	6096.4
1008.9844	2824.645	7029.05	6138.7
1009.1029	2825.8086	7037.2	6149.8
1009.2214	2826.9716	7080.7	6193.05
1009.3398	2828.134	7070.8	6184.4
1009.4581	2829.2957	7110	6220.3
1009.5764	2830.4567	7127.65	6241.4
1009.6947	2831.617	7140.6	6250.9
1009.813	2832.7767	7146.55	6257.3
1009.9312	2833.9358	7105.75	6217.9
1010.0493	2835.0941	7099.65	6208.35
1010.1675	2836.2519	7063.8	6176
1010.2855	2837.4089	7027.7	6137.8
1010.4036	2838.5653	7023.6	6136.9
1010.5216	2839.7211	6990.1	6103.35
1010.6396	2840.8761	7000.6	6110.15
1010.7575	2842.0306	6997.6	6110.85
1010.8754	2843.1843	7007.55	6120.1
1010.9932	2844.3374	7038.45	6151.1
1011.111	2845.4899	7074.9	6183.85
1011.2288	2846.6417	7121.2	6230.8
1011.3465	2847.7928	7161.3	6273.85
1011.4642	2848.9433	7217.05	6327.8
1011.5818	2850.0931	7265.55	6375.05
1011.6995	2851.2422	7340.6	6450.5
1011.817	2852.3907	7381.85	6491.85
1011.9345	2853.5385	7426.35	6536.8
1012.052	2854.6857	7433.55	6535.7
1012.1695	2855.8323	7449.2	6563.35
1012.2869	2856.9781	7500.05	6611.2
1012.4042	2858.1233	7548.55	6659.3
1012.5216	2859.2679	7565.15	6678
1012.6389	2860.4118	7581	6692.05
1012.7561	2861.555	7602.1	6709.5
1012.8733	2862.6976	7601.75	6713.15
1012.9905	2863.8395	7622.55	6734.7
1013.1076	2864.9808	7621.75	6734.05
1013.2247	2866.1214	7627.35	6740.35
1013.3417	2867.2614	7615.4	6727.1
1013.4587	2868.4007	7601.75	6712.8
1013.5757	2869.5393	7604.25	6714.35
1013.6926	2870.6773	7606.65	6715.45
1013.8095	2871.8146	7585.5	6693.65
1013.9263	2872.9513	7572.55	6680.8
1014.0431	2874.0874	7539.5	6651.5
1014.1599	2875.2227	7507.95	6618.9
1014.2766	2876.3574	7476.95	6589.25
1014.3933	2877.4915	7438.15	6550.15
1014.51	2878.6249	7404.8	6518
1014.6266	2879.7577	7356.25	6467.3
1014.7431	2880.8898	7323.7	6422.45
1014.8596	2882.0212	7304.3	6416.7
1014.9761	2883.152	7240.9	6352.4
1015.0925	2884.2821	7219.75	6332.35
1015.2089	2885.4116	7212.2	6324.85
1015.3253	2886.5405	7188.15	6298.65
1015.4416	2887.6686	7198.2	6307.8
1015.5579	2888.7962	7147.45	6261.75
1015.6741	2889.923	7147.9	6260.65
1015.7903	2891.0493	7130.75	6243.85
1015.9065	2892.1748	7131.25	6241.65
1016.0226	2893.2997	7107.65	6218.85
1016.1387	2894.424	7137.15	6249.75
1016.2547	2895.5476	7134.4	6246.05
1016.3707	2896.6706	7116.85	6231.45
1016.4866	2897.7929	7103.7	6213.95
1016.6025	2898.9145	7111.3	6223.2
1016.7184	2900.0355	7134.35	6245
1016.8342	2901.1559	7147.65	6258.4
1016.95	2902.2756	7159.95	6271.1
1017.0658	2903.3946	7172.6	6285.4
1017.1815	2904.513	7181.85	6290.15
1017.2971	2905.6308	7180.75	6292.9
1017.4127	2906.7479	7178.05	6289.35
1017.5283	2907.8643	7199.1	6309.65
1017.6439	2908.9801	7191.4	6303.3
1017.7594	2910.0953	7180.5	6293.55
1017.8748	2911.2098	7172.9	6282.75
1017.9902	2912.3236	7159.7	6261.6
1018.1056	2913.4368	7125.85	6233.6
1018.2209	2914.5494	7077.05	6187.7
1018.3362	2915.6613	7026.25	6132.85
1018.4515	2916.7725	6981.6	6091.5
1018.5667	2917.8831	6971.8	6082.3
1018.6819	2918.9931	6931.6	6041.45
1018.797	2920.1024	6891.55	6001.5
1018.9121	2921.211	6860.6	5972.6
1019.0271	2922.319	6814.35	5925.35
1019.1421	2923.4264	6789.2	5902.45
1019.2571	2924.5331	6774	5886.4
1019.372	2925.6391	6730.85	5843.25
1019.4869	2926.7445	6720.5	5834
1019.6017	2927.8493	6693.85	5804.7
1019.7165	2928.9534	6701.4	5813.25
1019.8313	2930.0569	6679.65	5789.05
1019.946	2931.1597	6665.95	5776.1
1020.0606	2932.2619	6637.75	5749.25
1020.1753	2933.3634	6613.65	5725.35
1020.2899	2934.4643	6604.3	5708.55
1020.4044	2935.5645	6570.85	5675.4
1020.5189	2936.6641	6534.7	5643.1
1020.6334	2937.763	6471.65	5583.9
1020.7478	2938.8613	6429.55	5540.8
1020.8622	2939.959	6385.05	5492.2
1020.9765	2941.056	6301.9	5414.8
1021.0908	2942.1523	6170.35	5280.25
1021.2051	2943.248	6114.9	5227.2
1021.3193	2944.3431	6004.05	5115.85
1021.4334	2945.4375	5902.3	5012.8
1021.5476	2946.5313	5790.15	4903.65
1021.6617	2947.6244	5685.7	4797.6
1021.7757	2948.7169	5566.6	4677.9
1021.8897	2949.8087	5471.5	4582.05
1022.0037	2950.8999	5385.35	4495.65
1022.1176	2951.9904	5282.2	4395.05
1022.2315	2953.0803	5206.1	4319.2
1022.3453	2954.1696	5136.6	4249.45
1022.4591	2955.2582	5064.6	4176.15
1022.5728	2956.3462	5017	4130.1
1022.6865	2957.4335	4941.15	4051.2
1022.8002	2958.5202	4909.25	4020.1
1022.9138	2959.6062	4862.3	3974.6
1023.0274	2960.6916	4844.75	3957.2
1023.141	2961.7764	4814.1	3925.25
1023.2545	2962.8605	4785.95	3896.8
1023.3679	2963.9439	4752.1	3865.7
1023.4813	2965.0267	4721.1	3831.25
1023.5947	2966.1089	4735.85	3824.55
1023.708	2967.1905	4693.5	3806.35
1023.8213	2968.2714	4670.05	3783.2
1023.9346	2969.3516	4668	3781.35
1024.0478	2970.4312	4659.6	3765.1
1024.1609	2971.5102	4631.75	3744.3
1024.274	2972.5885	4620.45	3734.05
1024.3871	2973.6662	4630.65	3737.25
1024.5002	2974.7432	4580.2	3693.3
1024.6132	2975.8196	4563.1	3675.15
1024.7261	2976.8954	4543.65	3656.6
1024.839	2977.9705	4534.6	3646.95
1024.9519	2979.045	4495	3607.35
1025.0647	2980.1188	4477.8	3589
1025.1775	2981.192	4462.15	3576
1025.2902	2982.2645	4422	3534.15
1025.4029	2983.3364	4377	3488.95
1025.5156	2984.4077	4337.8	3450.85
1025.6282	2985.4783	4326.55	3432.85
1025.7407	2986.5483	4290	3402.6
1025.8532	2987.6177	4229.3	3344
1025.9657	2988.6864	4189.05	3299.6
1026.0782	2989.7545	4150.05	3260.05
1026.1906	2990.8219	4123.5	3236.45
1026.3029	2991.8887	4075.05	3184.95
1026.4152	2992.9548	4041.5	3154.2
1026.5275	2994.0204	4001.45	3115.3
1026.6397	2995.0852	3957.4	3070.6
1026.7519	2996.1495	3926.4	3037.65
1026.864	2997.2131	3897.95	3011.2
1026.9761	2998.276	3872.55	2985.25
1027.0882	2999.3383	3842.9	2953.8
1027.2002	3000.4	3815.3	2923.8
1027.3122	3001.4611	3786.1	2899.85
1027.4241	3002.5215	3754.45	2866.3
1027.536	3003.5812	3729.3	2842.85
1027.6478	3004.6404	3721.5	2834.25
1027.7596	3005.6989	3693.95	2804.6
1027.8714	3006.7567	3669.05	2780.9
1027.9831	3007.8139	3678.75	2771.95
1028.0947	3008.8705	3635.65	2746.2
1028.2064	3009.9264	3627.25	2736.3
1028.3179	3010.9818	3608.5	2720.7
1028.4295	3012.0364	3606.05	2716.35
1028.541	3013.0905	3584.7	2695.15
1028.6524	3014.1439	3571.35	2683.35
1028.7638	3015.1966	3569.4	2682.75
1028.8752	3016.2487	3544.1	2657.7
1028.9865	3017.3002	3537.85	2645.3
1029.0978	3018.3511	3525.6	2639.35
1029.209	3019.4013	3514.4	2627.95
1029.3202	3020.4509	3510.45	2624
1029.4314	3021.4998	3486.45	2599.4
1029.5425	3022.5481	3500.35	2611.8
1029.6535	3023.5958	3478.55	2588.8
1029.7645	3024.6428	3473.3	2583.2
1029.8755	3025.6892	3460.35	2573.05
1029.9864	3026.735	3447.45	2559.05
1030.0973	3027.7802	3450.1	2562.7
1030.2082	3028.8247	3434.05	2546.6
1030.319	3029.8685	3420.75	2530.7
1030.4297	3030.9118	3417.35	2528.85
1030.5404	3031.9544	3408.2	2521.35
1030.6511	3032.9963	3405.3	2518
1030.7617	3034.0376	3400.15	2513.45
1030.8723	3035.0783	3386	2495.45
1030.9829	3036.1184	3381	2490.65
1031.0934	3037.1578	3381	2494.4
1031.2038	3038.1966	3366.8	2477.15
1031.3142	3039.2348	3357.5	2471.1
1031.4246	3040.2723	3360.65	2462.15
1031.5349	3041.3092	3360.3	2474.25
1031.6452	3042.3455	3342.2	2453.35
1031.7554	3043.3811	3323.5	2435.15
1031.8656	3044.4161	3312.35	2422.6
1031.9758	3045.4505	3294.75	2409.25
1032.0859	3046.4842	3290	2401.5
1032.1959	3047.5173	3272.9	2387.15
1032.3059	3048.5498	3254.85	2367.8
1032.4159	3049.5816	3260.95	2372.45
1032.5258	3050.6128	3234.75	2343.65
1032.6357	3051.6434	3226.7	2338.45
1032.7455	3052.6734	3206.1	2317.95
1032.8553	3053.7027	3184.4	2295.95
1032.9651	3054.7314	3191.15	2302.8
1033.0748	3055.7594	3162.1	2274.6
1033.1845	3056.7868	3163.4	2275.25
1033.2941	3057.8136	3157.65	2270.45
1033.4037	3058.8398	3127.2	2238.9
1033.5132	3059.8653	3107.15	2216.95
1033.6227	3060.8902	3113.05	2227.8
1033.7321	3061.9145	3094.05	2207.2
1033.8415	3062.9381	3081.6	2193.95
1033.9509	3063.9612	3080.2	2177.15
1034.0602	3064.9835	3054.6	2167.65
1034.1694	3066.0053	3045.7	2157.95
1034.2787	3067.0264	3033.5	2146.4
1034.3878	3068.0469	3027.25	2139.25
1034.497	3069.0668	3011.5	2120.9
1034.6061	3070.086	2996.2	2110
1034.7151	3071.1046	2975.25	2089.15
1034.8241	3072.1226	2975.7	2087.4
1034.9331	3073.1399	2947.85	2060.6
1035.042	3074.1567	2934.75	2046.4
1035.1508	3075.1727	2913.95	2023.25
1035.2597	3076.1882	2901.5	2013.9
1035.3684	3077.203	2884.85	1997.1
1035.4772	3078.2173	2882.8	1994
1035.5859	3079.2308	2868.8	1978.55
1035.6945	3080.2438	2856.6	1966.6
1035.8031	3081.2561	2836.15	1946.7
1035.9117	3082.2678	2829.4	1941.25
1036.0202	3083.2789	2816.85	1930.25
1036.1286	3084.2893	2810.95	1924.4
1036.2371	3085.2991	2782.7	1894.4
1036.3454	3086.3083	2782.6	1891
1036.4538	3087.3169	2747.6	1857.7
1036.562	3088.3248	2758	1868.55
1036.6703	3089.3321	2735.7	1846.15
1036.7785	3090.3388	2725.65	1838.7
1036.8866	3091.3449	2708.15	1820.95
1036.9948	3092.3503	2702.95	1812.7
1037.1028	3093.3551	2700.7	1814.7
1037.2108	3094.3593	2691.85	1804.75
1037.3188	3095.3629	2679.7	1794.1
1037.4267	3096.3658	2675.45	1786.05
1037.5346	3097.3681	2653.25	1765.9
1037.6425	3098.3698	2643.55	1755.05
1037.7503	3099.3708	2638.3	1745.8
1037.858	3100.3713	2620.85	1733.65
1037.9657	3101.3711	2619.05	1730.85
1038.0734	3102.3702	2721	1691.65
1038.181	3103.3688	2613.95	1727
1038.2886	3104.3667	2582.5	1695.7
1038.3961	3105.364	2576.8	1688.65
1038.5036	3106.3607	2556.05	1664.6
1038.611	3107.3568	2552.5	1663.95
1038.7184	3108.3522	2540.15	1652.25
1038.8257	3109.347	2535.8	1646.05
1038.933	3110.3412	2518.55	1626.5
1039.0403	3111.3348	2516	1629.4
1039.1475	3112.3277	2501.15	1614.75
1039.2547	3113.32	2477.1	1592.3
1039.3618	3114.3117	2482.25	1594.25
1039.4689	3115.3028	2473.25	1585.55
1039.5759	3116.2932	2460.2	1569.6
1039.6829	3117.2831	2456.1	1564.75
1039.7898	3118.2723	2455.5	1568.6
1039.8967	3119.2608	2440.75	1554.65
1040.0035	3120.2488	2434.25	1547.55
1040.1103	3121.2361	2424.45	1537.1
1040.2171	3122.2229	2404.95	1517.95
1040.3238	3123.209	2402.2	1513.3
1040.4305	3124.1944	2401.75	1515.2
1040.5371	3125.1793	2381.25	1491.8
1040.6437	3126.1635	2386.8	1498.65
1040.7502	3127.1471	2362.75	1476.2
1040.8567	3128.1301	2363.85	1475.6
1040.9631	3129.1125	2353.7	1465.85
1041.0695	3130.0942	2349.95	1462.85
1041.1759	3131.0753	2349.8	1454.45
1041.2822	3132.0558	2338.5	1448.55
1041.3884	3133.0357	2334.75	1445.7
1041.4946	3134.015	2333.35	1446.65
1041.6008	3134.9936	2308.5	1420.65
1041.7069	3135.9716	2329.55	1421.4
1041.813	3136.949	2310.65	1422.35
1041.919	3137.9258	2299.9	1406
1042.025	3138.902	2297.2	1404.35
1042.1309	3139.8775	2290.85	1403.5
1042.2368	3140.8524	2282.35	1395.2
1042.3427	3141.8267	2278.1	1386.75
1042.4485	3142.8004	2271.7	1384.75
1042.5542	3143.7735	2263.9	1371.25
1042.6599	3144.7459	2260.35	1370.1
1042.7656	3145.7178	2255.95	1366.35
1042.8712	3146.689	2242.9	1356.5
1042.9768	3147.6596	2237.75	1350.4
1043.0823	3148.6295	2219.8	1333.5
1043.1878	3149.5989	2219.55	1331.85
1043.2932	3150.5676	2212.2	1325.9
1043.3986	3151.5357	2203.35	1318.3
1043.5039	3152.5032	2191.7	1304.8
1043.6092	3153.4701	2183.8	1296.55
1043.7145	3154.4364	2181.35	1290.75
1043.8197	3155.402	2168.6	1281.65
1043.9248	3156.367	2168.3	1278.3
1044.03	3157.3315	2197.05	1265.4
1044.135	3158.2952	2155.2	1268.65
1044.24	3159.2584	2140.2	1253.15
1044.345	3160.221	2144.9	1255.55
1044.4499	3161.1829	2131.25	1244.25
1044.5548	3162.1442	2122.3	1235
1044.6596	3163.105	2116.45	1227.7
1044.7644	3164.065	2103.25	1214.4
1044.8692	3165.0245	2091.9	1202.4
1044.9739	3165.9834	2096.9	1210.9
1045.0785	3166.9416	2086.6	1200.35
1045.1831	3167.8993	2079.8	1191.95
1045.2877	3168.8563	2070.55	1184.1
1045.3922	3169.8127	2059.2	1172.6
1045.4966	3170.7684	2057.05	1170.35
1045.6011	3171.7236	2047	1156.5
1045.7054	3172.6782	2048.45	1161.7
1045.8098	3173.6321	2047.1	1157.4
1045.914	3174.5854	2040	1149.1
1046.0183	3175.5381	2027.05	1138.8
1046.1224	3176.4902	2024.75	1137.45
1046.2266	3177.4417	2014.45	1128.1
1046.3307	3178.3926	2008	1121.75
1046.4347	3179.3428	2005.05	1119.35
1046.5387	3180.2924	1997.8	1110.25
1046.6427	3181.2415	1989.6	1099
1046.7466	3182.1899	1983.6	1095
1046.8504	3183.1377	1972.25	1085.6
1046.9542	3184.0848	1976.6	1086.25
1047.058	3185.0314	1963.35	1075.75
1047.1617	3185.9773	1962.8	1074.9
1047.2654	3186.9227	1954.4	1068.85
1047.369	3187.8674	1950.45	1063.15
1047.4726	3188.8115	1951.5	1060.2
1047.5761	3189.755	1940.3	1054.5
1047.6796	3190.6979	1932.8	1045.75
1047.783	3191.6402	1931.9	1047.05
1047.8864	3192.5818	1925.4	1037.55
1047.9898	3193.5229	1941.5	1029.25
1048.0931	3194.4633	1920.75	1034.65
1048.1963	3195.4031	1907.15	1018.9
1048.2995	3196.3423	1902.6	1014.75
1048.4027	3197.2809	1894.6	1006.9
1048.5058	3198.2189	1904	1016.5
1048.6089	3199.1563	1892.7	999.25
1048.7119	3200.0931	1877.25	990.25
1048.8148	3201.0292	1873.9	990
1048.9178	3201.9648	1875.2	988.4
1049.0206	3202.8997	1873.35	983.6
1049.1235	3203.834	1862.55	974.7
1049.2262	3204.7677	1849.5	960.5
1049.329	3205.7008	1850.55	960.45
1049.4317	3206.6333	1855.65	969.3
1049.5343	3207.5652	1840.45	950.05
1049.6369	3208.4964	1845.95	959.1
1049.7394	3209.4271	1830.55	942.5
1049.8419	3210.3571	1833.7	948.7
1049.9444	3211.2865	1828.8	940.45
1050.0468	3212.2154	1826.5	939.7
1050.1491	3213.1436	1816.7	928.45
1050.2514	3214.0712	1827.8	933.7
1050.3537	3214.9982	1811.5	924.05
1050.4559	3215.9246	1798.7	912.25
1050.5581	3216.8503	1802.7	916.25
1050.6602	3217.7755	1798.65	909.35
1050.7623	3218.7001	1791.15	902.95
1050.8643	3219.624	1779.85	891.95
1050.9663	3220.5473	1779.6	893.05
1051.0682	3221.4701	1780.2	893.65
1051.1701	3222.3922	1770.7	881.9
1051.2719	3223.3137	1764.05	879.4
1051.3737	3224.2346	1769.35	881.15
1051.4754	3225.1549	1755.3	868.35
1051.5771	3226.0746	1743.55	856.15
1051.6788	3226.9937	1748.65	862.2
1051.7804	3227.9121	1743	856
1051.8819	3228.83	1740.95	854.35
1051.9834	3229.7473	1735.1	848.1
1052.0849	3230.6639	1728.75	839.2
1052.1863	3231.5799	1716.05	832.25
1052.2876	3232.4954	1707.3	819.85
1052.3889	3233.4102	1708.45	821.2
1052.4902	3234.3244	1707.9	822.2
1052.5914	3235.238	1701.5	814.7
1052.6926	3236.151	1712.75	801.05
1052.7937	3237.0634	1696.05	810.5
1052.8948	3237.9752	1682.05	794.75
1052.9958	3238.8864	1670.55	783.2
1053.0968	3239.797	1677.9	788.4
1053.1977	3240.7069	1674.45	788.45
1053.2986	3241.6163	1673.3	785.75
1053.3994	3242.5251	1662.2	776.55
1053.5002	3243.4332	1664.15	778.3
1053.6009	3244.3408	1655.95	768.9
1053.7016	3245.2477	1651.3	762.65
1053.8022	3246.154	1644.4	755.3
1053.9028	3247.0598	1637.85	748.75
1054.0034	3247.9649	1634.95	747.3
1054.1039	3248.8694	1631.6	744.25
1054.2043	3249.7733	1633.7	746.9
1054.3047	3250.6766	1630.15	742.95
1054.4051	3251.5793	1620.75	733.2
1054.5054	3252.4814	1607.25	722.2
1054.6056	3253.3829	1611.4	724.5
1054.7058	3254.2838	1606.45	718.55
1054.806	3255.1841	1599.3	712.9
1054.9061	3256.0838	1601.8	714.15
1055.0061	3256.9829	1585.6	698.85
1055.1062	3257.8814	1581	692.7
1055.2061	3258.7792	1574.6	684.75
1055.306	3259.6765	1569.85	681.3
1055.4059	3260.5731	1558.2	672.7
1055.5057	3261.4692	1553.5	666
1055.6055	3262.3647	1539.8	652.2
1055.7052	3263.2595	1532.25	644.65
1055.8049	3264.1538	1528.65	641.9
1055.9045	3265.0474	1517.35	626.6
1056.0041	3265.9404	1509.8	623.05
1056.1036	3266.8329	1500.65	613.95
1056.2031	3267.7247	1490	593.15
1056.3025	3268.616	1470.65	584.7
1056.4019	3269.5066	1458.35	570
1056.5013	3270.3966	1444.1	555.75
1056.6005	3271.286	1434.9	547.65
