Software Version:	3.9.2.0
Unit SN:	10000200
Spectrometer SN:	6960
Date:	3/6/2024 9:55:24 AM
Data Line Index:	25
Spectral Points:	2048
Integration time (ms):	125
Averages:	20
Delay (ms):	30
Sequence Number:	1
Processing:	dark subtract
Laser Power (mW):	300
Laser Current (mA):	826
Laser Diode Temp (C):	25.1
Laser Case Temp (C):	24.5
System Temp (C):	24.3
Spectrometer Temp (C):	21.9
CCD Temp (C):	-0.005
Secondary Temp (C):	20.008
Heatsink Temp (C):	18.221
CCDPCB Temp (C):	31.027
SecondaryPCB Temp (C):	26.214

Wavelength	RamanShift	Raw Counts	Dark Subtracted
787.061	30.1047	643.3	234.65
787.2016	32.3739	649.45	242.1
787.3422	34.6426	668.25	261.5
787.4828	36.9109	689.75	281.25
787.6235	39.1787	709.2	296.35
787.7642	41.4461	724.95	306.4
787.9049	43.7131	748.7	328.9
788.0456	45.9796	772.95	351.7
788.1863	48.2456	793.9	367.05
788.3271	50.5112	826.65	395.8
788.4679	52.7764	847.3	412.7
788.6087	55.0411	875.15	435.25
788.7496	57.3054	901.05	455.8
788.8904	59.5692	932.2	485.45
789.0313	61.8326	968.8	521.75
789.1722	64.0955	1008.65	557.65
789.3132	66.3579	1049.3	595.9
789.4541	68.6199	1109.7	650.3
789.5951	70.8815	1215.05	750.65
789.7361	73.1426	1430.3	961.7
789.8771	75.4032	1977.7	1507.05
790.0181	77.6634	3351.4	2876.9
790.1592	79.9231	6795.7	6316.05
790.3003	82.1824	15016.45	14529.55
790.4414	84.4412	32170.15	31669.05
790.5825	86.6995	47775.45	47257.25
790.7237	88.9574	54475.2	53944.35
790.8648	91.2148	57366.5	56824.8
791.006	93.4717	58153.9	57607.5
791.1472	95.7282	58505.2	57951.75
791.2885	97.9842	58676.9	58123.75
791.4297	100.2398	58721.3	58165.05
791.571	102.4949	58731.9	58173.35
791.7123	104.7495	58752.85	58190.45
791.8536	107.0036	58669.35	58104.85
791.9949	109.2573	58762.4	58199.05
792.1363	111.5105	58683.35	58119.1
792.2777	113.7632	58741.5	58172.8
792.4191	116.0154	58785.2	58208.55
792.5605	118.2672	58894.75	58321.75
792.7019	120.5185	58902.3	58331.75
792.8434	122.7693	58895.9	58318.5
792.9849	125.0197	58828.45	58246.2
793.1264	127.2696	59056	58471.4
793.2679	129.519	59032.6	58444.4
793.4094	131.7679	59127.5	58538.05
793.551	134.0163	58945.55	58351.75
793.6926	136.2642	59037.65	58438.65
793.8342	138.5117	59188.25	58589.5
793.9758	140.7587	59138.25	58537.45
794.1175	143.0052	59174	58569.95
794.2591	145.2512	59034.65	58428.95
794.4008	147.4967	59178.55	58572.5
794.5425	149.7417	59135.2	58525.35
794.6842	151.9863	59136.35	58524.55
794.826	154.2304	59059.15	58443
794.9677	156.4739	59105.85	58482.3
795.1095	158.717	59217.95	58595.25
795.2513	160.9596	59163.6	58536.1
795.3931	163.2017	59059	58431.2
795.535	165.4433	59185.05	58554.85
795.6768	167.6844	59111.4	58479.7
795.8187	169.925	59184.95	58551.55
795.9606	172.1651	59097.55	58456.45
796.1025	174.4047	59163.1	58519.4
796.2445	176.6439	59140.45	58495.7
796.3864	178.8825	59122.4	58472.65
796.5284	181.1206	59248.85	58596.85
796.6704	183.3582	59251.8	58592.05
796.8124	185.5954	59187.2	58528.95
796.9544	187.832	59233.95	58573.1
797.0965	190.0681	59150.85	58489.7
797.2386	192.3037	59259.7	58590.3
797.3806	194.5388	59438.85	58769
797.5228	196.7734	59128.45	58456.35
797.6649	199.0075	59430.5	58756.4
797.807	201.2411	59332.3	58658.75
797.9492	203.4742	59512.25	58835.6
798.0914	205.7068	59488.2	58807.95
798.2336	207.9389	59487.9	58802.95
798.3758	210.1704	59463.25	58787.5
798.518	212.4015	59600.4	58935.6
798.6603	214.632	59449.55	58790.9
798.8025	216.862	59634.75	58975.8
798.9448	219.0915	59547.3	58887.1
799.0871	221.3205	59530.45	58867.5
799.2294	223.549	59695.75	59035.5
799.3718	225.777	59660.55	58999.15
799.5141	228.0044	59751.1	59082.1
799.6565	230.2314	59710.9	59038.6
799.7989	232.4578	59711.7	59037.45
799.9413	234.6837	59734.95	59049.7
800.0837	236.909	59940.05	59256.25
800.2262	239.1339	59632.5	58924.9
800.3687	241.3582	59798.55	59105.05
800.5111	243.582	59787.15	59063.6
800.6536	245.8053	59815.8	59105.9
800.7961	248.0281	59841.35	59135.4
800.9387	250.2503	59861.5	59151.35
801.0812	252.472	59801.7	59091.05
801.2238	254.6932	59857.7	59147.1
801.3664	256.9139	59819.95	59108.3
801.509	259.134	60000.1	59279.8
801.6516	261.3536	59795.1	59079.75
801.7942	263.5727	59905.95	59186.95
801.9369	265.7912	59852	59136.3
802.0795	268.0092	59872.75	59151.25
802.2222	270.2267	59903.1	59185.65
802.3649	272.4436	59817.85	59096.95
802.5076	274.6601	59900.25	59169.75
802.6504	276.8759	59935.45	59209.3
802.7931	279.0913	59905.65	59180.55
802.9359	281.3061	59931.6	59203.3
803.0787	283.5204	59938.6	59207
803.2215	285.7341	59930.45	59193.55
803.3643	287.9473	59992.25	59248.65
803.5071	290.16	59962.2	59223.25
803.6499	292.3721	59994.7	59261.45
803.7928	294.5837	59919.65	59187.15
803.9357	296.7947	59871.8	59138.55
804.0786	299.0052	60020.95	59288.35
804.2215	301.2152	59951.15	59215.1
804.3644	303.4246	60008.7	59275.55
804.5074	305.6334	59995.15	59261.9
804.6503	307.8418	59919.25	59181.55
804.7933	310.0495	59918.2	59178.55
804.9363	312.2568	59915.1	59177.05
805.0793	314.4635	59889.65	59144.9
805.2223	316.6696	59926.35	59182.45
805.3653	318.8752	59965.45	59211.45
805.5084	321.0802	59778.2	59029.05
805.6514	323.2847	59850.55	59100.45
805.7945	325.4887	59854.65	59106.85
805.9376	327.692	59814	59063.4
806.0807	329.8949	59882.1	59130.35
806.2238	332.0972	59835.1	59078.55
806.367	334.2989	59867	59109.7
806.5101	336.5001	59937	59177.6
806.6533	338.7007	59821.15	59061.95
806.7965	340.9008	59882.1	59120.85
806.9397	343.1003	59875.3	59112.1
807.0829	345.2992	59918.65	59154.7
807.2261	347.4976	59847.1	59081.75
807.3693	349.6955	59864.45	59093.65
807.5126	351.8927	59847.55	59078.15
807.6559	354.0895	59907.3	59124.45
807.7991	356.2856	59881.75	59110
807.9424	358.4812	59938.9	59163.85
808.0857	360.6763	59847.35	59071.2
808.2291	362.8707	59900.5	59122.35
808.3724	365.0646	59869.3	59089.75
808.5158	367.258	59869.6	59090.35
808.6591	369.4508	59784.3	58998.75
808.8025	371.643	59915.55	59133.7
808.9459	373.8346	59841.75	59054.85
809.0893	376.0257	59837.05	59049.35
809.2327	378.2162	59815.65	59028.75
809.3762	380.4062	59729.55	58944.2
809.5196	382.5956	59807.1	59022.25
809.6631	384.7844	59797.45	59017.1
809.8066	386.9726	59814.95	59031.4
809.9501	389.1603	59794.6	59016.85
810.0936	391.3474	59739	58927.8
810.2371	393.5339	59791.8	59010.2
810.3806	395.7199	59663.75	58883.7
810.5241	397.9052	59687.05	58907.35
810.6677	400.09	59710.25	58931.2
810.8113	402.2743	59775.3	58994.75
810.9548	404.4579	59692.4	58906.95
811.0984	406.641	59689.25	58904.5
811.2421	408.8235	59743.3	58957.45
811.3857	411.0054	59762.3	58970.95
811.5293	413.1868	59791.9	58996.2
811.673	415.3675	59723.7	58926.65
811.8166	417.5477	59770.9	58972.5
811.9603	419.7273	59772.4	58972.55
812.104	421.9064	59685.05	58880.1
812.2477	424.0848	59690.2	58889.35
812.3914	426.2627	59734.1	58931.25
812.5351	428.4399	59644.65	58843.75
812.6788	430.6166	59552.4	58746.55
812.8226	432.7928	59633.15	58825.9
812.9663	434.9683	59543.45	58739.35
813.1101	437.1432	59514.7	58708
813.2539	439.3176	59592.25	58786.05
813.3977	441.4914	59435.9	58632.3
813.5415	443.6645	59465.65	58658.25
813.6853	445.8371	59465.6	58658.85
813.8291	448.0091	59378.25	58571.3
813.973	450.1806	59347.8	58540.4
814.1168	452.3514	59346.1	58538.4
814.2607	454.5216	59263.65	58446.1
814.4046	456.6913	59336.15	58523.2
814.5485	458.8603	59374.55	58561.55
814.6924	461.0288	59246.5	58436.7
814.8363	463.1967	59353.2	58544.35
814.9802	465.3639	59321.2	58509.9
815.1241	467.5306	59121.6	58310.1
815.2681	469.6967	59234.65	58425.65
815.412	471.8622	59274.05	58464.15
815.556	474.0271	59215.6	58406.5
815.7	476.1914	59217.25	58401.7
815.844	478.3551	59221.05	58404.1
815.988	480.5182	59349.95	58535.85
816.132	482.6807	59186.8	58375.15
816.276	484.8426	59214.85	58404.85
816.4201	487.0039	59349.7	58539.3
816.5641	489.1647	59323.85	58507.2
816.7082	491.3248	59188.6	58372.2
816.8522	493.4843	59358.85	58544.05
816.9963	495.6432	59357.8	58541.5
817.1404	497.8015	59160.35	58333.6
817.2845	499.9592	59291.8	58467.5
817.4286	502.1163	59272.8	58446.8
817.5727	504.2728	59228.8	58408.15
817.7168	506.4287	59219.15	58400.6
817.861	508.5839	59140.45	58321.8
818.0051	510.7386	59174.15	58356.5
818.1493	512.8927	59220.2	58393.85
818.2935	515.0461	59194.6	58369.1
818.4377	517.199	59264.4	58438.05
818.5818	519.3512	59153.6	58328.15
818.726	521.5029	59136.15	58302.9
818.8703	523.6539	59166.6	58337.35
819.0145	525.8043	59070.65	58243.3
819.1587	527.9541	59145.7	58312.3
819.303	530.1033	59150.85	58323.2
819.4472	532.2519	59089.05	58259.3
819.5915	534.3999	59147.35	58316.75
819.7357	536.5472	59181.35	58348
819.88	538.694	59039.75	58214.8
820.0243	540.8401	59108.95	58277.4
820.1686	542.9856	59137.35	58302.1
820.3129	545.1305	59184.1	58343.2
820.4572	547.2748	59076.4	58235.85
820.6016	549.4185	59054.8	58213.8
820.7459	551.5615	59138.1	58299.25
820.8902	553.704	59091.45	58249.4
821.0346	555.8458	59010.7	58175.75
821.1789	557.987	59043.2	58205.9
821.3233	560.1276	59081.35	58242.3
821.4677	562.2675	59017.9	58176.65
821.6121	564.4069	59038	58197.1
821.7565	566.5456	59112.05	58272.15
821.9009	568.6837	59009.95	58173.35
822.0453	570.8212	59025.15	58186.4
822.1897	572.958	58890.8	58048.85
822.3342	575.0942	58985.75	58150.15
822.4786	577.2299	58852.45	58015.4
822.6231	579.3648	58841.6	58007.15
822.7675	581.4992	58804.15	57972.5
822.912	583.6329	58748.3	57917.2
823.0565	585.766	58746.65	57913.1
823.201	587.8985	58771.6	57938.3
823.3454	590.0304	58649.4	57798.5
823.4899	592.1616	58718.45	57872.1
823.6345	594.2922	58640.6	57793.7
823.779	596.4222	58586.65	57740.25
823.9235	598.5515	58585.7	57739.2
824.068	600.6802	58619.3	57774.85
824.2126	602.8083	58507.05	57664.6
824.3571	604.9358	58516.35	57671.5
824.5017	607.0626	58553.8	57705.5
824.6462	609.1888	58427.35	57573.85
824.7908	611.3144	58509.75	57658.15
824.9354	613.4393	58457.15	57604.45
825.08	615.5636	58415	57564.6
825.2246	617.6873	58458.2	57606
825.3692	619.8103	58385.55	57533.4
825.5138	621.9327	58441.9	57588.15
825.6584	624.0544	58452.25	57604.65
825.803	626.1756	58387.3	57537.95
825.9477	628.2961	58400.75	57548.05
826.0923	630.4159	58341.45	57487.65
826.237	632.5351	58296.65	57441.1
826.3816	634.6537	58407.4	57550.9
826.5263	636.7716	58262.5	57405.15
826.6709	638.8889	58304.5	57446.4
826.8156	641.0056	58323.75	57466.25
826.9603	643.1216	58325.75	57466.15
827.105	645.237	58352	57494.8
827.2497	647.3518	58258.25	57403.1
827.3944	649.4659	58294.7	57441.45
827.5391	651.5793	58286	57433.5
827.6838	653.6922	58278.55	57424.1
827.8285	655.8043	58178.7	57322.3
827.9733	657.9159	58292.8	57437.75
828.118	660.0268	58078.5	57221.7
828.2627	662.137	58193.55	57336.8
828.4075	664.2466	58195	57335.15
828.5522	666.3556	58137.1	57275.7
828.697	668.4639	58140.2	57276.65
828.8418	670.5716	58129	57273.5
828.9865	672.6786	58149.75	57289.25
829.1313	674.785	58060.7	57196.15
829.2761	676.8907	58013.6	57151.4
829.4209	678.9958	58059.75	57197.8
829.5657	681.1002	58075.9	57211.65
829.7105	683.204	57979.3	57112.35
829.8553	685.3072	57952.75	57087.85
830.0001	687.4097	57962.4	57099.05
830.1449	689.5115	57965.2	57098.7
830.2898	691.6127	58018.05	57155.05
830.4346	693.7132	57930.15	57065.25
830.5794	695.8131	57946.2	57061.9
830.7243	697.9123	57964.95	57099.5
830.8691	700.0109	57964.65	57095.85
831.014	702.1089	57864.75	57000.1
831.1588	704.2061	57872.3	57004.75
831.3037	706.3028	57872.65	57004.2
831.4486	708.3987	57856.35	56988.55
831.5935	710.4941	57850.8	56986.15
831.7383	712.5887	57867.25	57000.25
831.8832	714.6827	57795.2	56923.8
832.0281	716.7761	57834.15	56967.05
832.173	718.8688	57858.55	56990.05
832.3179	720.9608	57807.35	56934.1
832.4628	723.0522	57803.7	56929
832.6077	725.1429	57756.55	56885.15
832.7527	727.233	57864.15	56992.5
832.8976	729.3224	57725.15	56851.9
833.0425	731.4112	57725.2	56853.95
833.1874	733.4993	57716.65	56843.4
833.3324	735.5867	57710.1	56837.4
833.4773	737.6735	57659.65	56787.35
833.6222	739.7596	57609.9	56736.45
833.7672	741.845	57602.15	56730.55
833.9122	743.9298	57619.75	56742.85
834.0571	746.014	57552.65	56680.3
834.2021	748.0974	57536.25	56661.15
834.347	750.1802	57537.65	56660.75
834.492	752.2624	57441.65	56567.55
834.637	754.3439	57420.1	56541
834.782	756.4247	57418.55	56534.85
834.9269	758.5048	57371.8	56496.55
835.0719	760.5843	57351.1	56474.4
835.2169	762.6631	57328.4	56450.25
835.3619	764.7413	57312.75	56437.8
835.5069	766.8188	57315.95	56437.7
835.6519	768.8956	57315.1	56436.3
835.7969	770.9718	57304.6	56429.15
835.9419	773.0473	57253.8	56377.55
836.0869	775.1221	57238.55	56359.9
836.232	777.1962	57206.75	56327.35
836.377	779.2697	57169.6	56288.6
836.522	781.3426	57159.75	56260.6
836.667	783.4147	57132.8	56253.25
836.8121	785.4862	57127.15	56248.9
836.9571	787.557	57085.15	56206.5
837.1021	789.6271	57092.65	56214.25
837.2472	791.6966	57050.8	56176.05
837.3922	793.7654	56953.35	56074.55
837.5373	795.8335	56957.35	56077.95
837.6823	797.901	56939.75	56060.85
837.8274	799.9678	56908.05	56025
837.9724	802.0339	56892.55	56011.55
838.1175	804.0993	56872.45	55982.45
838.2626	806.1641	56794.4	55911.8
838.4076	808.2282	56791.55	55909.2
838.5527	810.2916	56759.55	55875
838.6978	812.3544	56825.8	55945.95
838.8428	814.4164	56716.45	55835.7
838.9879	816.4778	56729.85	55847.05
839.133	818.5385	56693.55	55812.35
839.2781	820.5986	56682.8	55799.65
839.4232	822.658	56706.4	55820.45
839.5682	824.7166	56688.6	55806.65
839.7133	826.7747	56638.8	55756.35
839.8584	828.832	56642.5	55761.2
840.0035	830.8886	56643.1	55757.55
840.1486	832.9446	56650.6	55767.1
840.2937	834.9999	56530.55	55650
840.4388	837.0545	56557.85	55672.15
840.5839	839.1085	56549.8	55662.75
840.729	841.1618	56501.2	55611.55
840.8741	843.2143	56436.5	55551.75
841.0192	845.2662	56377.5	55493.1
841.1643	847.3175	56390.65	55508.1
841.3095	849.368	56267.3	55381.25
841.4546	851.4179	56332.6	55446.7
841.5997	853.467	56252.6	55368.05
841.7448	855.5155	56280.35	55394.15
841.8899	857.5633	56217.3	55332.1
842.0351	859.6105	56142.05	55256.35
842.1802	861.6569	56167.6	55281.55
842.3253	863.7027	56069.45	55183.35
842.4704	865.7478	56117.05	55229.65
842.6156	867.7922	56068.25	55179.25
842.7607	869.8359	56096.35	55210.7
842.9058	871.8789	56002.45	55115.1
843.0509	873.9212	56020.55	55100.1
843.1961	875.9629	55979.1	55088.45
843.3412	878.0039	55964	55074.25
843.4863	880.0441	55912.3	55027.55
843.6315	882.0837	55956.2	55068.7
843.7766	884.1226	55912.2	55026.2
843.9218	886.1609	55884.7	54999.9
844.0669	888.1984	55847.5	54961.05
844.212	890.2352	55967.2	55079.25
844.3572	892.2714	55840	54949.65
844.5023	894.3069	55885.5	54994.6
844.6475	896.3416	55813.45	54924.1
844.7926	898.3757	55766.75	54876.1
844.9377	900.4091	55565.8	54674.1
845.0829	902.4418	55803.5	54909.05
845.228	904.4739	55640.25	54747.1
845.3732	906.5052	55635.4	54744.3
845.5183	908.5358	55583.45	54694.1
845.6635	910.5658	55511.55	54616.8
845.8086	912.595	55523.15	54633
845.9538	914.6236	55294.2	54403.25
846.0989	916.6515	55556.85	54665.1
846.2441	918.6786	55264.2	54369.35
846.3892	920.7051	55314.9	54423.05
846.5344	922.7309	55275.05	54381.5
846.6795	924.756	55274.3	54380.4
846.8246	926.7804	55205.95	54313.95
846.9698	928.8041	54940.75	54047.4
847.1149	930.8272	55086.55	54195.35
847.2601	932.8495	55049.25	54156.1
847.4052	934.8711	54941.3	54045.95
847.5504	936.892	54814.25	53921.3
847.6955	938.9123	54912.4	54014.3
847.8407	940.9318	54802.35	53909.55
847.9858	942.9506	54733.35	53840.6
848.131	944.9688	54726.55	53837.4
848.2761	946.9862	54504.5	53612.25
848.4213	949.003	54556.35	53662.85
848.5664	951.019	54325.55	53432.3
848.7115	953.0344	54351.85	53459.85
848.8567	955.0491	54297.15	53402.7
849.0018	957.063	54368	53475.35
849.147	959.0763	54354.45	53461.65
849.2921	961.0888	54173.15	53278.2
849.4373	963.1007	54321.8	53430.1
849.5824	965.1119	54292.35	53402.8
849.7275	967.1223	54125.7	53238.7
849.8727	969.1321	54264	53375.7
850.0178	971.1412	54022.95	53134.05
850.1629	973.1495	53889.7	52995.25
850.3081	975.1572	54027.1	53100.2
850.4532	977.1641	53900.65	53009.95
850.5983	979.1704	53838	52942.95
850.7435	981.1759	53844.2	52948.8
850.8886	983.1808	53673.7	52776.05
851.0337	985.1849	53662.55	52756.35
851.1788	987.1884	53658.2	52761.55
851.324	989.1911	53727.4	52829.85
851.4691	991.1932	53317.05	52421.65
851.6142	993.1945	53383.7	52489.85
851.7593	995.1951	53478	52582.15
851.9045	997.1951	53227.7	52327.7
852.0496	999.1943	53124	52228.15
852.1947	1001.1928	53028.45	52132.5
852.3398	1003.1906	53028.75	52132
852.4849	1005.1877	52729.35	51834.45
852.63	1007.1841	52667.05	51770.5
852.7751	1009.1798	52660.05	51762.5
852.9202	1011.1748	52645.65	51748.9
853.0653	1013.1691	52601.9	51704.55
853.2104	1015.1627	52009.45	51114.1
853.3555	1017.1556	52179.6	51285.15
853.5006	1019.1477	52271	51377.9
853.6457	1021.1392	51927.6	51036.05
853.7908	1023.1299	51562.05	50670.6
853.9359	1025.12	51743.8	50852.35
854.081	1027.1093	51567.65	50680.85
854.2261	1029.0979	51542.35	50658.25
854.3712	1031.0859	51454.1	50567.35
854.5163	1033.0731	51118.15	50225.6
854.6613	1035.0596	51215.3	50320.5
854.8064	1037.0454	51170.1	50275.5
854.9515	1039.0304	50996.75	50102.15
855.0965	1041.0148	50709	49815
855.2416	1042.9985	50767.4	49869.9
855.3867	1044.9814	50903.6	50007.75
855.5317	1046.9636	50568.15	49670
855.6768	1048.9452	50574.25	49679.95
855.8219	1050.926	50504.5	49611.5
855.9669	1052.9061	50461.1	49567.7
856.112	1054.8855	50503.65	49608.4
856.257	1056.8642	50304.2	49407.2
856.4021	1058.8421	50204.95	49305.2
856.5471	1060.8194	50163.7	49267.9
856.6921	1062.7959	50076.55	49181.3
856.8372	1064.7717	50154.2	49255
856.9822	1066.7469	50057.15	49161
857.1272	1068.7213	50064.3	49163.35
857.2723	1070.695	49934.8	49037.2
857.4173	1072.6679	49785.15	48889.05
857.5623	1074.6402	49848.65	48950.2
857.7073	1076.6117	49758.35	48857.5
857.8523	1078.5826	49706.25	48806.85
857.9973	1080.5527	49660.65	48757.8
858.1423	1082.5221	49497.1	48597
858.2873	1084.4908	49513.9	48617.2
858.4323	1086.4587	49412.2	48512.65
858.5773	1088.426	49375	48476.2
858.7223	1090.3925	49310.9	48408.3
858.8673	1092.3584	49271.4	48376.45
859.0123	1094.3235	49097.65	48202.1
859.1573	1096.2879	49067.9	48169.35
859.3022	1098.2515	49070.25	48172.95
859.4472	1100.2145	49056.25	48161.3
859.5922	1102.1767	48915.5	48017.5
859.7371	1104.1382	48942.25	48045.6
859.8821	1106.099	48910.4	48010.25
860.027	1108.0591	48823.5	47924.15
860.172	1110.0185	48686.45	47787.7
860.3169	1111.9771	48757.75	47862.7
860.4619	1113.9351	48642.7	47747.15
860.6068	1115.8923	48572.65	47674.2
860.7517	1117.8488	48457.05	47560.95
860.8967	1119.8045	48250.2	47351.8
861.0416	1121.7596	48266.2	47369.6
861.1865	1123.7139	48188.2	47291.75
861.3314	1125.6675	48147.05	47249.5
861.4763	1127.6204	48104.25	47206.65
861.6212	1129.5726	47994.25	47095.65
861.7661	1131.524	47995.8	47099
861.911	1133.4748	47959.65	47062.15
862.0559	1135.4248	47838	46939.9
862.2008	1137.3741	47792.4	46896.35
862.3457	1139.3226	47710.9	46810.95
862.4905	1141.2705	47705.7	46807.3
862.6354	1143.2176	47591.1	46686.1
862.7803	1145.164	47510	46611.55
862.9251	1147.1097	47449.25	46551.65
863.07	1149.0546	47407.1	46509.25
863.2148	1150.9989	47391.4	46492.5
863.3597	1152.9424	47313.4	46413.9
863.5045	1154.8852	47332.6	46434
863.6493	1156.8272	47283.15	46384.8
863.7942	1158.7686	47292.2	46385.55
863.939	1160.7092	47107	46209.1
864.0838	1162.6491	47051.25	46151.05
864.2286	1164.5883	47111.85	46214.1
864.3734	1166.5267	46990.15	46091.3
864.5182	1168.4644	47015.85	46118.3
864.663	1170.4014	46970.75	46069.2
864.8078	1172.3377	47027.9	46132.75
864.9526	1174.2732	47030	46133.65
865.0974	1176.2081	47011.35	46114.1
865.2421	1178.1421	46981.55	46079.3
865.3869	1180.0755	47077.2	46181.2
865.5317	1182.0082	46983.55	46083.15
865.6764	1183.9401	46944.9	46047.35
865.8212	1185.8713	46802.2	45907.15
865.9659	1187.8017	46768.6	45873.3
866.1106	1189.7315	46706.15	45815.05
866.2554	1191.6605	46525.8	45635.8
866.4001	1193.5888	46391.6	45498.85
866.5448	1195.5163	46236.3	45342.9
866.6895	1197.4432	46170.85	45272.15
866.8342	1199.3693	46105.45	45211.5
866.9789	1201.2947	46006.75	45101.4
867.1236	1203.2193	45944.4	45047
867.2683	1205.1432	45779.4	44883.7
867.413	1207.0664	45754.5	44856.8
867.5576	1208.9889	45658.15	44759.05
867.7023	1210.9106	45590.05	44691.7
867.847	1212.8316	45432.7	44537.65
867.9916	1214.7519	45408.8	44500.45
868.1363	1216.6715	45263.05	44365.15
868.2809	1218.5903	45245	44347.65
868.4255	1220.5084	45161.9	44265.1
868.5701	1222.4257	45192.9	44295.65
868.7148	1224.3424	45060.05	44163.05
868.8594	1226.2583	44889.25	43987.95
869.004	1228.1735	44977.1	44076.85
869.1486	1230.0879	44688.95	43791.9
869.2932	1232.0016	44858.8	43960.85
869.4377	1233.9146	44592.2	43691.95
869.5823	1235.8269	44602.2	43704.45
869.7269	1237.7384	44557.55	43660.7
869.8715	1239.6492	44424.55	43528.95
870.016	1241.5592	44228.7	43330.45
870.1606	1243.4686	44315.9	43416.8
870.3051	1245.3772	44127.65	43230.5
870.4496	1247.285	44213.6	43317.85
870.5941	1249.1922	44019.6	43122.7
870.7387	1251.0986	44152.35	43252.15
870.8832	1253.0042	43990.05	43091.1
871.0277	1254.9092	44035.55	43136.3
871.1722	1256.8134	43722.15	42824.85
871.3167	1258.7169	43958	43058.75
871.4611	1260.6196	43718.1	42821.05
871.6056	1262.5216	43762.8	42862.75
871.7501	1264.4229	43792.45	42893.9
871.8945	1266.3234	43895.15	42997.25
872.039	1268.2232	43793.3	42894.35
872.1834	1270.1223	43586.3	42688.55
872.3278	1272.0207	43546	42647.8
872.4723	1273.9183	43531.35	42630.25
872.6167	1275.8151	43456.05	42558.6
872.7611	1277.7113	43410.75	42512.65
872.9055	1279.6067	43236.7	42337
873.0499	1281.5014	43243.85	42344.45
873.1943	1283.3953	43418.45	42520.45
873.3386	1285.2885	43397	42501
873.483	1287.181	43442.55	42546.45
873.6274	1289.0727	43596.65	42699.8
873.7717	1290.9637	43361.2	42466.45
873.9161	1292.854	43659.5	42763.65
874.0604	1294.7435	43490.7	42593.3
874.2047	1296.6323	43424.9	42528
874.349	1298.5204	43294.3	42393.9
874.4933	1300.4077	43362.6	42463.4
874.6376	1302.2943	43059.8	42161.6
874.7819	1304.1802	42995.5	42098.95
874.9262	1306.0653	42813.75	41915.7
875.0705	1307.9497	42685.6	41786.25
875.2147	1309.8333	42620.85	41723.2
875.359	1311.7162	42510.65	41611.8
875.5032	1313.5984	42508.5	41608.5
875.6475	1315.4798	42335.65	41438.4
875.7917	1317.3605	42261.3	41348.7
875.9359	1319.2405	42229.6	41331.4
876.0801	1321.1197	41964.4	41066
876.2243	1322.9982	41948	41045.3
876.3685	1324.876	41873.65	40977.55
876.5127	1326.753	41676.95	40779.3
876.6569	1328.6293	41809.35	40911.3
876.801	1330.5048	41640.8	40738.15
876.9452	1332.3796	41537.25	40640.7
877.0893	1334.2537	41447.65	40526.5
877.2335	1336.127	41453.15	40555.2
877.3776	1337.9996	41238.1	40339.8
877.5217	1339.8714	41342.1	40444.7
877.6658	1341.7426	41113.25	40171.8
877.8099	1343.6129	41233.65	40337.4
877.954	1345.4826	41152.05	40253.35
878.0981	1347.3515	40972.1	40071.15
878.2422	1349.2196	41063.8	40165.95
878.3862	1351.087	41002.05	40104.35
878.5303	1352.9537	40977.55	40080.8
878.6743	1354.8197	40925.7	40025.8
878.8184	1356.6849	40963.25	40064.4
878.9624	1358.5493	40880.35	39981.6
879.1064	1360.4131	40854.95	39955.9
879.2504	1362.276	40930.8	40034.1
879.3944	1364.1383	40757.2	39858.7
879.5384	1365.9998	40626.05	39724.35
879.6823	1367.8606	40568.55	39669.1
879.8263	1369.7206	40409.75	39511.35
879.9702	1371.5799	40337.4	39436.8
880.1142	1373.4384	40091.95	39196.2
880.2581	1375.2962	40072.85	39172.3
880.402	1377.1533	39748.3	38851.7
880.5459	1379.0096	39587.4	38690.8
880.6898	1380.8652	39555.75	38661.2
880.8337	1382.7201	39413.9	38516.7
880.9776	1384.5742	39230.35	38330.75
881.1215	1386.4275	39005.65	38107.95
881.2653	1388.2802	38884.65	37987.15
881.4092	1390.132	38851.1	37952.45
881.553	1391.9832	38760.7	37862.4
881.6968	1393.8336	38551.95	37649.3
881.8406	1395.6832	38502.3	37602.05
881.9844	1397.5322	38453.9	37554.7
882.1282	1399.3803	38285.6	37381.3
882.272	1401.2278	38180.5	37282.5
882.4158	1403.0745	38114	37214.9
882.5595	1404.9204	37990.9	37093.1
882.7033	1406.7656	37960.15	37062.7
882.847	1408.6101	37781.2	36882.05
882.9908	1410.4538	37713.9	36815.6
883.1345	1412.2968	37667.25	36767.25
883.2782	1414.139	37440.45	36545.15
883.4219	1415.9805	37499.75	36602.1
883.5656	1417.8213	37331.1	36427.5
883.7092	1419.6613	37333.55	36436.85
883.8529	1421.5006	37253	36354.9
883.9965	1423.3391	37224.15	36326.55
884.1402	1425.1769	37204.95	36307.75
884.2838	1427.0139	37293.3	36396
884.4274	1428.8502	37273.35	36376
884.571	1430.6858	37309.65	36410.8
884.7146	1432.5206	37394	36498.15
884.8582	1434.3547	37303.85	36403.6
885.0018	1436.188	37211.8	36312.6
885.1453	1438.0206	37218	36320.4
885.2889	1439.8524	37085.9	36185.25
885.4324	1441.6835	36971.95	36073.65
885.5759	1443.5139	36944.35	36043.55
885.7194	1445.3435	36815.25	35917.45
885.8629	1447.1724	36835.8	35939.45
886.0064	1449.0005	36682.2	35785.2
886.1499	1450.8279	36672.55	35773.15
886.2933	1452.6545	36662.8	35767
886.4368	1454.4804	36619.2	35722.95
886.5802	1456.3056	36533.45	35633.45
886.7237	1458.13	36532.9	35637.55
886.8671	1459.9536	36493	35598.45
887.0105	1461.7766	36280.75	35384.5
887.1539	1463.5987	36186.95	35288.1
887.2972	1465.4202	36079	35181.35
887.4406	1467.2409	35928.9	35029.75
887.584	1469.0608	35784.4	34887.7
887.7273	1470.88	35692.4	34796.1
887.8706	1472.6984	35647	34750.15
888.0139	1474.5161	35374.35	34476
888.1572	1476.3331	35380.15	34485.1
888.3005	1478.1493	35254.75	34356.4
888.4438	1479.9648	35188.5	34292.75
888.5871	1481.7795	35135.35	34237.55
888.7303	1483.5935	35141.5	34244.5
888.8736	1485.4067	34994.65	34098.35
889.0168	1487.2192	35025.7	34128.35
889.16	1489.031	34875.85	33976.85
889.3032	1490.842	34863.25	33965.45
889.4464	1492.6522	34828.15	33931.95
889.5896	1494.4618	34696.3	33797.55
889.7327	1496.2705	34735.3	33841.3
889.8759	1498.0785	34507.65	33609.65
890.019	1499.8858	34479.65	33581.5
890.1622	1501.6924	34543.9	33649.3
890.3053	1503.4981	34378.45	33482.9
890.4484	1505.3032	34405.35	33512.1
890.5914	1507.1075	34227	33329.9
890.7345	1508.911	34183.65	33289.05
890.8776	1510.7138	34091.7	33194.55
891.0206	1512.5159	34058.7	33163.25
891.1637	1514.3172	33791.55	32895.65
891.3067	1516.1178	33761.95	32868.8
891.4497	1517.9176	33807.75	32910
891.5927	1519.7166	33642.35	32747.15
891.7357	1521.515	33518.9	32617.1
891.8786	1523.3126	33452.3	32555.85
892.0216	1525.1094	33448.7	32552.3
892.1645	1526.9055	33287.6	32394.15
892.3074	1528.7008	33209.4	32315.9
892.4503	1530.4954	32980.95	32084.3
892.5932	1532.2893	33049.65	32156.55
892.7361	1534.0824	32864.2	31965.35
892.879	1535.8747	32789.2	31895.2
893.0218	1537.6663	32845.4	31951
893.1647	1539.4572	32554.85	31660
893.3075	1541.2473	32552.5	31656.5
893.4503	1543.0367	32448.75	31555
893.5931	1544.8253	32371.8	31471.8
893.7359	1546.6132	32351.35	31451.4
893.8787	1548.4003	32208	31304.75
894.0214	1550.1867	32170.65	31268.25
894.1642	1551.9723	32136.05	31238.3
894.3069	1553.7572	32087.85	31194.55
894.4496	1555.5414	32037.15	31144.6
894.5923	1557.3247	31901.9	31010.5
894.735	1559.1074	31938.7	31048.1
894.8777	1560.8893	31865.2	30973.15
895.0204	1562.6705	31858.95	30967.25
895.163	1564.4509	31731.95	30840.3
895.3056	1566.2305	31703.05	30814.4
895.4482	1568.0094	31789.95	30901.65
895.5908	1569.7876	31711.95	30820.85
895.7334	1571.565	31619.85	30728.9
895.876	1573.3417	31606.9	30713.8
896.0186	1575.1176	31499.3	30607.3
896.1611	1576.8928	31449.85	30559.35
896.3036	1578.6672	31313.2	30427.25
896.4461	1580.4409	31292.4	30404.95
896.5886	1582.2138	31154.3	30263.85
896.7311	1583.986	31123.05	30231.4
896.8736	1585.7575	31086.9	30197.9
897.0161	1587.5282	31049.35	30160.7
897.1585	1589.2981	31015.65	30129.05
897.3009	1591.0673	30895.25	30006.75
897.4433	1592.8358	30925.6	30038.6
897.5857	1594.6035	30918.5	30026.4
897.7281	1596.3704	30840.6	29952.55
897.8705	1598.1366	30752.5	29863.5
898.0128	1599.9021	30612.5	29723.35
898.1551	1601.6668	30567.65	29675.6
898.2975	1603.4308	30517.15	29627.3
898.4398	1605.194	30486.95	29592.4
898.5821	1606.9564	30382.75	29496.6
898.7243	1608.7182	30493.5	29603.8
898.8666	1610.4791	30462.25	29578.15
899.0088	1612.2394	30461.75	29578.65
899.1511	1613.9988	30417.9	29533.45
899.2933	1615.7576	30477.55	29589.7
899.4355	1617.5156	30524.75	29630.9
899.5776	1619.2728	30520.25	29630.95
899.7198	1621.0293	30384.15	29496.55
899.862	1622.785	30231.85	29343.45
900.0041	1624.54	30102.25	29210.5
900.1462	1626.2942	29918.3	29031.25
900.2883	1628.0477	29651.95	28759.7
900.4304	1629.8005	29437.8	28548.4
900.5725	1631.5525	29408.3	28522.1
900.7145	1633.3037	29153.2	28267.5
900.8566	1635.0542	29048.6	28162.4
900.9986	1636.804	28945.25	28061.7
901.1406	1638.553	28862.35	27927.2
901.2826	1640.3013	28778.6	27892
901.4245	1642.0488	28572.25	27684.5
901.5665	1643.7955	28604.6	27719.8
901.7085	1645.5416	28489.5	27604.15
901.8504	1647.2868	28445.25	27558.8
901.9923	1649.0313	28430.7	27543.85
902.1342	1650.7751	28410	27520.7
902.2761	1652.5181	28314.4	27431.05
902.4179	1654.2604	28264.45	27378.65
902.5598	1656.0019	28250.2	27365.9
902.7016	1657.7427	28252.2	27363.95
902.8434	1659.4828	28300.75	27416.1
902.9852	1661.222	28211.45	27321.95
903.127	1662.9606	28156.3	27270
903.2687	1664.6984	28050.45	27163.35
903.4105	1666.4354	27993.8	27105.85
903.5522	1668.1717	27701.35	26813.6
903.6939	1669.9072	27412.6	26522.5
903.8356	1671.642	27306.9	26417.55
903.9773	1673.3761	27142.5	26253.65
904.119	1675.1094	26944.3	26059.65
904.2606	1676.8419	26804	25919.25
904.4022	1678.5737	26609.4	25721.9
904.5439	1680.3048	26538.5	25649.75
904.6855	1682.0351	26385.35	25498.6
904.827	1683.7646	26239.85	25352.2
904.9686	1685.4934	26229.7	25344.25
905.1101	1687.2215	26033.4	25146.65
905.2517	1688.9488	25963.1	25075.2
905.3932	1690.6754	25756.3	24869.75
905.5347	1692.4012	25723.85	24837.55
905.6761	1694.1263	25653.45	24767.75
905.8176	1695.8506	25580	24694.25
905.9591	1697.5742	25503.35	24617.8
906.1005	1699.297	25380.35	24495.2
906.2419	1701.0191	25270.4	24386.6
906.3833	1702.7404	25176.5	24292.9
906.5246	1704.461	24999.55	24110.95
906.666	1706.1808	24969.45	24082.45
906.8073	1707.8999	24888.55	24001.9
906.9487	1709.6182	24818.35	23934.4
907.09	1711.3358	24749.1	23865.55
907.2313	1713.0527	24673.1	23792.55
907.3725	1714.7688	24600.8	23712
907.5138	1716.4841	24453.15	23568.2
907.655	1718.1987	24456.6	23566.8
907.7962	1719.9126	24356.15	23471.05
907.9374	1721.6257	24260.7	23374.05
908.0786	1723.338	24256	23372.45
908.2198	1725.0496	24090.85	23205.15
908.3609	1726.7605	24085.4	23198.15
908.502	1728.4706	24027.05	23142.95
908.6431	1730.18	23891.4	23003.75
908.7842	1731.8886	23827.35	22944.85
908.9253	1733.5964	23772.75	22883.7
909.0664	1735.3036	23728.7	22842.3
909.2074	1737.0099	23719	22834.8
909.3484	1738.7156	23640.75	22757.55
909.4894	1740.4204	23500.1	22613.55
909.6304	1742.1246	23500.9	22614.7
909.7714	1743.8279	23426.4	22542.5
909.9123	1745.5306	23391.95	22507.95
910.0532	1747.2325	23342	22457.45
910.1941	1748.9336	23289.95	22406.5
910.335	1750.634	23135.4	22251.75
910.4759	1752.3336	23112	22226.4
910.6168	1754.0325	23052.1	22169.55
910.7576	1755.7307	23023.6	22140
910.8984	1757.4281	23031.2	22146.05
911.0392	1759.1247	22969.75	22079
911.18	1760.8206	22915.5	22023.8
911.3208	1762.5158	22875.05	21986.25
911.4615	1764.2102	22808.35	21925.5
911.6022	1765.9039	22696.55	21810.5
911.7429	1767.5968	22684.6	21802.35
911.8836	1769.289	22616.95	21732.4
912.0243	1770.9804	22561.85	21675
912.1649	1772.6711	22566.45	21682
912.3056	1774.361	22462.7	21575.95
912.4462	1776.0502	22399.9	21514.5
912.5868	1777.7386	22388.1	21499.7
912.7274	1779.4263	22299.25	21415.55
912.8679	1781.1132	22260.1	21375.8
913.0084	1782.7994	22169.25	21284.95
913.149	1784.4849	22160.1	21277.15
913.2895	1786.1696	22109.55	21209.45
913.4299	1787.8535	22024.4	21142.25
913.5704	1789.5367	21985.35	21103.6
913.7108	1791.2192	21958.5	21075.85
913.8513	1792.9009	21898.65	20985.65
913.9917	1794.5818	21819.8	20931.5
914.132	1796.2621	21769	20887.5
914.2724	1797.9415	21726.95	20841.85
914.4128	1799.6202	21675.6	20790.95
914.5531	1801.2982	21633.45	20748.55
914.6934	1802.9755	21573.95	20688.2
914.8337	1804.6519	21552.75	20667.7
914.9739	1806.3277	21433.8	20551.6
915.1142	1808.0027	21362.5	20479.85
915.2544	1809.6769	21375.45	20492.65
915.3946	1811.3504	21291.6	20407.8
915.5348	1813.0231	21246.9	20362.9
915.675	1814.6951	21230.15	20348.2
915.8151	1816.3664	21210.9	20323.6
915.9553	1818.0369	21119.15	20234.95
916.0954	1819.7067	21045.15	20161.9
916.2355	1821.3757	21048.3	20163.25
916.3755	1823.044	20983.65	20100.8
916.5156	1824.7115	20958.15	20073.85
916.6556	1826.3783	20817.45	19935.1
916.7956	1828.0443	20815.05	19934.15
916.9356	1829.7096	20725.7	19840
917.0756	1831.3741	20764.25	19878.95
917.2155	1833.0379	20687.7	19804.15
917.3555	1834.701	20602.8	19717.9
917.4954	1836.3633	20598.85	19716.65
917.6353	1838.0248	20549.1	19664.4
917.7751	1839.6856	20508.45	19626.9
917.915	1841.3457	20478.4	19596.3
918.0548	1843.005	20394	19510.8
918.1946	1844.6636	20379.6	19497.45
918.3344	1846.3214	20310.25	19428.5
918.4742	1847.9785	20315.4	19433.5
918.6139	1849.6349	20246.5	19361.65
918.7537	1851.2904	20228.35	19334.9
918.8934	1852.9453	20172.05	19287.6
919.0331	1854.5994	20084.7	19197.5
919.1727	1856.2528	20108.75	19219.6
919.3124	1857.9054	20062.75	19178.3
919.452	1859.5572	20037.2	19156.75
919.5916	1861.2083	20021.1	19136.65
919.7312	1862.8587	19977.5	19094.75
919.8708	1864.5084	19902	19015.9
920.0103	1866.1572	19878.1	18993.9
920.1498	1867.8054	19812.45	18927.6
920.2893	1869.4528	19715.65	18829.55
920.4288	1871.0994	19665.95	18780
920.5683	1872.7453	19623.45	18739.4
920.7077	1874.3905	19595.85	18703.3
920.8471	1876.0349	19540.55	18653.55
920.9865	1877.6786	19525.55	18639.8
921.1259	1879.3215	19504.4	18620.75
921.2653	1880.9637	19512.35	18629.15
921.4046	1882.6051	19450.3	18568.7
921.5439	1884.2458	19356.3	18470.5
921.6832	1885.8858	19281.5	18396.95
921.8225	1887.525	19263.5	18378.75
921.9617	1889.1634	19195.05	18310.45
922.101	1890.8011	19118.2	18231.95
922.2402	1892.4381	19078.1	18193.65
922.3794	1894.0743	19105.55	18221.55
922.5185	1895.7098	19059.85	18175.8
922.6577	1897.3446	18978.65	18094.4
922.7968	1898.9786	18929.95	18041.35
922.9359	1900.6118	18923.4	18039.4
923.075	1902.2443	18806.65	17921.25
923.214	1903.8761	18748.5	17863.95
923.3531	1905.5071	18652.4	17767.85
923.4921	1907.1374	18600.75	17716.95
923.6311	1908.7669	18568.6	17684.5
923.77	1910.3957	18526.7	17643.95
923.909	1912.0237	18443.55	17559.15
924.0479	1913.651	18410.25	17526.9
924.1868	1915.2776	18345.2	17462.85
924.3257	1916.9034	18303.7	17422.65
924.4646	1918.5285	18223.15	17340.4
924.6034	1920.1528	18170.1	17287.95
924.7422	1921.7764	18153.15	17270.65
924.881	1923.3992	18085.15	17202.85
925.0198	1925.0213	17946.25	17063.05
925.1586	1926.6427	17901.45	17018.65
925.2973	1928.2633	18054.7	16929.75
925.436	1929.8832	17843.8	16956.1
925.5747	1931.5023	17735.65	16850.95
925.7134	1933.1207	17745.2	16861.25
925.852	1934.7383	17658.8	16772.75
925.9906	1936.3552	17578.25	16694.3
926.1292	1937.9714	17570.4	16687.45
926.2678	1939.5868	17518.3	16633.1
926.4064	1941.2015	17445.95	16561.1
926.5449	1942.8154	17335.3	16451.85
926.6834	1944.4286	17293.55	16407.3
926.8219	1946.041	17266	16359.3
926.9604	1947.6528	17144.25	16254.55
927.0988	1949.2637	17095.2	16212.65
927.2372	1950.8739	17048	16164.25
927.3756	1952.4834	17010.15	16126.4
927.514	1954.0921	16972.35	16089.55
927.6523	1955.7001	16937.7	16051.2
927.7907	1957.3074	16861.85	15980.85
927.929	1958.9139	16796.55	15915.3
928.0673	1960.5197	16759	15876.4
928.2055	1962.1247	16688.05	15807.1
928.3438	1963.729	16631.3	15749.45
928.482	1965.3325	16558.2	15652.35
928.6202	1966.9353	16526.95	15647.4
928.7584	1968.5374	16459.3	15574.35
928.8965	1970.1387	16431.05	15550.2
929.0346	1971.7393	16361.35	15477.95
929.1727	1973.3392	16313.05	15431.5
929.3108	1974.9383	16251.2	15371.75
929.4489	1976.5366	16183.85	15301.75
929.5869	1978.1342	16172.5	15289.4
929.7249	1979.7311	16107.8	15224.25
929.8629	1981.3273	16071.3	15188.1
930.0009	1982.9227	16024.7	15140.55
930.1388	1984.5173	15972.75	15090.8
930.2767	1986.1112	15899.65	15018.85
930.4146	1987.7044	15859.8	14978.5
930.5525	1989.2968	15816.65	14933.05
930.6904	1990.8885	15806.95	14924.85
930.8282	1992.4795	15773.45	14892.95
930.966	1994.0697	15735.3	14853.35
931.1038	1995.6592	15671.15	14792.4
931.2415	1997.2479	15637.65	14754.4
931.3793	1998.8359	15588.05	14706.35
931.517	2000.4232	15518.25	14637.55
931.6547	2002.0097	15460.4	14580.55
931.7923	2003.5955	15379.85	14499.2
931.93	2005.1805	15387.9	14505.7
932.0676	2006.7648	15371	14490.6
932.2052	2008.3484	15274.45	14392.3
932.3427	2009.9312	15320.95	14439.25
932.4803	2011.5133	15235.3	14355.4
932.6178	2013.0946	15186.1	14304.4
932.7553	2014.6752	15139.2	14259.1
932.8928	2016.2551	15138.3	14256.4
933.0302	2017.8342	15064.8	14185.95
933.1676	2019.4126	15037.25	14159.65
933.305	2020.9902	14943.45	14065
933.4424	2022.5672	14926.2	14045.45
933.5798	2024.1433	14891.4	14005.45
933.7171	2025.7188	14847.65	13969.8
933.8544	2027.2935	14784.85	13904.5
933.9917	2028.8674	14706.5	13827.15
934.129	2030.4406	14681.3	13801.9
934.2662	2032.0131	14620.9	13742.75
934.4034	2033.5849	14583.8	13699.55
934.5406	2035.1559	14565.35	13686.2
934.6778	2036.7261	14536.05	13655.2
934.8149	2038.2957	14479	13598
934.952	2039.8645	14455.6	13575.25
935.0891	2041.4325	14471.5	13585.75
935.2262	2042.9998	14412.15	13531.75
935.3632	2044.5664	14362.6	13484.25
935.5002	2046.1323	14302.5	13424.5
935.6372	2047.6974	14289.05	13409.1
935.7742	2049.2617	14262.1	13382.75
935.9111	2050.8254	14248.7	13364.4
936.048	2052.3883	14216.95	13335.7
936.1849	2053.9504	14166.7	13287.05
936.3218	2055.5118	14083.45	13202.8
936.4586	2057.0725	14057.3	13174.8
936.5955	2058.6325	14021.95	13143.7
936.7323	2060.1917	14007.8	13127.05
936.869	2061.7502	13944.45	13061.7
937.0058	2063.3079	13893.8	13014.85
937.1425	2064.8649	13854.05	12971.95
937.2792	2066.4212	13851.3	12971.3
937.4159	2067.9767	13801.85	12922.65
937.5525	2069.5315	13752.1	12870.95
937.6891	2071.0856	13678.1	12798.3
937.8257	2072.6389	13650	12767.45
937.9623	2074.1915	13555.25	12678.95
938.0989	2075.7433	13501.7	12621.85
938.2354	2077.2945	13484.9	12606.4
938.3719	2078.8448	13453.8	12575.65
938.5084	2080.3945	13415.25	12533.75
938.6448	2081.9434	13422.6	12541.9
938.7812	2083.4916	13349.4	12468.4
938.9176	2085.039	13311.85	12428.1
939.054	2086.5857	13283.65	12400.2
939.1903	2088.1317	13256.4	12373.45
939.3267	2089.677	13246.15	12363.2
939.463	2091.2215	13193.85	12313.9
939.5992	2092.7652	13183.95	12298.1
939.7355	2094.3083	13140.05	12258.45
939.8717	2095.8506	13129.2	12249.25
940.0079	2097.3921	13083.4	12202.6
940.1441	2098.933	13000.15	12121.55
940.2802	2100.4731	12998.55	12115.5
940.4163	2102.0124	13034.05	12136.25
940.5524	2103.5511	12970.65	12089.95
940.6885	2105.089	12930.55	12051
940.8245	2106.6261	12928.95	12048.45
940.9606	2108.1626	12889.85	12008.15
941.0965	2109.6983	12866.45	11957.65
941.2325	2111.2332	12824.4	11944.35
941.3684	2112.7675	12759.95	11877.2
941.5044	2114.301	12754.4	11870.7
941.6403	2115.8337	12733.65	11851.4
941.7761	2117.3657	12682.85	11801.9
941.912	2118.897	12668.05	11783.85
942.0478	2120.4276	12602.2	11712.8
942.1835	2121.9575	12568.65	11688.35
942.3193	2123.4866	12600.85	11705.3
942.455	2125.0149	12548.7	11664.7
942.5907	2126.5426	12468.6	11587.45
942.7264	2128.0695	12455.3	11569.15
942.8621	2129.5956	12412.75	11534.75
942.9977	2131.1211	12401.15	11516
943.1333	2132.6458	12353.85	11477.1
943.2689	2134.1698	12323.95	11442.8
943.4044	2135.693	12296	11410.25
943.54	2137.2155	12289.8	11408.1
943.6755	2138.7373	12262.25	11378.4
943.8109	2140.2584	12207	11327.35
943.9464	2141.7787	12190.5	11306.6
944.0818	2143.2983	12125.85	11246.45
944.2172	2144.8171	12060.8	11182.05
944.3526	2146.3353	12033.05	11151.3
944.4879	2147.8527	11988.3	11108.5
944.6232	2149.3693	12001.1	11121.7
944.7585	2150.8853	11936.5	11053.05
944.8938	2152.4005	11869.6	10986.9
945.029	2153.9149	11877.5	10995.9
945.1642	2155.4287	11832.45	10950.4
945.2994	2156.9417	11819.05	10936.9
945.4346	2158.454	11785.35	10901.6
945.5697	2159.9655	11764.7	10885.15
945.7048	2161.4764	11748	10865.25
945.8399	2162.9865	11688.65	10807.85
945.9749	2164.4958	11658.4	10777.1
946.1099	2166.0045	11610.2	10725.75
946.2449	2167.5124	11598.2	10719.2
946.3799	2169.0195	11585.95	10703.9
946.5148	2170.526	11549.25	10667.7
946.6498	2172.0317	11495.85	10613.9
946.7846	2173.5367	11496.5	10614.8
946.9195	2175.0409	11438.35	10557.4
947.0543	2176.5445	11454.65	10573.35
947.1891	2178.0473	11379.85	10496.45
947.3239	2179.5494	11358.1	10475.05
947.4587	2181.0507	11309.45	10426.35
947.5934	2182.5513	11303.65	10421.6
947.7281	2184.0512	11270	10388.6
947.8628	2185.5504	11239.4	10358.85
947.9974	2187.0488	11188.35	10308.5
948.132	2188.5465	11163.85	10284.65
948.2666	2190.0435	11116.35	10233.8
948.4012	2191.5397	11076.35	10193.4
948.5357	2193.0353	11028.95	10147.9
948.6702	2194.5301	10952.35	10069.35
948.8047	2196.0241	10928.9	10046.4
948.9392	2197.5175	10901	10017.25
949.0736	2199.0101	10867.55	9980.25
949.208	2200.502	10821.75	9942
949.3424	2201.9931	10780.05	9897.5
949.4767	2203.4835	10788.05	9906.6
949.611	2204.9733	10744.45	9857.5
949.7453	2206.4622	10724.4	9845.25
949.8796	2207.9505	10711.45	9828.6
950.0138	2209.438	10621.35	9743.6
950.148	2210.9248	10606.1	9724.4
950.2822	2212.4109	10569.65	9688.75
950.4164	2213.8962	10524.7	9639.35
950.5505	2215.3809	10500.75	9617.45
950.6846	2216.8648	10493.85	9609.3
950.8186	2218.3479	10429.45	9542.8
950.9527	2219.8304	10410.55	9526.15
951.0867	2221.3121	10377.85	9490.7
951.2207	2222.7931	10361.25	9478.5
951.3546	2224.2733	10314.1	9429.65
951.4886	2225.7529	10286.45	9404.6
951.6225	2227.2317	10230.6	9347.8
951.7563	2228.7098	10239.05	9363.3
951.8902	2230.1872	10149.15	9268.2
952.024	2231.6638	10174.4	9294.2
952.1578	2233.1397	10113.55	9226.15
952.2916	2234.6149	10109.1	9229.4
952.4253	2236.0894	10085.5	9203.25
952.559	2237.5632	10070.85	9178.2
952.6927	2239.0362	9994.95	9114.45
952.8263	2240.5085	9980.75	9098.35
952.9599	2241.9801	9930.1	9046.35
953.0935	2243.4509	9909.5	9028.15
953.2271	2244.921	9890.35	9007.75
953.3606	2246.3904	9855.8	8970.35
953.4941	2247.8591	9787.15	8903.6
953.6276	2249.3271	9760.65	8877.15
953.7611	2250.7943	9752	8870.65
953.8945	2252.2608	9726.05	8842.15
954.0279	2253.7266	9682.65	8798.75
954.1612	2255.1917	9675.05	8793.95
954.2946	2256.656	9646.8	8764.05
954.4279	2258.1197	9612.35	8735.5
954.5612	2259.5826	9578.6	8695.2
954.6944	2261.0447	9585.4	8703.55
954.8276	2262.5062	9504.7	8619.75
954.9608	2263.9669	9502.75	8617.6
955.094	2265.4269	9503.4	8621
955.2271	2266.8862	9473.6	8589.55
955.3602	2268.3448	9438.1	8554.75
955.4933	2269.8026	9438.15	8556.7
955.6264	2271.2598	9396.5	8514.5
955.7594	2272.7162	9368.35	8487.4
955.8924	2274.1719	9344.6	8463.85
956.0253	2275.6268	9319	8436.6
956.1583	2277.0811	9279.5	8396.05
956.2912	2278.5346	9274.45	8393.75
956.4241	2279.9874	9241.95	8361.1
956.5569	2281.4395	9234.2	8354.65
956.6897	2282.8908	9189.6	8304.1
956.8225	2284.3414	9189.1	8304.8
956.9553	2285.7914	9168.95	8289.3
957.088	2287.2406	9099.8	8219.5
957.2207	2288.689	9115.15	8232.4
957.3534	2290.1368	9100.1	8216.6
957.486	2291.5838	9054.65	8167.8
957.6186	2293.0302	9027.25	8141.25
957.7512	2294.4758	8974.05	8090.5
957.8838	2295.9206	8935.45	8051.5
958.0163	2297.3648	8917.8	8036
958.1488	2298.8082	8896.05	8013.6
958.2813	2300.251	8889.2	8005.5
958.4137	2301.693	8867.5	7982.7
958.5461	2303.1343	8851.45	7967.85
958.6785	2304.5748	8794	7912.6
958.8108	2306.0147	8740.05	7857.05
958.9432	2307.4538	8748.85	7866.05
959.0754	2308.8922	8734.35	7853.3
959.2077	2310.3299	8706.65	7825.45
959.3399	2311.7669	8666.1	7782.75
959.4721	2313.2031	8656.1	7774.4
959.6043	2314.6387	8611.2	7728.65
959.7365	2316.0735	8612	7730.7
959.8686	2317.5076	8560.6	7677.95
960.0006	2318.941	8552	7669.8
960.1327	2320.3737	8544.3	7660.45
960.2647	2321.8056	8501.05	7615.85
960.3967	2323.2369	8462.2	7577
960.5287	2324.6674	8442.85	7558.65
960.6606	2326.0972	8431.55	7548.7
960.7925	2327.5263	8411.3	7530.2
960.9244	2328.9547	8371.85	7487.55
961.0562	2330.3823	8352.9	7470.05
961.1881	2331.8092	8327.7	7441.6
961.3198	2333.2355	8306.25	7421.1
961.4516	2334.661	8313.4	7429.4
961.5833	2336.0858	8289.55	7406.2
961.715	2337.5098	8267.85	7385.1
961.8467	2338.9332	8230.5	7349.15
961.9783	2340.3558	8207.15	7320.15
962.1099	2341.7778	8174.4	7292.3
962.2415	2343.199	8134.1	7247.15
962.373	2344.6195	8120.3	7237.95
962.5045	2346.0393	8092.25	7212.7
962.636	2347.4583	8078.7	7194.95
962.7675	2348.8767	8038	7153.15
962.8989	2350.2943	8022.75	7137.3
963.0303	2351.7113	8013	7128
963.1617	2353.1275	7984.35	7100.5
963.293	2354.543	7990.85	7100.55
963.4243	2355.9578	7941.6	7056.15
963.5556	2357.3718	7881	6998.5
963.6868	2358.7852	7854.4	6969.7
963.818	2360.1978	7809.15	6925.9
963.9492	2361.6098	7806.1	6923.45
964.0803	2363.021	7777	6889.95
964.2114	2364.4315	7775.75	6892.35
964.3425	2365.8413	7748.1	6864.5
964.4736	2367.2504	7737.7	6855.35
964.6046	2368.6587	7687.3	6806.35
964.7356	2370.0664	7648.5	6766.55
964.8666	2371.4733	7620.55	6736.4
964.9975	2372.8795	7591.1	6708.35
965.1284	2374.285	7574.3	6691.95
965.2593	2375.6899	7538.1	6655.25
965.3901	2377.0939	7510.25	6627.8
965.5209	2378.4973	7492.95	6610.85
965.6517	2379.9	7462.3	6577.5
965.7825	2381.3019	7444.65	6563.45
965.9132	2382.7032	7397.3	6515.35
966.0439	2384.1037	7390.05	6511.2
966.1745	2385.5035	7392.85	6511.45
966.3051	2386.9027	7348.8	6469.2
966.4357	2388.3011	7315.9	6430.9
966.5663	2389.6987	7298.95	6418.55
966.6968	2391.0957	7281.5	6398.65
966.8273	2392.492	7240.55	6359.4
966.9578	2393.8876	7201.75	6318.65
967.0882	2395.2824	7189.15	6308.6
967.2186	2396.6765	7162.05	6280.8
967.349	2398.07	7111.75	6230.65
967.4793	2399.4627	7129.3	6246.05
967.6097	2400.8547	7105.65	6222.1
967.7399	2402.246	7050.85	6162.2
967.8702	2403.6366	7029.9	6147.35
968.0004	2405.0265	6988.8	6108.1
968.1306	2406.4156	6963.75	6078
968.2607	2407.8041	6950.1	6061.6
968.3909	2409.1918	6948.4	6061.3
968.521	2410.5789	6910.65	6027.25
968.651	2411.9652	6878.75	5990.75
968.781	2413.3508	6863.8	5980.85
968.911	2414.7358	6827.5	5942.9
969.041	2416.12	6802.3	5921.4
969.1709	2417.5035	6780.5	5895.6
969.3008	2418.8863	6770.9	5886.85
969.4307	2420.2684	6735.45	5853.45
969.5606	2421.6497	6711.45	5828.5
969.6904	2423.0304	6686.5	5804.45
969.8201	2424.4104	6680.95	5799.2
969.9499	2425.7896	6648.2	5763.6
970.0796	2427.1682	6636.85	5755.7
970.2093	2428.546	6605.65	5720.85
970.3389	2429.9232	6606.8	5721.7
970.4685	2431.2996	6581.4	5700.35
970.5981	2432.6753	6561.7	5678.6
970.7277	2434.0503	6550.85	5667.75
970.8572	2435.4246	6507	5625.35
970.9867	2436.7982	6501.2	5616.15
971.1161	2438.1711	6504.5	5623.2
971.2456	2439.5433	6447.15	5561.45
971.375	2440.9148	6460.35	5571.15
971.5043	2442.2856	6441.25	5557.4
971.6336	2443.6557	6407.1	5523.4
971.7629	2445.025	6388.1	5504.15
971.8922	2446.3937	6372.75	5489.7
972.0214	2447.7617	6357.4	5473.45
972.1506	2449.1289	6329.2	5446.65
972.2798	2450.4955	6311.1	5424.9
972.4089	2451.8613	6317.85	5436.85
972.538	2453.2265	6294.65	5410.9
972.6671	2454.5909	6270.95	5389.55
972.7961	2455.9546	6248.6	5366.6
972.9251	2457.3177	6231.1	5349.65
973.0541	2458.68	6210.3	5325.05
973.1831	2460.0416	6205.7	5321.35
973.312	2461.4025	6208.2	5325.35
973.4408	2462.7627	6201.9	5305.2
973.5697	2464.1222	6189.5	5307.7
973.6985	2465.4811	6151.8	5269.4
973.8273	2466.8392	6115.2	5231.8
973.956	2468.1966	6118.65	5234.1
974.0847	2469.5533	6105.25	5221.1
974.2134	2470.9093	6073.3	5190.15
974.3421	2472.2645	6079.25	5193.45
974.4707	2473.6191	6051.35	5169.15
974.5993	2474.973	6029.7	5149.35
974.7278	2476.3262	5998.55	5115.35
974.8563	2477.6787	5988.7	5106.85
974.9848	2479.0305	5969.45	5086.75
975.1132	2480.3816	5961.05	5073.1
975.2417	2481.7319	5928.6	5047.3
975.37	2483.0816	5895.35	5010.3
975.4984	2484.4306	5886	5003.45
975.6267	2485.7789	5864.15	4982.15
975.755	2487.1264	5847.4	4963.7
975.8833	2488.4733	5824	4942.25
976.0115	2489.8195	5787.95	4901.65
976.1397	2491.165	5788.8	4902.5
976.2678	2492.5097	5792.05	4907.9
976.3959	2493.8538	5735.2	4852.3
976.524	2495.1972	5728.4	4843.05
976.6521	2496.5398	5703.55	4818.55
976.7801	2497.8818	5684.5	4799.85
976.9081	2499.2231	5670.45	4787.6
977.036	2500.5637	5656.25	4771.3
977.164	2501.9035	5635.5	4753.85
977.2918	2503.2427	5616.3	4729.95
977.4197	2504.5812	5581.85	4700.4
977.5475	2505.919	5594.6	4709.1
977.6753	2507.256	5572.15	4688.75
977.8031	2508.5924	5558.55	4673.05
977.9308	2509.9281	5548.35	4658.5
978.0585	2511.2631	5517.75	4633.4
978.1861	2512.5974	5514.4	4631.7
978.3137	2513.9309	5489.15	4607
978.4413	2515.2638	5498.25	4581.15
978.5689	2516.596	5457	4575
978.6964	2517.9275	5448.05	4562.9
978.8239	2519.2583	5418.4	4535.15
978.9513	2520.5884	5389.7	4506.3
979.0788	2521.9178	5388.65	4504.25
979.2062	2523.2465	5349.9	4468.55
979.3335	2524.5745	5337.1	4453.4
979.4608	2525.9018	5329.85	4446.7
979.5881	2527.2284	5314.6	4434.15
979.7154	2528.5543	5316.6	4433.25
979.8426	2529.8796	5278.65	4396.55
979.9698	2531.2041	5273.15	4391.15
980.0969	2532.5279	5245.65	4366.4
980.224	2533.851	5258.35	4377.3
980.3511	2535.1735	5225.9	4342.5
980.4781	2536.4952	5219.4	4337.85
980.6052	2537.8163	5211.75	4327.25
980.7321	2539.1366	5191.9	4307.8
980.8591	2540.4562	5177.8	4293.2
980.986	2541.7752	5181.85	4298.8
981.1129	2543.0935	5162.4	4280.3
981.2397	2544.411	5155.8	4271.95
981.3665	2545.7279	5154	4271.45
981.4933	2547.0441	5135.95	4252.45
981.62	2548.3596	5142.3	4257.6
981.7467	2549.6744	5142.3	4261.4
981.8734	2550.9885	5105.95	4215.05
982.0001	2552.3019	5077.9	4195.7
982.1267	2553.6146	5067.3	4185.2
982.2532	2554.9266	5066.2	4182.35
982.3798	2556.2379	5046	4161.6
982.5063	2557.5485	5042	4159.05
982.6327	2558.8585	5019.3	4129.15
982.7592	2560.1677	5006.05	4119.05
982.8856	2561.4762	5006.65	4124.9
983.0119	2562.7841	4998.25	4111.45
983.1383	2564.0913	4988.25	4106.75
983.2646	2565.3977	4968.2	4087.25
983.3908	2566.7035	4970.7	4088.1
983.517	2568.0086	4947.45	4062
983.6432	2569.313	4946.35	4064.9
983.7694	2570.6167	4923.95	4038.65
983.8955	2571.9197	4906.3	4023.75
984.0216	2573.222	4905.55	4020.45
984.1476	2574.5236	4893.85	4010.1
984.2737	2575.8246	4898.45	4012.9
984.3996	2577.1248	4877.45	3990.65
984.5256	2578.4244	4870.2	3987.45
984.6515	2579.7232	4858.35	3976.15
984.7774	2581.0214	4879.25	3972.25
984.9032	2582.3189	4862.6	3979.45
985.029	2583.6157	4840.45	3952.15
985.1548	2584.9118	4820	3937.4
985.2806	2586.2072	4825.75	3943.35
985.4063	2587.5019	4800.65	3917.85
985.5319	2588.7959	4780.5	3897.15
985.6576	2590.0893	4779.75	3896.25
985.7832	2591.3819	4764.9	3882.5
985.9087	2592.6739	4746	3864.6
986.0343	2593.9652	4741.1	3854.5
986.1597	2595.2557	4717.95	3834.7
986.2852	2596.5456	4700.8	3815.75
986.4106	2597.8348	4671.5	3787.7
986.536	2599.1234	4655.05	3771.65
986.6614	2600.4112	4651.8	3768.5
986.7867	2601.6983	4639.95	3753.2
986.912	2602.9848	4621.25	3739.45
987.0372	2604.2705	4611.75	3722.45
987.1624	2605.5556	4602.3	3718.45
987.2876	2606.84	4581.3	3700.4
987.4128	2608.1237	4564.35	3679.35
987.5379	2609.4067	4552.05	3669.8
987.6629	2610.689	4542.05	3650.15
987.788	2611.9707	4521	3635.65
987.913	2613.2516	4509.3	3622.6
988.0379	2614.5319	4475.65	3593.4
988.1629	2615.8115	4465.35	3582.5
988.2878	2617.0903	4466.75	3581.5
988.4126	2618.3685	4456.4	3574.7
988.5375	2619.6461	4428.55	3545.5
988.6622	2620.9229	4413.75	3531.25
988.787	2622.199	4389.95	3507.4
988.9117	2623.4745	4411	3527.55
989.0364	2624.7493	4373.8	3493.55
989.161	2626.0234	4367.55	3487.05
989.2857	2627.2968	4353.85	3472.15
989.4102	2628.5695	4330.85	3448.65
989.5348	2629.8415	4309.2	3426.4
989.6593	2631.1128	4300.7	3415.95
989.7837	2632.3835	4272.8	3390.25
989.9082	2633.6535	4270	3386.9
990.0326	2634.9228	4257.2	3375.6
990.1569	2636.1914	4240.7	3357
990.2812	2637.4593	4247	3357.45
990.4055	2638.7265	4242.3	3359.2
990.5298	2639.9931	4215.65	3333.95
990.654	2641.259	4203.85	3320.55
990.7782	2642.5242	4187.6	3304.8
990.9023	2643.7887	4166	3284.2
991.0264	2645.0525	4172.35	3290.25
991.1505	2646.3156	4152	3268.3
991.2745	2647.5781	4138.7	3257.55
991.3985	2648.8398	4121.5	3239.55
991.5225	2650.1009	4119.15	3228.9
991.6464	2651.3613	4090.6	3210
991.7703	2652.6211	4097.35	3214.6
991.8942	2653.8801	4090.5	3209
992.018	2655.1385	4071.25	3185.25
992.1418	2656.3961	4065.5	3184
992.2655	2657.6531	4072.9	3191
992.3892	2658.9094	4056.2	3175.85
992.5129	2660.1651	4033.1	3151.9
992.6366	2661.42	4027.95	3144.55
992.7602	2662.6743	4029.55	3145.55
992.8837	2663.9279	4011.85	3130.15
993.0073	2665.1808	3992.15	3108.95
993.1307	2666.433	3993.55	3111.95
993.2542	2667.6846	3981.25	3099.15
993.3776	2668.9354	3987.15	3103.1
993.501	2670.1856	3965.15	3080.3
993.6244	2671.4351	3948.05	3066.25
993.7477	2672.6839	3935.35	3054.55
993.8709	2673.9321	3926.75	3045.9
993.9942	2675.1795	3922.1	3040.45
994.1174	2676.4263	3895.9	3011
994.2405	2677.6724	3906.15	3022.4
994.3637	2678.9179	3883.35	2999.75
994.4868	2680.1626	3873.6	2993.85
994.6098	2681.4067	3867.8	2987.5
994.7328	2682.6501	3860.7	2978.9
994.8558	2683.8928	3856.7	2974.55
994.9788	2685.1348	3835.6	2954.3
995.1017	2686.3761	3825.8	2942.25
995.2245	2687.6168	3804.35	2922.3
995.3474	2688.8568	3796.1	2914.1
995.4702	2690.0961	3790.1	2909.7
995.5929	2691.3348	3785.6	2904.35
995.7156	2692.5727	3766.75	2883.25
995.8383	2693.81	3764.15	2880.45
995.961	2695.0466	3731.4	2851.7
996.0836	2696.2826	3745.15	2860.2
996.2062	2697.5178	3744.5	2843.45
996.3287	2698.7524	3729.1	2847.65
996.4512	2699.9863	3726.5	2844.6
996.5737	2701.2195	3708.9	2827.8
996.6961	2702.452	3706.85	2824.95
996.8185	2703.6839	3679.3	2796.6
996.9408	2704.9151	3679.35	2799.55
997.0631	2706.1456	3666.85	2783.2
997.1854	2707.3755	3657.4	2777.7
997.3077	2708.6046	3656.05	2770.85
997.4299	2709.8331	3628.4	2746
997.552	2711.0609	3623.65	2741.75
997.6742	2712.2881	3635.4	2753.75
997.7963	2713.5145	3607.7	2724.55
997.9183	2714.7403	3601.5	2720.45
998.0403	2715.9654	3603.35	2720.35
998.1623	2717.1899	3603.8	2708.3
998.2842	2718.4136	3581.5	2700.65
998.4062	2719.6367	3567.75	2684.35
998.528	2720.8591	3567.45	2679.3
998.6498	2722.0809	3534.6	2650.95
998.7716	2723.3019	3539.45	2655.85
998.8934	2724.5223	3540.8	2657.3
999.0151	2725.7421	3515.3	2630.85
999.1368	2726.9611	3520.3	2638.75
999.2584	2728.1795	3505.35	2618.5
999.38	2729.3972	3492.4	2611.9
999.5016	2730.6142	3484.35	2588.7
999.6231	2731.8306	3466.5	2584.15
999.7446	2733.0462	3454.15	2570.1
999.8661	2734.2612	3440.7	2552.55
999.9875	2735.4756	3417.65	2534.2
1000.1089	2736.6892	3388.9	2506.15
1000.2302	2737.9022	3393.15	2513.25
1000.3515	2739.1145	3365.55	2485.05
1000.4728	2740.3262	3364	2473.6
1000.594	2741.5372	3355.15	2474.2
1000.7152	2742.7475	3345.5	2462.5
1000.8363	2743.9571	3324.15	2441.1
1000.9575	2745.1661	3310.25	2423.1
1001.0785	2746.3744	3321.05	2438.95
1001.1996	2747.582	3301.25	2420.35
1001.3206	2748.7889	3282.65	2398.85
1001.4415	2749.9952	3274.3	2392.75
1001.5625	2751.2008	3260.6	2379.5
1001.6833	2752.4057	3249.75	2366.65
1001.8042	2753.61	3256.85	2375.85
1001.925	2754.8136	3239.35	2356
1002.0458	2756.0165	3228.95	2348.3
1002.1665	2757.2188	3226.15	2345.1
1002.2872	2758.4204	3216.2	2334.7
1002.4078	2759.6213	3201.1	2317.9
1002.5285	2760.8215	3201.65	2313.95
1002.649	2762.0211	3186.15	2303.2
1002.7696	2763.22	3173.05	2289.65
1002.8901	2764.4182	3164.95	2283.15
1003.0106	2765.6158	3166.25	2283.8
1003.131	2766.8127	3148	2266.05
1003.2514	2768.009	3129.45	2248.05
1003.3717	2769.2045	3126.75	2246.15
1003.492	2770.3994	3123.9	2239.3
1003.6123	2771.5936	3121.1	2238.95
1003.7325	2772.7872	3102.85	2221.5
1003.8527	2773.9801	3099.2	2217
1003.9729	2775.1723	3092.6	2193.6
1004.093	2776.3639	3079.2	2198.4
1004.2131	2777.5548	3068.3	2186.25
1004.3331	2778.745	3059.3	2177.5
1004.4531	2779.9346	3051.8	2171.55
1004.5731	2781.1235	3037.75	2156.9
1004.693	2782.3117	3034.15	2154.6
1004.8129	2783.4992	3035.25	2156.55
1004.9328	2784.6861	3012.3	2131.1
1005.0526	2785.8723	3016.3	2133.55
1005.1723	2787.0579	3004.95	2123.25
1005.2921	2788.2428	2988.6	2105.1
1005.4118	2789.427	3003.05	2123.5
1005.5314	2790.6106	2980.95	2098.1
1005.651	2791.7935	2966.95	2084.75
1005.7706	2792.9757	2955.7	2074.9
1005.8902	2794.1573	2954	2068.75
1006.0097	2795.3382	2948.15	2066.4
1006.1291	2796.5184	2943.7	2064.55
1006.2485	2797.698	2940.05	2058.45
1006.3679	2798.8769	2928.6	2049.1
1006.4873	2800.0551	2931.7	2049.2
1006.6066	2801.2327	2906.4	2024.6
1006.7258	2802.4096	2916.6	2035.35
1006.8451	2803.5859	2918.05	2036.6
1006.9642	2804.7615	2907.8	2026.55
1007.0834	2805.9364	2900.2	2020.15
1007.2025	2807.1106	2890.45	2009
1007.3216	2808.2842	2900.9	2019.55
1007.4406	2809.4572	2909.4	2027.35
1007.5596	2810.6294	2915.95	2032.6
1007.6785	2811.801	2911.7	2030.15
1007.7975	2812.972	2902	2022.3
1007.9163	2814.1423	2905.2	2026
1008.0352	2815.3119	2910.85	2029.55
1008.154	2816.4808	2916.25	2035.15
1008.2727	2817.6491	2929.45	2048.7
1008.3914	2818.8167	2942.95	2062.65
1008.5101	2819.9837	2939.7	2056.9
1008.6288	2821.15	2951.7	2071.35
1008.7474	2822.3157	2962.85	2082.3
1008.8659	2823.4807	2971.1	2089.2
1008.9844	2824.645	2979.1	2095.85
1009.1029	2825.8086	2993.5	2113.75
1009.2214	2826.9716	2992.2	2111.95
1009.3398	2828.134	3015.7	2136
1009.4581	2829.2957	3021.1	2141
1009.5764	2830.4567	3021.55	2142.35
1009.6947	2831.617	3027.25	2145
1009.813	2832.7767	3014.35	2135.3
1009.9312	2833.9358	3011.25	2132.45
1010.0493	2835.0941	2993.95	2110.85
1010.1675	2836.2519	2997.75	2115.55
1010.2855	2837.4089	2990.05	2111.1
1010.4036	2838.5653	2992.3	2110.7
1010.5216	2839.7211	2973.25	2092
1010.6396	2840.8761	2971.75	2089.05
1010.7575	2842.0306	2960	2079.95
1010.8754	2843.1843	2959	2077.9
1010.9932	2844.3374	2963.35	2082.15
1011.111	2845.4899	2964.8	2083.4
1011.2288	2846.6417	2992.4	2113.85
1011.3465	2847.7928	2994.05	2113.15
1011.4642	2848.9433	3003.7	2123.9
1011.5818	2850.0931	3020.1	2138.9
1011.6995	2851.2422	3030.2	2146.6
1011.817	2852.3907	3057.15	2175.8
1011.9345	2853.5385	3042.2	2161.5
1012.052	2854.6857	3064.75	2174.35
1012.1695	2855.8323	3062.55	2182.05
1012.2869	2856.9781	3053.8	2172.55
1012.4042	2858.1233	3084	2203.25
1012.5216	2859.2679	3073.7	2190.8
1012.6389	2860.4118	3096.65	2217.7
1012.7561	2861.555	3102.45	2218.5
1012.8733	2862.6976	3107.05	2224.75
1012.9905	2863.8395	3111.3	2231.8
1013.1076	2864.9808	3105.7	2224.55
1013.2247	2866.1214	3110.5	2228.75
1013.3417	2867.2614	3104.5	2224.55
1013.4587	2868.4007	3106.65	2225.25
1013.5757	2869.5393	3111	2230.1
1013.6926	2870.6773	3089.6	2207.5
1013.8095	2871.8146	3092.45	2210
1013.9263	2872.9513	3085.3	2202.25
1014.0431	2874.0874	3070.4	2189.65
1014.1599	2875.2227	3076.3	2195.75
1014.2766	2876.3574	3057.2	2175.25
1014.3933	2877.4915	3031.4	2150.75
1014.51	2878.6249	3025.15	2144.3
1014.6266	2879.7577	3016.3	2133.9
1014.7431	2880.8898	3009.15	2118.75
1014.8596	2882.0212	2990.15	2111.95
1014.9761	2883.152	2986.2	2104.65
1015.0925	2884.2821	2981.1	2102.75
1015.2089	2885.4116	2966.75	2087.4
1015.3253	2886.5405	2948.65	2069.05
1015.4416	2887.6686	2960.15	2076.2
1015.5579	2888.7962	2947.65	2068.7
1015.6741	2889.923	2949.35	2071.15
1015.7903	2891.0493	2941.95	2061.85
1015.9065	2892.1748	2951.2	2071
1016.0226	2893.2997	2937.35	2057.2
1016.1387	2894.424	2921.65	2041.3
1016.2547	2895.5476	2928	2048.25
1016.3707	2896.6706	2931.95	2052.8
1016.4866	2897.7929	2928.5	2046.9
1016.6025	2898.9145	2923.55	2043.75
1016.7184	2900.0355	2921.6	2041.2
1016.8342	2901.1559	2946.45	2064.7
1016.95	2902.2756	2926.4	2047.1
1017.0658	2903.3946	2930.05	2048.35
1017.1815	2904.513	2933.95	2052.65
1017.2971	2905.6308	2917.9	2037.2
1017.4127	2906.7479	2929.6	2048.5
1017.5283	2907.8643	2936.55	2056.1
1017.6439	2908.9801	2934.9	2055.5
1017.7594	2910.0953	2924.15	2044.6
1017.8748	2911.2098	2927.05	2042.85
1017.9902	2912.3236	2910.9	2023.75
1018.1056	2913.4368	2900.35	2016.4
1018.2209	2914.5494	2888.05	2007.65
1018.3362	2915.6613	2864.6	1976.9
1018.4515	2916.7725	2858.95	1975.05
1018.5667	2917.8831	2862.4	1979.9
1018.6819	2918.9931	2832.55	1949.4
1018.797	2920.1024	2824.5	1944.2
1018.9121	2921.211	2810.8	1931.3
1019.0271	2922.319	2798.45	1917.25
1019.1421	2923.4264	2793.65	1915.35
1019.2571	2924.5331	2795.55	1918
1019.372	2925.6391	2768.3	1888.7
1019.4869	2926.7445	2763.85	1887
1019.6017	2927.8493	2758.5	1878.9
1019.7165	2928.9534	2768.45	1888.7
1019.8313	2930.0569	2759.95	1878.3
1019.946	2931.1597	2759.4	1878.8
1020.0606	2932.2619	2749.25	1870.3
1020.1753	2933.3634	2756.1	1876.2
1020.2899	2934.4643	2756.45	1865.8
1020.4044	2935.5645	2755.65	1870.3
1020.5189	2936.6641	2736.4	1853.9
1020.6334	2937.763	2720.7	1840.8
1020.7478	2938.8613	2709.55	1828.75
1020.8622	2939.959	2683.65	1797.95
1020.9765	2941.056	2669.15	1790.75
1021.0908	2942.1523	2642	1761.1
1021.2051	2943.248	2623.5	1743.25
1021.3193	2944.3431	2583.65	1703.8
1021.4334	2945.4375	2545.35	1665.7
1021.5476	2946.5313	2530.2	1651.9
1021.6617	2947.6244	2489.5	1609.35
1021.7757	2948.7169	2457.7	1578.2
1021.8897	2949.8087	2426.35	1546.65
1022.0037	2950.8999	2397.2	1516.85
1022.1176	2951.9904	2364.85	1484.75
1022.2315	2953.0803	2347.9	1466.95
1022.3453	2954.1696	2327.2	1447.9
1022.4591	2955.2582	2311.1	1431.05
1022.5728	2956.3462	2287.75	1408.25
1022.6865	2957.4335	2268.25	1389.45
1022.8002	2958.5202	2250.15	1369.9
1022.9138	2959.6062	2250.2	1370.35
1023.0274	2960.6916	2234.85	1353.85
1023.141	2961.7764	2225	1343.9
1023.2545	2962.8605	2223.95	1345.25
1023.3679	2963.9439	2199.05	1320.55
1023.4813	2965.0267	2199.7	1318.5
1023.5947	2966.1089	2214.65	1311.8
1023.708	2967.1905	2190.05	1309.55
1023.8213	2968.2714	2177.2	1297.7
1023.9346	2969.3516	2167.45	1286.9
1024.0478	2970.4312	2187.05	1300.4
1024.1609	2971.5102	2154.2	1274.1
1024.274	2972.5885	2169.1	1289.15
1024.3871	2973.6662	2164.35	1281.9
1024.5002	2974.7432	2152.2	1272.6
1024.6132	2975.8196	2148.85	1270.95
1024.7261	2976.8954	2133.2	1253.6
1024.839	2977.9705	2139.4	1260
1024.9519	2979.045	2126.85	1247.35
1025.0647	2980.1188	2128.05	1248.3
1025.1775	2981.192	2106.55	1228.2
1025.2902	2982.2645	2106.2	1226.05
1025.4029	2983.3364	2107.65	1226.75
1025.5156	2984.4077	2086.05	1207.1
1025.6282	2985.4783	2077.9	1191.55
1025.7407	2986.5483	2050.6	1173.9
1025.8532	2987.6177	2041.05	1160.75
1025.9657	2988.6864	2033.95	1153.55
1026.0782	2989.7545	2018.3	1136.8
1026.1906	2990.8219	2009.15	1130.15
1026.3029	2991.8887	1994.4	1112.4
1026.4152	2992.9548	1985.4	1103.95
1026.5275	2994.0204	1977.2	1098
1026.6397	2995.0852	1956.55	1078
1026.7519	2996.1495	1942.4	1061.5
1026.864	2997.2131	1931.4	1051.7
1026.9761	2998.276	1918.45	1037.5
1027.0882	2999.3383	1910.2	1029.8
1027.2002	3000.4	1898.95	1017.6
1027.3122	3001.4611	1896.85	1017.85
1027.4241	3002.5215	1888.15	1008.95
1027.536	3003.5812	1873.9	995.35
1027.6478	3004.6404	1874.6	994.5
1027.7596	3005.6989	1864.85	984.8
1027.8714	3006.7567	1859.3	978.4
1027.9831	3007.8139	1877.8	975.8
1028.0947	3008.8705	1845.25	966.15
1028.2064	3009.9264	1837.25	952.2
1028.3179	3010.9818	1830.9	950.3
1028.4295	3012.0364	1832	950.85
1028.541	3013.0905	1825.15	945.2
1028.6524	3014.1439	1816.8	937.4
1028.7638	3015.1966	1816.35	937.35
1028.8752	3016.2487	1806.6	928.15
1028.9865	3017.3002	1813.6	930.65
1029.0978	3018.3511	1796.3	919.5
1029.209	3019.4013	1795.3	915.95
1029.3202	3020.4509	1802.55	923.75
1029.4314	3021.4998	1786.45	905.25
1029.5425	3022.5481	1785	906.65
1029.6535	3023.5958	1778.6	899.9
1029.7645	3024.6428	1786.55	906
1029.8755	3025.6892	1773.95	893.9
1029.9864	3026.735	1764.8	886.8
1030.0973	3027.7802	1772.35	892.2
1030.2082	3028.8247	1765	885.85
1030.319	3029.8685	1751.8	872.4
1030.4297	3030.9118	1757.5	877.55
1030.5404	3031.9544	1746.1	867.6
1030.6511	3032.9963	1757	877.75
1030.7617	3034.0376	1752.5	874.05
1030.8723	3035.0783	1744.35	862.25
1030.9829	3036.1184	1746.6	868.3
1031.0934	3037.1578	1736.35	858.25
1031.2038	3038.1966	1742	860.85
1031.3142	3039.2348	1731.2	852.05
1031.4246	3040.2723	1734.2	845.7
1031.5349	3041.3092	1726.45	848.4
1031.6452	3042.3455	1721.9	842.25
1031.7554	3043.3811	1717.15	838.6
1031.8656	3044.4161	1714	835.1
1031.9758	3045.4505	1704.85	825.4
1032.0859	3046.4842	1716.35	835.6
1032.1959	3047.5173	1691.75	815.3
1032.3059	3048.5498	1693.8	814.55
1032.4159	3049.5816	1697.05	816.25
1032.5258	3050.6128	1702.7	821.75
1032.6357	3051.6434	1678.65	797.3
1032.7455	3052.6734	1683.4	803.9
1032.8553	3053.7027	1680.25	799.4
1032.9651	3054.7314	1680.35	801.8
1033.0748	3055.7594	1671.95	793.85
1033.1845	3056.7868	1671.8	791.7
1033.2941	3057.8136	1661.5	782.15
1033.4037	3058.8398	1662.5	781.75
1033.5132	3059.8653	1653.65	774.7
1033.6227	3060.8902	1661.6	782.55
1033.7321	3061.9145	1666.45	785.4
1033.8415	3062.9381	1651.85	774.5
1033.9509	3063.9612	1660.8	764.9
1034.0602	3064.9835	1645.5	766.3
1034.1694	3066.0053	1642.45	761.7
1034.2787	3067.0264	1630.1	749.2
1034.3878	3068.0469	1641.05	761.8
1034.497	3069.0668	1638.5	756.35
1034.6061	3070.086	1627.35	749
1034.7151	3071.1046	1626	745.55
1034.8241	3072.1226	1622.5	741.45
1034.9331	3073.1399	1605	727.9
1035.042	3074.1567	1604.25	724.35
1035.1508	3075.1727	1607.85	727.7
1035.2597	3076.1882	1598.65	719.9
1035.3684	3077.203	1586.8	706.8
1035.4772	3078.2173	1586.25	706.7
1035.5859	3079.2308	1586.55	704.65
1035.6945	3080.2438	1584.95	705.3
1035.8031	3081.2561	1576.3	698.1
1035.9117	3082.2678	1568.8	689.7
1036.0202	3083.2789	1566.5	687.3
1036.1286	3084.2893	1563.9	686.6
1036.2371	3085.2991	1561.45	680.85
1036.3454	3086.3083	1561.6	677.9
1036.4538	3087.3169	1553.15	672.85
1036.562	3088.3248	1550.8	670.6
1036.6703	3089.3321	1543.85	663
1036.7785	3090.3388	1538.25	659.1
1036.8866	3091.3449	1536	655.95
1036.9948	3092.3503	1537.5	655
1037.1028	3093.3551	1525.6	647.75
1037.2108	3094.3593	1531.45	653.75
1037.3188	3095.3629	1518.7	639.4
1037.4267	3096.3658	1523.05	641.4
1037.5346	3097.3681	1511.35	635.2
1037.6425	3098.3698	1511.95	631.85
1037.7503	3099.3708	1505.7	620.45
1037.858	3100.3713	1508.4	630.9
1037.9657	3101.3711	1504.1	623.3
1038.0734	3102.3702	1619.2	604
1038.181	3103.3688	1503.3	621.7
1038.2886	3104.3667	1490.85	613.5
1038.3961	3105.364	1476.1	599.15
1038.5036	3106.3607	1476.1	595.2
1038.611	3107.3568	1480.1	599.75
1038.7184	3108.3522	1477.75	600
1038.8257	3109.347	1469.25	590.15
1038.933	3110.3412	1470.55	587.95
1039.0403	3111.3348	1463.95	586.1
1039.1475	3112.3277	1457.25	577.7
1039.2547	3113.32	1464.95	587.15
1039.3618	3114.3117	1449.6	569.45
1039.4689	3115.3028	1445.65	568.25
1039.5759	3116.2932	1443.85	562.3
1039.6829	3117.2831	1446.35	561.45
1039.7898	3118.2723	1436.85	557.5
1039.8967	3119.2608	1433.65	553.95
1040.0035	3120.2488	1434.55	554.5
1040.1103	3121.2361	1428.5	547.7
1040.2171	3122.2229	1416.95	537.45
1040.3238	3123.209	1426.55	549.3
1040.4305	3124.1944	1416.35	538.3
1040.5371	3125.1793	1426.25	545.2
1040.6437	3126.1635	1411.7	531.65
1040.7502	3127.1471	1412.7	534.65
1040.8567	3128.1301	1407.35	528.95
1040.9631	3129.1125	1405	525.9
1041.0695	3130.0942	1410.4	531.65
1041.1759	3131.0753	1409.75	518.5
1041.2822	3132.0558	1399	518.8
1041.3884	3133.0357	1397.55	516.7
1041.4946	3134.015	1389.05	510.45
1041.6008	3134.9936	1392.45	512.7
1041.7069	3135.9716	1414	513.5
1041.813	3136.949	1385	505.55
1041.919	3137.9258	1392.05	508.5
1042.025	3138.902	1384.65	500.1
1042.1309	3139.8775	1386.55	508.15
1042.2368	3140.8524	1376.6	496.95
1042.3427	3141.8267	1375.3	495.7
1042.4485	3142.8004	1376.85	496.85
1042.5542	3143.7735	1378.6	491.9
1042.6599	3144.7459	1374.65	492.9
1042.7656	3145.7178	1365.85	485.3
1042.8712	3146.689	1375.7	497.6
1042.9768	3147.6596	1362.15	481.85
1043.0823	3148.6295	1366.45	486.3
1043.1878	3149.5989	1353.85	475.75
1043.2932	3150.5676	1355.15	477.4
1043.3986	3151.5357	1354.55	476.9
1043.5039	3152.5032	1348.75	468.95
1043.6092	3153.4701	1339.8	460.45
1043.7145	3154.4364	1345.6	465.1
1043.8197	3155.402	1343.1	464.3
1043.9248	3156.367	1336.1	456.35
1044.03	3157.3315	1371.25	453.9
1044.135	3158.2952	1328.35	449.45
1044.24	3159.2584	1330	451.8
1044.345	3160.221	1333.45	452.55
1044.4499	3161.1829	1323.4	444.2
1044.5548	3162.1442	1321.9	444.45
1044.6596	3163.105	1317.75	438.6
1044.7644	3164.065	1318.5	437.5
1044.8692	3165.0245	1319.8	438.3
1044.9739	3165.9834	1314.75	438.1
1045.0785	3166.9416	1308.5	429.5
1045.1831	3167.8993	1306.3	426.5
1045.2877	3168.8563	1304.05	423.9
1045.3922	3169.8127	1300.85	421
1045.4966	3170.7684	1304.1	425.6
1045.6011	3171.7236	1298.7	418.55
1045.7054	3172.6782	1296.7	416.85
1045.8098	3173.6321	1296.6	417.05
1045.914	3174.5854	1297.05	412.65
1046.0183	3175.5381	1289.75	411.6
1046.1224	3176.4902	1293.8	415.1
1046.2266	3177.4417	1288.8	411.1
1046.3307	3178.3926	1287.65	409.4
1046.4347	3179.3428	1275.35	399.55
1046.5387	3180.2924	1276.5	397.15
1046.6427	3181.2415	1277.45	398.7
1046.7466	3182.1899	1276.35	397.15
1046.8504	3183.1377	1269.45	390.8
1046.9542	3184.0848	1276.65	394.3
1047.058	3185.0314	1269.45	388
1047.1617	3185.9773	1261.95	381.65
1047.2654	3186.9227	1266.85	387.15
1047.369	3187.8674	1258.6	378
1047.4726	3188.8115	1270.05	386.25
1047.5761	3189.755	1258.65	379.55
1047.6796	3190.6979	1255.45	377.95
1047.783	3191.6402	1251.1	371.7
1047.8864	3192.5818	1247.8	368.85
1047.9898	3193.5229	1261.2	364.55
1048.0931	3194.4633	1252.55	373.05
1048.1963	3195.4031	1250.85	371.65
1048.2995	3196.3423	1245.85	367.4
1048.4027	3197.2809	1239.65	359.35
1048.5058	3198.2189	1242.55	363.75
1048.6089	3199.1563	1255.8	360.15
1048.7119	3200.0931	1241.65	365.45
1048.8148	3201.0292	1234.45	355.5
1048.9178	3201.9648	1228	351.6
1049.0206	3202.8997	1235.1	353.25
1049.1235	3203.834	1231.3	352.9
1049.2262	3204.7677	1229.15	349.3
1049.329	3205.7008	1228.2	348.55
1049.4317	3206.6333	1220.55	341.85
1049.5343	3207.5652	1225.1	344.9
1049.6369	3208.4964	1214.6	336.05
1049.7394	3209.4271	1217.2	339.8
1049.8419	3210.3571	1211.05	332.3
1049.9444	3211.2865	1215.5	337.25
1050.0468	3212.2154	1218.55	338.1
1050.1491	3213.1436	1212.7	329.45
1050.2514	3214.0712	1220	336
1050.3537	3214.9982	1210.9	332.55
1050.4559	3215.9246	1207.35	326.95
1050.5581	3216.8503	1201.5	323.3
1050.6602	3217.7755	1202.25	321.35
1050.7623	3218.7001	1205.25	326.5
1050.8643	3219.624	1203.55	323.5
1050.9663	3220.5473	1200.65	322.85
1051.0682	3221.4701	1202.45	324.15
1051.1701	3222.3922	1197.8	317.5
1051.2719	3223.3137	1190.4	309.85
1051.3737	3224.2346	1194.1	316.8
1051.4754	3225.1549	1190.75	311.6
1051.5771	3226.0746	1183.35	305.3
1051.6788	3226.9937	1186.65	306.65
1051.7804	3227.9121	1189.05	309.9
1051.8819	3228.83	1185.3	306.75
1051.9834	3229.7473	1183.7	305.3
1052.0849	3230.6639	1181.2	301.55
1052.1863	3231.5799	1180.75	300.9
1052.2876	3232.4954	1172.15	294.7
1052.3889	3233.4102	1177.8	299.15
1052.4902	3234.3244	1174.35	293.4
1052.5914	3235.238	1168.9	292.65
1052.6926	3236.151	1193.7	292.95
1052.7937	3237.0634	1165.15	289.15
1052.8948	3237.9752	1165.35	286.1
1052.9958	3238.8864	1167.1	289.4
1053.0968	3239.797	1160.95	280.75
1053.1977	3240.7069	1163.3	286.05
1053.2986	3241.6163	1157.6	279.2
1053.3994	3242.5251	1159.75	284.5
1053.5002	3243.4332	1152.4	273.75
1053.6009	3244.3408	1150.7	271.55
1053.7016	3245.2477	1148.65	269.65
1053.8022	3246.154	1150.55	270.35
1053.9028	3247.0598	1151.65	272.55
1054.0034	3247.9649	1147.45	267.1
1054.1039	3248.8694	1151.25	271.05
1054.2043	3249.7733	1141.75	261.95
1054.3047	3250.6766	1145.15	268.7
1054.4051	3251.5793	1144	265.35
1054.5054	3252.4814	1142.5	266.15
1054.6056	3253.3829	1141.8	265.05
1054.7058	3254.2838	1134.6	256.05
1054.806	3255.1841	1132.3	255.15
1054.9061	3256.0838	1128	251.8
1055.0061	3256.9829	1126.8	248.9
1055.1062	3257.8814	1128.8	247.65
1055.2061	3258.7792	1127.05	248.15
1055.306	3259.6765	1124.55	246.15
1055.4059	3260.5731	1119.3	238.75
1055.5057	3261.4692	1118.15	239.55
1055.6055	3262.3647	1116.65	234.9
1055.7052	3263.2595	1110.55	232.1
1055.8049	3264.1538	1108.5	229.95
1055.9045	3265.0474	1106.45	227.5
1056.0041	3265.9404	1101.15	223.2
1056.1036	3266.8329	1093.45	214.9
1056.2031	3267.7247	1105.05	216.2
1056.3025	3268.616	1090.6	214.8
1056.4019	3269.5066	1081.95	202.8
1056.5013	3270.3966	1082.3	200.8
1056.6005	3271.286	1071.05	192.45
