Software Version:	3.9.2.0
Unit SN:	10000200
Spectrometer SN:	6960
Date:	3/6/2024 10:22:29 AM
Data Line Index:	25
Spectral Points:	2048
Integration time (ms):	125
Averages:	20
Delay (ms):	30
Sequence Number:	1
Processing:	dark subtract
Laser Power (mW):	305
Laser Current (mA):	825
Laser Diode Temp (C):	25
Laser Case Temp (C):	25.6
System Temp (C):	25.4
Spectrometer Temp (C):	22.8
CCD Temp (C):	0.007
Secondary Temp (C):	20.023
Heatsink Temp (C):	20.683
CCDPCB Temp (C):	33.85
SecondaryPCB Temp (C):	26.958

Wavelength	RamanShift	Raw Counts	Dark Subtracted
787.061	30.1047	1059.8	648.5
787.2016	32.3739	1084.8	674.75
787.3422	34.6426	1117.55	706.9
787.4828	36.9109	1165.45	751.6
787.6235	39.1787	1211.3	794.2
787.7642	41.4461	1273.3	853.1
787.9049	43.7131	1325.9	902.95
788.0456	45.9796	1380.7	954.25
788.1863	48.2456	1434.7	1004.4
788.3271	50.5112	1500.7	1064.9
788.4679	52.7764	1565.05	1128.45
788.6087	55.0411	1639.9	1199.85
788.7496	57.3054	1702.7	1256.15
788.8904	59.5692	1786.7	1336.15
789.0313	61.8326	1884.5	1433.1
789.1722	64.0955	1966.3	1511.6
789.3132	66.3579	2083.3	1624.6
789.4541	68.6199	2225.25	1763.15
789.5951	70.8815	2452.8	1987.9
789.7361	73.1426	2937.1	2465.15
789.8771	75.4032	4214.25	3739.6
790.0181	77.6634	7454.95	6976.45
790.1592	79.9231	16002.15	15516.25
790.3003	82.1824	49804.15	49309.85
790.4414	84.4412	65535	65020.1
790.5825	86.6995	65535	64997.75
790.7237	88.9574	65535	64973.3
790.8648	91.2148	65535	64960.45
791.006	93.4717	65535	64950.1
791.1472	95.7282	65535	64945.55
791.2885	97.9842	65535	64943.5
791.4297	100.2398	65535	64939.3
791.571	102.4949	65535	64934.4
791.7123	104.7495	65535	64934.75
791.8536	107.0036	65535	64931.5
791.9949	109.2573	65535	64934.1
792.1363	111.5105	65535	64928.3
792.2777	113.7632	65535	64925.35
792.4191	116.0154	65535	64917.25
792.5605	118.2672	65535	64923.75
792.7019	120.5185	65535	64918.6
792.8434	122.7693	65535	64918.55
792.9849	125.0197	65535	64913.35
793.1264	127.2696	65535	64908.9
793.2679	129.519	65535	64906.25
793.4094	131.7679	65535	64904.05
793.551	134.0163	65535	64902.55
793.6926	136.2642	65535	64899.95
793.8342	138.5117	65535	64891.05
793.9758	140.7587	65535	64898.2
794.1175	143.0052	65535	64892.45
794.2591	145.2512	65535	64890.65
794.4008	147.4967	65535	64891.4
794.5425	149.7417	65535	64887.5
794.6842	151.9863	65535	64885.5
794.826	154.2304	65535	64881.6
794.9677	156.4739	65535	64876.15
795.1095	158.717	65535	64874.25
795.2513	160.9596	65535	64876.1
795.3931	163.2017	65535	64871
795.535	165.4433	65535	64869.85
795.6768	167.6844	65535	64864.4
795.8187	169.925	65535	64864.9
795.9606	172.1651	65535	64862.05
796.1025	174.4047	65535	64855.2
796.2445	176.6439	65535	64853.55
796.3864	178.8825	65535	64849.35
796.5284	181.1206	65535	64849.8
796.6704	183.3582	65535	64841.35
796.8124	185.5954	65535	64843.8
796.9544	187.832	65535	64839.45
797.0965	190.0681	65535	64836.85
797.2386	192.3037	65535	64832.85
797.3806	194.5388	65535	64830.65
797.5228	196.7734	65535	64830.9
797.6649	199.0075	65535	64822.7
797.807	201.2411	65535	64826.85
797.9492	203.4742	65535	64824.7
798.0914	205.7068	65535	64820
798.2336	207.9389	65535	64820.4
798.3758	210.1704	65535	64820.4
798.518	212.4015	65535	64829.2
798.6603	214.632	65535	64834.5
798.8025	216.862	65535	64840.8
798.9448	219.0915	65535	64841.65
799.0871	221.3205	65535	64836.55
799.2294	223.549	65535	64838.75
799.3718	225.777	65535	64840.7
799.5141	228.0044	65535	64836.35
799.6565	230.2314	65535	64835.65
799.7989	232.4578	65535	64831.45
799.9413	234.6837	65535	64821.8
800.0837	236.909	65535	64817.2
800.2262	239.1339	65535	64796.65
800.3687	241.3582	65535	64810.85
800.5111	243.582	65535	64782.1
800.6536	245.8053	65535	64793
800.7961	248.0281	65535	64796
800.9387	250.2503	65535	64791
801.0812	252.472	65535	64789.95
801.2238	254.6932	65535	64790.65
801.3664	256.9139	65535	64793.7
801.509	259.134	65535	64784.6
801.6516	261.3536	65535	64790.5
801.7942	263.5727	65535	64786.1
801.9369	265.7912	65535	64788.05
802.0795	268.0092	65535	64786.2
802.2222	270.2267	65535	64786.65
802.3649	272.4436	65535	64785.4
802.5076	274.6601	65535	64773.5
802.6504	276.8759	65535	64777.1
802.7931	279.0913	65535	64778.75
802.9359	281.3061	65535	64776.55
803.0787	283.5204	65535	64773.1
803.2215	285.7341	65535	64768.75
803.3643	287.9473	65535	64756.5
803.5071	290.16	65535	64765.3
803.6499	292.3721	65535	64773.3
803.7928	294.5837	65535	64772.55
803.9357	296.7947	65535	64773.95
804.0786	299.0052	65535	64772.05
804.2215	301.2152	65535	64768.7
804.3644	303.4246	65535	64771.55
804.5074	305.6334	65535	64769.35
804.6503	307.8418	65535	64765.5
804.7933	310.0495	65535	64766.75
804.9363	312.2568	65535	64765.35
805.0793	314.4635	65535	64764.2
805.2223	316.6696	65535	64761.4
805.3653	318.8752	65535	64755.15
805.5084	321.0802	65535	64759.9
805.6514	323.2847	65535	64756.15
805.7945	325.4887	65535	64757.5
805.9376	327.692	65535	64755.25
806.0807	329.8949	65535	64752.45
806.2238	332.0972	65535	64754.2
806.367	334.2989	65535	64750.3
806.5101	336.5001	65535	64749.35
806.6533	338.7007	65535	64750.3
806.7965	340.9008	65535	64749.35
806.9397	343.1003	65535	64746.55
807.0829	345.2992	65535	64745.1
807.2261	347.4976	65535	64745.25
807.3693	349.6955	65535	64737.8
807.5126	351.8927	65535	64738.6
807.6559	354.0895	65535	64730.55
807.7991	356.2856	65535	64738.3
807.9424	358.4812	65535	64736
808.0857	360.6763	65535	64734.05
808.2291	362.8707	65535	64735.3
808.3724	365.0646	65535	64733.75
808.5158	367.258	65535	64730.65
808.6591	369.4508	65535	64725.95
808.8025	371.643	65535	64728.45
808.9459	373.8346	65535	64723.15
809.0893	376.0257	65535	64722.45
809.2327	378.2162	65535	64720.7
809.3762	380.4062	65535	64721.15
809.5196	382.5956	65535	64720.5
809.6631	384.7844	65535	64728.4
809.8066	386.9726	65535	64728.85
809.9501	389.1603	65535	64733.65
810.0936	391.3474	65535	64689.85
810.2371	393.5339	65535	64726.75
810.3806	395.7199	65535	64731.05
810.5241	397.9052	65535	64729.2
810.6677	400.09	65535	64728.25
810.8113	402.2743	65535	64728.55
810.9548	404.4579	65535	64728.7
811.0984	406.641	65535	64727.7
811.2421	408.8235	65535	64724
811.3857	411.0054	65535	64723.3
811.5293	413.1868	65535	64723
811.673	415.3675	65535	64715.35
811.8166	417.5477	65535	64717.3
811.9603	419.7273	65535	64713.35
812.104	421.9064	65535	64704.6
812.2477	424.0848	65535	64711.4
812.3914	426.2627	65535	64712
812.5351	428.4399	65535	64709.65
812.6788	430.6166	65535	64706.45
812.8226	432.7928	65535	64708.25
812.9663	434.9683	65535	64704.5
813.1101	437.1432	65535	64702.3
813.2539	439.3176	65535	64703.95
813.3977	441.4914	65535	64702.75
813.5415	443.6645	65535	64702.75
813.6853	445.8371	65535	64705.7
813.8291	448.0091	65535	64703.3
813.973	450.1806	65535	64703.2
814.1168	452.3514	65535	64699.15
814.2607	454.5216	65535	64690.65
814.4046	456.6913	65535	64699.8
814.5485	458.8603	65535	64700.2
814.6924	461.0288	65535	64700.15
814.8363	463.1967	65535	64700.1
814.9802	465.3639	65535	64697.65
815.1241	467.5306	65535	64697.9
815.2681	469.6967	65535	64697.95
815.412	471.8622	65535	64696.75
815.556	474.0271	65535	64700.25
815.7	476.1914	65535	64695.1
815.844	478.3551	65535	64697.5
815.988	480.5182	65535	64697.1
816.132	482.6807	65535	64696.3
816.276	484.8426	65535	64695.7
816.4201	487.0039	65535	64696.25
816.5641	489.1647	65535	64694.35
816.7082	491.3248	65535	64693.45
816.8522	493.4843	65535	64695
816.9963	495.6432	65535	64694.55
817.1404	497.8015	65535	64691.95
817.2845	499.9592	65535	64692.6
817.4286	502.1163	65535	64689
817.5727	504.2728	65535	64685.85
817.7168	506.4287	65535	64692.5
817.861	508.5839	65535	64691.55
818.0051	510.7386	65535	64688.05
818.1493	512.8927	65535	64685.7
818.2935	515.0461	65535	64686
818.4377	517.199	65535	64686.25
818.5818	519.3512	65535	64686.35
818.726	521.5029	65535	64681.4
818.8703	523.6539	65535	64685.7
819.0145	525.8043	65535	64683.15
819.1587	527.9541	65535	64680.55
819.303	530.1033	65535	64680.2
819.4472	532.2519	65535	64682.95
819.5915	534.3999	65535	64679.95
819.7357	536.5472	65535	64680.45
819.88	538.694	65535	64682.05
820.0243	540.8401	65535	64681.3
820.1686	542.9856	65535	64679.15
820.3129	545.1305	65535	64678
820.4572	547.2748	65535	64679.65
820.6016	549.4185	65535	64677.05
820.7459	551.5615	65535	64677.15
820.8902	553.704	65535	64678.25
821.0346	555.8458	65535	64679.6
821.1789	557.987	65535	64679.55
821.3233	560.1276	65535	64677.85
821.4677	562.2675	65535	64678.1
821.6121	564.4069	65535	64674.85
821.7565	566.5456	65535	64678.8
821.9009	568.6837	65535	64677.25
822.0453	570.8212	65535	64678.2
822.1897	572.958	65535	64675.95
822.3342	575.0942	65535	64675.6
822.4786	577.2299	65535	64677.55
822.6231	579.3648	65535	64678.15
822.7675	581.4992	65535	64676
822.912	583.6329	65535	64679.05
823.0565	585.766	65535	64675.45
823.201	587.8985	65535	64675.95
823.3454	590.0304	65535	64649.9
823.4899	592.1616	65535	64669.4
823.6345	594.2922	65535	64671.8
823.779	596.4222	65535	64671.45
823.9235	598.5515	65535	64674.65
824.068	600.6802	65535	64669.35
824.2126	602.8083	65535	64670.95
824.3571	604.9358	65535	64670.9
824.5017	607.0626	65535	64668.75
824.6462	609.1888	65535	64666.45
824.7908	611.3144	65535	64669.5
824.9354	613.4393	65535	64668.1
825.08	615.5636	65535	64671.85
825.2246	617.6873	65535	64669.05
825.3692	619.8103	65535	64668.6
825.5138	621.9327	65535	64668.5
825.6584	624.0544	65535	64668.05
825.803	626.1756	65535	64669.4
825.9477	628.2961	65535	64667.2
826.0923	630.4159	65535	64666.95
826.237	632.5351	65535	64666.55
826.3816	634.6537	65535	64665.65
826.5263	636.7716	65535	64663.55
826.6709	638.8889	65535	64664.3
826.8156	641.0056	65535	64666.9
826.9603	643.1216	65535	64661.8
827.105	645.237	65535	64663.1
827.2497	647.3518	65535	64666.95
827.3944	649.4659	65535	64665.8
827.5391	651.5793	65535	64662.15
827.6838	653.6922	65535	64666.85
827.8285	655.8043	65535	64665.35
827.9733	657.9159	65535	64664.3
828.118	660.0268	65535	64660.75
828.2627	662.137	65535	64663.55
828.4075	664.2466	65535	64662.45
828.5522	666.3556	65535	64663.25
828.697	668.4639	65535	64658.25
828.8418	670.5716	65535	64664.45
828.9865	672.6786	65535	64658.4
829.1313	674.785	65535	64660.2
829.2761	676.8907	65535	64659.6
829.4209	678.9958	65535	64663.55
829.5657	681.1002	65535	64659.55
829.7105	683.204	65535	64656.5
829.8553	685.3072	65535	64657.05
830.0001	687.4097	65535	64659.55
830.1449	689.5115	65535	64653.15
830.2898	691.6127	65535	64660.3
830.4346	693.7132	65535	64658.5
830.5794	695.8131	65535	64636.35
830.7243	697.9123	65535	64656.2
830.8691	700.0109	65535	64657
831.014	702.1089	65535	64657.4
831.1588	704.2061	65535	64658
831.3037	706.3028	65535	64653.55
831.4486	708.3987	65535	64657.4
831.5935	710.4941	65535	64656.55
831.7383	712.5887	65535	64655.05
831.8832	714.6827	65535	64652.4
832.0281	716.7761	65535	64655.6
832.173	718.8688	65535	64655.2
832.3179	720.9608	65535	64651.75
832.4628	723.0522	65535	64653.25
832.6077	725.1429	65535	64654.35
832.7527	727.233	65535	64651.4
832.8976	729.3224	65535	64654.85
833.0425	731.4112	65535	64653.2
833.1874	733.4993	65535	64652.6
833.3324	735.5867	65535	64652.05
833.4773	737.6735	65535	64649.85
833.6222	739.7596	65535	64653
833.7672	741.845	65535	64650.8
833.9122	743.9298	65535	64646.75
834.0571	746.014	65535	64655.7
834.2021	748.0974	65535	64650.1
834.347	750.1802	65535	64652.45
834.492	752.2624	65535	64652.15
834.637	754.3439	65535	64651.55
834.782	756.4247	65535	64641.65
834.9269	758.5048	65535	64653.6
835.0719	760.5843	65535	64650.4
835.2169	762.6631	65535	64651.35
835.3619	764.7413	65535	64651.45
835.5069	766.8188	65535	64652.2
835.6519	768.8956	65535	64648.1
835.7969	770.9718	65535	64649.75
835.9419	773.0473	65535	64651.2
836.0869	775.1221	65535	64651.05
836.232	777.1962	65535	64650.55
836.377	779.2697	65535	64650.65
836.522	781.3426	65535	64629.95
836.667	783.4147	65535	64646.65
836.8121	785.4862	65535	64652
836.9571	787.557	65535	64652.75
837.1021	789.6271	65535	64647.5
837.2472	791.6966	65535	64649.15
837.3922	793.7654	65535	64650.6
837.5373	795.8335	65535	64651.5
837.6823	797.901	65535	64649.35
837.8274	799.9678	65535	64648.9
837.9724	802.0339	65535	64650.7
838.1175	804.0993	65535	64640.1
838.2626	806.1641	65535	64648.35
838.4076	808.2282	65535	64649.8
838.5527	810.2916	65535	64647.8
838.6978	812.3544	65535	64650.6
838.8428	814.4164	65535	64651.7
838.9879	816.4778	65535	64648.8
839.133	818.5385	65535	64648.15
839.2781	820.5986	65535	64648.25
839.4232	822.658	65535	64649.35
839.5682	824.7166	65535	64648.35
839.7133	826.7747	65535	64649.6
839.8584	828.832	65535	64649.15
840.0035	830.8886	65535	64645.5
840.1486	832.9446	65535	64646.45
840.2937	834.9999	65535	64648
840.4388	837.0545	65535	64643.85
840.5839	839.1085	65535	64648.05
840.729	841.1618	65535	64642.2
840.8741	843.2143	65535	64647.15
841.0192	845.2662	65535	64649.85
841.1643	847.3175	65535	64648.7
841.3095	849.368	65535	64646.3
841.4546	851.4179	65535	64648.85
841.5997	853.467	65535	64645.5
841.7448	855.5155	65535	64642.9
841.8899	857.5633	65535	64644.9
842.0351	859.6105	65535	64647.45
842.1802	861.6569	65535	64645.2
842.3253	863.7027	65535	64644.8
842.4704	865.7478	65535	64645.5
842.6156	867.7922	65535	64645.8
842.7607	869.8359	65535	64645.65
842.9058	871.8789	65535	64647.45
843.0509	873.9212	65535	64613.2
843.1961	875.9629	65535	64645
843.3412	878.0039	65535	64645.7
843.4863	880.0441	65535	64644.65
843.6315	882.0837	65535	64644.55
843.7766	884.1226	65535	64643.85
843.9218	886.1609	65535	64646.05
844.0669	888.1984	65535	64648.2
844.212	890.2352	65535	64645.05
844.3572	892.2714	65535	64638.6
844.5023	894.3069	65535	64642.85
844.6475	896.3416	65535	64645.65
844.7926	898.3757	65535	64646.3
844.9377	900.4091	65535	64645.2
845.0829	902.4418	65535	64638.1
845.228	904.4739	65535	64641.55
845.3732	906.5052	65535	64642.15
845.5183	908.5358	65535	64645.45
845.6635	910.5658	65535	64642.35
845.8086	912.595	65535	64645.4
845.9538	914.6236	65535	64644.9
846.0989	916.6515	65535	64647.25
846.2441	918.6786	65535	64643.85
846.3892	920.7051	65535	64641.8
846.5344	922.7309	65535	64643.55
846.6795	924.756	65535	64642.85
846.8246	926.7804	65535	64640.8
846.9698	928.8041	65535	64638.45
847.1149	930.8272	65535	64643.6
847.2601	932.8495	65535	64643.85
847.4052	934.8711	65535	64642.1
847.5504	936.892	65535	64641.45
847.6955	938.9123	65535	64641.35
847.8407	940.9318	65535	64642.7
847.9858	942.9506	65535	64642.45
848.131	944.9688	65535	64643.05
848.2761	946.9862	65535	64643.75
848.4213	949.003	65535	64641.75
848.5664	951.019	65535	64645.05
848.7115	953.0344	65535	64644.8
848.8567	955.0491	65535	64640.9
849.0018	957.063	65535	64645.7
849.147	959.0763	65535	64644.75
849.2921	961.0888	65535	64639.05
849.4373	963.1007	65535	64641.85
849.5824	965.1119	65535	64643.35
849.7275	967.1223	65535	64643.3
849.8727	969.1321	65535	64641.2
850.0178	971.1412	65535	64642.55
850.1629	973.1495	65535	64641.45
850.3081	975.1572	65535	64610.05
850.4532	977.1641	65535	64641.8
850.5983	979.1704	65535	64641.35
850.7435	981.1759	65535	64641.6
850.8886	983.1808	65535	64638.55
851.0337	985.1849	65535	64630.75
851.1788	987.1884	65535	64641.2
851.324	989.1911	65535	64640.35
851.4691	991.1932	65535	64639.85
851.6142	993.1945	65535	64643.85
851.7593	995.1951	65535	64638.9
851.9045	997.1951	65535	64634.1
852.0496	999.1943	65535	64641.05
852.1947	1001.1928	65535	64641.7
852.3398	1003.1906	65535	64643.2
852.4849	1005.1877	65535	64640.9
852.63	1007.1841	65535	64642.05
852.7751	1009.1798	65535	64642.25
852.9202	1011.1748	65535	64642.2
853.0653	1013.1691	65535	64638.85
853.2104	1015.1627	65535	64642.25
853.3555	1017.1556	65535	64644.3
853.5006	1019.1477	65535	64640.6
853.6457	1021.1392	65535	64641.6
853.7908	1023.1299	65535	64639.5
853.9359	1025.12	65535	64642
854.081	1027.1093	65535	64642.15
854.2261	1029.0979	65535	64642.45
854.3712	1031.0859	65535	64644.2
854.5163	1033.0731	65535	64641.85
854.6613	1035.0596	65535	64642.75
854.8064	1037.0454	65535	64642.55
854.9515	1039.0304	65535	64641.35
855.0965	1041.0148	65535	64642.6
855.2416	1042.9985	65535	64640.85
855.3867	1044.9814	65535	64642
855.5317	1046.9636	65535	64636.75
855.6768	1048.9452	65535	64642.35
855.8219	1050.926	65535	64641.1
855.9669	1052.9061	65535	64642.35
856.112	1054.8855	65535	64639.95
856.257	1056.8642	65535	64640.4
856.4021	1058.8421	65535	64639.7
856.5471	1060.8194	65535	64642.1
856.6921	1062.7959	65535	64645.4
856.8372	1064.7717	65535	64638.85
856.9822	1066.7469	65535	64640.95
857.1272	1068.7213	65535	64638.6
857.2723	1070.695	65535	64639.6
857.4173	1072.6679	65535	64639.45
857.5623	1074.6402	65535	64642.8
857.7073	1076.6117	65535	64636.05
857.8523	1078.5826	65535	64639.95
857.9973	1080.5527	65535	64638.2
858.1423	1082.5221	65535	64641.25
858.2873	1084.4908	65535	64642.55
858.4323	1086.4587	65535	64638.95
858.5773	1088.426	65535	64640.7
858.7223	1090.3925	65535	64637.6
858.8673	1092.3584	65535	64641.9
859.0123	1094.3235	65535	64643.65
859.1573	1096.2879	65535	64640.5
859.3022	1098.2515	65535	64642.7
859.4472	1100.2145	65535	64640.9
859.5922	1102.1767	65535	64637.85
859.7371	1104.1382	65535	64639.5
859.8821	1106.099	65535	64637.45
860.027	1108.0591	65535	64642.85
860.172	1110.0185	65535	64639.85
860.3169	1111.9771	65535	64642.95
860.4619	1113.9351	65535	64641.3
860.6068	1115.8923	65535	64642.05
860.7517	1117.8488	65535	64638.25
860.8967	1119.8045	65535	64641.55
861.0416	1121.7596	65535	64641.65
861.1865	1123.7139	65535	64640.15
861.3314	1125.6675	65535	64640.9
861.4763	1127.6204	65535	64641.3
861.6212	1129.5726	65535	64639.25
861.7661	1131.524	65535	64641.85
861.911	1133.4748	65535	64641.95
862.0559	1135.4248	65535	64639.5
862.2008	1137.3741	65535	64642.8
862.3457	1139.3226	65535	64639.6
862.4905	1141.2705	65535	64642.15
862.6354	1143.2176	65535	64635.1
862.7803	1145.164	65535	64637.9
862.9251	1147.1097	65535	64642
863.07	1149.0546	65535	64639.95
863.2148	1150.9989	65535	64639.4
863.3597	1152.9424	65535	64640.45
863.5045	1154.8852	65535	64641.3
863.6493	1156.8272	65535	64642.05
863.7942	1158.7686	65535	64634.5
863.939	1160.7092	65535	64641.55
864.0838	1162.6491	65535	64637.3
864.2286	1164.5883	65535	64641
864.3734	1166.5267	65535	64640.9
864.5182	1168.4644	65535	64640.65
864.663	1170.4014	65535	64634.95
864.8078	1172.3377	65535	64642.2
864.9526	1174.2732	65535	64642.7
865.0974	1176.2081	65535	64639.6
865.2421	1178.1421	65535	64636.85
865.3869	1180.0755	65535	64641.6
865.5317	1182.0082	65535	64644.1
865.6764	1183.9401	65535	64640.7
865.8212	1185.8713	65535	64642.45
865.9659	1187.8017	65535	64642.3
866.1106	1189.7315	65535	64641.9
866.2554	1191.6605	65535	64614.85
866.4001	1193.5888	65535	64641.6
866.5448	1195.5163	65535	64641.3
866.6895	1197.4432	65535	64640.15
866.8342	1199.3693	65535	64639.9
866.9789	1201.2947	65535	64639
867.1236	1203.2193	65535	64639.85
867.2683	1205.1432	65535	64641.65
867.413	1207.0664	65535	64640.9
867.5576	1208.9889	65535	64638.1
867.7023	1210.9106	65535	64640.1
867.847	1212.8316	65535	64641.65
867.9916	1214.7519	65535	64632.65
868.1363	1216.6715	65535	64638.85
868.2809	1218.5903	65535	64640.5
868.4255	1220.5084	65535	64641.45
868.5701	1222.4257	65535	64640.75
868.7148	1224.3424	65535	64641.85
868.8594	1226.2583	65535	64633.95
869.004	1228.1735	65535	64640.3
869.1486	1230.0879	65535	64639.3
869.2932	1232.0016	65535	64641.4
869.4377	1233.9146	65535	64638.05
869.5823	1235.8269	65535	64641.7
869.7269	1237.7384	65535	64643.55
869.8715	1239.6492	65535	64640.35
870.016	1241.5592	65535	64640.45
870.1606	1243.4686	65535	64642.4
870.3051	1245.3772	65535	64641.2
870.4496	1247.285	65535	64640.35
870.5941	1249.1922	65535	64641.3
870.7387	1251.0986	65535	64642.8
870.8832	1253.0042	65535	64640.15
871.0277	1254.9092	65535	64640.6
871.1722	1256.8134	65535	64641
871.3167	1258.7169	65535	64639.85
871.4611	1260.6196	65535	64639.6
871.6056	1262.5216	65535	64641.1
871.7501	1264.4229	65535	64641.65
871.8945	1266.3234	65535	64641.6
872.039	1268.2232	65535	64637.65
872.1834	1270.1223	65535	64642
872.3278	1272.0207	65535	64642.45
872.4723	1273.9183	65535	64635.65
872.6167	1275.8151	65535	64640.75
872.7611	1277.7113	65535	64639.8
872.9055	1279.6067	65535	64643.2
873.0499	1281.5014	65535	64639.95
873.1943	1283.3953	65535	64638.55
873.3386	1285.2885	65535	64641.2
873.483	1287.181	65535	64640.75
873.6274	1289.0727	65535	64641.75
873.7717	1290.9637	65535	64640.7
873.9161	1292.854	65535	64640.25
874.0604	1294.7435	65535	64639.8
874.2047	1296.6323	65535	64639.75
874.349	1298.5204	65535	64637.75
874.4933	1300.4077	65535	64639.45
874.6376	1302.2943	65535	64640.85
874.7819	1304.1802	65535	64640.95
874.9262	1306.0653	65535	64639.55
875.0705	1307.9497	65535	64639.15
875.2147	1309.8333	65535	64641.35
875.359	1311.7162	65535	64642.75
875.5032	1313.5984	65535	64639.25
875.6475	1315.4798	65535	64638.75
875.7917	1317.3605	65535	64625.05
875.9359	1319.2405	65535	64637.8
876.0801	1321.1197	65535	64638.65
876.2243	1322.9982	65535	64638.45
876.3685	1324.876	65535	64641.85
876.5127	1326.753	65535	64639
876.6569	1328.6293	65535	64638.45
876.801	1330.5048	65535	64638.4
876.9452	1332.3796	65535	64641.15
877.0893	1334.2537	65535	64615.1
877.2335	1336.127	65535	64641.7
877.3776	1337.9996	65535	64639.2
877.5217	1339.8714	65535	64641.35
877.6658	1341.7426	65535	64597.4
877.8099	1343.6129	65535	64641.1
877.954	1345.4826	65535	64639.6
878.0981	1347.3515	65535	64640
878.2422	1349.2196	65535	64640.5
878.3862	1351.087	65535	64641.9
878.5303	1352.9537	65535	64638.1
878.6743	1354.8197	65535	64641.4
878.8184	1356.6849	65535	64640.25
878.9624	1358.5493	65535	64639.85
879.1064	1360.4131	65535	64642.25
879.2504	1362.276	65535	64639.6
879.3944	1364.1383	65535	64642.1
879.5384	1365.9998	65535	64635.95
879.6823	1367.8606	65535	64641.45
879.8263	1369.7206	65535	64639.8
879.9702	1371.5799	65535	64638
880.1142	1373.4384	65535	64638.8
880.2581	1375.2962	65535	64638.4
880.402	1377.1533	65535	64640.75
880.5459	1379.0096	65535	64636.5
880.6898	1380.8652	65535	64640.65
880.8337	1382.7201	65535	64640.7
880.9776	1384.5742	65535	64640.25
881.1215	1386.4275	65535	64639.15
881.2653	1388.2802	65535	64641.4
881.4092	1390.132	65535	64640.95
881.553	1391.9832	65535	64639.3
881.6968	1393.8336	65535	64638.1
881.8406	1395.6832	65535	64638.05
881.9844	1397.5322	65535	64641.55
882.1282	1399.3803	65535	64635.05
882.272	1401.2278	65535	64641.05
882.4158	1403.0745	65535	64643.15
882.5595	1404.9204	65535	64641.85
882.7033	1406.7656	65535	64641.9
882.847	1408.6101	65535	64640.85
882.9908	1410.4538	65535	64640.85
883.1345	1412.2968	65535	64640.25
883.2782	1414.139	65535	64641.2
883.4219	1415.9805	65535	64642
883.5656	1417.8213	65535	64635.7
883.7092	1419.6613	65535	64642.35
883.8529	1421.5006	65535	64640.9
883.9965	1423.3391	65535	64641.1
884.1402	1425.1769	65535	64640.55
884.2838	1427.0139	65535	64640.35
884.4274	1428.8502	65535	64641.15
884.571	1430.6858	65535	64640.75
884.7146	1432.5206	65535	64641.85
884.8582	1434.3547	65535	64639.3
885.0018	1436.188	65535	64642.45
885.1453	1438.0206	65535	64639.65
885.2889	1439.8524	65535	64641.2
885.4324	1441.6835	65535	64638.85
885.5759	1443.5139	65535	64637.95
885.7194	1445.3435	65535	64640.2
885.8629	1447.1724	65535	64640.95
886.0064	1449.0005	65535	64641.9
886.1499	1450.8279	65535	64639.4
886.2933	1452.6545	65535	64639.8
886.4368	1454.4804	65535	64644.95
886.5802	1456.3056	65535	64634.85
886.7237	1458.13	65535	64640.1
886.8671	1459.9536	65535	64641.25
887.0105	1461.7766	65535	64642.25
887.1539	1463.5987	65535	64640.3
887.2972	1465.4202	65535	64640.55
887.4406	1467.2409	65535	64638.2
887.584	1469.0608	65535	64641.65
887.7273	1470.88	65535	64641.3
887.8706	1472.6984	65535	64643.65
888.0139	1474.5161	65535	64638.65
888.1572	1476.3331	65535	64641.5
888.3005	1478.1493	65535	64639.45
888.4438	1479.9648	65535	64641.6
888.5871	1481.7795	65535	64640.75
888.7303	1483.5935	65535	64642.6
888.8736	1485.4067	65535	64641.05
889.0168	1487.2192	65535	64641.25
889.16	1489.031	65535	64638
889.3032	1490.842	65535	64641.2
889.4464	1492.6522	65535	64640.7
889.5896	1494.4618	65535	64640
889.7327	1496.2705	65535	64642.9
889.8759	1498.0785	65535	64641
890.019	1499.8858	65535	64640.55
890.1622	1501.6924	65535	64641.4
890.3053	1503.4981	65535	64640.75
890.4484	1505.3032	65535	64642.2
890.5914	1507.1075	65535	64640.7
890.7345	1508.911	65535	64640.45
890.8776	1510.7138	65535	64639.9
891.0206	1512.5159	65535	64641.6
891.1637	1514.3172	65535	64642.3
891.3067	1516.1178	65535	64644.85
891.4497	1517.9176	65535	64640.85
891.5927	1519.7166	65535	64641.95
891.7357	1521.515	65535	64635.6
891.8786	1523.3126	65535	64639.95
892.0216	1525.1094	65535	64640.6
892.1645	1526.9055	65535	64641.95
892.3074	1528.7008	65535	64643.1
892.4503	1530.4954	65535	64638.9
892.5932	1532.2893	65535	64643.9
892.7361	1534.0824	65535	64637.6
892.879	1535.8747	65535	64642.55
893.0218	1537.6663	65535	64640.6
893.1647	1539.4572	65535	64640.7
893.3075	1541.2473	65535	64642
893.4503	1543.0367	65535	64642.9
893.5931	1544.8253	65535	64636.8
893.7359	1546.6132	65535	64639.15
893.8787	1548.4003	65535	64632.7
894.0214	1550.1867	65535	64634.4
894.1642	1551.9723	65535	64637.25
894.3069	1553.7572	65535	64640.65
894.4496	1555.5414	65535	64643.55
894.5923	1557.3247	65535	64642.15
894.735	1559.1074	65535	64644.5
894.8777	1560.8893	65535	64641.9
895.0204	1562.6705	65535	64640.8
895.163	1564.4509	65535	64644.1
895.3056	1566.2305	65535	64644.2
895.4482	1568.0094	65535	64642.45
895.5908	1569.7876	65535	64642.5
895.7334	1571.565	65535	64643.25
895.876	1573.3417	65535	64643.55
896.0186	1575.1176	65535	64644.5
896.1611	1576.8928	65535	64643.5
896.3036	1578.6672	65535	64642.95
896.4461	1580.4409	65535	64645.05
896.5886	1582.2138	65535	64640.65
896.7311	1583.986	65535	64642.35
896.8736	1585.7575	65535	64643.85
897.0161	1587.5282	65535	64641.85
897.1585	1589.2981	65535	64645.05
897.3009	1591.0673	65535	64642.3
897.4433	1592.8358	65535	64643.7
897.5857	1594.6035	65535	64642
897.7281	1596.3704	65535	64642.4
897.8705	1598.1366	65535	64644
898.0128	1599.9021	65532.35	64640.85
898.1551	1601.6668	65535	64642.65
898.2975	1603.4308	65534.85	64642.4
898.4398	1605.194	65533.25	64636.15
898.5821	1606.9564	65524.45	64632
898.7243	1608.7182	65531.9	64637.05
898.8666	1610.4791	65528.95	64638.3
899.0088	1612.2394	65535	64644.65
899.1511	1613.9988	65519.2	64627.15
899.2933	1615.7576	65534.35	64643.1
899.4355	1617.5156	65533.8	64638.2
899.5776	1619.2728	65535	64642.15
899.7198	1621.0293	65520.6	64630
899.862	1622.785	65521.45	64624.05
900.0041	1624.54	65530.2	64637
900.1462	1626.2942	65512.25	64621.75
900.2883	1628.0477	65471.5	64577.25
900.4304	1629.8005	65390.4	64496.45
900.5725	1631.5525	65495.1	64605.75
900.7145	1633.3037	65389.05	64496.8
900.8566	1635.0542	65364.45	64471.75
900.9986	1636.804	65436.3	64544.9
901.1406	1638.553	65292.25	64315
901.2826	1640.3013	65367.05	64472.25
901.4245	1642.0488	65294	64404
901.5665	1643.7955	65361.75	64473.9
901.7085	1645.5416	65310.9	64420.95
901.8504	1647.2868	65235.6	64346.45
901.9923	1649.0313	65341.6	64449.3
902.1342	1650.7751	65259.95	64366.8
902.2761	1652.5181	65220.55	64331.4
902.4179	1654.2604	65236.05	64344.4
902.5598	1656.0019	65255.85	64364.75
902.7016	1657.7427	65223.65	64332.25
902.8434	1659.4828	65287.15	64398.9
902.9852	1661.222	65194.2	64303.75
903.127	1662.9606	65296.65	64406.8
903.2687	1664.6984	65145.3	64255.05
903.4105	1666.4354	65221.1	64330.3
903.5522	1668.1717	65068.05	64178.15
903.6939	1669.9072	64892.15	64002.3
903.8356	1671.642	64894.4	64002.65
903.9773	1673.3761	64865.65	63975.25
904.119	1675.1094	64838.7	63949.1
904.2606	1676.8419	64606.8	63718.35
904.4022	1678.5737	64721.6	63832.15
904.5439	1680.3048	64621.05	63730.75
904.6855	1682.0351	64520.55	63630.85
904.827	1683.7646	64401.85	63509.25
904.9686	1685.4934	64544.4	63654.9
905.1101	1687.2215	64051.7	63162.4
905.2517	1688.9488	64435.55	63547.25
905.3932	1690.6754	63733.35	62845.1
905.5347	1692.4012	64060.6	63171.35
905.6761	1694.1263	64102.05	63212.85
905.8176	1695.8506	63801.55	62911.25
905.9591	1697.5742	63868.1	62977.7
906.1005	1699.297	63772.1	62882.75
906.2419	1701.0191	63828.75	62940
906.3833	1702.7404	63458.55	62569.85
906.5246	1704.461	63365.8	62473.85
906.666	1706.1808	63569.85	62680
906.8073	1707.8999	63436	62544.1
906.9487	1709.6182	63344.55	62454.75
907.09	1711.3358	63318.25	62428.4
907.2313	1713.0527	63240.9	62351.3
907.3725	1714.7688	63271.35	62374.2
907.5138	1716.4841	62897.05	62004.8
907.655	1718.1987	63054.4	62160.65
907.7962	1719.9126	62933.3	62045.6
907.9374	1721.6257	63008	62117.9
908.0786	1723.338	63021.65	62130.5
908.2198	1725.0496	62610.4	61719.65
908.3609	1726.7605	62644.05	61753.55
908.502	1728.4706	62521.75	61630.8
908.6431	1730.18	62626.05	61735.4
908.7842	1731.8886	62462.35	61572.85
908.9253	1733.5964	62332.35	61436.3
909.0664	1735.3036	62499.6	61607.15
909.2074	1737.0099	62376.75	61486.9
909.3484	1738.7156	62156.85	61269
909.4894	1740.4204	62092.2	61199.55
909.6304	1742.1246	62198.4	61308.15
909.7714	1743.8279	62186.1	61298.1
909.9123	1745.5306	62152.65	61264
910.0532	1747.2325	61551.1	60662.65
910.1941	1748.9336	61588.65	60700.6
910.335	1750.634	61728.05	60836
910.4759	1752.3336	61870.15	60983.55
910.6168	1754.0325	61424.7	60537.15
910.7576	1755.7307	61819.7	60931.65
910.8984	1757.4281	61270.4	60382.1
911.0392	1759.1247	61621.7	60725.05
911.18	1760.8206	61040.2	60145.15
911.3208	1762.5158	61150.85	60260.55
911.4615	1764.2102	61226.45	60338.25
911.6022	1765.9039	61115.65	60226.85
911.7429	1767.5968	60976.85	60087.2
911.8836	1769.289	60872.25	59982.3
912.0243	1770.9804	60992.1	60100.1
912.1649	1772.6711	60797.75	59910.5
912.3056	1774.361	60726.15	59835.25
912.4462	1776.0502	60715.4	59824.95
912.5868	1777.7386	60178.65	59286.55
912.7274	1779.4263	60451.55	59562.7
912.8679	1781.1132	60414.85	59525.35
913.0084	1782.7994	60257	59365.5
913.149	1784.4849	60290.1	59402.25
913.2895	1786.1696	59599.85	58705.15
913.4299	1787.8535	59979.95	59090.85
913.5704	1789.5367	59974.3	59083.95
913.7108	1791.2192	59610.9	58720.75
913.8513	1792.9009	59391.25	58473.5
913.9917	1794.5818	59645.85	58755.7
914.132	1796.2621	59289.9	58403.15
914.2724	1797.9415	59311	58420.5
914.4128	1799.6202	59253.3	58364.75
914.5531	1801.2982	59227.15	58337.55
914.6934	1802.9755	58868.7	57978.05
914.8337	1804.6519	58732.7	57842.95
914.9739	1806.3277	59249	58360.55
915.1142	1808.0027	58441.8	57554.4
915.2544	1809.6769	58646.25	57757.6
915.3946	1811.3504	58693.85	57803.2
915.5348	1813.0231	58146.55	57255.8
915.675	1814.6951	58438.75	57549.8
915.8151	1816.3664	58188	57296.75
915.9553	1818.0369	58223.65	57334.95
916.0954	1819.7067	58005.7	57118.9
916.2355	1821.3757	58322.6	57429.35
916.3755	1823.044	57824.55	56936.4
916.5156	1824.7115	57649.7	56760.8
916.6556	1826.3783	57717.45	56829.25
916.7956	1828.0443	57664.5	56777.05
916.9356	1829.7096	57486.2	56594.85
917.0756	1831.3741	57070.85	56177.2
917.2155	1833.0379	57328.2	56439.75
917.3555	1834.701	57310.15	56419.2
917.4954	1836.3633	56942.2	56053.35
917.6353	1838.0248	57088.85	56199.6
917.7751	1839.6856	56932.35	56042.7
917.915	1841.3457	56610.15	55721.25
918.0548	1843.005	56998.35	56111.2
918.1946	1844.6636	56682.6	55794.6
918.3344	1846.3214	56175.45	55287.45
918.4742	1847.9785	56325	55436.9
918.6139	1849.6349	56255.75	55367.7
918.7537	1851.2904	56542.4	55645.2
918.8934	1852.9453	55962.55	55074.1
919.0331	1854.5994	56112.6	55223.5
919.1727	1856.2528	56127.6	55233.35
919.3124	1857.9054	55735.8	54846.7
919.452	1859.5572	55538.95	54651.5
919.5916	1861.2083	55695.55	54806.7
919.7312	1862.8587	56087.8	55199.9
919.8708	1864.5084	55044.2	54155.8
920.0103	1866.1572	55452.95	54562.35
920.1498	1867.8054	54867.5	53979.85
920.2893	1869.4528	55181.7	54292.75
920.4288	1871.0994	54718.1	53830.35
920.5683	1872.7453	54679.75	53788.8
920.7077	1874.3905	54832.2	53936.65
920.8471	1876.0349	54374.75	53484.9
920.9865	1877.6786	54671.3	53781.7
921.1259	1879.3215	54262.3	53373.15
921.2653	1880.9637	54611.35	53720.1
921.4046	1882.6051	54192.65	53304.15
921.5439	1884.2458	53957.5	53066.95
921.6832	1885.8858	53645.05	52755.8
921.8225	1887.525	53846.85	52955.25
921.9617	1889.1634	53703.15	52813.65
922.101	1890.8011	53399.9	52511.85
922.2402	1892.4381	52845.45	51955.6
922.3794	1894.0743	53414.05	52524.8
922.5185	1895.7098	53111.2	52223.5
922.6577	1897.3446	52714.7	51824.9
922.7968	1898.9786	52799.9	51905.35
922.9359	1900.6118	52516.6	51629.65
923.075	1902.2443	52224.1	51333.05
923.214	1903.8761	52464.65	51576.45
923.3531	1905.5071	52112.75	51221.95
923.4921	1907.1374	51522.3	50634.6
923.6311	1908.7669	51771.2	50884.35
923.77	1910.3957	51911.2	51022.55
923.909	1912.0237	51355.85	50466.85
924.0479	1913.651	51097	50207.9
924.1868	1915.2776	50978.2	50089.3
924.3257	1916.9034	50942.4	50053.05
924.4646	1918.5285	50679.55	49790.15
924.6034	1920.1528	50630.5	49740.6
924.7422	1921.7764	50453.05	49564.4
924.881	1923.3992	50365.8	49478
925.0198	1925.0213	50003.75	49115.9
925.1586	1926.6427	49610.8	48725.2
925.2973	1928.2633	49772.15	48804.95
925.436	1929.8832	49521.7	48632.65
925.5747	1931.5023	49335.5	48449.2
925.7134	1933.1207	48983.95	48097.5
925.852	1934.7383	49137.4	48249.2
925.9906	1936.3552	48836.05	47951.45
926.1292	1937.9714	48785.4	47894.9
926.2678	1939.5868	48703.75	47813.45
926.4064	1941.2015	48242.9	47352.7
926.5449	1942.8154	48005.85	47116.5
926.6834	1944.4286	47976.5	47087.25
926.8219	1946.041	47934.35	47028.7
926.9604	1947.6528	47614.5	46721.6
927.0988	1949.2637	47454.75	46565.65
927.2372	1950.8739	47247.9	46357.6
927.3756	1952.4834	47306.9	46417.55
927.514	1954.0921	47114.85	46225.4
927.6523	1955.7001	46827.9	45934.5
927.7907	1957.3074	46877.2	45990.05
927.929	1958.9139	46484.75	45597.85
928.0673	1960.5197	46474.45	45585.4
928.2055	1962.1247	46239.1	45349.9
928.3438	1963.729	46025.3	45139.35
928.482	1965.3325	45825.7	44913.3
928.6202	1966.9353	45794.8	44906.25
928.7584	1968.5374	45515	44625.4
928.8965	1970.1387	45390.55	44504.65
929.0346	1971.7393	45316.15	44426.4
929.1727	1973.3392	45168.55	44281.45
929.3108	1974.9383	44925.75	44037.25
929.4489	1976.5366	44724.3	43836.25
929.5869	1978.1342	44709.3	43819.8
929.7249	1979.7311	44620.4	43730.9
929.8629	1981.3273	44490.6	43601.3
930.0009	1982.9227	44300.7	43408.65
930.1388	1984.5173	44148.9	43260.85
930.2767	1986.1112	43935.3	43045.75
930.4146	1987.7044	43941.8	43055.15
930.5525	1989.2968	43622.5	42731.6
930.6904	1990.8885	43620.05	42729.5
930.8282	1992.4795	43462.85	42573.1
930.966	1994.0697	43309.15	42421.4
931.1038	1995.6592	43173.95	42284.25
931.2415	1997.2479	43067.8	42179.7
931.3793	1998.8359	42928.95	42040.6
931.517	2000.4232	42751.5	41863.15
931.6547	2002.0097	42642.3	41757.25
931.7923	2003.5955	42423.1	41536.6
931.93	2005.1805	42390.75	41502
932.0676	2006.7648	42257.8	41370.65
932.2052	2008.3484	42130.7	41239.75
932.3427	2009.9312	42172.2	41282.3
932.4803	2011.5133	41959.7	41072.95
932.6178	2013.0946	41844.7	40955.85
932.7553	2014.6752	41692.95	40807.25
932.8928	2016.2551	41594.4	40705.55
933.0302	2017.8342	41386.25	40497.85
933.1676	2019.4126	41199.45	40312.65
933.305	2020.9902	41064.35	40179.3
933.4424	2022.5672	40974.25	40084.8
933.5798	2024.1433	40898.85	40005.85
933.7171	2025.7188	40740.35	39851.85
933.8544	2027.2935	40592.45	39704.15
933.9917	2028.8674	40431	39543.45
934.129	2030.4406	40322.5	39434.75
934.2662	2032.0131	40122.8	39236.1
934.4034	2033.5849	39992.3	39094.85
934.5406	2035.1559	39972.95	39084.45
934.6778	2036.7261	39936.7	39049.8
934.8149	2038.2957	39732.05	38845.4
934.952	2039.8645	39682.55	38796.55
935.0891	2041.4325	39698.9	38808.95
935.2262	2042.9998	39509.8	38622.4
935.3632	2044.5664	39338.25	38449.25
935.5002	2046.1323	39284.5	38396.8
935.6372	2047.6974	39153.75	38267.85
935.7742	2049.2617	39054.6	38168.1
935.9111	2050.8254	39050.65	38156.85
936.048	2052.3883	38876.75	37987.15
936.1849	2053.9504	38800.8	37912.9
936.3218	2055.5118	38641.05	37752.35
936.4586	2057.0725	38463.85	37574.6
936.5955	2058.6325	38364.4	37475.5
936.7323	2060.1917	38287.55	37400.05
936.869	2061.7502	38204.75	37315.2
937.0058	2063.3079	37998	37110.8
937.1425	2064.8649	37836.45	36944.8
937.2792	2066.4212	37814.15	36925.7
937.4159	2067.9767	37673.5	36786.25
937.5525	2069.5315	37499.6	36611.1
937.6891	2071.0856	37351.4	36462.65
937.8257	2072.6389	37184	36295.2
937.9623	2074.1915	37023.65	36137.3
938.0989	2075.7433	36883.45	35996.25
938.2354	2077.2945	36774.65	35889.05
938.3719	2078.8448	36645.6	35757.2
938.5084	2080.3945	36543.5	35656.35
938.6448	2081.9434	36523.55	35636.8
938.7812	2083.4916	36379.2	35492.35
938.9176	2085.039	36230.4	35343.45
939.054	2086.5857	36196.2	35307.4
939.1903	2088.1317	36067.45	35180.45
939.3267	2089.677	35960.9	35072.55
939.463	2091.2215	35884.3	34996.9
939.5992	2092.7652	35797.75	34908.6
939.7355	2094.3083	35661.25	34773.5
939.8717	2095.8506	35609.05	34723.2
940.0079	2097.3921	35616.95	34729.75
940.1441	2098.933	35451.25	34564.7
940.2802	2100.4731	35348.95	34460.95
940.4163	2102.0124	35317.4	34421.3
940.5524	2103.5511	35181.05	34291.65
940.6885	2105.089	35067.75	34180.65
940.8245	2106.6261	34991.6	34103.25
940.9606	2108.1626	34895.65	34005.65
941.0965	2109.6983	34827.1	33908.7
941.2325	2111.2332	34748.5	33860.65
941.3684	2112.7675	34697	33809.7
941.5044	2114.301	34570.1	33681.9
941.6403	2115.8337	34493.6	33606.15
941.7761	2117.3657	34350.4	33462.8
941.912	2118.897	34297.75	33408.7
942.0478	2120.4276	34132.5	33238.5
942.1835	2121.9575	34024.4	33134.6
942.3193	2123.4866	34035.75	33133.15
942.455	2125.0149	33894.35	33004.2
942.5907	2126.5426	33716.8	32830.2
942.7264	2128.0695	33607.45	32715.6
942.8621	2129.5956	33550.5	32663.45
942.9977	2131.1211	33474.4	32581.85
943.1333	2132.6458	33402.6	32514.15
943.2689	2134.1698	33305	32417.6
943.4044	2135.693	33188.9	32296.9
943.54	2137.2155	33128.25	32237.75
943.6755	2138.7373	33044.85	32156.55
943.8109	2140.2584	32945.1	32056.3
943.9464	2141.7787	32806.4	31913.25
944.0818	2143.2983	32639.8	31752.5
944.2172	2144.8171	32505.1	31617.9
944.3526	2146.3353	32417.2	31527.75
944.4879	2147.8527	32307.65	31419.7
944.6232	2149.3693	32301.35	31413.75
944.7585	2150.8853	32190.7	31303.55
944.8938	2152.4005	32011.95	31125.2
945.029	2153.9149	32019.3	31131.9
945.1642	2155.4287	31883.75	30995.3
945.2994	2156.9417	31785.2	30894.95
945.4346	2158.454	31690.6	30798.35
945.5697	2159.9655	31649.8	30762.75
945.7048	2161.4764	31626.45	30738.25
945.8399	2162.9865	31457.75	30570.6
945.9749	2164.4958	31403.5	30515.75
946.1099	2166.0045	31215.8	30324.9
946.2449	2167.5124	31245.4	30357.2
946.3799	2169.0195	31126.35	30236.85
946.5148	2170.526	31066.85	30177.9
946.6498	2172.0317	30995.7	30107.45
946.7846	2173.5367	30845.8	29956.85
946.9195	2175.0409	30734	29846.9
947.0543	2176.5445	30809.4	29924.2
947.1891	2178.0473	30641.75	29754.25
947.3239	2179.5494	30464.1	29572.55
947.4587	2181.0507	30344.05	29455.95
947.5934	2182.5513	30324.1	29436.7
947.7281	2184.0512	30211.9	29322.25
947.8628	2185.5504	30108.3	29220.1
947.9974	2187.0488	29902.25	29014.5
948.132	2188.5465	29836.6	28947.15
948.2666	2190.0435	29736.1	28847.7
948.4012	2191.5397	29584.35	28695.2
948.5357	2193.0353	29549.3	28662.9
948.6702	2194.5301	29383.25	28495.3
948.8047	2196.0241	29231.6	28341.65
948.9392	2197.5175	29207	28318.85
949.0736	2199.0101	29117.1	28225.25
949.208	2200.502	28964.15	28076.9
949.3424	2201.9931	28882.25	27994.6
949.4767	2203.4835	28771.35	27882.5
949.611	2204.9733	28680.3	27785.65
949.7453	2206.4622	28643.6	27756.35
949.8796	2207.9505	28485.95	27596.2
950.0138	2209.438	28336.15	27449.8
950.148	2210.9248	28294.95	27405.7
950.2822	2212.4109	28197.8	27308.45
950.4164	2213.8962	28093	27202.5
950.5505	2215.3809	28029	27139.4
950.6846	2216.8648	27986.7	27099.4
950.8186	2218.3479	27828.3	26936.05
950.9527	2219.8304	27748.45	26858.8
951.0867	2221.3121	27586.25	26696.95
951.2207	2222.7931	27521.1	26633.15
951.3546	2224.2733	27412.7	26523.8
951.4886	2225.7529	27327.4	26438.7
951.6225	2227.2317	27285.65	26396.15
951.7563	2228.7098	27194.05	26306.95
951.8902	2230.1872	27077.2	26190.3
952.024	2231.6638	27025.15	26137.95
952.1578	2233.1397	26944.05	26050.6
952.2916	2234.6149	26879	25991.6
952.4253	2236.0894	26745.8	25856.45
952.559	2237.5632	26654.95	25764.2
952.6927	2239.0362	26616.15	25727.65
952.8263	2240.5085	26520.8	25631.55
952.9599	2241.9801	26395.75	25507.85
953.0935	2243.4509	26330.5	25445.5
953.2271	2244.921	26215.15	25328.6
953.3606	2246.3904	26111.55	25221.55
953.4941	2247.8591	26054.85	25168.85
953.6276	2249.3271	25988.85	25102.1
953.7611	2250.7943	25864.95	24978.35
953.8945	2252.2608	25781.65	24895.15
954.0279	2253.7266	25705.35	24819.75
954.1612	2255.1917	25641.9	24754.3
954.2946	2256.656	25510.15	24622.65
954.4279	2258.1197	25415.2	24527.75
954.5612	2259.5826	25361.7	24471.85
954.6944	2261.0447	25312.05	24422.75
954.8276	2262.5062	25196.8	24306.3
954.9608	2263.9669	25126.35	24237.1
955.094	2265.4269	25154.3	24268
955.2271	2266.8862	25037.55	24150.7
955.3602	2268.3448	24998.1	24111.2
955.4933	2269.8026	24902.8	24013.55
955.6264	2271.2598	24839.9	23952.25
955.7594	2272.7162	24725.25	23837.55
955.8924	2274.1719	24696.95	23810.45
956.0253	2275.6268	24600.8	23713.25
956.1583	2277.0811	24536.8	23649.2
956.2912	2278.5346	24450.75	23562.7
956.4241	2279.9874	24397.7	23509.15
956.5569	2281.4395	24382.05	23494.25
956.6897	2282.8908	24269.95	23378.15
956.8225	2284.3414	24190.15	23301.05
956.9553	2285.7914	24097.7	23211.5
957.088	2287.2406	24015.25	23128.25
957.2207	2288.689	23958.1	23071.4
957.3534	2290.1368	23853	22964.15
957.486	2291.5838	23801.25	22911.8
957.6186	2293.0302	23733.05	22842.35
957.7512	2294.4758	23627	22740.85
957.8838	2295.9206	23504.85	22615.25
958.0163	2297.3648	23433.05	22546.25
958.1488	2298.8082	23409.85	22520.85
958.2813	2300.251	23341.15	22454
958.4137	2301.693	23286.55	22395.1
958.5461	2303.1343	23295.85	22407.35
958.6785	2304.5748	23196.2	22307.15
958.8108	2306.0147	23052.75	22165.95
958.9432	2307.4538	23004.45	22115.35
959.0754	2308.8922	22929.6	22043.45
959.2077	2310.3299	22848.9	21961.45
959.3399	2311.7669	22771.6	21885.9
959.4721	2313.2031	22716.95	21829
959.6043	2314.6387	22599	21710.65
959.7365	2316.0735	22518.1	21629.4
959.8686	2317.5076	22506.7	21618.6
960.0006	2318.941	22459	21570.95
960.1327	2320.3737	22362.35	21474
960.2647	2321.8056	22269.55	21378.75
960.3967	2323.2369	22217.2	21329.9
960.5287	2324.6674	22181.6	21294.4
960.6606	2326.0972	22064.6	21176.2
960.7925	2327.5263	22004.05	21117.8
960.9244	2328.9547	21910.4	21020.3
961.0562	2330.3823	21834.6	20946.6
961.1881	2331.8092	21835.75	20947.85
961.3198	2333.2355	21717.55	20829.4
961.4516	2334.661	21730.45	20842
961.5833	2336.0858	21686.6	20798.5
961.715	2337.5098	21578.95	20690.85
961.8467	2338.9332	21531.3	20643.9
961.9783	2340.3558	21441.9	20549.9
962.1099	2341.7778	21374.9	20488.9
962.2415	2343.199	21294.65	20404.75
962.373	2344.6195	21273.45	20386.65
962.5045	2346.0393	21192.15	20305.2
962.636	2347.4583	21138.9	20249.2
962.7675	2348.8767	21010.9	20122.95
962.8989	2350.2943	20961.65	20074.95
963.0303	2351.7113	20953.3	20063.1
963.1617	2353.1275	20895	20008.05
963.293	2354.543	20824.7	19930.1
963.4243	2355.9578	20727.3	19841.7
963.5556	2357.3718	20596.3	19708.7
963.6868	2358.7852	20570	19680.95
963.818	2360.1978	20474.4	19585.05
963.9492	2361.6098	20366	19479.25
964.0803	2363.021	20371.85	19479.9
964.2114	2364.4315	20331.3	19445.3
964.3425	2365.8413	20219.3	19330.75
964.4736	2367.2504	20160.65	19274.5
964.6046	2368.6587	20041.35	19153.7
964.7356	2370.0664	19990.25	19103.3
964.8666	2371.4733	19932.4	19044.5
964.9975	2372.8795	19874.35	18987.95
965.1284	2374.285	19775.45	18887.7
965.2593	2375.6899	19675.1	18788.25
965.3901	2377.0939	19572.55	18684
965.5209	2378.4973	19496.85	18608.95
965.6517	2379.9	19450.2	18564.45
965.7825	2381.3019	19361.15	18474.2
965.9132	2382.7032	19325.3	18437.9
966.0439	2384.1037	19299.35	18413.6
966.1745	2385.5035	19250.2	18361.8
966.3051	2386.9027	19144.15	18256.8
966.4357	2388.3011	19122.5	18230.2
966.5663	2389.6987	19048.85	18161.95
966.6968	2391.0957	18948.05	18062.95
966.8273	2392.492	18877.4	17990.1
966.9578	2393.8876	18781.95	17894.2
967.0882	2395.2824	18725.7	17838.35
967.2186	2396.6765	18642.4	17757.1
967.349	2398.07	18555.1	17669.35
967.4793	2399.4627	18537.2	17648.15
967.6097	2400.8547	18481.4	17595.8
967.7399	2402.246	18412.6	17518.75
967.8702	2403.6366	18280.2	17392.85
968.0004	2405.0265	18218.5	17331.9
968.1306	2406.4156	18150.85	17258.35
968.2607	2407.8041	18064	17172.45
968.3909	2409.1918	18006.55	17116.9
968.521	2410.5789	17919.15	17033.45
968.651	2411.9652	17861.65	16971.9
968.781	2413.3508	17823.25	16934.2
968.911	2414.7358	17732.05	16845.35
969.041	2416.12	17648.35	16761.55
969.1709	2417.5035	17615.8	16728.8
969.3008	2418.8863	17541.9	16652.95
969.4307	2420.2684	17510.1	16623.6
969.5606	2421.6497	17424.05	16536.9
969.6904	2423.0304	17317.95	16432
969.8201	2424.4104	17291.05	16403.15
969.9499	2425.7896	17217.15	16328.7
970.0796	2427.1682	17176	16289.4
970.2093	2428.546	17145.25	16256.05
970.3389	2429.9232	17077.75	16188.55
970.4685	2431.2996	17036.55	16148.8
970.5981	2432.6753	16984.9	16098.65
970.7277	2434.0503	16950.2	16064.85
970.8572	2435.4246	16859.7	15973.4
970.9867	2436.7982	16797.9	15907.95
971.1161	2438.1711	16764.3	15878.95
971.2456	2439.5433	16706.35	15817.15
971.375	2440.9148	16638.05	15745.5
971.5043	2442.2856	16554.05	15666.55
971.6336	2443.6557	16506.7	15617.75
971.7629	2445.025	16489.9	15603.35
971.8922	2446.3937	16443.2	15554.15
972.0214	2447.7617	16356.1	15468.8
972.1506	2449.1289	16330.9	15443.85
972.2798	2450.4955	16272.5	15381.5
972.4089	2451.8613	16210.4	15323.75
972.538	2453.2265	16196.55	15309
972.6671	2454.5909	16117	15230.6
972.7961	2455.9546	16082.1	15195.3
972.9251	2457.3177	15989.25	15103
973.0541	2458.68	15950.2	15062.7
973.1831	2460.0416	15935.45	15048.5
973.312	2461.4025	15896.5	15008.9
973.4408	2462.7627	15834.65	14935.9
973.5697	2464.1222	15771.8	14886.55
973.6985	2465.4811	15732.1	14843.9
973.8273	2466.8392	15695.15	14808.65
973.956	2468.1966	15626.75	14737.85
974.0847	2469.5533	15632.8	14744.95
974.2134	2470.9093	15586.45	14697.75
974.3421	2472.2645	15532.6	14643.05
974.4707	2473.6191	15449.45	14561.95
974.5993	2474.973	15392.65	14504.3
974.7278	2476.3262	15363.85	14474.45
974.8563	2477.6787	15280.35	14392.8
974.9848	2479.0305	15214.05	14327.8
975.1132	2480.3816	15168.75	14279.8
975.2417	2481.7319	15108.55	14221.15
975.37	2483.0816	15046.1	14157.7
975.4984	2484.4306	15008.6	14117.8
975.6267	2485.7789	14912.85	14027.85
975.755	2487.1264	14880.45	13992.85
975.8833	2488.4733	14792.1	13905.5
976.0115	2489.8195	14800.5	13905.15
976.1397	2491.165	14705.2	13813.6
976.2678	2492.5097	14659.7	13771
976.3959	2493.8538	14589.4	13701.5
976.524	2495.1972	14514.75	13628.05
976.6521	2496.5398	14449.4	13560.6
976.7801	2497.8818	14416.35	13528.1
976.9081	2499.2231	14365.55	13478.6
977.036	2500.5637	14330.4	13443.05
977.164	2501.9035	14260.95	13371.65
977.2918	2503.2427	14223.3	13331.7
977.4197	2504.5812	14193.4	13307.2
977.5475	2505.919	14131	13240.45
977.6753	2507.256	14136.75	13249.15
977.8031	2508.5924	14068.1	13182.65
977.9308	2509.9281	14010.35	13117.7
978.0585	2511.2631	13944.8	13055.75
978.1861	2512.5974	13902.7	13015.85
978.3137	2513.9309	13844.3	12956
978.4413	2515.2638	13828.2	12917.35
978.5689	2516.596	13778.35	12889.9
978.6964	2517.9275	13681	12792.9
978.8239	2519.2583	13623.45	12735.4
978.9513	2520.5884	13602.55	12713.55
979.0788	2521.9178	13541.35	12656.35
979.2062	2523.2465	13527.95	12642.85
979.3335	2524.5745	13466.7	12580.2
979.4608	2525.9018	13427.95	12541.55
979.5881	2527.2284	13375.7	12489.2
979.7154	2528.5543	13343.55	12457.1
979.8426	2529.8796	13289.3	12402.95
979.9698	2531.2041	13230.35	12343.5
980.0969	2532.5279	13267.45	12380.55
980.224	2533.851	13223.45	12336.3
980.3511	2535.1735	13179.8	12290.9
980.4781	2536.4952	13128.8	12243.05
980.6052	2537.8163	13079.65	12192.85
980.7321	2539.1366	13045.45	12159.25
980.8591	2540.4562	12986.05	12100.05
980.986	2541.7752	12998.95	12110.65
981.1129	2543.0935	12954.15	12065.95
981.2397	2544.411	12925.7	12038.5
981.3665	2545.7279	12904.55	12017.85
981.4933	2547.0441	12859.85	11973.45
981.62	2548.3596	12860.05	11969.85
981.7467	2549.6744	12809.15	11920.45
981.8734	2550.9885	12744.75	11849.55
982.0001	2552.3019	12714.8	11828.3
982.1267	2553.6146	12698.15	11810.2
982.2532	2554.9266	12634.85	11749.05
982.3798	2556.2379	12606.5	11719.4
982.5063	2557.5485	12589.15	11704.85
982.6327	2558.8585	12558.7	11663.45
982.7592	2560.1677	12506.65	11613.85
982.8856	2561.4762	12473.4	11584.05
983.0119	2562.7841	12473.65	11583.75
983.1383	2564.0913	12438.85	11553.7
983.2646	2565.3977	12409.95	11525.7
983.3908	2566.7035	12369.55	11482.35
983.517	2568.0086	12372.15	11485.1
983.6432	2569.313	12324.9	11437.65
983.7694	2570.6167	12302.35	11412.25
983.8955	2571.9197	12265.1	11378.7
984.0216	2573.222	12249.75	11358.35
984.1476	2574.5236	12194.2	11307.4
984.2737	2575.8246	12157.1	11267.9
984.3996	2577.1248	12121.45	11231.85
984.5256	2578.4244	12111.4	11225.3
984.6515	2579.7232	12079.45	11192.4
984.7774	2581.0214	12086.7	11177.4
984.9032	2582.3189	12017.8	11132.1
985.029	2583.6157	12007.25	11113.95
985.1548	2584.9118	11947.7	11060
985.2806	2586.2072	11933.9	11047.95
985.4063	2587.5019	11893.3	11008.4
985.5319	2588.7959	11882.55	10995.7
985.6576	2590.0893	11850.55	10961.85
985.7832	2591.3819	11825.75	10937.95
985.9087	2592.6739	11765.35	10879.65
986.0343	2593.9652	11718.8	10832.2
986.1597	2595.2557	11658.75	10772.3
986.2852	2596.5456	11659.6	10770.55
986.4106	2597.8348	11574.65	10688.15
986.536	2599.1234	11548.6	10663.7
986.6614	2600.4112	11520.45	10632.5
986.7867	2601.6983	11477.6	10586.7
986.912	2602.9848	11440.3	10551.35
987.0372	2604.2705	11391.55	10496.65
987.1624	2605.5556	11328.25	10441.7
987.2876	2606.84	11286.5	10401
987.4128	2608.1237	11242.05	10355.35
987.5379	2609.4067	11200.15	10313.15
987.6629	2610.689	11159.55	10263.8
987.788	2611.9707	11149.45	10258.05
987.913	2613.2516	11075.1	10183.9
988.0379	2614.5319	11028.1	10141.05
988.1629	2615.8115	10981.5	10094.05
988.2878	2617.0903	10959.45	10072.15
988.4126	2618.3685	10922.05	10033.55
988.5375	2619.6461	10873.4	9985.65
988.6622	2620.9229	10840.1	9953.75
988.787	2622.199	10816.5	9928.55
988.9117	2623.4745	10777.05	9889.95
989.0364	2624.7493	10742.8	9855.75
989.161	2626.0234	10715.7	9830.45
989.2857	2627.2968	10640.3	9754.7
989.4102	2628.5695	10606.15	9719.45
989.5348	2629.8415	10558.95	9671.3
989.6593	2631.1128	10529.25	9640.95
989.7837	2632.3835	10477.3	9588.6
989.9082	2633.6535	10445.1	9557.5
990.0326	2634.9228	10408.3	9523.65
990.1569	2636.1914	10386.2	9500.4
990.2812	2637.4593	10356.05	9461.7
990.4055	2638.7265	10316.75	9429.55
990.5298	2639.9931	10283.2	9395.85
990.654	2641.259	10243.6	9355.85
990.7782	2642.5242	10219.35	9332.25
990.9023	2643.7887	10182.9	9294.85
991.0264	2645.0525	10150.6	9262.35
991.1505	2646.3156	10100.45	9212.45
991.2745	2647.5781	10055.85	9167.5
991.3985	2648.8398	10023.25	9135.85
991.5225	2650.1009	10008.05	9084.05
991.6464	2651.3613	9965.65	9078.85
991.7703	2652.6211	9960.55	9075.3
991.8942	2653.8801	9929.85	9044.8
992.018	2655.1385	9907.4	9016.4
992.1418	2656.3961	9848.75	8962.4
992.2655	2657.6531	9836.15	8949.15
992.3892	2658.9094	9831.6	8944.45
992.5129	2660.1651	9807.9	8919.7
992.6366	2661.42	9753.2	8866.65
992.7602	2662.6743	9714.3	8825.45
992.8837	2663.9279	9687.35	8800.9
993.0073	2665.1808	9678.95	8791.25
993.1307	2666.433	9650.85	8762.6
993.2542	2667.6846	9612.15	8725.2
993.3776	2668.9354	9605.45	8715.05
993.501	2670.1856	9573.2	8683.5
993.6244	2671.4351	9529.85	8643.55
993.7477	2672.6839	9497.65	8610.2
993.8709	2673.9321	9472.6	8585.35
993.9942	2675.1795	9466.8	8579.35
994.1174	2676.4263	9428	8542
994.2405	2677.6724	9392.95	8506.2
994.3637	2678.9179	9367	8480.45
994.4868	2680.1626	9352.15	8465.6
994.6098	2681.4067	9300.45	8412.5
994.7328	2682.6501	9270.65	8381.8
994.8558	2683.8928	9246.4	8359.7
994.9788	2685.1348	9229	8343.65
995.1017	2686.3761	9164.65	8277.55
995.2245	2687.6168	9142.65	8257.7
995.3474	2688.8568	9100	8215
995.4702	2690.0961	9081.25	8195.3
995.5929	2691.3348	9047.45	8160.2
995.7156	2692.5727	9020.85	8135.15
995.8383	2693.81	8984.8	8097.7
995.961	2695.0466	8967.05	8080.45
996.0836	2696.2826	8931.55	8043.85
996.2062	2697.5178	8925.05	8036.3
996.3287	2698.7524	8895.25	8008.15
996.4512	2699.9863	8877.5	7987.75
996.5737	2701.2195	8834.05	7947.9
996.6961	2702.452	8818.25	7929.85
996.8185	2703.6839	8776.25	7888.35
996.9408	2704.9151	8766.2	7880.2
997.0631	2706.1456	8712.45	7825.2
997.1854	2707.3755	8700.3	7814.3
997.3077	2708.6046	8700.2	7811.4
997.4299	2709.8331	8652.9	7765.5
997.552	2711.0609	8620.35	7733.45
997.6742	2712.2881	8580.1	7692.65
997.7963	2713.5145	8556.05	7666.1
997.9183	2714.7403	8544.65	7659.05
998.0403	2715.9654	8510.25	7622.45
998.1623	2717.1899	8501.3	7612.65
998.2842	2718.4136	8478.2	7591
998.4062	2719.6367	8469.6	7583.7
998.528	2720.8591	8436.65	7545.1
998.6498	2722.0809	8406.65	7519.5
998.7716	2723.3019	8367.25	7476.9
998.8934	2724.5223	8352.35	7463.6
999.0151	2725.7421	8320.6	7432.3
999.1368	2726.9611	8309.65	7420.9
999.2584	2728.1795	8270.35	7377.65
999.38	2729.3972	8230.5	7344.45
999.5016	2730.6142	8204.8	7310.2
999.6231	2731.8306	8156.9	7269.25
999.7446	2733.0462	8111.25	7223.2
999.8661	2734.2612	8097.5	7205.7
999.9875	2735.4756	8035.7	7148.6
1000.1089	2736.6892	7983.4	7095.95
1000.2302	2737.9022	7937.95	7052.7
1000.3515	2739.1145	7899.45	7012.2
1000.4728	2740.3262	7866.65	6972.6
1000.594	2741.5372	7833.8	6946.3
1000.7152	2742.7475	7818.35	6929.85
1000.8363	2743.9571	7786.1	6894.75
1000.9575	2745.1661	7763.8	6871.9
1001.0785	2746.3744	7730.15	6842
1001.1996	2747.582	7700	6811.55
1001.3206	2748.7889	7653.5	6765.6
1001.4415	2749.9952	7608.95	6722.35
1001.5625	2751.2008	7600.35	6713.05
1001.6833	2752.4057	7592.8	6703.75
1001.8042	2753.61	7531.55	6643.9
1001.925	2754.8136	7513.95	6625.1
1002.0458	2756.0165	7496.4	6610.05
1002.1665	2757.2188	7446.45	6559.3
1002.2872	2758.4204	7447.6	6561.7
1002.4078	2759.6213	7408.15	6518.6
1002.5285	2760.8215	7398.95	6508.4
1002.649	2762.0211	7373.05	6483.95
1002.7696	2763.22	7314.3	6424.35
1002.8901	2764.4182	7300.9	6411.75
1003.0106	2765.6158	7287.15	6399.6
1003.131	2766.8127	7256.75	6368.35
1003.2514	2768.009	7241.6	6355.85
1003.3717	2769.2045	7235.3	6346.65
1003.492	2770.3994	7217.35	6329.05
1003.6123	2771.5936	7175	6287.95
1003.7325	2772.7872	7127.55	6241.2
1003.8527	2773.9801	7101.4	6212.2
1003.9729	2775.1723	7100.2	6196.05
1004.093	2776.3639	7072.35	6187.35
1004.2131	2777.5548	7024.05	6134
1004.3331	2778.745	7011.45	6123.6
1004.4531	2779.9346	6993.3	6107.15
1004.5731	2781.1235	6965.9	6076.8
1004.693	2782.3117	6957.35	6071.35
1004.8129	2783.4992	6932.45	6046.2
1004.9328	2784.6861	6928.3	6041.05
1005.0526	2785.8723	6900.9	6012.1
1005.1723	2787.0579	6877.55	5988.35
1005.2921	2788.2428	6851.55	5963.7
1005.4118	2789.427	6835.45	5950.4
1005.5314	2790.6106	6816.65	5929.4
1005.651	2791.7935	6778.6	5889.65
1005.7706	2792.9757	6756.45	5872
1005.8902	2794.1573	6743.45	5855
1006.0097	2795.3382	6728.2	5840.65
1006.1291	2796.5184	6727.05	5840.55
1006.2485	2797.698	6703.3	5814.5
1006.3679	2798.8769	6703.25	5816.7
1006.4873	2800.0551	6674.55	5789.3
1006.6066	2801.2327	6644.7	5755.05
1006.7258	2802.4096	6622.5	5736.95
1006.8451	2803.5859	6635.4	5747.45
1006.9642	2804.7615	6644.9	5757.15
1007.0834	2805.9364	6612.45	5727.05
1007.2025	2807.1106	6611.7	5725
1007.3216	2808.2842	6623.05	5735.9
1007.4406	2809.4572	6625.05	5736.65
1007.5596	2810.6294	6633.6	5744.5
1007.6785	2811.801	6657.6	5773.3
1007.7975	2812.972	6658.65	5773.85
1007.9163	2814.1423	6665.2	5779.65
1008.0352	2815.3119	6689.05	5801.85
1008.154	2816.4808	6711.6	5824.25
1008.2727	2817.6491	6750.05	5861.7
1008.3914	2818.8167	6757.3	5870.75
1008.5101	2819.9837	6780.15	5889.05
1008.6288	2821.15	6803.4	5919.35
1008.7474	2822.3157	6830.7	5943.2
1008.8659	2823.4807	6867.8	5980.75
1008.9844	2824.645	6902.8	6013.55
1009.1029	2825.8086	6912.15	6027.5
1009.2214	2826.9716	6940.05	6053.7
1009.3398	2828.134	6947.55	6061
1009.4581	2829.2957	7010.85	6121.9
1009.5764	2830.4567	7004.85	6119.35
1009.6947	2831.617	7006.75	6118.05
1009.813	2832.7767	7013.1	6125.8
1009.9312	2833.9358	7000.95	6116.75
1010.0493	2835.0941	6977.7	6088.7
1010.1675	2836.2519	6936.75	6051.45
1010.2855	2837.4089	6912.05	6024.3
1010.4036	2838.5653	6893.25	6007.95
1010.5216	2839.7211	6875.65	5990.1
1010.6396	2840.8761	6866.9	5976.95
1010.7575	2842.0306	6877.5	5991
1010.8754	2843.1843	6874.9	5988.4
1010.9932	2844.3374	6910.95	6024.8
1011.111	2845.4899	6926.25	6039.65
1011.2288	2846.6417	6935.85	6049.7
1011.3465	2847.7928	6975.05	6090.25
1011.4642	2848.9433	7027.55	6141.55
1011.5818	2850.0931	7067.65	6181.15
1011.6995	2851.2422	7105.4	6216.45
1011.817	2852.3907	7142.4	6254.95
1011.9345	2853.5385	7185.4	6295.85
1012.052	2854.6857	7220.65	6323.6
1012.1695	2855.8323	7241.2	6356.1
1012.2869	2856.9781	7252.45	6366.2
1012.4042	2858.1233	7273.25	6387.3
1012.5216	2859.2679	7296.3	6409.4
1012.6389	2860.4118	7321.05	6435.05
1012.7561	2861.555	7342.25	6451.15
1012.8733	2862.6976	7371.85	6482
1012.9905	2863.8395	7380.15	6492.25
1013.1076	2864.9808	7383	6497.35
1013.2247	2866.1214	7365.2	6481.45
1013.3417	2867.2614	7356.6	6470.9
1013.4587	2868.4007	7361.1	6474
1013.5757	2869.5393	7347.85	6460.4
1013.6926	2870.6773	7363.8	6474.6
1013.8095	2871.8146	7323.05	6435.05
1013.9263	2872.9513	7330.5	6441.1
1014.0431	2874.0874	7289.85	6401.85
1014.1599	2875.2227	7264	6376.1
1014.2766	2876.3574	7227.6	6340.1
1014.3933	2877.4915	7182.25	6296.6
1014.51	2878.6249	7143.85	6256.1
1014.6266	2879.7577	7098.1	6209.25
1014.7431	2880.8898	7074.55	6177.2
1014.8596	2882.0212	7054	6169.45
1014.9761	2883.152	7014.9	6128.05
1015.0925	2884.2821	6972.95	6087.5
1015.2089	2885.4116	6947.6	6061.75
1015.3253	2886.5405	6946.7	6060.1
1015.4416	2887.6686	6950.3	6059.2
1015.5579	2888.7962	6912.25	6026.15
1015.6741	2889.923	6899.45	6013.3
1015.7903	2891.0493	6894	6009.8
1015.9065	2892.1748	6883.4	5998.2
1016.0226	2893.2997	6841.1	5954
1016.1387	2894.424	6853.1	5967.9
1016.2547	2895.5476	6842.75	5954.25
1016.3707	2896.6706	6850.5	5965.3
1016.4866	2897.7929	6851.8	5961.6
1016.6025	2898.9145	6852.85	5967.1
1016.7184	2900.0355	6875.5	5988.3
1016.8342	2901.1559	6864.4	5974.05
1016.95	2902.2756	6883.4	5997.7
1017.0658	2903.3946	6895.25	6010.3
1017.1815	2904.513	6873.35	5984.6
1017.2971	2905.6308	6890.85	6003.5
1017.4127	2906.7479	6884.4	5995.35
1017.5283	2907.8643	6898.95	6011
1017.6439	2908.9801	6914.45	6028.5
1017.7594	2910.0953	6881.55	5996.15
1017.8748	2911.2098	6866.35	5975.55
1017.9902	2912.3236	6843.2	5949.55
1018.1056	2913.4368	6835.85	5945
1018.2209	2914.5494	6787.4	5899.55
1018.3362	2915.6613	6754	5862.4
1018.4515	2916.7725	6734.8	5847.7
1018.5667	2917.8831	6671.45	5784.35
1018.6819	2918.9931	6642	5752.4
1018.797	2920.1024	6605.85	5717.3
1018.9121	2921.211	6556.95	5669.3
1019.0271	2922.319	6556.3	5668.75
1019.1421	2923.4264	6518.35	5632.35
1019.2571	2924.5331	6497.05	5608.85
1019.372	2925.6391	6478.4	5592.45
1019.4869	2926.7445	6458	5571.6
1019.6017	2927.8493	6424.75	5537.85
1019.7165	2928.9534	6407.05	5519.1
1019.8313	2930.0569	6413.15	5520.9
1019.946	2931.1597	6391.95	5502.3
1020.0606	2932.2619	6380	5493.9
1020.1753	2933.3634	6369.05	5484.5
1020.2899	2934.4643	6374.8	5481.45
1020.4044	2935.5645	6333.45	5441.15
1020.5189	2936.6641	6292.75	5401.65
1020.6334	2937.763	6260.95	5374.6
1020.7478	2938.8613	6207.35	5321.5
1020.8622	2939.959	6148.7	5256.25
1020.9765	2941.056	6068.65	5184.85
1021.0908	2942.1523	5989.3	5102.45
1021.2051	2943.248	5923.1	5034.45
1021.3193	2944.3431	5828.05	4941.3
1021.4334	2945.4375	5722.7	4836.25
1021.5476	2946.5313	5633.45	4747.8
1021.6617	2947.6244	5521.95	4632.8
1021.7757	2948.7169	5423.55	4535.55
1021.8897	2949.8087	5337.65	4450.3
1022.0037	2950.8999	5246.95	4358.6
1022.1176	2951.9904	5156.3	4269.75
1022.2315	2953.0803	5091.6	4203.4
1022.3453	2954.1696	5030.8	4144.2
1022.4591	2955.2582	4967.8	4082.65
1022.5728	2956.3462	4917.25	4030.95
1022.6865	2957.4335	4871.25	3985.1
1022.8002	2958.5202	4823	3931.1
1022.9138	2959.6062	4781.55	3893.95
1023.0274	2960.6916	4744.2	3858.05
1023.141	2961.7764	4706.45	3818.3
1023.2545	2962.8605	4709.05	3822.25
1023.3679	2963.9439	4691.25	3805.4
1023.4813	2965.0267	4663.45	3776
1023.5947	2966.1089	4635.8	3726.35
1023.708	2967.1905	4599.85	3712.6
1023.8213	2968.2714	4577.1	3691
1023.9346	2969.3516	4581.95	3695.65
1024.0478	2970.4312	4575.65	3682.45
1024.1609	2971.5102	4540.2	3652.95
1024.274	2972.5885	4537.65	3653.05
1024.3871	2973.6662	4527.7	3636.25
1024.5002	2974.7432	4503.1	3618.7
1024.6132	2975.8196	4499.15	3612.35
1024.7261	2976.8954	4470.8	3586.35
1024.839	2977.9705	4466.5	3579.8
1024.9519	2979.045	4435.95	3549.6
1025.0647	2980.1188	4410.85	3525.5
1025.1775	2981.192	4389.65	3504.1
1025.2902	2982.2645	4358.35	3472.45
1025.4029	2983.3364	4343.9	3456.9
1025.5156	2984.4077	4291.2	3405.1
1025.6282	2985.4783	4251.4	3359.4
1025.7407	2986.5483	4213.45	3328.1
1025.8532	2987.6177	4177.25	3292.05
1025.9657	2988.6864	4131.1	3244.15
1026.0782	2989.7545	4103.3	3213.6
1026.1906	2990.8219	4079.35	3194.1
1026.3029	2991.8887	4036.65	3146.9
1026.4152	2992.9548	4001.2	3114.95
1026.5275	2994.0204	3958.55	3073.65
1026.6397	2995.0852	3931.3	3046.45
1026.7519	2996.1495	3911.6	3024.9
1026.864	2997.2131	3857.2	2970.85
1026.9761	2998.276	3818.75	2933.45
1027.0882	2999.3383	3815.1	2927.4
1027.2002	3000.4	3791.65	2903.45
1027.3122	3001.4611	3771.35	2885.75
1027.4241	3002.5215	3730.25	2844.05
1027.536	3003.5812	3701.2	2814.7
1027.6478	3004.6404	3672.9	2787.05
1027.7596	3005.6989	3666.5	2778.7
1027.8714	3006.7567	3649.05	2761.4
1027.9831	3007.8139	3657.85	2747.35
1028.0947	3008.8705	3626.95	2741.7
1028.2064	3009.9264	3611.25	2722.1
1028.3179	3010.9818	3575.8	2689.05
1028.4295	3012.0364	3574.8	2688.45
1028.541	3013.0905	3552.85	2667.55
1028.6524	3014.1439	3547.35	2660.05
1028.7638	3015.1966	3529.45	2644.65
1028.8752	3016.2487	3523.2	2636.3
1028.9865	3017.3002	3514.15	2624.5
1029.0978	3018.3511	3495.35	2609.5
1029.209	3019.4013	3486	2600.1
1029.3202	3020.4509	3471.85	2586.15
1029.4314	3021.4998	3475.05	2588.75
1029.5425	3022.5481	3466.65	2579.2
1029.6535	3023.5958	3441.3	2556
1029.7645	3024.6428	3443.85	2556.3
1029.8755	3025.6892	3425.55	2540.8
1029.9864	3026.735	3418.9	2531.75
1030.0973	3027.7802	3405.15	2519.8
1030.2082	3028.8247	3400.2	2513.7
1030.319	3029.8685	3374	2487.2
1030.4297	3030.9118	3374.55	2488.2
1030.5404	3031.9544	3360.8	2475.5
1030.6511	3032.9963	3361.6	2475.45
1030.7617	3034.0376	3351.65	2465.05
1030.8723	3035.0783	3346.1	2457.55
1030.9829	3036.1184	3357.7	2470.7
1031.0934	3037.1578	3346.55	2460.6
1031.2038	3038.1966	3325.2	2438.55
1031.3142	3039.2348	3306.3	2421.05
1031.4246	3040.2723	3300.4	2404.9
1031.5349	3041.3092	3298.45	2412.95
1031.6452	3042.3455	3278.55	2392.2
1031.7554	3043.3811	3267.5	2380.3
1031.8656	3044.4161	3257.4	2371.25
1031.9758	3045.4505	3264	2379.15
1032.0859	3046.4842	3256.3	2369.1
1032.1959	3047.5173	3231	2346.75
1032.3059	3048.5498	3217.2	2330.6
1032.4159	3049.5816	3203.8	2315.75
1032.5258	3050.6128	3193.7	2304.4
1032.6357	3051.6434	3181.65	2296.65
1032.7455	3052.6734	3182.8	2294.6
1032.8553	3053.7027	3181.1	2294.9
1032.9651	3054.7314	3149.85	2265.2
1033.0748	3055.7594	3138.3	2253
1033.1845	3056.7868	3127.2	2239.95
1033.2941	3057.8136	3116.1	2231.3
1033.4037	3058.8398	3115.45	2229.1
1033.5132	3059.8653	3105.85	2220.4
1033.6227	3060.8902	3077.9	2192.3
1033.7321	3061.9145	3062.75	2177.1
1033.8415	3062.9381	3052.3	2165.3
1033.9509	3063.9612	3071.45	2169
1034.0602	3064.9835	3035.1	2148.05
1034.1694	3066.0053	3029.7	2141.8
1034.2787	3067.0264	3006.8	2121.1
1034.3878	3068.0469	3011.2	2123.6
1034.497	3069.0668	2993.7	2106.1
1034.6061	3070.086	2977.45	2092.1
1034.7151	3071.1046	2953.85	2068.6
1034.8241	3072.1226	2948.35	2059.85
1034.9331	3073.1399	2952.85	2067.45
1035.042	3074.1567	2915.9	2027.85
1035.1508	3075.1727	2909.05	2020.25
1035.2597	3076.1882	2911.7	2025.55
1035.3684	3077.203	2883.4	1998.6
1035.4772	3078.2173	2867.05	1980.1
1035.5859	3079.2308	2874.6	1986.1
1035.6945	3080.2438	2850.85	1962.95
1035.8031	3081.2561	2830.6	1946.9
1035.9117	3082.2678	2820.25	1934.2
1036.0202	3083.2789	2813.15	1926.5
1036.1286	3084.2893	2802.4	1916.95
1036.2371	3085.2991	2788.55	1903.9
1036.3454	3086.3083	2766.2	1873.2
1036.4538	3087.3169	2768.1	1880.55
1036.562	3088.3248	2743.6	1857.15
1036.6703	3089.3321	2741.95	1852.9
1036.7785	3090.3388	2723	1837.4
1036.8866	3091.3449	2721.3	1836.5
1036.9948	3092.3503	2710.05	1821.55
1037.1028	3093.3551	2692	1807.15
1037.2108	3094.3593	2680.65	1797.3
1037.3188	3095.3629	2678.25	1793.3
1037.4267	3096.3658	2661.95	1773.3
1037.5346	3097.3681	2656.6	1771.55
1037.6425	3098.3698	2657.15	1768.3
1037.7503	3099.3708	2649.2	1754.55
1037.858	3100.3713	2636.25	1748.45
1037.9657	3101.3711	2614.2	1727.5
1038.0734	3102.3702	2734.35	1711
1038.181	3103.3688	2610.55	1721.65
1038.2886	3104.3667	2596.65	1711.15
1038.3961	3105.364	2578.8	1691.3
1038.5036	3106.3607	2555.55	1667.7
1038.611	3107.3568	2567.7	1680.75
1038.7184	3108.3522	2539.9	1655.55
1038.8257	3109.347	2529.2	1642
1038.933	3110.3412	2534.35	1645.15
1039.0403	3111.3348	2516.25	1630.9
1039.1475	3112.3277	2509.75	1622.65
1039.2547	3113.32	2492.35	1606.95
1039.3618	3114.3117	2483.65	1596.35
1039.4689	3115.3028	2475.2	1588.75
1039.5759	3116.2932	2466.1	1576.85
1039.6829	3117.2831	2462.95	1572.35
1039.7898	3118.2723	2450.3	1562.7
1039.8967	3119.2608	2439.95	1553.65
1040.0035	3120.2488	2434.85	1548
1040.1103	3121.2361	2432.3	1546.95
1040.2171	3122.2229	2406.8	1520.9
1040.3238	3123.209	2413.15	1525.05
1040.4305	3124.1944	2394.9	1507.9
1040.5371	3125.1793	2379.5	1489.6
1040.6437	3126.1635	2378.85	1492.7
1040.7502	3127.1471	2372.6	1489.2
1040.8567	3128.1301	2370.8	1484.85
1040.9631	3129.1125	2350.7	1467
1041.0695	3130.0942	2352.45	1466.2
1041.1759	3131.0753	2358.7	1463.75
1041.2822	3132.0558	2349.85	1463.05
1041.3884	3133.0357	2321.1	1434.9
1041.4946	3134.015	2317.8	1430.15
1041.6008	3134.9936	2319.7	1434.6
1041.7069	3135.9716	2319.95	1412.45
1041.813	3136.949	2312.8	1426
1041.919	3137.9258	2307	1417.5
1042.025	3138.902	2298.4	1404.8
1042.1309	3139.8775	2287.3	1400.65
1042.2368	3140.8524	2273.1	1384.85
1042.3427	3141.8267	2280.8	1391.35
1042.4485	3142.8004	2278.3	1390.75
1042.5542	3143.7735	2267.05	1373.95
1042.6599	3144.7459	2260.95	1373.9
1042.7656	3145.7178	2257.8	1372
1042.8712	3146.689	2251.25	1364.95
1042.9768	3147.6596	2238.6	1352.45
1043.0823	3148.6295	2228.9	1343.95
1043.1878	3149.5989	2233.55	1347.45
1043.2932	3150.5676	2217.8	1332.6
1043.3986	3151.5357	2199	1314.3
1043.5039	3152.5032	2200.2	1314
1043.6092	3153.4701	2200.15	1315.55
1043.7145	3154.4364	2185.35	1297.65
1043.8197	3155.402	2171.85	1286.25
1043.9248	3156.367	2170.4	1284.85
1044.03	3157.3315	2207.6	1278.6
1044.135	3158.2952	2160.95	1276
1044.24	3159.2584	2150.25	1266.2
1044.345	3160.221	2138.3	1251.75
1044.4499	3161.1829	2134.5	1246.05
1044.5548	3162.1442	2130.15	1242.75
1044.6596	3163.105	2117.25	1229.45
1044.7644	3164.065	2116.3	1229.8
1044.8692	3165.0245	2112.05	1223.65
1044.9739	3165.9834	2094.65	1210.5
1045.0785	3166.9416	2100.6	1213.8
1045.1831	3167.8993	2085.35	1199.95
1045.2877	3168.8563	2089.05	1201.35
1045.3922	3169.8127	2076.6	1190.75
1045.4966	3170.7684	2069.25	1184
1045.6011	3171.7236	2057.55	1170.7
1045.7054	3172.6782	2057.6	1171.15
1045.8098	3173.6321	2049.1	1163.15
1045.914	3174.5854	2040.1	1149.75
1046.0183	3175.5381	2038.1	1149.75
1046.1224	3176.4902	2021.7	1137
1046.2266	3177.4417	2014.55	1130.75
1046.3307	3178.3926	2024	1138.9
1046.4347	3179.3428	2016.65	1130.25
1046.5387	3180.2924	2001.75	1114.95
1046.6427	3181.2415	2001.75	1114.05
1046.7466	3182.1899	1985.65	1097.55
1046.8504	3183.1377	1982.5	1096.25
1046.9542	3184.0848	1991.05	1100.05
1047.058	3185.0314	1975.15	1088.55
1047.1617	3185.9773	1973.3	1086.5
1047.2654	3186.9227	1967.7	1080.2
1047.369	3187.8674	1960.05	1073.3
1047.4726	3188.8115	1970.05	1080.45
1047.5761	3189.755	1948.25	1062.55
1047.6796	3190.6979	1946.05	1060.6
1047.783	3191.6402	1932.8	1046.5
1047.8864	3192.5818	1937.85	1054.5
1047.9898	3193.5229	1952.75	1041.65
1048.0931	3194.4633	1931	1042.95
1048.1963	3195.4031	1916.6	1029.6
1048.2995	3196.3423	1912.25	1027
1048.4027	3197.2809	1908.8	1022.2
1048.5058	3198.2189	1900.4	1016
1048.6089	3199.1563	1891.8	998.65
1048.7119	3200.0931	1887.85	1004.45
1048.8148	3201.0292	1882.8	996.65
1048.9178	3201.9648	1867.9	982.35
1049.0206	3202.8997	1868.55	979.95
1049.1235	3203.834	1858.75	972.1
1049.2262	3204.7677	1859.75	971.85
1049.329	3205.7008	1862.15	973.65
1049.4317	3206.6333	1855.2	969.6
1049.5343	3207.5652	1853.6	964.8
1049.6369	3208.4964	1844.05	955.95
1049.7394	3209.4271	1836.3	951.05
1049.8419	3210.3571	1838.4	955.05
1049.9444	3211.2865	1832.6	945.55
1050.0468	3212.2154	1834.2	947.3
1050.1491	3213.1436	1827.5	937.25
1050.2514	3214.0712	1825.1	931.85
1050.3537	3214.9982	1811.45	924.8
1050.4559	3215.9246	1805.5	919.55
1050.5581	3216.8503	1802.35	916.5
1050.6602	3217.7755	1798.85	914.2
1050.7623	3218.7001	1800.65	914.1
1050.8643	3219.624	1793.6	906.7
1050.9663	3220.5473	1787.95	900.5
1051.0682	3221.4701	1783.75	897
1051.1701	3222.3922	1780	892.35
1051.2719	3223.3137	1770.05	882.6
1051.3737	3224.2346	1770.85	884.3
1051.4754	3225.1549	1763.5	878.15
1051.5771	3226.0746	1766.35	882.8
1051.6788	3226.9937	1759.95	872.6
1051.7804	3227.9121	1747.95	863.1
1051.8819	3228.83	1754.5	868.8
1051.9834	3229.7473	1748.95	864.15
1052.0849	3230.6639	1736.15	849.05
1052.1863	3231.5799	1729.05	843
1052.2876	3232.4954	1725.95	838.95
1052.3889	3233.4102	1715.5	830.3
1052.4902	3234.3244	1717.75	831.75
1052.5914	3235.238	1711.75	824.1
1052.6926	3236.151	1727	815.5
1052.7937	3237.0634	1716	829.1
1052.8948	3237.9752	1693.3	806.65
1052.9958	3238.8864	1695.95	810.75
1053.0968	3239.797	1691.3	807.7
1053.1977	3240.7069	1682.7	797.3
1053.2986	3241.6163	1677.1	790.65
1053.3994	3242.5251	1674.2	789.5
1053.5002	3243.4332	1656.6	770.25
1053.6009	3244.3408	1667.75	781.2
1053.7016	3245.2477	1668.5	783.95
1053.8022	3246.154	1651.8	762.5
1053.9028	3247.0598	1646.6	760.65
1054.0034	3247.9649	1640.3	754.2
1054.1039	3248.8694	1642	757.35
1054.2043	3249.7733	1638.15	753
1054.3047	3250.6766	1630.3	743.65
1054.4051	3251.5793	1620.3	733.4
1054.5054	3252.4814	1626.95	741.2
1054.6056	3253.3829	1619.75	734.15
1054.7058	3254.2838	1613.3	727.25
1054.806	3255.1841	1610.5	726.1
1054.9061	3256.0838	1605.15	718
1055.0061	3256.9829	1599.95	716.2
1055.1062	3257.8814	1600.4	713.5
1055.2061	3258.7792	1595.85	709.6
1055.306	3259.6765	1581.8	693.7
1055.4059	3260.5731	1566.25	680.2
1055.5057	3261.4692	1563.45	677.4
1055.6055	3262.3647	1555.55	668.1
1055.7052	3263.2595	1548.45	660.6
1055.8049	3264.1538	1543.05	658
1055.9045	3265.0474	1532	644.3
1056.0041	3265.9404	1516.25	632
1056.1036	3266.8329	1508.65	623.05
1056.2031	3267.7247	1507.45	611.05
1056.3025	3268.616	1480.5	596.05
1056.4019	3269.5066	1466.85	580.85
1056.5013	3270.3966	1459.1	571.45
1056.6005	3271.286	1433.9	549.5
