Software Version:	3.9.2.0
Unit SN:	10000200
Spectrometer SN:	6960
Date:	3/6/2024 10:18:05 AM
Data Line Index:	25
Spectral Points:	2048
Integration time (ms):	125
Averages:	20
Delay (ms):	30
Sequence Number:	1
Processing:	dark subtract
Laser Power (mW):	300
Laser Current (mA):	824
Laser Diode Temp (C):	25.1
Laser Case Temp (C):	25.2
System Temp (C):	25
Spectrometer Temp (C):	22.5
CCD Temp (C):	-0.002
Secondary Temp (C):	20.036
Heatsink Temp (C):	20.262
CCDPCB Temp (C):	32.672
SecondaryPCB Temp (C):	25.991

Wavelength	RamanShift	Raw Counts	Dark Subtracted
787.061	30.1047	1095.25	686.2
787.2016	32.3739	1125.75	719
787.3422	34.6426	1168.05	759.1
787.4828	36.9109	1206.1	795.25
787.6235	39.1787	1262.3	846.95
787.7642	41.4461	1316.8	896.6
787.9049	43.7131	1373.95	952
788.0456	45.9796	1435.05	1009.45
788.1863	48.2456	1495.65	1067.55
788.3271	50.5112	1573.85	1141.6
788.4679	52.7764	1640.5	1207.55
788.6087	55.0411	1703.6	1266.4
788.7496	57.3054	1783.2	1336.7
788.8904	59.5692	1855.3	1407.2
789.0313	61.8326	1967.35	1515.6
789.1722	64.0955	2058.7	1605.15
789.3132	66.3579	2174.3	1717.55
789.4541	68.6199	2320.7	1859.5
789.5951	70.8815	2577	2109.95
789.7361	73.1426	3115.65	2644.4
789.8771	75.4032	4484.4	4008.4
790.0181	77.6634	7985.6	7505.75
790.1592	79.9231	17433.35	16949.3
790.3003	82.1824	55046.85	54548.8
790.4414	84.4412	65535	65017.8
790.5825	86.6995	65535	64989.1
790.7237	88.9574	65535	64966.1
790.8648	91.2148	65535	64948.4
791.006	93.4717	65535	64940.9
791.1472	95.7282	65535	64937.75
791.2885	97.9842	65535	64933.1
791.4297	100.2398	65535	64930.45
791.571	102.4949	65535	64927.2
791.7123	104.7495	65535	64917.1
791.8536	107.0036	65535	64920.05
791.9949	109.2573	65535	64922.15
792.1363	111.5105	65535	64923.35
792.2777	113.7632	65535	64917.95
792.4191	116.0154	65535	64909.1
792.5605	118.2672	65535	64916.75
792.7019	120.5185	65535	64909.5
792.8434	122.7693	65535	64909.55
792.9849	125.0197	65535	64904.3
793.1264	127.2696	65535	64898.9
793.2679	129.519	65535	64897.05
793.4094	131.7679	65535	64896.1
793.551	134.0163	65535	64894.15
793.6926	136.2642	65535	64890.6
793.8342	138.5117	65535	64882.3
793.9758	140.7587	65535	64886.15
794.1175	143.0052	65535	64886.15
794.2591	145.2512	65535	64883.85
794.4008	147.4967	65535	64882.05
794.5425	149.7417	65535	64877.2
794.6842	151.9863	65535	64871.3
794.826	154.2304	65535	64873.05
794.9677	156.4739	65535	64865.35
795.1095	158.717	65535	64868.7
795.2513	160.9596	65535	64863.75
795.3931	163.2017	65535	64859.7
795.535	165.4433	65535	64858.7
795.6768	167.6844	65535	64858.35
795.8187	169.925	65535	64849.55
795.9606	172.1651	65535	64849.8
796.1025	174.4047	65535	64848.15
796.2445	176.6439	65535	64841.85
796.3864	178.8825	65535	64844
796.5284	181.1206	65535	64836.7
796.6704	183.3582	65535	64832.65
796.8124	185.5954	65535	64829.1
796.9544	187.832	65535	64832.55
797.0965	190.0681	65535	64823.45
797.2386	192.3037	65535	64817.9
797.3806	194.5388	65535	64820.8
797.5228	196.7734	65535	64817.7
797.6649	199.0075	65535	64815.8
797.807	201.2411	65535	64809.85
797.9492	203.4742	65535	64816.4
798.0914	205.7068	65535	64811.6
798.2336	207.9389	65535	64811.2
798.3758	210.1704	65535	64810.75
798.518	212.4015	65535	64820.15
798.6603	214.632	65535	64830.5
798.8025	216.862	65535	64832.8
798.9448	219.0915	65535	64832.7
799.0871	221.3205	65535	64830.6
799.2294	223.549	65535	64831.75
799.3718	225.777	65535	64835.95
799.5141	228.0044	65535	64825.35
799.6565	230.2314	65535	64823.75
799.7989	232.4578	65535	64823
799.9413	234.6837	65535	64809.9
800.0837	236.909	65535	64810.55
800.2262	239.1339	65535	64783.9
800.3687	241.3582	65535	64797.05
800.5111	243.582	65535	64766.75
800.6536	245.8053	65535	64781.75
800.7961	248.0281	65535	64787.95
800.9387	250.2503	65535	64785.65
801.0812	252.472	65535	64779
801.2238	254.6932	65535	64781.35
801.3664	256.9139	65535	64783.2
801.509	259.134	65535	64772.35
801.6516	261.3536	65535	64778.85
801.7942	263.5727	65535	64776.7
801.9369	265.7912	65535	64776.7
802.0795	268.0092	65535	64775.75
802.2222	270.2267	65535	64779.75
802.3649	272.4436	65535	64776.3
802.5076	274.6601	65535	64762.2
802.6504	276.8759	65535	64767.35
802.7931	279.0913	65535	64764.9
802.9359	281.3061	65535	64763.9
803.0787	283.5204	65535	64761.95
803.2215	285.7341	65535	64760.85
803.3643	287.9473	65535	64754.5
803.5071	290.16	65535	64759.45
803.6499	292.3721	65535	64760.9
803.7928	294.5837	65535	64758.8
803.9357	296.7947	65535	64766.45
804.0786	299.0052	65535	64763.7
804.2215	301.2152	65535	64756.9
804.3644	303.4246	65535	64763.8
804.5074	305.6334	65535	64757.25
804.6503	307.8418	65535	64759.4
804.7933	310.0495	65535	64754.55
804.9363	312.2568	65535	64753.3
805.0793	314.4635	65535	64753.75
805.2223	316.6696	65535	64750.9
805.3653	318.8752	65535	64743.75
805.5084	321.0802	65535	64749.1
805.6514	323.2847	65535	64745.35
805.7945	325.4887	65535	64748.7
805.9376	327.692	65535	64743.6
806.0807	329.8949	65535	64747.05
806.2238	332.0972	65535	64744.5
806.367	334.2989	65535	64740.4
806.5101	336.5001	65535	64743.45
806.6533	338.7007	65535	64741.7
806.7965	340.9008	65535	64738.5
806.9397	343.1003	65535	64734.6
807.0829	345.2992	65535	64731
807.2261	347.4976	65535	64733
807.3693	349.6955	65535	64734.8
807.5126	351.8927	65535	64730.9
807.6559	354.0895	65535	64718.6
807.7991	356.2856	65535	64727.85
807.9424	358.4812	65535	64729.85
808.0857	360.6763	65535	64724.6
808.2291	362.8707	65535	64722.25
808.3724	365.0646	65535	64719.2
808.5158	367.258	65535	64721.05
808.6591	369.4508	65535	64718.65
808.8025	371.643	65535	64715.1
808.9459	373.8346	65535	64715.9
809.0893	376.0257	65535	64710.45
809.2327	378.2162	65535	64712.2
809.3762	380.4062	65535	64715.5
809.5196	382.5956	65535	64713.45
809.6631	384.7844	65535	64719.6
809.8066	386.9726	65535	64719.5
809.9501	389.1603	65535	64722.85
810.0936	391.3474	65535	64683.35
810.2371	393.5339	65535	64719.75
810.3806	395.7199	65535	64721.35
810.5241	397.9052	65535	64721.4
810.6677	400.09	65535	64719
810.8113	402.2743	65535	64717.95
810.9548	404.4579	65535	64716.35
811.0984	406.641	65535	64715.85
811.2421	408.8235	65535	64715.8
811.3857	411.0054	65535	64709.7
811.5293	413.1868	65535	64706.15
811.673	415.3675	65535	64707.4
811.8166	417.5477	65535	64703.05
811.9603	419.7273	65535	64701.9
812.104	421.9064	65535	64694.7
812.2477	424.0848	65535	64701.8
812.3914	426.2627	65535	64703.95
812.5351	428.4399	65535	64697.65
812.6788	430.6166	65535	64695.95
812.8226	432.7928	65535	64694.45
812.9663	434.9683	65535	64697
813.1101	437.1432	65535	64693.45
813.2539	439.3176	65535	64696.95
813.3977	441.4914	65535	64697.8
813.5415	443.6645	65535	64692.95
813.6853	445.8371	65535	64694.15
813.8291	448.0091	65535	64693.5
813.973	450.1806	65535	64690.75
814.1168	452.3514	65535	64689.95
814.2607	454.5216	65535	64681.7
814.4046	456.6913	65535	64693.15
814.5485	458.8603	65535	64693.7
814.6924	461.0288	65535	64694.65
814.8363	463.1967	65535	64693.2
814.9802	465.3639	65535	64689.05
815.1241	467.5306	65535	64690.2
815.2681	469.6967	65535	64689.55
815.412	471.8622	65535	64691.7
815.556	474.0271	65535	64690.95
815.7	476.1914	65535	64687.8
815.844	478.3551	65535	64687.6
815.988	480.5182	65535	64690.05
816.132	482.6807	65535	64688.9
816.276	484.8426	65535	64691.65
816.4201	487.0039	65535	64688.95
816.5641	489.1647	65535	64685.8
816.7082	491.3248	65535	64686.65
816.8522	493.4843	65535	64686
816.9963	495.6432	65535	64683.35
817.1404	497.8015	65535	64683
817.2845	499.9592	65535	64681.35
817.4286	502.1163	65535	64680.9
817.5727	504.2728	65535	64677.75
817.7168	506.4287	65535	64681.35
817.861	508.5839	65535	64683.4
818.0051	510.7386	65535	64683.65
818.1493	512.8927	65535	64675.3
818.2935	515.0461	65535	64680.65
818.4377	517.199	65535	64678.45
818.5818	519.3512	65535	64676.65
818.726	521.5029	65535	64670.65
818.8703	523.6539	65535	64676.6
819.0145	525.8043	65535	64676.05
819.1587	527.9541	65535	64673.6
819.303	530.1033	65535	64676.45
819.4472	532.2519	65535	64676
819.5915	534.3999	65535	64675.95
819.7357	536.5472	65535	64675.2
819.88	538.694	65535	64677.9
820.0243	540.8401	65535	64669.15
820.1686	542.9856	65535	64667.2
820.3129	545.1305	65535	64669.45
820.4572	547.2748	65535	64668.5
820.6016	549.4185	65535	64669.05
820.7459	551.5615	65535	64671.7
820.8902	553.704	65535	64669.25
821.0346	555.8458	65535	64671.25
821.1789	557.987	65535	64669.85
821.3233	560.1276	65535	64668.15
821.4677	562.2675	65535	64670.75
821.6121	564.4069	65535	64672.35
821.7565	566.5456	65535	64670.9
821.9009	568.6837	65535	64669.1
822.0453	570.8212	65535	64669.5
822.1897	572.958	65535	64667.65
822.3342	575.0942	65535	64674.6
822.4786	577.2299	65535	64670.15
822.6231	579.3648	65535	64670.65
822.7675	581.4992	65535	64672.3
822.912	583.6329	65535	64671.6
823.0565	585.766	65535	64672.1
823.201	587.8985	65535	64668.95
823.3454	590.0304	65535	64644.2
823.4899	592.1616	65535	64662.3
823.6345	594.2922	65535	64664
823.779	596.4222	65535	64659.8
823.9235	598.5515	65535	64660
824.068	600.6802	65535	64667.4
824.2126	602.8083	65535	64662.6
824.3571	604.9358	65535	64663.85
824.5017	607.0626	65535	64662
824.6462	609.1888	65535	64661.2
824.7908	611.3144	65535	64661.9
824.9354	613.4393	65535	64660.6
825.08	615.5636	65535	64660.7
825.2246	617.6873	65535	64664.7
825.3692	619.8103	65535	64659.7
825.5138	621.9327	65535	64659.25
825.6584	624.0544	65535	64664.85
825.803	626.1756	65535	64661.05
825.9477	628.2961	65535	64658.3
826.0923	630.4159	65535	64659.6
826.237	632.5351	65535	64659.2
826.3816	634.6537	65535	64659.6
826.5263	636.7716	65535	64653.95
826.6709	638.8889	65535	64656.75
826.8156	641.0056	65535	64657.95
826.9603	643.1216	65535	64658.5
827.105	645.237	65535	64654.45
827.2497	647.3518	65535	64657.25
827.3944	649.4659	65535	64657.35
827.5391	651.5793	65535	64657.15
827.6838	653.6922	65535	64656.05
827.8285	655.8043	65535	64657
827.9733	657.9159	65535	64655.85
828.118	660.0268	65535	64652.1
828.2627	662.137	65535	64655.65
828.4075	664.2466	65535	64653.85
828.5522	666.3556	65535	64654.65
828.697	668.4639	65535	64651.75
828.8418	670.5716	65535	64656.1
828.9865	672.6786	65535	64653.75
829.1313	674.785	65535	64649.1
829.2761	676.8907	65535	64652.6
829.4209	678.9958	65535	64654.2
829.5657	681.1002	65535	64654.95
829.7105	683.204	65535	64649.3
829.8553	685.3072	65535	64648.45
830.0001	687.4097	65535	64650.8
830.1449	689.5115	65535	64652.1
830.2898	691.6127	65535	64648.85
830.4346	693.7132	65535	64649.55
830.5794	695.8131	65535	64630.3
830.7243	697.9123	65535	64648.9
830.8691	700.0109	65535	64649.35
831.014	702.1089	65535	64651.15
831.1588	704.2061	65535	64651.1
831.3037	706.3028	65535	64650.2
831.4486	708.3987	65535	64647.55
831.5935	710.4941	65535	64645.95
831.7383	712.5887	65535	64647.6
831.8832	714.6827	65535	64641.15
832.0281	716.7761	65535	64649.4
832.173	718.8688	65535	64647.05
832.3179	720.9608	65535	64645.1
832.4628	723.0522	65535	64642.5
832.6077	725.1429	65535	64647.3
832.7527	727.233	65535	64645.5
832.8976	729.3224	65535	64646.4
833.0425	731.4112	65535	64646.4
833.1874	733.4993	65535	64644.15
833.3324	735.5867	65535	64644.6
833.4773	737.6735	65535	64646.3
833.6222	739.7596	65535	64646.25
833.7672	741.845	65535	64644.45
833.9122	743.9298	65535	64643.15
834.0571	746.014	65535	64645
834.2021	748.0974	65535	64642.35
834.347	750.1802	65535	64643.95
834.492	752.2624	65535	64643.85
834.637	754.3439	65535	64644.15
834.782	756.4247	65535	64632.05
834.9269	758.5048	65535	64643.6
835.0719	760.5843	65535	64642.55
835.2169	762.6631	65535	64643.05
835.3619	764.7413	65535	64644
835.5069	766.8188	65535	64642.85
835.6519	768.8956	65535	64643.1
835.7969	770.9718	65535	64643.8
835.9419	773.0473	65535	64642.3
836.0869	775.1221	65535	64642.45
836.232	777.1962	65535	64641.8
836.377	779.2697	65535	64640.95
836.522	781.3426	65535	64623.65
836.667	783.4147	65535	64639.9
836.8121	785.4862	65535	64647.5
836.9571	787.557	65535	64642.4
837.1021	789.6271	65535	64642.55
837.2472	791.6966	65535	64641.85
837.3922	793.7654	65535	64643.05
837.5373	795.8335	65535	64643.25
837.6823	797.901	65535	64639.8
837.8274	799.9678	65535	64640.2
837.9724	802.0339	65535	64642.15
838.1175	804.0993	65535	64633.1
838.2626	806.1641	65535	64642.3
838.4076	808.2282	65535	64639.4
838.5527	810.2916	65535	64640.35
838.6978	812.3544	65535	64641.45
838.8428	814.4164	65535	64641.2
838.9879	816.4778	65535	64640.05
839.133	818.5385	65535	64639.75
839.2781	820.5986	65535	64637.8
839.4232	822.658	65535	64640
839.5682	824.7166	65535	64640.55
839.7133	826.7747	65535	64638.9
839.8584	828.832	65535	64639.75
840.0035	830.8886	65535	64639.8
840.1486	832.9446	65535	64638.25
840.2937	834.9999	65535	64642.15
840.4388	837.0545	65535	64636.7
840.5839	839.1085	65535	64634
840.729	841.1618	65535	64632.55
840.8741	843.2143	65535	64641.4
841.0192	845.2662	65535	64637.95
841.1643	847.3175	65535	64639.1
841.3095	849.368	65535	64640.5
841.4546	851.4179	65535	64636.7
841.5997	853.467	65535	64638.05
841.7448	855.5155	65535	64636.5
841.8899	857.5633	65535	64639
842.0351	859.6105	65535	64637.65
842.1802	861.6569	65535	64637.8
842.3253	863.7027	65535	64636.75
842.4704	865.7478	65535	64636.65
842.6156	867.7922	65535	64638.6
842.7607	869.8359	65535	64636.45
842.9058	871.8789	65535	64634.7
843.0509	873.9212	65535	64605.8
843.1961	875.9629	65535	64637.5
843.3412	878.0039	65535	64637.4
843.4863	880.0441	65535	64637.6
843.6315	882.0837	65535	64635.5
843.7766	884.1226	65535	64634.1
843.9218	886.1609	65535	64637.9
844.0669	888.1984	65535	64637.15
844.212	890.2352	65535	64637.4
844.3572	892.2714	65535	64634.9
844.5023	894.3069	65535	64635.35
844.6475	896.3416	65535	64637.7
844.7926	898.3757	65535	64637.8
844.9377	900.4091	65535	64637.1
845.0829	902.4418	65535	64630.3
845.228	904.4739	65535	64633.6
845.3732	906.5052	65535	64636.95
845.5183	908.5358	65535	64636.05
845.6635	910.5658	65535	64637
845.8086	912.595	65535	64633.85
845.9538	914.6236	65535	64637.1
846.0989	916.6515	65535	64634.45
846.2441	918.6786	65535	64635
846.3892	920.7051	65535	64634.7
846.5344	922.7309	65535	64634.9
846.6795	924.756	65535	64636.65
846.8246	926.7804	65535	64630.75
846.9698	928.8041	65535	64629.6
847.1149	930.8272	65535	64633.15
847.2601	932.8495	65535	64634.55
847.4052	934.8711	65535	64636.1
847.5504	936.892	65535	64636.1
847.6955	938.9123	65535	64633.6
847.8407	940.9318	65535	64635.45
847.9858	942.9506	65535	64631
848.131	944.9688	65535	64635.2
848.2761	946.9862	65535	64633.1
848.4213	949.003	65535	64632.85
848.5664	951.019	65535	64633.9
848.7115	953.0344	65535	64634.15
848.8567	955.0491	65535	64633.4
849.0018	957.063	65535	64634
849.147	959.0763	65535	64635.45
849.2921	961.0888	65535	64632.85
849.4373	963.1007	65535	64634.05
849.5824	965.1119	65535	64638.25
849.7275	967.1223	65535	64636.25
849.8727	969.1321	65535	64636.75
850.0178	971.1412	65535	64637.9
850.1629	973.1495	65535	64634.5
850.3081	975.1572	65535	64604.8
850.4532	977.1641	65535	64634.45
850.5983	979.1704	65535	64633.65
850.7435	981.1759	65535	64634.35
850.8886	983.1808	65535	64631.25
851.0337	985.1849	65535	64622.45
851.1788	987.1884	65535	64632.1
851.324	989.1911	65535	64631.35
851.4691	991.1932	65535	64631.05
851.6142	993.1945	65535	64632.85
851.7593	995.1951	65535	64631.45
851.9045	997.1951	65535	64625.9
852.0496	999.1943	65535	64634.1
852.1947	1001.1928	65535	64634.7
852.3398	1003.1906	65535	64633.8
852.4849	1005.1877	65535	64632.45
852.63	1007.1841	65535	64632.45
852.7751	1009.1798	65535	64632.15
852.9202	1011.1748	65535	64635.75
853.0653	1013.1691	65535	64633.4
853.2104	1015.1627	65535	64632.35
853.3555	1017.1556	65535	64634.5
853.5006	1019.1477	65535	64631.3
853.6457	1021.1392	65535	64638
853.7908	1023.1299	65535	64636.35
853.9359	1025.12	65535	64633.65
854.081	1027.1093	65535	64639.3
854.2261	1029.0979	65535	64638.95
854.3712	1031.0859	65535	64635.55
854.5163	1033.0731	65535	64636
854.6613	1035.0596	65535	64637.4
854.8064	1037.0454	65535	64637
854.9515	1039.0304	65535	64636.05
855.0965	1041.0148	65535	64638
855.2416	1042.9985	65535	64632.75
855.3867	1044.9814	65535	64635.4
855.5317	1046.9636	65535	64633.6
855.6768	1048.9452	65535	64635.25
855.8219	1050.926	65535	64635.3
855.9669	1052.9061	65535	64636.35
856.112	1054.8855	65535	64634.25
856.257	1056.8642	65535	64636.35
856.4021	1058.8421	65535	64629.45
856.5471	1060.8194	65535	64633.8
856.6921	1062.7959	65535	64633.65
856.8372	1064.7717	65535	64635.35
856.9822	1066.7469	65535	64631.25
857.1272	1068.7213	65535	64632.95
857.2723	1070.695	65535	64633.55
857.4173	1072.6679	65535	64635.25
857.5623	1074.6402	65535	64635.2
857.7073	1076.6117	65535	64628.4
857.8523	1078.5826	65535	64633.35
857.9973	1080.5527	65535	64630.9
858.1423	1082.5221	65535	64633.8
858.2873	1084.4908	65535	64637.05
858.4323	1086.4587	65535	64633.35
858.5773	1088.426	65535	64634
858.7223	1090.3925	65535	64629
858.8673	1092.3584	65535	64636.45
859.0123	1094.3235	65535	64634.1
859.1573	1096.2879	65535	64632.8
859.3022	1098.2515	65535	64633.75
859.4472	1100.2145	65535	64632.5
859.5922	1102.1767	65535	64632.55
859.7371	1104.1382	65535	64636.75
859.8821	1106.099	65535	64634.45
860.027	1108.0591	65535	64634.4
860.172	1110.0185	65535	64632.1
860.3169	1111.9771	65535	64634.85
860.4619	1113.9351	65535	64633.8
860.6068	1115.8923	65535	64635.3
860.7517	1117.8488	65535	64632.35
860.8967	1119.8045	65535	64630.4
861.0416	1121.7596	65535	64635.3
861.1865	1123.7139	65535	64636.3
861.3314	1125.6675	65535	64637.3
861.4763	1127.6204	65535	64636.15
861.6212	1129.5726	65535	64629.85
861.7661	1131.524	65535	64634.65
861.911	1133.4748	65535	64631.45
862.0559	1135.4248	65535	64631.45
862.2008	1137.3741	65535	64634.1
862.3457	1139.3226	65535	64632.45
862.4905	1141.2705	65535	64637.5
862.6354	1143.2176	65535	64629.5
862.7803	1145.164	65535	64634.25
862.9251	1147.1097	65535	64635.9
863.07	1149.0546	65535	64633.55
863.2148	1150.9989	65535	64635.65
863.3597	1152.9424	65535	64633.6
863.5045	1154.8852	65535	64634.15
863.6493	1156.8272	65535	64634.6
863.7942	1158.7686	65535	64627.4
863.939	1160.7092	65535	64632.2
864.0838	1162.6491	65535	64629.5
864.2286	1164.5883	65535	64632.95
864.3734	1166.5267	65535	64632.05
864.5182	1168.4644	65535	64632.55
864.663	1170.4014	65535	64628.6
864.8078	1172.3377	65535	64635.25
864.9526	1174.2732	65535	64635.5
865.0974	1176.2081	65535	64636
865.2421	1178.1421	65535	64627.35
865.3869	1180.0755	65535	64636.7
865.5317	1182.0082	65535	64637.9
865.6764	1183.9401	65535	64633.2
865.8212	1185.8713	65535	64634.5
865.9659	1187.8017	65535	64636.9
866.1106	1189.7315	65535	64636.65
866.2554	1191.6605	65535	64610.8
866.4001	1193.5888	65535	64638.25
866.5448	1195.5163	65535	64637.05
866.6895	1197.4432	65535	64634.95
866.8342	1199.3693	65535	64633.8
866.9789	1201.2947	65535	64636.2
867.1236	1203.2193	65535	64630.75
867.2683	1205.1432	65535	64634.8
867.413	1207.0664	65535	64634.7
867.5576	1208.9889	65535	64633.05
867.7023	1210.9106	65535	64635.75
867.847	1212.8316	65535	64635.8
867.9916	1214.7519	65535	64624.25
868.1363	1216.6715	65535	64637.5
868.2809	1218.5903	65535	64634.5
868.4255	1220.5084	65535	64632.3
868.5701	1222.4257	65535	64632.1
868.7148	1224.3424	65535	64638.7
868.8594	1226.2583	65535	64630.15
869.004	1228.1735	65535	64634.6
869.1486	1230.0879	65535	64636.65
869.2932	1232.0016	65535	64634.3
869.4377	1233.9146	65535	64633.3
869.5823	1235.8269	65535	64635.45
869.7269	1237.7384	65535	64634.9
869.8715	1239.6492	65535	64636.5
870.016	1241.5592	65535	64635.05
870.1606	1243.4686	65535	64635
870.3051	1245.3772	65535	64635.5
870.4496	1247.285	65535	64635.5
870.5941	1249.1922	65535	64635.5
870.7387	1251.0986	65535	64635.5
870.8832	1253.0042	65535	64637.2
871.0277	1254.9092	65535	64636.25
871.1722	1256.8134	65535	64636.6
871.3167	1258.7169	65535	64634.6
871.4611	1260.6196	65535	64637
871.6056	1262.5216	65535	64635.75
871.7501	1264.4229	65535	64637.55
871.8945	1266.3234	65535	64635.5
872.039	1268.2232	65535	64634.65
872.1834	1270.1223	65535	64635.45
872.3278	1272.0207	65535	64636
872.4723	1273.9183	65535	64629.95
872.6167	1275.8151	65535	64636.3
872.7611	1277.7113	65535	64635.65
872.9055	1279.6067	65535	64637.7
873.0499	1281.5014	65535	64633.1
873.1943	1283.3953	65535	64634.2
873.3386	1285.2885	65535	64636.8
873.483	1287.181	65535	64635.95
873.6274	1289.0727	65535	64635
873.7717	1290.9637	65535	64634.6
873.9161	1292.854	65535	64637.5
874.0604	1294.7435	65535	64635.15
874.2047	1296.6323	65535	64636.3
874.349	1298.5204	65535	64633.05
874.4933	1300.4077	65535	64633.45
874.6376	1302.2943	65535	64636.9
874.7819	1304.1802	65535	64635.35
874.9262	1306.0653	65535	64635.1
875.0705	1307.9497	65535	64636.2
875.2147	1309.8333	65535	64635.7
875.359	1311.7162	65535	64635.95
875.5032	1313.5984	65535	64632.65
875.6475	1315.4798	65535	64624.65
875.7917	1317.3605	65535	64619.4
875.9359	1319.2405	65535	64633.3
876.0801	1321.1197	65535	64635.85
876.2243	1322.9982	65535	64631.7
876.3685	1324.876	65535	64637.1
876.5127	1326.753	65535	64635.6
876.6569	1328.6293	65535	64635.1
876.801	1330.5048	65535	64630.75
876.9452	1332.3796	65535	64635.65
877.0893	1334.2537	65535	64610.35
877.2335	1336.127	65535	64633.15
877.3776	1337.9996	65535	64635.2
877.5217	1339.8714	65535	64637.7
877.6658	1341.7426	65535	64594.45
877.8099	1343.6129	65535	64634.95
877.954	1345.4826	65535	64635.6
878.0981	1347.3515	65535	64633.8
878.2422	1349.2196	65535	64633.85
878.3862	1351.087	65535	64635.4
878.5303	1352.9537	65535	64634.55
878.6743	1354.8197	65535	64635.4
878.8184	1356.6849	65535	64633.25
878.9624	1358.5493	65535	64633.6
879.1064	1360.4131	65535	64635.45
879.2504	1362.276	65535	64637.8
879.3944	1364.1383	65535	64638.05
879.5384	1365.9998	65535	64630.3
879.6823	1367.8606	65535	64635.3
879.8263	1369.7206	65535	64634.75
879.9702	1371.5799	65535	64632.8
880.1142	1373.4384	65535	64634.85
880.2581	1375.2962	65535	64636.15
880.402	1377.1533	65535	64635.3
880.5459	1379.0096	65535	64634.45
880.6898	1380.8652	65535	64636.2
880.8337	1382.7201	65535	64637.4
880.9776	1384.5742	65535	64635.55
881.1215	1386.4275	65535	64635.7
881.2653	1388.2802	65535	64636.4
881.4092	1390.132	65535	64634.95
881.553	1391.9832	65535	64633.95
881.6968	1393.8336	65535	64633.95
881.8406	1395.6832	65535	64634.8
881.9844	1397.5322	65535	64636.85
882.1282	1399.3803	65535	64630.65
882.272	1401.2278	65535	64636.75
882.4158	1403.0745	65535	64635.75
882.5595	1404.9204	65535	64635.2
882.7033	1406.7656	65535	64634.95
882.847	1408.6101	65535	64634.9
882.9908	1410.4538	65535	64636.1
883.1345	1412.2968	65535	64635.4
883.2782	1414.139	65535	64636.05
883.4219	1415.9805	65535	64636.65
883.5656	1417.8213	65535	64630.95
883.7092	1419.6613	65535	64635.25
883.8529	1421.5006	65535	64636
883.9965	1423.3391	65535	64637
884.1402	1425.1769	65535	64634.9
884.2838	1427.0139	65535	64635.55
884.4274	1428.8502	65535	64636.25
884.571	1430.6858	65535	64636.25
884.7146	1432.5206	65535	64636.6
884.8582	1434.3547	65535	64636.2
885.0018	1436.188	65535	64634.35
885.1453	1438.0206	65535	64634.95
885.2889	1439.8524	65535	64636.9
885.4324	1441.6835	65535	64637.15
885.5759	1443.5139	65535	64632.1
885.7194	1445.3435	65535	64634.7
885.8629	1447.1724	65535	64635.65
886.0064	1449.0005	65535	64637.15
886.1499	1450.8279	65535	64633.7
886.2933	1452.6545	65535	64636.3
886.4368	1454.4804	65535	64635.9
886.5802	1456.3056	65535	64629.85
886.7237	1458.13	65535	64638.75
886.8671	1459.9536	65535	64637.4
887.0105	1461.7766	65535	64638.6
887.1539	1463.5987	65535	64637.2
887.2972	1465.4202	65535	64635.75
887.4406	1467.2409	65535	64635.5
887.584	1469.0608	65535	64636.5
887.7273	1470.88	65535	64634.05
887.8706	1472.6984	65535	64635.85
888.0139	1474.5161	65535	64634.15
888.1572	1476.3331	65535	64638.4
888.3005	1478.1493	65535	64636.5
888.4438	1479.9648	65535	64635.6
888.5871	1481.7795	65535	64635.25
888.7303	1483.5935	65535	64637.05
888.8736	1485.4067	65535	64637.65
889.0168	1487.2192	65535	64636.25
889.16	1489.031	65535	64635.2
889.3032	1490.842	65535	64639.3
889.4464	1492.6522	65535	64637.95
889.5896	1494.4618	65535	64635.8
889.7327	1496.2705	65535	64637.85
889.8759	1498.0785	65535	64635.85
890.019	1499.8858	65535	64636.45
890.1622	1501.6924	65535	64638.4
890.3053	1503.4981	65535	64637.9
890.4484	1505.3032	65535	64636.1
890.5914	1507.1075	65535	64638.1
890.7345	1508.911	65535	64639.5
890.8776	1510.7138	65535	64637.75
891.0206	1512.5159	65535	64639.25
891.1637	1514.3172	65535	64636.9
891.3067	1516.1178	65535	64639
891.4497	1517.9176	65535	64633.7
891.5927	1519.7166	65535	64637.45
891.7357	1521.515	65535	64629.65
891.8786	1523.3126	65535	64636.15
892.0216	1525.1094	65535	64636.5
892.1645	1526.9055	65535	64637.35
892.3074	1528.7008	65535	64638.65
892.4503	1530.4954	65535	64636.1
892.5932	1532.2893	65535	64639.55
892.7361	1534.0824	65535	64636.3
892.879	1535.8747	65535	64637.1
893.0218	1537.6663	65535	64638.5
893.1647	1539.4572	65535	64635.9
893.3075	1541.2473	65535	64639.1
893.4503	1543.0367	65535	64640.75
893.5931	1544.8253	65535	64632.7
893.7359	1546.6132	65535	64634.9
893.8787	1548.4003	65535	64627.4
894.0214	1550.1867	65535	64629.1
894.1642	1551.9723	65535	64635.05
894.3069	1553.7572	65535	64638.65
894.4496	1555.5414	65535	64639.5
894.5923	1557.3247	65535	64640.45
894.735	1559.1074	65535	64641.35
894.8777	1560.8893	65535	64639.05
895.0204	1562.6705	65535	64641.1
895.163	1564.4509	65535	64641
895.3056	1566.2305	65535	64640.95
895.4482	1568.0094	65535	64642.05
895.5908	1569.7876	65535	64638.2
895.7334	1571.565	65535	64639.35
895.876	1573.3417	65535	64638.15
896.0186	1575.1176	65535	64642.55
896.1611	1576.8928	65535	64640.55
896.3036	1578.6672	65535	64640.85
896.4461	1580.4409	65535	64644.25
896.5886	1582.2138	65535	64637.75
896.7311	1583.986	65535	64639.95
896.8736	1585.7575	65535	64639.3
897.0161	1587.5282	65535	64640.75
897.1585	1589.2981	65535	64642.75
897.3009	1591.0673	65535	64640.1
897.4433	1592.8358	65535	64643
897.5857	1594.6035	65535	64638.4
897.7281	1596.3704	65535	64639
897.8705	1598.1366	65535	64643.25
898.0128	1599.9021	65535	64642.85
898.1551	1601.6668	65535	64640.75
898.2975	1603.4308	65535	64640.05
898.4398	1605.194	65535	64636.65
898.5821	1606.9564	65535	64641.65
898.7243	1608.7182	65535	64638.25
898.8666	1610.4791	65535	64643.55
899.0088	1612.2394	65535	64644.1
899.1511	1613.9988	65535	64643.55
899.2933	1615.7576	65535	64643.35
899.4355	1617.5156	65535	64635.45
899.5776	1619.2728	65535	64641.2
899.7198	1621.0293	65535	64641.6
899.862	1622.785	65535	64640.05
900.0041	1624.54	65535	64639.55
900.1462	1626.2942	65535	64641.45
900.2883	1628.0477	65535	64639.55
900.4304	1629.8005	65535	64637.45
900.5725	1631.5525	65535	64642.05
900.7145	1633.3037	65535	64645.4
900.8566	1635.0542	65535	64644.1
900.9986	1636.804	65535	64644.9
901.1406	1638.553	65535	64558.55
901.2826	1640.3013	65535	64642.3
901.4245	1642.0488	65535	64642.75
901.5665	1643.7955	65535	64644.1
901.7085	1645.5416	65535	64641.4
901.8504	1647.2868	65535	64643.4
901.9923	1649.0313	65535	64643.25
902.1342	1650.7751	65535	64642.2
902.2761	1652.5181	65535	64643.1
902.4179	1654.2604	65535	64642.7
902.5598	1656.0019	65535	64643.7
902.7016	1657.7427	65535	64642.9
902.8434	1659.4828	65535	64642.6
902.9852	1661.222	65535	64641.95
903.127	1662.9606	65535	64642.6
903.2687	1664.6984	65535	64641.85
903.4105	1666.4354	65535	64640
903.5522	1668.1717	65535	64644.25
903.6939	1669.9072	65532.5	64641.2
903.8356	1671.642	65535	64639.35
903.9773	1673.3761	65534	64642.55
904.119	1675.1094	65530.9	64637.9
904.2606	1676.8419	65512.35	64620.75
904.4022	1678.5737	65526.4	64636.3
904.5439	1680.3048	65519.5	64628.5
904.6855	1682.0351	65512.05	64622.9
904.827	1683.7646	65486.05	64590.25
904.9686	1685.4934	65515.2	64623.7
905.1101	1687.2215	65422.85	64529.5
905.2517	1688.9488	65505.7	64615
905.3932	1690.6754	65364.3	64474.2
905.5347	1692.4012	65434.8	64543.7
905.6761	1694.1263	65455.8	64564.35
905.8176	1695.8506	65376.45	64484.35
905.9591	1697.5742	65389.35	64495.85
906.1005	1699.297	65374.35	64483.85
906.2419	1701.0191	65394.35	64504.75
906.3833	1702.7404	65316.65	64426.35
906.5246	1704.461	65286.1	64396.3
906.666	1706.1808	65348.8	64455.25
906.8073	1707.8999	65302.1	64410.1
906.9487	1709.6182	65287	64393.25
907.09	1711.3358	65267.55	64375.35
907.2313	1713.0527	65258.8	64371.8
907.3725	1714.7688	65270.95	64373.65
907.5138	1716.4841	65156.8	64263.5
907.655	1718.1987	65211.25	64313.4
907.7962	1719.9126	65159.6	64270.55
907.9374	1721.6257	65192.55	64302.45
908.0786	1723.338	65205.05	64313
908.2198	1725.0496	65036.7	64146.5
908.3609	1726.7605	65067.35	64174.4
908.502	1728.4706	65005.5	64113.3
908.6431	1730.18	65084.95	64189.7
908.7842	1731.8886	64993.4	64102.35
908.9253	1733.5964	64944.7	64050.35
909.0664	1735.3036	65046.55	64152.25
909.2074	1737.0099	64972.85	64082.4
909.3484	1738.7156	64875.2	63985.5
909.4894	1740.4204	64850.35	63956.2
909.6304	1742.1246	64890.35	63997.7
909.7714	1743.8279	64921.2	64030.55
909.9123	1745.5306	64886.85	63994.8
910.0532	1747.2325	64529.1	63637.4
910.1941	1748.9336	64529.95	63639.8
910.335	1750.634	64694.95	63803.9
910.4759	1752.3336	64804.6	63914.05
910.6168	1754.0325	64497.1	63607.45
910.7576	1755.7307	64771.75	63884.8
910.8984	1757.4281	64366.95	63478.05
911.0392	1759.1247	64685.85	63785.45
911.18	1760.8206	64202.05	63307.05
911.3208	1762.5158	64281.15	63386.8
911.4615	1764.2102	64416.75	63526.6
911.6022	1765.9039	64345.6	63457.2
911.7429	1767.5968	64213.35	63324.75
911.8836	1769.289	64162.5	63271.6
912.0243	1770.9804	64271	63380.85
912.1649	1772.6711	64148.25	63258.1
912.3056	1774.361	64027.95	63136.85
912.4462	1776.0502	64070.15	63178.55
912.5868	1777.7386	63579.4	62686.2
912.7274	1779.4263	63917.3	63025.7
912.8679	1781.1132	63920.5	63031.8
913.0084	1782.7994	63820.3	62930.4
913.149	1784.4849	63801.3	62912.45
913.2895	1786.1696	63157.45	62259.85
913.4299	1787.8535	63562	62672.25
913.5704	1789.5367	63667.4	62779
913.7108	1791.2192	63234.4	62344.05
913.8513	1792.9009	62950.05	62029.55
913.9917	1794.5818	63352.35	62461.4
914.132	1796.2621	63016.5	62128.55
914.2724	1797.9415	63039.2	62149.6
914.4128	1799.6202	63020.3	62131.25
914.5531	1801.2982	63005.65	62117.15
914.6934	1802.9755	62559.45	61668.95
914.8337	1804.6519	62413.85	61523.55
914.9739	1806.3277	63057	62166.25
915.1142	1808.0027	62063.3	61174.5
915.2544	1809.6769	62420.45	61530
915.3946	1811.3504	62544.75	61653.45
915.5348	1813.0231	61664.65	60775.05
915.675	1814.6951	62254.85	61366.2
915.8151	1816.3664	61898.65	61007.9
915.9553	1818.0369	61958.15	61068.55
916.0954	1819.7067	61741.25	60854.05
916.2355	1821.3757	62200.25	61308.2
916.3755	1823.044	61486.75	60599.65
916.5156	1824.7115	61059.9	60170.1
916.6556	1826.3783	61377.25	60487.4
916.7956	1828.0443	61439.2	60549.7
916.9356	1829.7096	61144.15	60253.65
917.0756	1831.3741	60498.7	59604.4
917.2155	1833.0379	60908	60017.75
917.3555	1834.701	60864.3	59973.85
917.4954	1836.3633	60415.35	59524.9
917.6353	1838.0248	60717.65	59825.7
917.7751	1839.6856	60552.8	59664.6
917.915	1841.3457	60062.65	59173.25
918.0548	1843.005	60682.9	59795.65
918.1946	1844.6636	60270.4	59381.05
918.3344	1846.3214	59571	58679.4
918.4742	1847.9785	59781.1	58889.45
918.6139	1849.6349	59738.85	58846.8
918.7537	1851.2904	60229.4	59331.6
918.8934	1852.9453	59411.8	58524.8
919.0331	1854.5994	59772.1	58880.8
919.1727	1856.2528	59722.45	58828.4
919.3124	1857.9054	59262.95	58372.9
919.452	1859.5572	58999.2	58111.2
919.5916	1861.2083	59222.15	58331.65
919.7312	1862.8587	59721.9	58831.75
919.8708	1864.5084	58399.5	57508.55
920.0103	1866.1572	59054.65	58164.2
920.1498	1867.8054	58281	57391.45
920.2893	1869.4528	58679.9	57788.75
920.4288	1871.0994	58147.6	57256.6
920.5683	1872.7453	58172.35	57281.5
920.7077	1874.3905	58377.75	57482.15
920.8471	1876.0349	57860.65	56969.2
920.9865	1877.6786	58268.55	57377.15
921.1259	1879.3215	57759.45	56870.25
921.2653	1880.9637	58293.55	57402.6
921.4046	1882.6051	57745.3	56856.8
921.5439	1884.2458	57515.4	56624.4
921.6832	1885.8858	57189.05	56300.15
921.8225	1887.525	57428	56536.2
921.9617	1889.1634	57300.5	56410.45
922.101	1890.8011	57085.85	56195.5
922.2402	1892.4381	56445.15	55558.85
922.3794	1894.0743	57102.4	56211.35
922.5185	1895.7098	56691.3	55801.95
922.6577	1897.3446	56305.75	55416.6
922.7968	1898.9786	56432.1	55540.85
922.9359	1900.6118	56125.4	55237.4
923.075	1902.2443	55840.3	54950
923.214	1903.8761	56189.3	55299.7
923.3531	1905.5071	55728.5	54839.1
923.4921	1907.1374	55020.1	54128.3
923.6311	1908.7669	55368.25	54479.55
923.77	1910.3957	55676.65	54786.8
923.909	1912.0237	55000	54109.65
924.0479	1913.651	54714.85	53826.05
924.1868	1915.2776	54551.55	53666
924.3257	1916.9034	54549.75	53661.6
924.4646	1918.5285	54238.65	53351.7
924.6034	1920.1528	54242.65	53353.2
924.7422	1921.7764	54088.9	53200.8
924.881	1923.3992	53979.7	53091.35
925.0198	1925.0213	53622.75	52733.05
925.1586	1926.6427	53076.8	52188.6
925.2973	1928.2633	53311.65	52343.8
925.436	1929.8832	53123.8	52232.75
925.5747	1931.5023	52923.05	52033.75
925.7134	1933.1207	52494	51603.95
925.852	1934.7383	52731.65	51845.15
925.9906	1936.3552	52316.4	51428.9
926.1292	1937.9714	52295.25	51404.7
926.2678	1939.5868	52174.75	51282
926.4064	1941.2015	51766.25	50877.35
926.5449	1942.8154	51444.2	50554.7
926.6834	1944.4286	51451.2	50561.9
926.8219	1946.041	51442.2	50535.65
926.9604	1947.6528	51109.5	50215.2
927.0988	1949.2637	50894.5	50004.6
927.2372	1950.8739	50620.7	49733.3
927.3756	1952.4834	50673.55	49785.2
927.514	1954.0921	50531.85	49642.85
927.6523	1955.7001	50165	49270.75
927.7907	1957.3074	50204.5	49315.75
927.929	1958.9139	49773.9	48886.5
928.0673	1960.5197	49876.6	48984.3
928.2055	1962.1247	49630.55	48743
928.3438	1963.729	49332.3	48445.75
928.482	1965.3325	49119.8	48207.55
928.6202	1966.9353	49174	48286.35
928.7584	1968.5374	48782.1	47892.3
928.8965	1970.1387	48622.15	47733.4
929.0346	1971.7393	48579.25	47691.65
929.1727	1973.3392	48397.25	47508.7
929.3108	1974.9383	48149.3	47262.55
929.4489	1976.5366	47928.15	47041.6
929.5869	1978.1342	47910.25	47019.95
929.7249	1979.7311	47809.85	46919.15
929.8629	1981.3273	47684.4	46797.85
930.0009	1982.9227	47432.2	46542.05
930.1388	1984.5173	47350.9	46463.25
930.2767	1986.1112	47068.4	46180.75
930.4146	1987.7044	47159.15	46273.3
930.5525	1989.2968	46745.4	45856.95
930.6904	1990.8885	46867.1	45975.55
930.8282	1992.4795	46576.25	45685.85
930.966	1994.0697	46491.25	45604.45
931.1038	1995.6592	46383.45	45493.85
931.2415	1997.2479	46151.75	45265.8
931.3793	1998.8359	46042.45	45154.8
931.517	2000.4232	45833.5	44947.85
931.6547	2002.0097	45735.7	44851.35
931.7923	2003.5955	45503.65	44616.9
931.93	2005.1805	45485.15	44595.7
932.0676	2006.7648	45297.95	44410.05
932.2052	2008.3484	45157.05	44267.05
932.3427	2009.9312	45155.95	44266.8
932.4803	2011.5133	44932.8	44045.55
932.6178	2013.0946	44861.15	43973.3
932.7553	2014.6752	44716	43827.5
932.8928	2016.2551	44558.95	43671.55
933.0302	2017.8342	44415.8	43526.85
933.1676	2019.4126	44184.4	43298.45
933.305	2020.9902	44020.05	43133.35
933.4424	2022.5672	43970.15	43082.6
933.5798	2024.1433	43854.65	42962.2
933.7171	2025.7188	43710.1	42824.45
933.8544	2027.2935	43519.6	42631.75
933.9917	2028.8674	43339.85	42452.65
934.129	2030.4406	43260.45	42374.25
934.2662	2032.0131	43073.5	42187.8
934.4034	2033.5849	42909.6	42015.7
934.5406	2035.1559	42826.85	41939.15
934.6778	2036.7261	42816.6	41930.8
934.8149	2038.2957	42605.5	41716.7
934.952	2039.8645	42535.5	41647.55
935.0891	2041.4325	42562.2	41671.25
935.2262	2042.9998	42325.65	41438.75
935.3632	2044.5664	42150.9	41262.75
935.5002	2046.1323	42112.15	41225.05
935.6372	2047.6974	41939	41053.2
935.7742	2049.2617	41836.1	40946.8
935.9111	2050.8254	41869.75	40976.55
936.048	2052.3883	41690.7	40801.8
936.1849	2053.9504	41558	40669.95
936.3218	2055.5118	41454.9	40565.8
936.4586	2057.0725	41226.85	40334.85
936.5955	2058.6325	41195.3	40309.4
936.7323	2060.1917	41042.75	40156.6
936.869	2061.7502	40900.15	40010.2
937.0058	2063.3079	40739.4	39853.65
937.1425	2064.8649	40611.15	39720.3
937.2792	2066.4212	40533.25	39645.45
937.4159	2067.9767	40393.65	39507.05
937.5525	2069.5315	40158.95	39270.1
937.6891	2071.0856	40037.7	39150.75
937.8257	2072.6389	39878.35	38988.25
937.9623	2074.1915	39658.8	38772.6
938.0989	2075.7433	39521.65	38632.7
938.2354	2077.2945	39429.35	38543.15
938.3719	2078.8448	39280.2	38393.3
938.5084	2080.3945	39125.6	38238.95
938.6448	2081.9434	39123.15	38235.15
938.7812	2083.4916	38967.6	38079.85
938.9176	2085.039	38860.65	37970.7
939.054	2086.5857	38839.25	37949.95
939.1903	2088.1317	38704.2	37816.5
939.3267	2089.677	38546.7	37659.75
939.463	2091.2215	38428.5	37538.75
939.5992	2092.7652	38343.3	37453.5
939.7355	2094.3083	38219.85	37330.65
939.8717	2095.8506	38184.05	37297.5
940.0079	2097.3921	38124.45	37238.4
940.1441	2098.933	37965.15	37078
940.2802	2100.4731	37902.15	37014.8
940.4163	2102.0124	37838.25	36941.6
940.5524	2103.5511	37693.7	36805.4
940.6885	2105.089	37664.1	36777.5
940.8245	2106.6261	37532.65	36643.2
940.9606	2108.1626	37426.25	36536.5
941.0965	2109.6983	37356.45	36439.75
941.2325	2111.2332	37214.2	36328.1
941.3684	2112.7675	37117.2	36228.9
941.5044	2114.301	37028.8	36140.05
941.6403	2115.8337	36967.25	36081.4
941.7761	2117.3657	36869.85	35982.15
941.912	2118.897	36750.45	35861.6
942.0478	2120.4276	36588.6	35694.55
942.1835	2121.9575	36417.85	35527.3
942.3193	2123.4866	36440.65	35539.4
942.455	2125.0149	36315.75	35424.25
942.5907	2126.5426	36084.9	35197.65
942.7264	2128.0695	36010	35119.35
942.8621	2129.5956	35917.2	35032.2
942.9977	2131.1211	35923.2	35032.3
943.1333	2132.6458	35788.05	34902.3
943.2689	2134.1698	35685.8	34796.6
943.4044	2135.693	35581.2	34689.5
943.54	2137.2155	35462.55	34573.65
943.6755	2138.7373	35408.35	34521.1
943.8109	2140.2584	35262.85	34375.4
943.9464	2141.7787	35146.95	34256.2
944.0818	2143.2983	34984.3	34098.2
944.2172	2144.8171	34809.2	33923.45
944.3526	2146.3353	34748.1	33859.25
944.4879	2147.8527	34600.3	33712.1
944.6232	2149.3693	34632.35	33744.2
944.7585	2150.8853	34435.55	33547.5
944.8938	2152.4005	34256.65	33368.95
945.029	2153.9149	34240.35	33353.45
945.1642	2155.4287	34103.1	33213.4
945.2994	2156.9417	34068.15	33178.85
945.4346	2158.454	33905.6	33016.8
945.5697	2159.9655	33825.5	32938.1
945.7048	2161.4764	33813.95	32927.2
945.8399	2162.9865	33606.65	32719.25
945.9749	2164.4958	33591.6	32705.4
946.1099	2166.0045	33456.65	32566.7
946.2449	2167.5124	33451.65	32565.05
946.3799	2169.0195	33305.7	32419.05
946.5148	2170.526	33270.25	32382.55
946.6498	2172.0317	33126.25	32239.05
946.7846	2173.5367	33005.05	32116.15
946.9195	2175.0409	32922.85	32035.7
947.0543	2176.5445	32895.65	32010.2
947.1891	2178.0473	32771.3	31884
947.3239	2179.5494	32580.5	31689.25
947.4587	2181.0507	32467.15	31578.2
947.5934	2182.5513	32413.05	31525.4
947.7281	2184.0512	32365.5	31478
947.8628	2185.5504	32232.45	31345.3
947.9974	2187.0488	32005.25	31117.3
948.132	2188.5465	31944.75	31058.45
948.2666	2190.0435	31865	30978.55
948.4012	2191.5397	31714.5	30826.9
948.5357	2193.0353	31585.5	30699.4
948.6702	2194.5301	31447.25	30557.95
948.8047	2196.0241	31334.6	30446
948.9392	2197.5175	31248.75	30360.15
949.0736	2199.0101	31144.55	30253.45
949.208	2200.502	30980.65	30093.5
949.3424	2201.9931	30850.6	29962.35
949.4767	2203.4835	30757.95	29869.35
949.611	2204.9733	30729.1	29837.5
949.7453	2206.4622	30667.7	29780.55
949.8796	2207.9505	30458.05	29567.25
950.0138	2209.438	30344.55	29459.6
950.148	2210.9248	30239.85	29350.6
950.2822	2212.4109	30169.05	29281.25
950.4164	2213.8962	30075.2	29183.6
950.5505	2215.3809	30000.8	29111.85
950.6846	2216.8648	29929.3	29041.1
950.8186	2218.3479	29808.85	28916.25
950.9527	2219.8304	29659.85	28769.55
951.0867	2221.3121	29561.35	28669.55
951.2207	2222.7931	29480.95	28592.55
951.3546	2224.2733	29410.65	28522.6
951.4886	2225.7529	29291.2	28402.8
951.6225	2227.2317	29169.5	28277.85
951.7563	2228.7098	29103.55	28214.25
951.8902	2230.1872	28973.6	28086.75
952.024	2231.6638	28922.4	28034.8
952.1578	2233.1397	28810.45	27917.15
952.2916	2234.6149	28707.7	27821.45
952.4253	2236.0894	28592.95	27703.15
952.559	2237.5632	28528.9	27640.45
952.6927	2239.0362	28412.2	27525.2
952.8263	2240.5085	28342.35	27453.5
952.9599	2241.9801	28261.65	27373.75
953.0935	2243.4509	28148.85	27261.15
953.2271	2244.921	28052.25	27164.7
953.3606	2246.3904	27937.65	27048.4
953.4941	2247.8591	27859.7	26972.05
953.6276	2249.3271	27795.65	26908.95
953.7611	2250.7943	27713.15	26824.15
953.8945	2252.2608	27540.75	26651.75
954.0279	2253.7266	27505.75	26618.55
954.1612	2255.1917	27442.85	26553.75
954.2946	2256.656	27322.55	26435.2
954.4279	2258.1197	27244.4	26357.35
954.5612	2259.5826	27161.45	26273
954.6944	2261.0447	27109.55	26222.65
954.8276	2262.5062	26943.7	26055
954.9608	2263.9669	26914	26025.25
955.094	2265.4269	26888.05	26001.8
955.2271	2266.8862	26789.45	25902.2
955.3602	2268.3448	26699.85	25814.95
955.4933	2269.8026	26631.35	25742.8
955.6264	2271.2598	26533.1	25646.85
955.7594	2272.7162	26444.95	25558.8
955.8924	2274.1719	26390.7	25503.55
956.0253	2275.6268	26307.45	25419.05
956.1583	2277.0811	26300.2	25412.1
956.2912	2278.5346	26185.8	25299.7
956.4241	2279.9874	26101.25	25216.5
956.5569	2281.4395	26077.85	25193.4
956.6897	2282.8908	25895.2	25002.25
956.8225	2284.3414	25892.85	25003.6
956.9553	2285.7914	25767.55	24880.85
957.088	2287.2406	25701.55	24813.2
957.2207	2288.689	25632.2	24743.8
957.3534	2290.1368	25585.45	24696.65
957.486	2291.5838	25507.25	24617.65
957.6186	2293.0302	25384.15	24494.75
957.7512	2294.4758	25222.4	24335.5
957.8838	2295.9206	25129	24238.7
958.0163	2297.3648	25078.7	24192.25
958.1488	2298.8082	25056.15	24168.8
958.2813	2300.251	24981.9	24094.05
958.4137	2301.693	24897.1	24007.35
958.5461	2303.1343	24907.85	24017.25
958.6785	2304.5748	24794.7	23906.5
958.8108	2306.0147	24658.75	23769.6
958.9432	2307.4538	24614.45	23724.3
959.0754	2308.8922	24564.2	23679.5
959.2077	2310.3299	24456.35	23568.4
959.3399	2311.7669	24374.35	23486.55
959.4721	2313.2031	24319.95	23432.55
959.6043	2314.6387	24198.7	23310
959.7365	2316.0735	24096.65	23207.65
959.8686	2317.5076	24061.9	23172.9
960.0006	2318.941	24010.65	23120.9
960.1327	2320.3737	23915.25	23027.1
960.2647	2321.8056	23866.2	22976.85
960.3967	2323.2369	23794.95	22905.55
960.5287	2324.6674	23702.3	22814.45
960.6606	2326.0972	23573.55	22684.65
960.7925	2327.5263	23477.85	22591.65
960.9244	2328.9547	23442.8	22552.8
961.0562	2330.3823	23411.75	22522.75
961.1881	2331.8092	23347.15	22456.7
961.3198	2333.2355	23207	22319.15
961.4516	2334.661	23194.15	22306.15
961.5833	2336.0858	23162.8	22273.35
961.715	2337.5098	23060.9	22172.8
961.8467	2338.9332	23066.65	22178.35
961.9783	2340.3558	22942.75	22051.5
962.1099	2341.7778	22868.9	21979.55
962.2415	2343.199	22798.55	21910.05
962.373	2344.6195	22695.35	21808.65
962.5045	2346.0393	22659.35	21773
962.636	2347.4583	22600.15	21711.6
962.7675	2348.8767	22529.3	21641.8
962.8989	2350.2943	22472.45	21586
963.0303	2351.7113	22426.55	21537.7
963.1617	2353.1275	22299.2	21411.8
963.293	2354.543	22263.9	21369.9
963.4243	2355.9578	22161.25	21273.45
963.5556	2357.3718	21981.7	21095.45
963.6868	2358.7852	21963.95	21073.45
963.818	2360.1978	21887.75	20998.3
963.9492	2361.6098	21832.4	20946.3
964.0803	2363.021	21768.2	20876.1
964.2114	2364.4315	21712.55	20826.05
964.3425	2365.8413	21644.25	20754.95
964.4736	2367.2504	21546	20659.7
964.6046	2368.6587	21430.1	20540.75
964.7356	2370.0664	21353.95	20467.85
964.8666	2371.4733	21285.2	20398
964.9975	2372.8795	21227.75	20340.45
965.1284	2374.285	21164.15	20277.15
965.2593	2375.6899	21035.3	20150.5
965.3901	2377.0939	20907.35	20020.65
965.5209	2378.4973	20871.25	19983.95
965.6517	2379.9	20763.15	19874.8
965.7825	2381.3019	20785.65	19897.75
965.9132	2382.7032	20698.1	19810.35
966.0439	2384.1037	20668.7	19781.75
966.1745	2385.5035	20529.05	19642.25
966.3051	2386.9027	20515.75	19629.8
966.4357	2388.3011	20452.15	19562.85
966.5663	2389.6987	20344	19457.65
966.6968	2391.0957	20287.5	19401.4
966.8273	2392.492	20194.7	19308.25
966.9578	2393.8876	20055.15	19167.75
967.0882	2395.2824	20007.75	19121.95
967.2186	2396.6765	19962.45	19077.5
967.349	2398.07	19868.2	18982.9
967.4793	2399.4627	19837.4	18948.5
967.6097	2400.8547	19764.75	18877.75
967.7399	2402.246	19661.5	18771.35
967.8702	2403.6366	19589.9	18702.35
968.0004	2405.0265	19536.6	18649.85
968.1306	2406.4156	19456.4	18566.3
968.2607	2407.8041	19347.15	18456.55
968.3909	2409.1918	19284.95	18397.95
968.521	2410.5789	19172.05	18283.95
968.651	2411.9652	19104.55	18214.2
968.781	2413.3508	19052.3	18165.3
968.911	2414.7358	19028.95	18142.6
969.041	2416.12	18897.5	18012.7
969.1709	2417.5035	18814.35	17927.8
969.3008	2418.8863	18765.35	17877.95
969.4307	2420.2684	18705.8	17818.75
969.5606	2421.6497	18611.9	17723.25
969.6904	2423.0304	18531.5	17643
969.8201	2424.4104	18482.85	17594.9
969.9499	2425.7896	18419.7	17530.5
970.0796	2427.1682	18383.75	17498.9
970.2093	2428.546	18355.35	17466.3
970.3389	2429.9232	18278.05	17389.55
970.4685	2431.2996	18244.9	17359.3
970.5981	2432.6753	18184.05	17298.7
970.7277	2434.0503	18103.5	17217.5
970.8572	2435.4246	18047.05	17161.2
970.9867	2436.7982	17975.85	17086.35
971.1161	2438.1711	17923.7	17039.3
971.2456	2439.5433	17884.05	16996.2
971.375	2440.9148	17760.1	16868.05
971.5043	2442.2856	17721.45	16833.1
971.6336	2443.6557	17648.8	16759.15
971.7629	2445.025	17581.7	16695.15
971.8922	2446.3937	17526.15	16639.1
972.0214	2447.7617	17479.15	16591.95
972.1506	2449.1289	17426.75	16539.45
972.2798	2450.4955	17406.55	16515.6
972.4089	2451.8613	17347.7	16462.95
972.538	2453.2265	17264.25	16377.65
972.6671	2454.5909	17217.3	16328.25
972.7961	2455.9546	17177.45	16289.5
972.9251	2457.3177	17089.05	16203.25
973.0541	2458.68	17069.35	16183.55
973.1831	2460.0416	17057	16167.65
973.312	2461.4025	17005.5	16117.35
973.4408	2462.7627	16929.9	16029.15
973.5697	2464.1222	16860.45	15975.25
973.6985	2465.4811	16818	15930.7
973.8273	2466.8392	16723.4	15836.65
973.956	2468.1966	16711.5	15821.55
974.0847	2469.5533	16704.35	15816
974.2134	2470.9093	16638.9	15749.2
974.3421	2472.2645	16574.25	15684.9
974.4707	2473.6191	16518.95	15632.3
974.5993	2474.973	16430.7	15543.95
974.7278	2476.3262	16389.3	15500
974.8563	2477.6787	16339	15450.95
974.9848	2479.0305	16191.35	15303.95
975.1132	2480.3816	16170.7	15281.35
975.2417	2481.7319	16119.45	15232.8
975.37	2483.0816	16049.25	15162.7
975.4984	2484.4306	16006.8	15119.9
975.6267	2485.7789	15980	15093.95
975.755	2487.1264	15894.05	15004.95
975.8833	2488.4733	15816.8	14930.9
976.0115	2489.8195	15769.55	14874.6
976.1397	2491.165	15690	14798.8
976.2678	2492.5097	15665.25	14774.7
976.3959	2493.8538	15611.5	14725.6
976.524	2495.1972	15504.05	14616.3
976.6521	2496.5398	15434.15	14548.5
976.7801	2497.8818	15406.8	14516.2
976.9081	2499.2231	15350.1	14463.55
977.036	2500.5637	15272.8	14383.5
977.164	2501.9035	15231.5	14343.25
977.2918	2503.2427	15202.65	14311.65
977.4197	2504.5812	15156.85	14271
977.5475	2505.919	15130.95	14241.15
977.6753	2507.256	15068.6	14182.9
977.8031	2508.5924	14985.15	14099
977.9308	2509.9281	14940.75	14050.6
978.0585	2511.2631	14883.75	13996.35
978.1861	2512.5974	14852.05	13966.85
978.3137	2513.9309	14803	13915.4
978.4413	2515.2638	14747.65	13834.75
978.5689	2516.596	14695.9	13808.25
978.6964	2517.9275	14627.65	13738.15
978.8239	2519.2583	14596.35	13709.6
978.9513	2520.5884	14531.7	13644.15
979.0788	2521.9178	14463.05	13576.2
979.2062	2523.2465	14429.05	13543.55
979.3335	2524.5745	14373.1	13485.75
979.4608	2525.9018	14330.9	13444.05
979.5881	2527.2284	14278.15	13390.5
979.7154	2528.5543	14244.05	13358.55
979.8426	2529.8796	14205.35	13318.05
979.9698	2531.2041	14154.1	13266.95
980.0969	2532.5279	14145.85	13261.55
980.224	2533.851	14083.55	13195.55
980.3511	2535.1735	14028.9	13142.2
980.4781	2536.4952	14002.9	13116.85
980.6052	2537.8163	13978.9	13093.05
980.7321	2539.1366	13929.5	13043.35
980.8591	2540.4562	13882.8	12995.35
980.986	2541.7752	13847.95	12960.85
981.1129	2543.0935	13829.75	12941.3
981.2397	2544.411	13784.7	12896
981.3665	2545.7279	13752.75	12864.95
981.4933	2547.0441	13746.55	12859.25
981.62	2548.3596	13719.75	12830.05
981.7467	2549.6744	13682.2	12794.25
981.8734	2550.9885	13623.4	12728.85
982.0001	2552.3019	13562.05	12675.55
982.1267	2553.6146	13531.9	12645.25
982.2532	2554.9266	13479.85	12592.95
982.3798	2556.2379	13425.4	12535.8
982.5063	2557.5485	13440.95	12553.75
982.6327	2558.8585	13405.8	12510.95
982.7592	2560.1677	13384.25	12493.95
982.8856	2561.4762	13332.15	12446.25
983.0119	2562.7841	13316.8	12426.5
983.1383	2564.0913	13277.1	12392.3
983.2646	2565.3977	13224.9	12339.7
983.3908	2566.7035	13199.4	12311.25
983.517	2568.0086	13162.95	12274.05
983.6432	2569.313	13131.75	12242.4
983.7694	2570.6167	13135	12245.15
983.8955	2571.9197	13082.8	12194.8
984.0216	2573.222	13053.05	12161.5
984.1476	2574.5236	13024.75	12136.3
984.2737	2575.8246	12991.7	12101.3
984.3996	2577.1248	12953.7	12064.9
984.5256	2578.4244	12917.8	12030.1
984.6515	2579.7232	12921.85	12035.85
984.7774	2581.0214	12899.05	11986.55
984.9032	2582.3189	12852.8	11964.9
985.029	2583.6157	12802.9	11911.8
985.1548	2584.9118	12760.95	11874.2
985.2806	2586.2072	12712.35	11826.1
985.4063	2587.5019	12701.35	11816.2
985.5319	2588.7959	12671.8	11783.55
985.6576	2590.0893	12635.45	11748.45
985.7832	2591.3819	12620.5	11734.5
985.9087	2592.6739	12559.55	11673.55
986.0343	2593.9652	12515.3	11628.7
986.1597	2595.2557	12464.55	11576.85
986.2852	2596.5456	12391.05	11503
986.4106	2597.8348	12365.85	11477.8
986.536	2599.1234	12299.7	11411.45
986.6614	2600.4112	12267.65	11380.7
986.7867	2601.6983	12214.6	11323.85
986.912	2602.9848	12186.65	11300.7
987.0372	2604.2705	12139	11245.6
987.1624	2605.5556	12117.7	11232.4
987.2876	2606.84	12067.8	11181.25
987.4128	2608.1237	12018.35	11131.7
987.5379	2609.4067	11990.2	11103.9
987.6629	2610.689	11935.85	11037.75
987.788	2611.9707	11893.65	11002.45
987.913	2613.2516	11862	10972.25
988.0379	2614.5319	11783.45	10897.55
988.1629	2615.8115	11722.15	10835.3
988.2878	2617.0903	11698.8	10810.2
988.4126	2618.3685	11650.8	10761.9
988.5375	2619.6461	11604.2	10715.95
988.6622	2620.9229	11594.65	10707.55
988.787	2622.199	11519.75	10631.4
988.9117	2623.4745	11469.05	10583.25
989.0364	2624.7493	11444.1	10555.95
989.161	2626.0234	11424.7	10537.55
989.2857	2627.2968	11373.95	10487.15
989.4102	2628.5695	11325.55	10436.05
989.5348	2629.8415	11234.05	10347.5
989.6593	2631.1128	11221.2	10331.1
989.7837	2632.3835	11186.5	10298.95
989.9082	2633.6535	11135.95	10248.15
990.0326	2634.9228	11104.8	10219.85
990.1569	2636.1914	11051.7	10165.45
990.2812	2637.4593	11023.1	10130.45
990.4055	2638.7265	10997.6	10108.75
990.5298	2639.9931	10956.4	10068.55
990.654	2641.259	10934.4	10047.25
990.7782	2642.5242	10890.45	10002.95
990.9023	2643.7887	10847.8	9962.1
991.0264	2645.0525	10822	9933.95
991.1505	2646.3156	10775.3	9887.5
991.2745	2647.5781	10739.3	9854.05
991.3985	2648.8398	10697.3	9812.05
991.5225	2650.1009	10661.85	9739.15
991.6464	2651.3613	10628.8	9742.2
991.7703	2652.6211	10619.65	9731.25
991.8942	2653.8801	10552.7	9667.65
992.018	2655.1385	10553.75	9664.5
992.1418	2656.3961	10515.4	9628.3
992.2655	2657.6531	10511.65	9626.9
992.3892	2658.9094	10477.75	9591.6
992.5129	2660.1651	10438.15	9551.35
992.6366	2661.42	10385	9497.5
992.7602	2662.6743	10361.1	9473
992.8837	2663.9279	10348.75	9462.05
993.0073	2665.1808	10309.85	9422.6
993.1307	2666.433	10276.6	9387.3
993.2542	2667.6846	10253.35	9367.2
993.3776	2668.9354	10245.45	9356.75
993.501	2670.1856	10196.7	9309.25
993.6244	2671.4351	10154.1	9266.5
993.7477	2672.6839	10136.35	9247
993.8709	2673.9321	10082.9	9196.5
993.9942	2675.1795	10055.45	9167
994.1174	2676.4263	10005.65	9119.45
994.2405	2677.6724	9993.4	9106.55
994.3637	2678.9179	9965.5	9078.15
994.4868	2680.1626	9953.2	9065.6
994.6098	2681.4067	9917.6	9032.4
994.7328	2682.6501	9864.55	8976.6
994.8558	2683.8928	9841.95	8955.45
994.9788	2685.1348	9825.25	8941
995.1017	2686.3761	9770.5	8883.75
995.2245	2687.6168	9737.45	8851.65
995.3474	2688.8568	9705.45	8819.1
995.4702	2690.0961	9659.2	8773.55
995.5929	2691.3348	9651.5	8765.8
995.7156	2692.5727	9622.05	8734.15
995.8383	2693.81	9571.25	8685.1
995.961	2695.0466	9549.6	8664.65
996.0836	2696.2826	9554.2	8665.05
996.2062	2697.5178	9516.6	8628.25
996.3287	2698.7524	9438.75	8553.65
996.4512	2699.9863	9445.45	8555.9
996.5737	2701.2195	9392.45	8507.5
996.6961	2702.452	9386.45	8498.35
996.8185	2703.6839	9334.3	8447.7
996.9408	2704.9151	9322.3	8435.15
997.0631	2706.1456	9289.15	8402.25
997.1854	2707.3755	9246.05	8359.4
997.3077	2708.6046	9207.95	8317.45
997.4299	2709.8331	9200.05	8312.05
997.552	2711.0609	9184.05	8297.05
997.6742	2712.2881	9145.1	8257.8
997.7963	2713.5145	9106.6	8219.1
997.9183	2714.7403	9086.9	8200.4
998.0403	2715.9654	9069.25	8182.1
998.1623	2717.1899	9034.2	8145.8
998.2842	2718.4136	9029.3	8142.85
998.4062	2719.6367	8982.25	8094.8
998.528	2720.8591	8951.9	8057.75
998.6498	2722.0809	8929.45	8042.55
998.7716	2723.3019	8905.95	8016.2
998.8934	2724.5223	8893.55	8007.3
999.0151	2725.7421	8852.2	7965.15
999.1368	2726.9611	8816.5	7928.95
999.2584	2728.1795	8786.25	7896.25
999.38	2729.3972	8748.05	7863.55
999.5016	2730.6142	8736.15	7843.25
999.6231	2731.8306	8677.5	7789.05
999.7446	2733.0462	8629.45	7741.6
999.8661	2734.2612	8567.3	7677.6
999.9875	2735.4756	8515.8	7628.5
1000.1089	2736.6892	8494.3	7607.75
1000.2302	2737.9022	8445.2	7559.8
1000.3515	2739.1145	8406.45	7521.6
1000.4728	2740.3262	8373.5	7478.6
1000.594	2741.5372	8323.85	7438.35
1000.7152	2742.7475	8297.95	7408.7
1000.8363	2743.9571	8267.25	7378.95
1000.9575	2745.1661	8243.05	7352.5
1001.0785	2746.3744	8192.15	7303.95
1001.1996	2747.582	8168	7281.15
1001.3206	2748.7889	8133.7	7244.3
1001.4415	2749.9952	8109.2	7221.9
1001.5625	2751.2008	8079	7191.9
1001.6833	2752.4057	8054.8	7167.2
1001.8042	2753.61	8021.2	7133.25
1001.925	2754.8136	8006.65	7117.85
1002.0458	2756.0165	7960.8	7073.65
1002.1665	2757.2188	7946.7	7060.25
1002.2872	2758.4204	7926.2	7040.85
1002.4078	2759.6213	7879.5	6992.4
1002.5285	2760.8215	7859.75	6969.3
1002.649	2762.0211	7828.45	6940.05
1002.7696	2763.22	7793.8	6903
1002.8901	2764.4182	7786.3	6896.45
1003.0106	2765.6158	7755.7	6869.9
1003.131	2766.8127	7730.45	6842.7
1003.2514	2768.009	7689.05	6804.05
1003.3717	2769.2045	7676.75	6790.5
1003.492	2770.3994	7649.6	6761.1
1003.6123	2771.5936	7646.8	6760.8
1003.7325	2772.7872	7580.9	6696.1
1003.8527	2773.9801	7546.9	6659.5
1003.9729	2775.1723	7542.6	6640.8
1004.093	2776.3639	7508.6	6623.15
1004.2131	2777.5548	7469.3	6582.15
1004.3331	2778.745	7456.85	6567.9
1004.4531	2779.9346	7424.55	6538.8
1004.5731	2781.1235	7399.6	6512.85
1004.693	2782.3117	7390.8	6505.4
1004.8129	2783.4992	7353.4	6466.9
1004.9328	2784.6861	7321.75	6435.8
1005.0526	2785.8723	7329.6	6443.6
1005.1723	2787.0579	7299.4	6411.9
1005.2921	2788.2428	7284.15	6397.65
1005.4118	2789.427	7240.25	6354.1
1005.5314	2790.6106	7235.65	6349.2
1005.651	2791.7935	7198.4	6311.1
1005.7706	2792.9757	7172.85	6286.6
1005.8902	2794.1573	7159.6	6272.95
1006.0097	2795.3382	7140.4	6252.8
1006.1291	2796.5184	7111.7	6225.9
1006.2485	2797.698	7102.8	6214.75
1006.3679	2798.8769	7098.35	6214.45
1006.4873	2800.0551	7084.15	6195.85
1006.6066	2801.2327	7038.65	6150.1
1006.7258	2802.4096	7018.55	6133.85
1006.8451	2803.5859	7024.4	6137.65
1006.9642	2804.7615	7004.7	6115.85
1007.0834	2805.9364	7009.65	6122.3
1007.2025	2807.1106	6999.15	6114
1007.3216	2808.2842	7010.6	6123.85
1007.4406	2809.4572	6999.7	6114.2
1007.5596	2810.6294	7001.8	6112.55
1007.6785	2811.801	7001.4	6116.7
1007.7975	2812.972	7018.95	6133.8
1007.9163	2814.1423	7053.1	6167.05
1008.0352	2815.3119	7063.95	6178
1008.154	2816.4808	7069.75	6182.05
1008.2727	2817.6491	7090.45	6203.35
1008.3914	2818.8167	7127.75	6244.2
1008.5101	2819.9837	7136.9	6244.75
1008.6288	2821.15	7144.3	6257.9
1008.7474	2822.3157	7191.2	6305.15
1008.8659	2823.4807	7216.8	6332.15
1008.9844	2824.645	7249.6	6363.55
1009.1029	2825.8086	7277.4	6393.25
1009.2214	2826.9716	7288.05	6402.35
1009.3398	2828.134	7335.6	6448.35
1009.4581	2829.2957	7334.65	6449.55
1009.5764	2830.4567	7368.6	6482.55
1009.6947	2831.617	7362.55	6476.05
1009.813	2832.7767	7364.2	6477.45
1009.9312	2833.9358	7367.15	6483.25
1010.0493	2835.0941	7316.05	6427.55
1010.1675	2836.2519	7302.95	6417.2
1010.2855	2837.4089	7271.6	6384.2
1010.4036	2838.5653	7240.8	6354.65
1010.5216	2839.7211	7225.05	6341.25
1010.6396	2840.8761	7197.85	6310.6
1010.7575	2842.0306	7213.25	6328.65
1010.8754	2843.1843	7234.55	6349.45
1010.9932	2844.3374	7233.9	6347.55
1011.111	2845.4899	7265.65	6378.75
1011.2288	2846.6417	7297.75	6410.45
1011.3465	2847.7928	7332.25	6448.5
1011.4642	2848.9433	7344.75	6457.75
1011.5818	2850.0931	7401.5	6514.35
1011.6995	2851.2422	7428.5	6541.05
1011.817	2852.3907	7471.15	6582.9
1011.9345	2853.5385	7495.75	6608.65
1012.052	2854.6857	7549.3	6653.3
1012.1695	2855.8323	7551.85	6668.9
1012.2869	2856.9781	7558.35	6674.1
1012.4042	2858.1233	7600.15	6714
1012.5216	2859.2679	7613.05	6725.55
1012.6389	2860.4118	7639.5	6751.2
1012.7561	2861.555	7661.75	6769.95
1012.8733	2862.6976	7679.85	6789.85
1012.9905	2863.8395	7658.35	6771.3
1013.1076	2864.9808	7675.5	6790.35
1013.2247	2866.1214	7680.5	6796.15
1013.3417	2867.2614	7665.85	6781.3
1013.4587	2868.4007	7663	6775.75
1013.5757	2869.5393	7662.55	6776.2
1013.6926	2870.6773	7650.55	6761.4
1013.8095	2871.8146	7640.4	6752.1
1013.9263	2872.9513	7617	6728.6
1014.0431	2874.0874	7562.25	6677.1
1014.1599	2875.2227	7551.15	6665.25
1014.2766	2876.3574	7536.3	6649.9
1014.3933	2877.4915	7492.55	6607.35
1014.51	2878.6249	7428.35	6541.65
1014.6266	2879.7577	7395.3	6506.6
1014.7431	2880.8898	7369.8	6472.9
1014.8596	2882.0212	7325.35	6440.1
1014.9761	2883.152	7292.35	6406.1
1015.0925	2884.2821	7273.9	6389.55
1015.2089	2885.4116	7222.15	6335.95
1015.3253	2886.5405	7204.4	6318.7
1015.4416	2887.6686	7192.4	6303.3
1015.5579	2888.7962	7178.25	6294.35
1015.6741	2889.923	7179.55	6294.15
1015.7903	2891.0493	7165.85	6280
1015.9065	2892.1748	7137.5	6251.05
1016.0226	2893.2997	7130.65	6245.1
1016.1387	2894.424	7124	6238.7
1016.2547	2895.5476	7099.75	6212.95
1016.3707	2896.6706	7118	6231.5
1016.4866	2897.7929	7116.45	6231.15
1016.6025	2898.9145	7124.65	6238.2
1016.7184	2900.0355	7116.7	6229.9
1016.8342	2901.1559	7140.75	6254.85
1016.95	2902.2756	7135.4	6249.45
1017.0658	2903.3946	7142.25	6257.1
1017.1815	2904.513	7126.2	6237.25
1017.2971	2905.6308	7132.95	6248.25
1017.4127	2906.7479	7174.85	6290.55
1017.5283	2907.8643	7160.9	6275.05
1017.6439	2908.9801	7137.25	6251.35
1017.7594	2910.0953	7126.1	6240.9
1017.8748	2911.2098	7113	6223.95
1017.9902	2912.3236	7088.35	6194.4
1018.1056	2913.4368	7058.4	6168.6
1018.2209	2914.5494	7012.3	6125.8
1018.3362	2915.6613	6970.9	6077.9
1018.4515	2916.7725	6954.3	6065.65
1018.5667	2917.8831	6902.85	6015.6
1018.6819	2918.9931	6859.5	5972.35
1018.797	2920.1024	6841.25	5952.65
1018.9121	2921.211	6806	5923.35
1019.0271	2922.319	6759	5871.15
1019.1421	2923.4264	6719.25	5834.5
1019.2571	2924.5331	6715	5829.9
1019.372	2925.6391	6680.7	5795.3
1019.4869	2926.7445	6661.95	5778.65
1019.6017	2927.8493	6638.1	5751.45
1019.7165	2928.9534	6643.75	5758.55
1019.8313	2930.0569	6633.8	5744.9
1019.946	2931.1597	6617.5	5732.25
1020.0606	2932.2619	6596.7	5711.65
1020.1753	2933.3634	6588.6	5704.3
1020.2899	2934.4643	6584.5	5691.1
1020.4044	2935.5645	6576.9	5685.8
1020.5189	2936.6641	6522.25	5632.15
1020.6334	2937.763	6490.2	5605.05
1020.7478	2938.8613	6421.35	5534.35
1020.8622	2939.959	6385.65	5496
1020.9765	2941.056	6316.7	5432.45
1021.0908	2942.1523	6249.9	5362.45
1021.2051	2943.248	6159.8	5275.85
1021.3193	2944.3431	6083.45	5201.1
1021.4334	2945.4375	5962	5075.9
1021.5476	2946.5313	5864.25	4980.6
1021.6617	2947.6244	5755.3	4868.95
1021.7757	2948.7169	5653.75	4765.85
1021.8897	2949.8087	5576.25	4690.55
1022.0037	2950.8999	5479.8	4593.4
1022.1176	2951.9904	5398.7	4512.65
1022.2315	2953.0803	5321.1	4434.15
1022.3453	2954.1696	5258.45	4372.4
1022.4591	2955.2582	5213.8	4328.65
1022.5728	2956.3462	5131.6	4244.05
1022.6865	2957.4335	5104.55	4219
1022.8002	2958.5202	5031.2	4141.95
1022.9138	2959.6062	5017.85	4132
1023.0274	2960.6916	4967.25	4081.15
1023.141	2961.7764	4940.45	4053.35
1023.2545	2962.8605	4895.7	4009.5
1023.3679	2963.9439	4882.2	3996.5
1023.4813	2965.0267	4855	3969.15
1023.5947	2966.1089	4848.4	3939.6
1023.708	2967.1905	4830.15	3944.1
1023.8213	2968.2714	4808.35	3923
1023.9346	2969.3516	4786.3	3899.3
1024.0478	2970.4312	4771.05	3878.35
1024.1609	2971.5102	4757.7	3872.85
1024.274	2972.5885	4744.4	3860.85
1024.3871	2973.6662	4753.45	3864.6
1024.5002	2974.7432	4722.7	3837.8
1024.6132	2975.8196	4699.65	3813
1024.7261	2976.8954	4676.95	3792.65
1024.839	2977.9705	4655.65	3770.45
1024.9519	2979.045	4639.7	3754.85
1025.0647	2980.1188	4623.05	3736.55
1025.1775	2981.192	4592.75	3709.35
1025.2902	2982.2645	4574.05	3689.25
1025.4029	2983.3364	4520.55	3633.4
1025.5156	2984.4077	4472.25	3585.95
1025.6282	2985.4783	4460.25	3567.2
1025.7407	2986.5483	4419.05	3536.9
1025.8532	2987.6177	4386.35	3501.45
1025.9657	2988.6864	4337.1	3451.9
1026.0782	2989.7545	4298.7	3410.9
1026.1906	2990.8219	4260	3376.85
1026.3029	2991.8887	4226.05	3337.8
1026.4152	2992.9548	4194.05	3307.55
1026.5275	2994.0204	4167.95	3283.8
1026.6397	2995.0852	4120.85	3236.7
1026.7519	2996.1495	4090	3202.6
1026.864	2997.2131	4067.8	3184.05
1026.9761	2998.276	4027.9	3143.15
1027.0882	2999.3383	4001.55	3116.9
1027.2002	3000.4	3977.55	3092.05
1027.3122	3001.4611	3940.2	3054.8
1027.4241	3002.5215	3915.3	3030.5
1027.536	3003.5812	3897.85	3011.55
1027.6478	3004.6404	3883.75	2999
1027.7596	3005.6989	3858.5	2972
1027.8714	3006.7567	3829.75	2943.5
1027.9831	3007.8139	3836.55	2918.25
1028.0947	3008.8705	3791	2904.15
1028.2064	3009.9264	3785.05	2894.1
1028.3179	3010.9818	3769.6	2883.4
1028.4295	3012.0364	3746.1	2862.05
1028.541	3013.0905	3730.5	2844.35
1028.6524	3014.1439	3721.7	2836.8
1028.7638	3015.1966	3706.15	2820.45
1028.8752	3016.2487	3678.85	2794.75
1028.9865	3017.3002	3675.15	2786.25
1029.0978	3018.3511	3661.35	2775.95
1029.209	3019.4013	3662	2776.25
1029.3202	3020.4509	3641.1	2757.75
1029.4314	3021.4998	3630	2743.5
1029.5425	3022.5481	3626.05	2741.6
1029.6535	3023.5958	3596.55	2713.4
1029.7645	3024.6428	3607.5	2719.95
1029.8755	3025.6892	3595	2710.55
1029.9864	3026.735	3571.35	2686.05
1030.0973	3027.7802	3571.35	2686.1
1030.2082	3028.8247	3556.7	2670.9
1030.319	3029.8685	3527.95	2643.45
1030.4297	3030.9118	3541.95	2656.2
1030.5404	3031.9544	3523.35	2638.5
1030.6511	3032.9963	3510.65	2626.2
1030.7617	3034.0376	3514.1	2628.45
1030.8723	3035.0783	3506.35	2618.05
1030.9829	3036.1184	3485.65	2599.55
1031.0934	3037.1578	3493.65	2609.6
1031.2038	3038.1966	3471.4	2585.45
1031.3142	3039.2348	3471	2588
1031.4246	3040.2723	3463.35	2568.45
1031.5349	3041.3092	3446.15	2559.85
1031.6452	3042.3455	3431.15	2546.65
1031.7554	3043.3811	3408.65	2524.4
1031.8656	3044.4161	3406.5	2522.2
1031.9758	3045.4505	3393.35	2511.05
1032.0859	3046.4842	3412.85	2526.5
1032.1959	3047.5173	3383.7	2501
1032.3059	3048.5498	3370.2	2485
1032.4159	3049.5816	3360.75	2475.65
1032.5258	3050.6128	3337.95	2453.65
1032.6357	3051.6434	3328.9	2442.85
1032.7455	3052.6734	3316.7	2430.7
1032.8553	3053.7027	3308.35	2421.15
1032.9651	3054.7314	3295.95	2411.2
1033.0748	3055.7594	3284.1	2400.25
1033.1845	3056.7868	3269.45	2384.6
1033.2941	3057.8136	3264.3	2380.2
1033.4037	3058.8398	3247.3	2360.75
1033.5132	3059.8653	3234.25	2349
1033.6227	3060.8902	3218.1	2332.6
1033.7321	3061.9145	3203.1	2318.75
1033.8415	3062.9381	3192.7	2307.1
1033.9509	3063.9612	3198.45	2297.25
1034.0602	3064.9835	3175.3	2289
1034.1694	3066.0053	3155.9	2271.4
1034.2787	3067.0264	3145.55	2261.5
1034.3878	3068.0469	3140.75	2253.7
1034.497	3069.0668	3136.75	2248.95
1034.6061	3070.086	3117.8	2234.35
1034.7151	3071.1046	3098.2	2213.45
1034.8241	3072.1226	3085.15	2198.8
1034.9331	3073.1399	3085.7	2201.1
1035.042	3074.1567	3060.1	2175
1035.1508	3075.1727	3053.6	2165.05
1035.2597	3076.1882	3021.75	2136.85
1035.3684	3077.203	3006.15	2122.4
1035.4772	3078.2173	3009.65	2123.2
1035.5859	3079.2308	2993.35	2103.25
1035.6945	3080.2438	2983.4	2095.1
1035.8031	3081.2561	2984.6	2099.4
1035.9117	3082.2678	2957.5	2072.65
1036.0202	3083.2789	2956.75	2070.55
1036.1286	3084.2893	2937.15	2053.3
1036.2371	3085.2991	2922	2037.45
1036.3454	3086.3083	2898.1	2008.05
1036.4538	3087.3169	2892.75	2004.5
1036.562	3088.3248	2883.4	1994.95
1036.6703	3089.3321	2866.65	1981.9
1036.7785	3090.3388	2863.75	1978.85
1036.8866	3091.3449	2850.05	1965.1
1036.9948	3092.3503	2834.55	1948.55
1037.1028	3093.3551	2832.6	1949.35
1037.2108	3094.3593	2811.3	1927.75
1037.3188	3095.3629	2808.9	1924.25
1037.4267	3096.3658	2805.95	1919.1
1037.5346	3097.3681	2779.05	1895.8
1037.6425	3098.3698	2786.7	1899.75
1037.7503	3099.3708	2787.2	1895.7
1037.858	3100.3713	2749.85	1864.9
1037.9657	3101.3711	2733.5	1847.65
1038.0734	3102.3702	2853.15	1828.95
1038.181	3103.3688	2725.9	1837.95
1038.2886	3104.3667	2716.3	1832.95
1038.3961	3105.364	2699.3	1813.45
1038.5036	3106.3607	2673.9	1785.8
1038.611	3107.3568	2671.5	1785.4
1038.7184	3108.3522	2656.25	1769.8
1038.8257	3109.347	2654.2	1768.9
1038.933	3110.3412	2650.95	1761.9
1039.0403	3111.3348	2620.2	1735.25
1039.1475	3112.3277	2613	1728.25
1039.2547	3113.32	2600	1715.1
1039.3618	3114.3117	2604.35	1720.55
1039.4689	3115.3028	2583.55	1698.7
1039.5759	3116.2932	2585.4	1697.85
1039.6829	3117.2831	2573.8	1681.5
1039.7898	3118.2723	2549.3	1664.15
1039.8967	3119.2608	2555.4	1671.8
1040.0035	3120.2488	2544.1	1659.3
1040.1103	3121.2361	2532.6	1647.15
1040.2171	3122.2229	2517.85	1633.15
1040.3238	3123.209	2525.1	1639.45
1040.4305	3124.1944	2512.3	1627.95
1040.5371	3125.1793	2502.1	1615.7
1040.6437	3126.1635	2489.65	1607.05
1040.7502	3127.1471	2475.7	1588.95
1040.8567	3128.1301	2469.8	1585
1040.9631	3129.1125	2455.7	1571.5
1041.0695	3130.0942	2452.1	1567.5
1041.1759	3131.0753	2449	1553.4
1041.2822	3132.0558	2445.7	1557.2
1041.3884	3133.0357	2425.05	1539.2
1041.4946	3134.015	2417.8	1532.25
1041.6008	3134.9936	2425.85	1539.75
1041.7069	3135.9716	2432.65	1527.7
1041.813	3136.949	2408.95	1523.6
1041.919	3137.9258	2408.9	1517.3
1042.025	3138.902	2388.6	1497.8
1042.1309	3139.8775	2401.2	1516.55
1042.2368	3140.8524	2389.05	1504.3
1042.3427	3141.8267	2382	1493.65
1042.4485	3142.8004	2366.5	1481.45
1042.5542	3143.7735	2364.15	1472.75
1042.6599	3144.7459	2358.25	1470.9
1042.7656	3145.7178	2357.7	1473.65
1042.8712	3146.689	2326.2	1442.2
1042.9768	3147.6596	2334.65	1448.35
1043.0823	3148.6295	2311	1426.1
1043.1878	3149.5989	2320.55	1436.35
1043.2932	3150.5676	2300.65	1417.45
1043.3986	3151.5357	2309.15	1425.1
1043.5039	3152.5032	2285.9	1401.55
1043.6092	3153.4701	2281.9	1398.15
1043.7145	3154.4364	2278.25	1392.35
1043.8197	3155.402	2264.9	1380.95
1043.9248	3156.367	2271.9	1385.5
1044.03	3157.3315	2285.6	1365.6
1044.135	3158.2952	2259.8	1374.7
1044.24	3159.2584	2234.25	1348.45
1044.345	3160.221	2225.85	1340.15
1044.4499	3161.1829	2210.35	1323.4
1044.5548	3162.1442	2219.85	1336.15
1044.6596	3163.105	2201.2	1315.5
1044.7644	3164.065	2199.9	1315.95
1044.8692	3165.0245	2193.25	1304.6
1044.9739	3165.9834	2188.1	1304.9
1045.0785	3166.9416	2179.45	1293.9
1045.1831	3167.8993	2166.55	1282.15
1045.2877	3168.8563	2161.7	1274.9
1045.3922	3169.8127	2152.75	1267.9
1045.4966	3170.7684	2147.8	1263.7
1045.6011	3171.7236	2145.2	1259
1045.7054	3172.6782	2143.55	1258.7
1045.8098	3173.6321	2133.15	1247.1
1045.914	3174.5854	2135.7	1244.65
1046.0183	3175.5381	2120	1234.95
1046.1224	3176.4902	2113.7	1228.95
1046.2266	3177.4417	2098.5	1213.15
1046.3307	3178.3926	2092.85	1210.75
1046.4347	3179.3428	2094.1	1209.15
1046.5387	3180.2924	2080.1	1193.7
1046.6427	3181.2415	2073.55	1188.85
1046.7466	3182.1899	2067.45	1180.3
1046.8504	3183.1377	2053.5	1167.95
1046.9542	3184.0848	2062.55	1173.15
1047.058	3185.0314	2046.75	1160.4
1047.1617	3185.9773	2036.5	1152.6
1047.2654	3186.9227	2037.1	1151.7
1047.369	3187.8674	2028.4	1143.6
1047.4726	3188.8115	2024.9	1135
1047.5761	3189.755	2018.7	1133.8
1047.6796	3190.6979	2012.9	1127.5
1047.783	3191.6402	2001.55	1117.6
1047.8864	3192.5818	1997.15	1111.95
1047.9898	3193.5229	2015.05	1113.9
1048.0931	3194.4633	1995.2	1109.4
1048.1963	3195.4031	1981.3	1095.1
1048.2995	3196.3423	1983.05	1100.4
1048.4027	3197.2809	1979.85	1094.2
1048.5058	3198.2189	1971.05	1084.15
1048.6089	3199.1563	1969.85	1070.6
1048.7119	3200.0931	1958.65	1073.85
1048.8148	3201.0292	1948	1064.5
1048.9178	3201.9648	1941.55	1058.2
1049.0206	3202.8997	1949.85	1062.15
1049.1235	3203.834	1939.65	1053.1
1049.2262	3204.7677	1929.45	1042.55
1049.329	3205.7008	1927.25	1039.55
1049.4317	3206.6333	1912.65	1028.85
1049.5343	3207.5652	1916.55	1029.25
1049.6369	3208.4964	1902.95	1018.6
1049.7394	3209.4271	1901	1015.8
1049.8419	3210.3571	1893.3	1009.05
1049.9444	3211.2865	1891.55	1007.1
1050.0468	3212.2154	1890.65	1004.4
1050.1491	3213.1436	1883.85	995.8
1050.2514	3214.0712	1879	985.15
1050.3537	3214.9982	1877.75	991.35
1050.4559	3215.9246	1875	990.45
1050.5581	3216.8503	1849.8	965.9
1050.6602	3217.7755	1856.85	971
1050.7623	3218.7001	1849.25	963.95
1050.8643	3219.624	1855	969.7
1050.9663	3220.5473	1847.95	961.15
1051.0682	3221.4701	1839.6	952.15
1051.1701	3222.3922	1840.4	953.45
1051.2719	3223.3137	1830.5	944.3
1051.3737	3224.2346	1825.35	941.6
1051.4754	3225.1549	1810	925.65
1051.5771	3226.0746	1796.9	913.95
1051.6788	3226.9937	1803.25	917.95
1051.7804	3227.9121	1803.05	918.8
1051.8819	3228.83	1797.2	913.95
1051.9834	3229.7473	1786.7	902.6
1052.0849	3230.6639	1794	909.1
1052.1863	3231.5799	1777.55	891.8
1052.2876	3232.4954	1775.85	891.2
1052.3889	3233.4102	1768.8	882.55
1052.4902	3234.3244	1768.7	882.75
1052.5914	3235.238	1759.9	874.8
1052.6926	3236.151	1777.85	870.55
1052.7937	3237.0634	1746.6	861.95
1052.8948	3237.9752	1750.95	867.15
1052.9958	3238.8864	1743.15	858.25
1053.0968	3239.797	1740.4	856.95
1053.1977	3240.7069	1737.45	851
1053.2986	3241.6163	1733.8	846.85
1053.3994	3242.5251	1714.6	830.4
1053.5002	3243.4332	1709.65	824.35
1053.6009	3244.3408	1714.3	828.15
1053.7016	3245.2477	1705.25	820.15
1053.8022	3246.154	1703.55	816.45
1053.9028	3247.0598	1695.5	809.75
1054.0034	3247.9649	1687.55	802.85
1054.1039	3248.8694	1677.35	791.85
1054.2043	3249.7733	1682.25	796.9
1054.3047	3250.6766	1675.6	790.6
1054.4051	3251.5793	1669.1	782
1054.5054	3252.4814	1659.6	775.95
1054.6056	3253.3829	1653.7	766.75
1054.7058	3254.2838	1652.5	768.25
1054.806	3255.1841	1649.9	767.2
1054.9061	3256.0838	1638.5	752.3
1055.0061	3256.9829	1635.5	752.1
1055.1062	3257.8814	1630.9	742.25
1055.2061	3258.7792	1619.7	732.5
1055.306	3259.6765	1627.05	738.8
1055.4059	3260.5731	1608.5	723.95
1055.5057	3261.4692	1603.3	717.35
1055.6055	3262.3647	1592.75	707.15
1055.7052	3263.2595	1579.05	694.3
1055.8049	3264.1538	1580.8	695.95
1055.9045	3265.0474	1565.9	681.3
1056.0041	3265.9404	1556.4	672.55
1056.1036	3266.8329	1539.4	653.9
1056.2031	3267.7247	1537.35	640.45
1056.3025	3268.616	1512.8	630.05
1056.4019	3269.5066	1497.4	612.75
1056.5013	3270.3966	1479.85	594.4
1056.6005	3271.286	1454.1	571.25
