Software Version:	3.9.2.0
Unit SN:	10000200
Spectrometer SN:	6960
Date:	3/6/2024 10:41:26 AM
Data Line Index:	25
Spectral Points:	2048
Integration time (ms):	125
Averages:	20
Delay (ms):	30
Sequence Number:	1
Processing:	dark subtract
Laser Power (mW):	305
Laser Current (mA):	823
Laser Diode Temp (C):	25.1
Laser Case Temp (C):	27
System Temp (C):	26.8
Spectrometer Temp (C):	24.2
CCD Temp (C):	0.019
Secondary Temp (C):	20.013
Heatsink Temp (C):	22.486
CCDPCB Temp (C):	35.618
SecondaryPCB Temp (C):	33.506

Wavelength	RamanShift	Raw Counts	Dark Subtracted
787.061	30.1047	1120.15	709
787.2016	32.3739	1154.95	743.2
787.3422	34.6426	1203.3	790.25
787.4828	36.9109	1250.05	836.2
787.6235	39.1787	1312.25	895
787.7642	41.4461	1372.4	951.65
787.9049	43.7131	1441.3	1016.65
788.0456	45.9796	1505.7	1076.5
788.1863	48.2456	1564.45	1130.35
788.3271	50.5112	1637.45	1200.45
788.4679	52.7764	1708.85	1269.6
788.6087	55.0411	1785.8	1342.35
788.7496	57.3054	1867.85	1417.5
788.8904	59.5692	1958.1	1506.2
789.0313	61.8326	2055.65	1601.45
789.1722	64.0955	2169.35	1710.15
789.3132	66.3579	2294.65	1831.2
789.4541	68.6199	2450.95	1984
789.5951	70.8815	2702.75	2232.65
789.7361	73.1426	3231.45	2758.9
789.8771	75.4032	4537.05	4057.55
790.0181	77.6634	7908.1	7424.7
790.1592	79.9231	16775.1	16284.95
790.3003	82.1824	54900.2	54400.05
790.4414	84.4412	65535	65015
790.5825	86.6995	65535	64988.6
790.7237	88.9574	65535	64963.15
790.8648	91.2148	65535	64943.3
791.006	93.4717	65535	64930.05
791.1472	95.7282	65535	64928.3
791.2885	97.9842	65535	64921.6
791.4297	100.2398	65535	64919.2
791.571	102.4949	65535	64914.6
791.7123	104.7495	65535	64909.7
791.8536	107.0036	65535	64917.55
791.9949	109.2573	65535	64914.55
792.1363	111.5105	65535	64908.75
792.2777	113.7632	65535	64908.8
792.4191	116.0154	65535	64898.1
792.5605	118.2672	65535	64906.7
792.7019	120.5185	65535	64900.55
792.8434	122.7693	65535	64902.95
792.9849	125.0197	65535	64897.5
793.1264	127.2696	65535	64893.05
793.2679	129.519	65535	64891.45
793.4094	131.7679	65535	64886.75
793.551	134.0163	65535	64885.65
793.6926	136.2642	65535	64878.85
793.8342	138.5117	65535	64872.45
793.9758	140.7587	65535	64876.5
794.1175	143.0052	65535	64874.25
794.2591	145.2512	65535	64875.7
794.4008	147.4967	65535	64874.45
794.5425	149.7417	65535	64871.65
794.6842	151.9863	65535	64866.7
794.826	154.2304	65535	64863.95
794.9677	156.4739	65535	64855
795.1095	158.717	65535	64859.9
795.2513	160.9596	65535	64856.3
795.3931	163.2017	65535	64852.05
795.535	165.4433	65535	64848
795.6768	167.6844	65535	64849.15
795.8187	169.925	65535	64846.75
795.9606	172.1651	65535	64843.5
796.1025	174.4047	65535	64837.8
796.2445	176.6439	65535	64838.4
796.3864	178.8825	65535	64832.85
796.5284	181.1206	65535	64830.25
796.6704	183.3582	65535	64826.3
796.8124	185.5954	65535	64829.85
796.9544	187.832	65535	64820.5
797.0965	190.0681	65535	64821.85
797.2386	192.3037	65535	64818.6
797.3806	194.5388	65535	64816.75
797.5228	196.7734	65535	64811.45
797.6649	199.0075	65535	64807.2
797.807	201.2411	65535	64807.2
797.9492	203.4742	65535	64808.1
798.0914	205.7068	65535	64802.8
798.2336	207.9389	65535	64800.25
798.3758	210.1704	65535	64801.6
798.518	212.4015	65535	64800.4
798.6603	214.632	65535	64810.65
798.8025	216.862	65535	64818.4
798.9448	219.0915	65535	64821.8
799.0871	221.3205	65535	64821
799.2294	223.549	65535	64822.15
799.3718	225.777	65535	64823.2
799.5141	228.0044	65535	64817.4
799.6565	230.2314	65535	64818.65
799.7989	232.4578	65535	64816.1
799.9413	234.6837	65535	64805.9
800.0837	236.909	65535	64808.7
800.2262	239.1339	65535	64781.05
800.3687	241.3582	65535	64791.85
800.5111	243.582	65535	64762
800.6536	245.8053	65535	64775.45
800.7961	248.0281	65535	64779.85
800.9387	250.2503	65535	64778.3
801.0812	252.472	65535	64775.3
801.2238	254.6932	65535	64774.8
801.3664	256.9139	65535	64774.1
801.509	259.134	65535	64768.2
801.6516	261.3536	65535	64767.6
801.7942	263.5727	65535	64769.6
801.9369	265.7912	65535	64773.45
802.0795	268.0092	65535	64767.9
802.2222	270.2267	65535	64765.85
802.3649	272.4436	65535	64770.1
802.5076	274.6601	65535	64758.8
802.6504	276.8759	65535	64759.85
802.7931	279.0913	65535	64759.05
802.9359	281.3061	65535	64760.3
803.0787	283.5204	65535	64757.5
803.2215	285.7341	65535	64753.2
803.3643	287.9473	65535	64742.25
803.5071	290.16	65535	64745
803.6499	292.3721	65535	64755.55
803.7928	294.5837	65535	64752.2
803.9357	296.7947	65535	64755.5
804.0786	299.0052	65535	64752
804.2215	301.2152	65535	64749.45
804.3644	303.4246	65535	64754.9
804.5074	305.6334	65535	64753.25
804.6503	307.8418	65535	64749.05
804.7933	310.0495	65535	64750.35
804.9363	312.2568	65535	64749.45
805.0793	314.4635	65535	64748.25
805.2223	316.6696	65535	64742.65
805.3653	318.8752	65535	64737.65
805.5084	321.0802	65535	64744.3
805.6514	323.2847	65535	64742.5
805.7945	325.4887	65535	64743.35
805.9376	327.692	65535	64742.4
806.0807	329.8949	65535	64742.2
806.2238	332.0972	65535	64741.1
806.367	334.2989	65535	64732.25
806.5101	336.5001	65535	64733.25
806.6533	338.7007	65535	64734.95
806.7965	340.9008	65535	64729.45
806.9397	343.1003	65535	64732.45
807.0829	345.2992	65535	64731.6
807.2261	347.4976	65535	64726.35
807.3693	349.6955	65535	64726.15
807.5126	351.8927	65535	64723
807.6559	354.0895	65535	64713.45
807.7991	356.2856	65535	64723.25
807.9424	358.4812	65535	64722.4
808.0857	360.6763	65535	64720.25
808.2291	362.8707	65535	64715.85
808.3724	365.0646	65535	64714.2
808.5158	367.258	65535	64714.65
808.6591	369.4508	65535	64710.7
808.8025	371.643	65535	64713.75
808.9459	373.8346	65535	64709.3
809.0893	376.0257	65535	64705.95
809.2327	378.2162	65535	64710
809.3762	380.4062	65535	64705.45
809.5196	382.5956	65535	64705.55
809.6631	384.7844	65535	64705.95
809.8066	386.9726	65535	64706.65
809.9501	389.1603	65535	64712.5
810.0936	391.3474	65535	64668.8
810.2371	393.5339	65535	64710.5
810.3806	395.7199	65535	64711.75
810.5241	397.9052	65535	64714.3
810.6677	400.09	65535	64713.2
810.8113	402.2743	65535	64713
810.9548	404.4579	65535	64712.95
811.0984	406.641	65535	64711.8
811.2421	408.8235	65535	64716.35
811.3857	411.0054	65535	64708.6
811.5293	413.1868	65535	64705.25
811.673	415.3675	65535	64704.35
811.8166	417.5477	65535	64702.4
811.9603	419.7273	65535	64698.75
812.104	421.9064	65535	64690.25
812.2477	424.0848	65535	64694.95
812.3914	426.2627	65535	64694.85
812.5351	428.4399	65535	64692.35
812.6788	430.6166	65535	64691.4
812.8226	432.7928	65535	64689.4
812.9663	434.9683	65535	64693.35
813.1101	437.1432	65535	64689.45
813.2539	439.3176	65535	64690
813.3977	441.4914	65535	64692.5
813.5415	443.6645	65535	64690.2
813.6853	445.8371	65535	64688.9
813.8291	448.0091	65535	64689.6
813.973	450.1806	65535	64687.95
814.1168	452.3514	65535	64688
814.2607	454.5216	65535	64679
814.4046	456.6913	65535	64683.65
814.5485	458.8603	65535	64689.7
814.6924	461.0288	65535	64687.95
814.8363	463.1967	65535	64689.05
814.9802	465.3639	65535	64689.4
815.1241	467.5306	65535	64686.3
815.2681	469.6967	65535	64684.85
815.412	471.8622	65535	64685.45
815.556	474.0271	65535	64684.8
815.7	476.1914	65535	64681.5
815.844	478.3551	65535	64682.3
815.988	480.5182	65535	64682.45
816.132	482.6807	65535	64684.2
816.276	484.8426	65535	64686.15
816.4201	487.0039	65535	64680.75
816.5641	489.1647	65535	64683.1
816.7082	491.3248	65535	64683.45
816.8522	493.4843	65535	64681.9
816.9963	495.6432	65535	64680.35
817.1404	497.8015	65535	64678.35
817.2845	499.9592	65535	64678.95
817.4286	502.1163	65535	64677.05
817.5727	504.2728	65535	64675.35
817.7168	506.4287	65535	64678.5
817.861	508.5839	65535	64680.6
818.0051	510.7386	65535	64677.65
818.1493	512.8927	65535	64676
818.2935	515.0461	65535	64675.05
818.4377	517.199	65535	64674.3
818.5818	519.3512	65535	64674
818.726	521.5029	65535	64669.35
818.8703	523.6539	65535	64672.3
819.0145	525.8043	65535	64674.25
819.1587	527.9541	65535	64670.35
819.303	530.1033	65535	64673.9
819.4472	532.2519	65535	64669.7
819.5915	534.3999	65535	64667.9
819.7357	536.5472	65535	64669.1
819.88	538.694	65535	64668.8
820.0243	540.8401	65535	64669.35
820.1686	542.9856	65535	64666.45
820.3129	545.1305	65535	64663.4
820.4572	547.2748	65535	64667.35
820.6016	549.4185	65535	64665.55
820.7459	551.5615	65535	64666.5
820.8902	553.704	65535	64663.45
821.0346	555.8458	65535	64663.1
821.1789	557.987	65535	64663.6
821.3233	560.1276	65535	64666.8
821.4677	562.2675	65535	64664.3
821.6121	564.4069	65535	64667.3
821.7565	566.5456	65535	64668.55
821.9009	568.6837	65535	64667.9
822.0453	570.8212	65535	64668.05
822.1897	572.958	65535	64662.55
822.3342	575.0942	65535	64666.25
822.4786	577.2299	65535	64669.15
822.6231	579.3648	65535	64664.65
822.7675	581.4992	65535	64667.4
822.912	583.6329	65535	64667.75
823.0565	585.766	65535	64664.9
823.201	587.8985	65535	64668.4
823.3454	590.0304	65535	64641.65
823.4899	592.1616	65535	64662.3
823.6345	594.2922	65535	64664.35
823.779	596.4222	65535	64660.35
823.9235	598.5515	65535	64659.1
824.068	600.6802	65535	64662.9
824.2126	602.8083	65535	64662
824.3571	604.9358	65535	64658.3
824.5017	607.0626	65535	64659.3
824.6462	609.1888	65535	64655.95
824.7908	611.3144	65535	64659
824.9354	613.4393	65535	64657.85
825.08	615.5636	65535	64657.1
825.2246	617.6873	65535	64658.9
825.3692	619.8103	65535	64653.85
825.5138	621.9327	65535	64653.55
825.6584	624.0544	65535	64656.15
825.803	626.1756	65535	64657.35
825.9477	628.2961	65535	64655.8
826.0923	630.4159	65535	64657.1
826.237	632.5351	65535	64655.35
826.3816	634.6537	65535	64652.9
826.5263	636.7716	65535	64651.25
826.6709	638.8889	65535	64654.35
826.8156	641.0056	65535	64653.55
826.9603	643.1216	65535	64654.05
827.105	645.237	65535	64651.7
827.2497	647.3518	65535	64654.15
827.3944	649.4659	65535	64652.55
827.5391	651.5793	65535	64653.95
827.6838	653.6922	65535	64655.7
827.8285	655.8043	65535	64653.4
827.9733	657.9159	65535	64652.4
828.118	660.0268	65535	64648
828.2627	662.137	65535	64653.85
828.4075	664.2466	65535	64648.95
828.5522	666.3556	65535	64652.75
828.697	668.4639	65535	64646.75
828.8418	670.5716	65535	64651.1
828.9865	672.6786	65535	64648.45
829.1313	674.785	65535	64646.45
829.2761	676.8907	65535	64650.5
829.4209	678.9958	65535	64651.1
829.5657	681.1002	65535	64648.3
829.7105	683.204	65535	64643.7
829.8553	685.3072	65535	64644.2
830.0001	687.4097	65535	64648.45
830.1449	689.5115	65535	64645.05
830.2898	691.6127	65535	64647.8
830.4346	693.7132	65535	64648.35
830.5794	695.8131	65535	64637.7
830.7243	697.9123	65535	64645.95
830.8691	700.0109	65535	64644.3
831.014	702.1089	65535	64647.15
831.1588	704.2061	65535	64647.75
831.3037	706.3028	65535	64642.25
831.4486	708.3987	65535	64644.2
831.5935	710.4941	65535	64640.1
831.7383	712.5887	65535	64642.3
831.8832	714.6827	65535	64642.2
832.0281	716.7761	65535	64646.8
832.173	718.8688	65535	64642.3
832.3179	720.9608	65535	64638.45
832.4628	723.0522	65535	64641.7
832.6077	725.1429	65535	64643.5
832.7527	727.233	65535	64641.45
832.8976	729.3224	65535	64644.05
833.0425	731.4112	65535	64638.7
833.1874	733.4993	65535	64641.8
833.3324	735.5867	65535	64642.25
833.4773	737.6735	65535	64642.55
833.6222	739.7596	65535	64639.9
833.7672	741.845	65535	64642.6
833.9122	743.9298	65535	64639.2
834.0571	746.014	65535	64643.1
834.2021	748.0974	65535	64639.5
834.347	750.1802	65535	64637.95
834.492	752.2624	65535	64638.4
834.637	754.3439	65535	64641.6
834.782	756.4247	65535	64631
834.9269	758.5048	65535	64641.9
835.0719	760.5843	65535	64642.95
835.2169	762.6631	65535	64638.95
835.3619	764.7413	65535	64643.7
835.5069	766.8188	65535	64640.35
835.6519	768.8956	65535	64636.45
835.7969	770.9718	65535	64639.85
835.9419	773.0473	65535	64638.6
836.0869	775.1221	65535	64641
836.232	777.1962	65535	64640.45
836.377	779.2697	65535	64636.95
836.522	781.3426	65535	64625.65
836.667	783.4147	65535	64639.05
836.8121	785.4862	65535	64637.45
836.9571	787.557	65535	64639.05
837.1021	789.6271	65535	64640.35
837.2472	791.6966	65535	64641
837.3922	793.7654	65535	64639.4
837.5373	795.8335	65535	64639.7
837.6823	797.901	65535	64637.7
837.8274	799.9678	65535	64636.9
837.9724	802.0339	65535	64640.25
838.1175	804.0993	65535	64628.4
838.2626	806.1641	65535	64637.7
838.4076	808.2282	65535	64638.05
838.5527	810.2916	65535	64636.8
838.6978	812.3544	65535	64642.45
838.8428	814.4164	65535	64640.75
838.9879	816.4778	65535	64634.95
839.133	818.5385	65535	64637.4
839.2781	820.5986	65535	64634
839.4232	822.658	65535	64632.8
839.5682	824.7166	65535	64641.55
839.7133	826.7747	65535	64639.35
839.8584	828.832	65535	64638.2
840.0035	830.8886	65535	64634.9
840.1486	832.9446	65535	64636.25
840.2937	834.9999	65535	64639.4
840.4388	837.0545	65535	64630.1
840.5839	839.1085	65535	64638.7
840.729	841.1618	65535	64631.7
840.8741	843.2143	65535	64638
841.0192	845.2662	65535	64637.5
841.1643	847.3175	65535	64637.35
841.3095	849.368	65535	64637.65
841.4546	851.4179	65535	64635.4
841.5997	853.467	65535	64636.8
841.7448	855.5155	65535	64635.9
841.8899	857.5633	65535	64638.55
842.0351	859.6105	65535	64637.55
842.1802	861.6569	65535	64637.45
842.3253	863.7027	65535	64634.95
842.4704	865.7478	65535	64635.2
842.6156	867.7922	65535	64634.85
842.7607	869.8359	65535	64636.4
842.9058	871.8789	65535	64635.15
843.0509	873.9212	65535	64604.1
843.1961	875.9629	65535	64633.85
843.3412	878.0039	65535	64632.5
843.4863	880.0441	65535	64634.05
843.6315	882.0837	65535	64636.5
843.7766	884.1226	65535	64632.15
843.9218	886.1609	65535	64633.7
844.0669	888.1984	65535	64633.6
844.212	890.2352	65535	64638.25
844.3572	892.2714	65535	64631.2
844.5023	894.3069	65535	64633.35
844.6475	896.3416	65535	64631.9
844.7926	898.3757	65535	64631.5
844.9377	900.4091	65535	64634.45
845.0829	902.4418	65535	64628
845.228	904.4739	65535	64632.85
845.3732	906.5052	65535	64630.35
845.5183	908.5358	65535	64635.2
845.6635	910.5658	65535	64634.95
845.8086	912.595	65535	64634.55
845.9538	914.6236	65535	64635.1
846.0989	916.6515	65535	64633.05
846.2441	918.6786	65535	64630.85
846.3892	920.7051	65535	64631.2
846.5344	922.7309	65535	64633
846.6795	924.756	65535	64633.05
846.8246	926.7804	65535	64629
846.9698	928.8041	65535	64628.85
847.1149	930.8272	65535	64632.85
847.2601	932.8495	65535	64632
847.4052	934.8711	65535	64630.75
847.5504	936.892	65535	64633.45
847.6955	938.9123	65535	64630.85
847.8407	940.9318	65535	64632.6
847.9858	942.9506	65535	64631.05
848.131	944.9688	65535	64630.1
848.2761	946.9862	65535	64632.25
848.4213	949.003	65535	64633.25
848.5664	951.019	65535	64635.7
848.7115	953.0344	65535	64631.45
848.8567	955.0491	65535	64633
849.0018	957.063	65535	64630.2
849.147	959.0763	65535	64633
849.2921	961.0888	65535	64630.95
849.4373	963.1007	65535	64632.75
849.5824	965.1119	65535	64634.45
849.7275	967.1223	65535	64637.6
849.8727	969.1321	65535	64633.45
850.0178	971.1412	65535	64635.65
850.1629	973.1495	65535	64633.65
850.3081	975.1572	65535	64583.3
850.4532	977.1641	65535	64631.2
850.5983	979.1704	65535	64632.4
850.7435	981.1759	65535	64629.15
850.8886	983.1808	65535	64630.35
851.0337	985.1849	65535	64616.95
851.1788	987.1884	65535	64629.35
851.324	989.1911	65535	64631.1
851.4691	991.1932	65535	64632.65
851.6142	993.1945	65535	64632.55
851.7593	995.1951	65535	64631.35
851.9045	997.1951	65535	64624.95
852.0496	999.1943	65535	64633.45
852.1947	1001.1928	65535	64630.8
852.3398	1003.1906	65535	64631.7
852.4849	1005.1877	65535	64632.1
852.63	1007.1841	65535	64631.75
852.7751	1009.1798	65535	64633.25
852.9202	1011.1748	65535	64629.6
853.0653	1013.1691	65535	64633
853.2104	1015.1627	65535	64630
853.3555	1017.1556	65535	64629.55
853.5006	1019.1477	65535	64630.3
853.6457	1021.1392	65535	64633.05
853.7908	1023.1299	65535	64632.25
853.9359	1025.12	65535	64632.95
854.081	1027.1093	65535	64637
854.2261	1029.0979	65535	64637.95
854.3712	1031.0859	65535	64635.5
854.5163	1033.0731	65535	64632.7
854.6613	1035.0596	65535	64634.05
854.8064	1037.0454	65535	64632.45
854.9515	1039.0304	65535	64632.95
855.0965	1041.0148	65535	64631.7
855.2416	1042.9985	65535	64632.35
855.3867	1044.9814	65535	64632.3
855.5317	1046.9636	65535	64631.25
855.6768	1048.9452	65535	64635.6
855.8219	1050.926	65535	64633.45
855.9669	1052.9061	65535	64634.85
856.112	1054.8855	65535	64631.9
856.257	1056.8642	65535	64632.35
856.4021	1058.8421	65535	64629.2
856.5471	1060.8194	65535	64628.65
856.6921	1062.7959	65535	64635.1
856.8372	1064.7717	65535	64631.95
856.9822	1066.7469	65535	64630.4
857.1272	1068.7213	65535	64628.35
857.2723	1070.695	65535	64632.3
857.4173	1072.6679	65535	64632.9
857.5623	1074.6402	65535	64631.7
857.7073	1076.6117	65535	64627.9
857.8523	1078.5826	65535	64633
857.9973	1080.5527	65535	64628.7
858.1423	1082.5221	65535	64630.2
858.2873	1084.4908	65535	64632.7
858.4323	1086.4587	65535	64632.7
858.5773	1088.426	65535	64630.2
858.7223	1090.3925	65535	64627.15
858.8673	1092.3584	65535	64631.8
859.0123	1094.3235	65535	64633.45
859.1573	1096.2879	65535	64630.8
859.3022	1098.2515	65535	64634.15
859.4472	1100.2145	65535	64631.25
859.5922	1102.1767	65535	64626.45
859.7371	1104.1382	65535	64631.7
859.8821	1106.099	65535	64630.6
860.027	1108.0591	65535	64632.2
860.172	1110.0185	65535	64630.6
860.3169	1111.9771	65535	64631.5
860.4619	1113.9351	65535	64629.65
860.6068	1115.8923	65535	64630.5
860.7517	1117.8488	65535	64629.8
860.8967	1119.8045	65535	64632.8
861.0416	1121.7596	65535	64630.75
861.1865	1123.7139	65535	64632.95
861.3314	1125.6675	65535	64631.65
861.4763	1127.6204	65535	64632.75
861.6212	1129.5726	65535	64629.75
861.7661	1131.524	65535	64632.75
861.911	1133.4748	65535	64633.2
862.0559	1135.4248	65535	64630.2
862.2008	1137.3741	65535	64631.75
862.3457	1139.3226	65535	64634.05
862.4905	1141.2705	65535	64630.7
862.6354	1143.2176	65535	64627.5
862.7803	1145.164	65535	64630.8
862.9251	1147.1097	65535	64632
863.07	1149.0546	65535	64630.45
863.2148	1150.9989	65535	64631.8
863.3597	1152.9424	65535	64633.15
863.5045	1154.8852	65535	64630.75
863.6493	1156.8272	65535	64634.05
863.7942	1158.7686	65535	64625.05
863.939	1160.7092	65535	64631
864.0838	1162.6491	65535	64629.4
864.2286	1164.5883	65535	64632.75
864.3734	1166.5267	65535	64631.05
864.5182	1168.4644	65535	64631.8
864.663	1170.4014	65535	64626.25
864.8078	1172.3377	65535	64633.9
864.9526	1174.2732	65535	64632.4
865.0974	1176.2081	65535	64631.25
865.2421	1178.1421	65535	64628.75
865.3869	1180.0755	65535	64632.65
865.5317	1182.0082	65535	64634.15
865.6764	1183.9401	65535	64632.2
865.8212	1185.8713	65535	64633.45
865.9659	1187.8017	65535	64636.3
866.1106	1189.7315	65535	64635.85
866.2554	1191.6605	65535	64606.2
866.4001	1193.5888	65535	64633.65
866.5448	1195.5163	65535	64635.75
866.6895	1197.4432	65535	64631.2
866.8342	1199.3693	65535	64632.5
866.9789	1201.2947	65535	64627.5
867.1236	1203.2193	65535	64632.4
867.2683	1205.1432	65535	64630.55
867.413	1207.0664	65535	64631.3
867.5576	1208.9889	65535	64630.65
867.7023	1210.9106	65535	64632.95
867.847	1212.8316	65535	64635.55
867.9916	1214.7519	65535	64623.55
868.1363	1216.6715	65535	64634.85
868.2809	1218.5903	65535	64633.05
868.4255	1220.5084	65535	64631.8
868.5701	1222.4257	65535	64632.15
868.7148	1224.3424	65535	64634.4
868.8594	1226.2583	65535	64630.3
869.004	1228.1735	65535	64630.9
869.1486	1230.0879	65535	64631.7
869.2932	1232.0016	65535	64632.05
869.4377	1233.9146	65535	64630.85
869.5823	1235.8269	65535	64634.5
869.7269	1237.7384	65535	64633.35
869.8715	1239.6492	65535	64632.3
870.016	1241.5592	65535	64634.05
870.1606	1243.4686	65535	64632
870.3051	1245.3772	65535	64633.05
870.4496	1247.285	65535	64632.8
870.5941	1249.1922	65535	64631.85
870.7387	1251.0986	65535	64632
870.8832	1253.0042	65535	64634.25
871.0277	1254.9092	65535	64633.65
871.1722	1256.8134	65535	64632.7
871.3167	1258.7169	65535	64632.5
871.4611	1260.6196	65535	64632.5
871.6056	1262.5216	65535	64631.65
871.7501	1264.4229	65535	64634.05
871.8945	1266.3234	65535	64632.95
872.039	1268.2232	65535	64633.1
872.1834	1270.1223	65535	64632.25
872.3278	1272.0207	65535	64630.75
872.4723	1273.9183	65535	64624.8
872.6167	1275.8151	65535	64634.45
872.7611	1277.7113	65535	64632.8
872.9055	1279.6067	65535	64632.9
873.0499	1281.5014	65535	64632
873.1943	1283.3953	65535	64631.8
873.3386	1285.2885	65535	64633.15
873.483	1287.181	65535	64632.7
873.6274	1289.0727	65535	64635
873.7717	1290.9637	65535	64631.9
873.9161	1292.854	65535	64632.15
874.0604	1294.7435	65535	64631.55
874.2047	1296.6323	65535	64633.45
874.349	1298.5204	65535	64628.65
874.4933	1300.4077	65535	64632.2
874.6376	1302.2943	65535	64633.05
874.7819	1304.1802	65535	64636.9
874.9262	1306.0653	65535	64632.85
875.0705	1307.9497	65535	64632.05
875.2147	1309.8333	65535	64630.3
875.359	1311.7162	65535	64631.15
875.5032	1313.5984	65535	64629.55
875.6475	1315.4798	65535	64622.6
875.7917	1317.3605	65535	64615.45
875.9359	1319.2405	65535	64629.75
876.0801	1321.1197	65535	64631.3
876.2243	1322.9982	65535	64629.75
876.3685	1324.876	65535	64633
876.5127	1326.753	65535	64633.85
876.6569	1328.6293	65535	64632.25
876.801	1330.5048	65535	64630.35
876.9452	1332.3796	65535	64633.5
877.0893	1334.2537	65535	64603.3
877.2335	1336.127	65535	64633.45
877.3776	1337.9996	65535	64635.25
877.5217	1339.8714	65535	64633.5
877.6658	1341.7426	65535	64589.45
877.8099	1343.6129	65535	64631.2
877.954	1345.4826	65535	64630.5
878.0981	1347.3515	65535	64629.9
878.2422	1349.2196	65535	64632.95
878.3862	1351.087	65535	64635.45
878.5303	1352.9537	65535	64632.8
878.6743	1354.8197	65535	64631.75
878.8184	1356.6849	65535	64631.85
878.9624	1358.5493	65535	64632.25
879.1064	1360.4131	65535	64631.55
879.2504	1362.276	65535	64632.75
879.3944	1364.1383	65535	64634.4
879.5384	1365.9998	65535	64628.3
879.6823	1367.8606	65535	64631.8
879.8263	1369.7206	65535	64633.1
879.9702	1371.5799	65535	64632.2
880.1142	1373.4384	65535	64631.75
880.2581	1375.2962	65535	64631.6
880.402	1377.1533	65535	64634.1
880.5459	1379.0096	65535	64631.7
880.6898	1380.8652	65535	64632.35
880.8337	1382.7201	65535	64634.3
880.9776	1384.5742	65535	64633.3
881.1215	1386.4275	65535	64632.55
881.2653	1388.2802	65535	64635.65
881.4092	1390.132	65535	64633.75
881.553	1391.9832	65535	64633.05
881.6968	1393.8336	65535	64633.25
881.8406	1395.6832	65535	64632.6
881.9844	1397.5322	65535	64632.05
882.1282	1399.3803	65535	64628.5
882.272	1401.2278	65535	64632.1
882.4158	1403.0745	65535	64632.4
882.5595	1404.9204	65535	64633.95
882.7033	1406.7656	65535	64633.15
882.847	1408.6101	65535	64633.15
882.9908	1410.4538	65535	64632.9
883.1345	1412.2968	65535	64633.4
883.2782	1414.139	65535	64634.95
883.4219	1415.9805	65535	64633.3
883.5656	1417.8213	65535	64627.1
883.7092	1419.6613	65535	64630.95
883.8529	1421.5006	65535	64631.05
883.9965	1423.3391	65535	64632.6
884.1402	1425.1769	65535	64631.3
884.2838	1427.0139	65535	64635.25
884.4274	1428.8502	65535	64632.05
884.571	1430.6858	65535	64633.6
884.7146	1432.5206	65535	64633.45
884.8582	1434.3547	65535	64632.3
885.0018	1436.188	65535	64631.65
885.1453	1438.0206	65535	64633.3
885.2889	1439.8524	65535	64634.45
885.4324	1441.6835	65535	64634.4
885.5759	1443.5139	65535	64630.7
885.7194	1445.3435	65535	64634.2
885.8629	1447.1724	65535	64634.9
886.0064	1449.0005	65535	64633.3
886.1499	1450.8279	65535	64633.35
886.2933	1452.6545	65535	64633.95
886.4368	1454.4804	65535	64636.2
886.5802	1456.3056	65535	64625.8
886.7237	1458.13	65535	64634.4
886.8671	1459.9536	65535	64633.95
887.0105	1461.7766	65535	64634.15
887.1539	1463.5987	65535	64634.15
887.2972	1465.4202	65535	64631.35
887.4406	1467.2409	65535	64632.45
887.584	1469.0608	65535	64635.4
887.7273	1470.88	65535	64633.05
887.8706	1472.6984	65535	64635.6
888.0139	1474.5161	65535	64629.6
888.1572	1476.3331	65535	64634.45
888.3005	1478.1493	65535	64633.7
888.4438	1479.9648	65535	64634.55
888.5871	1481.7795	65535	64633.4
888.7303	1483.5935	65535	64635.5
888.8736	1485.4067	65535	64634.3
889.0168	1487.2192	65535	64633.8
889.16	1489.031	65535	64630.15
889.3032	1490.842	65535	64635.35
889.4464	1492.6522	65535	64635.3
889.5896	1494.4618	65535	64635.65
889.7327	1496.2705	65535	64635.75
889.8759	1498.0785	65535	64633.4
890.019	1499.8858	65535	64633.15
890.1622	1501.6924	65535	64634.3
890.3053	1503.4981	65535	64635
890.4484	1505.3032	65535	64636.05
890.5914	1507.1075	65535	64634
890.7345	1508.911	65535	64635.75
890.8776	1510.7138	65535	64633.05
891.0206	1512.5159	65535	64634.2
891.1637	1514.3172	65535	64634.4
891.3067	1516.1178	65535	64636.2
891.4497	1517.9176	65535	64632.95
891.5927	1519.7166	65535	64635.4
891.7357	1521.515	65535	64629.75
891.8786	1523.3126	65535	64635.95
892.0216	1525.1094	65535	64632.45
892.1645	1526.9055	65535	64636.4
892.3074	1528.7008	65535	64635.5
892.4503	1530.4954	65535	64629.7
892.5932	1532.2893	65535	64634.5
892.7361	1534.0824	65535	64629.95
892.879	1535.8747	65535	64633.65
893.0218	1537.6663	65535	64635.4
893.1647	1539.4572	65535	64634
893.3075	1541.2473	65535	64634.7
893.4503	1543.0367	65535	64636.8
893.5931	1544.8253	65535	64630.1
893.7359	1546.6132	65535	64633.45
893.8787	1548.4003	65535	64626.4
894.0214	1550.1867	65535	64627.25
894.1642	1551.9723	65535	64633.25
894.3069	1553.7572	65535	64635.2
894.4496	1555.5414	65535	64635.05
894.5923	1557.3247	65535	64637.4
894.735	1559.1074	65535	64637.95
894.8777	1560.8893	65535	64637.5
895.0204	1562.6705	65535	64637.9
895.163	1564.4509	65535	64638.1
895.3056	1566.2305	65535	64638
895.4482	1568.0094	65535	64637.35
895.5908	1569.7876	65535	64636.4
895.7334	1571.565	65535	64635.8
895.876	1573.3417	65535	64637.3
896.0186	1575.1176	65535	64637
896.1611	1576.8928	65535	64637.15
896.3036	1578.6672	65535	64639.6
896.4461	1580.4409	65535	64641.1
896.5886	1582.2138	65535	64634.9
896.7311	1583.986	65535	64636.6
896.8736	1585.7575	65535	64637.85
897.0161	1587.5282	65535	64637.75
897.1585	1589.2981	65535	64639.2
897.3009	1591.0673	65535	64636.5
897.4433	1592.8358	65535	64639.35
897.5857	1594.6035	65535	64638.3
897.7281	1596.3704	65535	64635.9
897.8705	1598.1366	65535	64638.65
898.0128	1599.9021	65534.5	64637.25
898.1551	1601.6668	65535	64634.6
898.2975	1603.4308	65535	64636.85
898.4398	1605.194	65535	64632.05
898.5821	1606.9564	65508.7	64611.4
898.7243	1608.7182	65532	64630.25
898.8666	1610.4791	65507.25	64611.35
899.0088	1612.2394	65533.65	64638.3
899.1511	1613.9988	65491.9	64596.05
899.2933	1615.7576	65531.45	64635.95
899.4355	1617.5156	65533.7	64631.25
899.5776	1619.2728	65535	64636.2
899.7198	1621.0293	65514.2	64618.1
899.862	1622.785	65516.05	64618.45
900.0041	1624.54	65533.85	64634.5
900.1462	1626.2942	65489.6	64593.2
900.2883	1628.0477	65378.65	64479.75
900.4304	1629.8005	65067.25	64166
900.5725	1631.5525	65402.6	64505.1
900.7145	1633.3037	64959.35	64064.75
900.8566	1635.0542	64832.15	63934.85
900.9986	1636.804	65130.9	64232.8
901.1406	1638.553	64392.2	63414.8
901.2826	1640.3013	64718.25	63821.4
901.4245	1642.0488	64182.15	63286.25
901.5665	1643.7955	64617.65	63723.75
901.7085	1645.5416	64174.75	63278.55
901.8504	1647.2868	63638.85	62742.95
901.9923	1649.0313	64450.95	63555.1
902.1342	1650.7751	63998.95	63100.85
902.2761	1652.5181	63656.7	62760.3
902.4179	1654.2604	63784.75	62889.5
902.5598	1656.0019	64029.95	63136.25
902.7016	1657.7427	63871.05	62977.45
902.8434	1659.4828	64438.7	63542.95
902.9852	1661.222	63831.25	62933.85
903.127	1662.9606	64564.9	63668.65
903.2687	1664.6984	63586.1	62687.75
903.4105	1666.4354	64017.6	63121.65
903.5522	1668.1717	62861.1	61966
903.6939	1669.9072	61798.4	60903.35
903.8356	1671.642	61734.7	60836.6
903.9773	1673.3761	61422.35	60527.05
904.119	1675.1094	61169.8	60272.7
904.2606	1676.8419	60280.95	59385.55
904.4022	1678.5737	60441.5	59545.15
904.5439	1680.3048	60092.05	59196.15
904.6855	1682.0351	59681.45	58786.35
904.827	1683.7646	59382.95	58484.6
904.9686	1685.4934	59627.9	58733.4
905.1101	1687.2215	58310.95	57417.3
905.2517	1688.9488	59208.4	58313.95
905.3932	1690.6754	57317.65	56422.7
905.5347	1692.4012	58103.85	57208.45
905.6761	1694.1263	58130.1	57235.9
905.8176	1695.8506	57503.4	56609.15
905.9591	1697.5742	57446.55	56552.9
906.1005	1699.297	57189.2	56293.65
906.2419	1701.0191	57202.5	56308.65
906.3833	1702.7404	56396.55	55504.05
906.5246	1704.461	56093.85	55199.4
906.666	1706.1808	56223.8	55328.55
906.8073	1707.8999	56136.75	55242.1
906.9487	1709.6182	55819.25	54924.95
907.09	1711.3358	55738.05	54842.7
907.2313	1713.0527	55492.3	54598.6
907.3725	1714.7688	55453.55	54554.65
907.5138	1716.4841	54674.5	53779.15
907.655	1718.1987	54950	54049.75
907.7962	1719.9126	54669.65	53775.6
907.9374	1721.6257	54593.35	53695
908.0786	1723.338	54654.5	53759.8
908.2198	1725.0496	53834	52938.05
908.3609	1726.7605	53804.9	52910.1
908.502	1728.4706	53580.65	52687.95
908.6431	1730.18	53536.35	52641.2
908.7842	1731.8886	53269.3	52374.7
908.9253	1733.5964	53043.3	52127.05
909.0664	1735.3036	53152.4	52255.65
909.2074	1737.0099	52932.4	52037.35
909.3484	1738.7156	52535.3	51644.55
909.4894	1740.4204	52384.1	51489.75
909.6304	1742.1246	52336.55	51441.55
909.7714	1743.8279	52282.1	51389.35
909.9123	1745.5306	52243.65	51349.7
910.0532	1747.2325	51671.75	50777.75
910.1941	1748.9336	51525	50633.35
910.335	1750.634	51393	50497.4
910.4759	1752.3336	51458.2	50566.05
910.6168	1754.0325	51164.05	50273.65
910.7576	1755.7307	51240.45	50347.05
910.8984	1757.4281	50938.2	50043.35
911.0392	1759.1247	51066.35	50161.55
911.18	1760.8206	50608.85	49708.6
911.3208	1762.5158	50597.45	49699.55
911.4615	1764.2102	50482.2	49588.4
911.6022	1765.9039	50187.2	49293.9
911.7429	1767.5968	50123.9	49232.9
911.8836	1769.289	49938.8	49045.4
912.0243	1770.9804	49831.55	48936.35
912.1649	1772.6711	49773.7	48878.95
912.3056	1774.361	49592.65	48698.9
912.4462	1776.0502	49474.4	48580.65
912.5868	1777.7386	49299.65	48402.4
912.7274	1779.4263	49099.3	48204.5
912.8679	1781.1132	49072.7	48178.7
913.0084	1782.7994	48837.9	47942.8
913.149	1784.4849	48809	47915.7
913.2895	1786.1696	48536	47634.85
913.4299	1787.8535	48430.05	47537.45
913.5704	1789.5367	48304.7	47412.85
913.7108	1791.2192	48172.3	47279
913.8513	1792.9009	47968.3	47044.5
913.9917	1794.5818	47904.15	47009.45
914.132	1796.2621	47823	46930.2
914.2724	1797.9415	47649.95	46756.35
914.4128	1799.6202	47488.65	46596.65
914.5531	1801.2982	47439.6	46545.45
914.6934	1802.9755	47254.05	46358.75
914.8337	1804.6519	47185.55	46293.35
914.9739	1806.3277	46952.55	46059.5
915.1142	1808.0027	46721.75	45831.55
915.2544	1809.6769	46687.95	45795.55
915.3946	1811.3504	46511.8	45617.55
915.5348	1813.0231	46381.7	45486.05
915.675	1814.6951	46312.2	45418.45
915.8151	1816.3664	46277	45381.55
915.9553	1818.0369	46092.55	45197.8
916.0954	1819.7067	45936.7	45045.95
916.2355	1821.3757	45894.7	44999.85
916.3755	1823.044	45705.2	44811.75
916.5156	1824.7115	45665.1	44773.9
916.6556	1826.3783	45402.35	44508.35
916.7956	1828.0443	45231.35	44338.75
916.9356	1829.7096	45224.75	44331.65
917.0756	1831.3741	45117.05	44221.15
917.2155	1833.0379	44965.35	44072.55
917.3555	1834.701	44795	43898.25
917.4954	1836.3633	44679.9	43786.45
917.6353	1838.0248	44524.65	43630.75
917.7751	1839.6856	44445.5	43552.8
917.915	1841.3457	44383.4	43491.15
918.0548	1843.005	44265.65	43370.7
918.1946	1844.6636	44195	43301.7
918.3344	1846.3214	43988.1	43094.05
918.4742	1847.9785	43955.7	43064.05
918.6139	1849.6349	43794.1	42899.5
918.7537	1851.2904	43721.75	42818
918.8934	1852.9453	43582.75	42688.15
919.0331	1854.5994	43408.2	42512.4
919.1727	1856.2528	43454.3	42556.6
919.3124	1857.9054	43273.1	42380.15
919.452	1859.5572	43218.3	42326.05
919.5916	1861.2083	43071.25	42177.15
919.7312	1862.8587	43032.2	42140.6
919.8708	1864.5084	42902.15	42008
920.0103	1866.1572	42744.05	41850.25
920.1498	1867.8054	42601.45	41708.6
920.2893	1869.4528	42502.5	41609.25
920.4288	1871.0994	42347.55	41454
920.5683	1872.7453	42281.75	41388.35
920.7077	1874.3905	42103.35	41205.4
920.8471	1876.0349	41989.7	41097.1
920.9865	1877.6786	41995.8	41100.55
921.1259	1879.3215	41939.4	41048.2
921.2653	1880.9637	41755.65	40862.95
921.4046	1882.6051	41709.9	40817.75
921.5439	1884.2458	41604.95	40708.65
921.6832	1885.8858	41359.65	40465.65
921.8225	1887.525	41310.35	40416.35
921.9617	1889.1634	41127.75	40234.55
922.101	1890.8011	40972.35	40078.05
922.2402	1892.4381	40823	39928.65
922.3794	1894.0743	40796.25	39904.4
922.5185	1895.7098	40649.65	39757.8
922.6577	1897.3446	40528.4	39636.05
922.7968	1898.9786	40404.2	39507.1
922.9359	1900.6118	40344.15	39451.35
923.075	1902.2443	40112	39217
923.214	1903.8761	40039.1	39147.85
923.3531	1905.5071	39756.35	38861.4
923.4921	1907.1374	39683.2	38789.8
923.6311	1908.7669	39595.6	38704.15
923.77	1910.3957	39533.5	38639.4
923.909	1912.0237	39290.25	38397.95
924.0479	1913.651	39205.35	38312
924.1868	1915.2776	39080.65	38189.3
924.3257	1916.9034	38922.8	38032.2
924.4646	1918.5285	38757.55	37865.6
924.6034	1920.1528	38554.95	37661.55
924.7422	1921.7764	38472.3	37578
924.881	1923.3992	38315.6	37424.4
925.0198	1925.0213	38017.55	37124.2
925.1586	1926.6427	37862	36971.8
925.2973	1928.2633	37861.25	36856.1
925.436	1929.8832	37669.05	36774.15
925.5747	1931.5023	37518.45	36625.9
925.7134	1933.1207	37419.05	36525.9
925.852	1934.7383	37393.8	36500.2
925.9906	1936.3552	37191.8	36299.95
926.1292	1937.9714	37086.15	36195.35
926.2678	1939.5868	36859.2	35966.35
926.4064	1941.2015	36677.45	35784.4
926.5449	1942.8154	36586.05	35692.7
926.6834	1944.4286	36443.35	35551.5
926.8219	1946.041	36318.5	35406.45
926.9604	1947.6528	36060.8	35164.25
927.0988	1949.2637	36060.25	35168.55
927.2372	1950.8739	35897.55	35007.15
927.3756	1952.4834	35817.55	34926.05
927.514	1954.0921	35704.4	34811.75
927.6523	1955.7001	35579.05	34679.7
927.7907	1957.3074	35440.85	34547.3
927.929	1958.9139	35295.25	34404.9
928.0673	1960.5197	35188.25	34294.15
928.2055	1962.1247	34978.85	34087.7
928.3438	1963.729	34847.45	33958.7
928.482	1965.3325	34703.15	33789.05
928.6202	1966.9353	34513.95	33624.1
928.7584	1968.5374	34406.4	33513.95
928.8965	1970.1387	34359.5	33466.05
929.0346	1971.7393	34221.65	33329.6
929.1727	1973.3392	34142.3	33249.6
929.3108	1974.9383	33969.95	33077.2
929.4489	1976.5366	33810.7	32918.2
929.5869	1978.1342	33766.25	32873.7
929.7249	1979.7311	33702.65	32808.95
929.8629	1981.3273	33569.4	32678.25
930.0009	1982.9227	33416.15	32523.65
930.1388	1984.5173	33260.2	32367.55
930.2767	1986.1112	33135.65	32247
930.4146	1987.7044	33083.65	32193.8
930.5525	1989.2968	32955.55	32063.35
930.6904	1990.8885	32854.55	31958.6
930.8282	1992.4795	32824.55	31932.4
930.966	1994.0697	32678.75	31787
931.1038	1995.6592	32498.85	31606.95
931.2415	1997.2479	32411.5	31520.8
931.3793	1998.8359	32321	31428.6
931.517	2000.4232	32115.25	31224.2
931.6547	2002.0097	32035.35	31144.25
931.7923	2003.5955	31888.6	30996.4
931.93	2005.1805	31845.8	30953.15
932.0676	2006.7648	31756.1	30864.85
932.2052	2008.3484	31645.9	30753.6
932.3427	2009.9312	31618.15	30723.85
932.4803	2011.5133	31404.95	30514.45
932.6178	2013.0946	31337.8	30446.85
932.7553	2014.6752	31287.9	30398.25
932.8928	2016.2551	31247.9	30357.05
933.0302	2017.8342	31009.2	30116.75
933.1676	2019.4126	30911.8	30021.55
933.305	2020.9902	30778.25	29887.55
933.4424	2022.5672	30756.9	29863.6
933.5798	2024.1433	30636.25	29738.9
933.7171	2025.7188	30525.2	29634.55
933.8544	2027.2935	30457.5	29566.25
933.9917	2028.8674	30309.25	29418.45
934.129	2030.4406	30227.55	29339.2
934.2662	2032.0131	30087.9	29198.9
934.4034	2033.5849	29925.6	29026.9
934.5406	2035.1559	29889.75	28998.6
934.6778	2036.7261	29816.25	28924.55
934.8149	2038.2957	29732.3	28840.05
934.952	2039.8645	29604.85	28714.2
935.0891	2041.4325	29651.55	28757.9
935.2262	2042.9998	29530.25	28637.9
935.3632	2044.5664	29422.65	28531.35
935.5002	2046.1323	29313.7	28422.9
935.6372	2047.6974	29191.15	28298.55
935.7742	2049.2617	29133.35	28243.1
935.9111	2050.8254	29110.15	28198.75
936.048	2052.3883	29021.55	28128.9
936.1849	2053.9504	28901.85	28009.2
936.3218	2055.5118	28797.15	27906.25
936.4586	2057.0725	28627.85	27732.55
936.5955	2058.6325	28614.35	27720
936.7323	2060.1917	28496.9	27606.6
936.869	2061.7502	28466.75	27571.8
937.0058	2063.3079	28308.6	27417.5
937.1425	2064.8649	28196.2	27304.5
937.2792	2066.4212	28142.55	27250
937.4159	2067.9767	28059.35	27168.35
937.5525	2069.5315	27941.85	27049.05
937.6891	2071.0856	27793.8	26901.65
937.8257	2072.6389	27687.8	26795.75
937.9623	2074.1915	27571.7	26680.4
938.0989	2075.7433	27407.35	26514.05
938.2354	2077.2945	27356.4	26466.5
938.3719	2078.8448	27289.15	26398.7
938.5084	2080.3945	27154.6	26264.35
938.6448	2081.9434	27169.25	26279
938.7812	2083.4916	27002.5	26111.6
938.9176	2085.039	26905.15	26013.3
939.054	2086.5857	26846.5	25954.65
939.1903	2088.1317	26803.85	25913.55
939.3267	2089.677	26692.4	25799.4
939.463	2091.2215	26568.4	25677.65
939.5992	2092.7652	26481.65	25586.75
939.7355	2094.3083	26442.35	25550.8
939.8717	2095.8506	26394.75	25505.35
940.0079	2097.3921	26375.55	25482.6
940.1441	2098.933	26276.6	25384.9
940.2802	2100.4731	26205.65	25315.3
940.4163	2102.0124	26158.35	25259.5
940.5524	2103.5511	26049.5	25156.25
940.6885	2105.089	25980.9	25090.1
940.8245	2106.6261	25895.65	25004.75
940.9606	2108.1626	25826.35	24933.05
941.0965	2109.6983	25811.15	24894
941.2325	2111.2332	25708.5	24815.35
941.3684	2112.7675	25600.15	24708.75
941.5044	2114.301	25488.85	24596.35
941.6403	2115.8337	25515.25	24622.55
941.7761	2117.3657	25427.25	24536.2
941.912	2118.897	25328.55	24435.95
942.0478	2120.4276	25244.1	24345.95
942.1835	2121.9575	25128.4	24236.45
942.3193	2123.4866	25138.6	24231.55
942.455	2125.0149	25007.8	24112.6
942.5907	2126.5426	24861	23971.2
942.7264	2128.0695	24755.35	23860.4
942.8621	2129.5956	24746	23855.15
942.9977	2131.1211	24685.55	23790
943.1333	2132.6458	24624	23732.85
943.2689	2134.1698	24572.35	23679
943.4044	2135.693	24525.05	23630.65
943.54	2137.2155	24402.65	23507.9
943.6755	2138.7373	24360.5	23467.9
943.8109	2140.2584	24274.1	23381.45
943.9464	2141.7787	24180.85	23283.2
944.0818	2143.2983	24056.2	23163.95
944.2172	2144.8171	23915.9	23026.65
944.3526	2146.3353	23840.75	22948.1
944.4879	2147.8527	23772.4	22882.25
944.6232	2149.3693	23746.5	22854.75
944.7585	2150.8853	23670.35	22776.25
944.8938	2152.4005	23514.25	22622.85
945.029	2153.9149	23481.55	22589.2
945.1642	2155.4287	23399.55	22507.75
945.2994	2156.9417	23363.3	22469.45
945.4346	2158.454	23283.05	22387.8
945.5697	2159.9655	23187.85	22295.8
945.7048	2161.4764	23195.9	22304.7
945.8399	2162.9865	23079.45	22187.3
945.9749	2164.4958	23018.9	22127.55
946.1099	2166.0045	22928.6	22033.25
946.2449	2167.5124	22934.9	22042.7
946.3799	2169.0195	22850.65	21961
946.5148	2170.526	22789.75	21896.2
946.6498	2172.0317	22681.1	21789.55
946.7846	2173.5367	22651.25	21757.15
946.9195	2175.0409	22555.1	21664
947.0543	2176.5445	22553.25	21664.15
947.1891	2178.0473	22442.2	21551.55
947.3239	2179.5494	22337.45	21440.7
947.4587	2181.0507	22263	21369.4
947.5934	2182.5513	22160.15	21267.8
947.7281	2184.0512	22127.05	21235.75
947.8628	2185.5504	22041.15	21149.05
947.9974	2187.0488	21938.75	21046.7
948.132	2188.5465	21826.8	20935.75
948.2666	2190.0435	21742.5	20849.15
948.4012	2191.5397	21714.1	20821.2
948.5357	2193.0353	21660.8	20770.1
948.6702	2194.5301	21547.45	20653.85
948.8047	2196.0241	21433.2	20541.35
948.9392	2197.5175	21360.05	20468.65
949.0736	2199.0101	21288.45	20393.95
949.208	2200.502	21199.6	20309.05
949.3424	2201.9931	21089.5	20198.05
949.4767	2203.4835	21052	20160.25
949.611	2204.9733	20992.05	20094.05
949.7453	2206.4622	20896.2	20005.05
949.8796	2207.9505	20851.8	19958.35
950.0138	2209.438	20740.1	19850.3
950.148	2210.9248	20696.4	19805.05
950.2822	2212.4109	20618.75	19727.4
950.4164	2213.8962	20507.1	19611.25
950.5505	2215.3809	20477.8	19585
950.6846	2216.8648	20422.8	19530.1
950.8186	2218.3479	20308.2	19412.35
950.9527	2219.8304	20242.55	19347.65
951.0867	2221.3121	20174.6	19280.8
951.2207	2222.7931	20070.55	19179.35
951.3546	2224.2733	20018.3	19126.65
951.4886	2225.7529	19965.55	19071.7
951.6225	2227.2317	19878.8	18983.25
951.7563	2228.7098	19862.75	18970.9
951.8902	2230.1872	19746.65	18854
952.024	2231.6638	19757.2	18866.5
952.1578	2233.1397	19660.45	18763.8
952.2916	2234.6149	19568.55	18677.1
952.4253	2236.0894	19516.1	18624.7
952.559	2237.5632	19439.4	18539.7
952.6927	2239.0362	19383.3	18490.05
952.8263	2240.5085	19323.2	18430.55
952.9599	2241.9801	19219.7	18327.3
953.0935	2243.4509	19190.35	18299.55
953.2271	2244.921	19090	18198.75
953.3606	2246.3904	19023.6	18127.55
953.4941	2247.8591	18915.55	18024.1
953.6276	2249.3271	18899.25	18008.25
953.7611	2250.7943	18823.35	17930.65
953.8945	2252.2608	18750.2	17857.85
954.0279	2253.7266	18696.1	17805
954.1612	2255.1917	18640.45	17749.9
954.2946	2256.656	18561.05	17669.7
954.4279	2258.1197	18480.2	17589.55
954.5612	2259.5826	18457.5	17564.75
954.6944	2261.0447	18390.4	17496.95
954.8276	2262.5062	18328.2	17434.55
954.9608	2263.9669	18348.8	17454.1
955.094	2265.4269	18255.65	17362.3
955.2271	2266.8862	18174.75	17284.2
955.3602	2268.3448	18139.15	17248.35
955.4933	2269.8026	18133.95	17240.25
955.6264	2271.2598	18039.9	17149.25
955.7594	2272.7162	17934.25	17045.3
955.8924	2274.1719	17890.4	16998.1
956.0253	2275.6268	17835.05	16941.6
956.1583	2277.0811	17818	16926.45
956.2912	2278.5346	17772.95	16881.15
956.4241	2279.9874	17692.65	16799.7
956.5569	2281.4395	17696.25	16806
956.6897	2282.8908	17565	16667.4
956.8225	2284.3414	17541.75	16646.15
956.9553	2285.7914	17495.4	16605.45
957.088	2287.2406	17418	16525.85
957.2207	2288.689	17341.2	16451.15
957.3534	2290.1368	17304.2	16411.4
957.486	2291.5838	17223.25	16329.25
957.6186	2293.0302	17179.3	16286.3
957.7512	2294.4758	17106.4	16213.9
957.8838	2295.9206	17029.9	16135.95
958.0163	2297.3648	16997	16105.25
958.1488	2298.8082	16985.15	16094.15
958.2813	2300.251	16912.8	16020.8
958.4137	2301.693	16858.9	15966.2
958.5461	2303.1343	16837.45	15946.1
958.6785	2304.5748	16764.3	15872.85
958.8108	2306.0147	16691.9	15801.3
958.9432	2307.4538	16669.8	15776.65
959.0754	2308.8922	16567.55	15677.15
959.2077	2310.3299	16545.6	15654
959.3399	2311.7669	16488.4	15596.9
959.4721	2313.2031	16427.65	15535.15
959.6043	2314.6387	16363.9	15471.85
959.7365	2316.0735	16302.8	15410.95
959.8686	2317.5076	16263.25	15371.55
960.0006	2318.941	16214.6	15325.15
960.1327	2320.3737	16180.15	15288.6
960.2647	2321.8056	16098	15205.7
960.3967	2323.2369	16051.7	15158.7
960.5287	2324.6674	16015.7	15121.85
960.6606	2326.0972	15953.8	15060.55
960.7925	2327.5263	15877.85	14986.95
960.9244	2328.9547	15814.55	14922.6
961.0562	2330.3823	15780.25	14888.5
961.1881	2331.8092	15728.65	14832.55
961.3198	2333.2355	15672.7	14780.25
961.4516	2334.661	15639.95	14747.05
961.5833	2336.0858	15632.5	14738.8
961.715	2337.5098	15548.25	14656.25
961.8467	2338.9332	15486.05	14593.6
961.9783	2340.3558	15444.7	14549.65
962.1099	2341.7778	15410.1	14518.7
962.2415	2343.199	15351.4	14457.85
962.373	2344.6195	15284	14392.1
962.5045	2346.0393	15258.3	14367.65
962.636	2347.4583	15224.35	14333.65
962.7675	2348.8767	15140.15	14246.9
962.8989	2350.2943	15101.95	14208.7
963.0303	2351.7113	15095.35	14202.2
963.1617	2353.1275	15006.25	14114.8
963.293	2354.543	14956.9	14057.3
963.4243	2355.9578	14923.4	14033.05
963.5556	2357.3718	14804.5	13911.5
963.6868	2358.7852	14760.5	13866.2
963.818	2360.1978	14704.15	13812.15
963.9492	2361.6098	14674.9	13784.2
964.0803	2363.021	14633.4	13736.55
964.2114	2364.4315	14581.95	13690.75
964.3425	2365.8413	14552.3	13659.7
964.4736	2367.2504	14449.55	13557.35
964.6046	2368.6587	14398.55	13508.4
964.7356	2370.0664	14345.35	13451.15
964.8666	2371.4733	14274.95	13382.8
964.9975	2372.8795	14259.75	13367.3
965.1284	2374.285	14177.8	13287.7
965.2593	2375.6899	14117.7	13225.7
965.3901	2377.0939	14063.05	13171.95
965.5209	2378.4973	14007.05	13117.65
965.6517	2379.9	13949.9	13057.8
965.7825	2381.3019	13897.6	13007.1
965.9132	2382.7032	13877.65	12988.75
966.0439	2384.1037	13831.45	12941
966.1745	2385.5035	13768.95	12877.95
966.3051	2386.9027	13702.8	12812.65
966.4357	2388.3011	13668.5	12772.6
966.5663	2389.6987	13656.55	12764.85
966.6968	2391.0957	13580.2	12690.3
966.8273	2392.492	13520.45	12630.05
966.9578	2393.8876	13448.95	12555.65
967.0882	2395.2824	13371.05	12480.95
967.2186	2396.6765	13318.3	12429.75
967.349	2398.07	13260.75	12372.3
967.4793	2399.4627	13219.8	12329.2
967.6097	2400.8547	13191.8	12300.45
967.7399	2402.246	13145.4	12248.95
967.8702	2403.6366	13068.75	12178.3
968.0004	2405.0265	13039.75	12150
968.1306	2406.4156	12996.8	12102.15
968.2607	2407.8041	12930.8	12036.25
968.3909	2409.1918	12858.45	11964.5
968.521	2410.5789	12784.35	11892.8
968.651	2411.9652	12758.3	11863.95
968.781	2413.3508	12715.6	11824.15
968.911	2414.7358	12658.75	11767.5
969.041	2416.12	12628.8	11738.9
969.1709	2417.5035	12579.05	11688.05
969.3008	2418.8863	12522.05	11629.9
969.4307	2420.2684	12507.95	11619.45
969.5606	2421.6497	12420.05	11527.85
969.6904	2423.0304	12374.05	11484.7
969.8201	2424.4104	12332.5	11442.05
969.9499	2425.7896	12314.45	11423.1
970.0796	2427.1682	12263.9	11373.6
970.2093	2428.546	12211.45	11318.9
970.3389	2429.9232	12201.5	11308.15
970.4685	2431.2996	12147.7	11257.9
970.5981	2432.6753	12114.75	11224.75
970.7277	2434.0503	12096	11205.5
970.8572	2435.4246	12015.65	11126.4
970.9867	2436.7982	11992.2	11099.9
971.1161	2438.1711	11992.1	11103.05
971.2456	2439.5433	11927.05	11036.4
971.375	2440.9148	11854.65	10962.15
971.5043	2442.2856	11791.7	10901.05
971.6336	2443.6557	11773.65	10880.3
971.7629	2445.025	11747.05	10857.25
971.8922	2446.3937	11698.7	10808.65
972.0214	2447.7617	11668.1	10776.95
972.1506	2449.1289	11649.3	10758.1
972.2798	2450.4955	11605.05	10708.7
972.4089	2451.8613	11573.4	10683.25
972.538	2453.2265	11510.3	10619.55
972.6671	2454.5909	11511.6	10619.85
972.7961	2455.9546	11464.95	10575.05
972.9251	2457.3177	11396.45	10504.6
973.0541	2458.68	11368.05	10476.05
973.1831	2460.0416	11361.7	10470.45
973.312	2461.4025	11355.6	10461.45
973.4408	2462.7627	11310.95	10408.95
973.5697	2464.1222	11270.8	10379.15
973.6985	2465.4811	11223.85	10332.9
973.8273	2466.8392	11197.05	10306.15
973.956	2468.1966	11165.05	10271.55
974.0847	2469.5533	11159.8	10266.95
974.2134	2470.9093	11109.05	10216.15
974.3421	2472.2645	11051.8	10160.7
974.4707	2473.6191	11017.2	10124.95
974.5993	2474.973	10972.45	10081.4
974.7278	2476.3262	10952.8	10060.75
974.8563	2477.6787	10905.35	10014.75
974.9848	2479.0305	10851.95	9961.8
975.1132	2480.3816	10809.25	9917.4
975.2417	2481.7319	10811.55	9919.1
975.37	2483.0816	10729.15	9835.8
975.4984	2484.4306	10683.8	9791.6
975.6267	2485.7789	10647.2	9755.95
975.755	2487.1264	10593.35	9700.6
975.8833	2488.4733	10558.9	9669.45
976.0115	2489.8195	10525.4	9620.25
976.1397	2491.165	10504.45	9611.1
976.2678	2492.5097	10450.5	9555.2
976.3959	2493.8538	10392.05	9501.45
976.524	2495.1972	10357	9464.35
976.6521	2496.5398	10287.3	9394.75
976.7801	2497.8818	10284.65	9389.55
976.9081	2499.2231	10241.35	9350
977.036	2500.5637	10185.95	9294.15
977.164	2501.9035	10172.7	9281.9
977.2918	2503.2427	10155.25	9261.65
977.4197	2504.5812	10090.15	9198.95
977.5475	2505.919	10073.15	9178.55
977.6753	2507.256	10064.4	9173.7
977.8031	2508.5924	10038.6	9146
977.9308	2509.9281	9969.95	9070.75
978.0585	2511.2631	9927.3	9036.05
978.1861	2512.5974	9896.75	9006.45
978.3137	2513.9309	9873.4	8981.2
978.4413	2515.2638	9858.15	8941.65
978.5689	2516.596	9799.75	8908.3
978.6964	2517.9275	9757.65	8865.9
978.8239	2519.2583	9732.6	8840.75
978.9513	2520.5884	9688.75	8794.4
979.0788	2521.9178	9638.5	8745.75
979.2062	2523.2465	9592.9	8703
979.3335	2524.5745	9571.3	8680.3
979.4608	2525.9018	9531.35	8640.35
979.5881	2527.2284	9527.75	8639.05
979.7154	2528.5543	9499.4	8610.1
979.8426	2529.8796	9462.75	8571.2
979.9698	2531.2041	9456.15	8562.8
980.0969	2532.5279	9431.05	8539.25
980.224	2533.851	9388.2	8497.35
980.3511	2535.1735	9353.95	8463.15
980.4781	2536.4952	9327.25	8434.95
980.6052	2537.8163	9305.1	8413.4
980.7321	2539.1366	9287.7	8397.3
980.8591	2540.4562	9249.75	8355.1
980.986	2541.7752	9253.25	8363.8
981.1129	2543.0935	9233.75	8340
981.2397	2544.411	9204.85	8313.45
981.3665	2545.7279	9188.75	8296.75
981.4933	2547.0441	9146.95	8256.05
981.62	2548.3596	9136.65	8244.2
981.7467	2549.6744	9115.65	8224
981.8734	2550.9885	9067.8	8174.2
982.0001	2552.3019	9032.1	8137.5
982.1267	2553.6146	9018.85	8126.8
982.2532	2554.9266	8985.35	8092.85
982.3798	2556.2379	8952.15	8058.95
982.5063	2557.5485	8949.7	8059.9
982.6327	2558.8585	8910.95	8011.8
982.7592	2560.1677	8885.55	7990.75
982.8856	2561.4762	8878.3	7987.75
983.0119	2562.7841	8855.05	7958.5
983.1383	2564.0913	8847.95	7957.4
983.2646	2565.3977	8844.65	7953.9
983.3908	2566.7035	8803.25	7911.45
983.517	2568.0086	8784.15	7892
983.6432	2569.313	8759.3	7867.8
983.7694	2570.6167	8739.1	7844.6
983.8955	2571.9197	8728.05	7839.35
984.0216	2573.222	8692.85	7799.1
984.1476	2574.5236	8663.55	7770.25
984.2737	2575.8246	8636.45	7739.6
984.3996	2577.1248	8630.35	7735.4
984.5256	2578.4244	8609.3	7718.95
984.6515	2579.7232	8607.65	7717.35
984.7774	2581.0214	8580.95	7662.7
984.9032	2582.3189	8544.8	7654.4
985.029	2583.6157	8547.1	7650.9
985.1548	2584.9118	8513.25	7622.25
985.2806	2586.2072	8499.05	7608
985.4063	2587.5019	8461.9	7570.85
985.5319	2588.7959	8462.4	7570.9
985.6576	2590.0893	8427.1	7532.55
985.7832	2591.3819	8396.35	7506.15
985.9087	2592.6739	8360.1	7468.6
986.0343	2593.9652	8321.25	7428.7
986.1597	2595.2557	8307.45	7417.4
986.2852	2596.5456	8284.5	7389.3
986.4106	2597.8348	8258.7	7367.95
986.536	2599.1234	8222.6	7330.25
986.6614	2600.4112	8191.85	7298.6
986.7867	2601.6983	8164.4	7270.05
986.912	2602.9848	8135.05	7243.5
987.0372	2604.2705	8109.6	7210.4
987.1624	2605.5556	8096.7	7205.9
987.2876	2606.84	8068.45	7178.3
987.4128	2608.1237	8022.65	7129.35
987.5379	2609.4067	8001.6	7110.9
987.6629	2610.689	7970.85	7071.15
987.788	2611.9707	7936.15	7040.25
987.913	2613.2516	7921.85	7027.05
988.0379	2614.5319	7872.05	6980.7
988.1629	2615.8115	7857.55	6966.55
988.2878	2617.0903	7808	6914.7
988.4126	2618.3685	7781.95	6889.8
988.5375	2619.6461	7772.4	6881.5
988.6622	2620.9229	7745.95	6857.9
988.787	2622.199	7731.45	6840.6
988.9117	2623.4745	7707.45	6814.5
989.0364	2624.7493	7679.4	6787.5
989.161	2626.0234	7641.05	6750.2
989.2857	2627.2968	7605.9	6713.65
989.4102	2628.5695	7590.8	6697.65
989.5348	2629.8415	7539.3	6650.45
989.6593	2631.1128	7536.75	6643
989.7837	2632.3835	7470.7	6580.6
989.9082	2633.6535	7424.35	6536
990.0326	2634.9228	7418.9	6527.15
990.1569	2636.1914	7413.35	6521.75
990.2812	2637.4593	7411.3	6518
990.4055	2638.7265	7360.9	6467.95
990.5298	2639.9931	7355.85	6465.25
990.654	2641.259	7322.05	6430.9
990.7782	2642.5242	7302.7	6409.7
990.9023	2643.7887	7264.55	6371.65
991.0264	2645.0525	7253	6362.05
991.1505	2646.3156	7215.75	6324.55
991.2745	2647.5781	7214.65	6321.5
991.3985	2648.8398	7192.1	6301.4
991.5225	2650.1009	7155.15	6255.8
991.6464	2651.3613	7141.15	6248.65
991.7703	2652.6211	7109.4	6218.9
991.8942	2653.8801	7085.15	6194.2
992.018	2655.1385	7052.1	6157.95
992.1418	2656.3961	7038.85	6148.35
992.2655	2657.6531	7046.1	6156.1
992.3892	2658.9094	7006.8	6116.55
992.5129	2660.1651	7011.15	6119.4
992.6366	2661.42	6970.9	6078.6
992.7602	2662.6743	6959.85	6067.3
992.8837	2663.9279	6955.55	6065.05
993.0073	2665.1808	6925	6033.9
993.1307	2666.433	6916.05	6024.2
993.2542	2667.6846	6869.3	5979.55
993.3776	2668.9354	6859.45	5965.45
993.501	2670.1856	6846.45	5954.4
993.6244	2671.4351	6823.5	5931.15
993.7477	2672.6839	6835.25	5942.5
993.8709	2673.9321	6790.25	5899.5
993.9942	2675.1795	6774.85	5884.1
994.1174	2676.4263	6757.3	5865.65
994.2405	2677.6724	6744.6	5854.6
994.3637	2678.9179	6707.85	5816.7
994.4868	2680.1626	6690.5	5798.9
994.6098	2681.4067	6678.35	5785.85
994.7328	2682.6501	6662.2	5770.55
994.8558	2683.8928	6643.5	5751.95
994.9788	2685.1348	6626.6	5736.65
995.1017	2686.3761	6579.85	5690.4
995.2245	2687.6168	6553.9	5661.85
995.3474	2688.8568	6540.85	5647.8
995.4702	2690.0961	6505.95	5614.25
995.5929	2691.3348	6481.5	5590.6
995.7156	2692.5727	6459.35	5566.7
995.8383	2693.81	6447.25	5556.15
995.961	2695.0466	6428.75	5539.9
996.0836	2696.2826	6408.05	5516.75
996.2062	2697.5178	6414.15	5519.9
996.3287	2698.7524	6379.85	5487.55
996.4512	2699.9863	6362.05	5468.3
996.5737	2701.2195	6341.2	5451.5
996.6961	2702.452	6328.95	5436.3
996.8185	2703.6839	6311.75	5418.5
996.9408	2704.9151	6298.95	5409.05
997.0631	2706.1456	6275.45	5385.35
997.1854	2707.3755	6258	5364.75
997.3077	2708.6046	6234.85	5340.8
997.4299	2709.8331	6232.2	5341.1
997.552	2711.0609	6205.6	5315.6
997.6742	2712.2881	6194.95	5303.95
997.7963	2713.5145	6178.5	5286.6
997.9183	2714.7403	6174.2	5283.55
998.0403	2715.9654	6174.1	5280.9
998.1623	2717.1899	6161.4	5257.95
998.2842	2718.4136	6152.8	5262.05
998.4062	2719.6367	6136.05	5244.55
998.528	2720.8591	6120.1	5222.55
998.6498	2722.0809	6097	5204.1
998.7716	2723.3019	6094.5	5199.95
998.8934	2724.5223	6083.15	5191
999.0151	2725.7421	6054.15	5163
999.1368	2726.9611	6047.8	5155.15
999.2584	2728.1795	6048.25	5153.1
999.38	2729.3972	6016.25	5124.9
999.5016	2730.6142	5975.3	5071.3
999.6231	2731.8306	5935.4	5044.8
999.7446	2733.0462	5901.6	5009.9
999.8661	2734.2612	5873.95	4977.25
999.9875	2735.4756	5824.65	4931.6
1000.1089	2736.6892	5790.3	4897.55
1000.2302	2737.9022	5777.55	4886.25
1000.3515	2739.1145	5733.65	4842.5
1000.4728	2740.3262	5716.55	4817
1000.594	2741.5372	5657.4	4766.35
1000.7152	2742.7475	5648.4	4756.95
1000.8363	2743.9571	5616.85	4722.9
1000.9575	2745.1661	5592.75	4696.4
1001.0785	2746.3744	5586.65	4694.5
1001.1996	2747.582	5548.05	4658.35
1001.3206	2748.7889	5520.95	4628.5
1001.4415	2749.9952	5498.6	4607.25
1001.5625	2751.2008	5480.45	4587.75
1001.6833	2752.4057	5468.65	4574.6
1001.8042	2753.61	5446.6	4553.4
1001.925	2754.8136	5421.8	4528.6
1002.0458	2756.0165	5412.25	4521.3
1002.1665	2757.2188	5388.35	4499.4
1002.2872	2758.4204	5359.7	4468.35
1002.4078	2759.6213	5345.9	4451.45
1002.5285	2760.8215	5355.65	4459.1
1002.649	2762.0211	5322.25	4428.8
1002.7696	2763.22	5296.8	4402.2
1002.8901	2764.4182	5295.25	4404.25
1003.0106	2765.6158	5278.2	4386.6
1003.131	2766.8127	5258	4367.45
1003.2514	2768.009	5237.6	4347.1
1003.3717	2769.2045	5232.8	4340.5
1003.492	2770.3994	5208.4	4316.6
1003.6123	2771.5936	5171.1	4279.4
1003.7325	2772.7872	5157.05	4267.55
1003.8527	2773.9801	5142.55	4250.65
1003.9729	2775.1723	5132.8	4224.45
1004.093	2776.3639	5094.6	4203.9
1004.2131	2777.5548	5088.1	4194.85
1004.3331	2778.745	5085.2	4190.95
1004.4531	2779.9346	5083.35	4194
1004.5731	2781.1235	5053.85	4160.6
1004.693	2782.3117	5049.2	4158.35
1004.8129	2783.4992	5037.8	4146.3
1004.9328	2784.6861	5018.95	4128.45
1005.0526	2785.8723	5009.5	4116.15
1005.1723	2787.0579	4995.7	4104.25
1005.2921	2788.2428	4993.8	4102.1
1005.4118	2789.427	4969.05	4078.35
1005.5314	2790.6106	4960	4067.9
1005.651	2791.7935	4969	4077.1
1005.7706	2792.9757	4962.65	4071.45
1005.8902	2794.1573	4933.15	4040.95
1006.0097	2795.3382	4952.65	4061.05
1006.1291	2796.5184	4944.8	4054.3
1006.2485	2797.698	4962.2	4071
1006.3679	2798.8769	4944.25	4052.9
1006.4873	2800.0551	4941.2	4047.85
1006.6066	2801.2327	4931.3	4037.1
1006.7258	2802.4096	4931.7	4040.35
1006.8451	2803.5859	4950.8	4060.4
1006.9642	2804.7615	4963.95	4071.8
1007.0834	2805.9364	4955.05	4065.2
1007.2025	2807.1106	4975.05	4083.8
1007.3216	2808.2842	4986.95	4095.6
1007.4406	2809.4572	5021.7	4130.2
1007.5596	2810.6294	5019.05	4126.55
1007.6785	2811.801	5061.7	4170.55
1007.7975	2812.972	5104.3	4215.95
1007.9163	2814.1423	5118.3	4227.25
1008.0352	2815.3119	5148.15	4256.3
1008.154	2816.4808	5187.8	4298.3
1008.2727	2817.6491	5225.45	4333.4
1008.3914	2818.8167	5260.9	4368.15
1008.5101	2819.9837	5304.9	4409.4
1008.6288	2821.15	5334.7	4445
1008.7474	2822.3157	5359.35	4467.75
1008.8659	2823.4807	5398.45	4508.35
1008.9844	2824.645	5421.55	4527.95
1009.1029	2825.8086	5457.4	4565.65
1009.2214	2826.9716	5485.5	4595.65
1009.3398	2828.134	5526.35	4635.95
1009.4581	2829.2957	5537.7	4649.15
1009.5764	2830.4567	5561.05	4670
1009.6947	2831.617	5577.25	4685.75
1009.813	2832.7767	5591.95	4703.9
1009.9312	2833.9358	5568.4	4677.1
1010.0493	2835.0941	5556.95	4665
1010.1675	2836.2519	5542.4	4650.55
1010.2855	2837.4089	5513.3	4622.4
1010.4036	2838.5653	5496.7	4608.65
1010.5216	2839.7211	5492.55	4602.65
1010.6396	2840.8761	5480.35	4587.8
1010.7575	2842.0306	5489.25	4598.4
1010.8754	2843.1843	5524.1	4631.75
1010.9932	2844.3374	5569.7	4676.7
1011.111	2845.4899	5598.4	4708.65
1011.2288	2846.6417	5678.75	4790.3
1011.3465	2847.7928	5759.65	4870.65
1011.4642	2848.9433	5812.8	4923.7
1011.5818	2850.0931	5874.1	4985.2
1011.6995	2851.2422	5965.6	5073.05
1011.817	2852.3907	6022.6	5131.55
1011.9345	2853.5385	6083.4	5190.45
1012.052	2854.6857	6149.75	5232.55
1012.1695	2855.8323	6164.65	5274.65
1012.2869	2856.9781	6186.7	5296.8
1012.4042	2858.1233	6227.4	5337.2
1012.5216	2859.2679	6275	5386.35
1012.6389	2860.4118	6284.05	5392.75
1012.7561	2861.555	6315.4	5418.5
1012.8733	2862.6976	6351.6	5459.1
1012.9905	2863.8395	6359.75	5469.35
1013.1076	2864.9808	6363.85	5474.35
1013.2247	2866.1214	6370.45	5479.8
1013.3417	2867.2614	6379.85	5489.7
1013.4587	2868.4007	6379.5	5486.6
1013.5757	2869.5393	6362.95	5470.05
1013.6926	2870.6773	6355.95	5464.1
1013.8095	2871.8146	6368.45	5474
1013.9263	2872.9513	6350.95	5458.7
1014.0431	2874.0874	6328.15	5437.3
1014.1599	2875.2227	6334.5	5442
1014.2766	2876.3574	6280.95	5388.9
1014.3933	2877.4915	6259.55	5370.45
1014.51	2878.6249	6214.45	5325.35
1014.6266	2879.7577	6172.8	5279.6
1014.7431	2880.8898	6166.05	5264.25
1014.8596	2882.0212	6118.55	5227.05
1014.9761	2883.152	6126.3	5235.6
1015.0925	2884.2821	6083.05	5193.55
1015.2089	2885.4116	6052.7	5164.05
1015.3253	2886.5405	6043	5152.15
1015.4416	2887.6686	6038	5145.05
1015.5579	2888.7962	6049.15	5159
1015.6741	2889.923	6018.95	5127.15
1015.7903	2891.0493	6017	5128.65
1015.9065	2892.1748	6015.95	5125.65
1016.0226	2893.2997	6019.4	5130.7
1016.1387	2894.424	6021.25	5130.2
1016.2547	2895.5476	6037	5144.3
1016.3707	2896.6706	6041.85	5152.2
1016.4866	2897.7929	6050.35	5159.9
1016.6025	2898.9145	6077.85	5186.2
1016.7184	2900.0355	6096.7	5204
1016.8342	2901.1559	6108.85	5217.25
1016.95	2902.2756	6135.1	5245.3
1017.0658	2903.3946	6167.8	5278.3
1017.1815	2904.513	6162	5269.35
1017.2971	2905.6308	6183.55	5293.55
1017.4127	2906.7479	6200	5306.05
1017.5283	2907.8643	6203.65	5312.95
1017.6439	2908.9801	6218.2	5326.8
1017.7594	2910.0953	6203.25	5312.75
1017.8748	2911.2098	6201.05	5308
1017.9902	2912.3236	6181.5	5282.15
1018.1056	2913.4368	6163.2	5270.3
1018.2209	2914.5494	6124.7	5234.85
1018.3362	2915.6613	6101.5	5205.7
1018.4515	2916.7725	6045.6	5151.9
1018.5667	2917.8831	6023	5129.55
1018.6819	2918.9931	6004	5109.9
1018.797	2920.1024	5959.65	5067.3
1018.9121	2921.211	5909.8	5019.45
1019.0271	2922.319	5892.2	5002.6
1019.1421	2923.4264	5867.35	4978.35
1019.2571	2924.5331	5846.8	4960.55
1019.372	2925.6391	5827.75	4938.35
1019.4869	2926.7445	5807.75	4917.8
1019.6017	2927.8493	5790.8	4899.5
1019.7165	2928.9534	5782.15	4892.8
1019.8313	2930.0569	5754.1	4859.65
1019.946	2931.1597	5730.2	4838.25
1020.0606	2932.2619	5709.45	4817.4
1020.1753	2933.3634	5695.5	4805.05
1020.2899	2934.4643	5690.2	4793.85
1020.4044	2935.5645	5653.65	4757.1
1020.5189	2936.6641	5632	4737.95
1020.6334	2937.763	5574.1	4683.7
1020.7478	2938.8613	5524.45	4635
1020.8622	2939.959	5447.3	4553.55
1020.9765	2941.056	5337.25	4447.8
1021.0908	2942.1523	5262.5	4371.85
1021.2051	2943.248	5171.95	4279.65
1021.3193	2944.3431	5050.45	4160.25
1021.4334	2945.4375	4962.85	4071.15
1021.5476	2946.5313	4839	3949.35
1021.6617	2947.6244	4733.3	3842.7
1021.7757	2948.7169	4630.2	3739.05
1021.8897	2949.8087	4521.8	3633.05
1022.0037	2950.8999	4413.4	3524.85
1022.1176	2951.9904	4328.95	3439.8
1022.2315	2953.0803	4239.65	3346.65
1022.3453	2954.1696	4174.7	3283.45
1022.4591	2955.2582	4118.6	3228.5
1022.5728	2956.3462	4050.55	3160.1
1022.6865	2957.4335	4014.55	3123.85
1022.8002	2958.5202	3973	3080.45
1022.9138	2959.6062	3932.6	3042.2
1023.0274	2960.6916	3910.65	3019.8
1023.141	2961.7764	3874.1	2983.3
1023.2545	2962.8605	3841.7	2951.2
1023.3679	2963.9439	3821.85	2931
1023.4813	2965.0267	3816.8	2924.85
1023.5947	2966.1089	3812.6	2898.8
1023.708	2967.1905	3772.95	2882.15
1023.8213	2968.2714	3764.35	2874.6
1023.9346	2969.3516	3747.8	2857.3
1024.0478	2970.4312	3747.65	2849.4
1024.1609	2971.5102	3707.95	2818.2
1024.274	2972.5885	3721.85	2831.7
1024.3871	2973.6662	3716.3	2820.5
1024.5002	2974.7432	3697.65	2807.6
1024.6132	2975.8196	3686.1	2794.85
1024.7261	2976.8954	3666.8	2777.7
1024.839	2977.9705	3643.15	2751.85
1024.9519	2979.045	3635.1	2743.2
1025.0647	2980.1188	3605.35	2714.5
1025.1775	2981.192	3578.35	2689.45
1025.2902	2982.2645	3541.95	2651.2
1025.4029	2983.3364	3514.55	2625.9
1025.5156	2984.4077	3489.1	2602.3
1025.6282	2985.4783	3456.4	2561.15
1025.7407	2986.5483	3424.2	2536.4
1025.8532	2987.6177	3375.75	2486.8
1025.9657	2988.6864	3337.15	2444.6
1026.0782	2989.7545	3297.7	2405.75
1026.1906	2990.8219	3257.55	2367.95
1026.3029	2991.8887	3213.9	2320.8
1026.4152	2992.9548	3176.4	2287.4
1026.5275	2994.0204	3140.55	2250.8
1026.6397	2995.0852	3104.95	2214.3
1026.7519	2996.1495	3073.05	2182.25
1026.864	2997.2131	3051.05	2159.8
1026.9761	2998.276	3036.55	2146.45
1027.0882	2999.3383	2979.95	2089.6
1027.2002	3000.4	2974.65	2083.55
1027.3122	3001.4611	2949.7	2059.45
1027.4241	3002.5215	2920.35	2030.85
1027.536	3003.5812	2901.45	2011.4
1027.6478	3004.6404	2907.8	2017.35
1027.7596	3005.6989	2865.3	1972.4
1027.8714	3006.7567	2868.7	1978.5
1027.9831	3007.8139	2871.75	1959.9
1028.0947	3008.8705	2841.3	1951
1028.2064	3009.9264	2833	1939.75
1028.3179	3010.9818	2810.4	1920.55
1028.4295	3012.0364	2800.95	1910.45
1028.541	3013.0905	2809.05	1917.65
1028.6524	3014.1439	2785.9	1894.65
1028.7638	3015.1966	2775	1884.15
1028.8752	3016.2487	2781.7	1892.5
1028.9865	3017.3002	2778.85	1886.1
1029.0978	3018.3511	2758.1	1869.5
1029.209	3019.4013	2750.75	1861.6
1029.3202	3020.4509	2756.95	1868.3
1029.4314	3021.4998	2749.7	1859.75
1029.5425	3022.5481	2744.8	1855.6
1029.6535	3023.5958	2737.1	1845.45
1029.7645	3024.6428	2728.95	1837.95
1029.8755	3025.6892	2732.2	1842.15
1029.9864	3026.735	2718.2	1827.7
1030.0973	3027.7802	2713.9	1823.65
1030.2082	3028.8247	2708.1	1817.8
1030.319	3029.8685	2693.65	1802.95
1030.4297	3030.9118	2698.4	1810.05
1030.5404	3031.9544	2692.85	1803.25
1030.6511	3032.9963	2703.4	1813.2
1030.7617	3034.0376	2691.5	1801.5
1030.8723	3035.0783	2697.05	1806.25
1030.9829	3036.1184	2697.55	1805.95
1031.0934	3037.1578	2682.5	1792.95
1031.2038	3038.1966	2695.15	1803.6
1031.3142	3039.2348	2681.35	1792.95
1031.4246	3040.2723	2672.75	1774.85
1031.5349	3041.3092	2660.85	1772.1
1031.6452	3042.3455	2673.7	1782.7
1031.7554	3043.3811	2645.5	1754.95
1031.8656	3044.4161	2631.85	1742.55
1031.9758	3045.4505	2635.1	1743.4
1032.0859	3046.4842	2603.1	1712.7
1032.1959	3047.5173	2610	1719.15
1032.3059	3048.5498	2599.2	1709
1032.4159	3049.5816	2577.05	1687.05
1032.5258	3050.6128	2581.9	1690.35
1032.6357	3051.6434	2572.1	1682.15
1032.7455	3052.6734	2540.55	1649.6
1032.8553	3053.7027	2540.95	1650.25
1032.9651	3054.7314	2513.55	1625.5
1033.0748	3055.7594	2525.35	1636.35
1033.1845	3056.7868	2513	1622.6
1033.2941	3057.8136	2498.5	1609
1033.4037	3058.8398	2486.8	1595.95
1033.5132	3059.8653	2467.95	1576.3
1033.6227	3060.8902	2468.7	1579.3
1033.7321	3061.9145	2454.35	1562.95
1033.8415	3062.9381	2447.55	1556.8
1033.9509	3063.9612	2445.55	1540.2
1034.0602	3064.9835	2432.65	1542.85
1034.1694	3066.0053	2416.25	1524.1
1034.2787	3067.0264	2402.5	1513.2
1034.3878	3068.0469	2390.65	1501.05
1034.497	3069.0668	2375.1	1483.7
1034.6061	3070.086	2373.45	1485.1
1034.7151	3071.1046	2352.75	1460.1
1034.8241	3072.1226	2347.6	1456.7
1034.9331	3073.1399	2318.2	1429.75
1035.042	3074.1567	2319.25	1429.5
1035.1508	3075.1727	2299.95	1408.9
1035.2597	3076.1882	2278.55	1389.15
1035.3684	3077.203	2258.5	1367.85
1035.4772	3078.2173	2261.1	1370.6
1035.5859	3079.2308	2252.1	1359.6
1035.6945	3080.2438	2231.05	1338.65
1035.8031	3081.2561	2229.35	1339.1
1035.9117	3082.2678	2214.15	1325.25
1036.0202	3083.2789	2203.9	1313.2
1036.1286	3084.2893	2190.4	1302.8
1036.2371	3085.2991	2183.65	1295.2
1036.3454	3086.3083	2182.85	1288.6
1036.4538	3087.3169	2157.6	1265.85
1036.562	3088.3248	2147.4	1255.75
1036.6703	3089.3321	2155.05	1262.45
1036.7785	3090.3388	2144.2	1255.25
1036.8866	3091.3449	2125.95	1235.7
1036.9948	3092.3503	2122.75	1232.1
1037.1028	3093.3551	2108.15	1218
1037.2108	3094.3593	2095.7	1206.95
1037.3188	3095.3629	2083.9	1196.85
1037.4267	3096.3658	2083.95	1193.4
1037.5346	3097.3681	2074.15	1186.3
1037.6425	3098.3698	2065.1	1175.55
1037.7503	3099.3708	2065.4	1168.15
1037.858	3100.3713	2059.05	1168.55
1037.9657	3101.3711	2049.15	1157.05
1038.0734	3102.3702	2162.2	1139.5
1038.181	3103.3688	2043.15	1149.95
1038.2886	3104.3667	2028.6	1139.45
1038.3961	3105.364	2015.4	1127.2
1038.5036	3106.3607	2007.1	1116.7
1038.611	3107.3568	2003.9	1111.45
1038.7184	3108.3522	1987.9	1100.2
1038.8257	3109.347	1984.85	1092.9
1038.933	3110.3412	1992.6	1100.35
1039.0403	3111.3348	1973.8	1082.8
1039.1475	3112.3277	1968.1	1078.45
1039.2547	3113.32	1956.8	1068.75
1039.3618	3114.3117	1961	1071.95
1039.4689	3115.3028	1938.45	1048.6
1039.5759	3116.2932	1953.4	1060.75
1039.6829	3117.2831	1952.6	1055.6
1039.7898	3118.2723	1930.8	1041.8
1039.8967	3119.2608	1925	1036.15
1040.0035	3120.2488	1923.15	1035.5
1040.1103	3121.2361	1915.55	1025.25
1040.2171	3122.2229	1908.55	1017.5
1040.3238	3123.209	1902.5	1012.35
1040.4305	3124.1944	1896.05	1008.2
1040.5371	3125.1793	1896.3	1004.2
1040.6437	3126.1635	1889.5	1000.85
1040.7502	3127.1471	1879.65	992.05
1040.8567	3128.1301	1873.5	984.45
1040.9631	3129.1125	1866.05	977.3
1041.0695	3130.0942	1865.7	975.65
1041.1759	3131.0753	1869.1	970.7
1041.2822	3132.0558	1857.75	963.1
1041.3884	3133.0357	1851.45	962.3
1041.4946	3134.015	1847.55	957.35
1041.6008	3134.9936	1844.35	954
1041.7069	3135.9716	1856	945.85
1041.813	3136.949	1839.35	948.75
1041.919	3137.9258	1832.55	938.95
1042.025	3138.902	1823.35	928.3
1042.1309	3139.8775	1823.9	934.75
1042.2368	3140.8524	1813.9	924.85
1042.3427	3141.8267	1819.05	929.3
1042.4485	3142.8004	1799.85	909.85
1042.5542	3143.7735	1810.8	913.25
1042.6599	3144.7459	1800.3	908.3
1042.7656	3145.7178	1801.2	910.1
1042.8712	3146.689	1778.8	890.1
1042.9768	3147.6596	1788.95	898.7
1043.0823	3148.6295	1786.45	895.5
1043.1878	3149.5989	1778	887.2
1043.2932	3150.5676	1762.4	875.35
1043.3986	3151.5357	1764.85	875.75
1043.5039	3152.5032	1761.5	873.3
1043.6092	3153.4701	1751.9	862.5
1043.7145	3154.4364	1748.2	855.75
1043.8197	3155.402	1745.6	856.65
1043.9248	3156.367	1739	849.4
1044.03	3157.3315	1775	841.9
1044.135	3158.2952	1728.85	839.45
1044.24	3159.2584	1731.3	842.4
1044.345	3160.221	1716	825.75
1044.4499	3161.1829	1712.3	823.25
1044.5548	3162.1442	1706.55	818.55
1044.6596	3163.105	1700.85	810.85
1044.7644	3164.065	1702.35	810.45
1044.8692	3165.0245	1702.3	811.05
1044.9739	3165.9834	1698.85	808.25
1045.0785	3166.9416	1694.35	805
1045.1831	3167.8993	1681.55	791.35
1045.2877	3168.8563	1678.45	787.4
1045.3922	3169.8127	1668.4	781.65
1045.4966	3170.7684	1669.2	778.6
1045.6011	3171.7236	1655.55	763.65
1045.7054	3172.6782	1654.9	766.3
1045.8098	3173.6321	1647.45	757
1045.914	3174.5854	1661.8	768.25
1046.0183	3175.5381	1646.7	755.7
1046.1224	3176.4902	1642.1	752.4
1046.2266	3177.4417	1644	756.1
1046.3307	3178.3926	1631.5	741.6
1046.4347	3179.3428	1626.45	738.4
1046.5387	3180.2924	1627.45	737.15
1046.6427	3181.2415	1620.55	729.6
1046.7466	3182.1899	1620.1	728.6
1046.8504	3183.1377	1615.95	726.8
1046.9542	3184.0848	1615.75	723.35
1047.058	3185.0314	1604.45	713.2
1047.1617	3185.9773	1604.5	714.45
1047.2654	3186.9227	1596.3	706.3
1047.369	3187.8674	1593.95	705.1
1047.4726	3188.8115	1590.3	695.95
1047.5761	3189.755	1590.85	701
1047.6796	3190.6979	1586.1	697.25
1047.783	3191.6402	1574.75	686
1047.8864	3192.5818	1576.4	684.55
1047.9898	3193.5229	1584.5	681.65
1048.0931	3194.4633	1570.95	681.95
1048.1963	3195.4031	1568.3	676.4
1048.2995	3196.3423	1568.1	678.8
1048.4027	3197.2809	1560.9	670.7
1048.5058	3198.2189	1547.85	659.6
1048.6089	3199.1563	1566.25	671.35
1048.7119	3200.0931	1545.2	655.15
1048.8148	3201.0292	1542.15	653.3
1048.9178	3201.9648	1542.4	654.3
1049.0206	3202.8997	1538.55	646.25
1049.1235	3203.834	1535.95	646.3
1049.2262	3204.7677	1533.35	642.85
1049.329	3205.7008	1535.35	643.85
1049.4317	3206.6333	1523.7	635.1
1049.5343	3207.5652	1525.8	633.85
1049.6369	3208.4964	1517.3	627.95
1049.7394	3209.4271	1520.85	632.65
1049.8419	3210.3571	1511.2	623.05
1049.9444	3211.2865	1507.55	616.45
1050.0468	3212.2154	1506.8	615.1
1050.1491	3213.1436	1508.25	616.9
1050.2514	3214.0712	1501.45	605.8
1050.3537	3214.9982	1492.2	603.45
1050.4559	3215.9246	1490.35	601.15
1050.5581	3216.8503	1493.55	606.05
1050.6602	3217.7755	1490.85	602.1
1050.7623	3218.7001	1481.55	593.3
1050.8643	3219.624	1486.9	598.25
1050.9663	3220.5473	1482.55	593.1
1051.0682	3221.4701	1480.05	589.8
1051.1701	3222.3922	1468.95	577.85
1051.2719	3223.3137	1463	572.8
1051.3737	3224.2346	1459.3	570.15
1051.4754	3225.1549	1464.9	576.55
1051.5771	3226.0746	1462.8	573.75
1051.6788	3226.9937	1457.2	568.9
1051.7804	3227.9121	1454.8	565.35
1051.8819	3228.83	1446.4	558.35
1051.9834	3229.7473	1444.3	555.9
1052.0849	3230.6639	1448.05	558.05
1052.1863	3231.5799	1440.95	553.2
1052.2876	3232.4954	1437.5	547.25
1052.3889	3233.4102	1441.15	551.15
1052.4902	3234.3244	1430.45	539.25
1052.5914	3235.238	1430.65	541.8
1052.6926	3236.151	1448.4	534.2
1052.7937	3237.0634	1419.7	529.4
1052.8948	3237.9752	1424.65	536.55
1052.9958	3238.8864	1416.35	526.2
1053.0968	3239.797	1416.45	528.85
1053.1977	3240.7069	1415.05	524.65
1053.2986	3241.6163	1407.9	516.6
1053.3994	3242.5251	1403.1	514.95
1053.5002	3243.4332	1406.85	518.65
1053.6009	3244.3408	1400.2	509.6
1053.7016	3245.2477	1398.25	510.45
1053.8022	3246.154	1392.45	500.8
1053.9028	3247.0598	1390	500.2
1054.0034	3247.9649	1380	490.7
1054.1039	3248.8694	1384.25	494.6
1054.2043	3249.7733	1383.1	493.8
1054.3047	3250.6766	1377.05	487.65
1054.4051	3251.5793	1378	487
1054.5054	3252.4814	1373	483.4
1054.6056	3253.3829	1375	487.85
1054.7058	3254.2838	1363.25	473.7
1054.806	3255.1841	1363.8	474.1
1054.9061	3256.0838	1352.75	463.7
1055.0061	3256.9829	1349	460.55
1055.1062	3257.8814	1350.3	459.8
1055.2061	3258.7792	1352.15	461.1
1055.306	3259.6765	1340.5	449.75
1055.4059	3260.5731	1332.9	445.7
1055.5057	3261.4692	1335.45	448.1
1055.6055	3262.3647	1328.5	440.05
1055.7052	3263.2595	1326.2	437.75
1055.8049	3264.1538	1313.85	426.3
1055.9045	3265.0474	1314.4	424.05
1056.0041	3265.9404	1300.55	410.5
1056.1036	3266.8329	1298.4	410.2
1056.2031	3267.7247	1300.4	401.75
1056.3025	3268.616	1280.25	393.1
1056.4019	3269.5066	1266.05	378.35
1056.5013	3270.3966	1257.95	367.65
1056.6005	3271.286	1248.2	360.15
