Software Version:	3.9.2.0
Unit SN:	10000200
Spectrometer SN:	6960
Date:	3/6/2024 9:35:44 AM
Data Line Index:	25
Spectral Points:	2048
Integration time (ms):	125
Averages:	20
Delay (ms):	30
Sequence Number:	1
Processing:	dark subtract
Laser Power (mW):	300
Laser Current (mA):	825
Laser Diode Temp (C):	25.1
Laser Case Temp (C):	23.8
System Temp (C):	23.7
Spectrometer Temp (C):	21.3
CCD Temp (C):	-0.042
Secondary Temp (C):	20.011
Heatsink Temp (C):	17.457
CCDPCB Temp (C):	30.727
SecondaryPCB Temp (C):	25.602

Wavelength	RamanShift	Raw Counts	Dark Subtracted
787.061	30.1047	494	86.65
787.2016	32.3739	499.1	94.25
787.3422	34.6426	502.5	96.65
787.4828	36.9109	513.35	106.05
787.6235	39.1787	519.5	107.25
787.7642	41.4461	533.15	115.9
787.9049	43.7131	543.6	124.3
788.0456	45.9796	552.3	131
788.1863	48.2456	560.9	134.45
788.3271	50.5112	576.55	147.15
788.4679	52.7764	588.9	156.2
788.6087	55.0411	601.35	161.3
788.7496	57.3054	611.45	167.6
788.8904	59.5692	627.45	181.35
789.0313	61.8326	641.8	194.65
789.1722	64.0955	654.15	204.6
789.3132	66.3579	678.25	226.45
789.4541	68.6199	707.1	249.95
789.5951	70.8815	742.75	279
789.7361	73.1426	841.65	373.8
789.8771	75.4032	1073.95	604.4
790.0181	77.6634	1638.6	1166.15
790.1592	79.9231	3013.8	2539.5
790.3003	82.1824	5949.95	5474.45
790.4414	84.4412	11200.5	10714.8
790.5825	86.6995	18265.9	17773.95
790.7237	88.9574	25110.25	24614.9
790.8648	91.2148	30071.4	29571.75
791.006	93.4717	32697.85	32193.8
791.1472	95.7282	33859	33354.6
791.2885	97.9842	34489.3	33983.6
791.4297	100.2398	34686.2	34177.85
791.571	102.4949	34829.35	34318.9
791.7123	104.7495	34827	34310.85
791.8536	107.0036	34866.6	34350
791.9949	109.2573	34910.95	34395.5
792.1363	111.5105	34969.8	34451.05
792.2777	113.7632	34966.9	34445.1
792.4191	116.0154	35070.9	34539.2
792.5605	118.2672	35203.85	34678.95
792.7019	120.5185	35237.45	34710.8
792.8434	122.7693	35349.05	34819.15
792.9849	125.0197	35442.6	34907.25
793.1264	127.2696	35475.35	34937.1
793.2679	129.519	35643.9	35102.4
793.4094	131.7679	35721.6	35180.3
793.551	134.0163	35846.6	35301.55
793.6926	136.2642	35844.75	35296.6
793.8342	138.5117	35918.7	35367.25
793.9758	140.7587	35991.6	35440.2
794.1175	143.0052	35991.7	35436.75
794.2591	145.2512	36020.6	35464.55
794.4008	147.4967	36028.7	35468.25
794.5425	149.7417	35987.05	35422.9
794.6842	151.9863	36022.05	35454.15
794.826	154.2304	36083.95	35515.45
794.9677	156.4739	36009.7	35433.05
795.1095	158.717	36092.85	35518.25
795.2513	160.9596	36132.45	35552.4
795.3931	163.2017	36164.4	35582.35
795.535	165.4433	36185.25	35602.35
795.6768	167.6844	36233.5	35646
795.8187	169.925	36256.2	35667
795.9606	172.1651	36195.25	35600.5
796.1025	174.4047	36241.7	35644.1
796.2445	176.6439	36220.4	35619.9
796.3864	178.8825	36239.6	35638.65
796.5284	181.1206	36346.65	35741.3
796.6704	183.3582	36337.25	35728.55
796.8124	185.5954	36412.4	35802.2
796.9544	187.832	36454.3	35842.1
797.0965	190.0681	36626.25	36009.7
797.2386	192.3037	36641.95	36021.7
797.3806	194.5388	36724.85	36102
797.5228	196.7734	36754.8	36129.8
797.6649	199.0075	36952.6	36324.9
797.807	201.2411	37160.3	36531.8
797.9492	203.4742	37147	36517.9
798.0914	205.7068	37307.4	36674.1
798.2336	207.9389	37381.55	36744.75
798.3758	210.1704	37456.75	36828.7
798.518	212.4015	37413.8	36797.4
798.6603	214.632	37519.4	36908.3
798.8025	216.862	37579.9	36969.05
798.9448	219.0915	37600.85	36986.55
799.0871	221.3205	37717.75	37102.2
799.2294	223.549	37795.45	37183.55
799.3718	225.777	37901.7	37288
799.5141	228.0044	37928.55	37306.7
799.6565	230.2314	38051.95	37429.35
799.7989	232.4578	37990.75	37362.65
799.9413	234.6837	38092.45	37455.8
800.0837	236.909	38148.4	37509.9
800.2262	239.1339	38209.1	37549.5
800.3687	241.3582	38254	37609
800.5111	243.582	38232.7	37555.2
800.6536	245.8053	38312.3	37648.85
800.7961	248.0281	38314.45	37656.7
800.9387	250.2503	38350.55	37686.45
801.0812	252.472	38406.55	37740.95
801.2238	254.6932	38505.65	37840.45
801.3664	256.9139	38416.7	37751.45
801.509	259.134	38574.35	37905.45
801.6516	261.3536	38569.55	37902.95
801.7942	263.5727	38653.25	37981
801.9369	265.7912	38586	37918.2
802.0795	268.0092	38732.1	38063.7
802.2222	270.2267	38793.35	38120.95
802.3649	272.4436	38814.7	38140.65
802.5076	274.6601	38892.35	38209.7
802.6504	276.8759	38759.75	38080.7
802.7931	279.0913	38894.7	38215.25
802.9359	281.3061	38908.1	38226
803.0787	283.5204	39003.05	38320.15
803.2215	285.7341	39050.85	38364.9
803.3643	287.9473	39151.2	38452.85
803.5071	290.16	39112.65	38423.15
803.6499	292.3721	39110.65	38424.95
803.7928	294.5837	39051.85	38364.15
803.9357	296.7947	38980.35	38296.2
804.0786	299.0052	39036.1	38349.2
804.2215	301.2152	38963	38271.9
804.3644	303.4246	38973.25	38286.35
804.5074	305.6334	39008.25	38318.25
804.6503	307.8418	39065.4	38369.55
804.7933	310.0495	39025.9	38329.65
804.9363	312.2568	38984.6	38289.5
805.0793	314.4635	38834.6	38139.25
805.2223	316.6696	38782	38084.1
805.3653	318.8752	38703.65	37995.35
805.5084	321.0802	38658.9	37956.7
805.6514	323.2847	38656.15	37953.55
805.7945	325.4887	38607.05	37902.5
805.9376	327.692	38550.55	37842.9
806.0807	329.8949	38706.65	37999.5
806.2238	332.0972	38707.5	37998
806.367	334.2989	38790.8	38081.85
806.5101	336.5001	38727.65	38018.05
806.6533	338.7007	38768.1	38055.2
806.7965	340.9008	38802.75	38088.65
806.9397	343.1003	38711.9	37994.25
807.0829	345.2992	38720.75	38003.45
807.2261	347.4976	38661.75	37943.2
807.3693	349.6955	38678.05	37955.5
807.5126	351.8927	38775.25	38051.4
807.6559	354.0895	38631.15	37894.3
807.7991	356.2856	38687.3	37961.35
807.9424	358.4812	38600.7	37874.7
808.0857	360.6763	38716.95	37988.95
808.2291	362.8707	38575.35	37843.85
808.3724	365.0646	38692.7	37960.35
808.5158	367.258	38608.9	37874.95
808.6591	369.4508	38551.7	37813.35
808.8025	371.643	38608.5	37871.35
808.9459	373.8346	38488.45	37750.4
809.0893	376.0257	38456.75	37716.15
809.2327	378.2162	38424.95	37683.65
809.3762	380.4062	38449.65	37707.55
809.5196	382.5956	38302.35	37563.2
809.6631	384.7844	38347.55	37614.65
809.8066	386.9726	38224.75	37491.55
809.9501	389.1603	38188.6	37457.5
810.0936	391.3474	38161	37378.35
810.2371	393.5339	38161.25	37423.2
810.3806	395.7199	38016.1	37281.5
810.5241	397.9052	38077.85	37341.7
810.6677	400.09	38095.9	37357.85
810.8113	402.2743	38059.7	37320.55
810.9548	404.4579	38027.85	37287
811.0984	406.641	38067.6	37323.55
811.2421	408.8235	38140.5	37397.55
811.3857	411.0054	38175.1	37427.65
811.5293	413.1868	38300.7	37551.65
811.673	415.3675	38234.9	37483.4
811.8166	417.5477	38273.15	37518
811.9603	419.7273	38176.95	37419.95
812.104	421.9064	37997.85	37231.55
812.2477	424.0848	37913.65	37154.6
812.3914	426.2627	37806.8	37046.25
812.5351	428.4399	37733.7	36973.15
812.6788	430.6166	37614.85	36849.75
812.8226	432.7928	37530.1	36766.1
812.9663	434.9683	37431.6	36666.85
813.1101	437.1432	37316.35	36548.6
813.2539	439.3176	37204.7	36441.25
813.3977	441.4914	37061.2	36295
813.5415	443.6645	37079.55	36311.25
813.6853	445.8371	36949	36182.1
813.8291	448.0091	36796.65	36029.15
813.973	450.1806	36707.8	35937.45
814.1168	452.3514	36623.15	35851.3
814.2607	454.5216	36672.35	35891.9
814.4046	456.6913	36427.25	35653.1
814.5485	458.8603	36506.85	35735.2
814.6924	461.0288	36515.7	35745
814.8363	463.1967	36430.25	35657.85
814.9802	465.3639	36443.75	35669.95
815.1241	467.5306	36392.5	35619.3
815.2681	469.6967	36295.4	35521.8
815.412	471.8622	36195.3	35421.35
815.556	474.0271	36193.75	35418.45
815.7	476.1914	36149.6	35370.4
815.844	478.3551	36149.85	35374.6
815.988	480.5182	36190	35412.3
816.132	482.6807	36132.9	35355.25
816.276	484.8426	36202.25	35425.1
816.4201	487.0039	36240.85	35461.1
816.5641	489.1647	36307	35527.65
816.7082	491.3248	36381	35599.1
816.8522	493.4843	36313.5	35532.65
816.9963	495.6432	36259.8	35477.95
817.1404	497.8015	36186.3	35401.45
817.2845	499.9592	36204.65	35422.1
817.4286	502.1163	36116.1	35332.35
817.5727	504.2728	35956.7	35169.85
817.7168	506.4287	36050.45	35265.95
817.861	508.5839	35934	35147.35
818.0051	510.7386	35912.85	35125.05
818.1493	512.8927	35926.8	35132
818.2935	515.0461	35923.45	35135.45
818.4377	517.199	35892.8	35104.8
818.5818	519.3512	35869.8	35079.35
818.726	521.5029	35884.4	35087.05
818.8703	523.6539	35897.3	35103.55
819.0145	525.8043	35919.3	35125.55
819.1587	527.9541	35805.1	35010.75
819.303	530.1033	35731.6	34938.2
819.4472	532.2519	35607	34813.25
819.5915	534.3999	35590.5	34793.85
819.7357	536.5472	35554.85	34760.1
819.88	538.694	35551.4	34755.35
820.0243	540.8401	35572.55	34775.8
820.1686	542.9856	35557.45	34759.5
820.3129	545.1305	35458.3	34658.45
820.4572	547.2748	35594.45	34796.3
820.6016	549.4185	35499.3	34696.05
820.7459	551.5615	35469.5	34669.55
820.8902	553.704	35432.05	34634.05
821.0346	555.8458	35355.7	34559.85
821.1789	557.987	35375.3	34578.9
821.3233	560.1276	35391.35	34590.55
821.4677	562.2675	35432.7	34633.45
821.6121	564.4069	35409.9	34611.5
821.7565	566.5456	35353.65	34555.8
821.9009	568.6837	35323.95	34521.65
822.0453	570.8212	35161.75	34361.2
822.1897	572.958	35066.15	34262.1
822.3342	575.0942	34940.3	34139.3
822.4786	577.2299	34864.2	34060
822.6231	579.3648	34736.25	33932.5
822.7675	581.4992	34609.95	33804.85
822.912	583.6329	34431	33626.3
823.0565	585.766	34418.05	33613.2
823.201	587.8985	34376.65	33571.5
823.3454	590.0304	34370	33551.35
823.4899	592.1616	34314.8	33505.1
823.6345	594.2922	34240.35	33430.7
823.779	596.4222	34119.45	33309.55
823.9235	598.5515	34057.55	33248.5
824.068	600.6802	33973.6	33163.1
824.2126	602.8083	33790.65	32980.65
824.3571	604.9358	33806.2	32996.1
824.5017	607.0626	33656.6	32847.4
824.6462	609.1888	33607.4	32796.15
824.7908	611.3144	33581.4	32767.55
824.9354	613.4393	33517.6	32705.9
825.08	615.5636	33529.4	32717.1
825.2246	617.6873	33560.2	32747.35
825.3692	619.8103	33572.05	32757.1
825.5138	621.9327	33506.55	32690.05
825.6584	624.0544	33477.2	32664.3
825.803	626.1756	33393.95	32580.9
825.9477	628.2961	33341.35	32525.3
826.0923	630.4159	33236.35	32420.55
826.237	632.5351	33213.8	32396
826.3816	634.6537	33162.05	32344
826.5263	636.7716	33134.7	32317.35
826.6709	638.8889	33114.3	32296.15
826.8156	641.0056	33164.6	32347.25
826.9603	643.1216	33072.7	32252.9
827.105	645.237	33142.95	32322.95
827.2497	647.3518	33003	32184.05
827.3944	649.4659	33037.8	32218.8
827.5391	651.5793	32918.9	32096.55
827.6838	653.6922	32859.45	32038.15
827.8285	655.8043	32769.3	31946.35
827.9733	657.9159	32721.8	31898.45
828.118	660.0268	32661.95	31839.65
828.2627	662.137	32592.45	31768.25
828.4075	664.2466	32618.85	31794.9
828.5522	666.3556	32552.6	31729.85
828.697	668.4639	32490.1	31664.85
828.8418	670.5716	32530.85	31708.4
828.9865	672.6786	32506.3	31679.5
829.1313	674.785	32318.75	31490.9
829.2761	676.8907	32216	31389.35
829.4209	678.9958	32238.4	31411.9
829.5657	681.1002	32143.8	31316
829.7105	683.204	32103.8	31271.6
829.8553	685.3072	32036.5	31208
830.0001	687.4097	31986.65	31161.4
830.1449	689.5115	31966.9	31138.75
830.2898	691.6127	31962	31134.85
830.4346	693.7132	31838.85	31008.7
830.5794	695.8131	31911.55	31057.15
830.7243	697.9123	31883.9	31052.3
830.8691	700.0109	31858.95	31029.15
831.014	702.1089	31817.05	30986.8
831.1588	704.2061	31770.55	30941.65
831.3037	706.3028	31760	30927.55
831.4486	708.3987	31723.75	30892.5
831.5935	710.4941	31718.95	30887.9
831.7383	712.5887	31660.65	30828.6
831.8832	714.6827	31670.75	30831.7
832.0281	716.7761	31599.6	30765.5
832.173	718.8688	31580	30747.25
832.3179	720.9608	31523.05	30684.25
832.4628	723.0522	31576.25	30739.25
832.6077	725.1429	31480	30644.6
832.7527	727.233	31430.25	30595.45
832.8976	729.3224	31482.55	30649.2
833.0425	731.4112	31441.2	30604.8
833.1874	733.4993	31328.05	30490.55
833.3324	735.5867	31231.05	30395.3
833.4773	737.6735	31184.85	30347.85
833.6222	739.7596	31102.75	30265.85
833.7672	741.845	31024.7	30187.05
833.9122	743.9298	30951	30109.35
834.0571	746.014	30866.15	30027.9
834.2021	748.0974	30837.7	29998.05
834.347	750.1802	30728.25	29887.8
834.492	752.2624	30683.1	29845.45
834.637	754.3439	30521.8	29680.35
834.782	756.4247	30473.25	29623.85
834.9269	758.5048	30372.95	29532
835.0719	760.5843	30337.05	29496.5
835.2169	762.6631	30221	29381.05
835.3619	764.7413	30228.5	29387.8
835.5069	766.8188	30278.35	29434.1
835.6519	768.8956	30198.9	29355.75
835.7969	770.9718	30313.85	29473.4
835.9419	773.0473	30129.7	29289.35
836.0869	775.1221	30064.05	29221.8
836.232	777.1962	29960.85	29122.3
836.377	779.2697	29990.85	29147.85
836.522	781.3426	29958.6	29097.4
836.667	783.4147	29959.5	29114.35
836.8121	785.4862	29908.6	29067.75
836.9571	787.557	29834.1	28990.35
837.1021	789.6271	29687.3	28843.45
837.2472	791.6966	29529.6	28688
837.3922	793.7654	29349.4	28504.1
837.5373	795.8335	29375.7	28530.25
837.6823	797.901	29241.6	28396.4
837.8274	799.9678	29170.9	28323.7
837.9724	802.0339	29107.55	28263.75
838.1175	804.0993	29077.35	28223.55
838.2626	806.1641	29026.95	28180.35
838.4076	808.2282	28942.8	28098
838.5527	810.2916	28931.55	28082.4
838.6978	812.3544	28856.9	28011.95
838.8428	814.4164	28740.9	27894.6
838.9879	816.4778	28777.8	27931.65
839.133	818.5385	28697.05	27852.25
839.2781	820.5986	28737.5	27890.45
839.4232	822.658	28730.3	27882.5
839.5682	824.7166	28655.9	27809.95
839.7133	826.7747	28797.05	27948.1
839.8584	828.832	28799.2	27953.6
840.0035	830.8886	28680.45	27829.65
840.1486	832.9446	28698.05	27849.45
840.2937	834.9999	28620.65	27774.95
840.4388	837.0545	28552.95	27701.95
840.5839	839.1085	28474.4	27626.5
840.729	841.1618	28370.15	27516.95
840.8741	843.2143	28251.75	27401.3
841.0192	845.2662	28153.5	27302.95
841.1643	847.3175	28123.25	27273.9
841.3095	849.368	28009.55	27160.55
841.4546	851.4179	27978.8	27130.7
841.5997	853.467	27871.95	27025.4
841.7448	855.5155	27876.9	27027.15
841.8899	857.5633	27783.3	26932.9
842.0351	859.6105	27707.8	26857.35
842.1802	861.6569	27673.95	26823.1
842.3253	863.7027	27593	26742.05
842.4704	865.7478	27597.55	26747.1
842.6156	867.7922	27613.1	26761.75
842.7607	869.8359	27513.1	26661.1
842.9058	871.8789	27467.45	26611.7
843.0509	873.9212	27455.7	26572.15
843.1961	875.9629	27354.75	26502.85
843.3412	878.0039	27358.15	26507.35
843.4863	880.0441	27324.4	26473.8
843.6315	882.0837	27332.95	26478.1
843.7766	884.1226	27280.2	26426.9
843.9218	886.1609	27283.5	26432.8
844.0669	888.1984	27376.75	26523.6
844.212	890.2352	27449.15	26598.1
844.3572	892.2714	27337.95	26482.4
844.5023	894.3069	27276	26421.75
844.6475	896.3416	27145.7	26290.65
844.7926	898.3757	27092.9	26237.65
844.9377	900.4091	27044.55	26188.25
845.0829	902.4418	27030.9	26172.25
845.228	904.4739	26947.05	26090.15
845.3732	906.5052	26972.2	26118.45
845.5183	908.5358	26887.45	26033.2
845.6635	910.5658	26818.85	25964.05
845.8086	912.595	26774.25	25920.35
845.9538	914.6236	26681.3	25827.55
846.0989	916.6515	26632.65	25777.75
846.2441	918.6786	26552.4	25694.7
846.3892	920.7051	26522.7	25664.1
846.5344	922.7309	26500.1	25644.55
846.6795	924.756	26402.15	25545.25
846.8246	926.7804	26375.85	25518.25
846.9698	928.8041	26222.6	25364.05
847.1149	930.8272	26233.7	25376.2
847.2601	932.8495	26087.7	25230.5
847.4052	934.8711	26111.3	25252.95
847.5504	936.892	26017.2	25159.45
847.6955	938.9123	25961.25	25103.1
847.8407	940.9318	25942.1	25084.55
847.9858	942.9506	25847	24988.45
848.131	944.9688	25735.05	24877.3
848.2761	946.9862	25745.7	24887.2
848.4213	949.003	25532.8	24672.1
848.5664	951.019	25473.05	24613.5
848.7115	953.0344	25429.8	24571.6
848.8567	955.0491	25348.8	24487.95
849.0018	957.063	25356.55	24497
849.147	959.0763	25415.1	24556.95
849.2921	961.0888	25275.9	24415.2
849.4373	963.1007	25259.65	24399.35
849.5824	965.1119	25221.2	24361.4
849.7275	967.1223	25212.55	24352.2
849.8727	969.1321	25136.15	24276.65
850.0178	971.1412	25116.6	24256.5
850.1629	973.1495	25019.6	24161.65
850.3081	975.1572	25021.55	24113.9
850.4532	977.1641	24981.7	24123.8
850.5983	979.1704	24887.9	24027.15
850.7435	981.1759	24846.3	23981.9
850.8886	983.1808	24798.85	23934.05
851.0337	985.1849	24749.85	23883.65
851.1788	987.1884	24660.5	23795.55
851.324	989.1911	24659.1	23793.7
851.4691	991.1932	24615.8	23753.3
851.6142	993.1945	24519.4	23658.8
851.7593	995.1951	24345.45	23483.4
851.9045	997.1951	24351.4	23482.2
852.0496	999.1943	24246.55	23386.15
852.1947	1001.1928	24179.3	23315.5
852.3398	1003.1906	24066.6	23205
852.4849	1005.1877	24092.95	23228.8
852.63	1007.1841	24005.75	23141.4
852.7751	1009.1798	23912.2	23048.95
852.9202	1011.1748	23850.25	22987.9
853.0653	1013.1691	23729.85	22866.6
853.2104	1015.1627	23665.15	22803.05
853.3555	1017.1556	23498.25	22634.2
853.5006	1019.1477	23439.85	22575.45
853.6457	1021.1392	23308.3	22447.05
853.7908	1023.1299	23222.25	22360.3
853.9359	1025.12	23175.85	22309.85
854.081	1027.1093	23044.1	22180.55
854.2261	1029.0979	22996.85	22135.6
854.3712	1031.0859	22911.5	22049
854.5163	1033.0731	22896.65	22032.2
854.6613	1035.0596	22807.2	21943.65
854.8064	1037.0454	22736.7	21870.75
854.9515	1039.0304	22654.1	21786
855.0965	1041.0148	22513.05	21649.9
855.2416	1042.9985	22493.7	21629.5
855.3867	1044.9814	22445.8	21582.35
855.5317	1046.9636	22356.2	21489.35
855.6768	1048.9452	22286.95	21423.9
855.8219	1050.926	22262.4	21399.15
855.9669	1052.9061	22212.95	21349.35
856.112	1054.8855	22165.85	21301.25
856.257	1056.8642	22099.4	21233.3
856.4021	1058.8421	22111.8	21241.85
856.5471	1060.8194	22008.85	21142.1
856.6921	1062.7959	22000.95	21137.25
856.8372	1064.7717	21932.65	21064.7
856.9822	1066.7469	21911.25	21043.1
857.1272	1068.7213	21831.75	20961.9
857.2723	1070.695	21810.45	20945.3
857.4173	1072.6679	21768.15	20901.45
857.5623	1074.6402	21758.75	20893
857.7073	1076.6117	21747.35	20876.2
857.8523	1078.5826	21720.1	20853.75
857.9973	1080.5527	21630.35	20760.6
858.1423	1082.5221	21533.95	20665.65
858.2873	1084.4908	21473.25	20606.45
858.4323	1086.4587	21377.3	20508.45
858.5773	1088.426	21346.2	20480.8
858.7223	1090.3925	21296.85	20424.9
858.8673	1092.3584	21274.55	20408.05
859.0123	1094.3235	21179.9	20312.65
859.1573	1096.2879	21130.5	20261.7
859.3022	1098.2515	21122.05	20253.3
859.4472	1100.2145	21126.55	20259.7
859.5922	1102.1767	21114.05	20241.75
859.7371	1104.1382	21112.2	20242.35
859.8821	1106.099	21071.05	20201.8
860.027	1108.0591	21073.25	20206.05
860.172	1110.0185	21046.4	20177.25
860.3169	1111.9771	21040.15	20172.95
860.4619	1113.9351	20978.3	20111.1
860.6068	1115.8923	21002.3	20133.95
860.7517	1117.8488	20989.5	20120.7
860.8967	1119.8045	20880.95	20012.95
861.0416	1121.7596	20788.5	19919.15
861.1865	1123.7139	20612.55	19743.95
861.3314	1125.6675	20522.15	19654.25
861.4763	1127.6204	20531.55	19663.75
861.6212	1129.5726	20464.2	19593.25
861.7661	1131.524	20441.3	19573.45
861.911	1133.4748	20376.35	19507.8
862.0559	1135.4248	20309.45	19438.2
862.2008	1137.3741	20212.35	19342.8
862.3457	1139.3226	20155.45	19284.75
862.4905	1141.2705	20161.15	19291.85
862.6354	1143.2176	20046.05	19170.75
862.7803	1145.164	20074.1	19202.6
862.9251	1147.1097	20027.25	19156.9
863.07	1149.0546	19994.1	19124.45
863.2148	1150.9989	19929.25	19060.9
863.3597	1152.9424	19916.2	19045.1
863.5045	1154.8852	19857.85	18988.75
863.6493	1156.8272	19843.95	18976.95
863.7942	1158.7686	19834.15	18956.3
863.939	1160.7092	19758	18886.1
864.0838	1162.6491	19690.6	18817.85
864.2286	1164.5883	19663.95	18793.6
864.3734	1166.5267	19671.55	18800.75
864.5182	1168.4644	19626.45	18757.35
864.663	1170.4014	19619.15	18744.6
864.8078	1172.3377	19688.95	18821.15
864.9526	1174.2732	19657.05	18787.5
865.0974	1176.2081	19723.85	18851.25
865.2421	1178.1421	19824.3	18947.8
865.3869	1180.0755	19881.45	19010.75
865.5317	1182.0082	19862.4	18991.1
865.6764	1183.9401	19843.15	18971.25
865.8212	1185.8713	19670.15	18800.2
865.9659	1187.8017	19585.25	18715
866.1106	1189.7315	19469.5	18600.2
866.2554	1191.6605	19303.1	18432.7
866.4001	1193.5888	19198.05	18326.9
866.5448	1195.5163	19097.1	18225.2
866.6895	1197.4432	19061.4	18189.4
866.8342	1199.3693	19002.2	18130.75
866.9789	1201.2947	18880.6	18004.9
867.1236	1203.2193	18805.35	17933.2
867.2683	1205.1432	18783.7	17912.9
867.413	1207.0664	18720.85	17849.45
867.5576	1208.9889	18680.5	17806.25
867.7023	1210.9106	18602.65	17730.95
867.847	1212.8316	18517	17647.1
867.9916	1214.7519	18541.05	17659.5
868.1363	1216.6715	18458.75	17587.6
868.2809	1218.5903	18468.15	17596.05
868.4255	1220.5084	18420.5	17548.25
868.5701	1222.4257	18434.9	17563.3
868.7148	1224.3424	18343.4	17471.9
868.8594	1226.2583	18319.55	17442.5
869.004	1228.1735	18296.55	17421.8
869.1486	1230.0879	18246.9	17372.55
869.2932	1232.0016	18236.3	17363.9
869.4377	1233.9146	18188.3	17314.95
869.5823	1235.8269	18211.75	17340.1
869.7269	1237.7384	18223.6	17350.85
869.8715	1239.6492	18106.05	17233.85
870.016	1241.5592	18113.5	17240.05
870.1606	1243.4686	18112.65	17240.35
870.3051	1245.3772	18156	17282.75
870.4496	1247.285	18180	17305.45
870.5941	1249.1922	18168.4	17295.2
870.7387	1251.0986	18217.45	17343.7
870.8832	1253.0042	18211.55	17337.05
871.0277	1254.9092	18252.35	17379.05
871.1722	1256.8134	18270.95	17396.3
871.3167	1258.7169	18352.4	17478.55
871.4611	1260.6196	18353.6	17480.55
871.6056	1262.5216	18371.7	17497
871.7501	1264.4229	18329.3	17455.9
871.8945	1266.3234	18324.4	17450.15
872.039	1268.2232	18221.9	17347.7
872.1834	1270.1223	18150.25	17275.05
872.3278	1272.0207	18095.4	17222.65
872.4723	1273.9183	18049.2	17169.65
872.6167	1275.8151	18012.4	17138.2
872.7611	1277.7113	18010.75	17136.2
872.9055	1279.6067	18021.35	17145.7
873.0499	1281.5014	18106.95	17229.95
873.1943	1283.3953	18235.45	17360.1
873.3386	1285.2885	18410.55	17537.6
873.483	1287.181	18518.3	17643.85
873.6274	1289.0727	18583.3	17710.5
873.7717	1290.9637	18540.65	17665.6
873.9161	1292.854	18434.5	17559.7
874.0604	1294.7435	18263.35	17387.9
874.2047	1296.6323	18131.45	17256.15
874.349	1298.5204	18014.9	17134.7
874.4933	1300.4077	17951.55	17075.7
874.6376	1302.2943	17886.85	17013.8
874.7819	1304.1802	17888.6	17016.05
874.9262	1306.0653	17814.85	16937.7
875.0705	1307.9497	17745.8	16871.8
875.2147	1309.8333	17704.15	16829.2
875.359	1311.7162	17659.7	16785.85
875.5032	1313.5984	17626.1	16748.95
875.6475	1315.4798	17585.15	16708.95
875.7917	1317.3605	17530.35	16651.3
875.9359	1319.2405	17513.7	16636.2
876.0801	1321.1197	17487.25	16608.25
876.2243	1322.9982	17391.45	16509.65
876.3685	1324.876	17353.1	16478.1
876.5127	1326.753	17216.85	16342.7
876.6569	1328.6293	17150.7	16275
876.801	1330.5048	17061.05	16183.8
876.9452	1332.3796	16953.25	16081.65
877.0893	1334.2537	16923.2	16025.4
877.2335	1336.127	16852.45	15978.65
877.3776	1337.9996	16761.3	15884.3
877.5217	1339.8714	16725.9	15849.75
877.6658	1341.7426	16688.35	15768.25
877.8099	1343.6129	16660.45	15785.1
877.954	1345.4826	16603.7	15727.35
878.0981	1347.3515	16618.7	15741.05
878.2422	1349.2196	16541.7	15664.55
878.3862	1351.087	16541.6	15666.65
878.5303	1352.9537	16523.4	15647.7
878.6743	1354.8197	16503.55	15628.3
878.8184	1356.6849	16503	15626.85
878.9624	1358.5493	16492.2	15615.15
879.1064	1360.4131	16462.6	15586.05
879.2504	1362.276	16433.4	15557.35
879.3944	1364.1383	16452.2	15575.8
879.5384	1365.9998	16434.8	15554.65
879.6823	1367.8606	16355.05	15477.9
879.8263	1369.7206	16342.3	15465.8
879.9702	1371.5799	16286.55	15408.3
880.1142	1373.4384	16251.85	15375.9
880.2581	1375.2962	16220.75	15344.5
880.402	1377.1533	16098.5	15223.35
880.5459	1379.0096	16015.35	15138.8
880.6898	1380.8652	15950.3	15074.5
880.8337	1382.7201	15899.6	15022.7
880.9776	1384.5742	15788.15	14911.8
881.1215	1386.4275	15744.45	14866.55
881.2653	1388.2802	15637.3	14762.65
881.4092	1390.132	15598.3	14722.45
881.553	1391.9832	15596.9	14720.5
881.6968	1393.8336	15484.7	14608.7
881.8406	1395.6832	15484.2	14603.85
881.9844	1397.5322	15396.7	14521
882.1282	1399.3803	15336.8	14457.4
882.272	1401.2278	15268.4	14392.45
882.4158	1403.0745	15225.45	14348.3
882.5595	1404.9204	15148.95	14272.95
882.7033	1406.7656	15131.15	14254.75
882.847	1408.6101	15088.15	14209.25
882.9908	1410.4538	15022.4	14144.55
883.1345	1412.2968	14983.2	14106.45
883.2782	1414.139	14903.4	14026.75
883.4219	1415.9805	14938.1	14063.15
883.5656	1417.8213	14874.25	13977.1
883.7092	1419.6613	14846.7	13971.5
883.8529	1421.5006	14816.7	13938.65
883.9965	1423.3391	14812.2	13936.7
884.1402	1425.1769	14833.1	13955.8
884.2838	1427.0139	14850.95	13970.65
884.4274	1428.8502	14940.65	14061.8
884.571	1430.6858	14928.85	14053.65
884.7146	1432.5206	14890.4	14013.3
884.8582	1434.3547	14911.25	14034.35
885.0018	1436.188	14833.65	13956.65
885.1453	1438.0206	14823.25	13946.65
885.2889	1439.8524	14756.35	13878.6
885.4324	1441.6835	14735.95	13856.85
885.5759	1443.5139	14730.3	13849.05
885.7194	1445.3435	14690.3	13812.15
885.8629	1447.1724	14681.5	13804.2
886.0064	1449.0005	14648.95	13770.7
886.1499	1450.8279	14618.4	13740.1
886.2933	1452.6545	14599.7	13723.7
886.4368	1454.4804	14579.85	13704.4
886.5802	1456.3056	14556.4	13674.4
886.7237	1458.13	14521.65	13644.1
886.8671	1459.9536	14479.55	13601.95
887.0105	1461.7766	14440.7	13563.4
887.1539	1463.5987	14346.35	13469.45
887.2972	1465.4202	14292.2	13414.55
887.4406	1467.2409	14210.7	13334.05
887.584	1469.0608	14190.3	13312.4
887.7273	1470.88	14148.15	13267.95
887.8706	1472.6984	14122.95	13247.4
888.0139	1474.5161	14008	13127.15
888.1572	1476.3331	13974.5	13096.35
888.3005	1478.1493	13982.55	13105.1
888.4438	1479.9648	13953.3	13074.75
888.5871	1481.7795	13908.9	13031.3
888.7303	1483.5935	13869.05	12991.15
888.8736	1485.4067	13836.4	12958.3
889.0168	1487.2192	13823.25	12947.35
889.16	1489.031	13827.9	12948.4
889.3032	1490.842	13800.6	12925.5
889.4464	1492.6522	13761.35	12885.2
889.5896	1494.4618	13749.65	12870.65
889.7327	1496.2705	13725.85	12850
889.8759	1498.0785	13700.45	12820.05
890.019	1499.8858	13659.75	12781.1
890.1622	1501.6924	13607.2	12730.1
890.3053	1503.4981	13589.9	12712.05
890.4484	1505.3032	13566.2	12688.15
890.5914	1507.1075	13507.95	12629.3
890.7345	1508.911	13504.1	12625.6
890.8776	1510.7138	13469.7	12590.6
891.0206	1512.5159	13406.1	12527.95
891.1637	1514.3172	13355.5	12479.45
891.3067	1516.1178	13315	12438.8
891.4497	1517.9176	13328.35	12448.65
891.5927	1519.7166	13251.85	12376.05
891.7357	1521.515	13194.4	12309.65
891.8786	1523.3126	13174.95	12297.2
892.0216	1525.1094	13137.35	12257.15
892.1645	1526.9055	13078.3	12200.3
892.3074	1528.7008	13029.5	12150.25
892.4503	1530.4954	12936.55	12056.45
892.5932	1532.2893	12913.25	12036.95
892.7361	1534.0824	12851.6	11969.85
892.879	1535.8747	12843.2	11966.1
893.0218	1537.6663	12796.1	11918.5
893.1647	1539.4572	12767.45	11891.1
893.3075	1541.2473	12744.1	11864.95
893.4503	1543.0367	12681.35	11804.65
893.5931	1544.8253	12669.95	11788.05
893.7359	1546.6132	12639.85	11760
893.8787	1548.4003	12581.95	11694.65
894.0214	1550.1867	12571.75	11683.45
894.1642	1551.9723	12501.5	11619
894.3069	1553.7572	12516.75	11636.6
894.4496	1555.5414	12456.55	11577.9
894.5923	1557.3247	12460.1	11580.7
894.735	1559.1074	12465.05	11587.3
894.8777	1560.8893	12426.8	11549.95
895.0204	1562.6705	12425.15	11547.8
895.163	1564.4509	12430.9	11554.85
895.3056	1566.2305	12391.4	11514.05
895.4482	1568.0094	12416.2	11538.95
895.5908	1569.7876	12390.95	11512
895.7334	1571.565	12334.1	11455.25
895.876	1573.3417	12321.6	11445.45
896.0186	1575.1176	12269.7	11389.15
896.1611	1576.8928	12292.8	11414.3
896.3036	1578.6672	12237.35	11360.55
896.4461	1580.4409	12208.3	11331
896.5886	1582.2138	12175.25	11294.1
896.7311	1583.986	12181.35	11302.55
896.8736	1585.7575	12187.8	11310.9
897.0161	1587.5282	12205.95	11328.5
897.1585	1589.2981	12225.1	11346.7
897.3009	1591.0673	12191.75	11315.4
897.4433	1592.8358	12199.15	11320.85
897.5857	1594.6035	12154	11275.65
897.7281	1596.3704	12077.45	11199.35
897.8705	1598.1366	12035.75	11156.65
898.0128	1599.9021	11954.15	11076.2
898.1551	1601.6668	11885.75	11007.2
898.2975	1603.4308	11847.7	10969.35
898.4398	1605.194	11782	10899
898.5821	1606.9564	11765.8	10888.65
898.7243	1608.7182	11792.25	10908.85
898.8666	1610.4791	11830.45	10954.2
899.0088	1612.2394	11863.8	10987.6
899.1511	1613.9988	11943.75	11067.05
899.2933	1615.7576	12023.65	11147.75
899.4355	1617.5156	12044.65	11159.65
899.5776	1619.2728	12013.55	11135.5
899.7198	1621.0293	11893	11016.3
899.862	1622.785	11796	10912.2
900.0041	1624.54	11602.9	10721.6
900.1462	1626.2942	11447.55	10568.55
900.2883	1628.0477	11265.45	10385
900.4304	1629.8005	11186.05	10303.1
900.5725	1631.5525	11103.55	10226.25
900.7145	1633.3037	11003.6	10126.9
900.8566	1635.0542	10951.2	10074.95
900.9986	1636.804	10878.85	9998
901.1406	1638.553	10888.35	9919.6
901.2826	1640.3013	10800	9920.95
901.4245	1642.0488	10736.05	9854.95
901.5665	1643.7955	10694.15	9816.9
901.7085	1645.5416	10638.7	9759.35
901.8504	1647.2868	10597.1	9720.45
901.9923	1649.0313	10546.15	9668.25
902.1342	1650.7751	10538	9659.2
902.2761	1652.5181	10494	9617.55
902.4179	1654.2604	10444.15	9564.25
902.5598	1656.0019	10414.6	9535.55
902.7016	1657.7427	10402.45	9525.7
902.8434	1659.4828	10431.95	9551.65
902.9852	1661.222	10392.35	9512.15
903.127	1662.9606	10379.7	9500.35
903.2687	1664.6984	10405.05	9526.55
903.4105	1666.4354	10399.25	9520.45
903.5522	1668.1717	10350.6	9472.7
903.6939	1669.9072	10265.6	9386.8
903.8356	1671.642	10200.55	9321.2
903.9773	1673.3761	10140.3	9262.8
904.119	1675.1094	10072.9	9196.75
904.2606	1676.8419	10010.25	9130.95
904.4022	1678.5737	9939.3	9060.55
904.5439	1680.3048	9871.5	8994
904.6855	1682.0351	9853.85	8975.95
904.827	1683.7646	9818.65	8937.7
904.9686	1685.4934	9793.2	8914.4
905.1101	1687.2215	9704.5	8826.35
905.2517	1688.9488	9693.7	8816.1
905.3932	1690.6754	9622.75	8743.8
905.5347	1692.4012	9601.05	8722.85
905.6761	1694.1263	9541.6	8664
905.8176	1695.8506	9552.75	8674.9
905.9591	1697.5742	9528.75	8650.5
906.1005	1699.297	9472.35	8593.25
906.2419	1701.0191	9419.6	8540.5
906.3833	1702.7404	9391.95	8512.4
906.5246	1704.461	9349.1	8470.1
906.666	1706.1808	9309.1	8428.7
906.8073	1707.8999	9295.65	8413.8
906.9487	1709.6182	9260.2	8381.2
907.09	1711.3358	9225.95	8347.95
907.2313	1713.0527	9188.95	8312.65
907.3725	1714.7688	9174.45	8291.05
907.5138	1716.4841	9146.2	8266.35
907.655	1718.1987	9126	8242.75
907.7962	1719.9126	9089.85	8211.1
907.9374	1721.6257	9087.45	8207.1
908.0786	1723.338	9036.45	8156.05
908.2198	1725.0496	9013.85	8133.4
908.3609	1726.7605	9000.65	8121.7
908.502	1728.4706	8973.05	8095.1
908.6431	1730.18	8935.5	8053.85
908.7842	1731.8886	8897.2	8018.5
908.9253	1733.5964	8928.8	8029
909.0664	1735.3036	8874	7993.7
909.2074	1737.0099	8867.85	7987.25
909.3484	1738.7156	8853	7977.75
909.4894	1740.4204	8829.35	7947.85
909.6304	1742.1246	8839.5	7958.7
909.7714	1743.8279	8806.5	7928.15
909.9123	1745.5306	8797.1	7916
910.0532	1747.2325	8773.8	7896.15
910.1941	1748.9336	8767.25	7890.2
910.335	1750.634	8721.35	7840.7
910.4759	1752.3336	8721.3	7843.1
910.6168	1754.0325	8716.9	7840.15
910.7576	1755.7307	8684.75	7806.6
910.8984	1757.4281	8692.4	7813.55
911.0392	1759.1247	8683.85	7796.7
911.18	1760.8206	8655.65	7774.2
911.3208	1762.5158	8644.05	7762.25
911.4615	1764.2102	8616.4	7738.2
911.6022	1765.9039	8567.35	7688.8
911.7429	1767.5968	8572.85	7693.7
911.8836	1769.289	8544.85	7667.3
912.0243	1770.9804	8545.6	7664.05
912.1649	1772.6711	8516.9	7635.6
912.3056	1774.361	8511.6	7631.5
912.4462	1776.0502	8478.15	7599.7
912.5868	1777.7386	8466.3	7581.1
912.7274	1779.4263	8447.95	7571.25
912.8679	1781.1132	8446.2	7569.4
913.0084	1782.7994	8415.35	7536.7
913.149	1784.4849	8386.65	7508.35
913.2895	1786.1696	8391.55	7493.7
913.4299	1787.8535	8323.3	7445
913.5704	1789.5367	8317.9	7438.6
913.7108	1791.2192	8334.15	7455.9
913.8513	1792.9009	8312.9	7414.4
913.9917	1794.5818	8284.2	7403.65
914.132	1796.2621	8275.55	7398.55
914.2724	1797.9415	8235.35	7356.55
914.4128	1799.6202	8205.1	7326.35
914.5531	1801.2982	8197.95	7320.6
914.6934	1802.9755	8198.2	7319
914.8337	1804.6519	8157.3	7278.15
914.9739	1806.3277	8137.9	7259.4
915.1142	1808.0027	8098.55	7222.1
915.2544	1809.6769	8098.2	7220.45
915.3946	1811.3504	8073.5	7193.25
915.5348	1813.0231	8068.05	7188.5
915.675	1814.6951	8030.5	7151.05
915.8151	1816.3664	8045.35	7164.05
915.9553	1818.0369	8026.95	7148.5
916.0954	1819.7067	8002.2	7121.95
916.2355	1821.3757	7984.35	7103.5
916.3755	1823.044	7984.6	7105.4
916.5156	1824.7115	7925.35	7047.1
916.6556	1826.3783	7900.15	7023.3
916.7956	1828.0443	7892.65	7015.85
916.9356	1829.7096	7880.7	7000.3
917.0756	1831.3741	7880.55	6999.9
917.2155	1833.0379	7862.75	6984.75
917.3555	1834.701	7827.4	6946.15
917.4954	1836.3633	7820.35	6940.3
917.6353	1838.0248	7802.35	6922.9
917.7751	1839.6856	7769.55	6890.85
917.915	1841.3457	7771.6	6894.15
918.0548	1843.005	7753.4	6876.9
918.1946	1844.6636	7752.8	6874.3
918.3344	1846.3214	7720.5	6841.7
918.4742	1847.9785	7726.95	6849.5
918.6139	1849.6349	7709.65	6827.45
918.7537	1851.2904	7687.5	6799.5
918.8934	1852.9453	7673.85	6793.15
919.0331	1854.5994	7653.6	6770.85
919.1727	1856.2528	7635.55	6754.05
919.3124	1857.9054	7607	6729.8
919.452	1859.5572	7619.4	6740.5
919.5916	1861.2083	7597.15	6715.35
919.7312	1862.8587	7600.5	6720.2
919.8708	1864.5084	7581.7	6702
920.0103	1866.1572	7564.65	6686.5
920.1498	1867.8054	7517.25	6636.95
920.2893	1869.4528	7508.2	6630.45
920.4288	1871.0994	7492.3	6613.35
920.5683	1872.7453	7480.1	6599.45
920.7077	1874.3905	7467.65	6582.8
920.8471	1876.0349	7432	6553.7
920.9865	1877.6786	7427	6546.9
921.1259	1879.3215	7429.9	6552
921.2653	1880.9637	7424.7	6544.85
921.4046	1882.6051	7386.65	6506.55
921.5439	1884.2458	7375.65	6492.65
921.6832	1885.8858	7371	6493.25
921.8225	1887.525	7352.6	6472.65
921.9617	1889.1634	7317.3	6437.55
922.101	1890.8011	7292.55	6414.65
922.2402	1892.4381	7287.35	6409.1
922.3794	1894.0743	7281.75	6405
922.5185	1895.7098	7278.6	6400.15
922.6577	1897.3446	7261.2	6379.5
922.7968	1898.9786	7252.2	6370.9
922.9359	1900.6118	7220.6	6341.35
923.075	1902.2443	7187.35	6304.85
923.214	1903.8761	7178.7	6300.2
923.3531	1905.5071	7142.15	6260.15
923.4921	1907.1374	7148.4	6268.8
923.6311	1908.7669	7147.75	6270.05
923.77	1910.3957	7100.85	6223.45
923.909	1912.0237	7072.75	6195.8
924.0479	1913.651	7057.4	6178.35
924.1868	1915.2776	7044.75	6168.95
924.3257	1916.9034	7018.45	6142.8
924.4646	1918.5285	7000.8	6122.55
924.6034	1920.1528	6980.35	6100.55
924.7422	1921.7764	6943.8	6066.7
924.881	1923.3992	6925.8	6044.3
925.0198	1925.0213	6892.95	6014.6
925.1586	1926.6427	6891.1	6013.9
925.2973	1928.2633	7023.2	5938.15
925.436	1929.8832	6880.15	5996.85
925.5747	1931.5023	6826	5947
925.7134	1933.1207	6819.7	5940.65
925.852	1934.7383	6802.6	5922.65
925.9906	1936.3552	6786.05	5907.7
926.1292	1937.9714	6771.8	5892.05
926.2678	1939.5868	6733.75	5851.1
926.4064	1941.2015	6706.45	5826.6
926.5449	1942.8154	6689.5	5810.25
926.6834	1944.4286	6664.7	5786
926.8219	1946.041	6682.15	5779.6
926.9604	1947.6528	6607.7	5723.4
927.0988	1949.2637	6614.45	5734.4
927.2372	1950.8739	6585	5704.2
927.3756	1952.4834	6584.35	5704
927.514	1954.0921	6580.5	5701
927.6523	1955.7001	6571.6	5689.5
927.7907	1957.3074	6544.95	5667.25
927.929	1958.9139	6520.45	5642.15
928.0673	1960.5197	6501.25	5622.1
928.2055	1962.1247	6478.75	5598.4
928.3438	1963.729	6452.95	5574.45
928.482	1965.3325	6459.55	5557.8
928.6202	1966.9353	6421.9	5543.45
928.7584	1968.5374	6399.55	5520.4
928.8965	1970.1387	6391.3	5512.55
929.0346	1971.7393	6371.8	5491.9
929.1727	1973.3392	6352.2	5474.9
929.3108	1974.9383	6337.5	5460.2
929.4489	1976.5366	6316.1	5437.85
929.5869	1978.1342	6301.5	5421.45
929.7249	1979.7311	6296.05	5416
929.8629	1981.3273	6277.35	5397.55
930.0009	1982.9227	6275.65	5395.8
930.1388	1984.5173	6247	5366.9
930.2767	1986.1112	6222.05	5345.05
930.4146	1987.7044	6199.5	5320.45
930.5525	1989.2968	6185.35	5304.1
930.6904	1990.8885	6193.1	5308.95
930.8282	1992.4795	6175.65	5295.45
930.966	1994.0697	6151.95	5273.65
931.1038	1995.6592	6136.25	5258.3
931.2415	1997.2479	6146.7	5267.6
931.3793	1998.8359	6109.45	5231.55
931.517	2000.4232	6088.5	5208
931.6547	2002.0097	6093.6	5216.6
931.7923	2003.5955	6061.5	5180.9
931.93	2005.1805	6059.4	5178.85
932.0676	2006.7648	6045.7	5167.35
932.2052	2008.3484	6033.8	5154.55
932.3427	2009.9312	6026.4	5147.35
932.4803	2011.5133	5996.75	5117.8
932.6178	2013.0946	5976.95	5098.75
932.7553	2014.6752	5973.35	5096.5
932.8928	2016.2551	5973.35	5095.25
933.0302	2017.8342	5948.15	5068.75
933.1676	2019.4126	5933.7	5055.2
933.305	2020.9902	5932.2	5053.2
933.4424	2022.5672	5918.2	5037.85
933.5798	2024.1433	5912.2	5026.05
933.7171	2025.7188	5898.6	5020.6
933.8544	2027.2935	5869.7	4989.7
933.9917	2028.8674	5853.4	4975.85
934.129	2030.4406	5846.05	4968.25
934.2662	2032.0131	5818.8	4941.55
934.4034	2033.5849	5786.35	4904.65
934.5406	2035.1559	5788.4	4909.8
934.6778	2036.7261	5771.4	4892
934.8149	2038.2957	5767.6	4889.45
934.952	2039.8645	5792.05	4914.45
935.0891	2041.4325	5783.7	4900.4
935.2262	2042.9998	5761.25	4883.1
935.3632	2044.5664	5756.6	4875.75
935.5002	2046.1323	5729.05	4850.35
935.6372	2047.6974	5715.35	4836
935.7742	2049.2617	5692.5	4816.5
935.9111	2050.8254	5723.8	4822.9
936.048	2052.3883	5710.95	4830.25
936.1849	2053.9504	5656.6	4776.5
936.3218	2055.5118	5686.8	4806
936.4586	2057.0725	5651.25	4767.6
936.5955	2058.6325	5652.65	4772.65
936.7323	2060.1917	5612.3	4733.9
936.869	2061.7502	5626	4745.3
937.0058	2063.3079	5606.65	4729.75
937.1425	2064.8649	5591.4	4710
937.2792	2066.4212	5585.2	4706.15
937.4159	2067.9767	5582.45	4706.75
937.5525	2069.5315	5553.3	4674.95
937.6891	2071.0856	5545.95	4666.45
937.8257	2072.6389	5524.05	4643.2
937.9623	2074.1915	5502.1	4625.25
938.0989	2075.7433	5495.95	4614.05
938.2354	2077.2945	5483.95	4607.95
938.3719	2078.8448	5458.15	4579.1
938.5084	2080.3945	5462.8	4586
938.6448	2081.9434	5451.65	4572.6
938.7812	2083.4916	5439.95	4560.15
938.9176	2085.039	5430.4	4550.5
939.054	2086.5857	5420.2	4539.85
939.1903	2088.1317	5409.55	4529.7
939.3267	2089.677	5396.05	4517
939.463	2091.2215	5395.1	4516.75
939.5992	2092.7652	5399.75	4519.25
939.7355	2094.3083	5386.1	4507
939.8717	2095.8506	5380.3	4502.95
940.0079	2097.3921	5354.2	4478.5
940.1441	2098.933	5343.8	4463.75
940.2802	2100.4731	5338	4461.4
940.4163	2102.0124	5359.45	4461.45
940.5524	2103.5511	5352.6	4474.2
940.6885	2105.089	5328.15	4448.35
940.8245	2106.6261	5335.1	4456.45
940.9606	2108.1626	5309.15	4428.55
941.0965	2109.6983	5326.5	4421.7
941.2325	2111.2332	5309	4428.55
941.3684	2112.7675	5286.6	4407.8
941.5044	2114.301	5263.75	4382.1
941.6403	2115.8337	5269.5	4390.55
941.7761	2117.3657	5265.05	4386.4
941.912	2118.897	5254.25	4374.25
942.0478	2120.4276	5236.45	4351.8
942.1835	2121.9575	5221.1	4342.4
942.3193	2123.4866	5223.25	4342.65
942.455	2125.0149	5220.35	4337.25
942.5907	2126.5426	5185	4304.75
942.7264	2128.0695	5189.05	4304.2
942.8621	2129.5956	5176.4	4297.9
942.9977	2131.1211	5169.1	4285.9
943.1333	2132.6458	5160.25	4282.8
943.2689	2134.1698	5146.45	4268.6
943.4044	2135.693	5147.9	4267.7
943.54	2137.2155	5127.1	4245.55
943.6755	2138.7373	5124.2	4245.7
943.8109	2140.2584	5094.05	4215.35
943.9464	2141.7787	5090.2	4205.75
944.0818	2143.2983	5079.35	4203
944.2172	2144.8171	5061.6	4182.05
944.3526	2146.3353	5060.7	4178.85
944.4879	2147.8527	5026.6	4148.25
944.6232	2149.3693	5034.2	4152.95
944.7585	2150.8853	5018.75	4139.25
944.8938	2152.4005	4994.35	4116.2
945.029	2153.9149	5004.05	4123.95
945.1642	2155.4287	4982	4104.45
945.2994	2156.9417	4973.3	4092.9
945.4346	2158.454	4975.1	4094.95
945.5697	2159.9655	4952.85	4075.1
945.7048	2161.4764	4952.35	4072.2
945.8399	2162.9865	4925.65	4046.35
945.9749	2164.4958	4921.05	4040.65
946.1099	2166.0045	4915.4	4035
946.2449	2167.5124	4907	4027.55
946.3799	2169.0195	4888.65	4010.5
946.5148	2170.526	4872.75	3993.1
946.6498	2172.0317	4877.5	3999.6
946.7846	2173.5367	4872.85	3994.9
946.9195	2175.0409	4863.65	3985.45
947.0543	2176.5445	4845.9	3967.2
947.1891	2178.0473	4831.6	3953.45
947.3239	2179.5494	4815.25	3932.4
947.4587	2181.0507	4808.85	3928.6
947.5934	2182.5513	4802.5	3923.5
947.7281	2184.0512	4786.45	3908.45
947.8628	2185.5504	4783.25	3907
947.9974	2187.0488	4754.05	3874.2
948.132	2188.5465	4756.55	3878.6
948.2666	2190.0435	4732.3	3854.7
948.4012	2191.5397	4712.55	3834.35
948.5357	2193.0353	4704.95	3825.65
948.6702	2194.5301	4681.05	3800.8
948.8047	2196.0241	4688.6	3809.4
948.9392	2197.5175	4661.7	3784.35
949.0736	2199.0101	4657.05	3773.5
949.208	2200.502	4637.95	3760.25
949.3424	2201.9931	4613.55	3734.7
949.4767	2203.4835	4604.9	3723.85
949.611	2204.9733	4610.95	3728.45
949.7453	2206.4622	4605.6	3727.85
949.8796	2207.9505	4593.55	3711
950.0138	2209.438	4569.55	3691.5
950.148	2210.9248	4568.8	3688.05
950.2822	2212.4109	4546.8	3670.45
950.4164	2213.8962	4543.3	3661.6
950.5505	2215.3809	4543.6	3665.55
950.6846	2216.8648	4512.55	3632.55
950.8186	2218.3479	4505.6	3623.3
950.9527	2219.8304	4484.35	3603.65
951.0867	2221.3121	4478.15	3596.65
951.2207	2222.7931	4467.75	3589.65
951.3546	2224.2733	4457.35	3577.3
951.4886	2225.7529	4434.1	3553.35
951.6225	2227.2317	4457.5	3578.3
951.7563	2228.7098	4417.15	3539.85
951.8902	2230.1872	4404.8	3525.4
952.024	2231.6638	4391.5	3513.55
952.1578	2233.1397	4399.6	3514.25
952.2916	2234.6149	4377.3	3499.55
952.4253	2236.0894	4366.95	3485
952.559	2237.5632	4355.85	3475.65
952.6927	2239.0362	4350.95	3470.55
952.8263	2240.5085	4333.2	3453.35
952.9599	2241.9801	4319.45	3440.2
953.0935	2243.4509	4307.65	3428.5
953.2271	2244.921	4298.3	3420.75
953.3606	2246.3904	4290.4	3409.6
953.4941	2247.8591	4271.3	3394.1
953.6276	2249.3271	4266.2	3387.65
953.7611	2250.7943	4241.7	3362.75
953.8945	2252.2608	4229.5	3349.7
954.0279	2253.7266	4224.65	3345.5
954.1612	2255.1917	4233.05	3355.5
954.2946	2256.656	4203.8	3325.65
954.4279	2258.1197	4198.25	3320.1
954.5612	2259.5826	4198.05	3319.45
954.6944	2261.0447	4183	3303.1
954.8276	2262.5062	4164	3283.55
954.9608	2263.9669	4158.8	3278.35
955.094	2265.4269	4148.05	3270.35
955.2271	2266.8862	4147	3268.55
955.3602	2268.3448	4130.2	3249.9
955.4933	2269.8026	4130.75	3250.4
955.6264	2271.2598	4119.9	3242.05
955.7594	2272.7162	4106.9	3231.4
955.8924	2274.1719	4089.95	3211.2
956.0253	2275.6268	4085.65	3208.75
956.1583	2277.0811	4087.1	3207.55
956.2912	2278.5346	4070.9	3191.9
956.4241	2279.9874	4065.9	3187.25
956.5569	2281.4395	4062.05	3182.7
956.6897	2282.8908	4052.35	3168.1
956.8225	2284.3414	4048.4	3168.9
956.9553	2285.7914	4022.95	3144.7
957.088	2287.2406	4015.5	3134.9
957.2207	2288.689	4005.7	3126.3
957.3534	2290.1368	4003.25	3124.3
957.486	2291.5838	3995.6	3114.6
957.6186	2293.0302	3986	3105.9
957.7512	2294.4758	3964.9	3085.15
957.8838	2295.9206	3955.5	3073.8
958.0163	2297.3648	3951.5	3071.05
958.1488	2298.8082	3952.8	3074.25
958.2813	2300.251	3940.9	3063.55
958.4137	2301.693	3918.1	3035.8
958.5461	2303.1343	3927.6	3049.7
958.6785	2304.5748	3900	3021.95
958.8108	2306.0147	3906.05	3026.85
958.9432	2307.4538	3878.95	2997.1
959.0754	2308.8922	3876.35	2999.15
959.2077	2310.3299	3871.25	2988.2
959.3399	2311.7669	3864.55	2988.3
959.4721	2313.2031	3839.25	2959.7
959.6043	2314.6387	3836.7	2958.6
959.7365	2316.0735	3836.2	2957.55
959.8686	2317.5076	3824.05	2946.7
960.0006	2318.941	3817.65	2937.65
960.1327	2320.3737	3812.65	2932.5
960.2647	2321.8056	3783.55	2903.45
960.3967	2323.2369	3783.4	2904.15
960.5287	2324.6674	3773.2	2891.95
960.6606	2326.0972	3753.15	2873.55
960.7925	2327.5263	3757.95	2880.05
960.9244	2328.9547	3743.95	2864.2
961.0562	2330.3823	3738.1	2859
961.1881	2331.8092	3743.3	2859.9
961.3198	2333.2355	3718.05	2841.2
961.4516	2334.661	3704.4	2824.75
961.5833	2336.0858	3698.5	2817.2
961.715	2337.5098	3694.7	2815.15
961.8467	2338.9332	3684.15	2803.9
961.9783	2340.3558	3695.6	2811.9
962.1099	2341.7778	3664.1	2785.25
962.2415	2343.199	3648.25	2765.85
962.373	2344.6195	3654.2	2775.8
962.5045	2346.0393	3642.35	2764.35
962.636	2347.4583	3627.65	2748.2
962.7675	2348.8767	3629.45	2749.8
962.8989	2350.2943	3628.45	2749.5
963.0303	2351.7113	3614.4	2734
963.1617	2353.1275	3600.8	2720.35
963.293	2354.543	3594.15	2708.2
963.4243	2355.9578	3583.6	2702.85
963.5556	2357.3718	3576.5	2698.05
963.6868	2358.7852	3552.1	2667.35
963.818	2360.1978	3550.85	2670.9
963.9492	2361.6098	3541.4	2661.3
964.0803	2363.021	3536.45	2653.5
964.2114	2364.4315	3525.2	2647.7
964.3425	2365.8413	3522.35	2639.35
964.4736	2367.2504	3496.75	2618.5
964.6046	2368.6587	3486.4	2607.15
964.7356	2370.0664	3484.9	2607
964.8666	2371.4733	3468.15	2586.95
964.9975	2372.8795	3462.9	2584.05
965.1284	2374.285	3450.5	2570.15
965.2593	2375.6899	3437.35	2559.65
965.3901	2377.0939	3418.65	2539.6
965.5209	2378.4973	3421.65	2542.55
965.6517	2379.9	3400.85	2520.95
965.7825	2381.3019	3388.65	2509.35
965.9132	2382.7032	3407.95	2527.8
966.0439	2384.1037	3392.45	2515.65
966.1745	2385.5035	3373.3	2492.55
966.3051	2386.9027	3351.75	2474
966.4357	2388.3011	3369.4	2487.55
966.5663	2389.6987	3350.55	2472.25
966.6968	2391.0957	3348.25	2468.25
966.8273	2392.492	3330.8	2452.9
966.9578	2393.8876	3312.1	2432.2
967.0882	2395.2824	3303.4	2425.3
967.2186	2396.6765	3291.55	2412.95
967.349	2398.07	3282.25	2402.15
967.4793	2399.4627	3284.9	2405.35
967.6097	2400.8547	3270.15	2391.45
967.7399	2402.246	3268.2	2382.05
967.8702	2403.6366	3240.75	2360.45
968.0004	2405.0265	3241.95	2364
968.1306	2406.4156	3234.85	2350.4
968.2607	2407.8041	3228.35	2347.4
968.3909	2409.1918	3200.4	2318.6
968.521	2410.5789	3198.8	2318.4
968.651	2411.9652	3183.2	2300.4
968.781	2413.3508	3181.15	2300.95
968.911	2414.7358	3176.3	2295.8
969.041	2416.12	3153.15	2274.6
969.1709	2417.5035	3152.6	2272.65
969.3008	2418.8863	3146.85	2267.6
969.4307	2420.2684	3134.05	2255.6
969.5606	2421.6497	3124.1	2242.5
969.6904	2423.0304	3119.3	2240.05
969.8201	2424.4104	3107.4	2227.35
969.9499	2425.7896	3101.4	2220.9
970.0796	2427.1682	3089.6	2208.85
970.2093	2428.546	3091.25	2211.45
970.3389	2429.9232	3082.95	2202.65
970.4685	2431.2996	3068.35	2188.6
970.5981	2432.6753	3057.5	2177.5
970.7277	2434.0503	3062.55	2180.35
970.8572	2435.4246	3050.9	2172.6
970.9867	2436.7982	3050.65	2169.7
971.1161	2438.1711	3034.75	2156.4
971.2456	2439.5433	3028.5	2147.55
971.375	2440.9148	3019.1	2134.9
971.5043	2442.2856	3010.9	2134
971.6336	2443.6557	3013.25	2132.45
971.7629	2445.025	2991	2111.05
971.8922	2446.3937	2992.8	2113.2
972.0214	2447.7617	2992.15	2111.8
972.1506	2449.1289	2976.3	2096.7
972.2798	2450.4955	2967.05	2085.05
972.4089	2451.8613	2966.7	2086.5
972.538	2453.2265	2949.8	2070.55
972.6671	2454.5909	2954	2073.8
972.7961	2455.9546	2942.2	2063.35
972.9251	2457.3177	2940.1	2062.1
973.0541	2458.68	2928.8	2047.6
973.1831	2460.0416	2934.1	2056.85
973.312	2461.4025	2921.45	2037.6
973.4408	2462.7627	2921.85	2033.15
973.5697	2464.1222	2920.45	2042.5
973.6985	2465.4811	2907.05	2026.65
973.8273	2466.8392	2890.6	2011.75
973.956	2468.1966	2886.8	2005.45
974.0847	2469.5533	2890	2006.85
974.2134	2470.9093	2886.15	2007
974.3421	2472.2645	2878.15	1994.6
974.4707	2473.6191	2864	1984.9
974.5993	2474.973	2846.15	1968.1
974.7278	2476.3262	2841.45	1960.75
974.8563	2477.6787	2844.8	1965.55
974.9848	2479.0305	2817.5	1937
975.1132	2480.3816	2817.1	1935.15
975.2417	2481.7319	2812.9	1934.65
975.37	2483.0816	2802.55	1921.05
975.4984	2484.4306	2802.45	1922.15
975.6267	2485.7789	2790.45	1912.25
975.755	2487.1264	2793.8	1914.05
975.8833	2488.4733	2771.95	1895
976.0115	2489.8195	2760.35	1873.75
976.1397	2491.165	2757.1	1874.95
976.2678	2492.5097	2757.5	1873.95
976.3959	2493.8538	2743.15	1864.2
976.524	2495.1972	2726.75	1847.95
976.6521	2496.5398	2727.85	1846.3
976.7801	2497.8818	2730.45	1850.8
976.9081	2499.2231	2711.15	1833.3
977.036	2500.5637	2713.8	1833
977.164	2501.9035	2700.95	1822
977.2918	2503.2427	2695.55	1811.45
977.4197	2504.5812	2680.7	1801.6
977.5475	2505.919	2683.3	1802.45
977.6753	2507.256	2677.85	1798.5
977.8031	2508.5924	2673.2	1794.8
977.9308	2509.9281	2661.35	1775.7
978.0585	2511.2631	2654.55	1776.35
978.1861	2512.5974	2651.85	1773.5
978.3137	2513.9309	2635.45	1755.45
978.4413	2515.2638	2662.2	1755.35
978.5689	2516.596	2634.6	1755.65
978.6964	2517.9275	2614	1733.25
978.8239	2519.2583	2620.7	1740.05
978.9513	2520.5884	2605.4	1725.3
979.0788	2521.9178	2605.1	1725.2
979.2062	2523.2465	2587.65	1709.95
979.3335	2524.5745	2576.3	1697.95
979.4608	2525.9018	2580.5	1702.25
979.5881	2527.2284	2565.3	1684.8
979.7154	2528.5543	2559.95	1682.1
979.8426	2529.8796	2560.25	1681.5
979.9698	2531.2041	2566.15	1686.3
980.0969	2532.5279	2556	1678.85
980.224	2533.851	2552.4	1673.35
980.3511	2535.1735	2546.85	1668.05
980.4781	2536.4952	2540.2	1662.8
980.6052	2537.8163	2540.75	1662.4
980.7321	2539.1366	2530.6	1652.75
980.8591	2540.4562	2524.45	1644.55
980.986	2541.7752	2527.65	1647.2
981.1129	2543.0935	2520.95	1639.95
981.2397	2544.411	2515	1633.75
981.3665	2545.7279	2510.3	1632.35
981.4933	2547.0441	2510.45	1631.05
981.62	2548.3596	2506.1	1624.1
981.7467	2549.6744	2502.65	1623.55
981.8734	2550.9885	2502.15	1615.75
982.0001	2552.3019	2485.75	1608.75
982.1267	2553.6146	2481.45	1601.45
982.2532	2554.9266	2475.75	1596.75
982.3798	2556.2379	2469.85	1589.65
982.5063	2557.5485	2465.7	1586.1
982.6327	2558.8585	2454.9	1569.05
982.7592	2560.1677	2465	1579.75
982.8856	2561.4762	2454.4	1574.35
983.0119	2562.7841	2447.3	1564.95
983.1383	2564.0913	2441.15	1561.2
983.2646	2565.3977	2441.95	1562.85
983.3908	2566.7035	2434.8	1553.55
983.517	2568.0086	2431.2	1549
983.6432	2569.313	2430.05	1549.4
983.7694	2570.6167	2424.35	1541.4
983.8955	2571.9197	2417.5	1540.1
984.0216	2573.222	2415.9	1533.65
984.1476	2574.5236	2417.35	1536.9
984.2737	2575.8246	2412.25	1530.3
984.3996	2577.1248	2405.85	1522.45
984.5256	2578.4244	2406.8	1527.4
984.6515	2579.7232	2395.1	1514.9
984.7774	2581.0214	2413.5	1506.95
984.9032	2582.3189	2385.65	1508.7
985.029	2583.6157	2384.5	1500.05
985.1548	2584.9118	2377.8	1500.35
985.2806	2586.2072	2366.35	1485.9
985.4063	2587.5019	2356.85	1477.35
985.5319	2588.7959	2374.7	1495.65
985.6576	2590.0893	2363.35	1480.85
985.7832	2591.3819	2352.1	1473.3
985.9087	2592.6739	2342.75	1463.5
986.0343	2593.9652	2336.65	1454.95
986.1597	2595.2557	2333.25	1454.45
986.2852	2596.5456	2326.9	1445.5
986.4106	2597.8348	2318.3	1439.2
986.536	2599.1234	2319.3	1442
986.6614	2600.4112	2305.4	1424.75
986.7867	2601.6983	2307.8	1426.1
986.912	2602.9848	2291.55	1410.3
987.0372	2604.2705	2291.45	1403.8
987.1624	2605.5556	2286.5	1406
987.2876	2606.84	2286.1	1406.55
987.4128	2608.1237	2283	1402.4
987.5379	2609.4067	2267.35	1386.35
987.6629	2610.689	2279.4	1392.75
987.788	2611.9707	2264.45	1382.45
987.913	2613.2516	2247.25	1362
988.0379	2614.5319	2237.85	1358.5
988.1629	2615.8115	2231.95	1351.45
988.2878	2617.0903	2236.15	1353.95
988.4126	2618.3685	2225.75	1346.85
988.5375	2619.6461	2231.2	1350.45
988.6622	2620.9229	2208.1	1329.95
988.787	2622.199	2213.6	1333.65
988.9117	2623.4745	2212.05	1332.7
989.0364	2624.7493	2196.65	1317.85
989.161	2626.0234	2184.3	1307.05
989.2857	2627.2968	2194.7	1314.8
989.4102	2628.5695	2179.3	1299.9
989.5348	2629.8415	2181.15	1302.3
989.6593	2631.1128	2175.9	1294.6
989.7837	2632.3835	2159.7	1281.75
989.9082	2633.6535	2166.75	1286.1
990.0326	2634.9228	2151.6	1271.35
990.1569	2636.1914	2152.8	1275.15
990.2812	2637.4593	2160.2	1275.3
990.4055	2638.7265	2138.85	1259.45
990.5298	2639.9931	2136.15	1257.95
990.654	2641.259	2135	1253.35
990.7782	2642.5242	2141.65	1262.7
990.9023	2643.7887	2126.95	1247.35
991.0264	2645.0525	2123.5	1243.85
991.1505	2646.3156	2113.95	1231.75
991.2745	2647.5781	2107.5	1228.25
991.3985	2648.8398	2098.3	1221.05
991.5225	2650.1009	2100.3	1212.7
991.6464	2651.3613	2093.8	1215.95
991.7703	2652.6211	2086.65	1206.35
991.8942	2653.8801	2076.9	1196.9
992.018	2655.1385	2080	1195.85
992.1418	2656.3961	2069.15	1190.4
992.2655	2657.6531	2073.85	1195.75
992.3892	2658.9094	2063.75	1184.85
992.5129	2660.1651	2067.05	1188.65
992.6366	2661.42	2058.1	1177.9
992.7602	2662.6743	2068.35	1188.8
992.8837	2663.9279	2052.3	1173.85
993.0073	2665.1808	2050.9	1171.95
993.1307	2666.433	2047.55	1167
993.2542	2667.6846	2036.75	1156.65
993.3776	2668.9354	2041.8	1158.45
993.501	2670.1856	2028.6	1149.4
993.6244	2671.4351	2026.55	1148.25
993.7477	2672.6839	2027.1	1146.85
993.8709	2673.9321	2015.95	1135
993.9942	2675.1795	2021.3	1143.65
994.1174	2676.4263	2016.9	1135.15
994.2405	2677.6724	2005.1	1127.05
994.3637	2678.9179	2006.75	1125.4
994.4868	2680.1626	1999.8	1122.55
994.6098	2681.4067	2003.15	1125.45
994.7328	2682.6501	1991.4	1111.7
994.8558	2683.8928	1986.6	1108.1
994.9788	2685.1348	1982.55	1104.65
995.1017	2686.3761	1969.25	1091
995.2245	2687.6168	1981.75	1105
995.3474	2688.8568	1975.05	1097.85
995.4702	2690.0961	1966.3	1087.1
995.5929	2691.3348	1968.2	1089.35
995.7156	2692.5727	1958.7	1079.85
995.8383	2693.81	1954.6	1076.3
995.961	2695.0466	1943.1	1066.1
996.0836	2696.2826	1946.45	1064.15
996.2062	2697.5178	1943.05	1062.1
996.3287	2698.7524	1928.15	1048.45
996.4512	2699.9863	1936.15	1053.85
996.5737	2701.2195	1928.4	1049.25
996.6961	2702.452	1934.35	1053.2
996.8185	2703.6839	1928.25	1049.95
996.9408	2704.9151	1914.55	1036.15
997.0631	2706.1456	1905.75	1026.05
997.1854	2707.3755	1901.15	1022.85
997.3077	2708.6046	1908	1026.3
997.4299	2709.8331	1903.6	1022.6
997.552	2711.0609	1892.35	1012.75
997.6742	2712.2881	1893.8	1015.55
997.7963	2713.5145	1893.45	1012.95
997.9183	2714.7403	1893.6	1014.55
998.0403	2715.9654	1890.1	1010.6
998.1623	2717.1899	1887	993.2
998.2842	2718.4136	1873.9	995.6
998.4062	2719.6367	1869.5	990.3
998.528	2720.8591	1863.25	975.75
998.6498	2722.0809	1864.95	986.25
998.7716	2723.3019	1860.45	977.7
998.8934	2724.5223	1861.5	982.9
999.0151	2725.7421	1856.55	974.7
999.1368	2726.9611	1865	983.95
999.2584	2728.1795	1846.45	963.9
999.38	2729.3972	1838.45	960.15
999.5016	2730.6142	1840.6	948.95
999.6231	2731.8306	1831.25	951.7
999.7446	2733.0462	1819.25	937.55
999.8661	2734.2612	1822.75	939.25
999.9875	2735.4756	1813.15	932.45
1000.1089	2736.6892	1799	918.5
1000.2302	2737.9022	1803.55	926.25
1000.3515	2739.1145	1803.9	924.25
1000.4728	2740.3262	1802.95	913.9
1000.594	2741.5372	1785.3	906.85
1000.7152	2742.7475	1788.15	906.6
1000.8363	2743.9571	1781.2	901.4
1000.9575	2745.1661	1784.3	899.65
1001.0785	2746.3744	1780.65	900.55
1001.1996	2747.582	1773.75	895.45
1001.3206	2748.7889	1767.2	883.55
1001.4415	2749.9952	1768.05	889.15
1001.5625	2751.2008	1757.6	877.4
1001.6833	2752.4057	1752.75	871.6
1001.8042	2753.61	1751.1	871.7
1001.925	2754.8136	1744.3	861.9
1002.0458	2756.0165	1747.55	868.8
1002.1665	2757.2188	1743.7	866.35
1002.2872	2758.4204	1742.5	864.05
1002.4078	2759.6213	1736.75	854.4
1002.5285	2760.8215	1738.35	856.45
1002.649	2762.0211	1728.55	849.5
1002.7696	2763.22	1724.85	840.15
1002.8901	2764.4182	1729.25	850.45
1003.0106	2765.6158	1727.7	849.45
1003.131	2766.8127	1717.55	837.45
1003.2514	2768.009	1704.75	826.95
1003.3717	2769.2045	1706.55	824.1
1003.492	2770.3994	1706.3	826
1003.6123	2771.5936	1700.5	820.55
1003.7325	2772.7872	1697.4	817.9
1003.8527	2773.9801	1690.65	809.15
1003.9729	2775.1723	1703.95	806.15
1004.093	2776.3639	1686.2	806.25
1004.2131	2777.5548	1676.4	794.95
1004.3331	2778.745	1687.75	805.25
1004.4531	2779.9346	1675.7	798.05
1004.5731	2781.1235	1673.4	793.55
1004.693	2782.3117	1668.05	790.35
1004.8129	2783.4992	1662.75	785.05
1004.9328	2784.6861	1660	780.3
1005.0526	2785.8723	1665.25	782.3
1005.1723	2787.0579	1653.05	772.55
1005.2921	2788.2428	1654.4	773.95
1005.4118	2789.427	1644.7	766.8
1005.5314	2790.6106	1643.8	764.5
1005.651	2791.7935	1635.85	756.65
1005.7706	2792.9757	1633.05	755.45
1005.8902	2794.1573	1629.45	748.1
1006.0097	2795.3382	1629.55	752.55
1006.1291	2796.5184	1628.2	750.1
1006.2485	2797.698	1625.3	744.85
1006.3679	2798.8769	1623.15	742.15
1006.4873	2800.0551	1619.45	739.8
1006.6066	2801.2327	1614.35	732.5
1006.7258	2802.4096	1610.95	732.1
1006.8451	2803.5859	1605.9	726
1006.9642	2804.7615	1610.95	730.55
1007.0834	2805.9364	1602.65	725.25
1007.2025	2807.1106	1598.05	719.35
1007.3216	2808.2842	1598.85	718.65
1007.4406	2809.4572	1594.8	714.65
1007.5596	2810.6294	1601.25	722.05
1007.6785	2811.801	1598.05	719.5
1007.7975	2812.972	1597.65	719.9
1007.9163	2814.1423	1590.15	711.8
1008.0352	2815.3119	1595.2	714.6
1008.154	2816.4808	1591.45	714.5
1008.2727	2817.6491	1593.05	712.75
1008.3914	2818.8167	1596.6	718.75
1008.5101	2819.9837	1603.95	720
1008.6288	2821.15	1598.4	720.25
1008.7474	2822.3157	1602.25	725.55
1008.8659	2823.4807	1609.4	729.8
1008.9844	2824.645	1612.65	732.75
1009.1029	2825.8086	1620.3	740.3
1009.2214	2826.9716	1619.05	741.15
1009.3398	2828.134	1626.8	749.15
1009.4581	2829.2957	1634.4	755.45
1009.5764	2830.4567	1640.45	760.05
1009.6947	2831.617	1646.05	765.45
1009.813	2832.7767	1642.5	761.8
1009.9312	2833.9358	1637.65	759.2
1010.0493	2835.0941	1632.05	750.45
1010.1675	2836.2519	1623.9	745.65
1010.2855	2837.4089	1631	751.15
1010.4036	2838.5653	1621.6	742.65
1010.5216	2839.7211	1613.6	734.85
1010.6396	2840.8761	1604.1	723.35
1010.7575	2842.0306	1598.05	720.65
1010.8754	2843.1843	1605.95	725.95
1010.9932	2844.3374	1601.5	722.3
1011.111	2845.4899	1604.1	724.3
1011.2288	2846.6417	1610	732.05
1011.3465	2847.7928	1609.7	730.55
1011.4642	2848.9433	1599.25	720.3
1011.5818	2850.0931	1595.85	715.4
1011.6995	2851.2422	1605.75	724.5
1011.817	2852.3907	1605	725.85
1011.9345	2853.5385	1598.3	717.6
1012.052	2854.6857	1610.35	723.25
1012.1695	2855.8323	1593.65	714.15
1012.2869	2856.9781	1593	713.05
1012.4042	2858.1233	1590.25	711.9
1012.5216	2859.2679	1599	720.9
1012.6389	2860.4118	1599.85	719.7
1012.7561	2861.555	1602.85	719.7
1012.8733	2862.6976	1606.9	725.9
1012.9905	2863.8395	1605.15	725.55
1013.1076	2864.9808	1607.7	726.75
1013.2247	2866.1214	1597.4	719.25
1013.3417	2867.2614	1607.05	728.25
1013.4587	2868.4007	1599.7	719.8
1013.5757	2869.5393	1600.1	720.55
1013.6926	2870.6773	1599.7	718.5
1013.8095	2871.8146	1594.35	712.95
1013.9263	2872.9513	1599.25	718.3
1014.0431	2874.0874	1594.85	716.8
1014.1599	2875.2227	1600.2	718.4
1014.2766	2876.3574	1600.6	721.85
1014.3933	2877.4915	1589.55	711.4
1014.51	2878.6249	1590.15	711.1
1014.6266	2879.7577	1596	717.05
1014.7431	2880.8898	1600.4	712.4
1014.8596	2882.0212	1600	723.6
1014.9761	2883.152	1593.7	713.9
1015.0925	2884.2821	1590.75	714.75
1015.2089	2885.4116	1582.35	704.35
1015.3253	2886.5405	1586.35	706.5
1015.4416	2887.6686	1591.7	709.15
1015.5579	2888.7962	1584.3	706.7
1015.6741	2889.923	1578.45	698.95
1015.7903	2891.0493	1575.45	698.1
1015.9065	2892.1748	1579.95	699.75
1016.0226	2893.2997	1576.35	696.45
1016.1387	2894.424	1573.65	694.8
1016.2547	2895.5476	1563.4	685.9
1016.3707	2896.6706	1565.25	686.55
1016.4866	2897.7929	1564.2	685.4
1016.6025	2898.9145	1559.55	679.8
1016.7184	2900.0355	1561.45	680.2
1016.8342	2901.1559	1560.65	679.4
1016.95	2902.2756	1559.5	679.25
1017.0658	2903.3946	1558.55	680.55
1017.1815	2904.513	1565.05	681.8
1017.2971	2905.6308	1554	676.3
1017.4127	2906.7479	1543.65	663.7
1017.5283	2907.8643	1548.55	666.2
1017.6439	2908.9801	1535.7	657.85
1017.7594	2910.0953	1544.55	666.4
1017.8748	2911.2098	1536.8	655.7
1017.9902	2912.3236	1547.65	659.8
1018.1056	2913.4368	1537.05	653.85
1018.2209	2914.5494	1523.65	645.2
1018.3362	2915.6613	1528.5	642.6
1018.4515	2916.7725	1528.45	645.55
1018.5667	2917.8831	1518.95	638.8
1018.6819	2918.9931	1505.6	623.05
1018.797	2920.1024	1506.95	626.6
1018.9121	2921.211	1500.55	623.15
1019.0271	2922.319	1493.2	613.65
1019.1421	2923.4264	1494.05	614.65
1019.2571	2924.5331	1486.95	607.45
1019.372	2925.6391	1491.75	613.2
1019.4869	2926.7445	1489.15	613.1
1019.6017	2927.8493	1487.6	608.3
1019.7165	2928.9534	1494.65	613.05
1019.8313	2930.0569	1487.05	606.75
1019.946	2931.1597	1489.95	609.6
1020.0606	2932.2619	1492.65	613.75
1020.1753	2933.3634	1487.8	607.15
1020.2899	2934.4643	1490.8	606.2
1020.4044	2935.5645	1495.5	612.05
1020.5189	2936.6641	1491.9	609.35
1020.6334	2937.763	1482.65	603.45
1020.7478	2938.8613	1483.85	604.8
1020.8622	2939.959	1481.6	597.45
1020.9765	2941.056	1472.95	594.55
1021.0908	2942.1523	1460.45	580
1021.2051	2943.248	1446.5	566.05
1021.3193	2944.3431	1436.65	557.3
1021.4334	2945.4375	1437.15	558.75
1021.5476	2946.5313	1417.85	540.75
1021.6617	2947.6244	1416.15	536.2
1021.7757	2948.7169	1407.65	527.7
1021.8897	2949.8087	1392.7	513.1
1022.0037	2950.8999	1389.35	510.45
1022.1176	2951.9904	1379.35	502.85
1022.2315	2953.0803	1367.35	489.1
1022.3453	2954.1696	1369.8	490.55
1022.4591	2955.2582	1359.1	480.15
1022.5728	2956.3462	1354.2	475.5
1022.6865	2957.4335	1356.95	477.2
1022.8002	2958.5202	1355.25	473.8
1022.9138	2959.6062	1344.2	466.05
1023.0274	2960.6916	1345.05	465.55
1023.141	2961.7764	1344	463.7
1023.2545	2962.8605	1344.4	464.2
1023.3679	2963.9439	1342.55	464.2
1023.4813	2965.0267	1342.9	463.85
1023.5947	2966.1089	1356.05	452.5
1023.708	2967.1905	1333.2	456.4
1023.8213	2968.2714	1325	445.1
1023.9346	2969.3516	1323.75	445.4
1024.0478	2970.4312	1334.25	446.9
1024.1609	2971.5102	1321.5	443.7
1024.274	2972.5885	1315.55	437.8
1024.3871	2973.6662	1326.75	443.65
1024.5002	2974.7432	1320.9	441.3
1024.6132	2975.8196	1311.9	432.2
1024.7261	2976.8954	1326.6	447.45
1024.839	2977.9705	1314.5	435.35
1024.9519	2979.045	1309.25	430.5
1025.0647	2980.1188	1303.5	424.55
1025.1775	2981.192	1307.7	431
1025.2902	2982.2645	1307.5	428.7
1025.4029	2983.3364	1297.65	417.35
1025.5156	2984.4077	1296.35	417.65
1025.6282	2985.4783	1302.55	419.25
1025.7407	2986.5483	1288.65	411.4
1025.8532	2987.6177	1285.85	407
1025.9657	2988.6864	1281.3	402.5
1026.0782	2989.7545	1285.7	404
1026.1906	2990.8219	1268.6	390.75
1026.3029	2991.8887	1275.45	394.25
1026.4152	2992.9548	1271.45	392.95
1026.5275	2994.0204	1261.35	382.85
1026.6397	2995.0852	1258.25	380.8
1026.7519	2996.1495	1259.65	378.8
1026.864	2997.2131	1252.55	375.15
1026.9761	2998.276	1254.15	375.3
1027.0882	2999.3383	1245.75	365.3
1027.2002	3000.4	1239.25	358.5
1027.3122	3001.4611	1231.3	351.7
1027.4241	3002.5215	1236.95	357.55
1027.536	3003.5812	1228.05	350.05
1027.6478	3004.6404	1229.3	351.25
1027.7596	3005.6989	1228.75	346.95
1027.8714	3006.7567	1225.95	347.4
1027.9831	3007.8139	1248.1	346.75
1028.0947	3008.8705	1223.45	346.4
1028.2064	3009.9264	1224.3	340.75
1028.3179	3010.9818	1216.45	337.45
1028.4295	3012.0364	1220	340.6
1028.541	3013.0905	1211.8	331.35
1028.6524	3014.1439	1209.5	329.65
1028.7638	3015.1966	1211	331.35
1028.8752	3016.2487	1204.4	326
1028.9865	3017.3002	1213.6	328.25
1029.0978	3018.3511	1208.65	333.05
1029.209	3019.4013	1208.2	330.45
1029.3202	3020.4509	1199.7	321.75
1029.4314	3021.4998	1199.55	321.5
1029.5425	3022.5481	1199.45	320.7
1029.6535	3023.5958	1198.9	320
1029.7645	3024.6428	1195.3	315.75
1029.8755	3025.6892	1191.15	312.1
1029.9864	3026.735	1192.4	313.65
1030.0973	3027.7802	1192	313.3
1030.2082	3028.8247	1186.5	308.25
1030.319	3029.8685	1190.95	311.15
1030.4297	3030.9118	1189.15	308.35
1030.5404	3031.9544	1184.15	305.9
1030.6511	3032.9963	1181.8	302.95
1030.7617	3034.0376	1183.5	306.1
1030.8723	3035.0783	1186.75	305.65
1030.9829	3036.1184	1184.9	305
1031.0934	3037.1578	1177.4	300.65
1031.2038	3038.1966	1184.1	303.6
1031.3142	3039.2348	1173.25	294.65
1031.4246	3040.2723	1182.1	292.5
1031.5349	3041.3092	1177.5	301.25
1031.6452	3042.3455	1170.55	290.95
1031.7554	3043.3811	1172.85	293.7
1031.8656	3044.4161	1170.4	290.5
1031.9758	3045.4505	1166.25	287.75
1032.0859	3046.4842	1170.6	290.9
1032.1959	3047.5173	1168.35	290.95
1032.3059	3048.5498	1169.1	290.05
1032.4159	3049.5816	1166.45	285.65
1032.5258	3050.6128	1163.45	283.9
1032.6357	3051.6434	1162.35	283.35
1032.7455	3052.6734	1163.25	283.55
1032.8553	3053.7027	1156.9	277.05
1032.9651	3054.7314	1161.9	284.35
1033.0748	3055.7594	1154	278.05
1033.1845	3056.7868	1162.25	282.3
1033.2941	3057.8136	1162.7	285.25
1033.4037	3058.8398	1156.3	276.8
1033.5132	3059.8653	1155.7	277.15
1033.6227	3060.8902	1152.45	273.5
1033.7321	3061.9145	1154	276.65
1033.8415	3062.9381	1154.4	275.3
1033.9509	3063.9612	1165.35	271.2
1034.0602	3064.9835	1150	272.1
1034.1694	3066.0053	1150.75	267.75
1034.2787	3067.0264	1148.25	269.4
1034.3878	3068.0469	1154	273.3
1034.497	3069.0668	1147.35	265.15
1034.6061	3070.086	1143.3	265.6
1034.7151	3071.1046	1147.95	269.7
1034.8241	3072.1226	1143.75	264.45
1034.9331	3073.1399	1142.9	262.6
1035.042	3074.1567	1143.65	266.05
1035.1508	3075.1727	1138.65	256.45
1035.2597	3076.1882	1133.65	254.55
1035.3684	3077.203	1135	255.15
1035.4772	3078.2173	1133.35	253.6
1035.5859	3079.2308	1138.6	258
1035.6945	3080.2438	1133.5	253.75
1035.8031	3081.2561	1129.65	250.85
1035.9117	3082.2678	1129.8	250.6
1036.0202	3083.2789	1131.15	251.75
1036.1286	3084.2893	1128.3	250.4
1036.2371	3085.2991	1126.65	247.2
1036.3454	3086.3083	1127.4	245
1036.4538	3087.3169	1123.65	243.8
1036.562	3088.3248	1123.1	244.05
1036.6703	3089.3321	1115.65	233.9
1036.7785	3090.3388	1119.95	244.5
1036.8866	3091.3449	1116	238.75
1036.9948	3092.3503	1118.2	237.5
1037.1028	3093.3551	1115.85	237.45
1037.2108	3094.3593	1114.7	237
1037.3188	3095.3629	1113.45	236.5
1037.4267	3096.3658	1114.7	236.8
1037.5346	3097.3681	1110.6	233.5
1037.6425	3098.3698	1112.9	230.05
1037.7503	3099.3708	1116.45	232.45
1037.858	3100.3713	1106.6	230.55
1037.9657	3101.3711	1106.2	224.3
1038.0734	3102.3702	1241.05	221.35
1038.181	3103.3688	1106.65	223.9
1038.2886	3104.3667	1102.45	225.3
1038.3961	3105.364	1101.65	222.8
1038.5036	3106.3607	1095.05	214.55
1038.611	3107.3568	1101.25	221.7
1038.7184	3108.3522	1094	216.25
1038.8257	3109.347	1093.9	217.15
1038.933	3110.3412	1101.15	216.55
1039.0403	3111.3348	1084.9	205.5
1039.1475	3112.3277	1088.35	211.95
1039.2547	3113.32	1090.75	211
1039.3618	3114.3117	1083.35	205
1039.4689	3115.3028	1087.85	208.55
1039.5759	3116.2932	1084.1	202.85
1039.6829	3117.2831	1088.95	204.45
1039.7898	3118.2723	1087.65	207.95
1039.8967	3119.2608	1079.15	202.15
1040.0035	3120.2488	1082.6	203.45
1040.1103	3121.2361	1077.8	198.6
1040.2171	3122.2229	1073.45	195.75
1040.3238	3123.209	1074.7	194.6
1040.4305	3124.1944	1075.55	197.35
1040.5371	3125.1793	1080	200.75
1040.6437	3126.1635	1073.6	194.45
1040.7502	3127.1471	1071.65	194.35
1040.8567	3128.1301	1071.85	192.35
1040.9631	3129.1125	1068.4	189.25
1041.0695	3130.0942	1068.9	189
1041.1759	3131.0753	1077.5	187.4
1041.2822	3132.0558	1069.85	189.25
1041.3884	3133.0357	1065.5	186.65
1041.4946	3134.015	1067.05	187.2
1041.6008	3134.9936	1064.3	184.8
1041.7069	3135.9716	1086.6	186.45
1041.813	3136.949	1063.85	186.6
1041.919	3137.9258	1069.45	186.5
1042.025	3138.902	1066.45	182.45
1042.1309	3139.8775	1061.5	184
1042.2368	3140.8524	1063.7	184.95
1042.3427	3141.8267	1058.55	179.55
1042.4485	3142.8004	1058.45	179
1042.5542	3143.7735	1066.05	181.7
1042.6599	3144.7459	1057.95	178.9
1042.7656	3145.7178	1055	174.95
1042.8712	3146.689	1057	179.15
1042.9768	3147.6596	1053.5	172.6
1043.0823	3148.6295	1052.9	172.55
1043.1878	3149.5989	1051.1	173.15
1043.2932	3150.5676	1052.8	174.2
1043.3986	3151.5357	1050.5	171.95
1043.5039	3152.5032	1045.65	167.8
1043.6092	3153.4701	1051	172.95
1043.7145	3154.4364	1051.9	171.35
1043.8197	3155.402	1045.75	168.25
1043.9248	3156.367	1045.4	166.3
1044.03	3157.3315	1084.45	168.95
1044.135	3158.2952	1043	164.45
1044.24	3159.2584	1044.55	166
1044.345	3160.221	1039.45	158.6
1044.4499	3161.1829	1037.05	158.4
1044.5548	3162.1442	1038.2	159.75
1044.6596	3163.105	1043.75	163.7
1044.7644	3164.065	1041	164.1
1044.8692	3165.0245	1037.85	155.65
1044.9739	3165.9834	1039.55	161.1
1045.0785	3166.9416	1034.7	155.45
1045.1831	3167.8993	1038.75	157.85
1045.2877	3168.8563	1034.05	155.25
1045.3922	3169.8127	1036.75	157.55
1045.4966	3170.7684	1032.9	155.6
1045.6011	3171.7236	1031.95	152
1045.7054	3172.6782	1029.85	151.2
1045.8098	3173.6321	1029	151.6
1045.914	3174.5854	1034.65	152.4
1046.0183	3175.5381	1026.55	147.35
1046.1224	3176.4902	1032.4	154.65
1046.2266	3177.4417	1028.7	150.55
1046.3307	3178.3926	1023.85	146.75
1046.4347	3179.3428	1021.95	143.7
1046.5387	3180.2924	1020.65	142.15
1046.6427	3181.2415	1022.3	143.1
1046.7466	3182.1899	1023.9	142.85
1046.8504	3183.1377	1024.65	148.9
1046.9542	3184.0848	1024.5	141.95
1047.058	3185.0314	1021.25	141.9
1047.1617	3185.9773	1020.3	142.25
1047.2654	3186.9227	1021.85	143.3
1047.369	3187.8674	1016.1	137.35
1047.4726	3188.8115	1019.35	137.1
1047.5761	3189.755	1016.45	136.65
1047.6796	3190.6979	1017.45	139.5
1047.783	3191.6402	1014.7	136.7
1047.8864	3192.5818	1017.05	139.15
1047.9898	3193.5229	1018.35	134.65
1048.0931	3194.4633	1016.35	135.75
1048.1963	3195.4031	1014.3	136.15
1048.2995	3196.3423	1010.2	132.2
1048.4027	3197.2809	1012.1	133
1048.5058	3198.2189	1009.45	130.4
1048.6089	3199.1563	1016.1	131.55
1048.7119	3200.0931	1008	129.9
1048.8148	3201.0292	1010.5	133.4
1048.9178	3201.9648	1008.4	129.55
1049.0206	3202.8997	1012.4	129.65
1049.1235	3203.834	1008.1	129.8
1049.2262	3204.7677	1004.15	125.35
1049.329	3205.7008	1006.9	127.7
1049.4317	3206.6333	1000.6	122.05
1049.5343	3207.5652	1002.8	119.3
1049.6369	3208.4964	1004.15	125.75
1049.7394	3209.4271	1001.8	123.75
1049.8419	3210.3571	1001.55	122.5
1049.9444	3211.2865	1004.05	125.9
1050.0468	3212.2154	999.5	121.25
1050.1491	3213.1436	1001.15	119.6
1050.2514	3214.0712	1008.8	124.55
1050.3537	3214.9982	999.15	120.5
1050.4559	3215.9246	997.65	118.65
1050.5581	3216.8503	995.2	118.4
1050.6602	3217.7755	998.85	118.4
1050.7623	3218.7001	998.3	119.35
1050.8643	3219.624	996	116.8
1050.9663	3220.5473	994.9	115.7
1051.0682	3221.4701	994.3	115.5
1051.1701	3222.3922	994.6	115.25
1051.2719	3223.3137	997	120.1
1051.3737	3224.2346	993.8	116
1051.4754	3225.1549	990.25	112.25
1051.5771	3226.0746	992.7	113.35
1051.6788	3226.9937	991.4	110.8
1051.7804	3227.9121	988.9	111.65
1051.8819	3228.83	990.4	112.55
1051.9834	3229.7473	991.25	112.2
1052.0849	3230.6639	991.85	111.45
1052.1863	3231.5799	988.5	111.5
1052.2876	3232.4954	990	111.3
1052.3889	3233.4102	987.8	109.05
1052.4902	3234.3244	984.15	105.55
1052.5914	3235.238	987.15	108.35
1052.6926	3236.151	1004.9	104.95
1052.7937	3237.0634	982.35	104.95
1052.8948	3237.9752	984.1	105.1
1052.9958	3238.8864	982.85	102.7
1053.0968	3239.797	984.5	105.35
1053.1977	3240.7069	979.35	100
1053.2986	3241.6163	982.6	103.05
1053.3994	3242.5251	975.2	97.4
1053.5002	3243.4332	977.6	99.95
1053.6009	3244.3408	976.7	98.15
1053.7016	3245.2477	976.35	99.5
1053.8022	3246.154	977	99.25
1053.9028	3247.0598	979.2	101.5
1054.0034	3247.9649	977.05	98.9
1054.1039	3248.8694	977.8	97.9
1054.2043	3249.7733	977.95	97.5
1054.3047	3250.6766	977.05	96.95
1054.4051	3251.5793	977.75	97.8
1054.5054	3252.4814	974.6	96.45
1054.6056	3253.3829	973.35	95.5
1054.7058	3254.2838	974.5	95
1054.806	3255.1841	971.4	93.1
1054.9061	3256.0838	969.25	89.9
1055.0061	3256.9829	967.45	88.6
1055.1062	3257.8814	972.3	92.55
1055.2061	3258.7792	969.25	88.15
1055.306	3259.6765	969.75	91.15
1055.4059	3260.5731	965	87.5
1055.5057	3261.4692	965.45	85.55
1055.6055	3262.3647	964.75	86.65
1055.7052	3263.2595	962.15	81.3
1055.8049	3264.1538	962.45	84.15
1055.9045	3265.0474	959.4	79.95
1056.0041	3265.9404	959.15	81.45
1056.1036	3266.8329	958.35	80.25
1056.2031	3267.7247	966.8	80.2
1056.3025	3268.616	953.65	78.4
1056.4019	3269.5066	952.6	75.2
1056.5013	3270.3966	956.35	75.65
1056.6005	3271.286	949.55	71.1
