Software Version:	3.9.2.0
Unit SN:	10000200
Spectrometer SN:	6960
Date:	3/6/2024 10:18:23 AM
Data Line Index:	25
Spectral Points:	2048
Integration time (ms):	125
Averages:	20
Delay (ms):	30
Sequence Number:	1
Processing:	dark subtract
Laser Power (mW):	305
Laser Current (mA):	825
Laser Diode Temp (C):	25.1
Laser Case Temp (C):	25.2
System Temp (C):	25
Spectrometer Temp (C):	22.5
CCD Temp (C):	-0.005
Secondary Temp (C):	20.022
Heatsink Temp (C):	20.289
CCDPCB Temp (C):	32.305
SecondaryPCB Temp (C):	26.091

Wavelength	RamanShift	Raw Counts	Dark Subtracted
787.061	30.1047	1083.25	673.15
787.2016	32.3739	1111.45	703.25
787.3422	34.6426	1145.95	737.75
787.4828	36.9109	1192.9	781.35
787.6235	39.1787	1245.55	828
787.7642	41.4461	1303.35	884.2
787.9049	43.7131	1364.15	941.05
788.0456	45.9796	1423.25	998.05
788.1863	48.2456	1479.1	1050.25
788.3271	50.5112	1550.05	1116.65
788.4679	52.7764	1603.8	1169
788.6087	55.0411	1682.5	1242.55
788.7496	57.3054	1762.6	1316.05
788.8904	59.5692	1835.3	1387.95
789.0313	61.8326	1922.6	1473.4
789.1722	64.0955	2030.85	1575.95
789.3132	66.3579	2146	1687.75
789.4541	68.6199	2285.7	1822.75
789.5951	70.8815	2529.05	2062.3
789.7361	73.1426	3053.65	2582.25
789.8771	75.4032	4401.7	3926
790.0181	77.6634	7882.45	7403.5
790.1592	79.9231	17094.9	16610.5
790.3003	82.1824	53728.25	53230.4
790.4414	84.4412	65535	65019.25
790.5825	86.6995	65535	64991
790.7237	88.9574	65535	64967.2
790.8648	91.2148	65535	64947.1
791.006	93.4717	65535	64939.9
791.1472	95.7282	65535	64933
791.2885	97.9842	65535	64930
791.4297	100.2398	65535	64927.2
791.571	102.4949	65535	64927.15
791.7123	104.7495	65535	64924.35
791.8536	107.0036	65535	64921.4
791.9949	109.2573	65535	64916.3
792.1363	111.5105	65535	64919.35
792.2777	113.7632	65535	64918.65
792.4191	116.0154	65535	64910.95
792.5605	118.2672	65535	64915.35
792.7019	120.5185	65535	64911
792.8434	122.7693	65535	64908.5
792.9849	125.0197	65535	64902.65
793.1264	127.2696	65535	64903
793.2679	129.519	65535	64893.95
793.4094	131.7679	65535	64893.15
793.551	134.0163	65535	64891.8
793.6926	136.2642	65535	64883.75
793.8342	138.5117	65535	64879.8
793.9758	140.7587	65535	64886.55
794.1175	143.0052	65535	64882.75
794.2591	145.2512	65535	64884.9
794.4008	147.4967	65535	64879.8
794.5425	149.7417	65535	64878.9
794.6842	151.9863	65535	64871.6
794.826	154.2304	65535	64870.35
794.9677	156.4739	65535	64863.05
795.1095	158.717	65535	64866.55
795.2513	160.9596	65535	64861.6
795.3931	163.2017	65535	64860.65
795.535	165.4433	65535	64856.95
795.6768	167.6844	65535	64854.7
795.8187	169.925	65535	64849.95
795.9606	172.1651	65535	64848.95
796.1025	174.4047	65535	64843
796.2445	176.6439	65535	64842.75
796.3864	178.8825	65535	64841.8
796.5284	181.1206	65535	64838.4
796.6704	183.3582	65535	64835.1
796.8124	185.5954	65535	64832.85
796.9544	187.832	65535	64828.2
797.0965	190.0681	65535	64825.2
797.2386	192.3037	65535	64819.2
797.3806	194.5388	65535	64819.65
797.5228	196.7734	65535	64819.9
797.6649	199.0075	65535	64818.1
797.807	201.2411	65535	64813.3
797.9492	203.4742	65535	64816.05
798.0914	205.7068	65535	64809.65
798.2336	207.9389	65535	64807.55
798.3758	210.1704	65535	64807.6
798.518	212.4015	65535	64814.55
798.6603	214.632	65535	64823.1
798.8025	216.862	65535	64831.6
798.9448	219.0915	65535	64832.5
799.0871	221.3205	65535	64826.4
799.2294	223.549	65535	64831.55
799.3718	225.777	65535	64829.7
799.5141	228.0044	65535	64826.1
799.6565	230.2314	65535	64819.95
799.7989	232.4578	65535	64823.05
799.9413	234.6837	65535	64810.15
800.0837	236.909	65535	64806.6
800.2262	239.1339	65535	64783.8
800.3687	241.3582	65535	64800.3
800.5111	243.582	65535	64769.8
800.6536	245.8053	65535	64779.15
800.7961	248.0281	65535	64785.65
800.9387	250.2503	65535	64786.05
801.0812	252.472	65535	64779.5
801.2238	254.6932	65535	64778.65
801.3664	256.9139	65535	64782.5
801.509	259.134	65535	64775.55
801.6516	261.3536	65535	64776.6
801.7942	263.5727	65535	64776.55
801.9369	265.7912	65535	64774.2
802.0795	268.0092	65535	64775.4
802.2222	270.2267	65535	64775.35
802.3649	272.4436	65535	64776.75
802.5076	274.6601	65535	64765.45
802.6504	276.8759	65535	64768.75
802.7931	279.0913	65535	64765.6
802.9359	281.3061	65535	64763.8
803.0787	283.5204	65535	64762.9
803.2215	285.7341	65535	64759.2
803.3643	287.9473	65535	64747.45
803.5071	290.16	65535	64755.85
803.6499	292.3721	65535	64758.9
803.7928	294.5837	65535	64757.5
803.9357	296.7947	65535	64762.2
804.0786	299.0052	65535	64759.65
804.2215	301.2152	65535	64756.85
804.3644	303.4246	65535	64757.95
804.5074	305.6334	65535	64757.6
804.6503	307.8418	65535	64754.4
804.7933	310.0495	65535	64755.95
804.9363	312.2568	65535	64753.4
805.0793	314.4635	65535	64750.45
805.2223	316.6696	65535	64751.7
805.3653	318.8752	65535	64740.75
805.5084	321.0802	65535	64752.15
805.6514	323.2847	65535	64748.2
805.7945	325.4887	65535	64748.85
805.9376	327.692	65535	64745.7
806.0807	329.8949	65535	64745.65
806.2238	332.0972	65535	64741.55
806.367	334.2989	65535	64743.3
806.5101	336.5001	65535	64741.25
806.6533	338.7007	65535	64740.45
806.7965	340.9008	65535	64739.8
806.9397	343.1003	65535	64738.2
807.0829	345.2992	65535	64732.55
807.2261	347.4976	65535	64733.15
807.3693	349.6955	65535	64730.2
807.5126	351.8927	65535	64726.9
807.6559	354.0895	65535	64718.35
807.7991	356.2856	65535	64723.35
807.9424	358.4812	65535	64727.85
808.0857	360.6763	65535	64726.2
808.2291	362.8707	65535	64722.85
808.3724	365.0646	65535	64724.15
808.5158	367.258	65535	64722.15
808.6591	369.4508	65535	64715.8
808.8025	371.643	65535	64717.35
808.9459	373.8346	65535	64713.5
809.0893	376.0257	65535	64712.9
809.2327	378.2162	65535	64711.65
809.3762	380.4062	65535	64713.35
809.5196	382.5956	65535	64710.2
809.6631	384.7844	65535	64715.9
809.8066	386.9726	65535	64719.5
809.9501	389.1603	65535	64716.65
810.0936	391.3474	65535	64678.6
810.2371	393.5339	65535	64718
810.3806	395.7199	65535	64719.8
810.5241	397.9052	65535	64723.05
810.6677	400.09	65535	64716.7
810.8113	402.2743	65535	64718.65
810.9548	404.4579	65535	64716.35
811.0984	406.641	65535	64714.75
811.2421	408.8235	65535	64710.75
811.3857	411.0054	65535	64710.25
811.5293	413.1868	65535	64710.55
811.673	415.3675	65535	64704.25
811.8166	417.5477	65535	64703.6
811.9603	419.7273	65535	64698.9
812.104	421.9064	65535	64695.55
812.2477	424.0848	65535	64699.45
812.3914	426.2627	65535	64699.35
812.5351	428.4399	65535	64701.3
812.6788	430.6166	65535	64698.2
812.8226	432.7928	65535	64697.8
812.9663	434.9683	65535	64693.95
813.1101	437.1432	65535	64693.05
813.2539	439.3176	65535	64694.55
813.3977	441.4914	65535	64696.75
813.5415	443.6645	65535	64693.2
813.6853	445.8371	65535	64695.75
813.8291	448.0091	65535	64694.5
813.973	450.1806	65535	64695.35
814.1168	452.3514	65535	64692.35
814.2607	454.5216	65535	64683.95
814.4046	456.6913	65535	64688.8
814.5485	458.8603	65535	64690.7
814.6924	461.0288	65535	64691.6
814.8363	463.1967	65535	64693.7
814.9802	465.3639	65535	64689.05
815.1241	467.5306	65535	64688.4
815.2681	469.6967	65535	64688.6
815.412	471.8622	65535	64688.8
815.556	474.0271	65535	64687.75
815.7	476.1914	65535	64687.05
815.844	478.3551	65535	64685.3
815.988	480.5182	65535	64687.6
816.132	482.6807	65535	64687
816.276	484.8426	65535	64691.4
816.4201	487.0039	65535	64686.45
816.5641	489.1647	65535	64683.1
816.7082	491.3248	65535	64684.35
816.8522	493.4843	65535	64681.85
816.9963	495.6432	65535	64685.35
817.1404	497.8015	65535	64680.05
817.2845	499.9592	65535	64683.65
817.4286	502.1163	65535	64680.7
817.5727	504.2728	65535	64677.05
817.7168	506.4287	65535	64680.85
817.861	508.5839	65535	64682.95
818.0051	510.7386	65535	64681.7
818.1493	512.8927	65535	64676.95
818.2935	515.0461	65535	64677
818.4377	517.199	65535	64681
818.5818	519.3512	65535	64676.9
818.726	521.5029	65535	64670.4
818.8703	523.6539	65535	64672.25
819.0145	525.8043	65535	64673.35
819.1587	527.9541	65535	64672.25
819.303	530.1033	65535	64673.6
819.4472	532.2519	65535	64672.55
819.5915	534.3999	65535	64670.95
819.7357	536.5472	65535	64671.75
819.88	538.694	65535	64673.9
820.0243	540.8401	65535	64670.25
820.1686	542.9856	65535	64665.4
820.3129	545.1305	65535	64670.25
820.4572	547.2748	65535	64667.15
820.6016	549.4185	65535	64666.65
820.7459	551.5615	65535	64667.55
820.8902	553.704	65535	64668.35
821.0346	555.8458	65535	64673.75
821.1789	557.987	65535	64670.7
821.3233	560.1276	65535	64666.3
821.4677	562.2675	65535	64670.15
821.6121	564.4069	65535	64665.4
821.7565	566.5456	65535	64668.1
821.9009	568.6837	65535	64669.65
822.0453	570.8212	65535	64666.1
822.1897	572.958	65535	64663.35
822.3342	575.0942	65535	64667.55
822.4786	577.2299	65535	64668.7
822.6231	579.3648	65535	64668.15
822.7675	581.4992	65535	64670
822.912	583.6329	65535	64669.65
823.0565	585.766	65535	64671.95
823.201	587.8985	65535	64670.2
823.3454	590.0304	65535	64642.25
823.4899	592.1616	65535	64660.9
823.6345	594.2922	65535	64665.05
823.779	596.4222	65535	64663.6
823.9235	598.5515	65535	64664.75
824.068	600.6802	65535	64664.25
824.2126	602.8083	65535	64661.15
824.3571	604.9358	65535	64666.9
824.5017	607.0626	65535	64663.9
824.6462	609.1888	65535	64663.7
824.7908	611.3144	65535	64661.3
824.9354	613.4393	65535	64663.7
825.08	615.5636	65535	64659.5
825.2246	617.6873	65535	64661.25
825.3692	619.8103	65535	64656.55
825.5138	621.9327	65535	64657.8
825.6584	624.0544	65535	64658.6
825.803	626.1756	65535	64662.2
825.9477	628.2961	65535	64656.45
826.0923	630.4159	65535	64656.8
826.237	632.5351	65535	64658.65
826.3816	634.6537	65535	64659.25
826.5263	636.7716	65535	64656.95
826.6709	638.8889	65535	64656.35
826.8156	641.0056	65535	64656.45
826.9603	643.1216	65535	64657.6
827.105	645.237	65535	64649.55
827.2497	647.3518	65535	64655.3
827.3944	649.4659	65535	64654.9
827.5391	651.5793	65535	64658.65
827.6838	653.6922	65535	64657.2
827.8285	655.8043	65535	64655
827.9733	657.9159	65535	64656
828.118	660.0268	65535	64651.25
828.2627	662.137	65535	64652.35
828.4075	664.2466	65535	64651
828.5522	666.3556	65535	64654.45
828.697	668.4639	65535	64650.9
828.8418	670.5716	65535	64654.35
828.9865	672.6786	65535	64651.6
829.1313	674.785	65535	64650.25
829.2761	676.8907	65535	64651.2
829.4209	678.9958	65535	64653.45
829.5657	681.1002	65535	64652.7
829.7105	683.204	65535	64646.15
829.8553	685.3072	65535	64650.4
830.0001	687.4097	65535	64646.8
830.1449	689.5115	65535	64646.7
830.2898	691.6127	65535	64651.05
830.4346	693.7132	65535	64649.35
830.5794	695.8131	65535	64635.55
830.7243	697.9123	65535	64647
830.8691	700.0109	65535	64648.5
831.014	702.1089	65535	64649
831.1588	704.2061	65535	64646.2
831.3037	706.3028	65535	64646.15
831.4486	708.3987	65535	64647.85
831.5935	710.4941	65535	64651.5
831.7383	712.5887	65535	64647.5
831.8832	714.6827	65535	64640.05
832.0281	716.7761	65535	64646.55
832.173	718.8688	65535	64645.6
832.3179	720.9608	65535	64645.55
832.4628	723.0522	65535	64641.35
832.6077	725.1429	65535	64646.75
832.7527	727.233	65535	64645.05
832.8976	729.3224	65535	64643.55
833.0425	731.4112	65535	64644.75
833.1874	733.4993	65535	64641.55
833.3324	735.5867	65535	64640.95
833.4773	737.6735	65535	64643.7
833.6222	739.7596	65535	64641.9
833.7672	741.845	65535	64643.45
833.9122	743.9298	65535	64638.95
834.0571	746.014	65535	64643.25
834.2021	748.0974	65535	64640.95
834.347	750.1802	65535	64639.65
834.492	752.2624	65535	64642.05
834.637	754.3439	65535	64644.1
834.782	756.4247	65535	64633.45
834.9269	758.5048	65535	64642.15
835.0719	760.5843	65535	64641.4
835.2169	762.6631	65535	64642.8
835.3619	764.7413	65535	64644.5
835.5069	766.8188	65535	64639
835.6519	768.8956	65535	64641.85
835.7969	770.9718	65535	64642.95
835.9419	773.0473	65535	64643.7
836.0869	775.1221	65535	64642.15
836.232	777.1962	65535	64639.9
836.377	779.2697	65535	64638.15
836.522	781.3426	65535	64624.55
836.667	783.4147	65535	64640.1
836.8121	785.4862	65535	64642.2
836.9571	787.557	65535	64642.3
837.1021	789.6271	65535	64641.65
837.2472	791.6966	65535	64641.15
837.3922	793.7654	65535	64639.15
837.5373	795.8335	65535	64640.15
837.6823	797.901	65535	64640.55
837.8274	799.9678	65535	64640.45
837.9724	802.0339	65535	64640.55
838.1175	804.0993	65535	64631.75
838.2626	806.1641	65535	64639.55
838.4076	808.2282	65535	64639.1
838.5527	810.2916	65535	64637.4
838.6978	812.3544	65535	64643.05
838.8428	814.4164	65535	64640
838.9879	816.4778	65535	64639.1
839.133	818.5385	65535	64635.05
839.2781	820.5986	65535	64636.8
839.4232	822.658	65535	64637.6
839.5682	824.7166	65535	64640.4
839.7133	826.7747	65535	64639.45
839.8584	828.832	65535	64638.45
840.0035	830.8886	65535	64636.25
840.1486	832.9446	65535	64636.55
840.2937	834.9999	65535	64637.45
840.4388	837.0545	65535	64633.8
840.5839	839.1085	65535	64638.35
840.729	841.1618	65535	64634.8
840.8741	843.2143	65535	64640.15
841.0192	845.2662	65535	64638.25
841.1643	847.3175	65535	64640
841.3095	849.368	65535	64637.6
841.4546	851.4179	65535	64639.8
841.5997	853.467	65535	64637.3
841.7448	855.5155	65535	64639.85
841.8899	857.5633	65535	64637.2
842.0351	859.6105	65535	64638.7
842.1802	861.6569	65535	64635.25
842.3253	863.7027	65535	64634.95
842.4704	865.7478	65535	64635.9
842.6156	867.7922	65535	64637.5
842.7607	869.8359	65535	64637.35
842.9058	871.8789	65535	64635.7
843.0509	873.9212	65535	64608.05
843.1961	875.9629	65535	64633.95
843.3412	878.0039	65535	64632.35
843.4863	880.0441	65535	64637.8
843.6315	882.0837	65535	64637.2
843.7766	884.1226	65535	64634.05
843.9218	886.1609	65535	64636.2
844.0669	888.1984	65535	64636.15
844.212	890.2352	65535	64634.55
844.3572	892.2714	65535	64630.3
844.5023	894.3069	65535	64632.7
844.6475	896.3416	65535	64633.8
844.7926	898.3757	65535	64632.85
844.9377	900.4091	65535	64631.55
845.0829	902.4418	65535	64631.7
845.228	904.4739	65535	64633.1
845.3732	906.5052	65535	64635.6
845.5183	908.5358	65535	64635.45
845.6635	910.5658	65535	64633.8
845.8086	912.595	65535	64634.8
845.9538	914.6236	65535	64633.65
846.0989	916.6515	65535	64633.35
846.2441	918.6786	65535	64632.8
846.3892	920.7051	65535	64629.4
846.5344	922.7309	65535	64634.5
846.6795	924.756	65535	64632.25
846.8246	926.7804	65535	64633.55
846.9698	928.8041	65535	64633.75
847.1149	930.8272	65535	64634.35
847.2601	932.8495	65535	64632.5
847.4052	934.8711	65535	64634.05
847.5504	936.892	65535	64634.45
847.6955	938.9123	65535	64632
847.8407	940.9318	65535	64631.8
847.9858	942.9506	65535	64631.8
848.131	944.9688	65535	64633.75
848.2761	946.9862	65535	64635.55
848.4213	949.003	65535	64633.25
848.5664	951.019	65535	64633.8
848.7115	953.0344	65535	64630.35
848.8567	955.0491	65535	64635.3
849.0018	957.063	65535	64632.3
849.147	959.0763	65535	64633.55
849.2921	961.0888	65535	64630.7
849.4373	963.1007	65535	64631.45
849.5824	965.1119	65535	64638.3
849.7275	967.1223	65535	64635.6
849.8727	969.1321	65535	64637.35
850.0178	971.1412	65535	64634.45
850.1629	973.1495	65535	64635.85
850.3081	975.1572	65535	64600.3
850.4532	977.1641	65535	64632.9
850.5983	979.1704	65535	64630.2
850.7435	981.1759	65535	64628.45
850.8886	983.1808	65535	64632.5
851.0337	985.1849	65535	64620.55
851.1788	987.1884	65535	64627.4
851.324	989.1911	65535	64627.95
851.4691	991.1932	65535	64633.4
851.6142	993.1945	65535	64631.8
851.7593	995.1951	65535	64630.95
851.9045	997.1951	65535	64626.4
852.0496	999.1943	65535	64633.65
852.1947	1001.1928	65535	64634.8
852.3398	1003.1906	65535	64635.25
852.4849	1005.1877	65535	64631.9
852.63	1007.1841	65535	64633.45
852.7751	1009.1798	65535	64634.3
852.9202	1011.1748	65535	64633.4
853.0653	1013.1691	65535	64633.5
853.2104	1015.1627	65535	64633.55
853.3555	1017.1556	65535	64633.25
853.5006	1019.1477	65535	64632.9
853.6457	1021.1392	65535	64636.05
853.7908	1023.1299	65535	64635.35
853.9359	1025.12	65535	64634.75
854.081	1027.1093	65535	64639.05
854.2261	1029.0979	65535	64638
854.3712	1031.0859	65535	64637.55
854.5163	1033.0731	65535	64634.9
854.6613	1035.0596	65535	64632
854.8064	1037.0454	65535	64634.9
854.9515	1039.0304	65535	64633.75
855.0965	1041.0148	65535	64632.85
855.2416	1042.9985	65535	64631.6
855.3867	1044.9814	65535	64635.6
855.5317	1046.9636	65535	64631.25
855.6768	1048.9452	65535	64633.6
855.8219	1050.926	65535	64634.4
855.9669	1052.9061	65535	64634.85
856.112	1054.8855	65535	64633.35
856.257	1056.8642	65535	64631.7
856.4021	1058.8421	65535	64628.2
856.5471	1060.8194	65535	64635.4
856.6921	1062.7959	65535	64633.6
856.8372	1064.7717	65535	64632.05
856.9822	1066.7469	65535	64633.3
857.1272	1068.7213	65535	64633.75
857.2723	1070.695	65535	64634.4
857.4173	1072.6679	65535	64634.4
857.5623	1074.6402	65535	64633.25
857.7073	1076.6117	65535	64629.15
857.8523	1078.5826	65535	64632.9
857.9973	1080.5527	65535	64633.15
858.1423	1082.5221	65535	64632.6
858.2873	1084.4908	65535	64634.65
858.4323	1086.4587	65535	64633.9
858.5773	1088.426	65535	64630.15
858.7223	1090.3925	65535	64630.2
858.8673	1092.3584	65535	64633.6
859.0123	1094.3235	65535	64634.6
859.1573	1096.2879	65535	64633
859.3022	1098.2515	65535	64636.25
859.4472	1100.2145	65535	64633.75
859.5922	1102.1767	65535	64630.2
859.7371	1104.1382	65535	64633
859.8821	1106.099	65535	64631.15
860.027	1108.0591	65535	64633.7
860.172	1110.0185	65535	64631.15
860.3169	1111.9771	65535	64634.2
860.4619	1113.9351	65535	64632
860.6068	1115.8923	65535	64633.45
860.7517	1117.8488	65535	64631.9
860.8967	1119.8045	65535	64634.8
861.0416	1121.7596	65535	64632.2
861.1865	1123.7139	65535	64634.5
861.3314	1125.6675	65535	64635.5
861.4763	1127.6204	65535	64633.2
861.6212	1129.5726	65535	64632.25
861.7661	1131.524	65535	64634.2
861.911	1133.4748	65535	64632.3
862.0559	1135.4248	65535	64631.7
862.2008	1137.3741	65535	64634.5
862.3457	1139.3226	65535	64632.65
862.4905	1141.2705	65535	64633.65
862.6354	1143.2176	65535	64628.1
862.7803	1145.164	65535	64632.1
862.9251	1147.1097	65535	64632.45
863.07	1149.0546	65535	64632.8
863.2148	1150.9989	65535	64634.35
863.3597	1152.9424	65535	64631
863.5045	1154.8852	65535	64631.45
863.6493	1156.8272	65535	64632.4
863.7942	1158.7686	65535	64626.9
863.939	1160.7092	65535	64633.65
864.0838	1162.6491	65535	64629.55
864.2286	1164.5883	65535	64632.2
864.3734	1166.5267	65535	64634.7
864.5182	1168.4644	65535	64633.25
864.663	1170.4014	65535	64628.05
864.8078	1172.3377	65535	64633.75
864.9526	1174.2732	65535	64632.75
865.0974	1176.2081	65535	64637.95
865.2421	1178.1421	65535	64630.2
865.3869	1180.0755	65535	64635
865.5317	1182.0082	65535	64635.3
865.6764	1183.9401	65535	64632.65
865.8212	1185.8713	65535	64634.9
865.9659	1187.8017	65535	64636.3
866.1106	1189.7315	65535	64636.5
866.2554	1191.6605	65535	64608
866.4001	1193.5888	65535	64635.65
866.5448	1195.5163	65535	64636.4
866.6895	1197.4432	65535	64632
866.8342	1199.3693	65535	64633.55
866.9789	1201.2947	65535	64631.3
867.1236	1203.2193	65535	64633.05
867.2683	1205.1432	65535	64631.65
867.413	1207.0664	65535	64632.95
867.5576	1208.9889	65535	64632
867.7023	1210.9106	65535	64633.45
867.847	1212.8316	65535	64634.8
867.9916	1214.7519	65535	64624.95
868.1363	1216.6715	65535	64634.3
868.2809	1218.5903	65535	64633.85
868.4255	1220.5084	65535	64632.95
868.5701	1222.4257	65535	64634.1
868.7148	1224.3424	65535	64637.4
868.8594	1226.2583	65535	64630.8
869.004	1228.1735	65535	64634
869.1486	1230.0879	65535	64633.5
869.2932	1232.0016	65535	64634.85
869.4377	1233.9146	65535	64635.15
869.5823	1235.8269	65535	64634.8
869.7269	1237.7384	65535	64633.15
869.8715	1239.6492	65535	64634.85
870.016	1241.5592	65535	64633.55
870.1606	1243.4686	65535	64634.45
870.3051	1245.3772	65535	64633.85
870.4496	1247.285	65535	64632.35
870.5941	1249.1922	65535	64634.45
870.7387	1251.0986	65535	64635.65
870.8832	1253.0042	65535	64635.45
871.0277	1254.9092	65535	64636
871.1722	1256.8134	65535	64635.85
871.3167	1258.7169	65535	64633.65
871.4611	1260.6196	65535	64633.95
871.6056	1262.5216	65535	64636.7
871.7501	1264.4229	65535	64636.2
871.8945	1266.3234	65535	64635.15
872.039	1268.2232	65535	64633.1
872.1834	1270.1223	65535	64633.45
872.3278	1272.0207	65535	64634.05
872.4723	1273.9183	65535	64626.75
872.6167	1275.8151	65535	64636.55
872.7611	1277.7113	65535	64636.6
872.9055	1279.6067	65535	64633.8
873.0499	1281.5014	65535	64631.5
873.1943	1283.3953	65535	64631.25
873.3386	1285.2885	65535	64637.45
873.483	1287.181	65535	64635.7
873.6274	1289.0727	65535	64633.05
873.7717	1290.9637	65535	64635.6
873.9161	1292.854	65535	64633.9
874.0604	1294.7435	65535	64632.5
874.2047	1296.6323	65535	64634
874.349	1298.5204	65535	64630.35
874.4933	1300.4077	65535	64632.9
874.6376	1302.2943	65535	64635.15
874.7819	1304.1802	65535	64633.9
874.9262	1306.0653	65535	64634.9
875.0705	1307.9497	65535	64633.4
875.2147	1309.8333	65535	64634.1
875.359	1311.7162	65535	64633.4
875.5032	1313.5984	65535	64632.9
875.6475	1315.4798	65535	64623.05
875.7917	1317.3605	65535	64615.45
875.9359	1319.2405	65535	64634.35
876.0801	1321.1197	65535	64632.7
876.2243	1322.9982	65535	64630.85
876.3685	1324.876	65535	64633.95
876.5127	1326.753	65535	64634.85
876.6569	1328.6293	65535	64634.9
876.801	1330.5048	65535	64633.55
876.9452	1332.3796	65535	64635.35
877.0893	1334.2537	65535	64609.65
877.2335	1336.127	65535	64634.6
877.3776	1337.9996	65535	64633.1
877.5217	1339.8714	65535	64636.05
877.6658	1341.7426	65535	64589.8
877.8099	1343.6129	65535	64632.6
877.954	1345.4826	65535	64635.1
878.0981	1347.3515	65535	64632.7
878.2422	1349.2196	65535	64634.05
878.3862	1351.087	65535	64633.7
878.5303	1352.9537	65535	64633.45
878.6743	1354.8197	65535	64633.4
878.8184	1356.6849	65535	64634.55
878.9624	1358.5493	65535	64635.1
879.1064	1360.4131	65535	64635.5
879.2504	1362.276	65535	64635.45
879.3944	1364.1383	65535	64634.6
879.5384	1365.9998	65535	64629.1
879.6823	1367.8606	65535	64635.15
879.8263	1369.7206	65535	64634.1
879.9702	1371.5799	65535	64631.9
880.1142	1373.4384	65535	64634.7
880.2581	1375.2962	65535	64633.65
880.402	1377.1533	65535	64634.3
880.5459	1379.0096	65535	64632.8
880.6898	1380.8652	65535	64634.35
880.8337	1382.7201	65535	64635.4
880.9776	1384.5742	65535	64634.85
881.1215	1386.4275	65535	64635.55
881.2653	1388.2802	65535	64634.55
881.4092	1390.132	65535	64633.9
881.553	1391.9832	65535	64633.9
881.6968	1393.8336	65535	64633
881.8406	1395.6832	65535	64633.2
881.9844	1397.5322	65535	64636.2
882.1282	1399.3803	65535	64631.75
882.272	1401.2278	65535	64635.15
882.4158	1403.0745	65535	64634.6
882.5595	1404.9204	65535	64636.1
882.7033	1406.7656	65535	64633.85
882.847	1408.6101	65535	64634.25
882.9908	1410.4538	65535	64633.2
883.1345	1412.2968	65535	64636.25
883.2782	1414.139	65535	64634.3
883.4219	1415.9805	65535	64636.75
883.5656	1417.8213	65535	64628.3
883.7092	1419.6613	65535	64636.65
883.8529	1421.5006	65535	64635.6
883.9965	1423.3391	65535	64634.5
884.1402	1425.1769	65535	64633.7
884.2838	1427.0139	65535	64632.8
884.4274	1428.8502	65535	64636.7
884.571	1430.6858	65535	64635.4
884.7146	1432.5206	65535	64636.85
884.8582	1434.3547	65535	64635.7
885.0018	1436.188	65535	64633.65
885.1453	1438.0206	65535	64634.4
885.2889	1439.8524	65535	64631.85
885.4324	1441.6835	65535	64633.75
885.5759	1443.5139	65535	64633.3
885.7194	1445.3435	65535	64635.85
885.8629	1447.1724	65535	64635.4
886.0064	1449.0005	65535	64636.75
886.1499	1450.8279	65535	64634.5
886.2933	1452.6545	65535	64635.9
886.4368	1454.4804	65535	64635.45
886.5802	1456.3056	65535	64628.4
886.7237	1458.13	65535	64636.15
886.8671	1459.9536	65535	64634.65
887.0105	1461.7766	65535	64635.85
887.1539	1463.5987	65535	64634.05
887.2972	1465.4202	65535	64638.75
887.4406	1467.2409	65535	64635
887.584	1469.0608	65535	64635.25
887.7273	1470.88	65535	64636.75
887.8706	1472.6984	65535	64634.9
888.0139	1474.5161	65535	64633.15
888.1572	1476.3331	65535	64635.85
888.3005	1478.1493	65535	64635.6
888.4438	1479.9648	65535	64636.1
888.5871	1481.7795	65535	64637.2
888.7303	1483.5935	65535	64635.95
888.8736	1485.4067	65535	64635.5
889.0168	1487.2192	65535	64635.8
889.16	1489.031	65535	64634.8
889.3032	1490.842	65535	64637.05
889.4464	1492.6522	65535	64636.75
889.5896	1494.4618	65535	64633.65
889.7327	1496.2705	65535	64637.2
889.8759	1498.0785	65535	64635.05
890.019	1499.8858	65535	64636.1
890.1622	1501.6924	65535	64635.4
890.3053	1503.4981	65535	64637.3
890.4484	1505.3032	65535	64637.3
890.5914	1507.1075	65535	64636.1
890.7345	1508.911	65535	64636.95
890.8776	1510.7138	65535	64636
891.0206	1512.5159	65535	64636.2
891.1637	1514.3172	65535	64636.2
891.3067	1516.1178	65535	64637.7
891.4497	1517.9176	65535	64633.9
891.5927	1519.7166	65535	64637.3
891.7357	1521.515	65535	64632.2
891.8786	1523.3126	65535	64634.75
892.0216	1525.1094	65535	64634.1
892.1645	1526.9055	65535	64637.45
892.3074	1528.7008	65535	64636.8
892.4503	1530.4954	65535	64635.4
892.5932	1532.2893	65535	64641.65
892.7361	1534.0824	65535	64633.9
892.879	1535.8747	65535	64637.8
893.0218	1537.6663	65535	64636.8
893.1647	1539.4572	65535	64635.2
893.3075	1541.2473	65535	64637.5
893.4503	1543.0367	65535	64639.95
893.5931	1544.8253	65535	64632.95
893.7359	1546.6132	65535	64634.8
893.8787	1548.4003	65535	64626.15
894.0214	1550.1867	65535	64631.3
894.1642	1551.9723	65535	64633.35
894.3069	1553.7572	65535	64638.75
894.4496	1555.5414	65535	64637.3
894.5923	1557.3247	65535	64639.4
894.735	1559.1074	65535	64637.7
894.8777	1560.8893	65535	64641.15
895.0204	1562.6705	65535	64637.05
895.163	1564.4509	65535	64639.2
895.3056	1566.2305	65535	64641.85
895.4482	1568.0094	65535	64641.25
895.5908	1569.7876	65535	64638.95
895.7334	1571.565	65535	64637.95
895.876	1573.3417	65535	64640.9
896.0186	1575.1176	65535	64638.8
896.1611	1576.8928	65535	64639.65
896.3036	1578.6672	65530.5	64639.5
896.4461	1580.4409	65535	64640.65
896.5886	1582.2138	65527.5	64631.1
896.7311	1583.986	65531.15	64635.15
896.8736	1585.7575	65521.9	64626.15
897.0161	1587.5282	65531	64636.9
897.1585	1589.2981	65528.9	64633.5
897.3009	1591.0673	65520.3	64623.85
897.4433	1592.8358	65509.15	64615.15
897.5857	1594.6035	65519.95	64623.55
897.7281	1596.3704	65522.9	64627.45
897.8705	1598.1366	65501	64606.8
898.0128	1599.9021	65478.15	64584.05
898.1551	1601.6668	65518.9	64622.5
898.2975	1603.4308	65503.3	64609.15
898.4398	1605.194	65496.95	64597.95
898.5821	1606.9564	65450.2	64557.5
898.7243	1608.7182	65475.8	64578.8
898.8666	1610.4791	65459.15	64568.65
899.0088	1612.2394	65491.7	64600.8
899.1511	1613.9988	65437.45	64544.3
899.2933	1615.7576	65490.2	64597.3
899.4355	1617.5156	65490.55	64592.8
899.5776	1619.2728	65517.95	64623.6
899.7198	1621.0293	65444.65	64550.35
899.862	1622.785	65445.2	64550.05
900.0041	1624.54	65469.65	64572.5
900.1462	1626.2942	65433.5	64538.95
900.2883	1628.0477	65381.75	64485
900.4304	1629.8005	65348.45	64452
900.5725	1631.5525	65401.9	64510.8
900.7145	1633.3037	65333.65	64440.1
900.8566	1635.0542	65329.5	64436.85
900.9986	1636.804	65366.4	64474.25
901.1406	1638.553	65308.6	64338.45
901.2826	1640.3013	65327.65	64434.2
901.4245	1642.0488	65286.75	64392.05
901.5665	1643.7955	65317.85	64426.8
901.7085	1645.5416	65289.65	64397.25
901.8504	1647.2868	65267.9	64373.35
901.9923	1649.0313	65312.2	64417.15
902.1342	1650.7751	65283.05	64386
902.2761	1652.5181	65260.4	64369
902.4179	1654.2604	65264.6	64370.45
902.5598	1656.0019	65281	64388.6
902.7016	1657.7427	65256.25	64361.1
902.8434	1659.4828	65294.95	64401.6
902.9852	1661.222	65260	64364.65
903.127	1662.9606	65285.75	64393.35
903.2687	1664.6984	65240.55	64346.65
903.4105	1666.4354	65256.9	64362.75
903.5522	1668.1717	65208.1	64315.8
903.6939	1669.9072	65144.55	64252.15
903.8356	1671.642	65142.6	64246.6
903.9773	1673.3761	65122.55	64231
904.119	1675.1094	65114.95	64222.15
904.2606	1676.8419	64996.75	64104.4
904.4022	1678.5737	65048	64155.85
904.5439	1680.3048	64998.65	64104.35
904.6855	1682.0351	64949.2	64057.6
904.827	1683.7646	64881.4	63985.25
904.9686	1685.4934	64950.6	64060.25
905.1101	1687.2215	64723.05	63828.8
905.2517	1688.9488	64895.05	64002.85
905.3932	1690.6754	64544.65	63653.7
905.5347	1692.4012	64725	63832.45
905.6761	1694.1263	64748.7	63857.15
905.8176	1695.8506	64620.7	63729.4
905.9591	1697.5742	64624.15	63732.1
906.1005	1699.297	64590.3	63700.2
906.2419	1701.0191	64609.85	63718.25
906.3833	1702.7404	64467	63576.65
906.5246	1704.461	64403.1	63510.9
906.666	1706.1808	64475.35	63581.95
906.8073	1707.8999	64461.65	63568.55
906.9487	1709.6182	64401.8	63509.7
907.09	1711.3358	64400.1	63509.1
907.2313	1713.0527	64380.1	63490.1
907.3725	1714.7688	64373.7	63478.2
907.5138	1716.4841	64198.7	63306.65
907.655	1718.1987	64277	63378.2
907.7962	1719.9126	64215.8	63326.35
907.9374	1721.6257	64232	63339.7
908.0786	1723.338	64237.75	63345.75
908.2198	1725.0496	63975.3	63082.8
908.3609	1726.7605	64042.8	63149.1
908.502	1728.4706	63954.45	63060.2
908.6431	1730.18	64059.8	63168.75
908.7842	1731.8886	63892.1	63001.05
908.9253	1733.5964	63802	62905.15
909.0664	1735.3036	63976.7	63083.35
909.2074	1737.0099	63835.1	62945.3
909.3484	1738.7156	63686.7	62798.7
909.4894	1740.4204	63642.75	62747.45
909.6304	1742.1246	63694.4	62802.9
909.7714	1743.8279	63752	62861.15
909.9123	1745.5306	63722.3	62830.25
910.0532	1747.2325	63303.8	62416.25
910.1941	1748.9336	63326.7	62436.55
910.335	1750.634	63439.65	62546.45
910.4759	1752.3336	63524.7	62634
910.6168	1754.0325	63250.05	62360.85
910.7576	1755.7307	63513.65	62623.95
910.8984	1757.4281	63127.85	62235.9
911.0392	1759.1247	63386.4	62488.35
911.18	1760.8206	62980.8	62084
911.3208	1762.5158	63013.7	62119.5
911.4615	1764.2102	63110.7	62221.6
911.6022	1765.9039	63026.3	62137.75
911.7429	1767.5968	62903.4	62013.4
911.8836	1769.289	62786.05	61894.35
912.0243	1770.9804	62906.9	62015
912.1649	1772.6711	62821.45	61929.55
912.3056	1774.361	62721.8	61829.1
912.4462	1776.0502	62747.2	61856.25
912.5868	1777.7386	62290.35	61397.6
912.7274	1779.4263	62561.65	61670.1
912.8679	1781.1132	62543	61654.2
913.0084	1782.7994	62431.4	61539.15
913.149	1784.4849	62469.55	61578.95
913.2895	1786.1696	61913.8	61017.55
913.4299	1787.8535	62237.65	61348.45
913.5704	1789.5367	62272.85	61381.95
913.7108	1791.2192	61902.1	61012.55
913.8513	1792.9009	61701.7	60784.2
913.9917	1794.5818	61991.6	61099.85
914.132	1796.2621	61678.25	60788.45
914.2724	1797.9415	61684.95	60796.05
914.4128	1799.6202	61654.1	60763.95
914.5531	1801.2982	61707.15	60818.65
914.6934	1802.9755	61338.5	60448.05
914.8337	1804.6519	61171.8	60280.6
914.9739	1806.3277	61666.65	60777.25
915.1142	1808.0027	60851.3	59963.85
915.2544	1809.6769	61167.5	60276.55
915.3946	1811.3504	61235.7	60343.6
915.5348	1813.0231	60589.95	59698.4
915.675	1814.6951	61017.6	60125.9
915.8151	1816.3664	60773.25	59880.45
915.9553	1818.0369	60762.95	59871.1
916.0954	1819.7067	60576.65	59687
916.2355	1821.3757	60928.9	60035.35
916.3755	1823.044	60394.25	59506.1
916.5156	1824.7115	60092.1	59202.05
916.6556	1826.3783	60275.1	59384.45
916.7956	1828.0443	60310.9	59422.7
916.9356	1829.7096	60045.8	59153.9
917.0756	1831.3741	59623.8	58730.1
917.2155	1833.0379	59878.3	58987.8
917.3555	1834.701	59826.5	58934.65
917.4954	1836.3633	59465.15	58575.65
917.6353	1838.0248	59667.7	58777.1
917.7751	1839.6856	59533.75	58643.55
917.915	1841.3457	59167.1	58277.75
918.0548	1843.005	59559.7	58669.1
918.1946	1844.6636	59305.45	58417
918.3344	1846.3214	58817.75	57927.15
918.4742	1847.9785	58970.65	58082.25
918.6139	1849.6349	58903.95	58011.45
918.7537	1851.2904	59170.35	58271.5
918.8934	1852.9453	58595.8	57704.35
919.0331	1854.5994	58811.65	57920
919.1727	1856.2528	58867.15	57973.45
919.3124	1857.9054	58477.15	57586.95
919.452	1859.5572	58296.05	57407.65
919.5916	1861.2083	58446.25	57554.95
919.7312	1862.8587	58794.05	57903.15
919.8708	1864.5084	57721.7	56831.2
920.0103	1866.1572	58211.85	57322.7
920.1498	1867.8054	57641.75	56752.2
920.2893	1869.4528	57983.1	57093.75
920.4288	1871.0994	57499.9	56610
920.5683	1872.7453	57420.55	56530.75
920.7077	1874.3905	57688.15	56791.35
920.8471	1876.0349	57189.8	56298.55
920.9865	1877.6786	57543.15	56651.4
921.1259	1879.3215	57023.25	56135.05
921.2653	1880.9637	57576.8	56685.6
921.4046	1882.6051	56987.5	56098.65
921.5439	1884.2458	56748.95	55857.1
921.6832	1885.8858	56472.65	55580.55
921.8225	1887.525	56726.85	55833.5
921.9617	1889.1634	56583.25	55692.8
922.101	1890.8011	56282.15	55392.65
922.2402	1892.4381	55661.75	54772.2
922.3794	1894.0743	56356.4	55468.3
922.5185	1895.7098	55926.2	55035.55
922.6577	1897.3446	55583.55	54694.35
922.7968	1898.9786	55680.4	54786.4
922.9359	1900.6118	55275.1	54386.65
923.075	1902.2443	54985.35	54093.15
923.214	1903.8761	55382.15	54492.1
923.3531	1905.5071	55049.35	54159.1
923.4921	1907.1374	54218.25	53326.15
923.6311	1908.7669	54536.7	53647.9
923.77	1910.3957	54796	53906.75
923.909	1912.0237	54173.75	53284.5
924.0479	1913.651	53802.95	52913.1
924.1868	1915.2776	53667.15	52779.2
924.3257	1916.9034	53637.15	52747.15
924.4646	1918.5285	53414.95	52525.7
924.6034	1920.1528	53387.95	52498.7
924.7422	1921.7764	53163.75	52273.3
924.881	1923.3992	53101.15	52213.1
925.0198	1925.0213	52699.05	51808.65
925.1586	1926.6427	52220.45	51332.2
925.2973	1928.2633	52450.9	51482.5
925.436	1929.8832	52209.85	51317.55
925.5747	1931.5023	52036.65	51146.65
925.7134	1933.1207	51546.2	50658.5
925.852	1934.7383	51835.8	50946
925.9906	1936.3552	51472.8	50584.5
926.1292	1937.9714	51440.5	50550
926.2678	1939.5868	51366.2	50475.15
926.4064	1941.2015	50869.35	49978.55
926.5449	1942.8154	50508.5	49619
926.6834	1944.4286	50583.25	49692.65
926.8219	1946.041	50514.4	49604.9
926.9604	1947.6528	50204.4	49309.65
927.0988	1949.2637	50001.45	49112.05
927.2372	1950.8739	49753.2	48862.15
927.3756	1952.4834	49877.1	48986.5
927.514	1954.0921	49700.9	48811.5
927.6523	1955.7001	49346.3	48453.1
927.7907	1957.3074	49440.65	48551.85
927.929	1958.9139	48952.6	48065.05
928.0673	1960.5197	49012.75	48121.05
928.2055	1962.1247	48804.2	47916.05
928.3438	1963.729	48497.65	47610.05
928.482	1965.3325	48342.15	47430.85
928.6202	1966.9353	48335.6	47446.85
928.7584	1968.5374	47968.3	47078.5
928.8965	1970.1387	47777.95	46887.4
929.0346	1971.7393	47792.8	46903.4
929.1727	1973.3392	47553.4	46665.1
929.3108	1974.9383	47287.1	46399
929.4489	1976.5366	47088.6	46200.55
929.5869	1978.1342	47122.1	46232.05
929.7249	1979.7311	46982.55	46091.1
929.8629	1981.3273	46851.95	45961.95
930.0009	1982.9227	46639.85	45747.8
930.1388	1984.5173	46603.25	45714.9
930.2767	1986.1112	46380.25	45492.95
930.4146	1987.7044	46384.65	45498.35
930.5525	1989.2968	45971.5	45083.5
930.6904	1990.8885	46053	45162.05
930.8282	1992.4795	45802.6	44911.95
930.966	1994.0697	45703.5	44814.05
931.1038	1995.6592	45565.6	44677.75
931.2415	1997.2479	45349.1	44461.15
931.3793	1998.8359	45293.3	44404.6
931.517	2000.4232	45081	44192
931.6547	2002.0097	45011	44125.2
931.7923	2003.5955	44741.35	43852.95
931.93	2005.1805	44717.35	43825.9
932.0676	2006.7648	44553.1	43665.4
932.2052	2008.3484	44427.25	43536.6
932.3427	2009.9312	44447.35	43557.75
932.4803	2011.5133	44214.2	43328.4
932.6178	2013.0946	44070.1	43180.35
932.7553	2014.6752	43945.9	43058.7
932.8928	2016.2551	43805.7	42916.4
933.0302	2017.8342	43683.45	42796.55
933.1676	2019.4126	43430.25	42543
933.305	2020.9902	43329.25	42442.5
933.4424	2022.5672	43234.8	42345.5
933.5798	2024.1433	43155.55	42261.4
933.7171	2025.7188	43054.6	42166.6
933.8544	2027.2935	42748.15	41861.25
933.9917	2028.8674	42646.75	41760.8
934.129	2030.4406	42556.8	41672.3
934.2662	2032.0131	42335.1	41448.6
934.4034	2033.5849	42166.2	41273.25
934.5406	2035.1559	42141.3	41253.1
934.6778	2036.7261	42060.65	41174.1
934.8149	2038.2957	41916.45	41027
934.952	2039.8645	41786.4	40898.8
935.0891	2041.4325	41845.5	40955.05
935.2262	2042.9998	41626.4	40738.35
935.3632	2044.5664	41441.4	40552.75
935.5002	2046.1323	41390.1	40500.4
935.6372	2047.6974	41263.45	40376.45
935.7742	2049.2617	41176.85	40290.65
935.9111	2050.8254	41153.25	40261.4
936.048	2052.3883	40992.25	40104.05
936.1849	2053.9504	40875.5	39987.2
936.3218	2055.5118	40746.25	39858
936.4586	2057.0725	40492.3	39600.2
936.5955	2058.6325	40489.95	39601.25
936.7323	2060.1917	40314.15	39427.9
936.869	2061.7502	40253.15	39361.9
937.0058	2063.3079	40076.5	39189.5
937.1425	2064.8649	39905.9	39016.65
937.2792	2066.4212	39870.8	38982.85
937.4159	2067.9767	39736.75	38850.35
937.5525	2069.5315	39505.05	38617.9
937.6891	2071.0856	39372.1	38484.15
937.8257	2072.6389	39228.65	38339.15
937.9623	2074.1915	39050.1	38164
938.0989	2075.7433	38826	37935.05
938.2354	2077.2945	38754.75	37869.55
938.3719	2078.8448	38646.7	37759.6
938.5084	2080.3945	38547.65	37660.1
938.6448	2081.9434	38478.2	37589.35
938.7812	2083.4916	38314.55	37427.95
938.9176	2085.039	38184	37294.15
939.054	2086.5857	38114.7	37222.95
939.1903	2088.1317	38038.65	37150.75
939.3267	2089.677	37921.65	37032.8
939.463	2091.2215	37783.7	36894.35
939.5992	2092.7652	37692.9	36804.4
939.7355	2094.3083	37584.5	36695.8
939.8717	2095.8506	37562.4	36676.9
940.0079	2097.3921	37486.5	36598.25
940.1441	2098.933	37343.4	36456.95
940.2802	2100.4731	37265.15	36379.3
940.4163	2102.0124	37207.6	36314
940.5524	2103.5511	37051.35	36162.25
940.6885	2105.089	36987.55	36098.4
940.8245	2106.6261	36887	35998.05
940.9606	2108.1626	36792.6	35901.7
941.0965	2109.6983	36741.5	35825.4
941.2325	2111.2332	36618.1	35730.6
941.3684	2112.7675	36491.75	35603.6
941.5044	2114.301	36400.65	35510.6
941.6403	2115.8337	36367.3	35479.95
941.7761	2117.3657	36228.25	35340.6
941.912	2118.897	36132.1	35242.8
942.0478	2120.4276	36026.65	35131.5
942.1835	2121.9575	35783.85	34894.75
942.3193	2123.4866	35872	34967.9
942.455	2125.0149	35678.95	34784.7
942.5907	2126.5426	35505.55	34617.45
942.7264	2128.0695	35464.1	34572.65
942.8621	2129.5956	35357.35	34470.25
942.9977	2131.1211	35241.35	34351.05
943.1333	2132.6458	35165.2	34276.9
943.2689	2134.1698	35090.05	34201.1
943.4044	2135.693	35005.15	34113.75
943.54	2137.2155	34988.5	34096.7
943.6755	2138.7373	34864.65	33976.6
943.8109	2140.2584	34672.45	33786
943.9464	2141.7787	34595.3	33703.9
944.0818	2143.2983	34434.85	33548.65
944.2172	2144.8171	34271.7	33384.15
944.3526	2146.3353	34166.6	33277.1
944.4879	2147.8527	34033.4	33145.45
944.6232	2149.3693	34039.85	33152.15
944.7585	2150.8853	33855.8	32966.25
944.8938	2152.4005	33738.35	32849.4
945.029	2153.9149	33727.5	32840.6
945.1642	2155.4287	33575.35	32686.85
945.2994	2156.9417	33538.35	32650.65
945.4346	2158.454	33384.1	32493.05
945.5697	2159.9655	33319.75	32432.2
945.7048	2161.4764	33266.85	32380.05
945.8399	2162.9865	33110.65	32223.5
945.9749	2164.4958	32970.1	32081.3
946.1099	2166.0045	32902.95	32009.85
946.2449	2167.5124	32895.95	32008.95
946.3799	2169.0195	32729.4	31843.85
946.5148	2170.526	32688.05	31800.4
946.6498	2172.0317	32599.5	31712.15
946.7846	2173.5367	32463.05	31574.55
946.9195	2175.0409	32412.05	31525.65
947.0543	2176.5445	32407.85	31520.8
947.1891	2178.0473	32235.9	31346.65
947.3239	2179.5494	32027.55	31136.1
947.4587	2181.0507	31940.7	31051.7
947.5934	2182.5513	31845.35	30956.25
947.7281	2184.0512	31758.35	30871.15
947.8628	2185.5504	31686.4	30798.8
947.9974	2187.0488	31492.15	30604.25
948.132	2188.5465	31415.8	30526.45
948.2666	2190.0435	31301.75	30410.9
948.4012	2191.5397	31194.35	30307.75
948.5357	2193.0353	31065.8	30179.65
948.6702	2194.5301	30914.8	30026.55
948.8047	2196.0241	30811.15	29922.9
948.9392	2197.5175	30762.2	29871.1
949.0736	2199.0101	30635	29744.3
949.208	2200.502	30469.85	29583.1
949.3424	2201.9931	30376.55	29488.7
949.4767	2203.4835	30278.7	29391.1
949.611	2204.9733	30227.1	29334.3
949.7453	2206.4622	30133.05	29245.5
949.8796	2207.9505	29969.5	29079.2
950.0138	2209.438	29864.15	28979.45
950.148	2210.9248	29827.95	28939.4
950.2822	2212.4109	29701.35	28814.05
950.4164	2213.8962	29577.45	28686.25
950.5505	2215.3809	29518.6	28630.05
950.6846	2216.8648	29428.8	28540.85
950.8186	2218.3479	29330.25	28436.7
950.9527	2219.8304	29196.5	28305.45
951.0867	2221.3121	29129.85	28241.75
951.2207	2222.7931	28990	28101.95
951.3546	2224.2733	28910.2	28021.2
951.4886	2225.7529	28800.4	27911.65
951.6225	2227.2317	28688.6	27797.1
951.7563	2228.7098	28633.65	27746.9
951.8902	2230.1872	28483	27595.95
952.024	2231.6638	28476.3	27589.95
952.1578	2233.1397	28369.1	27474
952.2916	2234.6149	28288.1	27398.95
952.4253	2236.0894	28155.75	27267.35
952.559	2237.5632	28094.05	27204.5
952.6927	2239.0362	27964.05	27075.05
952.8263	2240.5085	27871.3	26985.55
952.9599	2241.9801	27765.75	26876.9
953.0935	2243.4509	27679.3	26791.4
953.2271	2244.921	27580.2	26692.35
953.3606	2246.3904	27492.35	26602.1
953.4941	2247.8591	27397.15	26511.1
953.6276	2249.3271	27347.95	26460.35
953.7611	2250.7943	27240.15	26352.45
953.8945	2252.2608	27118.5	26228.35
954.0279	2253.7266	27075.2	26187.3
954.1612	2255.1917	26960.2	26072.3
954.2946	2256.656	26869.6	25980.55
954.4279	2258.1197	26763	25876.45
954.5612	2259.5826	26755.4	25867.8
954.6944	2261.0447	26718.3	25827.6
954.8276	2262.5062	26537.45	25646.7
954.9608	2263.9669	26501.6	25612.6
955.094	2265.4269	26455.25	25569.15
955.2271	2266.8862	26357.45	25468.85
955.3602	2268.3448	26312.4	25424.6
955.4933	2269.8026	26236.35	25347.1
955.6264	2271.2598	26125.55	25238.3
955.7594	2272.7162	26029	25141.95
955.8924	2274.1719	25967.15	25079.2
956.0253	2275.6268	25867.45	24979.85
956.1583	2277.0811	25823.35	24935.55
956.2912	2278.5346	25762.1	24873.7
956.4241	2279.9874	25684.9	24795.55
956.5569	2281.4395	25647.65	24763.05
956.6897	2282.8908	25561	24667.65
956.8225	2284.3414	25468.65	24580
956.9553	2285.7914	25367.95	24480.5
957.088	2287.2406	25289.15	24401.45
957.2207	2288.689	25219.55	24332.25
957.3534	2290.1368	25138.6	24249.1
957.486	2291.5838	25052.25	24161.55
957.6186	2293.0302	24992.45	24102.75
957.7512	2294.4758	24865.8	23978.5
957.8838	2295.9206	24761.45	23872.05
958.0163	2297.3648	24685.3	23797.2
958.1488	2298.8082	24618.75	23732.1
958.2813	2300.251	24579.65	23693.2
958.4137	2301.693	24506.15	23614.95
958.5461	2303.1343	24429.35	23540.7
958.6785	2304.5748	24370	23481.5
958.8108	2306.0147	24247.7	23360.05
958.9432	2307.4538	24230.45	23341.7
959.0754	2308.8922	24096.6	23210
959.2077	2310.3299	24063.4	23176.45
959.3399	2311.7669	23980.55	23092.6
959.4721	2313.2031	23925.25	23040.85
959.6043	2314.6387	23817.2	22928.2
959.7365	2316.0735	23682.35	22793.05
959.8686	2317.5076	23680.7	22793.05
960.0006	2318.941	23628.85	22740.6
960.1327	2320.3737	23526.05	22638
960.2647	2321.8056	23488.05	22598.25
960.3967	2323.2369	23392.25	22504.45
960.5287	2324.6674	23322.9	22432.8
960.6606	2326.0972	23211.85	22322.95
960.7925	2327.5263	23132.55	22243.1
960.9244	2328.9547	23056.8	22168.35
961.0562	2330.3823	23018.25	22128.35
961.1881	2331.8092	23026.75	22136.4
961.3198	2333.2355	22885.9	21997.5
961.4516	2334.661	22824.5	21935.9
961.5833	2336.0858	22753.25	21863
961.715	2337.5098	22740.3	21850.8
961.8467	2338.9332	22659.55	21770.15
961.9783	2340.3558	22575.1	21682.75
962.1099	2341.7778	22480	21590.6
962.2415	2343.199	22387.25	21496.6
962.373	2344.6195	22318.6	21429.3
962.5045	2346.0393	22260.7	21372.6
962.636	2347.4583	22227.9	21338.05
962.7675	2348.8767	22157.85	21269.7
962.8989	2350.2943	22094.8	21206.05
963.0303	2351.7113	22039.5	21150.6
963.1617	2353.1275	21961.05	21074
963.293	2354.543	21871.7	20975.4
963.4243	2355.9578	21821.85	20932
963.5556	2357.3718	21659.8	20771.6
963.6868	2358.7852	21596.55	20705.25
963.818	2360.1978	21519.35	20629.5
963.9492	2361.6098	21520.2	20633.65
964.0803	2363.021	21369.6	20478.3
964.2114	2364.4315	21327.95	20439.6
964.3425	2365.8413	21240.45	20351.55
964.4736	2367.2504	21193.1	20305.65
964.6046	2368.6587	21076.05	20189.45
964.7356	2370.0664	21031.3	20145.5
964.8666	2371.4733	20960.9	20073.7
964.9975	2372.8795	20897.6	20009.9
965.1284	2374.285	20822.75	19935.8
965.2593	2375.6899	20716.8	19831
965.3901	2377.0939	20619.3	19730.95
965.5209	2378.4973	20544.45	19655.95
965.6517	2379.9	20507.4	19619.3
965.7825	2381.3019	20424.1	19537.3
965.9132	2382.7032	20396.5	19509.75
966.0439	2384.1037	20296.15	19410.5
966.1745	2385.5035	20209	19325.05
966.3051	2386.9027	20121.6	19232.95
966.4357	2388.3011	20120.2	19228.9
966.5663	2389.6987	20042.55	19153.55
966.6968	2391.0957	20009.4	19121.45
966.8273	2392.492	19883.45	18995.75
966.9578	2393.8876	19794	18906.7
967.0882	2395.2824	19712.95	18825.65
967.2186	2396.6765	19625.5	18739.15
967.349	2398.07	19537.3	18650.75
967.4793	2399.4627	19506.5	18617
967.6097	2400.8547	19484.1	18595.1
967.7399	2402.246	19399	18506
967.8702	2403.6366	19313.5	18426.1
968.0004	2405.0265	19186.45	18298.95
968.1306	2406.4156	19149.85	18259.3
968.2607	2407.8041	19049.65	18160.25
968.3909	2409.1918	18974.3	18083.3
968.521	2410.5789	18870.25	17981.65
968.651	2411.9652	18846.05	17955.1
968.781	2413.3508	18756.15	17868.9
968.911	2414.7358	18669.2	17778.85
969.041	2416.12	18614.85	17726.95
969.1709	2417.5035	18553.8	17666.15
969.3008	2418.8863	18468.85	17581.05
969.4307	2420.2684	18445.55	17557.9
969.5606	2421.6497	18328.55	17438.75
969.6904	2423.0304	18229.85	17341.6
969.8201	2424.4104	18167.4	17280.05
969.9499	2425.7896	18127.35	17237.35
970.0796	2427.1682	18078.65	17189.95
970.2093	2428.546	18035.25	17146.9
970.3389	2429.9232	17961.25	17071.3
970.4685	2431.2996	17966.9	17081.85
970.5981	2432.6753	17878.95	16992.75
970.7277	2434.0503	17834	16946.25
970.8572	2435.4246	17771.4	16884.45
970.9867	2436.7982	17702.6	16811.75
971.1161	2438.1711	17653.35	16766.25
971.2456	2439.5433	17589.05	16699.85
971.375	2440.9148	17478.25	16583.85
971.5043	2442.2856	17408.85	16521
971.6336	2443.6557	17375.05	16486.1
971.7629	2445.025	17305.35	16419.05
971.8922	2446.3937	17248.3	16358.4
972.0214	2447.7617	17196.25	16308.25
972.1506	2449.1289	17155.85	16269.5
972.2798	2450.4955	17107.35	16215.15
972.4089	2451.8613	17045.6	16158.2
972.538	2453.2265	17004.55	16117.25
972.6671	2454.5909	16949.15	16059.1
972.7961	2455.9546	16926.85	16036.75
972.9251	2457.3177	16826.65	15939.5
973.0541	2458.68	16791.85	15904
973.1831	2460.0416	16747.6	15859.15
973.312	2461.4025	16739.25	15848.55
973.4408	2462.7627	16675	15776.15
973.5697	2464.1222	16599.4	15712.7
973.6985	2465.4811	16542	15654
973.8273	2466.8392	16475.2	15587.25
973.956	2468.1966	16437.65	15549.45
974.0847	2469.5533	16439.65	15549.6
974.2134	2470.9093	16365.6	15475.65
974.3421	2472.2645	16310.95	15422
974.4707	2473.6191	16266	15379.3
974.5993	2474.973	16169.55	15282.25
974.7278	2476.3262	16150.4	15261.3
974.8563	2477.6787	16088.4	15202.65
974.9848	2479.0305	15975.25	15087.7
975.1132	2480.3816	15934.45	15043.2
975.2417	2481.7319	15909.95	15020.95
975.37	2483.0816	15809	14920.05
975.4984	2484.4306	15771.45	14882.95
975.6267	2485.7789	15699.5	14814.45
975.755	2487.1264	15640.25	14751.8
975.8833	2488.4733	15570	14684.5
976.0115	2489.8195	15515.65	14622
976.1397	2491.165	15467.95	14575.9
976.2678	2492.5097	15409.15	14520.65
976.3959	2493.8538	15334.05	14450
976.524	2495.1972	15273.9	14385.35
976.6521	2496.5398	15206.75	14318.85
976.7801	2497.8818	15157.1	14266.3
976.9081	2499.2231	15104.05	14217.3
977.036	2500.5637	15071.15	14182.3
977.164	2501.9035	15012	14122.25
977.2918	2503.2427	14957.75	14064.05
977.4197	2504.5812	14929.7	14043.1
977.5475	2505.919	14886.7	13997.35
977.6753	2507.256	14840	13953.2
977.8031	2508.5924	14774.85	13887.35
977.9308	2509.9281	14725	13830.4
978.0585	2511.2631	14676.8	13789.35
978.1861	2512.5974	14623.8	13735.3
978.3137	2513.9309	14563.45	13677.95
978.4413	2515.2638	14541.25	13627.65
978.5689	2516.596	14526.3	13637.55
978.6964	2517.9275	14412.3	13524.1
978.8239	2519.2583	14362.85	13471.7
978.9513	2520.5884	14283.35	13393.7
979.0788	2521.9178	14228.85	13340.45
979.2062	2523.2465	14215.15	13328.05
979.3335	2524.5745	14173.15	13285.2
979.4608	2525.9018	14085.8	13199.3
979.5881	2527.2284	14085.85	13202.05
979.7154	2528.5543	14027.35	13141.4
979.8426	2529.8796	13977.9	13087.75
979.9698	2531.2041	13933.55	13045.7
980.0969	2532.5279	13940.15	13054.65
980.224	2533.851	13858.45	12971.25
980.3511	2535.1735	13804.2	12915.85
980.4781	2536.4952	13791.35	12903.3
980.6052	2537.8163	13752.15	12862.8
980.7321	2539.1366	13693.05	12805.15
980.8591	2540.4562	13668.6	12779.8
980.986	2541.7752	13639.15	12752.1
981.1129	2543.0935	13607.65	12719.05
981.2397	2544.411	13591.25	12703.55
981.3665	2545.7279	13538.45	12650.3
981.4933	2547.0441	13516.9	12631.25
981.62	2548.3596	13500.75	12609.75
981.7467	2549.6744	13475.95	12587
981.8734	2550.9885	13432.35	12536
982.0001	2552.3019	13353.75	12466.2
982.1267	2553.6146	13360.2	12473.15
982.2532	2554.9266	13255.1	12364.35
982.3798	2556.2379	13208.3	12318.9
982.5063	2557.5485	13209.25	12323.15
982.6327	2558.8585	13172.25	12277.7
982.7592	2560.1677	13159.85	12271
982.8856	2561.4762	13088.9	12200.95
983.0119	2562.7841	13102.35	12210.75
983.1383	2564.0913	13059.25	12171.55
983.2646	2565.3977	13043.75	12157.85
983.3908	2566.7035	12997.2	12107.9
983.517	2568.0086	12978.4	12088.85
983.6432	2569.313	12925.9	12038.35
983.7694	2570.6167	12926.95	12036.65
983.8955	2571.9197	12888.95	12000.85
984.0216	2573.222	12848.4	11957.25
984.1476	2574.5236	12814.9	11926.95
984.2737	2575.8246	12785.2	11894.35
984.3996	2577.1248	12754.4	11863.85
984.5256	2578.4244	12723.45	11837.65
984.6515	2579.7232	12700.1	11812.35
984.7774	2581.0214	12696.3	11785
984.9032	2582.3189	12645.2	11758.25
985.029	2583.6157	12611.3	11719.95
985.1548	2584.9118	12577.6	11688.5
985.2806	2586.2072	12549.7	11663.8
985.4063	2587.5019	12517.45	11629.65
985.5319	2588.7959	12494.7	11606.1
985.6576	2590.0893	12453.95	11565.55
985.7832	2591.3819	12412.85	11525.15
985.9087	2592.6739	12333.75	11448.55
986.0343	2593.9652	12308.75	11418.65
986.1597	2595.2557	12269.75	11383.2
986.2852	2596.5456	12235.1	11344.8
986.4106	2597.8348	12167.15	11281.15
986.536	2599.1234	12129.35	11245.05
986.6614	2600.4112	12103.4	11213.8
986.7867	2601.6983	12035.6	11145.15
986.912	2602.9848	12008.55	11120.1
987.0372	2604.2705	11937.75	11043.6
987.1624	2605.5556	11946.15	11059.45
987.2876	2606.84	11884.45	10996.95
987.4128	2608.1237	11842.55	10954.4
987.5379	2609.4067	11797.4	10911.35
987.6629	2610.689	11769.25	10872.35
987.788	2611.9707	11719.75	10828.8
987.913	2613.2516	11679.8	10787.25
988.0379	2614.5319	11605.1	10717.55
988.1629	2615.8115	11591.4	10703.3
988.2878	2617.0903	11535.1	10646.75
988.4126	2618.3685	11460.75	10571.3
988.5375	2619.6461	11431.6	10545.35
988.6622	2620.9229	11403.7	10516.75
988.787	2622.199	11373.45	10483.65
988.9117	2623.4745	11333.7	10444.8
989.0364	2624.7493	11311.65	10423.7
989.161	2626.0234	11241	10354.05
989.2857	2627.2968	11194.95	10308.15
989.4102	2628.5695	11148.95	10259.5
989.5348	2629.8415	11115.25	10226.95
989.6593	2631.1128	11047.1	10155.65
989.7837	2632.3835	11005.05	10118.55
989.9082	2633.6535	10920.95	10035.15
990.0326	2634.9228	10934.4	10048.3
990.1569	2636.1914	10878.7	9992.9
990.2812	2637.4593	10869	9975.25
990.4055	2638.7265	10816.9	9927.15
990.5298	2639.9931	10780.55	9892.3
990.654	2641.259	10756.8	9868.75
990.7782	2642.5242	10726.3	9838.4
990.9023	2643.7887	10680.15	9793.1
991.0264	2645.0525	10683.45	9796.7
991.1505	2646.3156	10629.15	9740.9
991.2745	2647.5781	10583.3	9695.7
991.3985	2648.8398	10524.6	9638.75
991.5225	2650.1009	10522.05	9597.25
991.6464	2651.3613	10473.1	9585.45
991.7703	2652.6211	10424.1	9536.05
991.8942	2653.8801	10387.65	9502
992.018	2655.1385	10405.3	9516.65
992.1418	2656.3961	10359.2	9471.75
992.2655	2657.6531	10340.25	9454.2
992.3892	2658.9094	10307.95	9419.75
992.5129	2660.1651	10266.65	9378.85
992.6366	2661.42	10241.6	9352.5
992.7602	2662.6743	10226.4	9337.95
992.8837	2663.9279	10173.9	9286.85
993.0073	2665.1808	10165.3	9279.65
993.1307	2666.433	10108.75	9221.15
993.2542	2667.6846	10096.65	9210.7
993.3776	2668.9354	10064.4	9174.55
993.501	2670.1856	10031.15	9145
993.6244	2671.4351	9995.75	9109.8
993.7477	2672.6839	9971.55	9082.55
993.8709	2673.9321	9964.6	9080.1
993.9942	2675.1795	9912.3	9024.85
994.1174	2676.4263	9887.35	9000.6
994.2405	2677.6724	9837.75	8952.6
994.3637	2678.9179	9797.5	8910.35
994.4868	2680.1626	9797.25	8911.2
994.6098	2681.4067	9792.6	8904.75
994.7328	2682.6501	9724.2	8837.85
994.8558	2683.8928	9718.15	8831
994.9788	2685.1348	9674.1	8785.8
995.1017	2686.3761	9613	8724.8
995.2245	2687.6168	9596.15	8707.95
995.3474	2688.8568	9563.45	8677.4
995.4702	2690.0961	9516.8	8632.9
995.5929	2691.3348	9490.15	8602.45
995.7156	2692.5727	9467.25	8579.35
995.8383	2693.81	9437.15	8548.65
995.961	2695.0466	9402.05	8514.6
996.0836	2696.2826	9375.75	8486.45
996.2062	2697.5178	9385.95	8496.4
996.3287	2698.7524	9328.85	8441.3
996.4512	2699.9863	9301.5	8412.9
996.5737	2701.2195	9271.05	8384.3
996.6961	2702.452	9265.3	8376
996.8185	2703.6839	9206.05	8317.25
996.9408	2704.9151	9188.25	8302.1
997.0631	2706.1456	9158.25	8270.25
997.1854	2707.3755	9125.05	8237.5
997.3077	2708.6046	9095.7	8206.1
997.4299	2709.8331	9071.3	8182.85
997.552	2711.0609	9029.55	8142.25
997.6742	2712.2881	9014.15	8127.05
997.7963	2713.5145	8970.8	8082.65
997.9183	2714.7403	8963.4	8077.4
998.0403	2715.9654	8933.15	8043.95
998.1623	2717.1899	8883.5	7994.9
998.2842	2718.4136	8878.6	7992.35
998.4062	2719.6367	8854.25	7967.6
998.528	2720.8591	8824.75	7929.85
998.6498	2722.0809	8807.5	7919.05
998.7716	2723.3019	8771.4	7883.4
998.8934	2724.5223	8761.1	7872.8
999.0151	2725.7421	8700.25	7812.3
999.1368	2726.9611	8688.25	7799.9
999.2584	2728.1795	8661.85	7770.2
999.38	2729.3972	8598.85	7711.4
999.5016	2730.6142	8589.9	7692.2
999.6231	2731.8306	8552.85	7663.95
999.7446	2733.0462	8510.1	7621.9
999.8661	2734.2612	8482.2	7589.4
999.9875	2735.4756	8419.6	7532.1
1000.1089	2736.6892	8364.2	7475.4
1000.2302	2737.9022	8309.05	7423.45
1000.3515	2739.1145	8289.85	7403
1000.4728	2740.3262	8239.65	7343.7
1000.594	2741.5372	8207.45	7319.95
1000.7152	2742.7475	8146.95	7258.8
1000.8363	2743.9571	8133.15	7246.35
1000.9575	2745.1661	8104.7	7212.9
1001.0785	2746.3744	8078.85	7191.55
1001.1996	2747.582	8069.65	7182.65
1001.3206	2748.7889	8010.95	7122.9
1001.4415	2749.9952	7979.1	7091.45
1001.5625	2751.2008	7961.95	7073.15
1001.6833	2752.4057	7930.3	7041.95
1001.8042	2753.61	7891.5	7002.8
1001.925	2754.8136	7859.35	6970.6
1002.0458	2756.0165	7850.95	6963.85
1002.1665	2757.2188	7830.1	6943.85
1002.2872	2758.4204	7795.7	6909.8
1002.4078	2759.6213	7736.55	6846.2
1002.5285	2760.8215	7747.05	6858.4
1002.649	2762.0211	7710.05	6822
1002.7696	2763.22	7680.5	6791.2
1002.8901	2764.4182	7678.7	6790.55
1003.0106	2765.6158	7642	6754.6
1003.131	2766.8127	7599.7	6713.45
1003.2514	2768.009	7570.35	6684.4
1003.3717	2769.2045	7563.15	6675.8
1003.492	2770.3994	7560.3	6671.85
1003.6123	2771.5936	7510.65	6621.8
1003.7325	2772.7872	7480.05	6594.85
1003.8527	2773.9801	7437.75	6548.55
1003.9729	2775.1723	7422.65	6519.2
1004.093	2776.3639	7370.6	6483.55
1004.2131	2777.5548	7344.4	6453.2
1004.3331	2778.745	7331.8	6442.55
1004.4531	2779.9346	7323.7	6436.1
1004.5731	2781.1235	7318.55	6430.5
1004.693	2782.3117	7275.9	6390.3
1004.8129	2783.4992	7257.1	6371.45
1004.9328	2784.6861	7237	6348.6
1005.0526	2785.8723	7208.3	6318.9
1005.1723	2787.0579	7189.45	6302.7
1005.2921	2788.2428	7166.45	6278.25
1005.4118	2789.427	7137.6	6252.1
1005.5314	2790.6106	7133.65	6247.45
1005.651	2791.7935	7082.7	6194.6
1005.7706	2792.9757	7086.95	6201.45
1005.8902	2794.1573	7057.85	6167.55
1006.0097	2795.3382	7031	6142.35
1006.1291	2796.5184	7022.25	6136.4
1006.2485	2797.698	7013.35	6123.65
1006.3679	2798.8769	6998.7	6113.15
1006.4873	2800.0551	6974.35	6086.35
1006.6066	2801.2327	6957.35	6067.15
1006.7258	2802.4096	6938.95	6053
1006.8451	2803.5859	6924.55	6036.5
1006.9642	2804.7615	6906	6019.25
1007.0834	2805.9364	6902.9	6017.9
1007.2025	2807.1106	6892.65	6006.05
1007.3216	2808.2842	6905.25	6018.3
1007.4406	2809.4572	6880.25	5992.55
1007.5596	2810.6294	6907.15	6018.25
1007.6785	2811.801	6927.35	6042.3
1007.7975	2812.972	6924.7	6040.85
1007.9163	2814.1423	6927.65	6040.05
1008.0352	2815.3119	6945.95	6059.4
1008.154	2816.4808	6963.5	6077.7
1008.2727	2817.6491	6996.8	6108.5
1008.3914	2818.8167	7023.4	6138
1008.5101	2819.9837	7054.7	6161.4
1008.6288	2821.15	7080.85	6194.55
1008.7474	2822.3157	7088.75	6204.35
1008.8659	2823.4807	7104.2	6217.7
1008.9844	2824.645	7155.6	6268.05
1009.1029	2825.8086	7175.65	6290.4
1009.2214	2826.9716	7222.55	6335.75
1009.3398	2828.134	7248.6	6362.55
1009.4581	2829.2957	7269.45	6382.9
1009.5764	2830.4567	7276.9	6391.9
1009.6947	2831.617	7263.9	6378.1
1009.813	2832.7767	7263.15	6377.45
1009.9312	2833.9358	7249.7	6363.9
1010.0493	2835.0941	7236.85	6348.6
1010.1675	2836.2519	7204.2	6318
1010.2855	2837.4089	7202.4	6315.25
1010.4036	2838.5653	7173.35	6287.6
1010.5216	2839.7211	7141.2	6256.2
1010.6396	2840.8761	7115.9	6228.85
1010.7575	2842.0306	7124.45	6238.9
1010.8754	2843.1843	7143.1	6257.3
1010.9932	2844.3374	7146.7	6261.05
1011.111	2845.4899	7147.75	6259.85
1011.2288	2846.6417	7181	6295.3
1011.3465	2847.7928	7222.8	6337.7
1011.4642	2848.9433	7257.1	6370.55
1011.5818	2850.0931	7293.5	6408.35
1011.6995	2851.2422	7348.2	6462
1011.817	2852.3907	7388.75	6502
1011.9345	2853.5385	7410.55	6520.85
1012.052	2854.6857	7451.05	6554.2
1012.1695	2855.8323	7457.45	6570.95
1012.2869	2856.9781	7485.3	6599.6
1012.4042	2858.1233	7489.35	6604.15
1012.5216	2859.2679	7505.45	6621.1
1012.6389	2860.4118	7537.9	6651.25
1012.7561	2861.555	7567.05	6676.95
1012.8733	2862.6976	7598.45	6709.1
1012.9905	2863.8395	7598.7	6712.35
1013.1076	2864.9808	7604.65	6718.25
1013.2247	2866.1214	7604.5	6719.75
1013.3417	2867.2614	7590.65	6704.9
1013.4587	2868.4007	7572.95	6686.35
1013.5757	2869.5393	7564.3	6675.05
1013.6926	2870.6773	7544.95	6655.45
1013.8095	2871.8146	7540.45	6650.95
1013.9263	2872.9513	7529.5	6639.95
1014.0431	2874.0874	7486.25	6599.35
1014.1599	2875.2227	7467.65	6578.7
1014.2766	2876.3574	7407.45	6521.45
1014.3933	2877.4915	7370.95	6485.75
1014.51	2878.6249	7335.9	6449.3
1014.6266	2879.7577	7310.85	6421
1014.7431	2880.8898	7280.45	6383.45
1014.8596	2882.0212	7256.85	6370.65
1014.9761	2883.152	7224.4	6340.1
1015.0925	2884.2821	7180.25	6294.8
1015.2089	2885.4116	7150.25	6264.55
1015.3253	2886.5405	7124.75	6237.5
1015.4416	2887.6686	7127.05	6238.25
1015.5579	2888.7962	7103.9	6217.15
1015.6741	2889.923	7086.7	6201.4
1015.7903	2891.0493	7077.35	6194.5
1015.9065	2892.1748	7067.8	6179.5
1016.0226	2893.2997	7042.8	6157.45
1016.1387	2894.424	7064.75	6179.3
1016.2547	2895.5476	7055	6166.25
1016.3707	2896.6706	7029.3	6144.25
1016.4866	2897.7929	7047.3	6158.2
1016.6025	2898.9145	7042.3	6156.6
1016.7184	2900.0355	7026.65	6139.1
1016.8342	2901.1559	7027	6140.55
1016.95	2902.2756	7028.85	6142.85
1017.0658	2903.3946	7046.6	6160.8
1017.1815	2904.513	7070.75	6180.65
1017.2971	2905.6308	7050	6165.8
1017.4127	2906.7479	7048.35	6160.55
1017.5283	2907.8643	7067.25	6179.95
1017.6439	2908.9801	7055.4	6169.7
1017.7594	2910.0953	7051	6167.2
1017.8748	2911.2098	7026.85	6136.25
1017.9902	2912.3236	7005.45	6109.15
1018.1056	2913.4368	6969.8	6080.6
1018.2209	2914.5494	6928.75	6042
1018.3362	2915.6613	6893.2	6002
1018.4515	2916.7725	6865.9	5977.65
1018.5667	2917.8831	6835.7	5948.3
1018.6819	2918.9931	6800.55	5913
1018.797	2920.1024	6740.3	5852.15
1018.9121	2921.211	6730.5	5844.4
1019.0271	2922.319	6685.95	5798.35
1019.1421	2923.4264	6686	5800.1
1019.2571	2924.5331	6650.05	5766.35
1019.372	2925.6391	6601.75	5715.65
1019.4869	2926.7445	6603.65	5721
1019.6017	2927.8493	6581.1	5695.75
1019.7165	2928.9534	6571.75	5684.55
1019.8313	2930.0569	6548.15	5658.55
1019.946	2931.1597	6557.35	5670.05
1020.0606	2932.2619	6525.85	5638.8
1020.1753	2933.3634	6531.6	5647.1
1020.2899	2934.4643	6524.65	5630.2
1020.4044	2935.5645	6500.85	5607.55
1020.5189	2936.6641	6460.05	5568.55
1020.6334	2937.763	6402.15	5516.5
1020.7478	2938.8613	6361.05	5475.6
1020.8622	2939.959	6312.95	5419.7
1020.9765	2941.056	6241.35	5356.6
1021.0908	2942.1523	6137.3	5247.45
1021.2051	2943.248	6067.15	5179.05
1021.3193	2944.3431	5990.9	5105.8
1021.4334	2945.4375	5901.9	5015.55
1021.5476	2946.5313	5801.05	4917.55
1021.6617	2947.6244	5689.5	4802.5
1021.7757	2948.7169	5604.65	4718.1
1021.8897	2949.8087	5503.9	4617.85
1022.0037	2950.8999	5415.05	4528.45
1022.1176	2951.9904	5341.1	4455.8
1022.2315	2953.0803	5258.75	4370.7
1022.3453	2954.1696	5198.75	4313.55
1022.4591	2955.2582	5150.15	4264.7
1022.5728	2956.3462	5065.95	4179.7
1022.6865	2957.4335	5036.35	4148.9
1022.8002	2958.5202	4976.2	4089.05
1022.9138	2959.6062	4953.95	4067.45
1023.0274	2960.6916	4923.05	4037.4
1023.141	2961.7764	4871.25	3984.45
1023.2545	2962.8605	4850.25	3963.05
1023.3679	2963.9439	4838.65	3954.1
1023.4813	2965.0267	4800.15	3911.2
1023.5947	2966.1089	4794.25	3885.4
1023.708	2967.1905	4763.85	3876.8
1023.8213	2968.2714	4736.65	3852.65
1023.9346	2969.3516	4727.15	3840.8
1024.0478	2970.4312	4721.35	3828.25
1024.1609	2971.5102	4702.65	3817.1
1024.274	2972.5885	4708.4	3822.4
1024.3871	2973.6662	4705.8	3814.4
1024.5002	2974.7432	4661	3774.1
1024.6132	2975.8196	4642.25	3756.8
1024.7261	2976.8954	4618.45	3732.65
1024.839	2977.9705	4607.75	3721.15
1024.9519	2979.045	4586.75	3701.55
1025.0647	2980.1188	4555.7	3670.75
1025.1775	2981.192	4540.2	3656.45
1025.2902	2982.2645	4502.9	3614.4
1025.4029	2983.3364	4465.25	3580.05
1025.5156	2984.4077	4434.95	3549.15
1025.6282	2985.4783	4408.6	3516.6
1025.7407	2986.5483	4361.35	3476.55
1025.8532	2987.6177	4332.25	3446.35
1025.9657	2988.6864	4297.25	3411.9
1026.0782	2989.7545	4279.05	3392.5
1026.1906	2990.8219	4229.6	3345.05
1026.3029	2991.8887	4167.6	3277.9
1026.4152	2992.9548	4145.3	3259.9
1026.5275	2994.0204	4109.1	3224.7
1026.6397	2995.0852	4049.1	3162.55
1026.7519	2996.1495	4046.85	3160.35
1026.864	2997.2131	4003.45	3119.35
1026.9761	2998.276	3975.9	3089.9
1027.0882	2999.3383	3941.2	3054.2
1027.2002	3000.4	3918.6	3029.65
1027.3122	3001.4611	3885.35	2999.8
1027.4241	3002.5215	3863.1	2978.05
1027.536	3003.5812	3848	2962.55
1027.6478	3004.6404	3828.15	2942.45
1027.7596	3005.6989	3815	2926.4
1027.8714	3006.7567	3789.9	2904.45
1027.9831	3007.8139	3804.95	2886.5
1028.0947	3008.8705	3741.5	2855.05
1028.2064	3009.9264	3736.35	2846.1
1028.3179	3010.9818	3711.5	2824.8
1028.4295	3012.0364	3707.25	2820.75
1028.541	3013.0905	3686	2800.15
1028.6524	3014.1439	3672.55	2786.15
1028.7638	3015.1966	3673.7	2786.9
1028.8752	3016.2487	3654.9	2768.1
1028.9865	3017.3002	3638.6	2750
1029.0978	3018.3511	3612.9	2728.9
1029.209	3019.4013	3610.75	2724.25
1029.3202	3020.4509	3602.1	2717.35
1029.4314	3021.4998	3583.3	2698.2
1029.5425	3022.5481	3584.3	2698.3
1029.6535	3023.5958	3556.2	2670.55
1029.7645	3024.6428	3560.3	2672.7
1029.8755	3025.6892	3548.7	2664.1
1029.9864	3026.735	3527.4	2640.55
1030.0973	3027.7802	3513.65	2626.95
1030.2082	3028.8247	3495.35	2610.3
1030.319	3029.8685	3489.7	2603.2
1030.4297	3030.9118	3485.6	2600.4
1030.5404	3031.9544	3484.15	2598.1
1030.6511	3032.9963	3473.85	2588.6
1030.7617	3034.0376	3465	2577.95
1030.8723	3035.0783	3455.75	2565.75
1030.9829	3036.1184	3460.6	2573.9
1031.0934	3037.1578	3450.7	2563.95
1031.2038	3038.1966	3431.8	2544
1031.3142	3039.2348	3427.1	2544.7
1031.4246	3040.2723	3422.25	2528.65
1031.5349	3041.3092	3404.25	2519.15
1031.6452	3042.3455	3390.45	2503.9
1031.7554	3043.3811	3380.45	2494.55
1031.8656	3044.4161	3365.3	2477.3
1031.9758	3045.4505	3351.85	2466.5
1032.0859	3046.4842	3350.35	2466.5
1032.1959	3047.5173	3345.75	2460.5
1032.3059	3048.5498	3324.2	2438.5
1032.4159	3049.5816	3299.95	2413.6
1032.5258	3050.6128	3306.9	2420.2
1032.6357	3051.6434	3289.85	2401.55
1032.7455	3052.6734	3282.7	2396.3
1032.8553	3053.7027	3268.6	2382.15
1032.9651	3054.7314	3261.8	2376.15
1033.0748	3055.7594	3239.8	2354.1
1033.1845	3056.7868	3242.5	2355.5
1033.2941	3057.8136	3238.45	2353.2
1033.4037	3058.8398	3217.55	2332.35
1033.5132	3059.8653	3195.55	2310.5
1033.6227	3060.8902	3189.65	2302.5
1033.7321	3061.9145	3171.6	2284.7
1033.8415	3062.9381	3167.2	2279.65
1033.9509	3063.9612	3167	2266.35
1034.0602	3064.9835	3132.35	2246.9
1034.1694	3066.0053	3119.9	2231.05
1034.2787	3067.0264	3111.15	2226.5
1034.3878	3068.0469	3103.95	2217
1034.497	3069.0668	3103.6	2215.85
1034.6061	3070.086	3092.8	2208.7
1034.7151	3071.1046	3073.15	2187.25
1034.8241	3072.1226	3056.85	2171
1034.9331	3073.1399	3046	2160.45
1035.042	3074.1567	3034.2	2149.3
1035.1508	3075.1727	3022.7	2135.55
1035.2597	3076.1882	2995.05	2109
1035.3684	3077.203	2998.7	2111.8
1035.4772	3078.2173	2975.4	2089.1
1035.5859	3079.2308	2954.3	2065.9
1035.6945	3080.2438	2950.35	2060.35
1035.8031	3081.2561	2937.5	2052.25
1035.9117	3082.2678	2927.9	2042.1
1036.0202	3083.2789	2919	2034.95
1036.1286	3084.2893	2912.05	2026.7
1036.2371	3085.2991	2883.05	1997.6
1036.3454	3086.3083	2871.75	1981.7
1036.4538	3087.3169	2853.25	1966.1
1036.562	3088.3248	2857.65	1970.6
1036.6703	3089.3321	2847.6	1959.75
1036.7785	3090.3388	2827.4	1942.25
1036.8866	3091.3449	2821.45	1935.85
1036.9948	3092.3503	2810.1	1921.75
1037.1028	3093.3551	2804.95	1920.05
1037.2108	3094.3593	2781.85	1896.7
1037.3188	3095.3629	2774.95	1890.4
1037.4267	3096.3658	2758.35	1870.4
1037.5346	3097.3681	2745.5	1861
1037.6425	3098.3698	2754.4	1865.95
1037.7503	3099.3708	2738.15	1846.15
1037.858	3100.3713	2722	1837.05
1037.9657	3101.3711	2721.35	1834.3
1038.0734	3102.3702	2831.15	1805.65
1038.181	3103.3688	2707.05	1819.85
1038.2886	3104.3667	2674.5	1789.25
1038.3961	3105.364	2672.95	1788.35
1038.5036	3106.3607	2659.2	1771.9
1038.611	3107.3568	2649.55	1762
1038.7184	3108.3522	2623.4	1738
1038.8257	3109.347	2629.6	1744.45
1038.933	3110.3412	2615.7	1725.3
1039.0403	3111.3348	2598.65	1715.3
1039.1475	3112.3277	2592.9	1709.3
1039.2547	3113.32	2585.65	1700.85
1039.3618	3114.3117	2582.85	1698.45
1039.4689	3115.3028	2568	1682.95
1039.5759	3116.2932	2545.9	1658.8
1039.6829	3117.2831	2550.9	1660.55
1039.7898	3118.2723	2530.7	1644.8
1039.8967	3119.2608	2527.25	1641.85
1040.0035	3120.2488	2523.5	1637.9
1040.1103	3121.2361	2494.75	1609.25
1040.2171	3122.2229	2499.95	1616.2
1040.3238	3123.209	2485.4	1599.25
1040.4305	3124.1944	2476.75	1592.55
1040.5371	3125.1793	2484.1	1596.85
1040.6437	3126.1635	2466.15	1580.7
1040.7502	3127.1471	2456.55	1572.6
1040.8567	3128.1301	2445.9	1562.15
1040.9631	3129.1125	2439.4	1553.3
1041.0695	3130.0942	2432.25	1546.7
1041.1759	3131.0753	2433.8	1539.9
1041.2822	3132.0558	2420.2	1531.9
1041.3884	3133.0357	2406.9	1519.7
1041.4946	3134.015	2403.75	1515
1041.6008	3134.9936	2389.4	1502.4
1041.7069	3135.9716	2398.55	1492.9
1041.813	3136.949	2388.75	1504.3
1041.919	3137.9258	2385.2	1493.35
1042.025	3138.902	2381.25	1490.25
1042.1309	3139.8775	2362.65	1476.2
1042.2368	3140.8524	2356.6	1470.75
1042.3427	3141.8267	2352.9	1466.4
1042.4485	3142.8004	2344.45	1455.95
1042.5542	3143.7735	2349.3	1459.6
1042.6599	3144.7459	2330.75	1443.8
1042.7656	3145.7178	2324	1437.45
1042.8712	3146.689	2325.25	1441.3
1042.9768	3147.6596	2308.2	1421.1
1043.0823	3148.6295	2297.75	1411.65
1043.1878	3149.5989	2286.85	1401.95
1043.2932	3150.5676	2284.8	1399.8
1043.3986	3151.5357	2275.45	1392.1
1043.5039	3152.5032	2275.75	1390.9
1043.6092	3153.4701	2260.35	1376.6
1043.7145	3154.4364	2261.95	1374.7
1043.8197	3155.402	2253.95	1370.2
1043.9248	3156.367	2241.35	1354.2
1044.03	3157.3315	2264.4	1334.45
1044.135	3158.2952	2226.5	1340.85
1044.24	3159.2584	2210.8	1325.95
1044.345	3160.221	2207	1321.25
1044.4499	3161.1829	2194.35	1309.2
1044.5548	3162.1442	2192.85	1308.45
1044.6596	3163.105	2191.45	1307.85
1044.7644	3164.065	2187.9	1302.65
1044.8692	3165.0245	2175.75	1285.2
1044.9739	3165.9834	2155.8	1271.5
1045.0785	3166.9416	2156.5	1269.25
1045.1831	3167.8993	2146	1258.75
1045.2877	3168.8563	2143.25	1256.55
1045.3922	3169.8127	2140.8	1255
1045.4966	3170.7684	2128.7	1243.7
1045.6011	3171.7236	2128.65	1241.5
1045.7054	3172.6782	2113.8	1228.1
1045.8098	3173.6321	2111.6	1225.5
1045.914	3174.5854	2104.5	1213.6
1046.0183	3175.5381	2102.9	1218
1046.1224	3176.4902	2089	1205.15
1046.2266	3177.4417	2071.65	1185.95
1046.3307	3178.3926	2074.9	1190.55
1046.4347	3179.3428	2072.8	1187.85
1046.5387	3180.2924	2064.45	1179.45
1046.6427	3181.2415	2053.45	1167.95
1046.7466	3182.1899	2054.5	1167.4
1046.8504	3183.1377	2048.35	1164.35
1046.9542	3184.0848	2049.6	1162.35
1047.058	3185.0314	2034.45	1148.4
1047.1617	3185.9773	2020.7	1135.15
1047.2654	3186.9227	2022.25	1136.15
1047.369	3187.8674	2020.25	1133.4
1047.4726	3188.8115	1997.05	1109.3
1047.5761	3189.755	1995.95	1111.3
1047.6796	3190.6979	1981.35	1096.35
1047.783	3191.6402	1986.45	1102.05
1047.8864	3192.5818	1985.8	1100.6
1047.9898	3193.5229	1985.65	1083.3
1048.0931	3194.4633	1973.35	1087.4
1048.1963	3195.4031	1965.8	1080.35
1048.2995	3196.3423	1955.6	1070.9
1048.4027	3197.2809	1954.6	1068.6
1048.5058	3198.2189	1945.65	1061.9
1048.6089	3199.1563	1955	1055.6
1048.7119	3200.0931	1931.75	1046.35
1048.8148	3201.0292	1929.75	1045.95
1048.9178	3201.9648	1917.25	1033.5
1049.0206	3202.8997	1916.8	1027.65
1049.1235	3203.834	1909.15	1024.9
1049.2262	3204.7677	1911.55	1026.45
1049.329	3205.7008	1901.15	1014.4
1049.4317	3206.6333	1897.45	1014.5
1049.5343	3207.5652	1888.6	999.75
1049.6369	3208.4964	1898.8	1014.55
1049.7394	3209.4271	1892.9	1007.05
1049.8419	3210.3571	1882.5	997.1
1049.9444	3211.2865	1873	985.55
1050.0468	3212.2154	1875.1	989.7
1050.1491	3213.1436	1870.45	983
1050.2514	3214.0712	1871.8	979.1
1050.3537	3214.9982	1857.75	971.85
1050.4559	3215.9246	1851.25	964.75
1050.5581	3216.8503	1850.15	965.8
1050.6602	3217.7755	1848.05	960.85
1050.7623	3218.7001	1846.1	963.65
1050.8643	3219.624	1824.6	937.4
1050.9663	3220.5473	1828.5	943.05
1051.0682	3221.4701	1827.45	942.05
1051.1701	3222.3922	1814.8	926.95
1051.2719	3223.3137	1814	930.6
1051.3737	3224.2346	1807.55	920.95
1051.4754	3225.1549	1807.85	922.55
1051.5771	3226.0746	1787.55	901.75
1051.6788	3226.9937	1791.3	905.9
1051.7804	3227.9121	1788.55	905.45
1051.8819	3228.83	1780.25	894.3
1051.9834	3229.7473	1778.5	894.25
1052.0849	3230.6639	1761.3	873.8
1052.1863	3231.5799	1759.45	876.1
1052.2876	3232.4954	1765.7	880.15
1052.3889	3233.4102	1752.65	867.15
1052.4902	3234.3244	1757.4	872.05
1052.5914	3235.238	1744.95	859
1052.6926	3236.151	1770	860.95
1052.7937	3237.0634	1736.3	851.2
1052.8948	3237.9752	1723.3	839.1
1052.9958	3238.8864	1728.2	843.6
1053.0968	3239.797	1723.45	840
1053.1977	3240.7069	1716.65	827.8
1053.2986	3241.6163	1710.7	822.85
1053.3994	3242.5251	1699.85	816.25
1053.5002	3243.4332	1706.2	821.1
1053.6009	3244.3408	1694.7	809.65
1053.7016	3245.2477	1693.8	810.15
1053.8022	3246.154	1683.8	797.1
1053.9028	3247.0598	1682.25	797.95
1054.0034	3247.9649	1672.25	785.4
1054.1039	3248.8694	1675.1	791.1
1054.2043	3249.7733	1663.65	777.1
1054.3047	3250.6766	1662.9	777.35
1054.4051	3251.5793	1663.45	775.85
1054.5054	3252.4814	1646.1	761.85
1054.6056	3253.3829	1644.75	760.65
1054.7058	3254.2838	1639.3	755.5
1054.806	3255.1841	1636.7	751.4
1054.9061	3256.0838	1643.4	758.5
1055.0061	3256.9829	1618.35	733.5
1055.1062	3257.8814	1611.25	724.4
1055.2061	3258.7792	1606.8	719.95
1055.306	3259.6765	1597.55	711.95
1055.4059	3260.5731	1599	714.75
1055.5057	3261.4692	1586.95	702.65
1055.6055	3262.3647	1575.5	688.7
1055.7052	3263.2595	1562.65	676.35
1055.8049	3264.1538	1559.15	672
1055.9045	3265.0474	1553.55	668.6
1056.0041	3265.9404	1539.8	653.15
1056.1036	3266.8329	1532.25	649.65
1056.2031	3267.7247	1526.75	630.45
1056.3025	3268.616	1507.2	623
1056.4019	3269.5066	1491.4	604.7
1056.5013	3270.3966	1473.25	586.45
1056.6005	3271.286	1455.55	572.45
