Software Version:	3.9.2.0
Unit SN:	10000200
Spectrometer SN:	6960
Date:	3/6/2024 10:58:40 AM
Data Line Index:	25
Spectral Points:	2048
Integration time (ms):	125
Averages:	20
Delay (ms):	30
Sequence Number:	1
Processing:	dark subtract
Laser Power (mW):	300
Laser Current (mA):	823
Laser Diode Temp (C):	25.1
Laser Case Temp (C):	28
System Temp (C):	27.9
Spectrometer Temp (C):	25.3
CCD Temp (C):	-0.002
Secondary Temp (C):	20
Heatsink Temp (C):	23.766
CCDPCB Temp (C):	37.196
SecondaryPCB Temp (C):	34.673

Wavelength	RamanShift	Raw Counts	Dark Subtracted
787.061	30.1047	1094.3	679.05
787.2016	32.3739	1116.4	702.7
787.3422	34.6426	1166.2	749.65
787.4828	36.9109	1208	792.55
787.6235	39.1787	1258.45	839.75
787.7642	41.4461	1327.3	902.3
787.9049	43.7131	1387.65	960.05
788.0456	45.9796	1444	1013.8
788.1863	48.2456	1503.2	1068.85
788.3271	50.5112	1576.2	1138.4
788.4679	52.7764	1646.65	1207.2
788.6087	55.0411	1711.25	1266.95
788.7496	57.3054	1795.7	1344.45
788.8904	59.5692	1884.15	1432.65
789.0313	61.8326	1984.5	1529.3
789.1722	64.0955	2084.75	1623.7
789.3132	66.3579	2205.6	1740.15
789.4541	68.6199	2351.35	1885
789.5951	70.8815	2590.05	2120.6
789.7361	73.1426	3081.2	2607.7
789.8771	75.4032	4294.9	3813.9
790.0181	77.6634	7411.45	6927.7
790.1592	79.9231	15383.8	14892.45
790.3003	82.1824	49866.65	49369.15
790.4414	84.4412	65535	65022.55
790.5825	86.6995	65535	64994.95
790.7237	88.9574	65535	64976.55
790.8648	91.2148	65535	64961.7
791.006	93.4717	65535	64950.85
791.1472	95.7282	65535	64942.45
791.2885	97.9842	65535	64942.4
791.4297	100.2398	65535	64938.95
791.571	102.4949	65535	64933.65
791.7123	104.7495	65535	64929.5
791.8536	107.0036	65535	64933.55
791.9949	109.2573	65535	64930.6
792.1363	111.5105	65535	64927.8
792.2777	113.7632	65535	64927.4
792.4191	116.0154	65535	64918.25
792.5605	118.2672	65535	64922.05
792.7019	120.5185	65535	64920.2
792.8434	122.7693	65535	64918.85
792.9849	125.0197	65535	64912.65
793.1264	127.2696	65535	64909.9
793.2679	129.519	65535	64907.8
793.4094	131.7679	65535	64906.55
793.551	134.0163	65535	64904
793.6926	136.2642	65535	64901.15
793.8342	138.5117	65535	64889.15
793.9758	140.7587	65535	64893.9
794.1175	143.0052	65535	64891.1
794.2591	145.2512	65535	64894.55
794.4008	147.4967	65535	64886.9
794.5425	149.7417	65535	64885.8
794.6842	151.9863	65535	64886.6
794.826	154.2304	65535	64880.45
794.9677	156.4739	65535	64877.2
795.1095	158.717	65535	64879.95
795.2513	160.9596	65535	64871.65
795.3931	163.2017	65535	64873.35
795.535	165.4433	65535	64868.7
795.6768	167.6844	65535	64865
795.8187	169.925	65535	64864.8
795.9606	172.1651	65535	64859.2
796.1025	174.4047	65535	64858.2
796.2445	176.6439	65535	64856.8
796.3864	178.8825	65535	64851.6
796.5284	181.1206	65535	64847.3
796.6704	183.3582	65535	64844.45
796.8124	185.5954	65535	64843.75
796.9544	187.832	65535	64838.85
797.0965	190.0681	65535	64841.6
797.2386	192.3037	65535	64835.7
797.3806	194.5388	65535	64831
797.5228	196.7734	65535	64824.95
797.6649	199.0075	65535	64825.6
797.807	201.2411	65535	64823.05
797.9492	203.4742	65535	64823.15
798.0914	205.7068	65535	64822.2
798.2336	207.9389	65535	64822.8
798.3758	210.1704	65535	64813
798.518	212.4015	65535	64814
798.6603	214.632	65535	64817.15
798.8025	216.862	65535	64830.15
798.9448	219.0915	65535	64835.6
799.0871	221.3205	65535	64831.95
799.2294	223.549	65535	64836
799.3718	225.777	65535	64840.05
799.5141	228.0044	65535	64832.6
799.6565	230.2314	65535	64835.9
799.7989	232.4578	65535	64833.6
799.9413	234.6837	65535	64826.15
800.0837	236.909	65535	64826.15
800.2262	239.1339	65535	64800.9
800.3687	241.3582	65535	64815.3
800.5111	243.582	65535	64783.25
800.6536	245.8053	65535	64797.65
800.7961	248.0281	65535	64799
800.9387	250.2503	65535	64797.4
801.0812	252.472	65535	64787.25
801.2238	254.6932	65535	64786.05
801.3664	256.9139	65535	64788.3
801.509	259.134	65535	64786.8
801.6516	261.3536	65535	64785.5
801.7942	263.5727	65535	64785
801.9369	265.7912	65535	64785.05
802.0795	268.0092	65535	64786.35
802.2222	270.2267	65535	64779.95
802.3649	272.4436	65535	64783.6
802.5076	274.6601	65535	64776.6
802.6504	276.8759	65535	64778.55
802.7931	279.0913	65535	64778
802.9359	281.3061	65535	64775.2
803.0787	283.5204	65535	64772.7
803.2215	285.7341	65535	64768.85
803.3643	287.9473	65535	64757
803.5071	290.16	65535	64760.95
803.6499	292.3721	65535	64771.95
803.7928	294.5837	65535	64769.65
803.9357	296.7947	65535	64769.45
804.0786	299.0052	65535	64769.95
804.2215	301.2152	65535	64762
804.3644	303.4246	65535	64768.05
804.5074	305.6334	65535	64770.2
804.6503	307.8418	65535	64766.25
804.7933	310.0495	65535	64763.05
804.9363	312.2568	65535	64763.05
805.0793	314.4635	65535	64762.4
805.2223	316.6696	65535	64760.8
805.3653	318.8752	65535	64751.4
805.5084	321.0802	65535	64758.95
805.6514	323.2847	65535	64757.6
805.7945	325.4887	65535	64756.8
805.9376	327.692	65535	64754.85
806.0807	329.8949	65535	64755.85
806.2238	332.0972	65535	64752.75
806.367	334.2989	65535	64747.1
806.5101	336.5001	65535	64749.4
806.6533	338.7007	65535	64751.15
806.7965	340.9008	65535	64747.45
806.9397	343.1003	65535	64746.15
807.0829	345.2992	65535	64742.6
807.2261	347.4976	65535	64743.65
807.3693	349.6955	65535	64740.5
807.5126	351.8927	65535	64739.25
807.6559	354.0895	65535	64726
807.7991	356.2856	65535	64739.8
807.9424	358.4812	65535	64740.05
808.0857	360.6763	65535	64736.8
808.2291	362.8707	65535	64733.4
808.3724	365.0646	65535	64732.45
808.5158	367.258	65535	64730.65
808.6591	369.4508	65535	64727
808.8025	371.643	65535	64728.8
808.9459	373.8346	65535	64723.9
809.0893	376.0257	65535	64722.2
809.2327	378.2162	65535	64721.25
809.3762	380.4062	65535	64720.45
809.5196	382.5956	65535	64715.35
809.6631	384.7844	65535	64719.1
809.8066	386.9726	65535	64716.8
809.9501	389.1603	65535	64721.6
810.0936	391.3474	65535	64682.2
810.2371	393.5339	65535	64722.3
810.3806	395.7199	65535	64724.85
810.5241	397.9052	65535	64730.25
810.6677	400.09	65535	64728.6
810.8113	402.2743	65535	64728.7
810.9548	404.4579	65535	64729.65
811.0984	406.641	65535	64727.5
811.2421	408.8235	65535	64727.15
811.3857	411.0054	65535	64724.55
811.5293	413.1868	65535	64720.65
811.673	415.3675	65535	64720.05
811.8166	417.5477	65535	64719.15
811.9603	419.7273	65535	64717.1
812.104	421.9064	65535	64707.55
812.2477	424.0848	65535	64711.7
812.3914	426.2627	65535	64707.85
812.5351	428.4399	65535	64707.3
812.6788	430.6166	65535	64704.25
812.8226	432.7928	65535	64705.3
812.9663	434.9683	65535	64704.25
813.1101	437.1432	65535	64701.8
813.2539	439.3176	65535	64703.3
813.3977	441.4914	65535	64702.6
813.5415	443.6645	65535	64701.85
813.6853	445.8371	65535	64701.7
813.8291	448.0091	65535	64705.75
813.973	450.1806	65535	64702.6
814.1168	452.3514	65535	64701.1
814.2607	454.5216	65535	64693.3
814.4046	456.6913	65535	64698.25
814.5485	458.8603	65535	64698.95
814.6924	461.0288	65535	64698.9
814.8363	463.1967	65535	64699.75
814.9802	465.3639	65535	64696.7
815.1241	467.5306	65535	64699.25
815.2681	469.6967	65535	64700
815.412	471.8622	65535	64696.2
815.556	474.0271	65535	64699.1
815.7	476.1914	65535	64693.25
815.844	478.3551	65535	64694
815.988	480.5182	65535	64695.05
816.132	482.6807	65535	64693.85
816.276	484.8426	65535	64696.75
816.4201	487.0039	65535	64696.85
816.5641	489.1647	65535	64690.95
816.7082	491.3248	65535	64694.5
816.8522	493.4843	65535	64691.7
816.9963	495.6432	65535	64691.5
817.1404	497.8015	65535	64691.35
817.2845	499.9592	65535	64690.95
817.4286	502.1163	65535	64690.35
817.5727	504.2728	65535	64688.15
817.7168	506.4287	65535	64690.2
817.861	508.5839	65535	64692.5
818.0051	510.7386	65535	64691.15
818.1493	512.8927	65535	64684.15
818.2935	515.0461	65535	64685.75
818.4377	517.199	65535	64688.2
818.5818	519.3512	65535	64686.6
818.726	521.5029	65535	64679.3
818.8703	523.6539	65535	64684.25
819.0145	525.8043	65535	64686.2
819.1587	527.9541	65535	64679
819.303	530.1033	65535	64684.2
819.4472	532.2519	65535	64683
819.5915	534.3999	65535	64679.95
819.7357	536.5472	65535	64680
819.88	538.694	65535	64679.3
820.0243	540.8401	65535	64679.25
820.1686	542.9856	65535	64675.55
820.3129	545.1305	65535	64676.75
820.4572	547.2748	65535	64675.85
820.6016	549.4185	65535	64675.25
820.7459	551.5615	65535	64673.8
820.8902	553.704	65535	64675.8
821.0346	555.8458	65535	64675.1
821.1789	557.987	65535	64677.85
821.3233	560.1276	65535	64675.65
821.4677	562.2675	65535	64678.55
821.6121	564.4069	65535	64674.55
821.7565	566.5456	65535	64678.3
821.9009	568.6837	65535	64677.3
822.0453	570.8212	65535	64678.65
822.1897	572.958	65535	64680.5
822.3342	575.0942	65535	64678.05
822.4786	577.2299	65535	64677.95
822.6231	579.3648	65535	64678.4
822.7675	581.4992	65535	64677.75
822.912	583.6329	65535	64678.85
823.0565	585.766	65535	64677
823.201	587.8985	65535	64680.7
823.3454	590.0304	65535	64651.5
823.4899	592.1616	65535	64671.2
823.6345	594.2922	65535	64671.8
823.779	596.4222	65535	64670.55
823.9235	598.5515	65535	64669.25
824.068	600.6802	65535	64672.65
824.2126	602.8083	65535	64670.35
824.3571	604.9358	65535	64670.15
824.5017	607.0626	65535	64668.55
824.6462	609.1888	65535	64669.55
824.7908	611.3144	65535	64668.05
824.9354	613.4393	65535	64670.35
825.08	615.5636	65535	64669.05
825.2246	617.6873	65535	64671.15
825.3692	619.8103	65535	64669.15
825.5138	621.9327	65535	64668.5
825.6584	624.0544	65535	64668.45
825.803	626.1756	65535	64668.2
825.9477	628.2961	65535	64667
826.0923	630.4159	65535	64664.45
826.237	632.5351	65535	64665.3
826.3816	634.6537	65535	64663.9
826.5263	636.7716	65535	64664.8
826.6709	638.8889	65535	64663.65
826.8156	641.0056	65535	64663.55
826.9603	643.1216	65535	64663.1
827.105	645.237	65535	64662.2
827.2497	647.3518	65535	64663.6
827.3944	649.4659	65535	64663.45
827.5391	651.5793	65535	64664.1
827.6838	653.6922	65535	64668.2
827.8285	655.8043	65535	64663.45
827.9733	657.9159	65535	64664.5
828.118	660.0268	65535	64661.8
828.2627	662.137	65535	64661.8
828.4075	664.2466	65535	64657.05
828.5522	666.3556	65535	64662.3
828.697	668.4639	65535	64657.9
828.8418	670.5716	65535	64663.7
828.9865	672.6786	65535	64657.65
829.1313	674.785	65535	64659.5
829.2761	676.8907	65535	64658.05
829.4209	678.9958	65535	64662.05
829.5657	681.1002	65535	64658.25
829.7105	683.204	65535	64653.9
829.8553	685.3072	65535	64655.05
830.0001	687.4097	65535	64657.3
830.1449	689.5115	65535	64656.1
830.2898	691.6127	65535	64659
830.4346	693.7132	65535	64657.3
830.5794	695.8131	65535	64647.05
830.7243	697.9123	65535	64655.15
830.8691	700.0109	65535	64656.4
831.014	702.1089	65535	64656.9
831.1588	704.2061	65535	64655
831.3037	706.3028	65535	64655.7
831.4486	708.3987	65535	64654.25
831.5935	710.4941	65535	64654.85
831.7383	712.5887	65535	64653.8
831.8832	714.6827	65535	64651.5
832.0281	716.7761	65535	64657.85
832.173	718.8688	65535	64650.95
832.3179	720.9608	65535	64651.55
832.4628	723.0522	65535	64649.5
832.6077	725.1429	65535	64654.5
832.7527	727.233	65535	64652.6
832.8976	729.3224	65535	64650.55
833.0425	731.4112	65535	64653.1
833.1874	733.4993	65535	64649.65
833.3324	735.5867	65535	64651.45
833.4773	737.6735	65535	64650.5
833.6222	739.7596	65535	64650.15
833.7672	741.845	65535	64650.85
833.9122	743.9298	65535	64646.6
834.0571	746.014	65535	64652.15
834.2021	748.0974	65535	64649.3
834.347	750.1802	65535	64651.55
834.492	752.2624	65535	64653.5
834.637	754.3439	65535	64649.65
834.782	756.4247	65535	64640.7
834.9269	758.5048	65535	64650.55
835.0719	760.5843	65535	64649.05
835.2169	762.6631	65535	64647.7
835.3619	764.7413	65535	64651.7
835.5069	766.8188	65535	64647.9
835.6519	768.8956	65535	64647.05
835.7969	770.9718	65535	64651.1
835.9419	773.0473	65535	64653.15
836.0869	775.1221	65535	64648.1
836.232	777.1962	65535	64649.05
836.377	779.2697	65535	64648.2
836.522	781.3426	65535	64629
836.667	783.4147	65535	64643.35
836.8121	785.4862	65535	64651.1
836.9571	787.557	65535	64646.6
837.1021	789.6271	65535	64647.15
837.2472	791.6966	65535	64646.1
837.3922	793.7654	65535	64644.25
837.5373	795.8335	65535	64650.1
837.6823	797.901	65535	64649.2
837.8274	799.9678	65535	64646.3
837.9724	802.0339	65535	64648.55
838.1175	804.0993	65535	64637
838.2626	806.1641	65535	64644.85
838.4076	808.2282	65535	64646.65
838.5527	810.2916	65535	64644.55
838.6978	812.3544	65535	64650.25
838.8428	814.4164	65535	64647.55
838.9879	816.4778	65535	64644.45
839.133	818.5385	65535	64646.45
839.2781	820.5986	65535	64647.85
839.4232	822.658	65535	64643.65
839.5682	824.7166	65535	64647.9
839.7133	826.7747	65535	64647.5
839.8584	828.832	65535	64646.85
840.0035	830.8886	65535	64644.8
840.1486	832.9446	65535	64643.45
840.2937	834.9999	65535	64647.7
840.4388	837.0545	65535	64645.75
840.5839	839.1085	65535	64643.6
840.729	841.1618	65535	64641.65
840.8741	843.2143	65535	64646.8
841.0192	845.2662	65535	64642.95
841.1643	847.3175	65535	64644.95
841.3095	849.368	65535	64644.45
841.4546	851.4179	65535	64645
841.5997	853.467	65535	64644.4
841.7448	855.5155	65535	64645.3
841.8899	857.5633	65535	64645.05
842.0351	859.6105	65535	64646.2
842.1802	861.6569	65535	64644.3
842.3253	863.7027	65535	64640.85
842.4704	865.7478	65535	64642.4
842.6156	867.7922	65535	64644.15
842.7607	869.8359	65535	64643.8
842.9058	871.8789	65535	64642.25
843.0509	873.9212	65535	64612.3
843.1961	875.9629	65535	64643
843.3412	878.0039	65535	64639.6
843.4863	880.0441	65535	64646.4
843.6315	882.0837	65535	64644.25
843.7766	884.1226	65535	64640.55
843.9218	886.1609	65535	64643.25
844.0669	888.1984	65535	64643
844.212	890.2352	65535	64645.15
844.3572	892.2714	65535	64639.15
844.5023	894.3069	65535	64641
844.6475	896.3416	65535	64643.2
844.7926	898.3757	65535	64640.75
844.9377	900.4091	65535	64639.2
845.0829	902.4418	65535	64636.9
845.228	904.4739	65535	64638.15
845.3732	906.5052	65535	64642.15
845.5183	908.5358	65535	64642.5
845.6635	910.5658	65535	64637.95
845.8086	912.595	65535	64642.6
845.9538	914.6236	65535	64641.75
846.0989	916.6515	65535	64643.9
846.2441	918.6786	65535	64637.25
846.3892	920.7051	65535	64638.9
846.5344	922.7309	65535	64641.85
846.6795	924.756	65535	64642.95
846.8246	926.7804	65535	64642.15
846.9698	928.8041	65535	64633.95
847.1149	930.8272	65535	64640.85
847.2601	932.8495	65535	64638.65
847.4052	934.8711	65535	64639.15
847.5504	936.892	65535	64637.7
847.6955	938.9123	65535	64637.35
847.8407	940.9318	65535	64640
847.9858	942.9506	65535	64638.7
848.131	944.9688	65535	64640.55
848.2761	946.9862	65535	64642.35
848.4213	949.003	65535	64637.25
848.5664	951.019	65535	64640.75
848.7115	953.0344	65535	64639.2
848.8567	955.0491	65535	64638.6
849.0018	957.063	65535	64639.95
849.147	959.0763	65535	64641.8
849.2921	961.0888	65535	64640.05
849.4373	963.1007	65535	64639.55
849.5824	965.1119	65535	64639.5
849.7275	967.1223	65535	64641.25
849.8727	969.1321	65535	64641.15
850.0178	971.1412	65535	64639.7
850.1629	973.1495	65535	64638.55
850.3081	975.1572	65535	64605.7
850.4532	977.1641	65535	64640.95
850.5983	979.1704	65535	64637.45
850.7435	981.1759	65535	64636.85
850.8886	983.1808	65535	64637.1
851.0337	985.1849	65535	64630.2
851.1788	987.1884	65535	64636.35
851.324	989.1911	65535	64637.15
851.4691	991.1932	65535	64635.3
851.6142	993.1945	65535	64639
851.7593	995.1951	65535	64639.45
851.9045	997.1951	65535	64636.4
852.0496	999.1943	65535	64638.75
852.1947	1001.1928	65535	64638.8
852.3398	1003.1906	65535	64639.65
852.4849	1005.1877	65535	64634.9
852.63	1007.1841	65535	64638.65
852.7751	1009.1798	65535	64640.65
852.9202	1011.1748	65535	64640.1
853.0653	1013.1691	65535	64638.8
853.2104	1015.1627	65535	64637.95
853.3555	1017.1556	65535	64639.6
853.5006	1019.1477	65535	64638.8
853.6457	1021.1392	65535	64641.35
853.7908	1023.1299	65535	64640.15
853.9359	1025.12	65535	64638.65
854.081	1027.1093	65535	64640.75
854.2261	1029.0979	65535	64642.5
854.3712	1031.0859	65535	64640.75
854.5163	1033.0731	65535	64639
854.6613	1035.0596	65535	64639.8
854.8064	1037.0454	65535	64640.2
854.9515	1039.0304	65535	64640.15
855.0965	1041.0148	65535	64637.95
855.2416	1042.9985	65535	64638.3
855.3867	1044.9814	65535	64640.05
855.5317	1046.9636	65535	64637.6
855.6768	1048.9452	65535	64640
855.8219	1050.926	65535	64641.4
855.9669	1052.9061	65535	64641.2
856.112	1054.8855	65535	64639.7
856.257	1056.8642	65535	64637.75
856.4021	1058.8421	65535	64634.85
856.5471	1060.8194	65535	64636.9
856.6921	1062.7959	65535	64638.05
856.8372	1064.7717	65535	64637.55
856.9822	1066.7469	65535	64636.15
857.1272	1068.7213	65535	64635.55
857.2723	1070.695	65535	64638.75
857.4173	1072.6679	65535	64639.2
857.5623	1074.6402	65535	64638.05
857.7073	1076.6117	65535	64632.35
857.8523	1078.5826	65535	64637.05
857.9973	1080.5527	65535	64634
858.1423	1082.5221	65535	64638.65
858.2873	1084.4908	65535	64638.2
858.4323	1086.4587	65535	64635.2
858.5773	1088.426	65535	64636.3
858.7223	1090.3925	65535	64633.2
858.8673	1092.3584	65535	64636.95
859.0123	1094.3235	65535	64640
859.1573	1096.2879	65535	64636.95
859.3022	1098.2515	65535	64639.35
859.4472	1100.2145	65535	64638.25
859.5922	1102.1767	65535	64634.45
859.7371	1104.1382	65535	64637.95
859.8821	1106.099	65535	64635.5
860.027	1108.0591	65535	64638.8
860.172	1110.0185	65535	64637
860.3169	1111.9771	65535	64639.7
860.4619	1113.9351	65535	64638.7
860.6068	1115.8923	65535	64637.85
860.7517	1117.8488	65535	64636.75
860.8967	1119.8045	65535	64638.1
861.0416	1121.7596	65535	64636.85
861.1865	1123.7139	65535	64638.05
861.3314	1125.6675	65535	64637.7
861.4763	1127.6204	65535	64637.7
861.6212	1129.5726	65535	64636.25
861.7661	1131.524	65535	64639.9
861.911	1133.4748	65535	64635.7
862.0559	1135.4248	65535	64633.55
862.2008	1137.3741	65535	64637.05
862.3457	1139.3226	65535	64635.6
862.4905	1141.2705	65535	64637.45
862.6354	1143.2176	65535	64632.7
862.7803	1145.164	65535	64637.95
862.9251	1147.1097	65535	64638.2
863.07	1149.0546	65535	64635.1
863.2148	1150.9989	65535	64635.75
863.3597	1152.9424	65535	64636
863.5045	1154.8852	65535	64637.6
863.6493	1156.8272	65535	64636.8
863.7942	1158.7686	65535	64630.95
863.939	1160.7092	65535	64636.6
864.0838	1162.6491	65535	64636.95
864.2286	1164.5883	65535	64636.8
864.3734	1166.5267	65535	64634.65
864.5182	1168.4644	65535	64639.1
864.663	1170.4014	65535	64631.15
864.8078	1172.3377	65535	64638.85
864.9526	1174.2732	65535	64637.15
865.0974	1176.2081	65535	64639.05
865.2421	1178.1421	65535	64633.9
865.3869	1180.0755	65535	64638.7
865.5317	1182.0082	65535	64637.6
865.6764	1183.9401	65535	64637.4
865.8212	1185.8713	65535	64638.3
865.9659	1187.8017	65535	64637.4
866.1106	1189.7315	65535	64640.45
866.2554	1191.6605	65535	64613.35
866.4001	1193.5888	65535	64638.55
866.5448	1195.5163	65535	64638.9
866.6895	1197.4432	65535	64636
866.8342	1199.3693	65535	64638.05
866.9789	1201.2947	65535	64634.95
867.1236	1203.2193	65535	64636.6
867.2683	1205.1432	65535	64638.7
867.413	1207.0664	65535	64636.8
867.5576	1208.9889	65535	64634.5
867.7023	1210.9106	65535	64637.9
867.847	1212.8316	65535	64639.3
867.9916	1214.7519	65535	64626.9
868.1363	1216.6715	65535	64635.9
868.2809	1218.5903	65535	64637.3
868.4255	1220.5084	65535	64637.35
868.5701	1222.4257	65535	64637.1
868.7148	1224.3424	65535	64637.35
868.8594	1226.2583	65535	64631.45
869.004	1228.1735	65535	64634.4
869.1486	1230.0879	65535	64636.25
869.2932	1232.0016	65535	64636.75
869.4377	1233.9146	65535	64635.25
869.5823	1235.8269	65535	64640.5
869.7269	1237.7384	65535	64636.75
869.8715	1239.6492	65535	64636.35
870.016	1241.5592	65535	64635.1
870.1606	1243.4686	65535	64637.7
870.3051	1245.3772	65535	64637.05
870.4496	1247.285	65535	64635.2
870.5941	1249.1922	65535	64638.7
870.7387	1251.0986	65535	64637.1
870.8832	1253.0042	65535	64635.95
871.0277	1254.9092	65535	64637.25
871.1722	1256.8134	65535	64637.85
871.3167	1258.7169	65535	64636
871.4611	1260.6196	65535	64637.25
871.6056	1262.5216	65535	64637.45
871.7501	1264.4229	65535	64640.25
871.8945	1266.3234	65535	64637.8
872.039	1268.2232	65535	64636.65
872.1834	1270.1223	65535	64638.4
872.3278	1272.0207	65535	64637.1
872.4723	1273.9183	65535	64633.3
872.6167	1275.8151	65535	64635.25
872.7611	1277.7113	65535	64637.35
872.9055	1279.6067	65535	64639.25
873.0499	1281.5014	65535	64634.7
873.1943	1283.3953	65535	64635.3
873.3386	1285.2885	65535	64639.85
873.483	1287.181	65535	64637.1
873.6274	1289.0727	65535	64636.7
873.7717	1290.9637	65535	64636.7
873.9161	1292.854	65535	64638.15
874.0604	1294.7435	65535	64638.95
874.2047	1296.6323	65535	64635.8
874.349	1298.5204	65535	64634.85
874.4933	1300.4077	65535	64636.2
874.6376	1302.2943	65535	64637.5
874.7819	1304.1802	65535	64639.6
874.9262	1306.0653	65535	64635.55
875.0705	1307.9497	65535	64637.75
875.2147	1309.8333	65535	64638.7
875.359	1311.7162	65535	64636.7
875.5032	1313.5984	65535	64634.45
875.6475	1315.4798	65535	64624.5
875.7917	1317.3605	65535	64620.4
875.9359	1319.2405	65535	64636.3
876.0801	1321.1197	65535	64635.95
876.2243	1322.9982	65535	64633.55
876.3685	1324.876	65535	64638.45
876.5127	1326.753	65535	64637.5
876.6569	1328.6293	65535	64635.05
876.801	1330.5048	65535	64633.55
876.9452	1332.3796	65535	64639.45
877.0893	1334.2537	65535	64610.9
877.2335	1336.127	65535	64637.4
877.3776	1337.9996	65535	64638.75
877.5217	1339.8714	65535	64636.05
877.6658	1341.7426	65535	64593.8
877.8099	1343.6129	65535	64636.35
877.954	1345.4826	65535	64636.05
878.0981	1347.3515	65535	64634.6
878.2422	1349.2196	65535	64636.25
878.3862	1351.087	65535	64638.15
878.5303	1352.9537	65535	64636.25
878.6743	1354.8197	65535	64637.05
878.8184	1356.6849	65535	64635.85
878.9624	1358.5493	65535	64637.7
879.1064	1360.4131	65535	64637.15
879.2504	1362.276	65535	64638.65
879.3944	1364.1383	65535	64639.55
879.5384	1365.9998	65535	64632.55
879.6823	1367.8606	65535	64635.65
879.8263	1369.7206	65535	64636.3
879.9702	1371.5799	65535	64635.8
880.1142	1373.4384	65535	64636.05
880.2581	1375.2962	65535	64634.7
880.402	1377.1533	65535	64637.15
880.5459	1379.0096	65535	64639.45
880.6898	1380.8652	65535	64637.3
880.8337	1382.7201	65535	64637.15
880.9776	1384.5742	65535	64636.5
881.1215	1386.4275	65535	64637.85
881.2653	1388.2802	65535	64636.15
881.4092	1390.132	65535	64637.55
881.553	1391.9832	65535	64636.25
881.6968	1393.8336	65535	64636.95
881.8406	1395.6832	65535	64633.9
881.9844	1397.5322	65535	64635.5
882.1282	1399.3803	65535	64632.2
882.272	1401.2278	65535	64638.1
882.4158	1403.0745	65535	64639.45
882.5595	1404.9204	65535	64637.2
882.7033	1406.7656	65535	64638.85
882.847	1408.6101	65535	64637.1
882.9908	1410.4538	65535	64635.7
883.1345	1412.2968	65535	64635.1
883.2782	1414.139	65535	64637.05
883.4219	1415.9805	65535	64637.95
883.5656	1417.8213	65535	64630.25
883.7092	1419.6613	65535	64637.75
883.8529	1421.5006	65535	64638.2
883.9965	1423.3391	65535	64635.35
884.1402	1425.1769	65535	64638.25
884.2838	1427.0139	65535	64637.3
884.4274	1428.8502	65535	64635.1
884.571	1430.6858	65535	64637.25
884.7146	1432.5206	65535	64635.2
884.8582	1434.3547	65535	64635.65
885.0018	1436.188	65535	64637.7
885.1453	1438.0206	65535	64637.95
885.2889	1439.8524	65535	64638.45
885.4324	1441.6835	65535	64637.2
885.5759	1443.5139	65535	64634.5
885.7194	1445.3435	65535	64637.45
885.8629	1447.1724	65535	64635.85
886.0064	1449.0005	65535	64637.15
886.1499	1450.8279	65535	64637.5
886.2933	1452.6545	65535	64637.25
886.4368	1454.4804	65535	64637.9
886.5802	1456.3056	65535	64629.4
886.7237	1458.13	65535	64638.55
886.8671	1459.9536	65535	64638.1
887.0105	1461.7766	65535	64636.65
887.1539	1463.5987	65535	64635.1
887.2972	1465.4202	65535	64635.9
887.4406	1467.2409	65535	64638.1
887.584	1469.0608	65535	64638.8
887.7273	1470.88	65535	64638.15
887.8706	1472.6984	65535	64637.55
888.0139	1474.5161	65535	64634.45
888.1572	1476.3331	65535	64636.75
888.3005	1478.1493	65535	64637.6
888.4438	1479.9648	65535	64638.65
888.5871	1481.7795	65535	64640.2
888.7303	1483.5935	65535	64637.15
888.8736	1485.4067	65535	64638.65
889.0168	1487.2192	65535	64636.25
889.16	1489.031	65535	64634.8
889.3032	1490.842	65535	64638.95
889.4464	1492.6522	65535	64636.4
889.5896	1494.4618	65535	64636.85
889.7327	1496.2705	65535	64636.05
889.8759	1498.0785	65535	64635.95
890.019	1499.8858	65535	64637.7
890.1622	1501.6924	65535	64638.05
890.3053	1503.4981	65535	64637.4
890.4484	1505.3032	65535	64635.35
890.5914	1507.1075	65535	64636.65
890.7345	1508.911	65535	64637
890.8776	1510.7138	65535	64637.4
891.0206	1512.5159	65535	64637.95
891.1637	1514.3172	65535	64640.95
891.3067	1516.1178	65535	64638.85
891.4497	1517.9176	65535	64633.4
891.5927	1519.7166	65535	64639.3
891.7357	1521.515	65535	64632.3
891.8786	1523.3126	65535	64636.3
892.0216	1525.1094	65535	64636.45
892.1645	1526.9055	65535	64638.65
892.3074	1528.7008	65535	64638
892.4503	1530.4954	65534.9	64631.95
892.5932	1532.2893	65535	64638.3
892.7361	1534.0824	65533.85	64632.15
892.879	1535.8747	65516.05	64620.4
893.0218	1537.6663	65535	64639.9
893.1647	1539.4572	65435	64534.6
893.3075	1541.2473	65505.4	64608.65
893.4503	1543.0367	65493.3	64597.75
893.5931	1544.8253	65469.95	64567.3
893.7359	1546.6132	65490.05	64591.65
893.8787	1548.4003	65435.75	64527.5
894.0214	1550.1867	65392	64486.75
894.1642	1551.9723	65326.65	64425.95
894.3069	1553.7572	65357.55	64460.9
894.4496	1555.5414	65447.45	64553.25
894.5923	1557.3247	64547.25	63651.7
894.735	1559.1074	65367.25	64471.1
894.8777	1560.8893	65100	64206
895.0204	1562.6705	65218.2	64321.5
895.163	1564.4509	64625.65	63728.7
895.3056	1566.2305	64943.85	64047.5
895.4482	1568.0094	65257.7	64363.8
895.5908	1569.7876	65007.3	64110.8
895.7334	1571.565	64596.4	63700.25
895.876	1573.3417	64810.35	63914.7
896.0186	1575.1176	64716.3	63820.2
896.1611	1576.8928	64503.7	63607.8
896.3036	1578.6672	63967.95	63071.95
896.4461	1580.4409	64335.45	63441.75
896.5886	1582.2138	63510.1	62612.15
896.7311	1583.986	63726.65	62829.15
896.8736	1585.7575	62928.45	62034.25
897.0161	1587.5282	63078.3	62184.05
897.1585	1589.2981	63167.15	62272.95
897.3009	1591.0673	62440.05	61546.05
897.4433	1592.8358	61975.85	61081.25
897.5857	1594.6035	62403.45	61506.5
897.7281	1596.3704	62487.55	61590.05
897.8705	1598.1366	61504.15	60609.25
898.0128	1599.9021	61038.9	60144.65
898.1551	1601.6668	61724.6	60827.75
898.2975	1603.4308	61297.25	60401.3
898.4398	1605.194	61475.35	60576.1
898.5821	1606.9564	60394.4	59500.2
898.7243	1608.7182	60917.65	60019.4
898.8666	1610.4791	60407.65	59513.75
899.0088	1612.2394	60891.95	59997.95
899.1511	1613.9988	60372.25	59477.35
899.2933	1615.7576	61003.65	60109.1
899.4355	1617.5156	60960.7	60061.55
899.5776	1619.2728	61725.5	60827.85
899.7198	1621.0293	60598	59704
899.862	1622.785	60605.95	59708.45
900.0041	1624.54	61019.45	60122.8
900.1462	1626.2942	60422.5	59527.5
900.2883	1628.0477	59344.9	58445.6
900.4304	1629.8005	58789.45	57890.05
900.5725	1631.5525	59330.1	58436
900.7145	1633.3037	58220.5	57326.85
900.8566	1635.0542	58157.35	57265.7
900.9986	1636.804	58380.95	57487.45
901.1406	1638.553	57600.75	56601.1
901.2826	1640.3013	57697.05	56801.95
901.4245	1642.0488	57055.8	56161.6
901.5665	1643.7955	57380	56486.05
901.7085	1645.5416	56922.1	56027.7
901.8504	1647.2868	56633.65	55739.15
901.9923	1649.0313	57074.3	56180.55
902.1342	1650.7751	56758.5	55863.1
902.2761	1652.5181	56466.85	55574.15
902.4179	1654.2604	56500.95	55606.9
902.5598	1656.0019	57069.85	56176.05
902.7016	1657.7427	56823.65	55929.55
902.8434	1659.4828	57320.6	56426.15
902.9852	1661.222	57124.8	56230.2
903.127	1662.9606	57342.55	56446.4
903.2687	1664.6984	56783.8	55889.75
903.4105	1666.4354	56760.7	55865.45
903.5522	1668.1717	55699.65	54806.5
903.6939	1669.9072	55037.9	54145.5
903.8356	1671.642	54687.8	53790.9
903.9773	1673.3761	54361.45	53468.95
904.119	1675.1094	53968.35	53073.2
904.2606	1676.8419	53509.2	52614.35
904.4022	1678.5737	53164.8	52270.1
904.5439	1680.3048	52977.65	52084
904.6855	1682.0351	52648.6	51753.45
904.827	1683.7646	52304.25	51407.25
904.9686	1685.4934	52245.05	51351.45
905.1101	1687.2215	51637.95	50743.7
905.2517	1688.9488	51836.9	50942.85
905.3932	1690.6754	51055.1	50161.2
905.5347	1692.4012	51180.4	50286.6
905.6761	1694.1263	50989.2	50095.7
905.8176	1695.8506	50790.05	49895.75
905.9591	1697.5742	50646.9	49752.55
906.1005	1699.297	50393.7	49502.75
906.2419	1701.0191	50164.7	49273
906.3833	1702.7404	49854.65	48960.25
906.5246	1704.461	49570.5	48677.3
906.666	1706.1808	49429.2	48534.65
906.8073	1707.8999	49334.6	48440.6
906.9487	1709.6182	49082.45	48187.4
907.09	1711.3358	48992.85	48100.15
907.2313	1713.0527	48795.4	47903.05
907.3725	1714.7688	48582.5	47683.35
907.5138	1716.4841	48300.6	47406.7
907.655	1718.1987	48312.75	47416.25
907.7962	1719.9126	48078.2	47186.55
907.9374	1721.6257	47871.95	46977.25
908.0786	1723.338	47841.45	46946.95
908.2198	1725.0496	47446.05	46551.05
908.3609	1726.7605	47435.1	46541.95
908.502	1728.4706	47183.15	46290
908.6431	1730.18	46887.15	45990.05
908.7842	1731.8886	46852.35	45961.15
908.9253	1733.5964	46707.95	45794.05
909.0664	1735.3036	46536.55	45641.75
909.2074	1737.0099	46404.25	45510.4
909.3484	1738.7156	46246.45	45355.15
909.4894	1740.4204	46044.6	45149.45
909.6304	1742.1246	45964	45069.55
909.7714	1743.8279	45814.95	44923.45
909.9123	1745.5306	45756.45	44863.1
910.0532	1747.2325	45482.05	44590.7
910.1941	1748.9336	45356.95	44465.1
910.335	1750.634	45118.7	44224.6
910.4759	1752.3336	45014.3	44121.2
910.6168	1754.0325	44950.85	44059.55
910.7576	1755.7307	44799.55	43908.05
910.8984	1757.4281	44731.1	43837.05
911.0392	1759.1247	44635.5	43734.4
911.18	1760.8206	44487.5	43591.45
911.3208	1762.5158	44484.6	43588.15
911.4615	1764.2102	44198.55	43308.25
911.6022	1765.9039	44003.55	43111.35
911.7429	1767.5968	43932.25	43039.6
911.8836	1769.289	43746.2	42855.2
912.0243	1770.9804	43629.25	42733.85
912.1649	1772.6711	43612.15	42719
912.3056	1774.361	43481.65	42589
912.4462	1776.0502	43371.25	42477.85
912.5868	1777.7386	43263.9	42367.7
912.7274	1779.4263	43057.4	42164.75
912.8679	1781.1132	43086.05	42192.8
913.0084	1782.7994	42876	41983.75
913.149	1784.4849	42741.25	41848.2
913.2895	1786.1696	42546.45	41648.7
913.4299	1787.8535	42442.4	41549.9
913.5704	1789.5367	42280.85	41385.45
913.7108	1791.2192	42223.55	41332.4
913.8513	1792.9009	42040.8	41119.65
913.9917	1794.5818	41946	41053.5
914.132	1796.2621	41793.8	40902.15
914.2724	1797.9415	41692.7	40800.95
914.4128	1799.6202	41551.2	40658.4
914.5531	1801.2982	41440.45	40547.65
914.6934	1802.9755	41325.35	40430.25
914.8337	1804.6519	41308.85	40418
914.9739	1806.3277	41063.7	40171.7
915.1142	1808.0027	40891.05	40000.4
915.2544	1809.6769	40893.35	40000.05
915.3946	1811.3504	40682.7	39788.45
915.5348	1813.0231	40582.85	39690.15
915.675	1814.6951	40568.35	39673.95
915.8151	1816.3664	40499.95	39605.85
915.9553	1818.0369	40340.8	39450.1
916.0954	1819.7067	40203.9	39314
916.2355	1821.3757	40110.95	39217.95
916.3755	1823.044	39969.2	39076.2
916.5156	1824.7115	39883.15	38991.25
916.6556	1826.3783	39639.35	38747.7
916.7956	1828.0443	39538.2	38645.85
916.9356	1829.7096	39469.5	38575.25
917.0756	1831.3741	39424.4	38528.8
917.2155	1833.0379	39235.8	38343.8
917.3555	1834.701	39125.45	38231.95
917.4954	1836.3633	39061.05	38167.25
917.6353	1838.0248	38888.15	37994.65
917.7751	1839.6856	38818.65	37924.9
917.915	1841.3457	38761.15	37871.35
918.0548	1843.005	38666.35	37775.3
918.1946	1844.6636	38578.3	37686.55
918.3344	1846.3214	38440.5	37547.7
918.4742	1847.9785	38412.15	37521.85
918.6139	1849.6349	38301.35	37408.25
918.7537	1851.2904	38175.7	37274.2
918.8934	1852.9453	38055.45	37162.4
919.0331	1854.5994	37941.65	37047.4
919.1727	1856.2528	37933.4	37035.5
919.3124	1857.9054	37798.85	36908.2
919.452	1859.5572	37728.85	36836.25
919.5916	1861.2083	37618.95	36726.85
919.7312	1862.8587	37590.65	36697.3
919.8708	1864.5084	37457.75	36564.4
920.0103	1866.1572	37320.95	36428.5
920.1498	1867.8054	37136.65	36247.15
920.2893	1869.4528	37062.15	36168.2
920.4288	1871.0994	36983.1	36091.05
920.5683	1872.7453	36902.85	36008.9
920.7077	1874.3905	36792.95	35893.85
920.8471	1876.0349	36678.2	35786.35
920.9865	1877.6786	36636.4	35742.75
921.1259	1879.3215	36542.05	35650.85
921.2653	1880.9637	36451.4	35557.8
921.4046	1882.6051	36350.9	35458.35
921.5439	1884.2458	36229.8	35338.7
921.6832	1885.8858	36139.05	35244.95
921.8225	1887.525	36031.65	35137.4
921.9617	1889.1634	35868	34977.8
922.101	1890.8011	35747.85	34854.6
922.2402	1892.4381	35663	34769.75
922.3794	1894.0743	35625.3	34733.6
922.5185	1895.7098	35473.2	34581.9
922.6577	1897.3446	35442.55	34548.75
922.7968	1898.9786	35302.35	34405.9
922.9359	1900.6118	35209.1	34317.95
923.075	1902.2443	34992.2	34097.4
923.214	1903.8761	34915	34024
923.3531	1905.5071	34706.6	33813.75
923.4921	1907.1374	34606.05	33714.15
923.6311	1908.7669	34547.65	33655.2
923.77	1910.3957	34460.55	33567.4
923.909	1912.0237	34212.1	33321.85
924.0479	1913.651	34201	33307.85
924.1868	1915.2776	34035.2	33143.5
924.3257	1916.9034	33921.5	33032.1
924.4646	1918.5285	33728.8	32837.95
924.6034	1920.1528	33547.95	32656.75
924.7422	1921.7764	33523.4	32632.25
924.881	1923.3992	33380.45	32488.35
925.0198	1925.0213	33136.45	32246.3
925.1586	1926.6427	33000.6	32110.3
925.2973	1928.2633	33051.85	32054.55
925.436	1929.8832	32866.55	31972.15
925.5747	1931.5023	32653.2	31761.75
925.7134	1933.1207	32600.85	31708.15
925.852	1934.7383	32552.15	31660.5
925.9906	1936.3552	32377.3	31484.8
926.1292	1937.9714	32291.5	31399.9
926.2678	1939.5868	32171.9	31279.5
926.4064	1941.2015	31961	31069.4
926.5449	1942.8154	31848.2	30955.5
926.6834	1944.4286	31701.7	30810.35
926.8219	1946.041	31611	30700.8
926.9604	1947.6528	31407.35	30509.7
927.0988	1949.2637	31315.95	30423.7
927.2372	1950.8739	31219.65	30329.8
927.3756	1952.4834	31136.9	30244.7
927.514	1954.0921	31099.25	30207.9
927.6523	1955.7001	30976.95	30081.1
927.7907	1957.3074	30857	29966.6
927.929	1958.9139	30644.6	29752.2
928.0673	1960.5197	30627.95	29735.6
928.2055	1962.1247	30439.6	29549.25
928.3438	1963.729	30281.8	29390.7
928.482	1965.3325	30163.1	29248.05
928.6202	1966.9353	30054.15	29162.5
928.7584	1968.5374	29963.85	29071.85
928.8965	1970.1387	29863.85	28972.65
929.0346	1971.7393	29764.55	28873.5
929.1727	1973.3392	29662	28770.35
929.3108	1974.9383	29559.15	28670.3
929.4489	1976.5366	29410.65	28519
929.5869	1978.1342	29361.35	28470.55
929.7249	1979.7311	29217.2	28323.35
929.8629	1981.3273	29159.7	28267.2
930.0009	1982.9227	29034.75	28141.7
930.1388	1984.5173	28946.3	28056
930.2767	1986.1112	28788.25	27897.85
930.4146	1987.7044	28753.4	27863.9
930.5525	1989.2968	28591.55	27698.6
930.6904	1990.8885	28593.95	27700.3
930.8282	1992.4795	28486.3	27594.2
930.966	1994.0697	28344.65	27452.7
931.1038	1995.6592	28260	27368.75
931.2415	1997.2479	28158.1	27266.1
931.3793	1998.8359	28043.1	27153.35
931.517	2000.4232	27914	27023.9
931.6547	2002.0097	27813.1	26923.7
931.7923	2003.5955	27682.9	26790.35
931.93	2005.1805	27649.55	26755.45
932.0676	2006.7648	27567.45	26677.65
932.2052	2008.3484	27470.6	26576.9
932.3427	2009.9312	27501.15	26607.45
932.4803	2011.5133	27331.75	26442.4
932.6178	2013.0946	27243.3	26352.1
932.7553	2014.6752	27162.4	26274.35
932.8928	2016.2551	27053.55	26161.7
933.0302	2017.8342	26969.4	26078.6
933.1676	2019.4126	26866.25	25974.7
933.305	2020.9902	26699.45	25808.05
933.4424	2022.5672	26666.7	25776.85
933.5798	2024.1433	26574.85	25677.75
933.7171	2025.7188	26474.1	25584.6
933.8544	2027.2935	26429.6	25537.7
933.9917	2028.8674	26341.15	25450.6
934.129	2030.4406	26219.95	25331
934.2662	2032.0131	26073.65	25182.7
934.4034	2033.5849	26008.55	25112.05
934.5406	2035.1559	25914.15	25023.4
934.6778	2036.7261	25894	25001.8
934.8149	2038.2957	25772.35	24882.5
934.952	2039.8645	25735.55	24844.75
935.0891	2041.4325	25729.25	24833.9
935.2262	2042.9998	25563.7	24672.45
935.3632	2044.5664	25495.55	24602.15
935.5002	2046.1323	25461	24570.8
935.6372	2047.6974	25353.25	24462.3
935.7742	2049.2617	25267.25	24376.05
935.9111	2050.8254	25252.05	24338.7
936.048	2052.3883	25195.2	24303.8
936.1849	2053.9504	25082.7	24190.9
936.3218	2055.5118	24984.55	24091.75
936.4586	2057.0725	24858.8	23963.7
936.5955	2058.6325	24791	23899.65
936.7323	2060.1917	24736.15	23846.25
936.869	2061.7502	24691.2	23797.85
937.0058	2063.3079	24513.15	23622.7
937.1425	2064.8649	24417.8	23522.8
937.2792	2066.4212	24398	23506.5
937.4159	2067.9767	24292.7	23404.25
937.5525	2069.5315	24219.9	23329.3
937.6891	2071.0856	24070.6	23178.95
937.8257	2072.6389	24034.7	23142.6
937.9623	2074.1915	23852.05	22961.85
938.0989	2075.7433	23763	22871.9
938.2354	2077.2945	23700.2	22810.35
938.3719	2078.8448	23619.6	22730.1
938.5084	2080.3945	23570	22678.45
938.6448	2081.9434	23497.05	22605.5
938.7812	2083.4916	23402.4	22510.5
938.9176	2085.039	23336	22441.95
939.054	2086.5857	23256.5	22364.4
939.1903	2088.1317	23194.25	22303.9
939.3267	2089.677	23141.25	22250.1
939.463	2091.2215	23112	22219
939.5992	2092.7652	23007.15	22114.05
939.7355	2094.3083	22925.05	22032.7
939.8717	2095.8506	22878.5	21988.1
940.0079	2097.3921	22798.7	21907.1
940.1441	2098.933	22716.85	21824.4
940.2802	2100.4731	22713.3	21821.5
940.4163	2102.0124	22667.85	21767.55
940.5524	2103.5511	22556.05	21665.2
940.6885	2105.089	22515.45	21623.75
940.8245	2106.6261	22443.05	21551.85
940.9606	2108.1626	22376.9	21484.5
941.0965	2109.6983	22362.4	21442.5
941.2325	2111.2332	22248.55	21353.95
941.3684	2112.7675	22143.15	21251.3
941.5044	2114.301	22103.95	21210.55
941.6403	2115.8337	22089.6	21196.85
941.7761	2117.3657	21997.05	21103.85
941.912	2118.897	21931.05	21037.8
942.0478	2120.4276	21874.9	20976.3
942.1835	2121.9575	21748.7	20855.95
942.3193	2123.4866	21776.05	20870.25
942.455	2125.0149	21669.4	20775.6
942.5907	2126.5426	21530.75	20639.9
942.7264	2128.0695	21501.95	20608.6
942.8621	2129.5956	21441.9	20551
942.9977	2131.1211	21382.5	20483.75
943.1333	2132.6458	21327.85	20433.85
943.2689	2134.1698	21270.9	20376.9
943.4044	2135.693	21194.95	20300.9
943.54	2137.2155	21203.1	20309.85
943.6755	2138.7373	21140.75	20248.85
943.8109	2140.2584	21002.2	20111.2
943.9464	2141.7787	20917.9	20021.2
944.0818	2143.2983	20826.35	19936.55
944.2172	2144.8171	20727.4	19837
944.3526	2146.3353	20658.85	19764.85
944.4879	2147.8527	20589.5	19698.05
944.6232	2149.3693	20582.7	19689.75
944.7585	2150.8853	20506	19612.85
944.8938	2152.4005	20388.45	19493.7
945.029	2153.9149	20349.8	19457.8
945.1642	2155.4287	20246.1	19354.6
945.2994	2156.9417	20232.6	19338.85
945.4346	2158.454	20163.05	19268.75
945.5697	2159.9655	20110.2	19218.95
945.7048	2161.4764	20064.55	19172.55
945.8399	2162.9865	20023.05	19131.2
945.9749	2164.4958	19927.3	19034.1
946.1099	2166.0045	19870.1	18973.3
946.2449	2167.5124	19813.2	18920.85
946.3799	2169.0195	19725.65	18834.85
946.5148	2170.526	19711.5	18820.45
946.6498	2172.0317	19652.2	18759.65
946.7846	2173.5367	19586.1	18692.7
946.9195	2175.0409	19533.85	18643.4
947.0543	2176.5445	19525.75	18634.65
947.1891	2178.0473	19413.45	18521.15
947.3239	2179.5494	19324.05	18428.85
947.4587	2181.0507	19281.65	18390
947.5934	2182.5513	19208.45	18317.15
947.7281	2184.0512	19126.85	18234.75
947.8628	2185.5504	19079.45	18189.75
947.9974	2187.0488	18996.75	18105.05
948.132	2188.5465	18939	18048.55
948.2666	2190.0435	18850.2	17958.55
948.4012	2191.5397	18799.3	17907.9
948.5357	2193.0353	18720.95	17831.45
948.6702	2194.5301	18598	17705.9
948.8047	2196.0241	18542.65	17650.75
948.9392	2197.5175	18493.2	17601.55
949.0736	2199.0101	18376.75	17481.35
949.208	2200.502	18327.5	17436.3
949.3424	2201.9931	18244.2	17352.45
949.4767	2203.4835	18166.5	17274
949.611	2204.9733	18153.15	17256.65
949.7453	2206.4622	18099.8	17208.85
949.8796	2207.9505	18015.6	17121.25
950.0138	2209.438	17931.65	17041.85
950.148	2210.9248	17892	16998.45
950.2822	2212.4109	17826.15	16936.2
950.4164	2213.8962	17723.15	16828.85
950.5505	2215.3809	17725.15	16832.8
950.6846	2216.8648	17650	16756.2
950.8186	2218.3479	17621	16722.55
950.9527	2219.8304	17535.35	16640.2
951.0867	2221.3121	17457.35	16564.35
951.2207	2222.7931	17392.95	16501.4
951.3546	2224.2733	17307.15	16414.35
951.4886	2225.7529	17245.25	16350.8
951.6225	2227.2317	17184.85	16290.3
951.7563	2228.7098	17210.35	16319.2
951.8902	2230.1872	17094.35	16203.9
952.024	2231.6638	17047.95	16156.8
952.1578	2233.1397	16974.4	16074.5
952.2916	2234.6149	16937.4	16046.95
952.4253	2236.0894	16885.3	15994
952.559	2237.5632	16826.95	15925.4
952.6927	2239.0362	16749.2	15855.9
952.8263	2240.5085	16701.5	15809.55
952.9599	2241.9801	16595.15	15703.75
953.0935	2243.4509	16568.95	15677
953.2271	2244.921	16494.65	15602.4
953.3606	2246.3904	16431.7	15537.95
953.4941	2247.8591	16403.7	15512.9
953.6276	2249.3271	16345.85	15455.2
953.7611	2250.7943	16279.4	15386.5
953.8945	2252.2608	16227.05	15335.25
954.0279	2253.7266	16165.05	15273
954.1612	2255.1917	16114.3	15221.5
954.2946	2256.656	16039.1	15145.25
954.4279	2258.1197	15969.75	15077.8
954.5612	2259.5826	15945.55	15052.05
954.6944	2261.0447	15929.6	15036.2
954.8276	2262.5062	15837.85	14944.45
954.9608	2263.9669	15830.35	14935.6
955.094	2265.4269	15775.25	14883.15
955.2271	2266.8862	15697.9	14805.5
955.3602	2268.3448	15688.75	14797.6
955.4933	2269.8026	15617.15	14724.55
955.6264	2271.2598	15559.9	14667.85
955.7594	2272.7162	15499.5	14607.35
955.8924	2274.1719	15434.25	14541.85
956.0253	2275.6268	15419.7	14527.25
956.1583	2277.0811	15369.1	14475.8
956.2912	2278.5346	15326.7	14434.3
956.4241	2279.9874	15285.5	14394.2
956.5569	2281.4395	15263.75	14372.6
956.6897	2282.8908	15163.2	14266.85
956.8225	2284.3414	15159.45	14266.55
956.9553	2285.7914	15111.05	14221.6
957.088	2287.2406	15014	14120.75
957.2207	2288.689	14960.25	14065.7
957.3534	2290.1368	14963.2	14069.65
957.486	2291.5838	14876.5	13981.3
957.6186	2293.0302	14860.1	13967.85
957.7512	2294.4758	14775.35	13884.85
957.8838	2295.9206	14705.75	13810.4
958.0163	2297.3648	14670.1	13777.75
958.1488	2298.8082	14666.05	13772.4
958.2813	2300.251	14590	13699.3
958.4137	2301.693	14551.7	13656.8
958.5461	2303.1343	14548.55	13655
958.6785	2304.5748	14483.3	13591.95
958.8108	2306.0147	14427.9	13534.1
958.9432	2307.4538	14375.15	13481.1
959.0754	2308.8922	14324.2	13431.9
959.2077	2310.3299	14288.5	13395.95
959.3399	2311.7669	14218.8	13327.75
959.4721	2313.2031	14172.05	13279.2
959.6043	2314.6387	14122.95	13228.3
959.7365	2316.0735	14079.25	13188.05
959.8686	2317.5076	14048.15	13154.2
960.0006	2318.941	14009	13118.3
960.1327	2320.3737	13947.2	13054.3
960.2647	2321.8056	13902.95	13009.6
960.3967	2323.2369	13889.5	12996.25
960.5287	2324.6674	13837.1	12941.65
960.6606	2326.0972	13812.9	12921.55
960.7925	2327.5263	13715.4	12824.05
960.9244	2328.9547	13682.55	12789.35
961.0562	2330.3823	13646.4	12753.2
961.1881	2331.8092	13604.95	12708.65
961.3198	2333.2355	13523.4	12634.05
961.4516	2334.661	13531.95	12640.65
961.5833	2336.0858	13493.5	12600.3
961.715	2337.5098	13451.3	12558.65
961.8467	2338.9332	13407.2	12514.6
961.9783	2340.3558	13363	12467.65
962.1099	2341.7778	13302.9	12410.85
962.2415	2343.199	13253.1	12359.35
962.373	2344.6195	13265.25	12371.9
962.5045	2346.0393	13205.8	12314.05
962.636	2347.4583	13162.45	12271
962.7675	2348.8767	13073.55	12180.2
962.8989	2350.2943	13057.8	12164.15
963.0303	2351.7113	13057.3	12164.25
963.1617	2353.1275	12988.05	12095.3
963.293	2354.543	12949.35	12035.4
963.4243	2355.9578	12840.6	11949.5
963.5556	2357.3718	12813.5	11920.3
963.6868	2358.7852	12747.25	11853.3
963.818	2360.1978	12730.8	11838.9
963.9492	2361.6098	12687.3	11796.45
964.0803	2363.021	12656.05	11762.9
964.2114	2364.4315	12616.1	11724.15
964.3425	2365.8413	12598.5	11701.5
964.4736	2367.2504	12478.5	11587.65
964.6046	2368.6587	12439.35	11547.6
964.7356	2370.0664	12361.7	11470.3
964.8666	2371.4733	12347.9	11456.6
964.9975	2372.8795	12301.2	11408.9
965.1284	2374.285	12261.6	11371.8
965.2593	2375.6899	12189.6	11298.75
965.3901	2377.0939	12117.1	11227.5
965.5209	2378.4973	12091.4	11200.6
965.6517	2379.9	12077.65	11185.9
965.7825	2381.3019	12018.45	11125.95
965.9132	2382.7032	11960.9	11071.35
966.0439	2384.1037	11919.7	11030.1
966.1745	2385.5035	11899.5	11008.15
966.3051	2386.9027	11850.05	10960.45
966.4357	2388.3011	11829	10935.95
966.5663	2389.6987	11769.75	10878.8
966.6968	2391.0957	11716.8	10826.8
966.8273	2392.492	11681.55	10790.5
966.9578	2393.8876	11588.6	10697.3
967.0882	2395.2824	11567.1	10675.45
967.2186	2396.6765	11526.7	10637.85
967.349	2398.07	11432.2	10542.2
967.4793	2399.4627	11414.25	10521.8
967.6097	2400.8547	11408.7	10516.6
967.7399	2402.246	11342.8	10447.15
967.8702	2403.6366	11288.65	10398.6
968.0004	2405.0265	11239.85	10346.9
968.1306	2406.4156	11200.85	10304.35
968.2607	2407.8041	11144.3	10248.85
968.3909	2409.1918	11137.8	10244.2
968.521	2410.5789	11092.15	10199.85
968.651	2411.9652	10989.05	10097.65
968.781	2413.3508	10986.55	10096.9
968.911	2414.7358	10944.55	10051.2
969.041	2416.12	10904.7	10014.15
969.1709	2417.5035	10867.85	9977.2
969.3008	2418.8863	10839.75	9947.15
969.4307	2420.2684	10772.2	9881.8
969.5606	2421.6497	10765.5	9872.6
969.6904	2423.0304	10700.45	9810.25
969.8201	2424.4104	10656.3	9764.55
969.9499	2425.7896	10643.85	9745.8
970.0796	2427.1682	10609.05	9719.25
970.2093	2428.546	10565.5	9672.9
970.3389	2429.9232	10529.1	9636.15
970.4685	2431.2996	10514.65	9624.3
970.5981	2432.6753	10497.85	9607.15
970.7277	2434.0503	10457.7	9565.4
970.8572	2435.4246	10391.15	9501.75
970.9867	2436.7982	10365.6	9470.3
971.1161	2438.1711	10331.25	9441.15
971.2456	2439.5433	10312.7	9421.25
971.375	2440.9148	10253.75	9362.85
971.5043	2442.2856	10205.2	9314.15
971.6336	2443.6557	10172.55	9281.95
971.7629	2445.025	10148.75	9257.8
971.8922	2446.3937	10124.5	9232.3
972.0214	2447.7617	10067.9	9176.15
972.1506	2449.1289	10051.7	9160.25
972.2798	2450.4955	10005.1	9113.1
972.4089	2451.8613	9981.7	9090.55
972.538	2453.2265	9949.9	9057.95
972.6671	2454.5909	9924.15	9032.25
972.7961	2455.9546	9889	8999.1
972.9251	2457.3177	9872.5	8982.6
973.0541	2458.68	9814.55	8920.4
973.1831	2460.0416	9830.8	8940.7
973.312	2461.4025	9814.35	8921.4
973.4408	2462.7627	9776.45	8873.95
973.5697	2464.1222	9742.2	8850.4
973.6985	2465.4811	9691.05	8799.35
973.8273	2466.8392	9673.5	8781.6
973.956	2468.1966	9642.7	8748.75
974.0847	2469.5533	9616.05	8721.85
974.2134	2470.9093	9605.2	8713
974.3421	2472.2645	9575.45	8681.5
974.4707	2473.6191	9542.6	8652.25
974.5993	2474.973	9494.15	8602.45
974.7278	2476.3262	9453.85	8562.8
974.8563	2477.6787	9422.5	8531.95
974.9848	2479.0305	9378.7	8487.2
975.1132	2480.3816	9327.9	8435.2
975.2417	2481.7319	9306.7	8414.4
975.37	2483.0816	9251.25	8354.45
975.4984	2484.4306	9219.45	8326.25
975.6267	2485.7789	9199.55	8307.75
975.755	2487.1264	9173.35	8281.5
975.8833	2488.4733	9137.9	8249.85
976.0115	2489.8195	9102.8	8203.75
976.1397	2491.165	9073.55	8179.9
976.2678	2492.5097	9040.1	8145.9
976.3959	2493.8538	8983.4	8090.75
976.524	2495.1972	8926.5	8034.2
976.6521	2496.5398	8908.4	8014.9
976.7801	2497.8818	8905.1	8010.25
976.9081	2499.2231	8876.55	7983.8
977.036	2500.5637	8832.6	7941.7
977.164	2501.9035	8826.45	7934.35
977.2918	2503.2427	8765.25	7870.25
977.4197	2504.5812	8744.95	7855.35
977.5475	2505.919	8725	7830.65
977.6753	2507.256	8680.95	7789.05
977.8031	2508.5924	8658.25	7765.75
977.9308	2509.9281	8626.15	7730.2
978.0585	2511.2631	8588.7	7696.55
978.1861	2512.5974	8566.85	7676.05
978.3137	2513.9309	8550.7	7660.3
978.4413	2515.2638	8531.75	7606.25
978.5689	2516.596	8486.95	7597.4
978.6964	2517.9275	8444	7551.55
978.8239	2519.2583	8414.45	7523.25
978.9513	2520.5884	8355.7	7461.85
979.0788	2521.9178	8339.8	7447.85
979.2062	2523.2465	8306	7414.2
979.3335	2524.5745	8283.4	7393.6
979.4608	2525.9018	8259.6	7368.25
979.5881	2527.2284	8238.95	7348.7
979.7154	2528.5543	8215.7	7325.35
979.8426	2529.8796	8167.2	7272.8
979.9698	2531.2041	8158.95	7266.5
980.0969	2532.5279	8150.45	7261.5
980.224	2533.851	8145.6	7254.15
980.3511	2535.1735	8098.4	7207.95
980.4781	2536.4952	8083.9	7193.7
980.6052	2537.8163	8054.3	7162.45
980.7321	2539.1366	8016.2	7124.85
980.8591	2540.4562	8006.25	7113.75
980.986	2541.7752	7989.65	7098.5
981.1129	2543.0935	7981.4	7089.75
981.2397	2544.411	7964.65	7070.7
981.3665	2545.7279	7940.65	7050.35
981.4933	2547.0441	7928.15	7036.85
981.62	2548.3596	7906.55	7010.65
981.7467	2549.6744	7896.2	7005.35
981.8734	2550.9885	7842.05	6947.5
982.0001	2552.3019	7832.4	6941.05
982.1267	2553.6146	7817.85	6925.9
982.2532	2554.9266	7809	6917.6
982.3798	2556.2379	7762.95	6871.45
982.5063	2557.5485	7755.05	6863.55
982.6327	2558.8585	7734.7	6835.75
982.7592	2560.1677	7700.85	6805
982.8856	2561.4762	7674	6782.55
983.0119	2562.7841	7665.4	6770.85
983.1383	2564.0913	7625.15	6734.95
983.2646	2565.3977	7635.8	6745
983.3908	2566.7035	7602.95	6713.7
983.517	2568.0086	7603.4	6708.85
983.6432	2569.313	7564.15	6671.85
983.7694	2570.6167	7558.4	6662.5
983.8955	2571.9197	7535.4	6645.55
984.0216	2573.222	7515.75	6618.95
984.1476	2574.5236	7519.55	6625.5
984.2737	2575.8246	7487.6	6592.1
984.3996	2577.1248	7487.75	6593.35
984.5256	2578.4244	7476.6	6586.6
984.6515	2579.7232	7448.35	6555.45
984.7774	2581.0214	7442.95	6528.7
984.9032	2582.3189	7410.5	6521.8
985.029	2583.6157	7396.75	6500.3
985.1548	2584.9118	7372.65	6479.4
985.2806	2586.2072	7340.1	6446.5
985.4063	2587.5019	7322.3	6431.6
985.5319	2588.7959	7317.85	6426.3
985.6576	2590.0893	7306.75	6416.35
985.7832	2591.3819	7284.3	6394.05
985.9087	2592.6739	7258.15	6365
986.0343	2593.9652	7210.2	6315.9
986.1597	2595.2557	7203.1	6312
986.2852	2596.5456	7184.35	6292.85
986.4106	2597.8348	7161.6	6271.55
986.536	2599.1234	7114.85	6226.1
986.6614	2600.4112	7108	6216.45
986.7867	2601.6983	7067.65	6173.4
986.912	2602.9848	7046.8	6152.45
987.0372	2604.2705	7018.95	6119.45
987.1624	2605.5556	7012.6	6121.3
987.2876	2606.84	6996.3	6105.15
987.4128	2608.1237	6968.25	6075.1
987.5379	2609.4067	6924.25	6031.5
987.6629	2610.689	6911.45	6010.65
987.788	2611.9707	6868.3	5972.45
987.913	2613.2516	6858.15	5961.15
988.0379	2614.5319	6827.4	5936.75
988.1629	2615.8115	6790.75	5897.5
988.2878	2617.0903	6765.7	5872.3
988.4126	2618.3685	6749.55	5857.05
988.5375	2619.6461	6749.55	5858.4
988.6622	2620.9229	6709.1	5818.25
988.787	2622.199	6704.2	5813.35
988.9117	2623.4745	6686.25	5795.1
989.0364	2624.7493	6643.45	5751.9
989.161	2626.0234	6626.75	5736.05
989.2857	2627.2968	6604.5	5715.3
989.4102	2628.5695	6575.85	5683.15
989.5348	2629.8415	6553.1	5661.6
989.6593	2631.1128	6530.65	5636.45
989.7837	2632.3835	6502.8	5609.85
989.9082	2633.6535	6482.2	5592.45
990.0326	2634.9228	6459.85	5568.7
990.1569	2636.1914	6425.65	5534.65
990.2812	2637.4593	6447.15	5549.15
990.4055	2638.7265	6390.9	5497.25
990.5298	2639.9931	6371.9	5478.9
990.654	2641.259	6349	5455.6
990.7782	2642.5242	6344.3	5452.7
990.9023	2643.7887	6329	5436.85
991.0264	2645.0525	6301.6	5409.65
991.1505	2646.3156	6270.8	5377.35
991.2745	2647.5781	6266.8	5376.45
991.3985	2648.8398	6228.85	5338.45
991.5225	2650.1009	6207.75	5308.65
991.6464	2651.3613	6206.2	5314.95
991.7703	2652.6211	6177.1	5287.6
991.8942	2653.8801	6154.75	5262.3
992.018	2655.1385	6156.9	5262.35
992.1418	2656.3961	6127.55	5236.7
992.2655	2657.6531	6138.4	5245.55
992.3892	2658.9094	6095.95	5204.15
992.5129	2660.1651	6096.75	5207.5
992.6366	2661.42	6070.15	5176.35
992.7602	2662.6743	6064.25	5171.05
992.8837	2663.9279	6048	5157.35
993.0073	2665.1808	6012	5120.65
993.1307	2666.433	5991.65	5097.3
993.2542	2667.6846	5987.15	5095.05
993.3776	2668.9354	5976.05	5082.25
993.501	2670.1856	5967.45	5073.3
993.6244	2671.4351	5954.55	5063.25
993.7477	2672.6839	5943.8	5050.8
993.8709	2673.9321	5909.8	5020.4
993.9942	2675.1795	5906.7	5012.85
994.1174	2676.4263	5884.15	4991.85
994.2405	2677.6724	5880.55	4988.05
994.3637	2678.9179	5848.65	4956.15
994.4868	2680.1626	5833.65	4943.15
994.6098	2681.4067	5823.3	4930.95
994.7328	2682.6501	5808.05	4917.75
994.8558	2683.8928	5782.1	4890.8
994.9788	2685.1348	5759.05	4867.9
995.1017	2686.3761	5722.85	4832.6
995.2245	2687.6168	5708.35	4817.15
995.3474	2688.8568	5703.65	4810
995.4702	2690.0961	5680.2	4790.9
995.5929	2691.3348	5655.4	4762.85
995.7156	2692.5727	5637.6	4744.75
995.8383	2693.81	5641.35	4750.2
995.961	2695.0466	5612.35	4722.75
996.0836	2696.2826	5595.85	4702.7
996.2062	2697.5178	5564.8	4669.95
996.3287	2698.7524	5547.05	4654.05
996.4512	2699.9863	5556.05	4663.05
996.5737	2701.2195	5539.55	4649.05
996.6961	2702.452	5506.75	4613.5
996.8185	2703.6839	5488.95	4595.35
996.9408	2704.9151	5494.25	4604.45
997.0631	2706.1456	5477.7	4584.9
997.1854	2707.3755	5459.75	4568
997.3077	2708.6046	5468.3	4575.45
997.4299	2709.8331	5447.95	4555.15
997.552	2711.0609	5416.05	4525.15
997.6742	2712.2881	5426.75	4533.8
997.7963	2713.5145	5422.95	4529.15
997.9183	2714.7403	5404.2	4512.2
998.0403	2715.9654	5382.55	4490.75
998.1623	2717.1899	5383	4476.25
998.2842	2718.4136	5381.15	4490.1
998.4062	2719.6367	5365.4	4473.95
998.528	2720.8591	5383.4	4484.45
998.6498	2722.0809	5349.4	4456.6
998.7716	2723.3019	5343.9	4448.35
998.8934	2724.5223	5327.4	4436.5
999.0151	2725.7421	5303.9	4412
999.1368	2726.9611	5318	4424.35
999.2584	2728.1795	5304.2	4407.95
999.38	2729.3972	5268.25	4376.85
999.5016	2730.6142	5256.8	4356.85
999.6231	2731.8306	5218.55	4324.6
999.7446	2733.0462	5188.95	4295.2
999.8661	2734.2612	5151.65	4253
999.9875	2735.4756	5133.55	4239.55
1000.1089	2736.6892	5095.5	4201.7
1000.2302	2737.9022	5058.9	4169.3
1000.3515	2739.1145	5015.65	4124.65
1000.4728	2740.3262	4998.7	4096.7
1000.594	2741.5372	4969.85	4078.3
1000.7152	2742.7475	4950.2	4056.25
1000.8363	2743.9571	4930.85	4038.9
1000.9575	2745.1661	4886.1	3989.85
1001.0785	2746.3744	4874.65	3980.5
1001.1996	2747.582	4850.2	3957.95
1001.3206	2748.7889	4824.45	3932
1001.4415	2749.9952	4824.6	3931.35
1001.5625	2751.2008	4799.6	3907.75
1001.6833	2752.4057	4798.95	3903.35
1001.8042	2753.61	4754.9	3862.5
1001.925	2754.8136	4745.3	3851.75
1002.0458	2756.0165	4723.8	3833
1002.1665	2757.2188	4718.2	3826.65
1002.2872	2758.4204	4689.8	3797.35
1002.4078	2759.6213	4674.7	3781
1002.5285	2760.8215	4691.7	3796.25
1002.649	2762.0211	4644.55	3750.75
1002.7696	2763.22	4645.15	3749.8
1002.8901	2764.4182	4624.25	3730.55
1003.0106	2765.6158	4633.45	3742.55
1003.131	2766.8127	4602.15	3711.75
1003.2514	2768.009	4582.4	3690.4
1003.3717	2769.2045	4566.95	3674.2
1003.492	2770.3994	4571.5	3678.95
1003.6123	2771.5936	4547.05	3653.9
1003.7325	2772.7872	4530.95	3641.35
1003.8527	2773.9801	4499.75	3604.1
1003.9729	2775.1723	4501.2	3591.35
1004.093	2776.3639	4482	3589.95
1004.2131	2777.5548	4466.6	3573.45
1004.3331	2778.745	4455.2	3563.75
1004.4531	2779.9346	4444.6	3555
1004.5731	2781.1235	4450.45	3557.3
1004.693	2782.3117	4437.95	3546.55
1004.8129	2783.4992	4416	3523.25
1004.9328	2784.6861	4415.25	3523.7
1005.0526	2785.8723	4397.15	3501.75
1005.1723	2787.0579	4387.1	3494.1
1005.2921	2788.2428	4397	3505.6
1005.4118	2789.427	4387.35	3495.6
1005.5314	2790.6106	4383.3	3493.1
1005.651	2791.7935	4384.9	3492.9
1005.7706	2792.9757	4386.75	3496.95
1005.8902	2794.1573	4370.55	3476.1
1006.0097	2795.3382	4356.25	3462.7
1006.1291	2796.5184	4349.8	3459.1
1006.2485	2797.698	4381.65	3487.7
1006.3679	2798.8769	4382.85	3488.95
1006.4873	2800.0551	4385.5	3492.9
1006.6066	2801.2327	4378.15	3482.7
1006.7258	2802.4096	4383.85	3492.05
1006.8451	2803.5859	4385.8	3493.5
1006.9642	2804.7615	4392.3	3501
1007.0834	2805.9364	4407.15	3516.5
1007.2025	2807.1106	4409.85	3519.05
1007.3216	2808.2842	4434.6	3542.7
1007.4406	2809.4572	4462.15	3570.05
1007.5596	2810.6294	4474.25	3580.55
1007.6785	2811.801	4502.1	3611.05
1007.7975	2812.972	4549.25	3657.35
1007.9163	2814.1423	4582.05	3690.6
1008.0352	2815.3119	4611.9	3720.65
1008.154	2816.4808	4655.85	3765.85
1008.2727	2817.6491	4700.3	3809.15
1008.3914	2818.8167	4717.55	3827.3
1008.5101	2819.9837	4766.25	3870.35
1008.6288	2821.15	4790.5	3899.05
1008.7474	2822.3157	4819.2	3927.95
1008.8659	2823.4807	4866.85	3975.45
1008.9844	2824.645	4911.65	4017.8
1009.1029	2825.8086	4929.8	4040.15
1009.2214	2826.9716	4976.65	4085.4
1009.3398	2828.134	5001.55	4109.8
1009.4581	2829.2957	5038.9	4147.6
1009.5764	2830.4567	5048.4	4157.85
1009.6947	2831.617	5062.8	4169.6
1009.813	2832.7767	5068.4	4178.6
1009.9312	2833.9358	5066.1	4175.85
1010.0493	2835.0941	5066.95	4174.6
1010.1675	2836.2519	5038.3	4147.55
1010.2855	2837.4089	5030.6	4136.5
1010.4036	2838.5653	5000.5	4107.25
1010.5216	2839.7211	4982.85	4091.15
1010.6396	2840.8761	4989.5	4096.65
1010.7575	2842.0306	5022.85	4133.1
1010.8754	2843.1843	5048.35	4157.65
1010.9932	2844.3374	5066.15	4175.25
1011.111	2845.4899	5138.3	4244.85
1011.2288	2846.6417	5190.55	4297.55
1011.3465	2847.7928	5253.05	4362.45
1011.4642	2848.9433	5328.35	4436.55
1011.5818	2850.0931	5390.45	4498.5
1011.6995	2851.2422	5467.4	4575.4
1011.817	2852.3907	5527.75	4635.1
1011.9345	2853.5385	5601.5	4707.8
1012.052	2854.6857	5669.7	4749.9
1012.1695	2855.8323	5706.5	4816.3
1012.2869	2856.9781	5734.4	4845.5
1012.4042	2858.1233	5777.45	4888.8
1012.5216	2859.2679	5809.15	4917.7
1012.6389	2860.4118	5832.85	4940.3
1012.7561	2861.555	5870.95	4976.85
1012.8733	2862.6976	5917.4	5023.55
1012.9905	2863.8395	5916.2	5026.3
1013.1076	2864.9808	5914.55	5022.15
1013.2247	2866.1214	5938.7	5047.15
1013.3417	2867.2614	5945.85	5053.85
1013.4587	2868.4007	5931.05	5037.85
1013.5757	2869.5393	5942.3	5049.35
1013.6926	2870.6773	5947.3	5052
1013.8095	2871.8146	5950.5	5057.85
1013.9263	2872.9513	5931.25	5037.1
1014.0431	2874.0874	5917.6	5026.5
1014.1599	2875.2227	5908.85	5017.05
1014.2766	2876.3574	5895.35	5004.85
1014.3933	2877.4915	5848.25	4956.35
1014.51	2878.6249	5811.6	4923.2
1014.6266	2879.7577	5771.55	4879.4
1014.7431	2880.8898	5752.4	4850.5
1014.8596	2882.0212	5725.15	4834.75
1014.9761	2883.152	5705.4	4813.85
1015.0925	2884.2821	5670.15	4779
1015.2089	2885.4116	5654	4763.45
1015.3253	2886.5405	5650.65	4758.35
1015.4416	2887.6686	5642.65	4747.9
1015.5579	2888.7962	5645.85	4755.3
1015.6741	2889.923	5637.65	4748.9
1015.7903	2891.0493	5633.9	4744.75
1015.9065	2892.1748	5643.7	4751.5
1016.0226	2893.2997	5624.85	4732.55
1016.1387	2894.424	5652.1	4761.7
1016.2547	2895.5476	5627.75	4737.55
1016.3707	2896.6706	5673.3	4782.95
1016.4866	2897.7929	5681.3	4791.15
1016.6025	2898.9145	5706.75	4816.4
1016.7184	2900.0355	5740.8	4846.2
1016.8342	2901.1559	5753.2	4862.5
1016.95	2902.2756	5791.05	4896.25
1017.0658	2903.3946	5816.75	4924.65
1017.1815	2904.513	5839.05	4944.1
1017.2971	2905.6308	5850.1	4959.8
1017.4127	2906.7479	5847.6	4958.7
1017.5283	2907.8643	5868.65	4978
1017.6439	2908.9801	5869.55	4978.55
1017.7594	2910.0953	5871.65	4980.05
1017.8748	2911.2098	5850.6	4955.85
1017.9902	2912.3236	5843.2	4944.4
1018.1056	2913.4368	5818.95	4924.95
1018.2209	2914.5494	5809.95	4916.85
1018.3362	2915.6613	5786.5	4890.2
1018.4515	2916.7725	5754.8	4859.8
1018.5667	2917.8831	5715.8	4822.65
1018.6819	2918.9931	5673.45	4779.9
1018.797	2920.1024	5607.8	4714.1
1018.9121	2921.211	5601.95	4712
1019.0271	2922.319	5568.05	4676.3
1019.1421	2923.4264	5541.35	4651.05
1019.2571	2924.5331	5518.85	4629.15
1019.372	2925.6391	5496.4	4605
1019.4869	2926.7445	5480.15	4589.75
1019.6017	2927.8493	5476.55	4584.75
1019.7165	2928.9534	5440.85	4549.05
1019.8313	2930.0569	5453.6	4558.25
1019.946	2931.1597	5438.65	4545.95
1020.0606	2932.2619	5417.9	4528.05
1020.1753	2933.3634	5402.25	4511.3
1020.2899	2934.4643	5407.45	4510.1
1020.4044	2935.5645	5365.65	4468.25
1020.5189	2936.6641	5304.4	4408.5
1020.6334	2937.763	5267.7	4379.1
1020.7478	2938.8613	5196.7	4303.45
1020.8622	2939.959	5143.15	4245.15
1020.9765	2941.056	5051.45	4161
1021.0908	2942.1523	4956.95	4063.65
1021.2051	2943.248	4872.25	3979.6
1021.3193	2944.3431	4760.55	3869.35
1021.4334	2945.4375	4664.7	3773.95
1021.5476	2946.5313	4551.6	3662.45
1021.6617	2947.6244	4444.15	3550.7
1021.7757	2948.7169	4316	3423.1
1021.8897	2949.8087	4237.05	3345.8
1022.0037	2950.8999	4117.6	3227.05
1022.1176	2951.9904	4054.4	3165.25
1022.2315	2953.0803	3955.1	3063.4
1022.3453	2954.1696	3875.7	2985.05
1022.4591	2955.2582	3826.65	2937.05
1022.5728	2956.3462	3759.6	2868.75
1022.6865	2957.4335	3713.4	2823.65
1022.8002	2958.5202	3663.85	2771.25
1022.9138	2959.6062	3621.25	2731.25
1023.0274	2960.6916	3589.5	2697.95
1023.141	2961.7764	3571.85	2679.55
1023.2545	2962.8605	3541.05	2648.45
1023.3679	2963.9439	3527.75	2636.85
1023.4813	2965.0267	3510.1	2618.85
1023.5947	2966.1089	3512.5	2596.7
1023.708	2967.1905	3476.1	2584.65
1023.8213	2968.2714	3472.6	2583.8
1023.9346	2969.3516	3463.6	2571.9
1024.0478	2970.4312	3463.7	2566.1
1024.1609	2971.5102	3433.3	2542.15
1024.274	2972.5885	3440.85	2548.4
1024.3871	2973.6662	3439.15	2543.35
1024.5002	2974.7432	3421.5	2530.85
1024.6132	2975.8196	3412.05	2521.4
1024.7261	2976.8954	3389.45	2501.65
1024.839	2977.9705	3392.95	2501.05
1024.9519	2979.045	3344.95	2456.1
1025.0647	2980.1188	3324.7	2434.2
1025.1775	2981.192	3306.8	2415.95
1025.2902	2982.2645	3263.6	2370.7
1025.4029	2983.3364	3244.65	2350.95
1025.5156	2984.4077	3202.1	2311.6
1025.6282	2985.4783	3184.45	2289.2
1025.7407	2986.5483	3137.4	2248.1
1025.8532	2987.6177	3102.7	2213.3
1025.9657	2988.6864	3054.85	2163.7
1026.0782	2989.7545	3022.75	2129.85
1026.1906	2990.8219	2983.45	2091.9
1026.3029	2991.8887	2946.5	2052.1
1026.4152	2992.9548	2913.05	2020.4
1026.5275	2994.0204	2884.25	1992.25
1026.6397	2995.0852	2838.65	1949.25
1026.7519	2996.1495	2811.6	1920.5
1026.864	2997.2131	2779.7	1887.75
1026.9761	2998.276	2749.25	1858.95
1027.0882	2999.3383	2735.2	1842.55
1027.2002	3000.4	2719.4	1828.45
1027.3122	3001.4611	2691.3	1798.9
1027.4241	3002.5215	2659.35	1770.4
1027.536	3003.5812	2645.1	1754.15
1027.6478	3004.6404	2640.65	1750.9
1027.7596	3005.6989	2617.55	1725.85
1027.8714	3006.7567	2599.5	1708.75
1027.9831	3007.8139	2608.6	1693.55
1028.0947	3008.8705	2576.55	1684.65
1028.2064	3009.9264	2580.8	1685.55
1028.3179	3010.9818	2557.8	1666.85
1028.4295	3012.0364	2565.5	1675.4
1028.541	3013.0905	2549.3	1658.7
1028.6524	3014.1439	2530.3	1640.95
1028.7638	3015.1966	2517.25	1629.9
1028.8752	3016.2487	2523.3	1631.2
1028.9865	3017.3002	2518.55	1619.7
1029.0978	3018.3511	2511.05	1620.7
1029.209	3019.4013	2497.1	1607.1
1029.3202	3020.4509	2502.25	1612.6
1029.4314	3021.4998	2496.85	1608.8
1029.5425	3022.5481	2488	1597.55
1029.6535	3023.5958	2484.35	1592.05
1029.7645	3024.6428	2491.55	1601.55
1029.8755	3025.6892	2494.25	1605.1
1029.9864	3026.735	2485.8	1594.3
1030.0973	3027.7802	2472.75	1584
1030.2082	3028.8247	2470.1	1579.5
1030.319	3029.8685	2463.15	1571.85
1030.4297	3030.9118	2467.5	1575.9
1030.5404	3031.9544	2470.45	1582.35
1030.6511	3032.9963	2455.55	1565.8
1030.7617	3034.0376	2474.3	1583.65
1030.8723	3035.0783	2471.65	1576.7
1030.9829	3036.1184	2467.7	1577.1
1031.0934	3037.1578	2458.95	1569.25
1031.2038	3038.1966	2450.8	1558.6
1031.3142	3039.2348	2441.8	1549.75
1031.4246	3040.2723	2452.6	1552.6
1031.5349	3041.3092	2445.15	1555.85
1031.6452	3042.3455	2449.35	1558.65
1031.7554	3043.3811	2436.8	1545.15
1031.8656	3044.4161	2420.95	1528.65
1031.9758	3045.4505	2405.1	1515.25
1032.0859	3046.4842	2398.4	1507.5
1032.1959	3047.5173	2395.6	1504.4
1032.3059	3048.5498	2376.75	1488.35
1032.4159	3049.5816	2367.7	1477.35
1032.5258	3050.6128	2374.15	1479.45
1032.6357	3051.6434	2360.85	1468.35
1032.7455	3052.6734	2346.85	1453.4
1032.8553	3053.7027	2332.4	1440.35
1032.9651	3054.7314	2318.35	1429.75
1033.0748	3055.7594	2311.3	1420.75
1033.1845	3056.7868	2295.15	1404.05
1033.2941	3057.8136	2288.45	1397.45
1033.4037	3058.8398	2269.65	1381.3
1033.5132	3059.8653	2274.25	1383.35
1033.6227	3060.8902	2256.35	1364.9
1033.7321	3061.9145	2244.1	1352.35
1033.8415	3062.9381	2239.95	1348.75
1033.9509	3063.9612	2238.35	1333.25
1034.0602	3064.9835	2216.6	1324.4
1034.1694	3066.0053	2217.5	1325.05
1034.2787	3067.0264	2203.65	1314.95
1034.3878	3068.0469	2190.2	1299.35
1034.497	3069.0668	2186.9	1293.35
1034.6061	3070.086	2170.2	1278.7
1034.7151	3071.1046	2151.15	1259.65
1034.8241	3072.1226	2144.95	1252.05
1034.9331	3073.1399	2131.3	1240.35
1035.042	3074.1567	2109.45	1218.85
1035.1508	3075.1727	2102.95	1212.25
1035.2597	3076.1882	2084.05	1194.4
1035.3684	3077.203	2081.35	1190.25
1035.4772	3078.2173	2057.35	1165.5
1035.5859	3079.2308	2057.05	1164.1
1035.6945	3080.2438	2046.85	1153.9
1035.8031	3081.2561	2039.55	1148.1
1035.9117	3082.2678	2017.15	1128.85
1036.0202	3083.2789	2006	1115.95
1036.1286	3084.2893	2006.35	1117.65
1036.2371	3085.2991	1986.8	1096.25
1036.3454	3086.3083	1991.5	1096.05
1036.4538	3087.3169	1981.75	1090.5
1036.562	3088.3248	1965.4	1072.85
1036.6703	3089.3321	1957.5	1065.65
1036.7785	3090.3388	1943.6	1054.5
1036.8866	3091.3449	1924.05	1034.35
1036.9948	3092.3503	1929.5	1036.7
1037.1028	3093.3551	1928.5	1039.4
1037.2108	3094.3593	1921.35	1030.75
1037.3188	3095.3629	1908.25	1019.3
1037.4267	3096.3658	1904.85	1013.75
1037.5346	3097.3681	1894.95	1006.8
1037.6425	3098.3698	1890.4	996.85
1037.7503	3099.3708	1889.9	991
1037.858	3100.3713	1867.2	977.9
1037.9657	3101.3711	1874.95	982.8
1038.0734	3102.3702	1969.85	963.3
1038.181	3103.3688	1858.25	965.1
1038.2886	3104.3667	1844.4	955.25
1038.3961	3105.364	1846.75	957.1
1038.5036	3106.3607	1838.65	948.35
1038.611	3107.3568	1833.4	942.8
1038.7184	3108.3522	1817.3	928.7
1038.8257	3109.347	1824.8	932.85
1038.933	3110.3412	1821.1	925.75
1039.0403	3111.3348	1800.6	910.65
1039.1475	3112.3277	1797.6	908.45
1039.2547	3113.32	1792.95	903.7
1039.3618	3114.3117	1786.95	896.1
1039.4689	3115.3028	1786.2	893.95
1039.5759	3116.2932	1785.2	892
1039.6829	3117.2831	1782.85	887
1039.7898	3118.2723	1772.05	882.3
1039.8967	3119.2608	1762	870.35
1040.0035	3120.2488	1765.6	875.3
1040.1103	3121.2361	1753.7	862.25
1040.2171	3122.2229	1750.75	860.2
1040.3238	3123.209	1750.7	857.75
1040.4305	3124.1944	1738.55	849.2
1040.5371	3125.1793	1735.4	844.05
1040.6437	3126.1635	1735.05	844.5
1040.7502	3127.1471	1727.25	836.95
1040.8567	3128.1301	1716.75	827.9
1040.9631	3129.1125	1719.2	828.55
1041.0695	3130.0942	1712.7	823
1041.1759	3131.0753	1729.5	830.45
1041.2822	3132.0558	1712.2	819.35
1041.3884	3133.0357	1694.65	803.95
1041.4946	3134.015	1697.2	806.3
1041.6008	3134.9936	1696.05	805.65
1041.7069	3135.9716	1708.4	796
1041.813	3136.949	1683.55	791.6
1041.919	3137.9258	1685.75	789.45
1042.025	3138.902	1684.2	787.5
1042.1309	3139.8775	1674.65	785.1
1042.2368	3140.8524	1669.25	778.9
1042.3427	3141.8267	1657.05	764.85
1042.4485	3142.8004	1661.05	769.8
1042.5542	3143.7735	1668.3	772.1
1042.6599	3144.7459	1654.85	762.35
1042.7656	3145.7178	1657.8	767.75
1042.8712	3146.689	1653.75	764.45
1042.9768	3147.6596	1648.35	758.15
1043.0823	3148.6295	1638.65	748.2
1043.1878	3149.5989	1636.25	743.95
1043.2932	3150.5676	1635.15	746.1
1043.3986	3151.5357	1622.5	734
1043.5039	3152.5032	1617.6	728.8
1043.6092	3153.4701	1615.15	725.5
1043.7145	3154.4364	1613.1	721.2
1043.8197	3155.402	1613.4	723.9
1043.9248	3156.367	1606.45	712.95
1044.03	3157.3315	1641.8	710.65
1044.135	3158.2952	1596.1	704.4
1044.24	3159.2584	1592.65	701.85
1044.345	3160.221	1583.35	692.95
1044.4499	3161.1829	1588.45	697.8
1044.5548	3162.1442	1579.9	689.65
1044.6596	3163.105	1571.35	680
1044.7644	3164.065	1573.75	683.6
1044.8692	3165.0245	1572.55	681.15
1044.9739	3165.9834	1563.2	676.5
1045.0785	3166.9416	1560.65	670.25
1045.1831	3167.8993	1548.1	657.15
1045.2877	3168.8563	1551.7	660.95
1045.3922	3169.8127	1543.8	654.95
1045.4966	3170.7684	1554.05	664.3
1045.6011	3171.7236	1546.3	655.75
1045.7054	3172.6782	1535.3	645.35
1045.8098	3173.6321	1532.85	640.1
1045.914	3174.5854	1538.75	643.8
1046.0183	3175.5381	1528.5	639.5
1046.1224	3176.4902	1518.55	629.8
1046.2266	3177.4417	1518.1	629.25
1046.3307	3178.3926	1516.55	625.3
1046.4347	3179.3428	1512.15	625
1046.5387	3180.2924	1510.4	620.8
1046.6427	3181.2415	1506.55	616.65
1046.7466	3182.1899	1507.15	614.2
1046.8504	3183.1377	1491.85	602.8
1046.9542	3184.0848	1497.5	605.4
1047.058	3185.0314	1481.65	590.7
1047.1617	3185.9773	1495.4	604.55
1047.2654	3186.9227	1489.7	599.6
1047.369	3187.8674	1486.1	596.5
1047.4726	3188.8115	1479.9	585.1
1047.5761	3189.755	1471.65	582.35
1047.6796	3190.6979	1467.6	577.8
1047.783	3191.6402	1469.2	579.3
1047.8864	3192.5818	1470.65	578.8
1047.9898	3193.5229	1481.55	567.65
1048.0931	3194.4633	1469.05	578.2
1048.1963	3195.4031	1454.9	564.2
1048.2995	3196.3423	1455.9	564.9
1048.4027	3197.2809	1454.7	565.55
1048.5058	3198.2189	1447.7	557.8
1048.6089	3199.1563	1449.15	553.8
1048.7119	3200.0931	1440.45	550.4
1048.8148	3201.0292	1437.45	547.8
1048.9178	3201.9648	1437.5	548.35
1049.0206	3202.8997	1437.3	546.2
1049.1235	3203.834	1431.75	541.55
1049.2262	3204.7677	1432.25	542.95
1049.329	3205.7008	1431.95	540.35
1049.4317	3206.6333	1419.3	529.35
1049.5343	3207.5652	1422.7	530.6
1049.6369	3208.4964	1421.7	530.45
1049.7394	3209.4271	1422.3	531.85
1049.8419	3210.3571	1404.25	516.65
1049.9444	3211.2865	1413.4	520.85
1050.0468	3212.2154	1407.35	516.6
1050.1491	3213.1436	1407.5	514.1
1050.2514	3214.0712	1416.05	519.15
1050.3537	3214.9982	1398.85	509.05
1050.4559	3215.9246	1392.8	502.15
1050.5581	3216.8503	1396.35	507
1050.6602	3217.7755	1389.65	499.5
1050.7623	3218.7001	1387.35	497.45
1050.8643	3219.624	1385.85	496.65
1050.9663	3220.5473	1380.6	490.7
1051.0682	3221.4701	1380.8	490.3
1051.1701	3222.3922	1383.25	491.85
1051.2719	3223.3137	1381.05	491.15
1051.3737	3224.2346	1377.65	485.5
1051.4754	3225.1549	1374.9	484.7
1051.5771	3226.0746	1367.6	477.95
1051.6788	3226.9937	1369.2	477.8
1051.7804	3227.9121	1362.6	474.4
1051.8819	3228.83	1365	474.45
1051.9834	3229.7473	1362.9	473.75
1052.0849	3230.6639	1355.1	464.25
1052.1863	3231.5799	1347.5	458.5
1052.2876	3232.4954	1353.6	462.3
1052.3889	3233.4102	1350.25	460.3
1052.4902	3234.3244	1352.95	462.8
1052.5914	3235.238	1343.25	454.2
1052.6926	3236.151	1359.2	446.6
1052.7937	3237.0634	1334.45	444.9
1052.8948	3237.9752	1336.55	448.2
1052.9958	3238.8864	1334	444.35
1053.0968	3239.797	1330.8	441.25
1053.1977	3240.7069	1331.1	437.65
1053.2986	3241.6163	1324.4	433.5
1053.3994	3242.5251	1321.85	431.8
1053.5002	3243.4332	1319.6	430.05
1053.6009	3244.3408	1322.15	432.2
1053.7016	3245.2477	1314.7	427.25
1053.8022	3246.154	1312.6	422.05
1053.9028	3247.0598	1313.7	423.85
1054.0034	3247.9649	1300.8	412.6
1054.1039	3248.8694	1303.45	413
1054.2043	3249.7733	1301.9	413.35
1054.3047	3250.6766	1296.5	404.8
1054.4051	3251.5793	1299.55	409.9
1054.5054	3252.4814	1292.55	402.75
1054.6056	3253.3829	1292.75	404.1
1054.7058	3254.2838	1287.3	398
1054.806	3255.1841	1286.25	396.1
1054.9061	3256.0838	1277.35	386.9
1055.0061	3256.9829	1280.65	393.6
1055.1062	3257.8814	1274.7	381.45
1055.2061	3258.7792	1280.8	390.25
1055.306	3259.6765	1265.05	373.75
1055.4059	3260.5731	1265.15	377
1055.5057	3261.4692	1259.45	368.05
1055.6055	3262.3647	1257.35	368
1055.7052	3263.2595	1247.9	359
1055.8049	3264.1538	1248.65	359.8
1055.9045	3265.0474	1239.15	351.55
1056.0041	3265.9404	1233.05	342.8
1056.1036	3266.8329	1231.3	342.35
1056.2031	3267.7247	1239.25	340.15
1056.3025	3268.616	1215.5	326.75
1056.4019	3269.5066	1213.8	325.2
1056.5013	3270.3966	1204	310.95
1056.6005	3271.286	1187.55	299.05
