Software Version:	3.9.2.0
Unit SN:	10000200
Spectrometer SN:	6960
Date:	3/6/2024 10:30:31 AM
Data Line Index:	25
Spectral Points:	2048
Integration time (ms):	125
Averages:	20
Delay (ms):	30
Sequence Number:	1
Processing:	dark subtract
Laser Power (mW):	305
Laser Current (mA):	825
Laser Diode Temp (C):	25.1
Laser Case Temp (C):	26.3
System Temp (C):	26
Spectrometer Temp (C):	23.5
CCD Temp (C):	-0.003
Secondary Temp (C):	20.004
Heatsink Temp (C):	21.473
CCDPCB Temp (C):	36.207
SecondaryPCB Temp (C):	29.004

Wavelength	RamanShift	Raw Counts	Dark Subtracted
787.061	30.1047	1137.75	724.75
787.2016	32.3739	1169.95	758.6
787.3422	34.6426	1210.2	799
787.4828	36.9109	1258.6	845.1
787.6235	39.1787	1323.25	906.4
787.7642	41.4461	1377	955.8
787.9049	43.7131	1438.75	1013.3
788.0456	45.9796	1505.95	1077.55
788.1863	48.2456	1567.95	1134.3
788.3271	50.5112	1644.2	1207.95
788.4679	52.7764	1707.75	1270.9
788.6087	55.0411	1799	1357.7
788.7496	57.3054	1880.2	1431.15
788.8904	59.5692	1965.45	1515
789.0313	61.8326	2060.35	1607.45
789.1722	64.0955	2171.7	1715.05
789.3132	66.3579	2284.25	1821.15
789.4541	68.6199	2445.15	1979.1
789.5951	70.8815	2703.85	2236.55
789.7361	73.1426	3247.45	2776.7
789.8771	75.4032	4620.95	4144.1
790.0181	77.6634	8128.65	7645.8
790.1592	79.9231	17558.15	17072.25
790.3003	82.1824	56349.8	55852.3
790.4414	84.4412	65535	65019.25
790.5825	86.6995	65535	64994.55
790.7237	88.9574	65535	64968.7
790.8648	91.2148	65535	64954.8
791.006	93.4717	65535	64942.2
791.1472	95.7282	65535	64940.15
791.2885	97.9842	65535	64938.75
791.4297	100.2398	65535	64933.6
791.571	102.4949	65535	64930.75
791.7123	104.7495	65535	64927.75
791.8536	107.0036	65535	64923.95
791.9949	109.2573	65535	64923.3
792.1363	111.5105	65535	64921.7
792.2777	113.7632	65535	64921.2
792.4191	116.0154	65535	64912.9
792.5605	118.2672	65535	64921.8
792.7019	120.5185	65535	64914.85
792.8434	122.7693	65535	64913.3
792.9849	125.0197	65535	64909.05
793.1264	127.2696	65535	64905.95
793.2679	129.519	65535	64903
793.4094	131.7679	65535	64900.95
793.551	134.0163	65535	64896.3
793.6926	136.2642	65535	64894.2
793.8342	138.5117	65535	64882.85
793.9758	140.7587	65535	64893.7
794.1175	143.0052	65535	64886.7
794.2591	145.2512	65535	64886.7
794.4008	147.4967	65535	64888.3
794.5425	149.7417	65535	64884.15
794.6842	151.9863	65535	64878.3
794.826	154.2304	65535	64875.8
794.9677	156.4739	65535	64871.85
795.1095	158.717	65535	64868.85
795.2513	160.9596	65535	64866.2
795.3931	163.2017	65535	64866.7
795.535	165.4433	65535	64863.3
795.6768	167.6844	65535	64861.25
795.8187	169.925	65535	64857.95
795.9606	172.1651	65535	64854.85
796.1025	174.4047	65535	64852.35
796.2445	176.6439	65535	64851.5
796.3864	178.8825	65535	64846.95
796.5284	181.1206	65535	64844.15
796.6704	183.3582	65535	64837.7
796.8124	185.5954	65535	64838.8
796.9544	187.832	65535	64833.6
797.0965	190.0681	65535	64830.2
797.2386	192.3037	65535	64827.5
797.3806	194.5388	65535	64828.95
797.5228	196.7734	65535	64822.15
797.6649	199.0075	65535	64818.6
797.807	201.2411	65535	64820.4
797.9492	203.4742	65535	64822.5
798.0914	205.7068	65535	64816.75
798.2336	207.9389	65535	64810
798.3758	210.1704	65535	64813.3
798.518	212.4015	65535	64821.35
798.6603	214.632	65535	64827.4
798.8025	216.862	65535	64833.75
798.9448	219.0915	65535	64835.9
799.0871	221.3205	65535	64831.5
799.2294	223.549	65535	64833.7
799.3718	225.777	65535	64836.35
799.5141	228.0044	65535	64827.9
799.6565	230.2314	65535	64833.5
799.7989	232.4578	65535	64824.85
799.9413	234.6837	65535	64817.05
800.0837	236.909	65535	64813.3
800.2262	239.1339	65535	64792.2
800.3687	241.3582	65535	64806.1
800.5111	243.582	65535	64776
800.6536	245.8053	65535	64792.15
800.7961	248.0281	65535	64793.6
800.9387	250.2503	65535	64787.95
801.0812	252.472	65535	64786.15
801.2238	254.6932	65535	64786.75
801.3664	256.9139	65535	64787.8
801.509	259.134	65535	64781.6
801.6516	261.3536	65535	64781.7
801.7942	263.5727	65535	64785
801.9369	265.7912	65535	64783.9
802.0795	268.0092	65535	64780.85
802.2222	270.2267	65535	64777.7
802.3649	272.4436	65535	64781.75
802.5076	274.6601	65535	64768.15
802.6504	276.8759	65535	64773.55
802.7931	279.0913	65535	64774.05
802.9359	281.3061	65535	64775.05
803.0787	283.5204	65535	64769.15
803.2215	285.7341	65535	64763.7
803.3643	287.9473	65535	64752.35
803.5071	290.16	65535	64759.55
803.6499	292.3721	65535	64766.5
803.7928	294.5837	65535	64766.85
803.9357	296.7947	65535	64767.75
804.0786	299.0052	65535	64763.7
804.2215	301.2152	65535	64765.35
804.3644	303.4246	65535	64766
804.5074	305.6334	65535	64764.7
804.6503	307.8418	65535	64761.15
804.7933	310.0495	65535	64762.45
804.9363	312.2568	65535	64755.05
805.0793	314.4635	65535	64762
805.2223	316.6696	65535	64757.8
805.3653	318.8752	65535	64750.7
805.5084	321.0802	65535	64756.5
805.6514	323.2847	65535	64753.4
805.7945	325.4887	65535	64752.55
805.9376	327.692	65535	64752.4
806.0807	329.8949	65535	64746.75
806.2238	332.0972	65535	64749.6
806.367	334.2989	65535	64745.45
806.5101	336.5001	65535	64744.9
806.6533	338.7007	65535	64748.15
806.7965	340.9008	65535	64745
806.9397	343.1003	65535	64740.05
807.0829	345.2992	65535	64739.9
807.2261	347.4976	65535	64736.9
807.3693	349.6955	65535	64733.05
807.5126	351.8927	65535	64733.4
807.6559	354.0895	65535	64722.6
807.7991	356.2856	65535	64734.45
807.9424	358.4812	65535	64734.95
808.0857	360.6763	65535	64733.3
808.2291	362.8707	65535	64730.15
808.3724	365.0646	65535	64726.4
808.5158	367.258	65535	64728.55
808.6591	369.4508	65535	64723.9
808.8025	371.643	65535	64720.75
808.9459	373.8346	65535	64719.9
809.0893	376.0257	65535	64721.35
809.2327	378.2162	65535	64715.75
809.3762	380.4062	65535	64718.25
809.5196	382.5956	65535	64716.6
809.6631	384.7844	65535	64719.5
809.8066	386.9726	65535	64722.35
809.9501	389.1603	65535	64720.3
810.0936	391.3474	65535	64681.55
810.2371	393.5339	65535	64724.8
810.3806	395.7199	65535	64728.55
810.5241	397.9052	65535	64723.3
810.6677	400.09	65535	64724.3
810.8113	402.2743	65535	64726
810.9548	404.4579	65535	64726.4
811.0984	406.641	65535	64722.05
811.2421	408.8235	65535	64724.35
811.3857	411.0054	65535	64719.55
811.5293	413.1868	65535	64714.45
811.673	415.3675	65535	64713.4
811.8166	417.5477	65535	64711.75
811.9603	419.7273	65535	64707
812.104	421.9064	65535	64701.95
812.2477	424.0848	65535	64708.1
812.3914	426.2627	65535	64706.85
812.5351	428.4399	65535	64705.95
812.6788	430.6166	65535	64703.7
812.8226	432.7928	65535	64700.05
812.9663	434.9683	65535	64699.25
813.1101	437.1432	65535	64695.85
813.2539	439.3176	65535	64697.9
813.3977	441.4914	65535	64701.9
813.5415	443.6645	65535	64697.85
813.6853	445.8371	65535	64699.5
813.8291	448.0091	65535	64703.9
813.973	450.1806	65535	64701.75
814.1168	452.3514	65535	64699.15
814.2607	454.5216	65535	64685.1
814.4046	456.6913	65535	64694.1
814.5485	458.8603	65535	64698.35
814.6924	461.0288	65535	64693.7
814.8363	463.1967	65535	64698.1
814.9802	465.3639	65535	64691.55
815.1241	467.5306	65535	64691.95
815.2681	469.6967	65535	64694.4
815.412	471.8622	65535	64694.45
815.556	474.0271	65535	64697.1
815.7	476.1914	65535	64695.85
815.844	478.3551	65535	64692.95
815.988	480.5182	65535	64693.25
816.132	482.6807	65535	64692.05
816.276	484.8426	65535	64693.85
816.4201	487.0039	65535	64691.4
816.5641	489.1647	65535	64689.95
816.7082	491.3248	65535	64693.9
816.8522	493.4843	65535	64693.8
816.9963	495.6432	65535	64690.4
817.1404	497.8015	65535	64687.1
817.2845	499.9592	65535	64687.2
817.4286	502.1163	65535	64685.7
817.5727	504.2728	65535	64684.75
817.7168	506.4287	65535	64688.45
817.861	508.5839	65535	64689.05
818.0051	510.7386	65535	64687.15
818.1493	512.8927	65535	64681.1
818.2935	515.0461	65535	64683.3
818.4377	517.199	65535	64684.6
818.5818	519.3512	65535	64682.75
818.726	521.5029	65535	64673.4
818.8703	523.6539	65535	64681.05
819.0145	525.8043	65535	64682.5
819.1587	527.9541	65535	64678.15
819.303	530.1033	65535	64679.65
819.4472	532.2519	65535	64675.75
819.5915	534.3999	65535	64676.2
819.7357	536.5472	65535	64677.8
819.88	538.694	65535	64678.3
820.0243	540.8401	65535	64673.75
820.1686	542.9856	65535	64674.55
820.3129	545.1305	65535	64675.95
820.4572	547.2748	65535	64674.15
820.6016	549.4185	65535	64672.8
820.7459	551.5615	65535	64673.4
820.8902	553.704	65535	64674.1
821.0346	555.8458	65535	64674.95
821.1789	557.987	65535	64674.8
821.3233	560.1276	65535	64675.35
821.4677	562.2675	65535	64679.15
821.6121	564.4069	65535	64676.85
821.7565	566.5456	65535	64679.7
821.9009	568.6837	65535	64672.55
822.0453	570.8212	65535	64674.35
822.1897	572.958	65535	64671.8
822.3342	575.0942	65535	64676.6
822.4786	577.2299	65535	64672.05
822.6231	579.3648	65535	64676.1
822.7675	581.4992	65535	64672.7
822.912	583.6329	65535	64678.45
823.0565	585.766	65535	64674.85
823.201	587.8985	65535	64671.9
823.3454	590.0304	65535	64649.55
823.4899	592.1616	65535	64666.95
823.6345	594.2922	65535	64672.65
823.779	596.4222	65535	64666.05
823.9235	598.5515	65535	64666.65
824.068	600.6802	65535	64667.55
824.2126	602.8083	65535	64667.05
824.3571	604.9358	65535	64668.25
824.5017	607.0626	65535	64667.95
824.6462	609.1888	65535	64667.15
824.7908	611.3144	65535	64666.55
824.9354	613.4393	65535	64668.05
825.08	615.5636	65535	64668.15
825.2246	617.6873	65535	64663.95
825.3692	619.8103	65535	64661.65
825.5138	621.9327	65535	64663.15
825.6584	624.0544	65535	64665.8
825.803	626.1756	65535	64662.9
825.9477	628.2961	65535	64663.85
826.0923	630.4159	65535	64665.35
826.237	632.5351	65535	64661.45
826.3816	634.6537	65535	64662.7
826.5263	636.7716	65535	64658.35
826.6709	638.8889	65535	64663
826.8156	641.0056	65535	64661.15
826.9603	643.1216	65535	64660.1
827.105	645.237	65535	64661.85
827.2497	647.3518	65535	64660.95
827.3944	649.4659	65535	64660.55
827.5391	651.5793	65535	64661.35
827.6838	653.6922	65535	64657.75
827.8285	655.8043	65535	64659.7
827.9733	657.9159	65535	64660.75
828.118	660.0268	65535	64655.95
828.2627	662.137	65535	64662.35
828.4075	664.2466	65535	64656.15
828.5522	666.3556	65535	64659.9
828.697	668.4639	65535	64660.3
828.8418	670.5716	65535	64659.85
828.9865	672.6786	65535	64657.45
829.1313	674.785	65535	64653.35
829.2761	676.8907	65535	64657.55
829.4209	678.9958	65535	64657.55
829.5657	681.1002	65535	64656.9
829.7105	683.204	65535	64653.3
829.8553	685.3072	65535	64655.25
830.0001	687.4097	65535	64655.45
830.1449	689.5115	65535	64651.25
830.2898	691.6127	65535	64651.95
830.4346	693.7132	65535	64653.35
830.5794	695.8131	65535	64646.3
830.7243	697.9123	65535	64652.35
830.8691	700.0109	65535	64650.95
831.014	702.1089	65535	64653.55
831.1588	704.2061	65535	64653.6
831.3037	706.3028	65535	64652.75
831.4486	708.3987	65535	64653.6
831.5935	710.4941	65535	64651.35
831.7383	712.5887	65535	64653.1
831.8832	714.6827	65535	64646.3
832.0281	716.7761	65535	64652.15
832.173	718.8688	65535	64651.55
832.3179	720.9608	65535	64647.85
832.4628	723.0522	65535	64644.45
832.6077	725.1429	65535	64649.8
832.7527	727.233	65535	64649.95
832.8976	729.3224	65535	64649.85
833.0425	731.4112	65535	64648.75
833.1874	733.4993	65535	64650.15
833.3324	735.5867	65535	64650.6
833.4773	737.6735	65535	64648.7
833.6222	739.7596	65535	64648.65
833.7672	741.845	65535	64648.65
833.9122	743.9298	65535	64650.55
834.0571	746.014	65535	64648.25
834.2021	748.0974	65535	64647.6
834.347	750.1802	65535	64645.15
834.492	752.2624	65535	64649.15
834.637	754.3439	65535	64645.05
834.782	756.4247	65535	64639.15
834.9269	758.5048	65535	64647.2
835.0719	760.5843	65535	64647.95
835.2169	762.6631	65535	64647.8
835.3619	764.7413	65535	64646.7
835.5069	766.8188	65535	64645.55
835.6519	768.8956	65535	64643.7
835.7969	770.9718	65535	64646.35
835.9419	773.0473	65535	64646.8
836.0869	775.1221	65535	64645.2
836.232	777.1962	65535	64645.65
836.377	779.2697	65535	64645.05
836.522	781.3426	65535	64627.05
836.667	783.4147	65535	64645.25
836.8121	785.4862	65535	64646.4
836.9571	787.557	65535	64644.7
837.1021	789.6271	65535	64644.85
837.2472	791.6966	65535	64643.9
837.3922	793.7654	65535	64644.4
837.5373	795.8335	65535	64643.85
837.6823	797.901	65535	64644.7
837.8274	799.9678	65535	64643.65
837.9724	802.0339	65535	64646.95
838.1175	804.0993	65535	64636.4
838.2626	806.1641	65535	64642
838.4076	808.2282	65535	64644.35
838.5527	810.2916	65535	64641.5
838.6978	812.3544	65535	64648.8
838.8428	814.4164	65535	64647.1
838.9879	816.4778	65535	64643.2
839.133	818.5385	65535	64642.15
839.2781	820.5986	65535	64643.1
839.4232	822.658	65535	64642.4
839.5682	824.7166	65535	64642.2
839.7133	826.7747	65535	64641.9
839.8584	828.832	65535	64645.25
840.0035	830.8886	65535	64643.65
840.1486	832.9446	65535	64643.5
840.2937	834.9999	65535	64645
840.4388	837.0545	65535	64637.45
840.5839	839.1085	65535	64641.85
840.729	841.1618	65535	64640
840.8741	843.2143	65535	64642.2
841.0192	845.2662	65535	64642.35
841.1643	847.3175	65535	64645.3
841.3095	849.368	65535	64642.65
841.4546	851.4179	65535	64643.9
841.5997	853.467	65535	64642.5
841.7448	855.5155	65535	64639
841.8899	857.5633	65535	64640.65
842.0351	859.6105	65535	64642.5
842.1802	861.6569	65535	64641.05
842.3253	863.7027	65535	64641.9
842.4704	865.7478	65535	64640.6
842.6156	867.7922	65535	64641.45
842.7607	869.8359	65535	64639.6
842.9058	871.8789	65535	64639.05
843.0509	873.9212	65535	64608.45
843.1961	875.9629	65535	64640.3
843.3412	878.0039	65535	64641.15
843.4863	880.0441	65535	64644.25
843.6315	882.0837	65535	64639.5
843.7766	884.1226	65535	64640.3
843.9218	886.1609	65535	64639.7
844.0669	888.1984	65535	64641.05
844.212	890.2352	65535	64641.2
844.3572	892.2714	65535	64636.3
844.5023	894.3069	65535	64640.6
844.6475	896.3416	65535	64641.6
844.7926	898.3757	65535	64640.65
844.9377	900.4091	65535	64638.25
845.0829	902.4418	65535	64634.5
845.228	904.4739	65535	64638.05
845.3732	906.5052	65535	64638.8
845.5183	908.5358	65535	64639.65
845.6635	910.5658	65535	64638.8
845.8086	912.595	65535	64639.55
845.9538	914.6236	65535	64638
846.0989	916.6515	65535	64639.5
846.2441	918.6786	65535	64636.55
846.3892	920.7051	65535	64634.85
846.5344	922.7309	65535	64638.55
846.6795	924.756	65535	64639.1
846.8246	926.7804	65535	64637.75
846.9698	928.8041	65535	64632.15
847.1149	930.8272	65535	64637
847.2601	932.8495	65535	64638.5
847.4052	934.8711	65535	64639.15
847.5504	936.892	65535	64638.45
847.6955	938.9123	65535	64635.1
847.8407	940.9318	65535	64637.1
847.9858	942.9506	65535	64636.9
848.131	944.9688	65535	64635.25
848.2761	946.9862	65535	64638
848.4213	949.003	65535	64639.35
848.5664	951.019	65535	64636.8
848.7115	953.0344	65535	64636.1
848.8567	955.0491	65535	64637.8
849.0018	957.063	65535	64636.85
849.147	959.0763	65535	64637
849.2921	961.0888	65535	64636.8
849.4373	963.1007	65535	64637.85
849.5824	965.1119	65535	64638.4
849.7275	967.1223	65535	64639.45
849.8727	969.1321	65535	64639.65
850.0178	971.1412	65535	64639.35
850.1629	973.1495	65535	64637.7
850.3081	975.1572	65535	64604.75
850.4532	977.1641	65535	64637.2
850.5983	979.1704	65535	64636.85
850.7435	981.1759	65535	64634.65
850.8886	983.1808	65535	64636.5
851.0337	985.1849	65535	64627.3
851.1788	987.1884	65535	64635.15
851.324	989.1911	65535	64636.95
851.4691	991.1932	65535	64634.35
851.6142	993.1945	65535	64639.45
851.7593	995.1951	65535	64637.3
851.9045	997.1951	65535	64628.75
852.0496	999.1943	65535	64638.9
852.1947	1001.1928	65535	64638
852.3398	1003.1906	65535	64639.3
852.4849	1005.1877	65535	64637.45
852.63	1007.1841	65535	64637.4
852.7751	1009.1798	65535	64637.5
852.9202	1011.1748	65535	64639.6
853.0653	1013.1691	65535	64633.6
853.2104	1015.1627	65535	64637.15
853.3555	1017.1556	65535	64638.95
853.5006	1019.1477	65535	64634.6
853.6457	1021.1392	65535	64639.95
853.7908	1023.1299	65535	64639.65
853.9359	1025.12	65535	64635.85
854.081	1027.1093	65535	64640.2
854.2261	1029.0979	65535	64642.65
854.3712	1031.0859	65535	64638.25
854.5163	1033.0731	65535	64636.65
854.6613	1035.0596	65535	64638.85
854.8064	1037.0454	65535	64638.2
854.9515	1039.0304	65535	64635.05
855.0965	1041.0148	65535	64637.75
855.2416	1042.9985	65535	64635.15
855.3867	1044.9814	65535	64639.15
855.5317	1046.9636	65535	64636.8
855.6768	1048.9452	65535	64638.45
855.8219	1050.926	65535	64639
855.9669	1052.9061	65535	64638.95
856.112	1054.8855	65535	64636.6
856.257	1056.8642	65535	64635.15
856.4021	1058.8421	65535	64633.4
856.5471	1060.8194	65535	64634.25
856.6921	1062.7959	65535	64637.1
856.8372	1064.7717	65535	64636.7
856.9822	1066.7469	65535	64638.05
857.1272	1068.7213	65535	64635.2
857.2723	1070.695	65535	64637.95
857.4173	1072.6679	65535	64636.95
857.5623	1074.6402	65535	64635.25
857.7073	1076.6117	65535	64631.5
857.8523	1078.5826	65535	64636.5
857.9973	1080.5527	65535	64632.95
858.1423	1082.5221	65535	64635.55
858.2873	1084.4908	65535	64637.15
858.4323	1086.4587	65535	64636.8
858.5773	1088.426	65535	64637.85
858.7223	1090.3925	65535	64631.25
858.8673	1092.3584	65535	64638.45
859.0123	1094.3235	65535	64635.75
859.1573	1096.2879	65535	64637.25
859.3022	1098.2515	65535	64635.6
859.4472	1100.2145	65535	64635.3
859.5922	1102.1767	65535	64633.5
859.7371	1104.1382	65535	64637.05
859.8821	1106.099	65535	64634.9
860.027	1108.0591	65535	64635.3
860.172	1110.0185	65535	64634.1
860.3169	1111.9771	65535	64636.45
860.4619	1113.9351	65535	64638.05
860.6068	1115.8923	65535	64636.75
860.7517	1117.8488	65535	64634
860.8967	1119.8045	65535	64637.05
861.0416	1121.7596	65535	64635.85
861.1865	1123.7139	65535	64635.9
861.3314	1125.6675	65535	64638
861.4763	1127.6204	65535	64637.6
861.6212	1129.5726	65535	64633.9
861.7661	1131.524	65535	64638.85
861.911	1133.4748	65535	64639.25
862.0559	1135.4248	65535	64634.05
862.2008	1137.3741	65535	64634.65
862.3457	1139.3226	65535	64633.9
862.4905	1141.2705	65535	64636.6
862.6354	1143.2176	65535	64631.6
862.7803	1145.164	65535	64633.75
862.9251	1147.1097	65535	64637.25
863.07	1149.0546	65535	64637.15
863.2148	1150.9989	65535	64636.25
863.3597	1152.9424	65535	64635.1
863.5045	1154.8852	65535	64634.95
863.6493	1156.8272	65535	64636.85
863.7942	1158.7686	65535	64630.5
863.939	1160.7092	65535	64634.35
864.0838	1162.6491	65535	64633.8
864.2286	1164.5883	65535	64637.2
864.3734	1166.5267	65535	64634.9
864.5182	1168.4644	65535	64635.9
864.663	1170.4014	65535	64631.55
864.8078	1172.3377	65535	64638.95
864.9526	1174.2732	65535	64638.1
865.0974	1176.2081	65535	64637.55
865.2421	1178.1421	65535	64633.3
865.3869	1180.0755	65535	64638.4
865.5317	1182.0082	65535	64638.75
865.6764	1183.9401	65535	64635.1
865.8212	1185.8713	65535	64639.4
865.9659	1187.8017	65535	64635.7
866.1106	1189.7315	65535	64639.35
866.2554	1191.6605	65535	64609.7
866.4001	1193.5888	65535	64639
866.5448	1195.5163	65535	64638.65
866.6895	1197.4432	65535	64635.8
866.8342	1199.3693	65535	64636.8
866.9789	1201.2947	65535	64631.15
867.1236	1203.2193	65535	64636.7
867.2683	1205.1432	65535	64636.3
867.413	1207.0664	65535	64637.9
867.5576	1208.9889	65535	64635.4
867.7023	1210.9106	65535	64635.2
867.847	1212.8316	65535	64637.2
867.9916	1214.7519	65535	64628
868.1363	1216.6715	65535	64638.45
868.2809	1218.5903	65535	64637.45
868.4255	1220.5084	65535	64635.5
868.5701	1222.4257	65535	64634.2
868.7148	1224.3424	65535	64636.35
868.8594	1226.2583	65535	64630.85
869.004	1228.1735	65535	64635.55
869.1486	1230.0879	65535	64634.1
869.2932	1232.0016	65535	64636.3
869.4377	1233.9146	65535	64634.9
869.5823	1235.8269	65535	64637.95
869.7269	1237.7384	65535	64636.35
869.8715	1239.6492	65535	64638.05
870.016	1241.5592	65535	64636.05
870.1606	1243.4686	65535	64638.5
870.3051	1245.3772	65535	64636.3
870.4496	1247.285	65535	64635.95
870.5941	1249.1922	65535	64637.6
870.7387	1251.0986	65535	64638.05
870.8832	1253.0042	65535	64638.25
871.0277	1254.9092	65535	64638.3
871.1722	1256.8134	65535	64637.6
871.3167	1258.7169	65535	64636.7
871.4611	1260.6196	65535	64635.85
871.6056	1262.5216	65535	64633.65
871.7501	1264.4229	65535	64639.15
871.8945	1266.3234	65535	64637.4
872.039	1268.2232	65535	64636.8
872.1834	1270.1223	65535	64634.85
872.3278	1272.0207	65535	64637.05
872.4723	1273.9183	65535	64630.25
872.6167	1275.8151	65535	64637.3
872.7611	1277.7113	65535	64635.95
872.9055	1279.6067	65535	64636.9
873.0499	1281.5014	65535	64636.45
873.1943	1283.3953	65535	64634.55
873.3386	1285.2885	65535	64638.4
873.483	1287.181	65535	64634.9
873.6274	1289.0727	65535	64638.35
873.7717	1290.9637	65535	64636.65
873.9161	1292.854	65535	64638.55
874.0604	1294.7435	65535	64638.8
874.2047	1296.6323	65535	64636.1
874.349	1298.5204	65535	64632.6
874.4933	1300.4077	65535	64637.2
874.6376	1302.2943	65535	64638.65
874.7819	1304.1802	65535	64637.6
874.9262	1306.0653	65535	64636
875.0705	1307.9497	65535	64637.1
875.2147	1309.8333	65535	64637.45
875.359	1311.7162	65535	64638.1
875.5032	1313.5984	65535	64634.7
875.6475	1315.4798	65535	64636.8
875.7917	1317.3605	65535	64620.85
875.9359	1319.2405	65535	64636.7
876.0801	1321.1197	65535	64633.8
876.2243	1322.9982	65535	64629.8
876.3685	1324.876	65535	64637.8
876.5127	1326.753	65535	64636.15
876.6569	1328.6293	65535	64635.15
876.801	1330.5048	65535	64633
876.9452	1332.3796	65535	64639
877.0893	1334.2537	65535	64610.35
877.2335	1336.127	65535	64635.5
877.3776	1337.9996	65535	64634.6
877.5217	1339.8714	65535	64635.45
877.6658	1341.7426	65535	64592.65
877.8099	1343.6129	65535	64638
877.954	1345.4826	65535	64636.4
878.0981	1347.3515	65535	64633.25
878.2422	1349.2196	65535	64633.75
878.3862	1351.087	65535	64637.8
878.5303	1352.9537	65535	64634.65
878.6743	1354.8197	65535	64637.5
878.8184	1356.6849	65535	64634.55
878.9624	1358.5493	65535	64635.2
879.1064	1360.4131	65535	64636.1
879.2504	1362.276	65535	64637.5
879.3944	1364.1383	65535	64636.95
879.5384	1365.9998	65535	64631.6
879.6823	1367.8606	65535	64633.75
879.8263	1369.7206	65535	64639.7
879.9702	1371.5799	65535	64636.6
880.1142	1373.4384	65535	64637.15
880.2581	1375.2962	65535	64635.3
880.402	1377.1533	65535	64635.95
880.5459	1379.0096	65535	64633.6
880.6898	1380.8652	65535	64638.6
880.8337	1382.7201	65535	64638.65
880.9776	1384.5742	65535	64635.7
881.1215	1386.4275	65535	64636
881.2653	1388.2802	65535	64638.9
881.4092	1390.132	65535	64636.45
881.553	1391.9832	65535	64635.6
881.6968	1393.8336	65535	64635.95
881.8406	1395.6832	65535	64636
881.9844	1397.5322	65535	64634.85
882.1282	1399.3803	65535	64629.85
882.272	1401.2278	65535	64636.3
882.4158	1403.0745	65535	64638.35
882.5595	1404.9204	65535	64639.1
882.7033	1406.7656	65535	64636.55
882.847	1408.6101	65535	64635.7
882.9908	1410.4538	65535	64636.7
883.1345	1412.2968	65535	64636.65
883.2782	1414.139	65535	64637.1
883.4219	1415.9805	65535	64635.5
883.5656	1417.8213	65535	64630.55
883.7092	1419.6613	65535	64637.7
883.8529	1421.5006	65535	64637.25
883.9965	1423.3391	65535	64636.25
884.1402	1425.1769	65535	64634.7
884.2838	1427.0139	65535	64638.55
884.4274	1428.8502	65535	64637.3
884.571	1430.6858	65535	64636.9
884.7146	1432.5206	65535	64637.8
884.8582	1434.3547	65535	64636.85
885.0018	1436.188	65535	64636.85
885.1453	1438.0206	65535	64636.45
885.2889	1439.8524	65535	64637.85
885.4324	1441.6835	65535	64635.7
885.5759	1443.5139	65535	64633.35
885.7194	1445.3435	65535	64637.55
885.8629	1447.1724	65535	64638.35
886.0064	1449.0005	65535	64638
886.1499	1450.8279	65535	64635.35
886.2933	1452.6545	65535	64638.4
886.4368	1454.4804	65535	64638.7
886.5802	1456.3056	65535	64630.95
886.7237	1458.13	65535	64639.85
886.8671	1459.9536	65535	64639.05
887.0105	1461.7766	65535	64636.55
887.1539	1463.5987	65535	64637.5
887.2972	1465.4202	65535	64638.8
887.4406	1467.2409	65535	64636.05
887.584	1469.0608	65535	64638.9
887.7273	1470.88	65535	64635.7
887.8706	1472.6984	65535	64637.45
888.0139	1474.5161	65535	64635.65
888.1572	1476.3331	65535	64635.9
888.3005	1478.1493	65535	64640.55
888.4438	1479.9648	65535	64637.25
888.5871	1481.7795	65535	64637.35
888.7303	1483.5935	65535	64637.6
888.8736	1485.4067	65535	64636.4
889.0168	1487.2192	65535	64637.5
889.16	1489.031	65535	64634.75
889.3032	1490.842	65535	64636.8
889.4464	1492.6522	65535	64638.5
889.5896	1494.4618	65535	64636.3
889.7327	1496.2705	65535	64639.25
889.8759	1498.0785	65535	64636.1
890.019	1499.8858	65535	64636.1
890.1622	1501.6924	65535	64639.65
890.3053	1503.4981	65535	64639.95
890.4484	1505.3032	65535	64637.75
890.5914	1507.1075	65535	64637.55
890.7345	1508.911	65535	64638.25
890.8776	1510.7138	65535	64636.9
891.0206	1512.5159	65535	64637.55
891.1637	1514.3172	65535	64638.55
891.3067	1516.1178	65535	64638.5
891.4497	1517.9176	65535	64635.45
891.5927	1519.7166	65535	64641.3
891.7357	1521.515	65535	64632.8
891.8786	1523.3126	65535	64638.25
892.0216	1525.1094	65535	64635.65
892.1645	1526.9055	65535	64637.65
892.3074	1528.7008	65535	64639.1
892.4503	1530.4954	65535	64637.35
892.5932	1532.2893	65535	64639.85
892.7361	1534.0824	65535	64633.5
892.879	1535.8747	65535	64637.6
893.0218	1537.6663	65535	64637
893.1647	1539.4572	65535	64637.8
893.3075	1541.2473	65535	64639.85
893.4503	1543.0367	65535	64639.3
893.5931	1544.8253	65535	64635.35
893.7359	1546.6132	65535	64635.05
893.8787	1548.4003	65535	64628.25
894.0214	1550.1867	65535	64628.9
894.1642	1551.9723	65535	64633
894.3069	1553.7572	65535	64635.9
894.4496	1555.5414	65535	64638.95
894.5923	1557.3247	65535	64638.9
894.735	1559.1074	65535	64641
894.8777	1560.8893	65535	64641
895.0204	1562.6705	65535	64639.3
895.163	1564.4509	65535	64638.15
895.3056	1566.2305	65535	64639.6
895.4482	1568.0094	65535	64640.7
895.5908	1569.7876	65535	64639.6
895.7334	1571.565	65535	64640.6
895.876	1573.3417	65535	64639.6
896.0186	1575.1176	65535	64639.55
896.1611	1576.8928	65535	64639.8
896.3036	1578.6672	65535	64643.1
896.4461	1580.4409	65535	64642.8
896.5886	1582.2138	65535	64639.45
896.7311	1583.986	65535	64640.95
896.8736	1585.7575	65535	64639.65
897.0161	1587.5282	65535	64641.3
897.1585	1589.2981	65535	64639.85
897.3009	1591.0673	65535	64641.5
897.4433	1592.8358	65535	64641.55
897.5857	1594.6035	65535	64638.6
897.7281	1596.3704	65535	64639.6
897.8705	1598.1366	65535	64640.55
898.0128	1599.9021	65535	64641.65
898.1551	1601.6668	65535	64640.35
898.2975	1603.4308	65535	64638.6
898.4398	1605.194	65535	64636.55
898.5821	1606.9564	65535	64640.3
898.7243	1608.7182	65535	64637.85
898.8666	1610.4791	65535	64644.3
899.0088	1612.2394	65535	64644.4
899.1511	1613.9988	65535	64640.6
899.2933	1615.7576	65535	64641.85
899.4355	1617.5156	65535	64637
899.5776	1619.2728	65535	64639.75
899.7198	1621.0293	65535	64640.75
899.862	1622.785	65535	64637.7
900.0041	1624.54	65535	64640.1
900.1462	1626.2942	65535	64641.05
900.2883	1628.0477	65535	64639.65
900.4304	1629.8005	65535	64635.25
900.5725	1631.5525	65535	64642.15
900.7145	1633.3037	65535	64640.8
900.8566	1635.0542	65535	64640.7
900.9986	1636.804	65535	64640.5
901.1406	1638.553	65535	64552.4
901.2826	1640.3013	65535	64640.4
901.4245	1642.0488	65535	64641.75
901.5665	1643.7955	65535	64641.9
901.7085	1645.5416	65535	64643.55
901.8504	1647.2868	65535	64643.15
901.9923	1649.0313	65535	64644
902.1342	1650.7751	65535	64638.75
902.2761	1652.5181	65535	64640.8
902.4179	1654.2604	65535	64640.25
902.5598	1656.0019	65535	64642.5
902.7016	1657.7427	65535	64643.65
902.8434	1659.4828	65535	64642.2
902.9852	1661.222	65535	64639.4
903.127	1662.9606	65535	64642.6
903.2687	1664.6984	65535	64642.95
903.4105	1666.4354	65535	64641.35
903.5522	1668.1717	65535	64640.5
903.6939	1669.9072	65524.65	64631.6
903.8356	1671.642	65530.5	64635.95
903.9773	1673.3761	65527.1	64635.25
904.119	1675.1094	65523.35	64630.3
904.2606	1676.8419	65485	64592.1
904.4022	1678.5737	65519.2	64626.7
904.5439	1680.3048	65502.8	64607.85
904.6855	1682.0351	65476.7	64584.65
904.827	1683.7646	65446	64550.95
904.9686	1685.4934	65474.15	64583
905.1101	1687.2215	65356.55	64463.95
905.2517	1688.9488	65465.5	64575.5
905.3932	1690.6754	65230.4	64339.4
905.5347	1692.4012	65363.2	64473
905.6761	1694.1263	65406.85	64514.6
905.8176	1695.8506	65276.55	64383.1
905.9591	1697.5742	65305.7	64413.5
906.1005	1699.297	65264.65	64371.7
906.2419	1701.0191	65298.05	64405.8
906.3833	1702.7404	65171.9	64281
906.5246	1704.461	65146	64252.65
906.666	1706.1808	65235.15	64338.75
906.8073	1707.8999	65181.5	64289.65
906.9487	1709.6182	65161.75	64270.5
907.09	1711.3358	65150.4	64259.6
907.2313	1713.0527	65104.6	64213.65
907.3725	1714.7688	65118.3	64220.65
907.5138	1716.4841	64987.05	64093.25
907.655	1718.1987	65041.8	64145.25
907.7962	1719.9126	64995.8	64106.9
907.9374	1721.6257	65040.65	64146.4
908.0786	1723.338	65045	64153.75
908.2198	1725.0496	64864.15	63972.3
908.3609	1726.7605	64885	63993.05
908.502	1728.4706	64775.95	63883.1
908.6431	1730.18	64909.6	64015.05
908.7842	1731.8886	64792.1	63900.9
908.9253	1733.5964	64702.25	63805.2
909.0664	1735.3036	64877.4	63983.4
909.2074	1737.0099	64757.45	63865.35
909.3484	1738.7156	64640.25	63750
909.4894	1740.4204	64601.75	63707.4
909.6304	1742.1246	64635.05	63741.6
909.7714	1743.8279	64674.05	63782.4
909.9123	1745.5306	64615.2	63724.25
910.0532	1747.2325	64228.5	63338.15
910.1941	1748.9336	64262.4	63371.15
910.335	1750.634	64381.5	63487.55
910.4759	1752.3336	64475	63584.8
910.6168	1754.0325	64178.5	63289.1
910.7576	1755.7307	64488.35	63597.05
910.8984	1757.4281	64121.85	63230.55
911.0392	1759.1247	64371	63472.95
911.18	1760.8206	63965.85	63070
911.3208	1762.5158	64019.15	63124.1
911.4615	1764.2102	64123.3	63233.7
911.6022	1765.9039	64025.5	63134.15
911.7429	1767.5968	63931.8	63041.05
911.8836	1769.289	63858.6	62967.6
912.0243	1770.9804	63967.2	63077
912.1649	1772.6711	63830.1	62938.3
912.3056	1774.361	63783.45	62893
912.4462	1776.0502	63760.05	62868.1
912.5868	1777.7386	63319.65	62426.7
912.7274	1779.4263	63574.1	62682.3
912.8679	1781.1132	63574.8	62682.5
913.0084	1782.7994	63475.95	62584.15
913.149	1784.4849	63502.85	62611.85
913.2895	1786.1696	62882.7	61986
913.4299	1787.8535	63280.75	62390.5
913.5704	1789.5367	63344.15	62451
913.7108	1791.2192	62957.55	62065.7
913.8513	1792.9009	62688.45	61766.15
913.9917	1794.5818	63026.45	62133.25
914.132	1796.2621	62653.95	61764.6
914.2724	1797.9415	62749.15	61858.2
914.4128	1799.6202	62695.65	61806.15
914.5531	1801.2982	62713.35	61823.8
914.6934	1802.9755	62216.25	61323.7
914.8337	1804.6519	62007.75	61117.4
914.9739	1806.3277	62768.4	61878.9
915.1142	1808.0027	61652.4	60759.55
915.2544	1809.6769	62073.85	61182.4
915.3946	1811.3504	62158.35	61265.8
915.5348	1813.0231	61196.25	60304.95
915.675	1814.6951	61844.75	60953.8
915.8151	1816.3664	61428.05	60535.6
915.9553	1818.0369	61415.95	60524.1
916.0954	1819.7067	61151.05	60260.8
916.2355	1821.3757	61762.4	60870.15
916.3755	1823.044	60965.35	60073.4
916.5156	1824.7115	60481.5	59590.15
916.6556	1826.3783	60695.8	59806.05
916.7956	1828.0443	60775.9	59885.95
916.9356	1829.7096	60485.35	59592.1
917.0756	1831.3741	59728.2	58833.15
917.2155	1833.0379	60150.5	59259.95
917.3555	1834.701	60146.6	59253.6
917.4954	1836.3633	59593.15	58699.45
917.6353	1838.0248	59920.85	59029.15
917.7751	1839.6856	59782.25	58890.7
917.915	1841.3457	59222.2	58332.55
918.0548	1843.005	59877.85	58987.05
918.1946	1844.6636	59474.25	58586.2
918.3344	1846.3214	58644.85	57753.8
918.4742	1847.9785	58862.8	57972.55
918.6139	1849.6349	58711.85	57820.6
918.7537	1851.2904	59363.75	58462.5
918.8934	1852.9453	58427.4	57535.5
919.0331	1854.5994	58775.8	57883.1
919.1727	1856.2528	58759.85	57863.35
919.3124	1857.9054	58182.55	57291.5
919.452	1859.5572	57930.6	57039.95
919.5916	1861.2083	58188.25	57295.55
919.7312	1862.8587	58772.95	57881
919.8708	1864.5084	57195.1	56304.05
920.0103	1866.1572	57857.6	56969.15
920.1498	1867.8054	57082	56191
920.2893	1869.4528	57528.95	56638.85
920.4288	1871.0994	56925.65	56035.2
920.5683	1872.7453	56899.1	56008.15
920.7077	1874.3905	57213.1	56316.25
920.8471	1876.0349	56604.85	55712.35
920.9865	1877.6786	56977.55	56087.15
921.1259	1879.3215	56416.85	55526.85
921.2653	1880.9637	56982.35	56092.1
921.4046	1882.6051	56391.8	55500.95
921.5439	1884.2458	56169.3	55277.9
921.6832	1885.8858	55830.05	54938.25
921.8225	1887.525	55971.95	55080
921.9617	1889.1634	55797.25	54905.8
922.101	1890.8011	55551.9	54660.55
922.2402	1892.4381	54927.15	54037.3
922.3794	1894.0743	55623.05	54732.4
922.5185	1895.7098	55184.35	54293.3
922.6577	1897.3446	54771.1	53880.05
922.7968	1898.9786	54852.4	53957.95
922.9359	1900.6118	54554.35	53663.85
923.075	1902.2443	54232.9	53340.75
923.214	1903.8761	54595.45	53705.35
923.3531	1905.5071	54129.1	53237.25
923.4921	1907.1374	53452.05	52560.9
923.6311	1908.7669	53721.8	52831.45
923.77	1910.3957	53949.8	53057.8
923.909	1912.0237	53379.2	52489.5
924.0479	1913.651	53128.7	52236.4
924.1868	1915.2776	52938.55	52049.5
924.3257	1916.9034	52891.5	52003.1
924.4646	1918.5285	52627.45	51738.05
924.6034	1920.1528	52555.8	51665.85
924.7422	1921.7764	52372.75	51482.4
924.881	1923.3992	52248.3	51359.45
925.0198	1925.0213	51866	50976.35
925.1586	1926.6427	51456.2	50566.25
925.2973	1928.2633	51642.6	50672.45
925.436	1929.8832	51413.85	50520.75
925.5747	1931.5023	51259.8	50368.7
925.7134	1933.1207	50912.35	50021.9
925.852	1934.7383	51058.3	50169.05
925.9906	1936.3552	50649.3	49758.85
926.1292	1937.9714	50595.15	49703.9
926.2678	1939.5868	50549.15	49657.45
926.4064	1941.2015	50048.5	49157.3
926.5449	1942.8154	49785.05	48895.35
926.6834	1944.4286	49735.25	48844.7
926.8219	1946.041	49609.85	48701.25
926.9604	1947.6528	49345.7	48450.35
927.0988	1949.2637	49168.5	48278.5
927.2372	1950.8739	49007.3	48117.25
927.3756	1952.4834	48997.7	48108.3
927.514	1954.0921	48853.3	47962.55
927.6523	1955.7001	48560.95	47667.85
927.7907	1957.3074	48535	47644.15
927.929	1958.9139	48191.85	47302.4
928.0673	1960.5197	48166.9	47273.7
928.2055	1962.1247	47921.55	47031.75
928.3438	1963.729	47692.25	46801.55
928.482	1965.3325	47545.25	46632
928.6202	1966.9353	47441.25	46551.95
928.7584	1968.5374	47209.6	46319.85
928.8965	1970.1387	47054.1	46163.05
929.0346	1971.7393	47017.85	46128.35
929.1727	1973.3392	46803.35	45913.6
929.3108	1974.9383	46579.1	45691.3
929.4489	1976.5366	46365.85	45478.55
929.5869	1978.1342	46339.35	45447.9
929.7249	1979.7311	46204.9	45315.85
929.8629	1981.3273	46074.45	45184.95
930.0009	1982.9227	45863.8	44971.85
930.1388	1984.5173	45705.7	44816.7
930.2767	1986.1112	45515.05	44627.5
930.4146	1987.7044	45467.85	44580.5
930.5525	1989.2968	45169.15	44278.05
930.6904	1990.8885	45153.05	44260
930.8282	1992.4795	45053.6	44161.5
930.966	1994.0697	44834.4	43945.05
931.1038	1995.6592	44720.7	43832.75
931.2415	1997.2479	44563.7	43672.75
931.3793	1998.8359	44407.9	43518.45
931.517	2000.4232	44239.05	43351.45
931.6547	2002.0097	44095.95	43208.4
931.7923	2003.5955	43859.75	42969.85
931.93	2005.1805	43813.7	42921.65
932.0676	2006.7648	43767.85	42877.05
932.2052	2008.3484	43581.55	42690.75
932.3427	2009.9312	43558.75	42667.05
932.4803	2011.5133	43346.6	42455.45
932.6178	2013.0946	43227.7	42339.2
932.7553	2014.6752	43116.95	42230
932.8928	2016.2551	43028.6	42137.45
933.0302	2017.8342	42812.9	41923.65
933.1676	2019.4126	42608.7	41720.3
933.305	2020.9902	42431.05	41541.5
933.4424	2022.5672	42391.7	41501.4
933.5798	2024.1433	42283.75	41390.2
933.7171	2025.7188	42166.95	41280.5
933.8544	2027.2935	41961.95	41071.55
933.9917	2028.8674	41799.8	40911.1
934.129	2030.4406	41732.85	40844.95
934.2662	2032.0131	41563.3	40675.4
934.4034	2033.5849	41363.6	40467.9
934.5406	2035.1559	41274.15	40383.4
934.6778	2036.7261	41260.35	40372.05
934.8149	2038.2957	41110.1	40221.55
934.952	2039.8645	40995.05	40106.5
935.0891	2041.4325	41023.7	40130.55
935.2262	2042.9998	40791.55	39904
935.3632	2044.5664	40724.6	39832
935.5002	2046.1323	40564.05	39675.85
935.6372	2047.6974	40420.15	39532.1
935.7742	2049.2617	40326.7	39438.9
935.9111	2050.8254	40340.35	39447.35
936.048	2052.3883	40225.65	39334.95
936.1849	2053.9504	40062.65	39174.7
936.3218	2055.5118	39933.75	39042.85
936.4586	2057.0725	39750.3	38857.1
936.5955	2058.6325	39657.45	38768.7
936.7323	2060.1917	39499.95	38611.3
936.869	2061.7502	39365.35	38472.95
937.0058	2063.3079	39269.8	38382.2
937.1425	2064.8649	39128.7	38238.25
937.2792	2066.4212	38992	38103.35
937.4159	2067.9767	38912.05	38022.8
937.5525	2069.5315	38715.4	37825.3
937.6891	2071.0856	38557.95	37669.6
937.8257	2072.6389	38495.15	37605.5
937.9623	2074.1915	38242.85	37354.9
938.0989	2075.7433	37996.3	37105
938.2354	2077.2945	37982.65	37095.8
938.3719	2078.8448	37929.65	37041.05
938.5084	2080.3945	37743	36853.55
938.6448	2081.9434	37666.45	36779.35
938.7812	2083.4916	37558.4	36668.4
938.9176	2085.039	37399.35	36508.1
939.054	2086.5857	37329.05	36438.55
939.1903	2088.1317	37257.45	36366.9
939.3267	2089.677	37127.3	36237
939.463	2091.2215	37024.95	36134.2
939.5992	2092.7652	36898.15	36007.85
939.7355	2094.3083	36829.1	35940.2
939.8717	2095.8506	36725.35	35836.25
940.0079	2097.3921	36724.5	35836.05
940.1441	2098.933	36548.4	35660.95
940.2802	2100.4731	36457.3	35568.65
940.4163	2102.0124	36435.95	35538.8
940.5524	2103.5511	36320.5	35430.2
940.6885	2105.089	36194.05	35306.75
940.8245	2106.6261	36078.8	35192.15
940.9606	2108.1626	36008.8	35118.05
941.0965	2109.6983	35912.1	34993.85
941.2325	2111.2332	35782.85	34892.55
941.3684	2112.7675	35679.45	34788.25
941.5044	2114.301	35563.05	34672.05
941.6403	2115.8337	35546.45	34657.9
941.7761	2117.3657	35404.05	34514.95
941.912	2118.897	35297.05	34406.8
942.0478	2120.4276	35258.45	34361.95
942.1835	2121.9575	35066.85	34178.95
942.3193	2123.4866	35100.2	34196.7
942.455	2125.0149	34884.75	33992.8
942.5907	2126.5426	34708.8	33820.45
942.7264	2128.0695	34633.45	33740.85
942.8621	2129.5956	34566	33679.8
942.9977	2131.1211	34474.65	33581.6
943.1333	2132.6458	34390.5	33501.3
943.2689	2134.1698	34341.75	33453.65
943.4044	2135.693	34187.05	33295.85
943.54	2137.2155	34156.1	33263.2
943.6755	2138.7373	34018.95	33130.9
943.8109	2140.2584	33901.2	33012
943.9464	2141.7787	33826.15	32931.05
944.0818	2143.2983	33631.35	32742.75
944.2172	2144.8171	33463.7	32577.2
944.3526	2146.3353	33374.65	32484.4
944.4879	2147.8527	33240.4	32352.35
944.6232	2149.3693	33246.8	32359.15
944.7585	2150.8853	33103	32212.5
944.8938	2152.4005	32907.15	32017.85
945.029	2153.9149	32880.7	31990.4
945.1642	2155.4287	32772.35	31884.6
945.2994	2156.9417	32699	31808.8
945.4346	2158.454	32598.3	31705.8
945.5697	2159.9655	32527.95	31638.55
945.7048	2161.4764	32484.3	31595.45
945.8399	2162.9865	32329.3	31440.2
945.9749	2164.4958	32254.25	31363.6
946.1099	2166.0045	32157.6	31264.15
946.2449	2167.5124	32131.25	31242.6
946.3799	2169.0195	32006.8	31116.5
946.5148	2170.526	31943.6	31052.15
946.6498	2172.0317	31800.5	30910.65
946.7846	2173.5367	31740.45	30851.75
946.9195	2175.0409	31667.95	30778.65
947.0543	2176.5445	31635.05	30746.65
947.1891	2178.0473	31482.75	30592.65
947.3239	2179.5494	31306.95	30414.95
947.4587	2181.0507	31227.9	30338.25
947.5934	2182.5513	31135.4	30247.15
947.7281	2184.0512	31067.2	30173.75
947.8628	2185.5504	30961.5	30073.75
947.9974	2187.0488	30787.9	29898.1
948.132	2188.5465	30682.65	29792.9
948.2666	2190.0435	30600.65	29708.7
948.4012	2191.5397	30462.7	29574.35
948.5357	2193.0353	30374.3	29484.5
948.6702	2194.5301	30218.65	29327.4
948.8047	2196.0241	30124.55	29233.2
948.9392	2197.5175	30053.25	29165.15
949.0736	2199.0101	29893.65	28999.7
949.208	2200.502	29773.4	28884.8
949.3424	2201.9931	29643.7	28754.4
949.4767	2203.4835	29539.6	28648.95
949.611	2204.9733	29524.55	28630.3
949.7453	2206.4622	29407.95	28518.4
949.8796	2207.9505	29291.05	28399.5
950.0138	2209.438	29147.35	28261.05
950.148	2210.9248	29038.9	28149.4
950.2822	2212.4109	28985.35	28098.6
950.4164	2213.8962	28873.2	27981.25
950.5505	2215.3809	28785.85	27895.4
950.6846	2216.8648	28671.75	27781.7
950.8186	2218.3479	28620.5	27726.3
950.9527	2219.8304	28501.3	27609.45
951.0867	2221.3121	28383.4	27492.65
951.2207	2222.7931	28297.7	27408.2
951.3546	2224.2733	28197.6	27307.95
951.4886	2225.7529	28073.5	27183.9
951.6225	2227.2317	27998.75	27108.3
951.7563	2228.7098	27960.1	27070.4
951.8902	2230.1872	27785.45	26896.1
952.024	2231.6638	27750.4	26861.65
952.1578	2233.1397	27606.9	26712.05
952.2916	2234.6149	27588.35	26700.5
952.4253	2236.0894	27454.65	26564.55
952.559	2237.5632	27412.1	26521.35
952.6927	2239.0362	27235.3	26345.2
952.8263	2240.5085	27185.35	26297.35
952.9599	2241.9801	27092.3	26201.55
953.0935	2243.4509	26987.4	26096.15
953.2271	2244.921	26931	26040.15
953.3606	2246.3904	26780.15	25888.25
953.4941	2247.8591	26719.3	25831.15
953.6276	2249.3271	26630.05	25742.45
953.7611	2250.7943	26524.15	25636
953.8945	2252.2608	26428.35	25539.75
954.0279	2253.7266	26352.6	25464.55
954.1612	2255.1917	26285.55	25395.75
954.2946	2256.656	26163.95	25274.5
954.4279	2258.1197	26130.5	25240.45
954.5612	2259.5826	26024.05	25133.05
954.6944	2261.0447	25994.9	25104.65
954.8276	2262.5062	25862.6	24972.15
954.9608	2263.9669	25807.75	24917.25
955.094	2265.4269	25764.4	24874.9
955.2271	2266.8862	25624.55	24734.6
955.3602	2268.3448	25550.65	24659.9
955.4933	2269.8026	25552.1	24662.65
955.6264	2271.2598	25452.3	24563.35
955.7594	2272.7162	25362.85	24474.4
955.8924	2274.1719	25283.9	24395.2
956.0253	2275.6268	25219.4	24330.35
956.1583	2277.0811	25169.8	24279.7
956.2912	2278.5346	25089.25	24200.9
956.4241	2279.9874	25018.45	24129.45
956.5569	2281.4395	24992.6	24105.05
956.6897	2282.8908	24861.65	23967.35
956.8225	2284.3414	24819.5	23928.5
956.9553	2285.7914	24736.9	23848.1
957.088	2287.2406	24609.55	23718.65
957.2207	2288.689	24576.3	23686.75
957.3534	2290.1368	24486.8	23597.05
957.486	2291.5838	24412.15	23519.05
957.6186	2293.0302	24330.2	23439
957.7512	2294.4758	24204.4	23314.95
957.8838	2295.9206	24105.55	23213.45
958.0163	2297.3648	24043.8	23154.4
958.1488	2298.8082	24042.55	23152.2
958.2813	2300.251	23952.15	23063.15
958.4137	2301.693	23843.1	22951.1
958.5461	2303.1343	23787.35	22897
958.6785	2304.5748	23724.85	22835.5
958.8108	2306.0147	23637.65	22747
958.9432	2307.4538	23578.75	22687.55
959.0754	2308.8922	23476.55	22587.85
959.2077	2310.3299	23399	22508.65
959.3399	2311.7669	23320.95	22433.1
959.4721	2313.2031	23264.8	22377
959.6043	2314.6387	23170.7	22279.7
959.7365	2316.0735	23096.95	22208.55
959.8686	2317.5076	23081.05	22190.85
960.0006	2318.941	22954.85	22064.5
960.1327	2320.3737	22914.7	22023.85
960.2647	2321.8056	22858.7	21969
960.3967	2323.2369	22721.2	21830.3
960.5287	2324.6674	22693.45	21800.6
960.6606	2326.0972	22565.4	21673.9
960.7925	2327.5263	22513.65	21624.9
960.9244	2328.9547	22447.95	21557.6
961.0562	2330.3823	22379.45	21488.95
961.1881	2331.8092	22335.5	21441.7
961.3198	2333.2355	22217.3	21328.15
961.4516	2334.661	22197.4	21308.5
961.5833	2336.0858	22152.45	21260.65
961.715	2337.5098	22075	21185.7
961.8467	2338.9332	22042.9	21152.1
961.9783	2340.3558	21919.75	21028.15
962.1099	2341.7778	21857.4	20968.15
962.2415	2343.199	21783.2	20891.7
962.373	2344.6195	21707.7	20819.3
962.5045	2346.0393	21638.45	20750.4
962.636	2347.4583	21580.75	20691.3
962.7675	2348.8767	21498.4	20606.75
962.8989	2350.2943	21439.75	20549.9
963.0303	2351.7113	21418.45	20528.6
963.1617	2353.1275	21320.9	20431.4
963.293	2354.543	21266.1	20369.5
963.4243	2355.9578	21181.65	20292
963.5556	2357.3718	21054.7	20165
963.6868	2358.7852	21003.2	20109.5
963.818	2360.1978	20889.5	19999.1
963.9492	2361.6098	20872.65	19984.85
964.0803	2363.021	20782.65	19891
964.2114	2364.4315	20740.95	19851.95
964.3425	2365.8413	20690.5	19799.75
964.4736	2367.2504	20600.55	19712.55
964.6046	2368.6587	20456.35	19565.75
964.7356	2370.0664	20403.65	19515.7
964.8666	2371.4733	20334.25	19444.95
964.9975	2372.8795	20283.6	19395.9
965.1284	2374.285	20222.2	19333.55
965.2593	2375.6899	20096.8	19208.45
965.3901	2377.0939	19939.3	19050.4
965.5209	2378.4973	19918.7	19029.1
965.6517	2379.9	19861.6	18972.65
965.7825	2381.3019	19800.85	18912.15
965.9132	2382.7032	19733.85	18847
966.0439	2384.1037	19686	18798.05
966.1745	2385.5035	19586.6	18698
966.3051	2386.9027	19551	18663.25
966.4357	2388.3011	19463	18571.25
966.5663	2389.6987	19439.35	18549.2
966.6968	2391.0957	19347.85	18460.3
966.8273	2392.492	19285.05	18397.7
966.9578	2393.8876	19159.35	18270
967.0882	2395.2824	19051.55	18163.05
967.2186	2396.6765	18977.55	18088.7
967.349	2398.07	18913.85	18025.35
967.4793	2399.4627	18898.05	18006.9
967.6097	2400.8547	18823.75	17933.1
967.7399	2402.246	18758.7	17863.35
967.8702	2403.6366	18648.65	17760.6
968.0004	2405.0265	18597.15	17708.65
968.1306	2406.4156	18526.15	17633.85
968.2607	2407.8041	18430	17538.8
968.3909	2409.1918	18356.7	17465.9
968.521	2410.5789	18280.1	17391.05
968.651	2411.9652	18208.55	17316.5
968.781	2413.3508	18163.9	17274.55
968.911	2414.7358	18064.6	17175.5
969.041	2416.12	17982.9	17094.15
969.1709	2417.5035	17933.2	17045.8
969.3008	2418.8863	17918	17029.95
969.4307	2420.2684	17842.7	16954.6
969.5606	2421.6497	17766.55	16876.2
969.6904	2423.0304	17652.25	16765.05
969.8201	2424.4104	17609.45	16720.3
969.9499	2425.7896	17542.45	16650.45
970.0796	2427.1682	17494.55	16605.55
970.2093	2428.546	17440.85	16550.45
970.3389	2429.9232	17372.2	16482.55
970.4685	2431.2996	17385.4	16496.05
970.5981	2432.6753	17321.75	16432.9
970.7277	2434.0503	17269.2	16379.75
970.8572	2435.4246	17172.85	16286.1
970.9867	2436.7982	17081.7	16192.55
971.1161	2438.1711	17057.35	16168.7
971.2456	2439.5433	17001.4	16114.5
971.375	2440.9148	16921	16026.25
971.5043	2442.2856	16868.6	15981.6
971.6336	2443.6557	16811.6	15922.2
971.7629	2445.025	16750.4	15861.15
971.8922	2446.3937	16728.4	15840.35
972.0214	2447.7617	16602.95	15713.3
972.1506	2449.1289	16633.1	15745.75
972.2798	2450.4955	16552.75	15658.55
972.4089	2451.8613	16499.8	15611.7
972.538	2453.2265	16491.85	15602.85
972.6671	2454.5909	16430.5	15539.5
972.7961	2455.9546	16379.3	15491.25
972.9251	2457.3177	16277.3	15389.05
973.0541	2458.68	16256.35	15365.25
973.1831	2460.0416	16238.3	15348.15
973.312	2461.4025	16170.25	15278.55
973.4408	2462.7627	16143.5	15243.5
973.5697	2464.1222	16082	15193.75
973.6985	2465.4811	16015.5	15126.9
973.8273	2466.8392	15936.45	15047.8
973.956	2468.1966	15924.1	15033.3
974.0847	2469.5533	15905.6	15012.95
974.2134	2470.9093	15838.3	14949
974.3421	2472.2645	15778.45	14888.8
974.4707	2473.6191	15727.75	14839.7
974.5993	2474.973	15686.45	14797.9
974.7278	2476.3262	15605.6	14718.2
974.8563	2477.6787	15557.65	14669.95
974.9848	2479.0305	15472.65	14582.1
975.1132	2480.3816	15449.9	14559.85
975.2417	2481.7319	15349.45	14461.9
975.37	2483.0816	15315.1	14426.85
975.4984	2484.4306	15257.4	14368.65
975.6267	2485.7789	15210.55	14322.1
975.755	2487.1264	15144.15	14254.85
975.8833	2488.4733	15077.2	14190.15
976.0115	2489.8195	15008.7	14110.75
976.1397	2491.165	14984.85	14092.35
976.2678	2492.5097	14899.8	14009.55
976.3959	2493.8538	14833.4	13945.45
976.524	2495.1972	14764.95	13876.7
976.6521	2496.5398	14686.85	13797.45
976.7801	2497.8818	14657.8	13767.3
976.9081	2499.2231	14631.85	13742.25
977.036	2500.5637	14552.85	13663.35
977.164	2501.9035	14498.95	13607.75
977.2918	2503.2427	14486.95	13594.5
977.4197	2504.5812	14441.4	13552.6
977.5475	2505.919	14407.15	13515.8
977.6753	2507.256	14352.65	13464
977.8031	2508.5924	14270.65	13382.35
977.9308	2509.9281	14225.3	13331.95
978.0585	2511.2631	14187.95	13299.2
978.1861	2512.5974	14157.65	13270.7
978.3137	2513.9309	14084.05	13194.65
978.4413	2515.2638	14019.8	13105.55
978.5689	2516.596	14012.5	13123.95
978.6964	2517.9275	13916.35	13026.6
978.8239	2519.2583	13895.1	13006.2
978.9513	2520.5884	13827.25	12937.75
979.0788	2521.9178	13770.8	12880.85
979.2062	2523.2465	13729.65	12841.1
979.3335	2524.5745	13661	12771.2
979.4608	2525.9018	13617.4	12730.2
979.5881	2527.2284	13577.9	12690.95
979.7154	2528.5543	13575.25	12687.25
979.8426	2529.8796	13547.8	12655.95
979.9698	2531.2041	13504.55	12615.5
980.0969	2532.5279	13436.8	12549.25
980.224	2533.851	13389.85	12501.35
980.3511	2535.1735	13374.5	12486.4
980.4781	2536.4952	13331.85	12443.35
980.6052	2537.8163	13262.05	12371.65
980.7321	2539.1366	13231.3	12342.65
980.8591	2540.4562	13181.2	12289.7
980.986	2541.7752	13210.95	12321.45
981.1129	2543.0935	13152.45	12263.05
981.2397	2544.411	13131.2	12242.8
981.3665	2545.7279	13082.15	12194.85
981.4933	2547.0441	13090.85	12201.95
981.62	2548.3596	13068.6	12175.85
981.7467	2549.6744	12982.7	12093.9
981.8734	2550.9885	12960.65	12065.15
982.0001	2552.3019	12921.45	12033.45
982.1267	2553.6146	12925.2	12037.1
982.2532	2554.9266	12866.55	11978.4
982.3798	2556.2379	12800.6	11909.8
982.5063	2557.5485	12754.15	11866.5
982.6327	2558.8585	12724	11827.05
982.7592	2560.1677	12693.3	11797.95
982.8856	2561.4762	12666.1	11776.05
983.0119	2562.7841	12670.3	11779.5
983.1383	2564.0913	12630.9	11742.65
983.2646	2565.3977	12568.8	11681.3
983.3908	2566.7035	12545.3	11658.65
983.517	2568.0086	12539.3	11647.7
983.6432	2569.313	12495.05	11605.9
983.7694	2570.6167	12497.45	11606.85
983.8955	2571.9197	12441.45	11552.05
984.0216	2573.222	12425.15	11533
984.1476	2574.5236	12402.2	11512.95
984.2737	2575.8246	12335.75	11445
984.3996	2577.1248	12329.35	11437.65
984.5256	2578.4244	12273.8	11385.65
984.6515	2579.7232	12279.3	11391.05
984.7774	2581.0214	12272.05	11356.6
984.9032	2582.3189	12192.4	11303.85
985.029	2583.6157	12161.95	11268.6
985.1548	2584.9118	12163.7	11275.6
985.2806	2586.2072	12105.3	11216.8
985.4063	2587.5019	12063.7	11176.6
985.5319	2588.7959	12032.95	11143.6
985.6576	2590.0893	12035.9	11145.2
985.7832	2591.3819	11993.4	11104.4
985.9087	2592.6739	11907.05	11018.2
986.0343	2593.9652	11904.5	11014
986.1597	2595.2557	11865.95	10975.4
986.2852	2596.5456	11807.7	10915.85
986.4106	2597.8348	11753.25	10866.55
986.536	2599.1234	11695.8	10807.7
986.6614	2600.4112	11698.5	10810.15
986.7867	2601.6983	11637.65	10746
986.912	2602.9848	11596.9	10707.2
987.0372	2604.2705	11534.05	10638.35
987.1624	2605.5556	11509.6	10618.6
987.2876	2606.84	11476.7	10589.8
987.4128	2608.1237	11434.05	10545.2
987.5379	2609.4067	11369.75	10481.2
987.6629	2610.689	11358.35	10460.3
987.788	2611.9707	11294.9	10403.8
987.913	2613.2516	11258.15	10365.15
988.0379	2614.5319	11197.55	10308.25
988.1629	2615.8115	11158.25	10269.75
988.2878	2617.0903	11137.8	10246.95
988.4126	2618.3685	11081	10190.85
988.5375	2619.6461	11042.65	10153.5
988.6622	2620.9229	10985.6	10097.6
988.787	2622.199	10982.25	10092.05
988.9117	2623.4745	10955.85	10067.15
989.0364	2624.7493	10934.6	10044.75
989.161	2626.0234	10844.5	9956.6
989.2857	2627.2968	10790.5	9902.1
989.4102	2628.5695	10759.85	9870.55
989.5348	2629.8415	10705.55	9816.5
989.6593	2631.1128	10698.1	9807.45
989.7837	2632.3835	10651.95	9762.8
989.9082	2633.6535	10584.2	9693.55
990.0326	2634.9228	10559.1	9670.2
990.1569	2636.1914	10532.95	9644.85
990.2812	2637.4593	10499.2	9608.2
990.4055	2638.7265	10455.35	9565.35
990.5298	2639.9931	10436.5	9547.25
990.654	2641.259	10390.35	9499.6
990.7782	2642.5242	10369.85	9479.85
990.9023	2643.7887	10332.3	9443.75
991.0264	2645.0525	10323.85	9434.75
991.1505	2646.3156	10244.1	9355.2
991.2745	2647.5781	10212.2	9325.05
991.3985	2648.8398	10197.2	9310.9
991.5225	2650.1009	10155.9	9258.75
991.6464	2651.3613	10117.6	9228.6
991.7703	2652.6211	10087.25	9201.25
991.8942	2653.8801	10058.05	9169.9
992.018	2655.1385	10024.1	9132.45
992.1418	2656.3961	10001.1	9111.7
992.2655	2657.6531	9981.05	9092
992.3892	2658.9094	9973.05	9083.15
992.5129	2660.1651	9925.95	9039.15
992.6366	2661.42	9893.85	9004.6
992.7602	2662.6743	9894.85	9004.2
992.8837	2663.9279	9863	8974.9
993.0073	2665.1808	9796.9	8907.65
993.1307	2666.433	9777.9	8888.1
993.2542	2667.6846	9740.35	8853.45
993.3776	2668.9354	9744.2	8851
993.501	2670.1856	9683.85	8793.4
993.6244	2671.4351	9669.45	8780.25
993.7477	2672.6839	9667.75	8777.55
993.8709	2673.9321	9614.1	8727.2
993.9942	2675.1795	9594	8705.9
994.1174	2676.4263	9552.6	8666.05
994.2405	2677.6724	9528.4	8641.65
994.3637	2678.9179	9491.8	8601.65
994.4868	2680.1626	9459.9	8569.75
994.6098	2681.4067	9447.8	8557.9
994.7328	2682.6501	9424.35	8535.35
994.8558	2683.8928	9378.55	8491.4
994.9788	2685.1348	9359.2	8470.75
995.1017	2686.3761	9318	8429
995.2245	2687.6168	9261.7	8374.5
995.3474	2688.8568	9242.65	8354.05
995.4702	2690.0961	9213.9	8328.55
995.5929	2691.3348	9172.5	8282.35
995.7156	2692.5727	9181.75	8292.65
995.8383	2693.81	9125.25	8235.4
995.961	2695.0466	9091.65	8205.15
996.0836	2696.2826	9073.3	8183.55
996.2062	2697.5178	9046.3	8155.9
996.3287	2698.7524	9013	8123.75
996.4512	2699.9863	8979.9	8088.8
996.5737	2701.2195	8950.85	8063.85
996.6961	2702.452	8938.6	8050.1
996.8185	2703.6839	8918.8	8027.4
996.9408	2704.9151	8868.45	7979.5
997.0631	2706.1456	8838.85	7950.8
997.1854	2707.3755	8811.9	7925.6
997.3077	2708.6046	8797.25	7905.4
997.4299	2709.8331	8788.2	7899.1
997.552	2711.0609	8736.3	7848.95
997.6742	2712.2881	8701.5	7814.65
997.7963	2713.5145	8682.3	7792.45
997.9183	2714.7403	8672.65	7783.65
998.0403	2715.9654	8655	7764.65
998.1623	2717.1899	8639.7	7737.35
998.2842	2718.4136	8619.55	7729.55
998.4062	2719.6367	8589.1	7699.35
998.528	2720.8591	8565.2	7669.55
998.6498	2722.0809	8524.1	7635.35
998.7716	2723.3019	8504.7	7613.75
998.8934	2724.5223	8493.45	7603
999.0151	2725.7421	8452.2	7561.95
999.1368	2726.9611	8419.7	7529.6
999.2584	2728.1795	8421.6	7529.75
999.38	2729.3972	8377.2	7487.65
999.5016	2730.6142	8327.7	7429.6
999.6231	2731.8306	8264.8	7374
999.7446	2733.0462	8244.4	7353.45
999.8661	2734.2612	8202	7306.5
999.9875	2735.4756	8163.5	7274.05
1000.1089	2736.6892	8116.9	7228.6
1000.2302	2737.9022	8084.75	7196.5
1000.3515	2739.1145	8037.45	7148.85
1000.4728	2740.3262	7990.4	7094.65
1000.594	2741.5372	7943.95	7056.7
1000.7152	2742.7475	7922.5	7033.5
1000.8363	2743.9571	7872.65	6982.5
1000.9575	2745.1661	7850.9	6957.1
1001.0785	2746.3744	7814.4	6925.5
1001.1996	2747.582	7786.35	6898.4
1001.3206	2748.7889	7772.4	6883.25
1001.4415	2749.9952	7715.6	6828.85
1001.5625	2751.2008	7681.2	6790
1001.6833	2752.4057	7681.55	6792.5
1001.8042	2753.61	7647.3	6757.85
1001.925	2754.8136	7610	6720.35
1002.0458	2756.0165	7581.55	6692.7
1002.1665	2757.2188	7571.4	6682.2
1002.2872	2758.4204	7547.1	6659.3
1002.4078	2759.6213	7503.8	6612.3
1002.5285	2760.8215	7500.25	6608.6
1002.649	2762.0211	7473.45	6580.8
1002.7696	2763.22	7454.4	6561.75
1002.8901	2764.4182	7404.95	6513.9
1003.0106	2765.6158	7396.4	6508.3
1003.131	2766.8127	7376.3	6488.55
1003.2514	2768.009	7328.35	6441.85
1003.3717	2769.2045	7290.4	6401.35
1003.492	2770.3994	7294.75	6403.95
1003.6123	2771.5936	7272.55	6382.95
1003.7325	2772.7872	7250.6	6363.15
1003.8527	2773.9801	7207.8	6316.8
1003.9729	2775.1723	7184.85	6281.05
1004.093	2776.3639	7159	6270.25
1004.2131	2777.5548	7130.3	6241
1004.3331	2778.745	7122.65	6231.55
1004.4531	2779.9346	7065.3	6177.55
1004.5731	2781.1235	7069.7	6181.45
1004.693	2782.3117	7044.4	6156.95
1004.8129	2783.4992	7021.95	6133.95
1004.9328	2784.6861	7003.95	6112.45
1005.0526	2785.8723	6985.6	6096.4
1005.1723	2787.0579	6956.1	6065.7
1005.2921	2788.2428	6940.55	6053.25
1005.4118	2789.427	6913.95	6028.95
1005.5314	2790.6106	6873.2	5983.45
1005.651	2791.7935	6888.75	5999.8
1005.7706	2792.9757	6863.65	5975.7
1005.8902	2794.1573	6827.95	5937.3
1006.0097	2795.3382	6811.2	5921.75
1006.1291	2796.5184	6816.15	5928.35
1006.2485	2797.698	6814.05	5921.6
1006.3679	2798.8769	6809.35	5920.55
1006.4873	2800.0551	6822.15	5933.65
1006.6066	2801.2327	6790	5898.25
1006.7258	2802.4096	6764	5877.35
1006.8451	2803.5859	6754.8	5866.85
1006.9642	2804.7615	6755.6	5867.2
1007.0834	2805.9364	6774.25	5887.85
1007.2025	2807.1106	6780.3	5893.45
1007.3216	2808.2842	6773.7	5886.65
1007.4406	2809.4572	6764.7	5877
1007.5596	2810.6294	6799.8	5911.05
1007.6785	2811.801	6824.95	5937.3
1007.7975	2812.972	6844.5	5955.9
1007.9163	2814.1423	6841.8	5952.1
1008.0352	2815.3119	6861.4	5973
1008.154	2816.4808	6909.15	6023.05
1008.2727	2817.6491	6935.5	6047.45
1008.3914	2818.8167	6957	6070
1008.5101	2819.9837	6995.2	6103.95
1008.6288	2821.15	7011.2	6121.65
1008.7474	2822.3157	7030.2	6142.65
1008.8659	2823.4807	7056.9	6168
1008.9844	2824.645	7091.6	6201.7
1009.1029	2825.8086	7106.95	6219.6
1009.2214	2826.9716	7134.1	6245.95
1009.3398	2828.134	7192.6	6305.15
1009.4581	2829.2957	7213.15	6324.65
1009.5764	2830.4567	7203.75	6317.55
1009.6947	2831.617	7205.3	6314.6
1009.813	2832.7767	7204.8	6317.35
1009.9312	2833.9358	7196	6309.4
1010.0493	2835.0941	7204.95	6314.5
1010.1675	2836.2519	7153.75	6265.05
1010.2855	2837.4089	7124.75	6234.9
1010.4036	2838.5653	7108.8	6219.95
1010.5216	2839.7211	7094.7	6206.15
1010.6396	2840.8761	7080.3	6189.3
1010.7575	2842.0306	7080.25	6192.35
1010.8754	2843.1843	7111.4	6222.55
1010.9932	2844.3374	7157.6	6271.45
1011.111	2845.4899	7169.55	6280.95
1011.2288	2846.6417	7233.4	6344.85
1011.3465	2847.7928	7271.55	6382.5
1011.4642	2848.9433	7320.7	6433.4
1011.5818	2850.0931	7380.1	6492.85
1011.6995	2851.2422	7442.65	6553.75
1011.817	2852.3907	7485.95	6596.7
1011.9345	2853.5385	7538.95	6647.55
1012.052	2854.6857	7587.3	6671.4
1012.1695	2855.8323	7602.8	6715.35
1012.2869	2856.9781	7615.85	6728.6
1012.4042	2858.1233	7674.45	6787.5
1012.5216	2859.2679	7687.5	6799.35
1012.6389	2860.4118	7712	6825.1
1012.7561	2861.555	7731.05	6837.55
1012.8733	2862.6976	7749.65	6860.15
1012.9905	2863.8395	7739.15	6852.25
1013.1076	2864.9808	7750.95	6865.25
1013.2247	2866.1214	7761.25	6874.95
1013.3417	2867.2614	7759.3	6870.85
1013.4587	2868.4007	7754.75	6865.9
1013.5757	2869.5393	7739.45	6850.5
1013.6926	2870.6773	7751.35	6859.15
1013.8095	2871.8146	7735.4	6842.5
1013.9263	2872.9513	7708.05	6818.45
1014.0431	2874.0874	7671.25	6784
1014.1599	2875.2227	7665.75	6778.3
1014.2766	2876.3574	7606.55	6719.95
1014.3933	2877.4915	7574.25	6687.7
1014.51	2878.6249	7533	6646.2
1014.6266	2879.7577	7481.65	6593.1
1014.7431	2880.8898	7437.75	6538.5
1014.8596	2882.0212	7424.9	6538.6
1014.9761	2883.152	7389.45	6501.4
1015.0925	2884.2821	7373.4	6485.15
1015.2089	2885.4116	7324.45	6436.65
1015.3253	2886.5405	7301.9	6415.1
1015.4416	2887.6686	7313.5	6422.65
1015.5579	2888.7962	7280.7	6392.55
1015.6741	2889.923	7289.7	6404.3
1015.7903	2891.0493	7267	6379.2
1015.9065	2892.1748	7234.95	6345.2
1016.0226	2893.2997	7243.1	6353.2
1016.1387	2894.424	7235.45	6346.8
1016.2547	2895.5476	7215.2	6328.65
1016.3707	2896.6706	7226.8	6339.9
1016.4866	2897.7929	7250.55	6362.4
1016.6025	2898.9145	7242.7	6354.95
1016.7184	2900.0355	7252.7	6363.4
1016.8342	2901.1559	7284.3	6395.35
1016.95	2902.2756	7296.05	6409.65
1017.0658	2903.3946	7309.35	6421.3
1017.1815	2904.513	7316.6	6425.5
1017.2971	2905.6308	7327.3	6440.55
1017.4127	2906.7479	7321.95	6434.2
1017.5283	2907.8643	7330.2	6440.75
1017.6439	2908.9801	7322.4	6435.25
1017.7594	2910.0953	7327.85	6440.7
1017.8748	2911.2098	7293.05	6401.65
1017.9902	2912.3236	7288.7	6392.8
1018.1056	2913.4368	7261.9	6368.95
1018.2209	2914.5494	7226.45	6338.5
1018.3362	2915.6613	7180.8	6288.05
1018.4515	2916.7725	7123.65	6232.95
1018.5667	2917.8831	7090.8	6202.05
1018.6819	2918.9931	7054.75	6164.7
1018.797	2920.1024	7017.35	6128.45
1018.9121	2921.211	6973.9	6086.9
1019.0271	2922.319	6959.35	6072.2
1019.1421	2923.4264	6933.7	6047.8
1019.2571	2924.5331	6895.5	6007.45
1019.372	2925.6391	6853.15	5965
1019.4869	2926.7445	6832.25	5946
1019.6017	2927.8493	6828.75	5942.45
1019.7165	2928.9534	6811.7	5922.5
1019.8313	2930.0569	6800.7	5908.9
1019.946	2931.1597	6790.7	5901.4
1020.0606	2932.2619	6759.8	5871.95
1020.1753	2933.3634	6750.3	5863.85
1020.2899	2934.4643	6738.55	5842.2
1020.4044	2935.5645	6686	5792.6
1020.5189	2936.6641	6654.1	5761.65
1020.6334	2937.763	6587.7	5700.65
1020.7478	2938.8613	6545	5657.4
1020.8622	2939.959	6477.4	5585.4
1020.9765	2941.056	6418.95	5534.4
1021.0908	2942.1523	6292.75	5403.15
1021.2051	2943.248	6218.05	5330.3
1021.3193	2944.3431	6094.45	5206.9
1021.4334	2945.4375	5965.75	5077.55
1021.5476	2946.5313	5875.95	4989.6
1021.6617	2947.6244	5748.05	4861.45
1021.7757	2948.7169	5664.4	4776.45
1021.8897	2949.8087	5553.6	4666.95
1022.0037	2950.8999	5462.25	4573
1022.1176	2951.9904	5360.9	4473.8
1022.2315	2953.0803	5276.75	4387.95
1022.3453	2954.1696	5210.6	4322.3
1022.4591	2955.2582	5129.95	4243.35
1022.5728	2956.3462	5097.75	4209.65
1022.6865	2957.4335	5032.35	4145.2
1022.8002	2958.5202	4963.35	4073.75
1022.9138	2959.6062	4922.9	4034.6
1023.0274	2960.6916	4897.05	4010.35
1023.141	2961.7764	4862.65	3973.1
1023.2545	2962.8605	4824.9	3935.85
1023.3679	2963.9439	4807.85	3920.85
1023.4813	2965.0267	4782	3892.3
1023.5947	2966.1089	4792.5	3882.05
1023.708	2967.1905	4741.5	3853.15
1023.8213	2968.2714	4724.6	3837.95
1023.9346	2969.3516	4718.1	3832
1024.0478	2970.4312	4708.3	3811.5
1024.1609	2971.5102	4706.65	3819.95
1024.274	2972.5885	4685.45	3799.15
1024.3871	2973.6662	4672.05	3780.85
1024.5002	2974.7432	4646.75	3761.2
1024.6132	2975.8196	4643.2	3755.1
1024.7261	2976.8954	4612.95	3724.3
1024.839	2977.9705	4593.65	3704.2
1024.9519	2979.045	4550.7	3664
1025.0647	2980.1188	4536.6	3649.85
1025.1775	2981.192	4504	3616.55
1025.2902	2982.2645	4469.8	3582.8
1025.4029	2983.3364	4431.6	3543.9
1025.5156	2984.4077	4393.75	3506.7
1025.6282	2985.4783	4350.85	3458.2
1025.7407	2986.5483	4327	3437.65
1025.8532	2987.6177	4292.85	3406.5
1025.9657	2988.6864	4234.2	3345.1
1026.0782	2989.7545	4196.45	3307.15
1026.1906	2990.8219	4144.85	3256.8
1026.3029	2991.8887	4110.4	3220.35
1026.4152	2992.9548	4059.55	3170.7
1026.5275	2994.0204	4035.45	3148.7
1026.6397	2995.0852	4011.3	3124
1026.7519	2996.1495	3958.2	3069
1026.864	2997.2131	3908.25	3019.9
1026.9761	2998.276	3887	3000.4
1027.0882	2999.3383	3865.65	2976.85
1027.2002	3000.4	3831.5	2942.3
1027.3122	3001.4611	3815.25	2929.1
1027.4241	3002.5215	3797.45	2908.85
1027.536	3003.5812	3757.45	2869.55
1027.6478	3004.6404	3743.95	2855.2
1027.7596	3005.6989	3731.65	2842.7
1027.8714	3006.7567	3694.65	2807.45
1027.9831	3007.8139	3701.7	2793.5
1028.0947	3008.8705	3666.25	2779
1028.2064	3009.9264	3651.2	2761.8
1028.3179	3010.9818	3643.1	2755.65
1028.4295	3012.0364	3625.9	2737.75
1028.541	3013.0905	3611.65	2724.75
1028.6524	3014.1439	3607.2	2719.85
1028.7638	3015.1966	3589.15	2701.8
1028.8752	3016.2487	3577.35	2688.95
1028.9865	3017.3002	3583.8	2692.6
1029.0978	3018.3511	3553.1	2665.55
1029.209	3019.4013	3550.35	2663.9
1029.3202	3020.4509	3535.3	2649.75
1029.4314	3021.4998	3541.4	2653.05
1029.5425	3022.5481	3525.85	2639.3
1029.6535	3023.5958	3510.7	2623.8
1029.7645	3024.6428	3505.9	2618.5
1029.8755	3025.6892	3502.2	2614.8
1029.9864	3026.735	3480.45	2591.4
1030.0973	3027.7802	3485.95	2597.85
1030.2082	3028.8247	3450.65	2563.1
1030.319	3029.8685	3455.95	2568.95
1030.4297	3030.9118	3447.85	2558.7
1030.5404	3031.9544	3443.9	2555.65
1030.6511	3032.9963	3428.85	2540.95
1030.7617	3034.0376	3420.65	2534.05
1030.8723	3035.0783	3430.4	2539.85
1030.9829	3036.1184	3425.2	2534.6
1031.0934	3037.1578	3403.1	2516.4
1031.2038	3038.1966	3405.2	2515.7
1031.3142	3039.2348	3380.05	2494.9
1031.4246	3040.2723	3392.65	2498.55
1031.5349	3041.3092	3388.65	2501.45
1031.6452	3042.3455	3363.45	2476.35
1031.7554	3043.3811	3355.4	2467.05
1031.8656	3044.4161	3341.25	2453.8
1031.9758	3045.4505	3327.55	2441.4
1032.0859	3046.4842	3315.35	2425.25
1032.1959	3047.5173	3302.45	2415.15
1032.3059	3048.5498	3287.15	2399.7
1032.4159	3049.5816	3259.15	2374.55
1032.5258	3050.6128	3265.8	2377.3
1032.6357	3051.6434	3242.15	2352.9
1032.7455	3052.6734	3235.05	2347
1032.8553	3053.7027	3221.85	2336
1032.9651	3054.7314	3206.85	2320.45
1033.0748	3055.7594	3201.85	2314.45
1033.1845	3056.7868	3198.6	2309.15
1033.2941	3057.8136	3163.55	2275.9
1033.4037	3058.8398	3160.5	2275.7
1033.5132	3059.8653	3142.8	2256.2
1033.6227	3060.8902	3132.55	2246.25
1033.7321	3061.9145	3126.2	2239.95
1033.8415	3062.9381	3101.8	2213.8
1033.9509	3063.9612	3102.8	2201.2
1034.0602	3064.9835	3083.55	2195.9
1034.1694	3066.0053	3063.05	2173.15
1034.2787	3067.0264	3067.1	2181.1
1034.3878	3068.0469	3060.45	2171.15
1034.497	3069.0668	3038.8	2149.3
1034.6061	3070.086	3022.15	2135.75
1034.7151	3071.1046	3009.05	2122.8
1034.8241	3072.1226	2980.05	2091.75
1034.9331	3073.1399	2968.65	2080.5
1035.042	3074.1567	2965.65	2079.15
1035.1508	3075.1727	2951.75	2063.75
1035.2597	3076.1882	2933.1	2045.05
1035.3684	3077.203	2907.3	2021.35
1035.4772	3078.2173	2903.65	2014.85
1035.5859	3079.2308	2886.8	1996.4
1035.6945	3080.2438	2872.85	1984.15
1035.8031	3081.2561	2860.65	1972.55
1035.9117	3082.2678	2849.75	1963
1036.0202	3083.2789	2844.1	1959.75
1036.1286	3084.2893	2813.05	1927.05
1036.2371	3085.2991	2800.6	1913.5
1036.3454	3086.3083	2807.8	1917.6
1036.4538	3087.3169	2776.15	1888.1
1036.562	3088.3248	2761.55	1873.45
1036.6703	3089.3321	2761.6	1873.2
1036.7785	3090.3388	2747.6	1861.25
1036.8866	3091.3449	2724.7	1836.95
1036.9948	3092.3503	2736.45	1844.6
1037.1028	3093.3551	2709.15	1822.35
1037.2108	3094.3593	2703.5	1817.7
1037.3188	3095.3629	2688.7	1802.05
1037.4267	3096.3658	2689.25	1800.8
1037.5346	3097.3681	2659.95	1772.75
1037.6425	3098.3698	2658.5	1770.2
1037.7503	3099.3708	2651.15	1756.95
1037.858	3100.3713	2626.6	1740.15
1037.9657	3101.3711	2625.6	1736.85
1038.0734	3102.3702	2729.4	1701.05
1038.181	3103.3688	2622.55	1731.75
1038.2886	3104.3667	2596.45	1709.65
1038.3961	3105.364	2580.45	1693.85
1038.5036	3106.3607	2580.95	1692.05
1038.611	3107.3568	2559.55	1669.4
1038.7184	3108.3522	2551.05	1665.95
1038.8257	3109.347	2538.15	1649.3
1038.933	3110.3412	2529.1	1637.8
1039.0403	3111.3348	2533.85	1646.15
1039.1475	3112.3277	2499.8	1614.3
1039.2547	3113.32	2498.9	1613
1039.3618	3114.3117	2504.1	1616.1
1039.4689	3115.3028	2496.35	1608.15
1039.5759	3116.2932	2476.85	1587.4
1039.6829	3117.2831	2470.05	1578.8
1039.7898	3118.2723	2460.6	1573.2
1039.8967	3119.2608	2453.55	1566.4
1040.0035	3120.2488	2444.1	1555.95
1040.1103	3121.2361	2423.85	1536.3
1040.2171	3122.2229	2413	1526.9
1040.3238	3123.209	2415.8	1527.6
1040.4305	3124.1944	2409.1	1521.6
1040.5371	3125.1793	2397.4	1510.55
1040.6437	3126.1635	2386.25	1498.7
1040.7502	3127.1471	2375.7	1486.4
1040.8567	3128.1301	2368.75	1484.05
1040.9631	3129.1125	2371.6	1485.35
1041.0695	3130.0942	2371.65	1484.9
1041.1759	3131.0753	2358.65	1462.5
1041.2822	3132.0558	2359.85	1467.6
1041.3884	3133.0357	2345.15	1457.2
1041.4946	3134.015	2331.75	1443.4
1041.6008	3134.9936	2325.15	1436.55
1041.7069	3135.9716	2341.5	1434.1
1041.813	3136.949	2307.7	1418.45
1041.919	3137.9258	2313.65	1421.9
1042.025	3138.902	2307.65	1412.65
1042.1309	3139.8775	2301.8	1415.6
1042.2368	3140.8524	2295.55	1409.2
1042.3427	3141.8267	2275.35	1385.95
1042.4485	3142.8004	2275.55	1388.65
1042.5542	3143.7735	2266.55	1373.95
1042.6599	3144.7459	2269.85	1378.95
1042.7656	3145.7178	2269.75	1381.95
1042.8712	3146.689	2243.6	1357.2
1042.9768	3147.6596	2241.15	1351.4
1043.0823	3148.6295	2237.3	1350.1
1043.1878	3149.5989	2217.7	1330.4
1043.2932	3150.5676	2228.65	1341.9
1043.3986	3151.5357	2207.25	1321.3
1043.5039	3152.5032	2201.45	1316
1043.6092	3153.4701	2191.6	1303.7
1043.7145	3154.4364	2188.3	1295.95
1043.8197	3155.402	2185.05	1296.45
1043.9248	3156.367	2176.25	1287.9
1044.03	3157.3315	2212.9	1281.75
1044.135	3158.2952	2170.3	1282.15
1044.24	3159.2584	2148.35	1264.55
1044.345	3160.221	2145	1255.6
1044.4499	3161.1829	2147.4	1260.35
1044.5548	3162.1442	2130.6	1243.7
1044.6596	3163.105	2119.25	1231.85
1044.7644	3164.065	2118.3	1230.1
1044.8692	3165.0245	2115.95	1225
1044.9739	3165.9834	2099.75	1212.75
1045.0785	3166.9416	2081.35	1193.6
1045.1831	3167.8993	2087.8	1200.35
1045.2877	3168.8563	2086.2	1198.05
1045.3922	3169.8127	2076.3	1191.55
1045.4966	3170.7684	2086.15	1199.95
1045.6011	3171.7236	2071.75	1184.4
1045.7054	3172.6782	2068.8	1180.5
1045.8098	3173.6321	2060.4	1172.1
1045.914	3174.5854	2046.75	1155
1046.0183	3175.5381	2037.7	1149.2
1046.1224	3176.4902	2036.65	1149.4
1046.2266	3177.4417	2023.3	1137.8
1046.3307	3178.3926	2019.95	1131.85
1046.4347	3179.3428	2014.2	1128.45
1046.5387	3180.2924	2000.7	1113.8
1046.6427	3181.2415	2007.5	1119.3
1046.7466	3182.1899	1997.1	1109
1046.8504	3183.1377	1999.55	1113
1046.9542	3184.0848	1985.75	1094.2
1047.058	3185.0314	1987.25	1100.2
1047.1617	3185.9773	1972	1086.85
1047.2654	3186.9227	1965.1	1077.95
1047.369	3187.8674	1958.95	1071.75
1047.4726	3188.8115	1955.5	1064.35
1047.5761	3189.755	1950.4	1064.25
1047.6796	3190.6979	1949.05	1061.9
1047.783	3191.6402	1931.3	1046.3
1047.8864	3192.5818	1938.05	1050
1047.9898	3193.5229	1946.95	1038
1048.0931	3194.4633	1920.65	1033
1048.1963	3195.4031	1912.3	1024.7
1048.2995	3196.3423	1918.15	1028.75
1048.4027	3197.2809	1902.95	1014.8
1048.5058	3198.2189	1902.65	1014.3
1048.6089	3199.1563	1902.75	1008.65
1048.7119	3200.0931	1891	1004.45
1048.8148	3201.0292	1877.95	993.7
1048.9178	3201.9648	1880.35	993.8
1049.0206	3202.8997	1875.45	985.9
1049.1235	3203.834	1875.45	987.6
1049.2262	3204.7677	1860.55	975
1049.329	3205.7008	1867.2	979.15
1049.4317	3206.6333	1851.15	966.35
1049.5343	3207.5652	1848.7	959.8
1049.6369	3208.4964	1851.25	965.3
1049.7394	3209.4271	1834.45	948.3
1049.8419	3210.3571	1830	943.8
1049.9444	3211.2865	1837.1	948.65
1050.0468	3212.2154	1828.65	942.5
1050.1491	3213.1436	1822.75	932.65
1050.2514	3214.0712	1820.25	927.4
1050.3537	3214.9982	1821.6	934.1
1050.4559	3215.9246	1804.85	918.25
1050.5581	3216.8503	1808	921.75
1050.6602	3217.7755	1803.25	915.85
1050.7623	3218.7001	1798.15	910.65
1050.8643	3219.624	1791.7	903.65
1050.9663	3220.5473	1781.2	892.55
1051.0682	3221.4701	1778.85	888.45
1051.1701	3222.3922	1778.6	888.45
1051.2719	3223.3137	1772.9	885.85
1051.3737	3224.2346	1761.65	875.4
1051.4754	3225.1549	1756.55	869.2
1051.5771	3226.0746	1750.4	862.95
1051.6788	3226.9937	1750.8	863.3
1051.7804	3227.9121	1736.45	851.6
1051.8819	3228.83	1744.7	859.55
1051.9834	3229.7473	1738.9	851.7
1052.0849	3230.6639	1735.6	847.1
1052.1863	3231.5799	1717.75	832
1052.2876	3232.4954	1731.6	844.2
1052.3889	3233.4102	1716.7	830.15
1052.4902	3234.3244	1713	825.85
1052.5914	3235.238	1707.45	820.6
1052.6926	3236.151	1723.4	813.9
1052.7937	3237.0634	1705.5	819.4
1052.8948	3237.9752	1692.85	807.7
1052.9958	3238.8864	1689.85	805.05
1053.0968	3239.797	1692.35	804.55
1053.1977	3240.7069	1680.25	791.2
1053.2986	3241.6163	1673.55	783.75
1053.3994	3242.5251	1666.4	780.9
1053.5002	3243.4332	1669.75	783.65
1053.6009	3244.3408	1661.2	773.35
1053.7016	3245.2477	1658.9	773.9
1053.8022	3246.154	1647.35	762.35
1053.9028	3247.0598	1650.9	763.2
1054.0034	3247.9649	1637.15	750.6
1054.1039	3248.8694	1631.6	744.7
1054.2043	3249.7733	1632.6	745.45
1054.3047	3250.6766	1631.95	744.7
1054.4051	3251.5793	1618.8	731.5
1054.5054	3252.4814	1626.3	739.95
1054.6056	3253.3829	1619.6	731.85
1054.7058	3254.2838	1613.25	725.15
1054.806	3255.1841	1603.6	717.8
1054.9061	3256.0838	1598.05	712.55
1055.0061	3256.9829	1592.15	706.65
1055.1062	3257.8814	1585.45	696.15
1055.2061	3258.7792	1581.55	691.8
1055.306	3259.6765	1582.6	694.7
1055.4059	3260.5731	1566.4	680.5
1055.5057	3261.4692	1556.7	668.45
1055.6055	3262.3647	1553.45	665.3
1055.7052	3263.2595	1543.8	656
1055.8049	3264.1538	1530.25	642.9
1055.9045	3265.0474	1527.3	641.85
1056.0041	3265.9404	1517.45	630.2
1056.1036	3266.8329	1499.25	612.8
1056.2031	3267.7247	1497.35	602.15
1056.3025	3268.616	1478.7	592.9
1056.4019	3269.5066	1463.1	576.05
1056.5013	3270.3966	1450.75	561.05
1056.6005	3271.286	1430.85	545.15
