Software Version:	3.9.2.0
Unit SN:	10000200
Spectrometer SN:	6960
Date:	3/6/2024 9:27:57 AM
Data Line Index:	25
Spectral Points:	2048
Integration time (ms):	125
Averages:	20
Delay (ms):	30
Sequence Number:	1
Processing:	dark subtract
Laser Power (mW):	305
Laser Current (mA):	818
Laser Diode Temp (C):	25.1
Laser Case Temp (C):	23.2
System Temp (C):	22.9
Spectrometer Temp (C):	20.8
CCD Temp (C):	-0.039
Secondary Temp (C):	20.008
Heatsink Temp (C):	17.655
CCDPCB Temp (C):	29.537
SecondaryPCB Temp (C):	25.191

Wavelength	RamanShift	Raw Counts	Dark Subtracted
787.061	30.1047	540.45	131.65
787.2016	32.3739	545.85	139.6
787.3422	34.6426	556.25	147.15
787.4828	36.9109	563.85	155.55
787.6235	39.1787	575.85	163.2
787.7642	41.4461	592.9	174.55
787.9049	43.7131	610.2	188.9
788.0456	45.9796	614.95	191.55
788.1863	48.2456	636.2	209.45
788.3271	50.5112	650.35	220.9
788.4679	52.7764	666.45	232.35
788.6087	55.0411	679.6	242.25
788.7496	57.3054	698.45	256
788.8904	59.5692	713.6	268.75
789.0313	61.8326	744.1	299.4
789.1722	64.0955	760.25	310.85
789.3132	66.3579	786.15	333.2
789.4541	68.6199	822.35	365.5
789.5951	70.8815	881.2	418.25
789.7361	73.1426	1014.75	549.1
789.8771	75.4032	1349.5	880.95
790.0181	77.6634	2161.75	1691.05
790.1592	79.9231	4141	3667.55
790.3003	82.1824	8449.85	7971.9
790.4414	84.4412	16126.45	15640
790.5825	86.6995	26510.8	26015.4
790.7237	88.9574	36375.7	35873.9
790.8648	91.2148	43850.8	43346.5
791.006	93.4717	46981.05	46473
791.1472	95.7282	48451.85	47939.3
791.2885	97.9842	49045.05	48532.2
791.4297	100.2398	49446.75	48932.2
791.571	102.4949	49136.75	48618.5
791.7123	104.7495	49687.35	49165.45
791.8536	107.0036	49292.95	48770.4
791.9949	109.2573	50115	49589.5
792.1363	111.5105	49444.3	48918.8
792.2777	113.7632	50062.1	49533.9
792.4191	116.0154	50197.7	49660.35
792.5605	118.2672	50671.4	50138.4
792.7019	120.5185	50713.3	50179.7
792.8434	122.7693	50751.6	50213.9
792.9849	125.0197	50239.25	49698
793.1264	127.2696	51461.1	50916.35
793.2679	129.519	51409.25	50861.05
793.4094	131.7679	51861.2	51313.1
793.551	134.0163	50463.35	49912.8
793.6926	136.2642	51138.5	50581.75
793.8342	138.5117	52187.9	51628.25
793.9758	140.7587	51847.5	51288.75
794.1175	143.0052	52033.35	51470.2
794.2591	145.2512	51277.65	50714.1
794.4008	147.4967	52330.65	51764.65
794.5425	149.7417	51990.9	51420.9
794.6842	151.9863	52097.8	51524.2
794.826	154.2304	51352.1	50775.95
794.9677	156.4739	52134.95	51553.3
795.1095	158.717	52570.15	51988.75
795.2513	160.9596	52266.05	51677.55
795.3931	163.2017	51624.1	51036.4
795.535	165.4433	52520.6	51929.65
795.6768	167.6844	52145.85	51554.95
795.8187	169.925	52622.25	52025.25
795.9606	172.1651	52354.2	51755.25
796.1025	174.4047	52363.1	51757.85
796.2445	176.6439	52520.5	51915.15
796.3864	178.8825	52551.3	51940.6
796.5284	181.1206	52992.05	52379.65
796.6704	183.3582	53027.8	52409.7
796.8124	185.5954	52586.5	51970.35
796.9544	187.832	52863.7	52241.85
797.0965	190.0681	52470.5	51843.5
797.2386	192.3037	53388	52759
797.3806	194.5388	54262.45	53631.25
797.5228	196.7734	52227.65	51596.95
797.6649	199.0075	54055.85	53424.45
797.807	201.2411	53459.9	52825.45
797.9492	203.4742	54536.55	53899.3
798.0914	205.7068	54320.95	53676.3
798.2336	207.9389	54251.35	53611.2
798.3758	210.1704	54144.75	53512.25
798.518	212.4015	54986.5	54363.25
798.6603	214.632	53851.25	53231.3
798.8025	216.862	54938.2	54321.15
798.9448	219.0915	54662.55	54044.3
799.0871	221.3205	54377.9	53757.15
799.2294	223.549	55265.25	54648.2
799.3718	225.777	55179.25	54558.9
799.5141	228.0044	55536.9	54904.75
799.6565	230.2314	55165.1	54534.65
799.7989	232.4578	55112.9	54477.7
799.9413	234.6837	55269.1	54622.85
800.0837	236.909	56927.35	56280.8
800.2262	239.1339	54678.15	54010.8
800.3687	241.3582	55633.85	54980.6
800.5111	243.582	55727.15	55041.75
800.6536	245.8053	55800.35	55127
800.7961	248.0281	55859.35	55193.2
800.9387	250.2503	56289.8	55617.95
801.0812	252.472	55592.45	54921.3
801.2238	254.6932	55988	55317.7
801.3664	256.9139	55775.75	55099.65
801.509	259.134	57342.85	56667.6
801.6516	261.3536	55521.25	54847.75
801.7942	263.5727	56640.4	55966.2
801.9369	265.7912	56053.9	55379.15
802.0795	268.0092	56299.9	55624.3
802.2222	270.2267	56506.85	55831.15
802.3649	272.4436	55821.9	55143
802.5076	274.6601	56534.5	55844.95
802.6504	276.8759	56979.85	56291.45
802.7931	279.0913	56629.45	55943.95
802.9359	281.3061	56739.15	56051.3
803.0787	283.5204	56881.6	56190.4
803.2215	285.7341	56766.25	56074.75
803.3643	287.9473	57619.4	56916.95
803.5071	290.16	56884.35	56187.7
803.6499	292.3721	57292.8	56601.85
803.7928	294.5837	56526.15	55832.55
803.9357	296.7947	56105.45	55411.15
804.0786	299.0052	57229.15	56535.2
804.2215	301.2152	56672.85	55976.15
804.3644	303.4246	57405.1	56707.85
804.5074	305.6334	57382.95	56686.05
804.6503	307.8418	56432.75	55731.9
804.7933	310.0495	56752.95	56053.55
804.9363	312.2568	56616.4	55915.8
805.0793	314.4635	56634.65	55931.5
805.2223	316.6696	57023.5	56318.9
805.3653	318.8752	57517.2	56803.05
805.5084	321.0802	55820.8	55115
805.6514	323.2847	56496.15	55785.35
805.7945	325.4887	56539.2	55828.95
805.9376	327.692	56116.65	55406.5
806.0807	329.8949	56630	55916.65
806.2238	332.0972	56342.95	55628
806.367	334.2989	56711.75	55993.45
806.5101	336.5001	57416.35	56698.55
806.6533	338.7007	56113.5	55394.55
806.7965	340.9008	56725.45	56006.1
806.9397	343.1003	56831.4	56108.3
807.0829	345.2992	57313.15	56589.7
807.2261	347.4976	56611.4	55886.85
807.3693	349.6955	56852.6	56122.6
807.5126	351.8927	56398.6	55668.3
807.6559	354.0895	57017.45	56273.6
807.7991	356.2856	56812.85	56081.15
807.9424	358.4812	57330.25	56596.4
808.0857	360.6763	56462.75	55728.75
808.2291	362.8707	57129.45	56392.4
808.3724	365.0646	56573.45	55834.65
808.5158	367.258	56652.1	55909.45
808.6591	369.4508	56177.1	55431.85
808.8025	371.643	56974.5	56228.4
808.9459	373.8346	56647.8	55898.5
809.0893	376.0257	56646.2	55897.65
809.2327	378.2162	56409.55	55660.6
809.3762	380.4062	55859.8	55112.5
809.5196	382.5956	56329.1	55582.9
809.6631	384.7844	56360.85	55615.65
809.8066	386.9726	56634.85	55889.7
809.9501	389.1603	56689.05	55946.65
810.0936	391.3474	55886.8	55094.45
810.2371	393.5339	56614.75	55870.85
810.3806	395.7199	55652.05	54911.9
810.5241	397.9052	55756.75	55016.25
810.6677	400.09	56022.6	55280.5
810.8113	402.2743	56435.35	55691.9
810.9548	404.4579	55947.2	55201.7
811.0984	406.641	55801.25	55052.7
811.2421	408.8235	56205.1	55455.45
811.3857	411.0054	56124.05	55373.5
811.5293	413.1868	56154.85	55398.65
811.673	415.3675	56076.45	55316.05
811.8166	417.5477	56077.25	55316.1
811.9603	419.7273	55920.3	55158.85
812.104	421.9064	55738.2	54969.35
812.2477	424.0848	55945.25	55182.6
812.3914	426.2627	56322.25	55557.3
812.5351	428.4399	55427.2	54661.75
812.6788	430.6166	54927.65	54158.25
812.8226	432.7928	55643.45	54873.8
812.9663	434.9683	54977.35	54206.05
813.1101	437.1432	55071.8	54300.7
813.2539	439.3176	55520.9	54750.75
813.3977	441.4914	54647.55	53877.7
813.5415	443.6645	54711.1	53938.15
813.6853	445.8371	54747.45	53976.25
813.8291	448.0091	54291.8	53517.6
813.973	450.1806	54144.45	53370
814.1168	452.3514	54174.7	53396
814.2607	454.5216	53881.4	53096.5
814.4046	456.6913	54147.65	53369.25
814.5485	458.8603	54299.3	53524
814.6924	461.0288	53721.3	52942.5
814.8363	463.1967	54135.5	53357.7
814.9802	465.3639	54135.35	53355.15
815.1241	467.5306	53214.4	52433.2
815.2681	469.6967	53620.9	52840.4
815.412	471.8622	53730.45	52951.8
815.556	474.0271	53440.9	52660.7
815.7	476.1914	53560.95	52778.05
815.844	478.3551	53563.25	52780.95
815.988	480.5182	53974.7	53190.25
816.132	482.6807	53305.75	52523.85
816.276	484.8426	53429.45	52646.75
816.4201	487.0039	53976.05	53190.65
816.5641	489.1647	53907.95	53120.65
816.7082	491.3248	53208.8	52423.45
816.8522	493.4843	53958.25	53173.35
816.9963	495.6432	53916.05	53130.25
817.1404	497.8015	53089.4	52299.9
817.2845	499.9592	53484.15	52694.5
817.4286	502.1163	53483.4	52695.1
817.5727	504.2728	53391.25	52596.1
817.7168	506.4287	53472.4	52684.55
817.861	508.5839	52951.25	52159.55
818.0051	510.7386	53183.25	52392.4
818.1493	512.8927	53395.85	52594.75
818.2935	515.0461	53217.5	52425.3
818.4377	517.199	53557.5	52763.3
818.5818	519.3512	53353.55	52560.7
818.726	521.5029	53069.7	52269.95
818.8703	523.6539	53218.2	52423.8
819.0145	525.8043	52676.5	51879.25
819.1587	527.9541	53084.9	52284.25
819.303	530.1033	52964.45	52162.55
819.4472	532.2519	52717.5	51919.25
819.5915	534.3999	52790.15	51989.45
819.7357	536.5472	53079.2	52278.85
819.88	538.694	52424.6	51623.85
820.0243	540.8401	52784.75	51983.35
820.1686	542.9856	52662.8	51859.05
820.3129	545.1305	52765.5	51963.7
820.4572	547.2748	52547.1	51742.95
820.6016	549.4185	52564.15	51757.45
820.7459	551.5615	52719.65	51913.5
820.8902	553.704	52623.5	51817.45
821.0346	555.8458	52349.9	51543.95
821.1789	557.987	52458.9	51651.45
821.3233	560.1276	52511.9	51704.8
821.4677	562.2675	52404.75	51599.25
821.6121	564.4069	52364.1	51557.55
821.7565	566.5456	52557.1	51753.25
821.9009	568.6837	52104.95	51297
822.0453	570.8212	52240.55	51434.9
822.1897	572.958	51741.95	50931
822.3342	575.0942	51977.15	51170.7
822.4786	577.2299	51595.6	50787.55
822.6231	579.3648	51562.25	50755.4
822.7675	581.4992	51267.8	50460.75
822.912	583.6329	51111.8	50304.95
823.0565	585.766	51071.35	50261.6
823.201	587.8985	51143.2	50334.25
823.3454	590.0304	50665.95	49831.5
823.4899	592.1616	50927.15	50114.45
823.6345	594.2922	50735	49922.85
823.779	596.4222	50569.35	49756.8
823.9235	598.5515	50561	49746.5
824.068	600.6802	50443.85	49630.45
824.2126	602.8083	50122.95	49306.6
824.3571	604.9358	50033.45	49214.45
824.5017	607.0626	50128.2	49308.15
824.6462	609.1888	49868.85	49051.05
824.7908	611.3144	49963.4	49145.45
824.9354	613.4393	49705.25	48889.7
825.08	615.5636	49679.6	48862.15
825.2246	617.6873	49750.6	48933.45
825.3692	619.8103	49707.55	48887.6
825.5138	621.9327	49662.4	48840
825.6584	624.0544	49805.2	48986.9
825.803	626.1756	49560.15	48738.95
825.9477	628.2961	49538.7	48714.85
826.0923	630.4159	49307.05	48484.3
826.237	632.5351	49300.55	48478
826.3816	634.6537	49445.45	48621.5
826.5263	636.7716	49148.5	48323.45
826.6709	638.8889	49229.85	48405.85
826.8156	641.0056	49173.9	48349.6
826.9603	643.1216	49187.25	48362.2
827.105	645.237	49328.65	48499.9
827.2497	647.3518	49008.35	48182.75
827.3944	649.4659	49013	48188.9
827.5391	651.5793	48925.85	48099.4
827.6838	653.6922	48853.85	48029.65
827.8285	655.8043	48670.4	47846.65
827.9733	657.9159	48860.4	48034.05
828.118	660.0268	48355.9	47524.95
828.2627	662.137	48398.5	47569.4
828.4075	664.2466	48468.7	47640.05
828.5522	666.3556	48400.9	47572.55
828.697	668.4639	48317.8	47484.9
828.8418	670.5716	48331.4	47501.95
828.9865	672.6786	48306.5	47476.35
829.1313	674.785	48053.95	47222
829.2761	676.8907	47911.95	47079
829.4209	678.9958	47981.45	47152
829.5657	681.1002	47823.05	46989.9
829.7105	683.204	47652.8	46815.35
829.8553	685.3072	47653.8	46821.8
830.0001	687.4097	47558.2	46726.5
830.1449	689.5115	47533.25	46697.6
830.2898	691.6127	47550.2	46715.5
830.4346	693.7132	47356.25	46523.75
830.5794	695.8131	47487.3	46633.6
830.7243	697.9123	47454.45	46619.95
830.8691	700.0109	47430.6	46593
831.014	702.1089	47234.1	46399.35
831.1588	704.2061	47256.2	46420.95
831.3037	706.3028	47218.95	46380.6
831.4486	708.3987	47186.1	46351.2
831.5935	710.4941	47055.8	46219.65
831.7383	712.5887	47050.15	46212.25
831.8832	714.6827	47058.7	46217.35
832.0281	716.7761	46980.75	46144.95
832.173	718.8688	46915.85	46078.1
832.3179	720.9608	46818.7	45976.85
832.4628	723.0522	46868.45	46023.5
832.6077	725.1429	46661.1	45820.85
832.7527	727.233	46742.2	45899.65
832.8976	729.3224	46649.75	45810.05
833.0425	731.4112	46556.15	45713.3
833.1874	733.4993	46435.75	45591.25
833.3324	735.5867	46325.8	45484.15
833.4773	737.6735	46193.8	45352.4
833.6222	739.7596	46105.75	45260.55
833.7672	741.845	45972.55	45130.8
833.9122	743.9298	45868.45	45022.2
834.0571	746.014	45754.55	44912.1
834.2021	748.0974	45804.05	44959.5
834.347	750.1802	45613.65	44768.15
834.492	752.2624	45459.4	44614.35
834.637	754.3439	45379.55	44534.55
834.782	756.4247	45192.05	44339.5
834.9269	758.5048	45066.5	44221.15
835.0719	760.5843	44976.95	44132.25
835.2169	762.6631	44858.6	44014
835.3619	764.7413	44760.9	43918.8
835.5069	766.8188	44779.85	43932
835.6519	768.8956	44602.55	43753
835.7969	770.9718	44715.35	43869.95
835.9419	773.0473	44434.05	43588.5
836.0869	775.1221	44415.5	43567.7
836.232	777.1962	44250.05	43402.6
836.377	779.2697	44249.05	43401
836.522	781.3426	44214.65	43355.6
836.667	783.4147	44120.95	43274.6
836.8121	785.4862	44117.7	43270.1
836.9571	787.557	43974.2	43125.9
837.1021	789.6271	43817.4	42968.95
837.2472	791.6966	43626.4	42778.6
837.3922	793.7654	43469.55	42619.55
837.5373	795.8335	43398.05	42548.55
837.6823	797.901	43290.2	42439.7
837.8274	799.9678	43221.6	42371.2
837.9724	802.0339	43145.55	42297.05
838.1175	804.0993	43061.85	42199.5
838.2626	806.1641	42904.75	42054.6
838.4076	808.2282	42801.05	41952.75
838.5527	810.2916	42793	41940.4
838.6978	812.3544	42709.75	41860.7
838.8428	814.4164	42621.25	41771.05
838.9879	816.4778	42695.45	41844.05
839.133	818.5385	42480.05	41630
839.2781	820.5986	42503.45	41649.7
839.4232	822.658	42550.65	41696.5
839.5682	824.7166	42396.1	41544.45
839.7133	826.7747	42501.4	41649.95
839.8584	828.832	42452.85	41599.05
840.0035	830.8886	42214.3	41359.7
840.1486	832.9446	42228.05	41374.4
840.2937	834.9999	42093.75	41241.55
840.4388	837.0545	42081.25	41222.95
840.5839	839.1085	41983.75	41127.95
840.729	841.1618	41810.5	40952.85
840.8741	843.2143	41701.7	40848.4
841.0192	845.2662	41528.95	40676.7
841.1643	847.3175	41541.45	40688.2
841.3095	849.368	41375.3	40518.95
841.4546	851.4179	41357.95	40503.95
841.5997	853.467	41106.65	40251.8
841.7448	855.5155	41116.8	40260.95
841.8899	857.5633	41045.85	40190.2
842.0351	859.6105	40921	40065.2
842.1802	861.6569	40831.7	39976.45
842.3253	863.7027	40763.1	39906.8
842.4704	865.7478	40767.15	39912.15
842.6156	867.7922	40712	39854.5
842.7607	869.8359	40602.3	39742.35
842.9058	871.8789	40573.85	39716.6
843.0509	873.9212	40511.1	39622.1
843.1961	875.9629	40349.3	39493.5
843.3412	878.0039	40340.15	39481.5
843.4863	880.0441	40251.1	39395.05
843.6315	882.0837	40299.6	39441.15
843.7766	884.1226	40272.45	39411.1
843.9218	886.1609	40249.45	39390.05
844.0669	888.1984	40204.95	39345.9
844.212	890.2352	40275.85	39418.7
844.3572	892.2714	40164.05	39302.7
844.5023	894.3069	40137.7	39278.2
844.6475	896.3416	39959.9	39100.3
844.7926	898.3757	39954.8	39095.35
844.9377	900.4091	39789.4	38928.9
845.0829	902.4418	39735.75	38868.95
845.228	904.4739	39636.3	38773.85
845.3732	906.5052	39591.5	38732
845.5183	908.5358	39495.95	38634.6
845.6635	910.5658	39457.1	38594.55
845.8086	912.595	39318.9	38457.15
845.9538	914.6236	39236.25	38375.5
846.0989	916.6515	39167	38306.85
846.2441	918.6786	39010.6	38147.2
846.3892	920.7051	38937.1	38072.7
846.5344	922.7309	39013.1	38151.25
846.6795	924.756	38771.6	37909.2
846.8246	926.7804	38789.2	37924.1
846.9698	928.8041	38506.05	37642.35
847.1149	930.8272	38541.3	37678.35
847.2601	932.8495	38334	37467.25
847.4052	934.8711	38346.2	37482.8
847.5504	936.892	38192	37331.35
847.6955	938.9123	38062.7	37200.5
847.8407	940.9318	38017.2	37154.1
847.9858	942.9506	37905.7	37040.05
848.131	944.9688	37784.55	36921
848.2761	946.9862	37679.7	36816.5
848.4213	949.003	37515.95	36650
848.5664	951.019	37400.2	36538.1
848.7115	953.0344	37275.15	36408.25
848.8567	955.0491	37199.6	36332.9
849.0018	957.063	37164.65	36300.4
849.147	959.0763	37250.6	36387.85
849.2921	961.0888	37065.65	36199.9
849.4373	963.1007	37007.2	36143
849.5824	965.1119	36955.75	36092
849.7275	967.1223	36941.15	36077.05
849.8727	969.1321	36869.85	36006.7
850.0178	971.1412	36836.6	35973.15
850.1629	973.1495	36618.3	35754.25
850.3081	975.1572	36580.35	35668.8
850.4532	977.1641	36568.3	35703.85
850.5983	979.1704	36445.4	35579.1
850.7435	981.1759	36370.45	35503.35
850.8886	983.1808	36339.35	35471.35
851.0337	985.1849	36251.05	35379.2
851.1788	987.1884	36103.5	35237.1
851.324	989.1911	36104.65	35233.95
851.4691	991.1932	36008.55	35140.75
851.6142	993.1945	35814.25	34948.25
851.7593	995.1951	35646.4	34779.45
851.9045	997.1951	35602.8	34730.95
852.0496	999.1943	35480.05	34614.85
852.1947	1001.1928	35317.15	34449.8
852.3398	1003.1906	35157.65	34289.45
852.4849	1005.1877	35128.3	34259.4
852.63	1007.1841	35007.95	34141.6
852.7751	1009.1798	34874.45	34005.5
852.9202	1011.1748	34767.3	33900.95
853.0653	1013.1691	34655.15	33787.85
853.2104	1015.1627	34499.9	33631.65
853.3555	1017.1556	34293.55	33424.55
853.5006	1019.1477	34172	33303.45
853.6457	1021.1392	33983.35	33117.5
853.7908	1023.1299	33875.4	33007.05
853.9359	1025.12	33742	32870.5
854.081	1027.1093	33602.3	32738.05
854.2261	1029.0979	33488.75	32623
854.3712	1031.0859	33415.35	32549.5
854.5163	1033.0731	33366.7	32500.2
854.6613	1035.0596	33223.5	32354.75
854.8064	1037.0454	33054	32186.15
854.9515	1039.0304	33051.35	32182.8
855.0965	1041.0148	32840.6	31971.1
855.2416	1042.9985	32731.65	31860.9
855.3867	1044.9814	32714.95	31846.2
855.5317	1046.9636	32540.05	31667.6
855.6768	1048.9452	32400.2	31532.95
855.8219	1050.926	32375.1	31507.75
855.9669	1052.9061	32305.85	31438.2
856.112	1054.8855	32196.4	31327.2
856.257	1056.8642	32151.7	31282.95
856.4021	1058.8421	32150.1	31275.7
856.5471	1060.8194	32038.1	31163.8
856.6921	1062.7959	31951.8	31083.9
856.8372	1064.7717	31916.9	31045.55
856.9822	1066.7469	31861.45	30988.85
857.1272	1068.7213	31790.35	30915.65
857.2723	1070.695	31700.15	30828.3
857.4173	1072.6679	31576.35	30706.35
857.5623	1074.6402	31545.7	30673.75
857.7073	1076.6117	31546.75	30670.85
857.8523	1078.5826	31495.8	30625.4
857.9973	1080.5527	31353.75	30477.85
858.1423	1082.5221	31264.95	30395.6
858.2873	1084.4908	31204.75	30333.55
858.4323	1086.4587	31104.45	30232.3
858.5773	1088.426	31046.55	30172.55
858.7223	1090.3925	30910.95	30033.75
858.8673	1092.3584	30917.35	30046
859.0123	1094.3235	30737.6	29866.3
859.1573	1096.2879	30671.35	29799.15
859.3022	1098.2515	30635.35	29762.1
859.4472	1100.2145	30610.75	29737.2
859.5922	1102.1767	30541.6	29667.25
859.7371	1104.1382	30492.8	29621.7
859.8821	1106.099	30472.7	29596
860.027	1108.0591	30357.1	29485.65
860.172	1110.0185	30336.15	29460.6
860.3169	1111.9771	30395.65	29522.65
860.4619	1113.9351	30215.1	29342.6
860.6068	1115.8923	30226.2	29353.75
860.7517	1117.8488	30197.8	29323.1
860.8967	1119.8045	30069.3	29197.15
861.0416	1121.7596	29948.75	29075.05
861.1865	1123.7139	29741.1	28868.05
861.3314	1125.6675	29614.65	28742.9
861.4763	1127.6204	29633.4	28760.5
861.6212	1129.5726	29521.5	28646.6
861.7661	1131.524	29566.1	28692.75
861.911	1133.4748	29467.5	28594.15
862.0559	1135.4248	29310.05	28436.5
862.2008	1137.3741	29245.65	28372.65
862.3457	1139.3226	29144.35	28269.45
862.4905	1141.2705	29140.05	28266.55
862.6354	1143.2176	28949.75	28069.05
862.7803	1145.164	28980.95	28105.8
862.9251	1147.1097	28939.55	28067
863.07	1149.0546	28874.9	28000.8
863.2148	1150.9989	28809.9	27935.35
863.3597	1152.9424	28783.25	27909
863.5045	1154.8852	28713.35	27837.7
863.6493	1156.8272	28690.3	27816.4
863.7942	1158.7686	28648.5	27765.4
863.939	1160.7092	28518.3	27644.2
864.0838	1162.6491	28430.7	27554.55
864.2286	1164.5883	28378.3	27505.4
864.3734	1166.5267	28362.6	27486.45
864.5182	1168.4644	28391.65	27515.45
864.663	1170.4014	28350.6	27472.2
864.8078	1172.3377	28363.25	27491.2
864.9526	1174.2732	28357.5	27481.95
865.0974	1176.2081	28384.9	27509.9
865.2421	1178.1421	28441.4	27561.7
865.3869	1180.0755	28491.75	27617.75
865.5317	1182.0082	28417	27543.45
865.6764	1183.9401	28397.15	27520.95
865.8212	1185.8713	28240.25	27365.95
865.9659	1187.8017	28109.75	27232.75
866.1106	1189.7315	28007.85	27134.7
866.2554	1191.6605	27745.45	26871.2
866.4001	1193.5888	27587.9	26713.15
866.5448	1195.5163	27542.75	26667.35
866.6895	1197.4432	27431.15	26554.4
866.8342	1199.3693	27368	26492.75
866.9789	1201.2947	27188.9	26310.85
867.1236	1203.2193	27103.6	26228.1
867.2683	1205.1432	27103.7	26227.35
867.413	1207.0664	26980.35	26104
867.5576	1208.9889	26935.95	26055
867.7023	1210.9106	26857.5	25983.4
867.847	1212.8316	26720.85	25846.85
867.9916	1214.7519	26719.85	25836.15
868.1363	1216.6715	26593.15	25718.25
868.2809	1218.5903	26605.45	25731.5
868.4255	1220.5084	26515.8	25639.95
868.5701	1222.4257	26543.85	25666.95
868.7148	1224.3424	26415.6	25539.5
868.8594	1226.2583	26359.35	25479.6
869.004	1228.1735	26313.3	25435.85
869.1486	1230.0879	26222.9	25344.1
869.2932	1232.0016	26174.15	25295.75
869.4377	1233.9146	26132.95	25255.8
869.5823	1235.8269	26072.25	25197.4
869.7269	1237.7384	26077.15	25200.4
869.8715	1239.6492	25948.6	25075
870.016	1241.5592	25956.7	25079.05
870.1606	1243.4686	25867.4	24990.4
870.3051	1245.3772	25934.3	25056.8
870.4496	1247.285	25890	25012.65
870.5941	1249.1922	25902.95	25027.9
870.7387	1251.0986	25891.2	25015
870.8832	1253.0042	25817.45	24939.55
871.0277	1254.9092	25861.7	24983.55
871.1722	1256.8134	25863.05	24985.45
871.3167	1258.7169	25957.2	25081
871.4611	1260.6196	25978.6	25104.1
871.6056	1262.5216	25996.4	25118.1
871.7501	1264.4229	25891	25015
871.8945	1266.3234	25882.05	25003.15
872.039	1268.2232	25799.4	24921.3
872.1834	1270.1223	25690.75	24809.9
872.3278	1272.0207	25631.55	24752.8
872.4723	1273.9183	25539.85	24655.15
872.6167	1275.8151	25485	24607.9
872.7611	1277.7113	25516.95	24637.8
872.9055	1279.6067	25478.9	24603.25
873.0499	1281.5014	25566.2	24686.1
873.1943	1283.3953	25660.95	24781.5
873.3386	1285.2885	25831.5	24952.9
873.483	1287.181	25957.25	25078.35
873.6274	1289.0727	26047.6	25171.05
873.7717	1290.9637	25925.9	25046.9
873.9161	1292.854	25819.4	24942.1
874.0604	1294.7435	25617.6	24737.3
874.2047	1296.6323	25506.3	24628.05
874.349	1298.5204	25356.9	24475.45
874.4933	1300.4077	25273.95	24393.7
874.6376	1302.2943	25181.75	24304.8
874.7819	1304.1802	25163.9	24285.85
874.9262	1306.0653	25075.65	24195.65
875.0705	1307.9497	25006.3	24128.6
875.2147	1309.8333	24948	24068
875.359	1311.7162	24934.35	24057.1
875.5032	1313.5984	24912.15	24030.1
875.6475	1315.4798	24800.8	23909.9
875.7917	1317.3605	24769.55	23886.65
875.9359	1319.2405	24773.1	23892.6
876.0801	1321.1197	24724.8	23843.1
876.2243	1322.9982	24631.8	23749.15
876.3685	1324.876	24605.3	23726.2
876.5127	1326.753	24499.5	23620.4
876.6569	1328.6293	24424.25	23544.6
876.801	1330.5048	24386.1	23504.9
876.9452	1332.3796	24213.85	23335.55
877.0893	1334.2537	24170.85	23266.7
877.2335	1336.127	24057.3	23178.1
877.3776	1337.9996	23956.6	23077.45
877.5217	1339.8714	23918.55	23039.7
877.6658	1341.7426	23897.5	22974.25
877.8099	1343.6129	23816.45	22936.95
877.954	1345.4826	23741.1	22861.25
878.0981	1347.3515	23737.45	22854.45
878.2422	1349.2196	23671.9	22792.85
878.3862	1351.087	23699.5	22821.15
878.5303	1352.9537	23649.9	22771.65
878.6743	1354.8197	23641.3	22761.3
878.8184	1356.6849	23669.7	22789.6
878.9624	1358.5493	23548.85	22669.7
879.1064	1360.4131	23558.15	22678.15
879.2504	1362.276	23518.65	22638.15
879.3944	1364.1383	23494.7	22615.95
879.5384	1365.9998	23469.5	22583.95
879.6823	1367.8606	23379.3	22499.65
879.8263	1369.7206	23323.5	22442.5
879.9702	1371.5799	23287.3	22405.8
880.1142	1373.4384	23203.85	22323.65
880.2581	1375.2962	23179.05	22297.65
880.402	1377.1533	22995.95	22114.95
880.5459	1379.0096	22905.4	22025.75
880.6898	1380.8652	22829.95	21950.8
880.8337	1382.7201	22780.2	21901.35
880.9776	1384.5742	22619.6	21738.5
881.1215	1386.4275	22525.2	21643.65
881.2653	1388.2802	22403.85	21524.15
881.4092	1390.132	22420.15	21541.05
881.553	1391.9832	22357.9	21476.95
881.6968	1393.8336	22207.7	21327.2
881.8406	1395.6832	22167.8	21285.9
881.9844	1397.5322	22104.2	21222.95
882.1282	1399.3803	22020	21133.75
882.272	1401.2278	21893.65	21014.5
882.4158	1403.0745	21834.45	20954.6
882.5595	1404.9204	21722.4	20841.55
882.7033	1406.7656	21709.05	20828.4
882.847	1408.6101	21629.45	20748.65
882.9908	1410.4538	21554.5	20675.4
883.1345	1412.2968	21479.35	20598
883.2782	1414.139	21416.85	20537.45
883.4219	1415.9805	21377.25	20498.1
883.5656	1417.8213	21326.6	20423.7
883.7092	1419.6613	21258.3	20379.55
883.8529	1421.5006	21224.85	20341.6
883.9965	1423.3391	21197.2	20315
884.1402	1425.1769	21214.95	20333.2
884.2838	1427.0139	21206.6	20325.35
884.4274	1428.8502	21218.5	20336
884.571	1430.6858	21209.7	20327.75
884.7146	1432.5206	21127	20245.85
884.8582	1434.3547	21143.05	20261.25
885.0018	1436.188	21108.75	20227.3
885.1453	1438.0206	21066.15	20184.7
885.2889	1439.8524	20978.45	20095.65
885.4324	1441.6835	20979.85	20096.85
885.5759	1443.5139	20926.55	20042.7
885.7194	1445.3435	20846.1	19964.45
885.8629	1447.1724	20875.9	19995.7
886.0064	1449.0005	20828.5	19948
886.1499	1450.8279	20795.2	19914.6
886.2933	1452.6545	20753.8	19872.85
886.4368	1454.4804	20762.85	19882.1
886.5802	1456.3056	20690.4	19802.5
886.7237	1458.13	20653.05	19772.7
886.8671	1459.9536	20618.65	19737.65
887.0105	1461.7766	20565.35	19684.9
887.1539	1463.5987	20463.35	19581.2
887.2972	1465.4202	20429.25	19547.15
887.4406	1467.2409	20342.9	19462.35
887.584	1469.0608	20333.35	19452.9
887.7273	1470.88	20241.45	19360.2
887.8706	1472.6984	20196.5	19313.65
888.0139	1474.5161	20086.85	19203.85
888.1572	1476.3331	20058.4	19178.95
888.3005	1478.1493	19980.65	19097.8
888.4438	1479.9648	19957.05	19075.7
888.5871	1481.7795	19928.55	19046.05
888.7303	1483.5935	19914.75	19033.65
888.8736	1485.4067	19847.85	18967.55
889.0168	1487.2192	19843.45	18961.25
889.16	1489.031	19827.35	18943.85
889.3032	1490.842	19804.9	18923.8
889.4464	1492.6522	19761.4	18882
889.5896	1494.4618	19721.75	18840.35
889.7327	1496.2705	19695.7	18813.4
889.8759	1498.0785	19630.2	18748.2
890.019	1499.8858	19547.8	18666.3
890.1622	1501.6924	19500	18618.95
890.3053	1503.4981	19500	18618.35
890.4484	1505.3032	19451.55	18569.8
890.5914	1507.1075	19385.85	18504.1
890.7345	1508.911	19387.7	18507.2
890.8776	1510.7138	19350.75	18468.7
891.0206	1512.5159	19233.55	18352.9
891.1637	1514.3172	19193.8	18312
891.3067	1516.1178	19146.9	18268.85
891.4497	1517.9176	19097.95	18214.3
891.5927	1519.7166	19035.55	18155.45
891.7357	1521.515	18960.75	18074.35
891.8786	1523.3126	18926.4	18045.15
892.0216	1525.1094	18881.6	17998
892.1645	1526.9055	18800.6	17921.6
892.3074	1528.7008	18727.65	17843.8
892.4503	1530.4954	18654.5	17768.2
892.5932	1532.2893	18599.95	17721.75
892.7361	1534.0824	18483	17597.4
892.879	1535.8747	18481	17599.05
893.0218	1537.6663	18397.45	17514
893.1647	1539.4572	18366.9	17484.45
893.3075	1541.2473	18311.85	17428.85
893.4503	1543.0367	18285.7	17403.35
893.5931	1544.8253	18150.95	17266.4
893.7359	1546.6132	18176	17292.25
893.8787	1548.4003	18092.55	17200.8
894.0214	1550.1867	18052.1	17164.75
894.1642	1551.9723	18005	17118.95
894.3069	1553.7572	17975.55	17093.3
894.4496	1555.5414	17924.9	17040
894.5923	1557.3247	17882.1	17000.1
894.735	1559.1074	17888.7	17007.25
894.8777	1560.8893	17830.5	16950.4
895.0204	1562.6705	17781	16899.6
895.163	1564.4509	17781.25	16901.75
895.3056	1566.2305	17720.5	16840.05
895.4482	1568.0094	17743.35	16863.95
895.5908	1569.7876	17680.85	16798.4
895.7334	1571.565	17652.05	16771.65
895.876	1573.3417	17626.9	16743.2
896.0186	1575.1176	17531.65	16649.45
896.1611	1576.8928	17534.25	16651.15
896.3036	1578.6672	17505.25	16625.7
896.4461	1580.4409	17442.75	16567.1
896.5886	1582.2138	17414.05	16529.8
896.7311	1583.986	17377.55	16497
896.8736	1585.7575	17390.25	16511.5
897.0161	1587.5282	17380.9	16501.95
897.1585	1589.2981	17348.4	16470.4
897.3009	1591.0673	17311.75	16430.95
897.4433	1592.8358	17326.2	16446.6
897.5857	1594.6035	17248.7	16363.9
897.7281	1596.3704	17170	16287.25
897.8705	1598.1366	17103.85	16224.25
898.0128	1599.9021	17036.6	16156.2
898.1551	1601.6668	16911.1	16030.25
898.2975	1603.4308	16845.75	15962.7
898.4398	1605.194	16765.25	15879.2
898.5821	1606.9564	16715.65	15836.6
898.7243	1608.7182	16731.25	15845.25
898.8666	1610.4791	16737.8	15858.6
899.0088	1612.2394	16760.95	15881.45
899.1511	1613.9988	16811.8	15933.1
899.2933	1615.7576	16891.8	16011.4
899.4355	1617.5156	16905.2	16020.65
899.5776	1619.2728	16850.4	15970.05
899.7198	1621.0293	16717.3	15836.95
899.862	1622.785	16616.85	15732.15
900.0041	1624.54	16432.95	15549
900.1462	1626.2942	16304.5	15420.35
900.2883	1628.0477	16095.4	15210.4
900.4304	1629.8005	15993.45	15108.6
900.5725	1631.5525	15865.15	14983.55
900.7145	1633.3037	15776.9	14895.75
900.8566	1635.0542	15720.45	14839.8
900.9986	1636.804	15619.45	14739.5
901.1406	1638.553	15642.15	14675
901.2826	1640.3013	15531	14650.95
901.4245	1642.0488	15424.85	14543.1
901.5665	1643.7955	15396.65	14517
901.7085	1645.5416	15335.85	14453.4
901.8504	1647.2868	15309.15	14430.95
901.9923	1649.0313	15193.5	14312.1
902.1342	1650.7751	15187.6	14303.85
902.2761	1652.5181	15173.05	14294.15
902.4179	1654.2604	15095.55	14213.3
902.5598	1656.0019	15041.45	14160.4
902.7016	1657.7427	15041.7	14162.2
902.8434	1659.4828	15015.6	14132.9
902.9852	1661.222	14969.1	14089.35
903.127	1662.9606	14941.7	14059.85
903.2687	1664.6984	14941.45	14060.9
903.4105	1666.4354	14931.45	14047.4
903.5522	1668.1717	14897.1	14014.65
903.6939	1669.9072	14809.2	13926.8
903.8356	1671.642	14733.3	13849.75
903.9773	1673.3761	14667.95	13787.9
904.119	1675.1094	14560.9	13680.05
904.2606	1676.8419	14494.8	13613
904.4022	1678.5737	14421.35	13539.45
904.5439	1680.3048	14365.55	13483.65
904.6855	1682.0351	14267.45	13387.6
904.827	1683.7646	14193.5	13308.4
904.9686	1685.4934	14166.6	13284.75
905.1101	1687.2215	14123.4	13241.4
905.2517	1688.9488	14024.45	13141.75
905.3932	1690.6754	13971.3	13090.85
905.5347	1692.4012	13954.4	13073.05
905.6761	1694.1263	13893.85	13013.4
905.8176	1695.8506	13851.7	12969.95
905.9591	1697.5742	13785.6	12904.9
906.1005	1699.297	13755.05	12875
906.2419	1701.0191	13700.65	12820.15
906.3833	1702.7404	13649.75	12769.45
906.5246	1704.461	13566.3	12683.65
906.666	1706.1808	13500.15	12616.95
906.8073	1707.8999	13462.95	12580.35
906.9487	1709.6182	13422.3	12541.2
907.09	1711.3358	13388.4	12506.35
907.2313	1713.0527	13355.15	12477.25
907.3725	1714.7688	13271.1	12384.7
907.5138	1716.4841	13235.7	12352.9
907.655	1718.1987	13220.9	12336.65
907.7962	1719.9126	13158.85	12278.85
907.9374	1721.6257	13130.2	12244.55
908.0786	1723.338	13120.15	12237.9
908.2198	1725.0496	13033.55	12151.35
908.3609	1726.7605	13046.45	12165.45
908.502	1728.4706	12986.25	12103.75
908.6431	1730.18	12935.7	12053.3
908.7842	1731.8886	12885.75	12003.85
908.9253	1733.5964	12887.9	11986.85
909.0664	1735.3036	12888.75	12005.4
909.2074	1737.0099	12854.4	11971.8
909.3484	1738.7156	12815.95	11934.95
909.4894	1740.4204	12760.95	11876.1
909.6304	1742.1246	12771.45	11888.05
909.7714	1743.8279	12732.1	11852.05
909.9123	1745.5306	12738.5	11856.3
910.0532	1747.2325	12660.4	11779.1
910.1941	1748.9336	12629.65	11748.05
910.335	1750.634	12578.5	11694.7
910.4759	1752.3336	12556.15	11676.25
910.6168	1754.0325	12534.8	11654.45
910.7576	1755.7307	12527.05	11645.75
910.8984	1757.4281	12535.4	11654.85
911.0392	1759.1247	12515.3	11625
911.18	1760.8206	12458.7	11574.5
911.3208	1762.5158	12491.55	11606.2
911.4615	1764.2102	12425.2	11544.65
911.6022	1765.9039	12370.8	11489.5
911.7429	1767.5968	12359.05	11479.5
911.8836	1769.289	12333.95	11452.65
912.0243	1770.9804	12288.9	11407
912.1649	1772.6711	12277.55	11395.15
912.3056	1774.361	12242.6	11360.2
912.4462	1776.0502	12250	11370.1
912.5868	1777.7386	12221.15	11338
912.7274	1779.4263	12173.45	11291.4
912.8679	1781.1132	12181.7	11299.2
913.0084	1782.7994	12107.8	11224.25
913.149	1784.4849	12105.4	11223.4
913.2895	1786.1696	12059.55	11160.45
913.4299	1787.8535	12018.45	11138.4
913.5704	1789.5367	11996	11115.1
913.7108	1791.2192	11984.65	11104.7
913.8513	1792.9009	11941.4	11041.8
913.9917	1794.5818	11898.65	11017.6
914.132	1796.2621	11844.35	10963.25
914.2724	1797.9415	11842.1	10959.65
914.4128	1799.6202	11799.75	10919
914.5531	1801.2982	11750.9	10870.1
914.6934	1802.9755	11755.1	10873.9
914.8337	1804.6519	11726.8	10845.05
914.9739	1806.3277	11650.5	10768.8
915.1142	1808.0027	11631.15	10750.85
915.2544	1809.6769	11637.25	10756.55
915.3946	1811.3504	11586.95	10704.35
915.5348	1813.0231	11570.4	10689.4
915.675	1814.6951	11567.7	10686.65
915.8151	1816.3664	11563.2	10680.25
915.9553	1818.0369	11512.9	10630.7
916.0954	1819.7067	11482.35	10602.3
916.2355	1821.3757	11448.2	10563.75
916.3755	1823.044	11403.35	10521.85
916.5156	1824.7115	11416.7	10537.4
916.6556	1826.3783	11358.45	10480
916.7956	1828.0443	11336.25	10455.15
916.9356	1829.7096	11317	10434.05
917.0756	1831.3741	11320.3	10435.55
917.2155	1833.0379	11257.35	10376.6
917.3555	1834.701	11240.6	10357.55
917.4954	1836.3633	11208.7	10326.65
917.6353	1838.0248	11182.45	10300.6
917.7751	1839.6856	11163.1	10282.3
917.915	1841.3457	11154.1	10275.55
918.0548	1843.005	11120.35	10238.95
918.1946	1844.6636	11102.75	10222.25
918.3344	1846.3214	11060.15	10177.7
918.4742	1847.9785	11070.2	10189.9
918.6139	1849.6349	11018.5	10135.25
918.7537	1851.2904	11011.65	10120.6
918.8934	1852.9453	10971.25	10089.3
919.0331	1854.5994	10930.75	10047.15
919.1727	1856.2528	10944.6	10057.4
919.3124	1857.9054	10909.85	10029.05
919.452	1859.5572	10901.8	10020.5
919.5916	1861.2083	10861.45	9978.1
919.7312	1862.8587	10833.6	9951.85
919.8708	1864.5084	10825.8	9946.05
920.0103	1866.1572	10779	9898.25
920.1498	1867.8054	10732.35	9851.5
920.2893	1869.4528	10732	9848.8
920.4288	1871.0994	10683.85	9801.6
920.5683	1872.7453	10698.7	9815.55
920.7077	1874.3905	10667.05	9779.8
920.8471	1876.0349	10617.05	9734.35
920.9865	1877.6786	10601.5	9716.3
921.1259	1879.3215	10595.85	9713.95
921.2653	1880.9637	10566.4	9683.8
921.4046	1882.6051	10580.5	9699.4
921.5439	1884.2458	10555.6	9673.1
921.6832	1885.8858	10510.9	9629.75
921.8225	1887.525	10490.1	9607.4
921.9617	1889.1634	10436.95	9555.95
922.101	1890.8011	10404.7	9522.95
922.2402	1892.4381	10370.4	9488.45
922.3794	1894.0743	10370.9	9488.2
922.5185	1895.7098	10351.3	9468.55
922.6577	1897.3446	10338.85	9456.85
922.7968	1898.9786	10305.15	9421
922.9359	1900.6118	10273.45	9393.5
923.075	1902.2443	10253.1	9370.5
923.214	1903.8761	10217.6	9336.95
923.3531	1905.5071	10179	9298.85
923.4921	1907.1374	10135.1	9253.6
923.6311	1908.7669	10151.4	9271.55
923.77	1910.3957	10095.95	9213.45
923.909	1912.0237	10072.75	9192.25
924.0479	1913.651	10064	9179.85
924.1868	1915.2776	10029.25	9150.15
924.3257	1916.9034	9994.7	9114.9
924.4646	1918.5285	9943	9062
924.6034	1920.1528	9884.65	9002.95
924.7422	1921.7764	9885.1	9004.2
924.881	1923.3992	9859.65	8979.35
925.0198	1925.0213	9788.8	8905.6
925.1586	1926.6427	9754.5	8874.15
925.2973	1928.2633	9909.6	8820.4
925.436	1929.8832	9755.45	8871.85
925.5747	1931.5023	9671.25	8791.75
925.7134	1933.1207	9638.6	8754.8
925.852	1934.7383	9640.75	8759
925.9906	1936.3552	9589.75	8708.75
926.1292	1937.9714	9574.85	8690.8
926.2678	1939.5868	9540.8	8654.25
926.4064	1941.2015	9489.8	8609.15
926.5449	1942.8154	9477.75	8593.55
926.6834	1944.4286	9430.35	8549.75
926.8219	1946.041	9406.95	8500.85
926.9604	1947.6528	9371.3	8485.95
927.0988	1949.2637	9346.45	8465.5
927.2372	1950.8739	9310.75	8429.8
927.3756	1952.4834	9292.3	8410.35
927.514	1954.0921	9272.1	8389.05
927.6523	1955.7001	9242.75	8356.55
927.7907	1957.3074	9209.9	8329.9
927.929	1958.9139	9196.1	8314.5
928.0673	1960.5197	9157.55	8274.4
928.2055	1962.1247	9148.4	8267.35
928.3438	1963.729	9084.5	8203.3
928.482	1965.3325	9064.9	8160.9
928.6202	1966.9353	9041.5	8162.05
928.7584	1968.5374	9018.7	8135.65
928.8965	1970.1387	8959.85	8078.25
929.0346	1971.7393	8957.9	8074.85
929.1727	1973.3392	8945.7	8064.9
929.3108	1974.9383	8912.9	8031.45
929.4489	1976.5366	8872.75	7992.1
929.5869	1978.1342	8872.05	7990.35
929.7249	1979.7311	8839.7	7957.4
929.8629	1981.3273	8826.7	7945.5
930.0009	1982.9227	8793.15	7908.85
930.1388	1984.5173	8759.55	7879.3
930.2767	1986.1112	8747.55	7868.35
930.4146	1987.7044	8708.35	7829.5
930.5525	1989.2968	8694.9	7813.25
930.6904	1990.8885	8671.35	7784.3
930.8282	1992.4795	8672.1	7790.15
930.966	1994.0697	8617.95	7738.7
931.1038	1995.6592	8615.6	7734.2
931.2415	1997.2479	8606.25	7725.9
931.3793	1998.8359	8563	7682.75
931.517	2000.4232	8525	7644.8
931.6547	2002.0097	8511.3	7632.45
931.7923	2003.5955	8446.45	7564.35
931.93	2005.1805	8471.5	7591.2
932.0676	2006.7648	8431.35	7553.1
932.2052	2008.3484	8423.2	7542.5
932.3427	2009.9312	8433.75	7551.95
932.4803	2011.5133	8374.05	7494
932.6178	2013.0946	8365.85	7486.1
932.7553	2014.6752	8353.5	7474
932.8928	2016.2551	8329.8	7451.95
933.0302	2017.8342	8304.4	7423.4
933.1676	2019.4126	8267.6	7386.6
933.305	2020.9902	8242.8	7363.85
933.4424	2022.5672	8232.2	7350.95
933.5798	2024.1433	8215.25	7328.2
933.7171	2025.7188	8167	7288.55
933.8544	2027.2935	8164.45	7283.1
933.9917	2028.8674	8119.4	7240.05
934.129	2030.4406	8109.95	7231.75
934.2662	2032.0131	8081.1	7199.35
934.4034	2033.5849	8047.6	7162.95
934.5406	2035.1559	8054.6	7174.75
934.6778	2036.7261	8059.05	7178
934.8149	2038.2957	8011.7	7130.6
934.952	2039.8645	8007.45	7126.6
935.0891	2041.4325	7999.35	7117.85
935.2262	2042.9998	7985.3	7103.55
935.3632	2044.5664	7973.5	7092.7
935.5002	2046.1323	7932.7	7052.85
935.6372	2047.6974	7911.8	7032.15
935.7742	2049.2617	7912.65	7033.1
935.9111	2050.8254	7907.45	7004.9
936.048	2052.3883	7898.15	7015.25
936.1849	2053.9504	7858	6978.45
936.3218	2055.5118	7856.1	6974.65
936.4586	2057.0725	7810.95	6928.05
936.5955	2058.6325	7801.15	6920.1
936.7323	2060.1917	7765.55	6886.25
936.869	2061.7502	7757.55	6874.25
937.0058	2063.3079	7724.6	6844.6
937.1425	2064.8649	7708.55	6825.45
937.2792	2066.4212	7708.2	6827.65
937.4159	2067.9767	7695.55	6816.05
937.5525	2069.5315	7646.25	6765.5
937.6891	2071.0856	7618.9	6739.65
937.8257	2072.6389	7613.1	6732.9
937.9623	2074.1915	7564.65	6687.45
938.0989	2075.7433	7536.05	6655.2
938.2354	2077.2945	7535.35	6658.8
938.3719	2078.8448	7531.15	6651.05
938.5084	2080.3945	7501.1	6621.95
938.6448	2081.9434	7505.3	6623.8
938.7812	2083.4916	7474.4	6591.85
938.9176	2085.039	7454.9	6573.6
939.054	2086.5857	7434.8	6552.15
939.1903	2088.1317	7426.25	6545.75
939.3267	2089.677	7443.75	6562.3
939.463	2091.2215	7407.1	6526
939.5992	2092.7652	7381.7	6500.55
939.7355	2094.3083	7349.1	6467.75
939.8717	2095.8506	7345.7	6468.25
940.0079	2097.3921	7366.9	6486.05
940.1441	2098.933	7312.9	6433.45
940.2802	2100.4731	7314.55	6434.15
940.4163	2102.0124	7314.1	6417.1
940.5524	2103.5511	7288.1	6407.15
940.6885	2105.089	7295.3	6414.7
940.8245	2106.6261	7264.35	6384.2
940.9606	2108.1626	7232.8	6352.25
941.0965	2109.6983	7263.25	6355.95
941.2325	2111.2332	7224	6343.5
941.3684	2112.7675	7216.25	6337.85
941.5044	2114.301	7203.85	6321.05
941.6403	2115.8337	7193.05	6311.55
941.7761	2117.3657	7190.85	6311.3
941.912	2118.897	7151.25	6270.8
942.0478	2120.4276	7139.25	6255.55
942.1835	2121.9575	7097.6	6216.7
942.3193	2123.4866	7099.35	6216.6
942.455	2125.0149	7076.35	6193.4
942.5907	2126.5426	7054.2	6172.85
942.7264	2128.0695	7047.4	6163.3
942.8621	2129.5956	7020.45	6143.6
942.9977	2131.1211	7016.3	6130.1
943.1333	2132.6458	7004.95	6125.8
943.2689	2134.1698	6991.15	6110.85
943.4044	2135.693	6966.3	6082.85
943.54	2137.2155	6966.85	6082.7
943.6755	2138.7373	6943.5	6063.05
943.8109	2140.2584	6917.55	6037.25
943.9464	2141.7787	6898.15	6012.25
944.0818	2143.2983	6890.2	6011.55
944.2172	2144.8171	6832.35	5953.35
944.3526	2146.3353	6855.8	5972.85
944.4879	2147.8527	6817.8	5937.7
944.6232	2149.3693	6815.5	5934.05
944.7585	2150.8853	6785.95	5906.95
944.8938	2152.4005	6743.2	5861.25
945.029	2153.9149	6729.7	5848.55
945.1642	2155.4287	6731	5850.6
945.2994	2156.9417	6728.5	5845.3
945.4346	2158.454	6720.3	5837.35
945.5697	2159.9655	6692.35	5812.85
945.7048	2161.4764	6672.75	5793.3
945.8399	2162.9865	6650.55	5769.2
945.9749	2164.4958	6625.5	5743.3
946.1099	2166.0045	6622.6	5740.4
946.2449	2167.5124	6626.15	5745.2
946.3799	2169.0195	6604.55	5724.85
946.5148	2170.526	6601.2	5721.8
946.6498	2172.0317	6562.05	5680.5
946.7846	2173.5367	6555.45	5675.05
946.9195	2175.0409	6550.75	5670.5
947.0543	2176.5445	6547.4	5667.75
947.1891	2178.0473	6515.75	5634.8
947.3239	2179.5494	6474.8	5590.65
947.4587	2181.0507	6470.6	5591.45
947.5934	2182.5513	6455.75	5576.05
947.7281	2184.0512	6437.65	5556
947.8628	2185.5504	6428.1	5549.55
947.9974	2187.0488	6384.35	5504.15
948.132	2188.5465	6384.65	5502.9
948.2666	2190.0435	6357.6	5476.15
948.4012	2191.5397	6325.5	5447.35
948.5357	2193.0353	6320.55	5440.75
948.6702	2194.5301	6296.1	5415.3
948.8047	2196.0241	6259.35	5378.1
948.9392	2197.5175	6259.1	5378.85
949.0736	2199.0101	6230.9	5347.7
949.208	2200.502	6199.4	5318
949.3424	2201.9931	6188.5	5308.5
949.4767	2203.4835	6170.75	5289.4
949.611	2204.9733	6149.1	5262.35
949.7453	2206.4622	6154.2	5273.6
949.8796	2207.9505	6131.05	5248.05
950.0138	2209.438	6101.3	5223.1
950.148	2210.9248	6074.8	5192.5
950.2822	2212.4109	6073.1	5194
950.4164	2213.8962	6059.4	5178.4
950.5505	2215.3809	6054.65	5171.25
950.6846	2216.8648	6030.2	5149.85
950.8186	2218.3479	6011.8	5126.1
950.9527	2219.8304	5989.1	5106.05
951.0867	2221.3121	5964.65	5081.3
951.2207	2222.7931	5935.5	5056.65
951.3546	2224.2733	5910.8	5029.55
951.4886	2225.7529	5900.1	5018.9
951.6225	2227.2317	5894.05	5012.35
951.7563	2228.7098	5871.25	4990.8
951.8902	2230.1872	5855.1	4975.65
952.024	2231.6638	5840.35	4961.15
952.1578	2233.1397	5846.65	4961.4
952.2916	2234.6149	5815.65	4936.2
952.4253	2236.0894	5801.3	4919.55
952.559	2237.5632	5792.5	4909.95
952.6927	2239.0362	5765.05	4885
952.8263	2240.5085	5744.35	4863.35
952.9599	2241.9801	5714.2	4834.75
953.0935	2243.4509	5696.65	4816.3
953.2271	2244.921	5688.95	4808.95
953.3606	2246.3904	5681.3	4797.4
953.4941	2247.8591	5661.5	4782.05
953.6276	2249.3271	5649.85	4770.8
953.7611	2250.7943	5649.55	4767.3
953.8945	2252.2608	5606.65	4726.6
954.0279	2253.7266	5588.75	4707.9
954.1612	2255.1917	5581.95	4701.5
954.2946	2256.656	5542.2	4661
954.4279	2258.1197	5553	4673.15
954.5612	2259.5826	5543.45	4658.3
954.6944	2261.0447	5525.7	4644.75
954.8276	2262.5062	5504.05	4622.25
954.9608	2263.9669	5507.7	4624.35
955.094	2265.4269	5487.85	4608.1
955.2271	2266.8862	5456.85	4576.2
955.3602	2268.3448	5464.35	4584.25
955.4933	2269.8026	5445.3	4564.5
955.6264	2271.2598	5446.45	4566.3
955.7594	2272.7162	5409.45	4530.7
955.8924	2274.1719	5426.2	4545.4
956.0253	2275.6268	5396.5	4515.2
956.1583	2277.0811	5370.15	4489.15
956.2912	2278.5346	5356.25	4475.95
956.4241	2279.9874	5345.9	4464.45
956.5569	2281.4395	5357.05	4476.55
956.6897	2282.8908	5331.7	4447.55
956.8225	2284.3414	5323	4439.75
956.9553	2285.7914	5293.6	4415.7
957.088	2287.2406	5291.7	4411.05
957.2207	2288.689	5285.55	4404.7
957.3534	2290.1368	5266.9	4384.95
957.486	2291.5838	5240.1	4353.9
957.6186	2293.0302	5250.25	4368.15
957.7512	2294.4758	5212.15	4331.4
957.8838	2295.9206	5189.2	4306.25
958.0163	2297.3648	5185.1	4305.6
958.1488	2298.8082	5179.6	4297.4
958.2813	2300.251	5157.85	4279.05
958.4137	2301.693	5145.1	4263.25
958.5461	2303.1343	5143.1	4261
958.6785	2304.5748	5103.75	4222.85
958.8108	2306.0147	5102.4	4222.15
958.9432	2307.4538	5100.15	4217.05
959.0754	2308.8922	5072.5	4193.55
959.2077	2310.3299	5068.85	4189.05
959.3399	2311.7669	5061.7	4180.65
959.4721	2313.2031	5036.7	4155.1
959.6043	2314.6387	5025.25	4144.85
959.7365	2316.0735	4989.85	4109.35
959.8686	2317.5076	4987.75	4106.35
960.0006	2318.941	4982.05	4102.5
960.1327	2320.3737	4968.2	4086.5
960.2647	2321.8056	4979.1	4096.4
960.3967	2323.2369	4949.6	4067.15
960.5287	2324.6674	4931.75	4046.7
960.6606	2326.0972	4921.85	4038.05
960.7925	2327.5263	4899.3	4018.25
960.9244	2328.9547	4895.65	4013.35
961.0562	2330.3823	4876.2	3996.05
961.1881	2331.8092	4870.55	3988.05
961.3198	2333.2355	4846.55	3966.7
961.4516	2334.661	4850.65	3969.1
961.5833	2336.0858	4837.4	3954.25
961.715	2337.5098	4830	3948
961.8467	2338.9332	4821.65	3939.2
961.9783	2340.3558	4787.6	3903.5
962.1099	2341.7778	4772.45	3890.35
962.2415	2343.199	4753.05	3869.75
962.373	2344.6195	4748.85	3870.75
962.5045	2346.0393	4744.2	3864.55
962.636	2347.4583	4742	3859.8
962.7675	2348.8767	4718.85	3838.1
962.8989	2350.2943	4715.55	3832.7
963.0303	2351.7113	4692.45	3810
963.1617	2353.1275	4688.05	3806.7
963.293	2354.543	4679.25	3788.95
963.4243	2355.9578	4668.95	3787.75
963.5556	2357.3718	4632.4	3751.15
963.6868	2358.7852	4621.05	3739.05
963.818	2360.1978	4609.5	3727.9
963.9492	2361.6098	4598.25	3718.2
964.0803	2363.021	4599.4	3713.6
964.2114	2364.4315	4583.6	3702.55
964.3425	2365.8413	4569.55	3684.35
964.4736	2367.2504	4552.35	3672.6
964.6046	2368.6587	4523.15	3642.55
964.7356	2370.0664	4515.6	3634.25
964.8666	2371.4733	4503.15	3622.8
964.9975	2372.8795	4502.2	3621.25
965.1284	2374.285	4474.25	3592.05
965.2593	2375.6899	4451.4	3572.5
965.3901	2377.0939	4440.7	3560.8
965.5209	2378.4973	4435.6	3555.9
965.6517	2379.9	4428.15	3547.7
965.7825	2381.3019	4414.7	3532.05
965.9132	2382.7032	4394.1	3513.95
966.0439	2384.1037	4378.2	3499.35
966.1745	2385.5035	4369.25	3489.55
966.3051	2386.9027	4373.85	3493.7
966.4357	2388.3011	4357.05	3473.95
966.5663	2389.6987	4343.9	3461.65
966.6968	2391.0957	4330	3447.95
966.8273	2392.492	4304.05	3422.25
966.9578	2393.8876	4279	3398.4
967.0882	2395.2824	4261.7	3380.2
967.2186	2396.6765	4253.25	3374.25
967.349	2398.07	4246.75	3367.3
967.4793	2399.4627	4252.25	3369.3
967.6097	2400.8547	4227.8	3347.05
967.7399	2402.246	4223.4	3336.1
967.8702	2403.6366	4193.55	3312.1
968.0004	2405.0265	4184.8	3302.35
968.1306	2406.4156	4171.55	3287.4
968.2607	2407.8041	4165.4	3280.75
968.3909	2409.1918	4136.3	3253.2
968.521	2410.5789	4137.35	3255.1
968.651	2411.9652	4108.4	3225.95
968.781	2413.3508	4105.8	3223.8
968.911	2414.7358	4098.6	3214.55
969.041	2416.12	4071.5	3190.05
969.1709	2417.5035	4064.9	3183.8
969.3008	2418.8863	4052.85	3171.35
969.4307	2420.2684	4043.6	3163.6
969.5606	2421.6497	4012.55	3131.2
969.6904	2423.0304	4004.8	3124.45
969.8201	2424.4104	4000.2	3118.2
969.9499	2425.7896	3984.85	3100.75
970.0796	2427.1682	3983.75	3102.1
970.2093	2428.546	3964.05	3082.9
970.3389	2429.9232	3959.75	3078.1
970.4685	2431.2996	3957	3076.1
970.5981	2432.6753	3932.85	3051.6
970.7277	2434.0503	3932.15	3051.35
970.8572	2435.4246	3917.85	3037.35
970.9867	2436.7982	3914	3030.85
971.1161	2438.1711	3898.8	3018.6
971.2456	2439.5433	3876.25	2994.3
971.375	2440.9148	3864.85	2980
971.5043	2442.2856	3852.95	2972.85
971.6336	2443.6557	3856.7	2973
971.7629	2445.025	3838.65	2959.1
971.8922	2446.3937	3825.7	2943
972.0214	2447.7617	3806.4	2923.15
972.1506	2449.1289	3820.5	2939.6
972.2798	2450.4955	3813.6	2928.5
972.4089	2451.8613	3783.65	2904.85
972.538	2453.2265	3783.4	2903.25
972.6671	2454.5909	3769.75	2888.4
972.7961	2455.9546	3768.8	2886.55
972.9251	2457.3177	3743.6	2862.75
973.0541	2458.68	3727.1	2845.85
973.1831	2460.0416	3747.5	2866.9
973.312	2461.4025	3751.15	2868.35
973.4408	2462.7627	3736.85	2845
973.5697	2464.1222	3705.1	2826.05
973.6985	2465.4811	3698.8	2816.75
973.8273	2466.8392	3690.5	2808.3
973.956	2468.1966	3681.1	2796.05
974.0847	2469.5533	3666.4	2784.35
974.2134	2470.9093	3668.35	2785.9
974.3421	2472.2645	3652.3	2769.95
974.4707	2473.6191	3641.05	2761.55
974.5993	2474.973	3624.05	2742.45
974.7278	2476.3262	3618.9	2736.1
974.8563	2477.6787	3614.55	2734.1
974.9848	2479.0305	3596.6	2714.55
975.1132	2480.3816	3589.75	2708.3
975.2417	2481.7319	3564.7	2683.4
975.37	2483.0816	3547.6	2665.75
975.4984	2484.4306	3556.2	2672.15
975.6267	2485.7789	3533.25	2653.3
975.755	2487.1264	3542.7	2659.7
975.8833	2488.4733	3505.95	2627.25
976.0115	2489.8195	3514.45	2625.65
976.1397	2491.165	3489.3	2604.55
976.2678	2492.5097	3497.3	2615.75
976.3959	2493.8538	3475.65	2593.35
976.524	2495.1972	3469.45	2587.7
976.6521	2496.5398	3451.45	2569.15
976.7801	2497.8818	3452.3	2569.6
976.9081	2499.2231	3433.4	2553.9
977.036	2500.5637	3420.2	2538.75
977.164	2501.9035	3408.15	2527.85
977.2918	2503.2427	3402.25	2517.9
977.4197	2504.5812	3396	2517.1
977.5475	2505.919	3395.2	2511.05
977.6753	2507.256	3382.4	2501.55
977.8031	2508.5924	3382.15	2500.45
977.9308	2509.9281	3366.75	2478.8
978.0585	2511.2631	3362.7	2480.9
978.1861	2512.5974	3362.95	2483.8
978.3137	2513.9309	3340.65	2459.6
978.4413	2515.2638	3347.45	2440.35
978.5689	2516.596	3315.95	2435.3
978.6964	2517.9275	3295.4	2414.3
978.8239	2519.2583	3290.5	2408.35
978.9513	2520.5884	3285.95	2402.8
979.0788	2521.9178	3269.1	2388.3
979.2062	2523.2465	3261.6	2379.5
979.3335	2524.5745	3255.45	2373.95
979.4608	2525.9018	3251.7	2371.2
979.5881	2527.2284	3239.5	2360.8
979.7154	2528.5543	3226.3	2347.7
979.8426	2529.8796	3219.3	2340.5
979.9698	2531.2041	3217.1	2336.1
980.0969	2532.5279	3204.3	2324.6
980.224	2533.851	3193.65	2312.35
980.3511	2535.1735	3202.45	2321.95
980.4781	2536.4952	3185.2	2302.95
980.6052	2537.8163	3183.55	2303.8
980.7321	2539.1366	3168.95	2288.95
980.8591	2540.4562	3176.3	2293.4
980.986	2541.7752	3160.45	2279.95
981.1129	2543.0935	3140.7	2259.95
981.2397	2544.411	3147.65	2267.3
981.3665	2545.7279	3132	2251.65
981.4933	2547.0441	3130.2	2250.8
981.62	2548.3596	3141	2256.65
981.7467	2549.6744	3118.9	2238.4
981.8734	2550.9885	3120.4	2230.25
982.0001	2552.3019	3101.9	2219.9
982.1267	2553.6146	3108.25	2227.4
982.2532	2554.9266	3077.4	2197.2
982.3798	2556.2379	3079.6	2198.1
982.5063	2557.5485	3073.85	2194.05
982.6327	2558.8585	3074.55	2186.3
982.7592	2560.1677	3076.55	2192.05
982.8856	2561.4762	3054.1	2174
983.0119	2562.7841	3053.35	2168.45
983.1383	2564.0913	3055.95	2176
983.2646	2565.3977	3047.15	2165.45
983.3908	2566.7035	3044.3	2163.6
983.517	2568.0086	3051.95	2169.05
983.6432	2569.313	3029.5	2149.85
983.7694	2570.6167	3029.95	2146.6
983.8955	2571.9197	3024.95	2144.45
984.0216	2573.222	3011.3	2127.15
984.1476	2574.5236	3008.1	2127.35
984.2737	2575.8246	3003.1	2120.1
984.3996	2577.1248	2989.8	2103.85
984.5256	2578.4244	2981.05	2102.35
984.6515	2579.7232	2970.6	2088.3
984.7774	2581.0214	2997.9	2090.95
984.9032	2582.3189	2981	2100.4
985.029	2583.6157	2971.8	2085.35
985.1548	2584.9118	2950.9	2070.05
985.2806	2586.2072	2937	2056.95
985.4063	2587.5019	2938.45	2059.1
985.5319	2588.7959	2936.4	2055.05
985.6576	2590.0893	2931.35	2048.45
985.7832	2591.3819	2913.25	2033.65
985.9087	2592.6739	2900.9	2020.95
986.0343	2593.9652	2910.3	2028.45
986.1597	2595.2557	2904.8	2024.2
986.2852	2596.5456	2887.85	2003.2
986.4106	2597.8348	2887.3	2007.6
986.536	2599.1234	2864.05	1981.7
986.6614	2600.4112	2860.3	1978.65
986.7867	2601.6983	2863.05	1979
986.912	2602.9848	2834.9	1953.4
987.0372	2604.2705	2837.4	1949.65
987.1624	2605.5556	2825.15	1943.15
987.2876	2606.84	2825.65	1944.9
987.4128	2608.1237	2810	1928.1
987.5379	2609.4067	2811.15	1931.2
987.6629	2610.689	2794.55	1906.45
987.788	2611.9707	2795.35	1911.45
987.913	2613.2516	2788	1902.85
988.0379	2614.5319	2767.35	1885.95
988.1629	2615.8115	2769.8	1887.7
988.2878	2617.0903	2748.2	1863.6
988.4126	2618.3685	2734.9	1852.95
988.5375	2619.6461	2735.85	1853.9
988.6622	2620.9229	2727.35	1846.1
988.787	2622.199	2723.45	1842.05
988.9117	2623.4745	2710.35	1829
989.0364	2624.7493	2710.55	1829.8
989.161	2626.0234	2710.5	1831.55
989.2857	2627.2968	2701.7	1820.5
989.4102	2628.5695	2685.65	1804.7
989.5348	2629.8415	2671	1789.8
989.6593	2631.1128	2670.55	1788.05
989.7837	2632.3835	2667.95	1783.85
989.9082	2633.6535	2655.9	1774.45
990.0326	2634.9228	2633.3	1752.05
990.1569	2636.1914	2643.45	1763.2
990.2812	2637.4593	2641.05	1753.75
990.4055	2638.7265	2632.2	1749.8
990.5298	2639.9931	2611.9	1733.45
990.654	2641.259	2609.4	1725.7
990.7782	2642.5242	2608.55	1727.8
990.9023	2643.7887	2599.5	1716.4
991.0264	2645.0525	2593.3	1712.4
991.1505	2646.3156	2587.8	1706.85
991.2745	2647.5781	2572.65	1690.65
991.3985	2648.8398	2567.15	1685.2
991.5225	2650.1009	2587.05	1669.45
991.6464	2651.3613	2560.6	1679.8
991.7703	2652.6211	2560.4	1681.1
991.8942	2653.8801	2538.95	1660
992.018	2655.1385	2543.05	1658.9
992.1418	2656.3961	2538	1658
992.2655	2657.6531	2526.25	1646.1
992.3892	2658.9094	2517.55	1634.75
992.5129	2660.1651	2520	1640.35
992.6366	2661.42	2521.7	1640.9
992.7602	2662.6743	2513.95	1632.55
992.8837	2663.9279	2506.9	1627.65
993.0073	2665.1808	2505.2	1622.1
993.1307	2666.433	2503.5	1622.1
993.2542	2667.6846	2496.65	1616.45
993.3776	2668.9354	2479.05	1594.45
993.501	2670.1856	2479.2	1596.95
993.6244	2671.4351	2475.65	1596.25
993.7477	2672.6839	2474	1591.5
993.8709	2673.9321	2459	1578.7
993.9942	2675.1795	2450.7	1570.75
994.1174	2676.4263	2451.15	1569.85
994.2405	2677.6724	2432.1	1551.5
994.3637	2678.9179	2446.4	1563.3
994.4868	2680.1626	2434.7	1556
994.6098	2681.4067	2429.8	1549.05
994.7328	2682.6501	2427.8	1546.5
994.8558	2683.8928	2407.45	1527.9
994.9788	2685.1348	2401.8	1521.5
995.1017	2686.3761	2407	1526.55
995.2245	2687.6168	2395.6	1514.75
995.3474	2688.8568	2392.9	1513.35
995.4702	2690.0961	2375.2	1494.85
995.5929	2691.3348	2372.5	1491.9
995.7156	2692.5727	2371	1490.3
995.8383	2693.81	2354.85	1472.75
995.961	2695.0466	2360.55	1483.6
996.0836	2696.2826	2360.35	1477.85
996.2062	2697.5178	2361.45	1460.25
996.3287	2698.7524	2349.2	1468.05
996.4512	2699.9863	2345.65	1461.85
996.5737	2701.2195	2334.75	1454.5
996.6961	2702.452	2323	1440.3
996.8185	2703.6839	2317.85	1436.75
996.9408	2704.9151	2319.25	1438.3
997.0631	2706.1456	2309.55	1427.55
997.1854	2707.3755	2294.95	1414.6
997.3077	2708.6046	2304	1421.8
997.4299	2709.8331	2292.05	1411.95
997.552	2711.0609	2283.25	1402.85
997.6742	2712.2881	2286.8	1405.75
997.7963	2713.5145	2279.05	1396.15
997.9183	2714.7403	2278.75	1399.85
998.0403	2715.9654	2261.95	1380.8
998.1623	2717.1899	2278.15	1382.3
998.2842	2718.4136	2254.55	1374.3
998.4062	2719.6367	2249.15	1368.3
998.528	2720.8591	2238.1	1350.2
998.6498	2722.0809	2232.15	1350.15
998.7716	2723.3019	2232.15	1347.75
998.8934	2724.5223	2225.8	1343.15
999.0151	2725.7421	2215.8	1334.1
999.1368	2726.9611	2217.95	1334.7
999.2584	2728.1795	2213.9	1328.3
999.38	2729.3972	2208.7	1328.5
999.5016	2730.6142	2210.4	1318.05
999.6231	2731.8306	2181.3	1299.5
999.7446	2733.0462	2178.4	1295.3
999.8661	2734.2612	2180.95	1295.75
999.9875	2735.4756	2165.5	1283.4
1000.1089	2736.6892	2163.15	1280.95
1000.2302	2737.9022	2150.5	1270.4
1000.3515	2739.1145	2152.6	1272.6
1000.4728	2740.3262	2151.15	1260.1
1000.594	2741.5372	2125.15	1246
1000.7152	2742.7475	2129.1	1247.55
1000.8363	2743.9571	2128.15	1245.75
1000.9575	2745.1661	2124.75	1239.7
1001.0785	2746.3744	2117.4	1235.35
1001.1996	2747.582	2106.4	1226
1001.3206	2748.7889	2112.3	1226.95
1001.4415	2749.9952	2108.9	1228.35
1001.5625	2751.2008	2081.55	1199.55
1001.6833	2752.4057	2097.05	1214.1
1001.8042	2753.61	2087.6	1206.5
1001.925	2754.8136	2098.45	1216.45
1002.0458	2756.0165	2077.6	1194.6
1002.1665	2757.2188	2064.9	1184.95
1002.2872	2758.4204	2063.4	1181.55
1002.4078	2759.6213	2061.9	1177.3
1002.5285	2760.8215	2072.55	1188.75
1002.649	2762.0211	2060.4	1176.8
1002.7696	2763.22	2058.05	1173.95
1002.8901	2764.4182	2043.85	1161.25
1003.0106	2765.6158	2047.1	1165.3
1003.131	2766.8127	2040.05	1160.2
1003.2514	2768.009	2029.35	1148.6
1003.3717	2769.2045	2030.5	1149.35
1003.492	2770.3994	2024.55	1142.15
1003.6123	2771.5936	2024.15	1141.8
1003.7325	2772.7872	2009.4	1130.45
1003.8527	2773.9801	1994.85	1110.95
1003.9729	2775.1723	2007.15	1107.3
1004.093	2776.3639	1992.7	1113.1
1004.2131	2777.5548	1999.75	1115.6
1004.3331	2778.745	1995	1113.3
1004.4531	2779.9346	1986	1106.95
1004.5731	2781.1235	1973.5	1092.35
1004.693	2782.3117	1973.8	1094.65
1004.8129	2783.4992	1966.9	1086.9
1004.9328	2784.6861	1962.05	1083.25
1005.0526	2785.8723	1966.5	1085.05
1005.1723	2787.0579	1959.85	1078.8
1005.2921	2788.2428	1947.1	1065.5
1005.4118	2789.427	1948.65	1068.55
1005.5314	2790.6106	1942.85	1062.25
1005.651	2791.7935	1929.15	1048.25
1005.7706	2792.9757	1931.3	1051.9
1005.8902	2794.1573	1928.7	1045.6
1006.0097	2795.3382	1926.5	1046.05
1006.1291	2796.5184	1920.7	1041.9
1006.2485	2797.698	1901.1	1019.5
1006.3679	2798.8769	1905.75	1024.95
1006.4873	2800.0551	1897.35	1017.4
1006.6066	2801.2327	1889.05	1005.1
1006.7258	2802.4096	1896.5	1018.3
1006.8451	2803.5859	1893.15	1012.3
1006.9642	2804.7615	1889.6	1010.15
1007.0834	2805.9364	1875.35	996.95
1007.2025	2807.1106	1871	991.3
1007.3216	2808.2842	1873.9	991.55
1007.4406	2809.4572	1873.35	992.65
1007.5596	2810.6294	1862	979.6
1007.6785	2811.801	1863.75	986.25
1007.7975	2812.972	1859.35	977.8
1007.9163	2814.1423	1855.75	975.75
1008.0352	2815.3119	1860.55	978.4
1008.154	2816.4808	1860	979.65
1008.2727	2817.6491	1846.6	967.05
1008.3914	2818.8167	1850.15	971.25
1008.5101	2819.9837	1862.95	977
1008.6288	2821.15	1858.8	979.55
1008.7474	2822.3157	1848.25	968
1008.8659	2823.4807	1865.35	984.7
1008.9844	2824.645	1866.25	985.45
1009.1029	2825.8086	1863.2	981.15
1009.2214	2826.9716	1875.3	995.4
1009.3398	2828.134	1884.4	1003.55
1009.4581	2829.2957	1884.55	1005.4
1009.5764	2830.4567	1886.35	1007.7
1009.6947	2831.617	1885.55	1005.9
1009.813	2832.7767	1887.7	1007.3
1009.9312	2833.9358	1895.4	1013.55
1010.0493	2835.0941	1884.5	1002
1010.1675	2836.2519	1879.3	998.8
1010.2855	2837.4089	1875.15	994.45
1010.4036	2838.5653	1857.75	979.85
1010.5216	2839.7211	1859.25	979.75
1010.6396	2840.8761	1852	971.2
1010.7575	2842.0306	1851.5	973.35
1010.8754	2843.1843	1839.6	957.1
1010.9932	2844.3374	1846	965.5
1011.111	2845.4899	1845.1	963.05
1011.2288	2846.6417	1839.9	959.6
1011.3465	2847.7928	1840.6	960.4
1011.4642	2848.9433	1836.7	956.75
1011.5818	2850.0931	1839.8	961.2
1011.6995	2851.2422	1832.55	949.55
1011.817	2852.3907	1835.35	954.7
1011.9345	2853.5385	1827.4	944.7
1012.052	2854.6857	1839.7	948.95
1012.1695	2855.8323	1819.75	942.5
1012.2869	2856.9781	1821.7	940.45
1012.4042	2858.1233	1827	948
1012.5216	2859.2679	1817.75	936.75
1012.6389	2860.4118	1828.9	947.4
1012.7561	2861.555	1823.9	937.5
1012.8733	2862.6976	1820.05	937.3
1012.9905	2863.8395	1822.8	944.7
1013.1076	2864.9808	1824.65	944.85
1013.2247	2866.1214	1820.7	942.45
1013.3417	2867.2614	1822	942.75
1013.4587	2868.4007	1814.5	931.5
1013.5757	2869.5393	1808.6	926.25
1013.6926	2870.6773	1814.55	930.65
1013.8095	2871.8146	1807.65	924.05
1013.9263	2872.9513	1814.8	931.5
1014.0431	2874.0874	1810.35	929.75
1014.1599	2875.2227	1804.4	922.85
1014.2766	2876.3574	1798.5	919.9
1014.3933	2877.4915	1797.45	917.2
1014.51	2878.6249	1803.15	922.55
1014.6266	2879.7577	1799.95	918.55
1014.7431	2880.8898	1804.25	914.6
1014.8596	2882.0212	1787.75	909.25
1014.9761	2883.152	1789.7	907
1015.0925	2884.2821	1790.75	912.35
1015.2089	2885.4116	1786.75	905.8
1015.3253	2886.5405	1787.3	904.7
1015.4416	2887.6686	1786.3	904.45
1015.5579	2888.7962	1778.4	898.7
1015.6741	2889.923	1774	896.5
1015.7903	2891.0493	1774.8	894.3
1015.9065	2892.1748	1774.4	894.3
1016.0226	2893.2997	1770.1	889.3
1016.1387	2894.424	1762.7	882.1
1016.2547	2895.5476	1770.85	891.95
1016.3707	2896.6706	1758.8	878.8
1016.4866	2897.7929	1756.1	876.9
1016.6025	2898.9145	1745.65	866.3
1016.7184	2900.0355	1744.8	861.35
1016.8342	2901.1559	1738.9	858.8
1016.95	2902.2756	1737.25	857.95
1017.0658	2903.3946	1744	864.6
1017.1815	2904.513	1731.4	850
1017.2971	2905.6308	1731.05	851.1
1017.4127	2906.7479	1718.95	838.75
1017.5283	2907.8643	1719.35	837.75
1017.6439	2908.9801	1706.6	825.7
1017.7594	2910.0953	1709.95	828.6
1017.8748	2911.2098	1706.65	822.9
1017.9902	2912.3236	1710.1	822.4
1018.1056	2913.4368	1703.25	821.9
1018.2209	2914.5494	1702.6	821.95
1018.3362	2915.6613	1698.85	814.45
1018.4515	2916.7725	1694.6	810.25
1018.5667	2917.8831	1684.6	803.25
1018.6819	2918.9931	1673.8	790.1
1018.797	2920.1024	1679.35	797.25
1018.9121	2921.211	1673	793.3
1019.0271	2922.319	1667.2	787.65
1019.1421	2923.4264	1661.7	782
1019.2571	2924.5331	1655.55	778.45
1019.372	2925.6391	1652.8	772.8
1019.4869	2926.7445	1647.35	767.8
1019.6017	2927.8493	1651.95	770.2
1019.7165	2928.9534	1642.35	761.65
1019.8313	2930.0569	1652.1	769.3
1019.946	2931.1597	1650.15	769.65
1020.0606	2932.2619	1645.85	765
1020.1753	2933.3634	1643.85	762.9
1020.2899	2934.4643	1655.6	768.2
1020.4044	2935.5645	1648.75	764.2
1020.5189	2936.6641	1646.05	761.8
1020.6334	2937.763	1637.6	759.35
1020.7478	2938.8613	1638.45	756.9
1020.8622	2939.959	1643.15	759.6
1020.9765	2941.056	1624.4	748.05
1021.0908	2942.1523	1620.2	737.7
1021.2051	2943.248	1617.15	736.15
1021.3193	2944.3431	1589.9	709.8
1021.4334	2945.4375	1584.05	702.95
1021.5476	2946.5313	1568.8	690.1
1021.6617	2947.6244	1567.5	686.35
1021.7757	2948.7169	1563	680.1
1021.8897	2949.8087	1546.7	668.1
1022.0037	2950.8999	1546.4	663.9
1022.1176	2951.9904	1531.95	654.5
1022.2315	2953.0803	1520.9	640.75
1022.3453	2954.1696	1513.65	635.6
1022.4591	2955.2582	1511.2	632.1
1022.5728	2956.3462	1511.9	633.65
1022.6865	2957.4335	1506.5	624.75
1022.8002	2958.5202	1496.2	613.4
1022.9138	2959.6062	1500.8	621.95
1023.0274	2960.6916	1496.35	615.65
1023.141	2961.7764	1496.65	614.35
1023.2545	2962.8605	1489.65	609.3
1023.3679	2963.9439	1482.9	602.95
1023.4813	2965.0267	1484.85	603.55
1023.5947	2966.1089	1500	594.15
1023.708	2967.1905	1468.7	587.35
1023.8213	2968.2714	1475.3	596.1
1023.9346	2969.3516	1466.55	587.15
1024.0478	2970.4312	1472.85	585.8
1024.1609	2971.5102	1464.6	586.1
1024.274	2972.5885	1466.75	587.9
1024.3871	2973.6662	1465.05	578.85
1024.5002	2974.7432	1458.25	578.2
1024.6132	2975.8196	1457.45	574.6
1024.7261	2976.8954	1450.75	571.3
1024.839	2977.9705	1450.9	572.25
1024.9519	2979.045	1448.15	566.6
1025.0647	2980.1188	1447.8	567.75
1025.1775	2981.192	1432.9	552.95
1025.2902	2982.2645	1439.4	557.1
1025.4029	2983.3364	1434.05	555.35
1025.5156	2984.4077	1432.3	553.2
1025.6282	2985.4783	1430	543.25
1025.7407	2986.5483	1428.6	551.15
1025.8532	2987.6177	1419.95	539.4
1025.9657	2988.6864	1414	533.75
1026.0782	2989.7545	1411.45	529.7
1026.1906	2990.8219	1413.35	535.35
1026.3029	2991.8887	1409.85	528.2
1026.4152	2992.9548	1404.9	523.5
1026.5275	2994.0204	1399.3	518.7
1026.6397	2995.0852	1386.85	507.8
1026.7519	2996.1495	1380	498.6
1026.864	2997.2131	1382.7	501.9
1026.9761	2998.276	1378.3	497.55
1027.0882	2999.3383	1375.8	495
1027.2002	3000.4	1374	492.45
1027.3122	3001.4611	1366.1	485.6
1027.4241	3002.5215	1358.6	478.45
1027.536	3003.5812	1356.3	476.05
1027.6478	3004.6404	1352.65	473.05
1027.7596	3005.6989	1353.2	473.25
1027.8714	3006.7567	1352.65	472.85
1027.9831	3007.8139	1371.7	467.75
1028.0947	3008.8705	1340.85	461.85
1028.2064	3009.9264	1344.75	461.9
1028.3179	3010.9818	1337.45	456.85
1028.4295	3012.0364	1334.5	452.7
1028.541	3013.0905	1341.95	460.5
1028.6524	3014.1439	1330.6	453
1028.7638	3015.1966	1329.05	449.85
1028.8752	3016.2487	1332.4	450.45
1028.9865	3017.3002	1329.35	444.4
1029.0978	3018.3511	1318.75	440.7
1029.209	3019.4013	1325.4	444.8
1029.3202	3020.4509	1322.35	443.95
1029.4314	3021.4998	1325.75	443.7
1029.5425	3022.5481	1319	437.5
1029.6535	3023.5958	1316.45	435.8
1029.7645	3024.6428	1312.4	431.3
1029.8755	3025.6892	1307.45	428.05
1029.9864	3026.735	1306.5	426.8
1030.0973	3027.7802	1303.65	424.1
1030.2082	3028.8247	1308.5	427.65
1030.319	3029.8685	1302.35	420.1
1030.4297	3030.9118	1301.5	420.75
1030.5404	3031.9544	1302.3	420.95
1030.6511	3032.9963	1294.1	412.8
1030.7617	3034.0376	1296.95	416.2
1030.8723	3035.0783	1289.25	408.85
1030.9829	3036.1184	1290.45	408.15
1031.0934	3037.1578	1286.7	407.25
1031.2038	3038.1966	1286.9	404.25
1031.3142	3039.2348	1282.25	402.35
1031.4246	3040.2723	1297.45	408.2
1031.5349	3041.3092	1279.9	400.6
1031.6452	3042.3455	1275.9	393.5
1031.7554	3043.3811	1281	401.15
1031.8656	3044.4161	1273.55	392.8
1031.9758	3045.4505	1277.75	398.7
1032.0859	3046.4842	1276.15	396.05
1032.1959	3047.5173	1278.35	398.75
1032.3059	3048.5498	1274.25	393.75
1032.4159	3049.5816	1271.5	392.15
1032.5258	3050.6128	1273.95	393.9
1032.6357	3051.6434	1265.65	383.3
1032.7455	3052.6734	1270.2	389.85
1032.8553	3053.7027	1273.05	393.9
1032.9651	3054.7314	1265.05	385.1
1033.0748	3055.7594	1265.45	385.35
1033.1845	3056.7868	1262.5	382.2
1033.2941	3057.8136	1256.8	376.65
1033.4037	3058.8398	1254	374.85
1033.5132	3059.8653	1256.3	376.45
1033.6227	3060.8902	1254.2	373.3
1033.7321	3061.9145	1252.7	373
1033.8415	3062.9381	1249.25	367.45
1033.9509	3063.9612	1267.8	373.25
1034.0602	3064.9835	1249.6	370.5
1034.1694	3066.0053	1249.65	365.55
1034.2787	3067.0264	1248.35	371.85
1034.3878	3068.0469	1243.8	359.85
1034.497	3069.0668	1250.05	368.15
1034.6061	3070.086	1243.7	364.8
1034.7151	3071.1046	1242.5	362.25
1034.8241	3072.1226	1241.25	357.85
1034.9331	3073.1399	1237.1	358.15
1035.042	3074.1567	1237.9	357.7
1035.1508	3075.1727	1233.8	353.6
1035.2597	3076.1882	1233.65	351.85
1035.3684	3077.203	1232.75	352.3
1035.4772	3078.2173	1228.85	346.6
1035.5859	3079.2308	1231.75	348.15
1035.6945	3080.2438	1221.95	341.25
1035.8031	3081.2561	1228.25	349
1035.9117	3082.2678	1217.75	338.1
1036.0202	3083.2789	1219.3	339.6
1036.1286	3084.2893	1218.3	338.85
1036.2371	3085.2991	1216.6	335.6
1036.3454	3086.3083	1218.2	334.85
1036.4538	3087.3169	1213.85	331.5
1036.562	3088.3248	1208.2	325.2
1036.6703	3089.3321	1209.7	327.6
1036.7785	3090.3388	1202.75	324.15
1036.8866	3091.3449	1207.45	327.5
1036.9948	3092.3503	1210.2	327.6
1037.1028	3093.3551	1200.95	322.85
1037.2108	3094.3593	1198.45	318.45
1037.3188	3095.3629	1201.7	325.75
1037.4267	3096.3658	1194.8	311.6
1037.5346	3097.3681	1194.4	313.95
1037.6425	3098.3698	1197.3	315.2
1037.7503	3099.3708	1197.7	311.2
1037.858	3100.3713	1189.35	310.3
1037.9657	3101.3711	1187.55	306.1
1038.0734	3102.3702	1316.95	299.9
1038.181	3103.3688	1192.35	311.15
1038.2886	3104.3667	1183.2	303.3
1038.3961	3105.364	1181.65	303.9
1038.5036	3106.3607	1182.75	301.8
1038.611	3107.3568	1182.85	301.1
1038.7184	3108.3522	1173.25	295.1
1038.8257	3109.347	1172	290.15
1038.933	3110.3412	1172.55	288.75
1039.0403	3111.3348	1169.35	288.8
1039.1475	3112.3277	1166.2	286.95
1039.2547	3113.32	1171.2	292.45
1039.3618	3114.3117	1164.9	283.45
1039.4689	3115.3028	1167.8	289.3
1039.5759	3116.2932	1162.6	279.55
1039.6829	3117.2831	1168.75	284
1039.7898	3118.2723	1155.1	275.95
1039.8967	3119.2608	1155.05	276.1
1040.0035	3120.2488	1155.05	272.85
1040.1103	3121.2361	1158.2	277.6
1040.2171	3122.2229	1153.35	271.85
1040.3238	3123.209	1152.35	272.55
1040.4305	3124.1944	1146.3	266.35
1040.5371	3125.1793	1150.05	271.85
1040.6437	3126.1635	1141.85	262.1
1040.7502	3127.1471	1143	261.95
1040.8567	3128.1301	1143.3	265.8
1040.9631	3129.1125	1141.65	262.2
1041.0695	3130.0942	1140	261.7
1041.1759	3131.0753	1152.5	264.25
1041.2822	3132.0558	1141.65	259.85
1041.3884	3133.0357	1138.4	258.8
1041.4946	3134.015	1139.3	257.5
1041.6008	3134.9936	1137.25	257.2
1041.7069	3135.9716	1154.55	254.3
1041.813	3136.949	1137.45	255.65
1041.919	3137.9258	1139.3	254.75
1042.025	3138.902	1135.7	250.9
1042.1309	3139.8775	1130.95	250.05
1042.2368	3140.8524	1131.4	249.8
1042.3427	3141.8267	1128.2	246.7
1042.4485	3142.8004	1128.45	248.4
1042.5542	3143.7735	1134.5	248.05
1042.6599	3144.7459	1125.65	243.45
1042.7656	3145.7178	1131.7	251.65
1042.8712	3146.689	1120.35	239.75
1042.9768	3147.6596	1121.5	240.75
1043.0823	3148.6295	1121.75	239.5
1043.1878	3149.5989	1122.25	242.65
1043.2932	3150.5676	1116.4	238.9
1043.3986	3151.5357	1113	233.3
1043.5039	3152.5032	1113.9	234.6
1043.6092	3153.4701	1112.7	231.6
1043.7145	3154.4364	1111.6	229.25
1043.8197	3155.402	1112.1	234.45
1043.9248	3156.367	1112.6	229.85
1044.03	3157.3315	1144.45	227
1044.135	3158.2952	1103.9	222.4
1044.24	3159.2584	1108	229
1044.345	3160.221	1109.1	228.55
1044.4499	3161.1829	1104.35	222.1
1044.5548	3162.1442	1101	221.45
1044.6596	3163.105	1101.2	221.85
1044.7644	3164.065	1097.6	217.5
1044.8692	3165.0245	1100.5	216.4
1044.9739	3165.9834	1092.75	213.45
1045.0785	3166.9416	1095.8	216.2
1045.1831	3167.8993	1096.05	215.9
1045.2877	3168.8563	1096.85	214.85
1045.3922	3169.8127	1092.2	213.6
1045.4966	3170.7684	1093.85	213.85
1045.6011	3171.7236	1093.5	212.85
1045.7054	3172.6782	1093.1	213.15
1045.8098	3173.6321	1091.15	210.7
1045.914	3174.5854	1086.8	202.15
1046.0183	3175.5381	1086.85	206.75
1046.1224	3176.4902	1082.45	204.3
1046.2266	3177.4417	1085.7	207.6
1046.3307	3178.3926	1078.85	197.05
1046.4347	3179.3428	1073.1	194.4
1046.5387	3180.2924	1078.35	198.9
1046.6427	3181.2415	1080.8	199.9
1046.7466	3182.1899	1075.7	194.65
1046.8504	3183.1377	1079.3	200.55
1046.9542	3184.0848	1078.4	195.35
1047.058	3185.0314	1072.8	194.35
1047.1617	3185.9773	1073.1	192.6
1047.2654	3186.9227	1074.75	193.8
1047.369	3187.8674	1069.95	188.2
1047.4726	3188.8115	1075.3	191.05
1047.5761	3189.755	1071.55	193.35
1047.6796	3190.6979	1068.4	188.3
1047.783	3191.6402	1066	188.2
1047.8864	3192.5818	1062.35	180.4
1047.9898	3193.5229	1071.45	184.4
1048.0931	3194.4633	1071	192.45
1048.1963	3195.4031	1068.85	188
1048.2995	3196.3423	1064.15	183.85
1048.4027	3197.2809	1067.15	185.25
1048.5058	3198.2189	1061.25	182.85
1048.6089	3199.1563	1068.7	183.4
1048.7119	3200.0931	1059.2	180.4
1048.8148	3201.0292	1059.05	180.15
1048.9178	3201.9648	1057.85	176.85
1049.0206	3202.8997	1056.75	172.7
1049.1235	3203.834	1055	175.85
1049.2262	3204.7677	1054.25	174.6
1049.329	3205.7008	1055.95	174.25
1049.4317	3206.6333	1053.85	175.35
1049.5343	3207.5652	1052.05	170.95
1049.6369	3208.4964	1051	172.3
1049.7394	3209.4271	1047.45	166.3
1049.8419	3210.3571	1050.2	172.15
1049.9444	3211.2865	1050.7	171.5
1050.0468	3212.2154	1049.95	169.4
1050.1491	3213.1436	1049.5	167.6
1050.2514	3214.0712	1052.2	166.5
1050.3537	3214.9982	1044.5	165.9
1050.4559	3215.9246	1041.85	160.55
1050.5581	3216.8503	1039.8	164.05
1050.6602	3217.7755	1042.95	162.9
1050.7623	3218.7001	1038.4	159.7
1050.8643	3219.624	1043.4	164.65
1050.9663	3220.5473	1034.85	153.7
1051.0682	3221.4701	1040.25	160.75
1051.1701	3222.3922	1040.95	160.95
1051.2719	3223.3137	1038.1	157.85
1051.3737	3224.2346	1036.05	157.35
1051.4754	3225.1549	1035.25	155.15
1051.5771	3226.0746	1032.6	153.25
1051.6788	3226.9937	1036.8	157.9
1051.7804	3227.9121	1032.9	154.15
1051.8819	3228.83	1033.85	155.55
1051.9834	3229.7473	1036.05	155.85
1052.0849	3230.6639	1030.95	151.1
1052.1863	3231.5799	1027.65	148.35
1052.2876	3232.4954	1030.05	148.65
1052.3889	3233.4102	1027.15	147.65
1052.4902	3234.3244	1030.15	149.45
1052.5914	3235.238	1025.75	145.35
1052.6926	3236.151	1053.45	150.55
1052.7937	3237.0634	1026.35	148.7
1052.8948	3237.9752	1024.9	143.3
1052.9958	3238.8864	1022.8	143.7
1053.0968	3239.797	1022.2	142.45
1053.1977	3240.7069	1022.75	143.65
1053.2986	3241.6163	1021	141.2
1053.3994	3242.5251	1014.95	134.8
1053.5002	3243.4332	1019.55	139.7
1053.6009	3244.3408	1013.35	130
1053.7016	3245.2477	1014.15	137.05
1053.8022	3246.154	1016.6	136
1053.9028	3247.0598	1017.6	136.35
1054.0034	3247.9649	1015.65	136.65
1054.1039	3248.8694	1017	137
1054.2043	3249.7733	1014.75	136.35
1054.3047	3250.6766	1015.55	135.15
1054.4051	3251.5793	1014.8	133.15
1054.5054	3252.4814	1007.3	129.45
1054.6056	3253.3829	1010.6	129.45
1054.7058	3254.2838	1008.25	130.15
1054.806	3255.1841	1001.9	122.85
1054.9061	3256.0838	1007.25	127.15
1055.0061	3256.9829	1004.55	128.35
1055.1062	3257.8814	1005.2	123.95
1055.2061	3258.7792	1008.05	128.25
1055.306	3259.6765	1001.7	120.85
1055.4059	3260.5731	997.4	117.05
1055.5057	3261.4692	997.75	117
1055.6055	3262.3647	996.9	117.65
1055.7052	3263.2595	996.3	114.7
1055.8049	3264.1538	992.4	111.3
1055.9045	3265.0474	992.8	113.45
1056.0041	3265.9404	993.9	116.15
1056.1036	3266.8329	989.2	108.45
1056.2031	3267.7247	1000.2	110.8
1056.3025	3268.616	982.8	102.3
1056.4019	3269.5066	980.7	98.75
1056.5013	3270.3966	981.85	101.3
1056.6005	3271.286	977.55	98.2
