Software Version:	3.9.2.0
Unit SN:	10000200
Spectrometer SN:	6960
Date:	3/6/2024 9:25:34 AM
Data Line Index:	25
Spectral Points:	2048
Integration time (ms):	125
Averages:	20
Delay (ms):	30
Sequence Number:	1
Processing:	dark subtract
Laser Power (mW):	300
Laser Current (mA):	815
Laser Diode Temp (C):	25.1
Laser Case Temp (C):	22.7
System Temp (C):	22.6
Spectrometer Temp (C):	20.6
CCD Temp (C):	-0.037
Secondary Temp (C):	20.011
Heatsink Temp (C):	17.393
CCDPCB Temp (C):	29.437
SecondaryPCB Temp (C):	24.946

Wavelength	RamanShift	Raw Counts	Dark Subtracted
787.061	30.1047	650.25	242.5
787.2016	32.3739	665.25	258.5
787.3422	34.6426	674.9	267.65
787.4828	36.9109	689.1	281.45
787.6235	39.1787	711.15	298
787.7642	41.4461	726.95	310
787.9049	43.7131	752.25	331.4
788.0456	45.9796	779.85	356.65
788.1863	48.2456	798.35	372.55
788.3271	50.5112	824.25	391.95
788.4679	52.7764	844.25	410.85
788.6087	55.0411	875.15	436.45
788.7496	57.3054	905.1	461.7
788.8904	59.5692	933	490.6
789.0313	61.8326	963.2	516.45
789.1722	64.0955	1012.95	563.15
789.3132	66.3579	1055.55	600.1
789.4541	68.6199	1118.75	659.95
789.5951	70.8815	1218.05	755.05
789.7361	73.1426	1439.2	971.7
789.8771	75.4032	2003.45	1534.65
790.0181	77.6634	3387	2915.6
790.1592	79.9231	6841.4	6367.35
790.3003	82.1824	14378.2	13900
790.4414	84.4412	29524.2	29039.05
790.5825	86.6995	52972.8	52483.75
790.7237	88.9574	63428.2	62935.65
790.8648	91.2148	65535	65040.15
791.006	93.4717	65535	65033.5
791.1472	95.7282	65535	65032.95
791.2885	97.9842	65535	65030.3
791.4297	100.2398	65535	65030.35
791.571	102.4949	65535	65025.35
791.7123	104.7495	65535	65023.55
791.8536	107.0036	65535	65023
791.9949	109.2573	65535	65024.5
792.1363	111.5105	65535	65019.7
792.2777	113.7632	65535	65019.55
792.4191	116.0154	65535	65006.9
792.5605	118.2672	65535	65011.95
792.7019	120.5185	65535	65011.45
792.8434	122.7693	65535	65007
792.9849	125.0197	65535	65000.9
793.1264	127.2696	65535	65000.4
793.2679	129.519	65535	64996.8
793.4094	131.7679	65535	64999
793.551	134.0163	65535	64994.4
793.6926	136.2642	65535	64992.5
793.8342	138.5117	65535	64987.45
793.9758	140.7587	65535	64985.6
794.1175	143.0052	65535	64982.4
794.2591	145.2512	65535	64981.65
794.4008	147.4967	65535	64979.6
794.5425	149.7417	65535	64977.15
794.6842	151.9863	65535	64971.55
794.826	154.2304	65535	64967.7
794.9677	156.4739	65535	64961.65
795.1095	158.717	65535	64963.25
795.2513	160.9596	65535	64958.1
795.3931	163.2017	65535	64957.9
795.535	165.4433	65535	64956.25
795.6768	167.6844	65535	64953
795.8187	169.925	65535	64948.5
795.9606	172.1651	65535	64944.7
796.1025	174.4047	65535	64940.5
796.2445	176.6439	65535	64940.3
796.3864	178.8825	65535	64936.15
796.5284	181.1206	65535	64932.1
796.6704	183.3582	65535	64930.95
796.8124	185.5954	65535	64930
796.9544	187.832	65535	64921.5
797.0965	190.0681	65535	64921.55
797.2386	192.3037	65535	64915.45
797.3806	194.5388	65535	64914.55
797.5228	196.7734	65535	64915.5
797.6649	199.0075	65535	64913.05
797.807	201.2411	65535	64911.75
797.9492	203.4742	65535	64907.5
798.0914	205.7068	65535	64904.55
798.2336	207.9389	65535	64908.5
798.3758	210.1704	65535	64917.35
798.518	212.4015	65535	64924.95
798.6603	214.632	65535	64927.4
798.8025	216.862	65535	64927.2
798.9448	219.0915	65535	64924.6
799.0871	221.3205	65535	64923.8
799.2294	223.549	65535	64929.3
799.3718	225.777	65535	64924.45
799.5141	228.0044	65535	64914.5
799.6565	230.2314	65535	64913.8
799.7989	232.4578	65535	64911.1
799.9413	234.6837	65535	64900.2
800.0837	236.909	65535	64900.15
800.2262	239.1339	65535	64874.5
800.3687	241.3582	65535	64890.55
800.5111	243.582	65535	64859.85
800.6536	245.8053	65535	64872.2
800.7961	248.0281	65535	64879.25
800.9387	250.2503	65535	64875.7
801.0812	252.472	65535	64872.75
801.2238	254.6932	65535	64875.25
801.3664	256.9139	65535	64873
801.509	259.134	65535	64870
801.6516	261.3536	65535	64869.4
801.7942	263.5727	65535	64870.05
801.9369	265.7912	65535	64871.35
802.0795	268.0092	65535	64870.2
802.2222	270.2267	65535	64866.2
802.3649	272.4436	65535	64864.7
802.5076	274.6601	65535	64854.45
802.6504	276.8759	65535	64859.1
802.7931	279.0913	65535	64858.05
802.9359	281.3061	65535	64857.45
803.0787	283.5204	65535	64854.75
803.2215	285.7341	65535	64854.95
803.3643	287.9473	65535	64841.9
803.5071	290.16	65535	64849.65
803.6499	292.3721	65535	64854.9
803.7928	294.5837	65535	64853.5
803.9357	296.7947	65535	64853.95
804.0786	299.0052	65535	64851.1
804.2215	301.2152	65535	64848.9
804.3644	303.4246	65535	64849.2
804.5074	305.6334	65535	64849.35
804.6503	307.8418	65535	64848.1
804.7933	310.0495	65535	64844.55
804.9363	312.2568	65535	64845.9
805.0793	314.4635	65535	64843.2
805.2223	316.6696	65535	64839.95
805.3653	318.8752	65535	64827.95
805.5084	321.0802	65535	64837.1
805.6514	323.2847	65535	64837.15
805.7945	325.4887	65535	64835.7
805.9376	327.692	65535	64832.5
806.0807	329.8949	65535	64833.7
806.2238	332.0972	65535	64830.5
806.367	334.2989	65535	64827.1
806.5101	336.5001	65535	64827.5
806.6533	338.7007	65535	64827.2
806.7965	340.9008	65535	64824.85
806.9397	343.1003	65535	64822.4
807.0829	345.2992	65535	64820.6
807.2261	347.4976	65535	64823.8
807.3693	349.6955	65535	64816.25
807.5126	351.8927	65535	64815.4
807.6559	354.0895	65535	64804.45
807.7991	356.2856	65535	64811.25
807.9424	358.4812	65535	64812.65
808.0857	360.6763	65535	64808.3
808.2291	362.8707	65535	64809.5
808.3724	365.0646	65535	64802.65
808.5158	367.258	65535	64803.15
808.6591	369.4508	65535	64799.3
808.8025	371.643	65535	64801.6
808.9459	373.8346	65535	64798.8
809.0893	376.0257	65535	64796.9
809.2327	378.2162	65535	64797.65
809.3762	380.4062	65535	64799.8
809.5196	382.5956	65535	64798.35
809.6631	384.7844	65535	64805.75
809.8066	386.9726	65535	64806.9
809.9501	389.1603	65535	64804.85
810.0936	391.3474	65535	64755.5
810.2371	393.5339	65535	64800.6
810.3806	395.7199	65535	64802.65
810.5241	397.9052	65535	64803.05
810.6677	400.09	65535	64799.4
810.8113	402.2743	65535	64798.9
810.9548	404.4579	65535	64797.5
811.0984	406.641	65535	64794.35
811.2421	408.8235	65535	64792.45
811.3857	411.0054	65535	64790.05
811.5293	413.1868	65535	64785.6
811.673	415.3675	65535	64784.5
811.8166	417.5477	65535	64784.25
811.9603	419.7273	65535	64781.9
812.104	421.9064	65535	64773.9
812.2477	424.0848	65535	64781.1
812.3914	426.2627	65535	64778.1
812.5351	428.4399	65535	64777.4
812.6788	430.6166	65535	64773.45
812.8226	432.7928	65535	64772.75
812.9663	434.9683	65535	64773.6
813.1101	437.1432	65535	64771.4
813.2539	439.3176	65535	64773.8
813.3977	441.4914	65535	64774.5
813.5415	443.6645	65535	64771.55
813.6853	445.8371	65535	64770.7
813.8291	448.0091	65535	64771.55
813.973	450.1806	65535	64769.1
814.1168	452.3514	65535	64769.5
814.2607	454.5216	65535	64758
814.4046	456.6913	65535	64767.55
814.5485	458.8603	65535	64764.1
814.6924	461.0288	65535	64767
814.8363	463.1967	65535	64767.15
814.9802	465.3639	65535	64763.55
815.1241	467.5306	65535	64763.75
815.2681	469.6967	65535	64763.95
815.412	471.8622	65535	64762.75
815.556	474.0271	65535	64762.75
815.7	476.1914	65535	64761.3
815.844	478.3551	65535	64760.6
815.988	480.5182	65535	64760.95
816.132	482.6807	65535	64758.35
816.276	484.8426	65535	64761.95
816.4201	487.0039	65535	64757.3
816.5641	489.1647	65535	64759.05
816.7082	491.3248	65535	64755.65
816.8522	493.4843	65535	64756.35
816.9963	495.6432	65535	64756.8
817.1404	497.8015	65535	64751.25
817.2845	499.9592	65535	64754.85
817.4286	502.1163	65535	64752.95
817.5727	504.2728	65535	64749.7
817.7168	506.4287	65535	64753.9
817.861	508.5839	65535	64750.25
818.0051	510.7386	65535	64749.6
818.1493	512.8927	65535	64742.6
818.2935	515.0461	65535	64748.1
818.4377	517.199	65535	64750
818.5818	519.3512	65535	64748.9
818.726	521.5029	65535	64742.3
818.8703	523.6539	65535	64745.25
819.0145	525.8043	65535	64746.5
819.1587	527.9541	65535	64742.3
819.303	530.1033	65535	64744.1
819.4472	532.2519	65535	64743.4
819.5915	534.3999	65535	64741.8
819.7357	536.5472	65535	64743
819.88	538.694	65535	64742.65
820.0243	540.8401	65535	64739.5
820.1686	542.9856	65535	64741.45
820.3129	545.1305	65535	64740.5
820.4572	547.2748	65535	64739.95
820.6016	549.4185	65535	64739.25
820.7459	551.5615	65535	64739.95
820.8902	553.704	65535	64739.9
821.0346	555.8458	65535	64739.6
821.1789	557.987	65535	64739.5
821.3233	560.1276	65535	64739.25
821.4677	562.2675	65535	64739.8
821.6121	564.4069	65535	64738.95
821.7565	566.5456	65535	64737.7
821.9009	568.6837	65535	64735.55
822.0453	570.8212	65535	64738.9
822.1897	572.958	65535	64733.5
822.3342	575.0942	65535	64735.8
822.4786	577.2299	65535	64732.35
822.6231	579.3648	65535	64732.05
822.7675	581.4992	65535	64729.8
822.912	583.6329	65535	64731
823.0565	585.766	65535	64731.45
823.201	587.8985	65535	64731.35
823.3454	590.0304	65535	64705.6
823.4899	592.1616	65535	64727.5
823.6345	594.2922	65535	64729.4
823.779	596.4222	65535	64729.25
823.9235	598.5515	65535	64726.25
824.068	600.6802	65535	64728
824.2126	602.8083	65535	64727.8
824.3571	604.9358	65535	64726.9
824.5017	607.0626	65535	64725.45
824.6462	609.1888	65535	64726.3
824.7908	611.3144	65535	64725.2
824.9354	613.4393	65535	64725.7
825.08	615.5636	65535	64724.7
825.2246	617.6873	65535	64724
825.3692	619.8103	65535	64722.1
825.5138	621.9327	65535	64718.4
825.6584	624.0544	65535	64720.75
825.803	626.1756	65535	64722.6
825.9477	628.2961	65535	64721.85
826.0923	630.4159	65535	64721.4
826.237	632.5351	65535	64718.9
826.3816	634.6537	65535	64718.85
826.5263	636.7716	65535	64716.8
826.6709	638.8889	65535	64716.75
826.8156	641.0056	65535	64719.35
826.9603	643.1216	65535	64714.15
827.105	645.237	65535	64713.7
827.2497	647.3518	65535	64715.55
827.3944	649.4659	65535	64715.55
827.5391	651.5793	65535	64715.45
827.6838	653.6922	65535	64716.95
827.8285	655.8043	65535	64715.45
827.9733	657.9159	65535	64714.05
828.118	660.0268	65535	64712.65
828.2627	662.137	65535	64713.7
828.4075	664.2466	65535	64710.75
828.5522	666.3556	65535	64712.45
828.697	668.4639	65535	64709.3
828.8418	670.5716	65535	64710.55
828.9865	672.6786	65535	64708.85
829.1313	674.785	65535	64708.65
829.2761	676.8907	65535	64708.5
829.4209	678.9958	65535	64709.3
829.5657	681.1002	65535	64708.1
829.7105	683.204	65535	64704.6
829.8553	685.3072	65535	64706.4
830.0001	687.4097	65535	64707.8
830.1449	689.5115	65535	64706.85
830.2898	691.6127	65535	64707.6
830.4346	693.7132	65535	64708
830.5794	695.8131	65535	64684.7
830.7243	697.9123	65535	64706.25
830.8691	700.0109	65535	64705.65
831.014	702.1089	65535	64707.45
831.1588	704.2061	65535	64705.85
831.3037	706.3028	65535	64704.95
831.4486	708.3987	65535	64703.25
831.5935	710.4941	65535	64703.25
831.7383	712.5887	65535	64702.8
831.8832	714.6827	65535	64699.85
832.0281	716.7761	65535	64704.2
832.173	718.8688	65535	64701.25
832.3179	720.9608	65535	64697.85
832.4628	723.0522	65535	64697.6
832.6077	725.1429	65535	64701.65
832.7527	727.233	65535	64700.4
832.8976	729.3224	65535	64700.1
833.0425	731.4112	65535	64700.05
833.1874	733.4993	65535	64696.15
833.3324	735.5867	65535	64696
833.4773	737.6735	65535	64697.35
833.6222	739.7596	65535	64697.65
833.7672	741.845	65535	64695.8
833.9122	743.9298	65535	64695.7
834.0571	746.014	65535	64698.35
834.2021	748.0974	65535	64696.2
834.347	750.1802	65535	64697.2
834.492	752.2624	65535	64697.4
834.637	754.3439	65535	64696.5
834.782	756.4247	65535	64686.65
834.9269	758.5048	65535	64695.05
835.0719	760.5843	65535	64695.75
835.2169	762.6631	65535	64695.2
835.3619	764.7413	65535	64697.1
835.5069	766.8188	65535	64693.2
835.6519	768.8956	65535	64692.8
835.7969	770.9718	65535	64693.75
835.9419	773.0473	65535	64694.75
836.0869	775.1221	65535	64694.85
836.232	777.1962	65535	64693.2
836.377	779.2697	65535	64692
836.522	781.3426	65535	64678.9
836.667	783.4147	65535	64691.75
836.8121	785.4862	65535	64694.3
836.9571	787.557	65535	64692.9
837.1021	789.6271	65535	64693.65
837.2472	791.6966	65535	64690.8
837.3922	793.7654	65535	64688.35
837.5373	795.8335	65535	64693.5
837.6823	797.901	65535	64690.6
837.8274	799.9678	65535	64690.75
837.9724	802.0339	65535	64691.1
838.1175	804.0993	65535	64679.8
838.2626	806.1641	65535	64689.95
838.4076	808.2282	65535	64691.05
838.5527	810.2916	65535	64686.3
838.6978	812.3544	65535	64689.9
838.8428	814.4164	65535	64690.25
838.9879	816.4778	65535	64687.8
839.133	818.5385	65535	64689.7
839.2781	820.5986	65535	64689
839.4232	822.658	65535	64687.5
839.5682	824.7166	65535	64687.95
839.7133	826.7747	65535	64688.7
839.8584	828.832	65535	64686.55
840.0035	830.8886	65535	64686.4
840.1486	832.9446	65535	64684.5
840.2937	834.9999	65535	64688.95
840.4388	837.0545	65535	64682.3
840.5839	839.1085	65535	64687
840.729	841.1618	65535	64683.65
840.8741	843.2143	65533.45	64685.3
841.0192	845.2662	65532.7	64682.95
841.1643	847.3175	65535	64684.2
841.3095	849.368	65516	64669.25
841.4546	851.4179	65535	64687.65
841.5997	853.467	65528.85	64679.1
841.7448	855.5155	65535	64684.5
841.8899	857.5633	65526.4	64675
842.0351	859.6105	65521.45	64668.6
842.1802	861.6569	65529.55	64678.05
842.3253	863.7027	65498.7	64647.05
842.4704	865.7478	65517.6	64665.95
842.6156	867.7922	65512.95	64663.6
842.7607	869.8359	65525.1	64673.25
842.9058	871.8789	65471.9	64618.65
843.0509	873.9212	65509.25	64627.1
843.1961	875.9629	65515.15	64663.15
843.3412	878.0039	65484.1	64631.65
843.4863	880.0441	65460.75	64607.6
843.6315	882.0837	65485.85	64632.15
843.7766	884.1226	65490.1	64634.05
843.9218	886.1609	65493.6	64640.65
844.0669	888.1984	65455.85	64605.35
844.212	890.2352	65513.65	64661.25
844.3572	892.2714	65453.75	64596.75
844.5023	894.3069	65506.95	64652.3
844.6475	896.3416	65439.8	64584.95
844.7926	898.3757	65406.2	64550.8
844.9377	900.4091	65185.45	64328.85
845.0829	902.4418	65488.15	64629.45
845.228	904.4739	65378.8	64522.3
845.3732	906.5052	65398.7	64541.7
845.5183	908.5358	65311.4	64456.7
845.6635	910.5658	65293.1	64437.4
845.8086	912.595	65318.55	64462.75
845.9538	914.6236	64990.65	64135.9
846.0989	916.6515	65440	64584.5
846.2441	918.6786	65011.7	64154.8
846.3892	920.7051	65154.7	64296
846.5344	922.7309	65055.25	64199.25
846.6795	924.756	65144.6	64289.05
846.8246	926.7804	64985.2	64126.8
846.9698	928.8041	64552.8	63694.2
847.1149	930.8272	64936.45	64077.05
847.2601	932.8495	65000.8	64140.8
847.4052	934.8711	64708.85	63850.45
847.5504	936.892	64443.15	63583.9
847.6955	938.9123	64765.85	63907.35
847.8407	940.9318	64574.65	63716.65
847.9858	942.9506	64555.5	63695.85
848.131	944.9688	64639.55	63780.8
848.2761	946.9862	64085.1	63225.9
848.4213	949.003	64379.3	63520.2
848.5664	951.019	63831.6	62972.05
848.7115	953.0344	63966.4	63106.85
848.8567	955.0491	63893.25	63032.75
849.0018	957.063	64049.55	63191.2
849.147	959.0763	64092.5	63233.9
849.2921	961.0888	63619.45	62757.7
849.4373	963.1007	63936.45	63075.1
849.5824	965.1119	63958.9	63100.65
849.7275	967.1223	63588.95	62728.7
849.8727	969.1321	63994.5	63135
850.0178	971.1412	63464.3	62606.5
850.1629	973.1495	63248.85	62389.35
850.3081	975.1572	63627.4	62718.4
850.4532	977.1641	63311.6	62451.05
850.5983	979.1704	63254.5	62390.6
850.7435	981.1759	63339.15	62474.7
850.8886	983.1808	62981.25	62119.25
851.0337	985.1849	62925.05	62058.25
851.1788	987.1884	63003.35	62138.3
851.324	989.1911	63218.7	62353.25
851.4691	991.1932	62276.95	61414.85
851.6142	993.1945	62526.6	61664.25
851.7593	995.1951	62851.95	61989.85
851.9045	997.1951	62356.4	61486
852.0496	999.1943	62251.35	61390.85
852.1947	1001.1928	62060.9	61198.4
852.3398	1003.1906	62232.6	61371.05
852.4849	1005.1877	61546.8	60683.05
852.63	1007.1841	61410.1	60546.65
852.7751	1009.1798	61532.5	60670.15
852.9202	1011.1748	61633.85	60771.6
853.0653	1013.1691	61595.4	60730.15
853.2104	1015.1627	60123.7	59260.55
853.3555	1017.1556	60888.9	60025
853.5006	1019.1477	61155.6	60290.35
853.6457	1021.1392	60486.1	59623.25
853.7908	1023.1299	59562.1	58696.95
853.9359	1025.12	60196.55	59331.6
854.081	1027.1093	59685.25	58821.35
854.2261	1029.0979	59625.5	58763.45
854.3712	1031.0859	59548.65	58685.15
854.5163	1033.0731	58899.15	58032.05
854.6613	1035.0596	59287.55	58423.7
854.8064	1037.0454	59184.5	58319.45
854.9515	1039.0304	58868.5	58003.15
855.0965	1041.0148	57977.1	57111.4
855.2416	1042.9985	58254.95	57390.45
855.3867	1044.9814	58801.7	57937.7
855.5317	1046.9636	57849.4	56982.55
855.6768	1048.9452	58013.8	57150.45
855.8219	1050.926	57841.55	56977.35
855.9669	1052.9061	57855.05	56988.9
856.112	1054.8855	57923.9	57060.8
856.257	1056.8642	57429.7	56564.35
856.4021	1058.8421	57062.3	56192
856.5471	1060.8194	57158.7	56293.25
856.6921	1062.7959	56829.1	55963.35
856.8372	1064.7717	57343.55	56474.8
856.9822	1066.7469	56989.6	56121.05
857.1272	1068.7213	57054.9	56186.1
857.2723	1070.695	56705.9	55839.35
857.4173	1072.6679	56291.6	55423.75
857.5623	1074.6402	56685.25	55819.3
857.7073	1076.6117	56303.15	55431.15
857.8523	1078.5826	56304.65	55437.4
857.9973	1080.5527	56371.55	55501.85
858.1423	1082.5221	55869.6	55002.7
858.2873	1084.4908	55942.05	55072.1
858.4323	1086.4587	55631.95	54765
858.5773	1088.426	55600.05	54731.55
858.7223	1090.3925	55419.15	54545.45
858.8673	1092.3584	55329.4	54461.2
859.0123	1094.3235	54885.8	54017.5
859.1573	1096.2879	54960.75	54093.8
859.3022	1098.2515	55141.15	54271.8
859.4472	1100.2145	54911.1	54043.85
859.5922	1102.1767	54700.6	53829.75
859.7371	1104.1382	54879.75	54010.35
859.8821	1106.099	54719.35	53847.45
860.027	1108.0591	54597.7	53728.3
860.172	1110.0185	54060.9	53190.3
860.3169	1111.9771	54658.45	53788.3
860.4619	1113.9351	54465.95	53597.2
860.6068	1115.8923	54340.05	53469.6
860.7517	1117.8488	54200.35	53330.35
860.8967	1119.8045	53849.1	52979.95
861.0416	1121.7596	53870.75	53000.7
861.1865	1123.7139	53485.8	52615.55
861.3314	1125.6675	53375.4	52506.1
861.4763	1127.6204	53207.55	52337.1
861.6212	1129.5726	52895.75	52022.75
861.7661	1131.524	53138.5	52270.25
861.911	1133.4748	53067.9	52199
862.0559	1135.4248	52626.45	51755.05
862.2008	1137.3741	52580.35	51709.9
862.3457	1139.3226	52424.5	51551.55
862.4905	1141.2705	52400.65	51531.1
862.6354	1143.2176	52214.95	51339.3
862.7803	1145.164	51964.35	51091.4
862.9251	1147.1097	52090.75	51220.15
863.07	1149.0546	51975.85	51103.05
863.2148	1150.9989	52062.1	51191.85
863.3597	1152.9424	51720.05	50849
863.5045	1154.8852	51799.3	50927.6
863.6493	1156.8272	51548.45	50678
863.7942	1158.7686	51930.3	51052.75
863.939	1160.7092	51312.9	50441.65
864.0838	1162.6491	51207.85	50336.4
864.2286	1164.5883	51370.15	50499.35
864.3734	1166.5267	51051.15	50179.25
864.5182	1168.4644	51250.95	50379.2
864.663	1170.4014	51054.2	50179.15
864.8078	1172.3377	51246.8	50376.7
864.9526	1174.2732	51341.2	50470.1
865.0974	1176.2081	51100.55	50229.2
865.2421	1178.1421	51135.45	50260.05
865.3869	1180.0755	51470.05	50600.75
865.5317	1182.0082	51351.5	50480.1
865.6764	1183.9401	51341.75	50469
865.8212	1185.8713	50931.3	50059.1
865.9659	1187.8017	50703.55	49832.55
866.1106	1189.7315	50598.45	49727.3
866.2554	1191.6605	50200.25	49328.8
866.4001	1193.5888	49952.65	49080.05
866.5448	1195.5163	49664.1	48793.05
866.6895	1197.4432	49631.5	48756.95
866.8342	1199.3693	49445.75	48575.2
866.9789	1201.2947	49286.8	48410.25
867.1236	1203.2193	49229.5	48354.25
867.2683	1205.1432	48921.15	48047.1
867.413	1207.0664	48808.45	47934.35
867.5576	1208.9889	48734.8	47859.35
867.7023	1210.9106	48574.6	47700.3
867.847	1212.8316	48392.4	47519.4
867.9916	1214.7519	48379.7	47498.15
868.1363	1216.6715	48217.9	47345.9
868.2809	1218.5903	48205.95	47331.85
868.4255	1220.5084	48081.3	47208.6
868.5701	1222.4257	48083.15	47209.7
868.7148	1224.3424	47826.2	46953.55
868.8594	1226.2583	47767.15	46886.65
869.004	1228.1735	47764.25	46887.8
869.1486	1230.0879	47555.2	46680.6
869.2932	1232.0016	47541.4	46667.45
869.4377	1233.9146	47443.2	46568.8
869.5823	1235.8269	47346.2	46473.95
869.7269	1237.7384	47320.75	46447.55
869.8715	1239.6492	47167.7	46294.3
870.016	1241.5592	47076.95	46203.3
870.1606	1243.4686	47032.15	46158.05
870.3051	1245.3772	47032.65	46158.65
870.4496	1247.285	47023.1	46149.05
870.5941	1249.1922	46985.95	46111.05
870.7387	1251.0986	47074.35	46200.2
870.8832	1253.0042	46927.1	46054.25
871.0277	1254.9092	47174.75	46301
871.1722	1256.8134	46996.8	46122.45
871.3167	1258.7169	47256.05	46378.9
871.4611	1260.6196	47173.1	46300.25
871.6056	1262.5216	47277.25	46401.35
871.7501	1264.4229	47172.85	46298.25
871.8945	1266.3234	47160.4	46284.7
872.039	1268.2232	46976.9	46101.55
872.1834	1270.1223	46810.9	45932.25
872.3278	1272.0207	46674.55	45800.35
872.4723	1273.9183	46533.4	45653.75
872.6167	1275.8151	46464.7	45588.65
872.7611	1277.7113	46422.25	45544.25
872.9055	1279.6067	46408.65	45533.3
873.0499	1281.5014	46532.85	45654.95
873.1943	1283.3953	46826.5	45948.65
873.3386	1285.2885	47060.25	46188.1
873.483	1287.181	47305.15	46430.55
873.6274	1289.0727	47476.8	46602.2
873.7717	1290.9637	47192	46314.45
873.9161	1292.854	47070.4	46195.6
874.0604	1294.7435	46637.1	45762.05
874.2047	1296.6323	46427.2	45550.35
874.349	1298.5204	46179.7	45300.95
874.4933	1300.4077	46030.1	45154.4
874.6376	1302.2943	45862.5	44986.6
874.7819	1304.1802	45795.45	44920.25
874.9262	1306.0653	45611.1	44733.55
875.0705	1307.9497	45451.6	44572.75
875.2147	1309.8333	45466.6	44590.4
875.359	1311.7162	45377.95	44500.8
875.5032	1313.5984	45338.85	44460.55
875.6475	1315.4798	45158.35	44272
875.7917	1317.3605	45140.5	44262.15
875.9359	1319.2405	45138	44260.3
876.0801	1321.1197	45053.85	44175.75
876.2243	1322.9982	44895.45	44012.95
876.3685	1324.876	44872	43998.45
876.5127	1326.753	44649.5	43772.1
876.6569	1328.6293	44504.45	43627.65
876.801	1330.5048	44310.3	43432.85
876.9452	1332.3796	44079.3	43202.55
877.0893	1334.2537	43952.75	43053.35
877.2335	1336.127	43703.05	42827.8
877.3776	1337.9996	43632.55	42754.95
877.5217	1339.8714	43537.4	42659.7
877.6658	1341.7426	43408.1	42488.1
877.8099	1343.6129	43333.8	42455.45
877.954	1345.4826	43178.25	42300
878.0981	1347.3515	43184	42307.05
878.2422	1349.2196	43074	42194.65
878.3862	1351.087	43068.75	42192.4
878.5303	1352.9537	43072.95	42196.6
878.6743	1354.8197	42996.9	42120.1
878.8184	1356.6849	42995.9	42119.35
878.9624	1358.5493	42916.6	42039.25
879.1064	1360.4131	42866.25	41988.85
879.2504	1362.276	42797.65	41922.55
879.3944	1364.1383	42727.45	41850.75
879.5384	1365.9998	42692.85	41809.95
879.6823	1367.8606	42540.9	41664.95
879.8263	1369.7206	42545.9	41668.85
879.9702	1371.5799	42432.65	41555
880.1142	1373.4384	42294.15	41417.15
880.2581	1375.2962	42263.5	41383.55
880.402	1377.1533	41987.7	41112.5
880.5459	1379.0096	41741.6	40862.55
880.6898	1380.8652	41582.1	40704.2
880.8337	1382.7201	41455.2	40578.85
880.9776	1384.5742	41253.7	40375.35
881.1215	1386.4275	41033.75	40155.35
881.2653	1388.2802	40893.55	40016.45
881.4092	1390.132	40745.65	39868.6
881.553	1391.9832	40764.95	39885.75
881.6968	1393.8336	40526	39647.55
881.8406	1395.6832	40440.85	39561.05
881.9844	1397.5322	40246.55	39368.2
882.1282	1399.3803	40145.05	39260.85
882.272	1401.2278	39928.95	39050.65
882.4158	1403.0745	39873.7	38996.05
882.5595	1404.9204	39715.9	38838.65
882.7033	1406.7656	39567	38688.7
882.847	1408.6101	39451.9	38574.35
882.9908	1410.4538	39272.15	38392.35
883.1345	1412.2968	39210.55	38332.5
883.2782	1414.139	39026.85	38150
883.4219	1415.9805	39005.75	38127.6
883.5656	1417.8213	38913.8	38017.05
883.7092	1419.6613	38768.45	37891.75
883.8529	1421.5006	38763.5	37885.7
883.9965	1423.3391	38726.6	37848.3
884.1402	1425.1769	38641.8	37761.8
884.2838	1427.0139	38696.65	37818.4
884.4274	1428.8502	38789.75	37909.55
884.571	1430.6858	38833	37954.05
884.7146	1432.5206	38694.5	37815.2
884.8582	1434.3547	38704.45	37824.75
885.0018	1436.188	38614.2	37735.35
885.1453	1438.0206	38545.85	37667.35
885.2889	1439.8524	38400.2	37521.65
885.4324	1441.6835	38358.55	37479.75
885.5759	1443.5139	38284.65	37403.3
885.7194	1445.3435	38135.2	37257.4
885.8629	1447.1724	38174.45	37298.9
886.0064	1449.0005	38124.15	37245.4
886.1499	1450.8279	38002.15	37123.1
886.2933	1452.6545	38031.25	37151.65
886.4368	1454.4804	37980.9	37103.65
886.5802	1456.3056	37878.65	36993.6
886.7237	1458.13	37773.3	36897.1
886.8671	1459.9536	37758.85	36878.75
887.0105	1461.7766	37670.2	36793.85
887.1539	1463.5987	37490.2	36605.9
887.2972	1465.4202	37395.05	36517.65
887.4406	1467.2409	37204.6	36324.35
887.584	1469.0608	37186.15	36308.15
887.7273	1470.88	37081.1	36200.5
887.8706	1472.6984	36953.5	36075.15
888.0139	1474.5161	36813.75	35930.85
888.1572	1476.3331	36704.25	35826.4
888.3005	1478.1493	36638.9	35759.4
888.4438	1479.9648	36619.15	35741.2
888.5871	1481.7795	36549.4	35668.95
888.7303	1483.5935	36514.45	35634.5
888.8736	1485.4067	36426.3	35545.8
889.0168	1487.2192	36385.35	35505.8
889.16	1489.031	36346.9	35465.35
889.3032	1490.842	36286.2	35407.05
889.4464	1492.6522	36276.7	35397
889.5896	1494.4618	36152.4	35271.55
889.7327	1496.2705	36124.1	35246.9
889.8759	1498.0785	36028.75	35148.35
890.019	1499.8858	35897.5	35018.05
890.1622	1501.6924	35754.6	34876.3
890.3053	1503.4981	35801.8	34924.05
890.4484	1505.3032	35749.35	34869.15
890.5914	1507.1075	35611	34730.8
890.7345	1508.911	35546	34665.5
890.8776	1510.7138	35526.25	34647.6
891.0206	1512.5159	35389.6	34511.5
891.1637	1514.3172	35338.1	34458
891.3067	1516.1178	35155.8	34277.3
891.4497	1517.9176	35165.6	34284.6
891.5927	1519.7166	35016	34137.35
891.7357	1521.515	34943.25	34057.15
891.8786	1523.3126	34824.7	33944.55
892.0216	1525.1094	34756.3	33874.1
892.1645	1526.9055	34653.15	33775.9
892.3074	1528.7008	34531.75	33653.85
892.4503	1530.4954	34281.55	33401.5
892.5932	1532.2893	34277.45	33399.35
892.7361	1534.0824	34089.25	33205.35
892.879	1535.8747	34066.3	33187.45
893.0218	1537.6663	33949	33068.55
893.1647	1539.4572	33875.9	32993.25
893.3075	1541.2473	33865.45	32984.2
893.4503	1543.0367	33675.4	32796.25
893.5931	1544.8253	33600.6	32714.5
893.7359	1546.6132	33607.6	32727
893.8787	1548.4003	33411.2	32522
894.0214	1550.1867	33353.8	32464.4
894.1642	1551.9723	33282.3	32400
894.3069	1553.7572	33234.9	32353.5
894.4496	1555.5414	33094.4	32212.75
894.5923	1557.3247	33083.15	32200.8
894.735	1559.1074	33044.25	32164.35
894.8777	1560.8893	33001.1	32122.5
895.0204	1562.6705	32959.05	32080.6
895.163	1564.4509	32904	32024.45
895.3056	1566.2305	32855.45	31976.4
895.4482	1568.0094	32883.3	32005.1
895.5908	1569.7876	32861.3	31981.95
895.7334	1571.565	32765.25	31885.5
895.876	1573.3417	32734.5	31855
896.0186	1575.1176	32616.95	31736.95
896.1611	1576.8928	32578.9	31700.05
896.3036	1578.6672	32463.6	31584.35
896.4461	1580.4409	32466.1	31589.1
896.5886	1582.2138	32369.35	31487.2
896.7311	1583.986	32342.35	31464.35
896.8736	1585.7575	32425.6	31545.1
897.0161	1587.5282	32389.75	31509.75
897.1585	1589.2981	32396	31516.75
897.3009	1591.0673	32284.45	31403.85
897.4433	1592.8358	32222.55	31346
897.5857	1594.6035	32217.75	31336.05
897.7281	1596.3704	32060.85	31181.35
897.8705	1598.1366	31913.25	31033.85
898.0128	1599.9021	31782.1	30901.25
898.1551	1601.6668	31576.2	30695
898.2975	1603.4308	31492.55	30612.65
898.4398	1605.194	31355.3	30467.95
898.5821	1606.9564	31329.05	30449.85
898.7243	1608.7182	31272.45	30388.55
898.8666	1610.4791	31352.35	30473.5
899.0088	1612.2394	31452.9	30573.9
899.1511	1613.9988	31513	30633.25
899.2933	1615.7576	31651.9	30773.6
899.4355	1617.5156	31696.25	30810.65
899.5776	1619.2728	31673.1	30796.2
899.7198	1621.0293	31490	30610
899.862	1622.785	31169.9	30288.35
900.0041	1624.54	30842.25	29959.1
900.1462	1626.2942	30617.1	29736.2
900.2883	1628.0477	30283.7	29398.85
900.4304	1629.8005	30045.75	29161.15
900.5725	1631.5525	29859	28980.05
900.7145	1633.3037	29676.05	28796.25
900.8566	1635.0542	29585.4	28705.65
900.9986	1636.804	29373.45	28492.1
901.1406	1638.553	29384.05	28414.85
901.2826	1640.3013	29158.55	28278.6
901.4245	1642.0488	29024.45	28143.5
901.5665	1643.7955	28992.55	28113.1
901.7085	1645.5416	28847.55	27967.55
901.8504	1647.2868	28826.95	27948.85
901.9923	1649.0313	28644.75	27764.6
902.1342	1650.7751	28610.3	27727.15
902.2761	1652.5181	28549.6	27669.7
902.4179	1654.2604	28400.8	27522.9
902.5598	1656.0019	28331	27452.3
902.7016	1657.7427	28321.35	27440.75
902.8434	1659.4828	28285.25	27407.9
902.9852	1661.222	28227.85	27346.05
903.127	1662.9606	28195.8	27317.4
903.2687	1664.6984	28255.7	27375.8
903.4105	1666.4354	28243.75	27363.95
903.5522	1668.1717	28167.3	27289
903.6939	1669.9072	27951.55	27073.3
903.8356	1671.642	27828.85	26947.45
903.9773	1673.3761	27703.6	26825.45
904.119	1675.1094	27561	26680.95
904.2606	1676.8419	27398.8	26520.3
904.4022	1678.5737	27237.6	26358.65
904.5439	1680.3048	27167.3	26287.95
904.6855	1682.0351	26992.8	26112.8
904.827	1683.7646	26879.3	25995.5
904.9686	1685.4934	26834.3	25953.5
905.1101	1687.2215	26734.3	25851.6
905.2517	1688.9488	26566.8	25687.25
905.3932	1690.6754	26423.45	25543.35
905.5347	1692.4012	26415.6	25536
905.6761	1694.1263	26334.95	25454.05
905.8176	1695.8506	26259.95	25380.15
905.9591	1697.5742	26177.15	25296.5
906.1005	1699.297	26081.85	25201.05
906.2419	1701.0191	25932.1	25050.85
906.3833	1702.7404	25849.6	24971.05
906.5246	1704.461	25719.1	24835.7
906.666	1706.1808	25596.4	24713.05
906.8073	1707.8999	25547.8	24667.45
906.9487	1709.6182	25457.45	24576.1
907.09	1711.3358	25415.95	24535.25
907.2313	1713.0527	25337.5	24458.1
907.3725	1714.7688	25252.2	24366.45
907.5138	1716.4841	25108.35	24224.95
907.655	1718.1987	25098.6	24213.05
907.7962	1719.9126	24992.4	24114.2
907.9374	1721.6257	24896.85	24014.7
908.0786	1723.338	24887.85	24004.3
908.2198	1725.0496	24776.6	23895.45
908.3609	1726.7605	24744.45	23862.6
908.502	1728.4706	24595.45	23713.05
908.6431	1730.18	24497.1	23615.05
908.7842	1731.8886	24436.35	23554.55
908.9253	1733.5964	24429.5	23531.15
909.0664	1735.3036	24364.6	23481.1
909.2074	1737.0099	24332.25	23452.9
909.3484	1738.7156	24266.05	23385.05
909.4894	1740.4204	24167.7	23284.75
909.6304	1742.1246	24131.9	23249.35
909.7714	1743.8279	24110.05	23231.55
909.9123	1745.5306	24056.05	23175.8
910.0532	1747.2325	23995.85	23117
910.1941	1748.9336	23890	23009.8
910.335	1750.634	23808.4	22928.55
910.4759	1752.3336	23761.75	22882.05
910.6168	1754.0325	23740.4	22860.4
910.7576	1755.7307	23668.05	22789.45
910.8984	1757.4281	23695.25	22814.3
911.0392	1759.1247	23636.95	22749.55
911.18	1760.8206	23573.7	22688.7
911.3208	1762.5158	23560.2	22676.05
911.4615	1764.2102	23467.6	22589.2
911.6022	1765.9039	23353.35	22473.2
911.7429	1767.5968	23346.3	22465.15
911.8836	1769.289	23284.6	22406.15
912.0243	1770.9804	23188.35	22304.25
912.1649	1772.6711	23179.5	22296.65
912.3056	1774.361	23124.05	22244.55
912.4462	1776.0502	23066.3	22186.1
912.5868	1777.7386	23006.05	22122
912.7274	1779.4263	22935.15	22055.2
912.8679	1781.1132	22927.2	22046.15
913.0084	1782.7994	22800.05	21916.45
913.149	1784.4849	22774.8	21894.9
913.2895	1786.1696	22721.1	21822.9
913.4299	1787.8535	22688	21807.45
913.5704	1789.5367	22630.05	21747.65
913.7108	1791.2192	22590.35	21709.2
913.8513	1792.9009	22483.95	21584.3
913.9917	1794.5818	22396.7	21515.15
914.132	1796.2621	22368.65	21490.7
914.2724	1797.9415	22331.9	21451.45
914.4128	1799.6202	22241.5	21361.9
914.5531	1801.2982	22232.25	21350.15
914.6934	1802.9755	22141.95	21260.1
914.8337	1804.6519	22171.2	21290.75
914.9739	1806.3277	22049.75	21171.7
915.1142	1808.0027	21942.5	21062.75
915.2544	1809.6769	21911.5	21030.85
915.3946	1811.3504	21854.55	20973.95
915.5348	1813.0231	21807.95	20925.25
915.675	1814.6951	21764.25	20883.9
915.8151	1816.3664	21771.4	20890.6
915.9553	1818.0369	21713.2	20831.8
916.0954	1819.7067	21624.45	20744.05
916.2355	1821.3757	21564.75	20683.5
916.3755	1823.044	21526.2	20646.55
916.5156	1824.7115	21511.7	20629.8
916.6556	1826.3783	21400.1	20519.25
916.7956	1828.0443	21334.75	20454.7
916.9356	1829.7096	21300.35	20417.9
917.0756	1831.3741	21273.3	20389.95
917.2155	1833.0379	21231.2	20351.15
917.3555	1834.701	21153	20269
917.4954	1836.3633	21135.05	20254.2
917.6353	1838.0248	21044.95	20161.15
917.7751	1839.6856	20999.1	20119.1
917.915	1841.3457	21019.45	20138.6
918.0548	1843.005	20925.15	20044.7
918.1946	1844.6636	20912.45	20031.95
918.3344	1846.3214	20837.85	19956.1
918.4742	1847.9785	20822.85	19943.5
918.6139	1849.6349	20740.55	19858.9
918.7537	1851.2904	20709.25	19821.85
918.8934	1852.9453	20677.85	19795.9
919.0331	1854.5994	20608.3	19724.05
919.1727	1856.2528	20585.65	19701
919.3124	1857.9054	20497.85	19616.5
919.452	1859.5572	20497.55	19619.05
919.5916	1861.2083	20452.4	19570.35
919.7312	1862.8587	20415	19532.4
919.8708	1864.5084	20378.45	19496.8
920.0103	1866.1572	20330.85	19450.5
920.1498	1867.8054	20231.3	19350.75
920.2893	1869.4528	20173	19291.8
920.4288	1871.0994	20147	19266.1
920.5683	1872.7453	20095.15	19214.45
920.7077	1874.3905	20084.5	19199.4
920.8471	1876.0349	19964.8	19083.85
920.9865	1877.6786	19943.95	19062.3
921.1259	1879.3215	19930.55	19049.5
921.2653	1880.9637	19883.3	19001.8
921.4046	1882.6051	19852.85	18971.8
921.5439	1884.2458	19791.3	18907.5
921.6832	1885.8858	19742.8	18858.95
921.8225	1887.525	19697.45	18814.8
921.9617	1889.1634	19592.15	18712.05
922.101	1890.8011	19530.2	18648
922.2402	1892.4381	19504	18623.8
922.3794	1894.0743	19468.75	18587.5
922.5185	1895.7098	19455.1	18573.25
922.6577	1897.3446	19417.45	18535.8
922.7968	1898.9786	19389	18501.35
922.9359	1900.6118	19342.9	18461.75
923.075	1902.2443	19237.75	18353.15
923.214	1903.8761	19178.8	18297.4
923.3531	1905.5071	19082.8	18202.85
923.4921	1907.1374	19042.9	18159.4
923.6311	1908.7669	19001.6	18120.15
923.77	1910.3957	18964.2	18083.25
923.909	1912.0237	18867.35	17985.95
924.0479	1913.651	18830.5	17948.05
924.1868	1915.2776	18771.05	17892.3
924.3257	1916.9034	18687.6	17806.7
924.4646	1918.5285	18632.7	17752.9
924.6034	1920.1528	18515.75	17633.2
924.7422	1921.7764	18534.75	17655.6
924.881	1923.3992	18439.6	17560.1
925.0198	1925.0213	18325.85	17443.15
925.1586	1926.6427	18271.95	17390.8
925.2973	1928.2633	18368.3	17280
925.436	1929.8832	18211.15	17327.7
925.5747	1931.5023	18082	17202.45
925.7134	1933.1207	18030.7	17150.5
925.852	1934.7383	18002.05	17119.9
925.9906	1936.3552	17921.1	17038.75
926.1292	1937.9714	17890.15	17011.35
926.2678	1939.5868	17828.75	16945.85
926.4064	1941.2015	17746.55	16865.05
926.5449	1942.8154	17676.75	16795.9
926.6834	1944.4286	17597.15	16713.55
926.8219	1946.041	17544	16641.05
926.9604	1947.6528	17482.4	16595.95
927.0988	1949.2637	17426.55	16545
927.2372	1950.8739	17373.5	16493.3
927.3756	1952.4834	17342.95	16461.55
927.514	1954.0921	17332.1	16450.15
927.6523	1955.7001	17238.85	16355.25
927.7907	1957.3074	17169.7	16288.45
927.929	1958.9139	17111.65	16229.9
928.0673	1960.5197	17035.95	16153.2
928.2055	1962.1247	16965.5	16083.15
928.3438	1963.729	16894.1	16012.9
928.482	1965.3325	16852.35	15947.05
928.6202	1966.9353	16812.45	15932.65
928.7584	1968.5374	16752.75	15872.9
928.8965	1970.1387	16710.6	15829.8
929.0346	1971.7393	16613.6	15732.25
929.1727	1973.3392	16569.5	15688.65
929.3108	1974.9383	16510.55	15631.55
929.4489	1976.5366	16461.05	15581.65
929.5869	1978.1342	16431.5	15549.65
929.7249	1979.7311	16421.65	15538.7
929.8629	1981.3273	16355.35	15473
930.0009	1982.9227	16271.35	15389.7
930.1388	1984.5173	16226.7	15345.9
930.2767	1986.1112	16189.2	15308.1
930.4146	1987.7044	16164.8	15286.3
930.5525	1989.2968	16086.05	15205.75
930.6904	1990.8885	16078.2	15195.2
930.8282	1992.4795	16017.15	15134.55
930.966	1994.0697	15966.5	15085.85
931.1038	1995.6592	15935	15054.5
931.2415	1997.2479	15866.05	14982.65
931.3793	1998.8359	15844.55	14963.5
931.517	2000.4232	15740.55	14861.75
931.6547	2002.0097	15705.05	14826.3
931.7923	2003.5955	15622.8	14739.9
931.93	2005.1805	15610.65	14727.3
932.0676	2006.7648	15573.25	14692.3
932.2052	2008.3484	15503.5	14621.45
932.3427	2009.9312	15529.35	14645.75
932.4803	2011.5133	15448.35	14567.9
932.6178	2013.0946	15392.05	14513.05
932.7553	2014.6752	15353.75	14474.4
932.8928	2016.2551	15326.85	14447.65
933.0302	2017.8342	15242.4	14362.65
933.1676	2019.4126	15221.65	14340.25
933.305	2020.9902	15125.25	14242.7
933.4424	2022.5672	15103.25	14222
933.5798	2024.1433	15079.05	14193.9
933.7171	2025.7188	15007.75	14128.75
933.8544	2027.2935	14968.5	14086.65
933.9917	2028.8674	14924.5	14044.8
934.129	2030.4406	14902.15	14023.3
934.2662	2032.0131	14811.2	13931.3
934.4034	2033.5849	14776.95	13886.25
934.5406	2035.1559	14768.35	13889.5
934.6778	2036.7261	14716.8	13834.9
934.8149	2038.2957	14690	13812
934.952	2039.8645	14652.85	13774.45
935.0891	2041.4325	14651.5	13766.55
935.2262	2042.9998	14570.2	13690.15
935.3632	2044.5664	14530.95	13650.05
935.5002	2046.1323	14494.4	13614.85
935.6372	2047.6974	14450.25	13569.95
935.7742	2049.2617	14423.95	13544.5
935.9111	2050.8254	14422.65	13520.95
936.048	2052.3883	14381.35	13499.65
936.1849	2053.9504	14318.05	13435.7
936.3218	2055.5118	14280.7	13399.45
936.4586	2057.0725	14193.35	13310.25
936.5955	2058.6325	14168.9	13287
936.7323	2060.1917	14134.7	13255.5
936.869	2061.7502	14113.8	13230.3
937.0058	2063.3079	14063.8	13185.4
937.1425	2064.8649	14039.25	13152.4
937.2792	2066.4212	14025.25	13143.2
937.4159	2067.9767	13980.35	13102.15
937.5525	2069.5315	13896.45	13015.95
937.6891	2071.0856	13850.95	12969.65
937.8257	2072.6389	13782.1	12900.45
937.9623	2074.1915	13755.6	12875.65
938.0989	2075.7433	13689.8	12807.8
938.2354	2077.2945	13668.85	12789.45
938.3719	2078.8448	13631	12749.85
938.5084	2080.3945	13590.65	12711.3
938.6448	2081.9434	13574.9	12694.6
938.7812	2083.4916	13519.1	12638.6
938.9176	2085.039	13459.5	12578
939.054	2086.5857	13442.1	12563.3
939.1903	2088.1317	13435	12555.15
939.3267	2089.677	13395.75	12513.7
939.463	2091.2215	13336.85	12458.2
939.5992	2092.7652	13295.65	12413.3
939.7355	2094.3083	13287.15	12405.6
939.8717	2095.8506	13274.3	12395.4
940.0079	2097.3921	13254.45	12374.9
940.1441	2098.933	13220.15	12339
940.2802	2100.4731	13182.05	12302.15
940.4163	2102.0124	13158.95	12260.8
940.5524	2103.5511	13099.25	12219.05
940.6885	2105.089	13104.7	12221.55
940.8245	2106.6261	13066.4	12185.85
940.9606	2108.1626	13037.9	12155.25
941.0965	2109.6983	13013.65	12106.5
941.2325	2111.2332	12972.95	12090.9
941.3684	2112.7675	12915.7	12034.6
941.5044	2114.301	12898.1	12014.1
941.6403	2115.8337	12892.3	12010.45
941.7761	2117.3657	12832.2	11952.35
941.912	2118.897	12798.6	11918.3
942.0478	2120.4276	12769.15	11882.5
942.1835	2121.9575	12714.2	11833.2
942.3193	2123.4866	12727.2	11844.15
942.455	2125.0149	12672.2	11787.75
942.5907	2126.5426	12583.05	11702.8
942.7264	2128.0695	12578.2	11691.45
942.8621	2129.5956	12558.2	11679.1
942.9977	2131.1211	12518.65	11634.2
943.1333	2132.6458	12490.35	11610.35
943.2689	2134.1698	12468.4	11588.5
943.4044	2135.693	12417.15	11531.65
943.54	2137.2155	12399.45	11514.95
943.6755	2138.7373	12360.45	11480.85
943.8109	2140.2584	12310.15	11429.7
943.9464	2141.7787	12298.5	11412.15
944.0818	2143.2983	12192.55	11313.3
944.2172	2144.8171	12159.5	11281.8
944.3526	2146.3353	12142.4	11260.1
944.4879	2147.8527	12094.65	11215
944.6232	2149.3693	12101.8	11221.25
944.7585	2150.8853	12051.25	11170.15
944.8938	2152.4005	12010.95	11131.05
945.029	2153.9149	11986.5	11106.25
945.1642	2155.4287	11924.25	11043.45
945.2994	2156.9417	11908.6	11027.7
945.4346	2158.454	11852.6	10970.4
945.5697	2159.9655	11835.1	10953.15
945.7048	2161.4764	11826.5	10945.9
945.8399	2162.9865	11764.35	10881.55
945.9749	2164.4958	11718.3	10837.25
946.1099	2166.0045	11710.75	10827.3
946.2449	2167.5124	11673.55	10793.8
946.3799	2169.0195	11627	10746.85
946.5148	2170.526	11642.15	10760.75
946.6498	2172.0317	11596.85	10716.75
946.7846	2173.5367	11581.85	10701.35
946.9195	2175.0409	11550.4	10670.25
947.0543	2176.5445	11511.5	10632.3
947.1891	2178.0473	11458.05	10578.65
947.3239	2179.5494	11412	10528.65
947.4587	2181.0507	11370.05	10490.05
947.5934	2182.5513	11348.55	10466.7
947.7281	2184.0512	11333.35	10452.65
947.8628	2185.5504	11294.6	10414.1
947.9974	2187.0488	11225.15	10345.25
948.132	2188.5465	11197.85	10317.75
948.2666	2190.0435	11170.75	10290.15
948.4012	2191.5397	11118.6	10238.45
948.5357	2193.0353	11110.75	10232.95
948.6702	2194.5301	11019.25	10137.7
948.8047	2196.0241	11011.2	10132.05
948.9392	2197.5175	10989.45	10110.6
949.0736	2199.0101	10958.75	10073.2
949.208	2200.502	10877.7	9998.6
949.3424	2201.9931	10827.4	9947.65
949.4767	2203.4835	10817.7	9934.15
949.611	2204.9733	10779.3	9890.45
949.7453	2206.4622	10758.85	9878.15
949.8796	2207.9505	10735.1	9852.4
950.0138	2209.438	10660.7	9782.05
950.148	2210.9248	10638	9754
950.2822	2212.4109	10605.35	9725.15
950.4164	2213.8962	10564.85	9681.95
950.5505	2215.3809	10547.75	9665.95
950.6846	2216.8648	10540.45	9659.4
950.8186	2218.3479	10511.75	9627.4
950.9527	2219.8304	10455.3	9570.9
951.0867	2221.3121	10394.9	9512.5
951.2207	2222.7931	10357.45	9476.65
951.3546	2224.2733	10291.15	9410.9
951.4886	2225.7529	10307.9	9427.1
951.6225	2227.2317	10272.2	9389.55
951.7563	2228.7098	10250.05	9370.85
951.8902	2230.1872	10195.4	9312.85
952.024	2231.6638	10179.85	9298.15
952.1578	2233.1397	10147.6	9260.45
952.2916	2234.6149	10136.95	9258.2
952.4253	2236.0894	10096.35	9214.2
952.559	2237.5632	10078.15	9196.25
952.6927	2239.0362	10038	9157.9
952.8263	2240.5085	10003.6	9122.95
952.9599	2241.9801	9949.9	9067.25
953.0935	2243.4509	9955.8	9075.55
953.2271	2244.921	9908.8	9029.35
953.3606	2246.3904	9857.6	8973.55
953.4941	2247.8591	9819.4	8940.45
953.6276	2249.3271	9813.55	8931
953.7611	2250.7943	9795.3	8912.9
953.8945	2252.2608	9724.95	8845.95
954.0279	2253.7266	9690.65	8810.55
954.1612	2255.1917	9683.75	8803.65
954.2946	2256.656	9619.25	8739.2
954.4279	2258.1197	9629.35	8749.1
954.5612	2259.5826	9587.1	8704.4
954.6944	2261.0447	9586.6	8704.15
954.8276	2262.5062	9558.6	8675.85
954.9608	2263.9669	9518.95	8637.3
955.094	2265.4269	9503	8623.45
955.2271	2266.8862	9474.7	8594.15
955.3602	2268.3448	9438.6	8556.4
955.4933	2269.8026	9404.3	8524.1
955.6264	2271.2598	9370.4	8490.7
955.7594	2272.7162	9371.55	8492.25
955.8924	2274.1719	9353.65	8474.4
956.0253	2275.6268	9312.35	8431.05
956.1583	2277.0811	9301.95	8423.35
956.2912	2278.5346	9258.05	8379.55
956.4241	2279.9874	9266.8	8385.5
956.5569	2281.4395	9247	8368.1
956.6897	2282.8908	9185.2	8298.7
956.8225	2284.3414	9178.7	8297.45
956.9553	2285.7914	9132.5	8251.85
957.088	2287.2406	9116.2	8233.7
957.2207	2288.689	9094.9	8213.3
957.3534	2290.1368	9051.3	8169.55
957.486	2291.5838	9048.8	8165.25
957.6186	2293.0302	9002.65	8120.9
957.7512	2294.4758	8957.75	8077.05
957.8838	2295.9206	8948.25	8064
958.0163	2297.3648	8916	8036.05
958.1488	2298.8082	8897.6	8015.7
958.2813	2300.251	8864.5	7982.9
958.4137	2301.693	8848.25	7965.5
958.5461	2303.1343	8829.25	7949.05
958.6785	2304.5748	8775.15	7893.6
958.8108	2306.0147	8766.9	7884.9
958.9432	2307.4538	8732	7848.15
959.0754	2308.8922	8701	7821.75
959.2077	2310.3299	8674.3	7792.95
959.3399	2311.7669	8656.95	7776.35
959.4721	2313.2031	8633.35	7752.9
959.6043	2314.6387	8589.35	7707.9
959.7365	2316.0735	8566.9	7687.8
959.8686	2317.5076	8557.1	7676.9
960.0006	2318.941	8540.75	7660.1
960.1327	2320.3737	8517.85	7637.6
960.2647	2321.8056	8483.5	7598.9
960.3967	2323.2369	8451.8	7570.35
960.5287	2324.6674	8407.25	7523.35
960.6606	2326.0972	8423.55	7542.4
960.7925	2327.5263	8394.75	7513.95
960.9244	2328.9547	8331.2	7447.95
961.0562	2330.3823	8308.75	7425.95
961.1881	2331.8092	8314.75	7431.65
961.3198	2333.2355	8281.8	7401.7
961.4516	2334.661	8256.4	7376.75
961.5833	2336.0858	8234.5	7351.95
961.715	2337.5098	8204.9	7324.7
961.8467	2338.9332	8201.55	7320.2
961.9783	2340.3558	8183.75	7300.1
962.1099	2341.7778	8143.55	7262.3
962.2415	2343.199	8127.15	7245.55
962.373	2344.6195	8106.6	7224.1
962.5045	2346.0393	8082.45	7202.3
962.636	2347.4583	8067.4	7185.1
962.7675	2348.8767	8028.85	7147.4
962.8989	2350.2943	8019.9	7137.3
963.0303	2351.7113	8023.1	7141.7
963.1617	2353.1275	7956.85	7074.35
963.293	2354.543	7946.7	7057.85
963.4243	2355.9578	7936.25	7055.75
963.5556	2357.3718	7869.1	6988.35
963.6868	2358.7852	7858.7	6974.75
963.818	2360.1978	7848.7	6967.35
963.9492	2361.6098	7812.8	6933.45
964.0803	2363.021	7785.2	6901.7
964.2114	2364.4315	7763.6	6882.05
964.3425	2365.8413	7748.55	6861.65
964.4736	2367.2504	7717.1	6836.65
964.6046	2368.6587	7677.45	6796.35
964.7356	2370.0664	7655.75	6773.2
964.8666	2371.4733	7635.9	6752.35
964.9975	2372.8795	7618.95	6739.4
965.1284	2374.285	7574.15	6692.95
965.2593	2375.6899	7542.25	6662.7
965.3901	2377.0939	7518.95	6637.4
965.5209	2378.4973	7483.7	6602.2
965.6517	2379.9	7461.6	6580.2
965.7825	2381.3019	7464.8	6582.15
965.9132	2382.7032	7434.9	6553.95
966.0439	2384.1037	7421.05	6541.1
966.1745	2385.5035	7413.4	6531.9
966.3051	2386.9027	7400.15	6520.65
966.4357	2388.3011	7388.1	6503.25
966.5663	2389.6987	7350.65	6468.8
966.6968	2391.0957	7326.2	6444.6
966.8273	2392.492	7278.45	6398.5
966.9578	2393.8876	7237.55	6355.3
967.0882	2395.2824	7207.4	6326.2
967.2186	2396.6765	7187	6307.6
967.349	2398.07	7137.05	6255.95
967.4793	2399.4627	7173.15	6290.2
967.6097	2400.8547	7135.9	6255.3
967.7399	2402.246	7124.8	6240.65
967.8702	2403.6366	7065.2	6183.95
968.0004	2405.0265	7023.05	6143.35
968.1306	2406.4156	7012.05	6128.3
968.2607	2407.8041	6999.2	6114.1
968.3909	2409.1918	6976.8	6094
968.521	2410.5789	6963.4	6079.9
968.651	2411.9652	6904.15	6019.45
968.781	2413.3508	6914.35	6031.1
968.911	2414.7358	6875.65	5992.5
969.041	2416.12	6854.9	5974.45
969.1709	2417.5035	6816.35	5935.8
969.3008	2418.8863	6815.4	5931.6
969.4307	2420.2684	6778.9	5898.45
969.5606	2421.6497	6752	5869.5
969.6904	2423.0304	6718.1	5838.95
969.8201	2424.4104	6694.05	5812.35
969.9499	2425.7896	6676.85	5787.75
970.0796	2427.1682	6667.4	5785.5
970.2093	2428.546	6652.4	5767
970.3389	2429.9232	6631.65	5748.1
970.4685	2431.2996	6604.8	5724.65
970.5981	2432.6753	6589.7	5708.05
970.7277	2434.0503	6584.75	5704.8
970.8572	2435.4246	6539.5	5658.8
970.9867	2436.7982	6523.1	5640.8
971.1161	2438.1711	6503.6	5623.1
971.2456	2439.5433	6488.75	5605.95
971.375	2440.9148	6465.95	5579
971.5043	2442.2856	6423.15	5543.15
971.6336	2443.6557	6395.35	5512.65
971.7629	2445.025	6388.3	5508.45
971.8922	2446.3937	6379.7	5497
972.0214	2447.7617	6373.55	5493.85
972.1506	2449.1289	6358.85	5478.7
972.2798	2450.4955	6331.05	5443.85
972.4089	2451.8613	6315.25	5435.6
972.538	2453.2265	6284.35	5401.8
972.6671	2454.5909	6257.35	5376.3
972.7961	2455.9546	6246.6	5366.95
972.9251	2457.3177	6236.75	5354.9
973.0541	2458.68	6225.75	5344.4
973.1831	2460.0416	6208.25	5327.2
973.312	2461.4025	6218.45	5338.3
973.4408	2462.7627	6204.35	5311.05
973.5697	2464.1222	6172.45	5292.1
973.6985	2465.4811	6155.2	5273.05
973.8273	2466.8392	6120.95	5238.6
973.956	2468.1966	6094.1	5209.95
974.0847	2469.5533	6097.15	5213.25
974.2134	2470.9093	6086.9	5206.05
974.3421	2472.2645	6070.2	5188.5
974.4707	2473.6191	6035	5154.45
974.5993	2474.973	6003.85	5121.6
974.7278	2476.3262	5989.85	5107.3
974.8563	2477.6787	5980.55	5101.4
974.9848	2479.0305	5945	5063.9
975.1132	2480.3816	5925.55	5042.7
975.2417	2481.7319	5915.2	5033.6
975.37	2483.0816	5890.25	5009.55
975.4984	2484.4306	5874.1	4991.4
975.6267	2485.7789	5856.25	4977.2
975.755	2487.1264	5827.65	4947.65
975.8833	2488.4733	5792.35	4912.75
976.0115	2489.8195	5795.75	4908.7
976.1397	2491.165	5770.8	4884.25
976.2678	2492.5097	5753.65	4871.2
976.3959	2493.8538	5728.05	4847.45
976.524	2495.1972	5713.6	4831.55
976.6521	2496.5398	5710.2	4829.15
976.7801	2497.8818	5669.4	4786.1
976.9081	2499.2231	5650.6	4768.1
977.036	2500.5637	5625.45	4743.55
977.164	2501.9035	5600.25	4717.65
977.2918	2503.2427	5581.85	4697.4
977.4197	2504.5812	5591.7	4709.1
977.5475	2505.919	5564.95	4681.95
977.6753	2507.256	5573.65	4692.25
977.8031	2508.5924	5542.15	4662.3
977.9308	2509.9281	5526.35	4639.55
978.0585	2511.2631	5499.55	4617
978.1861	2512.5974	5477.45	4597.35
978.3137	2513.9309	5448.4	4566.6
978.4413	2515.2638	5474.85	4564.35
978.5689	2516.596	5437.05	4555.35
978.6964	2517.9275	5403.2	4519.85
978.8239	2519.2583	5396.15	4513.3
978.9513	2520.5884	5365.25	4482.25
979.0788	2521.9178	5359.2	4477.45
979.2062	2523.2465	5337.1	4458.9
979.3335	2524.5745	5324.45	4441.7
979.4608	2525.9018	5295.2	4415.85
979.5881	2527.2284	5284.1	4405.2
979.7154	2528.5543	5270.95	4390.2
979.8426	2529.8796	5258.7	4377.25
979.9698	2531.2041	5241.95	4359.85
980.0969	2532.5279	5249.55	4369.4
980.224	2533.851	5230.3	4349.95
980.3511	2535.1735	5213.65	4332.55
980.4781	2536.4952	5198.25	4317.45
980.6052	2537.8163	5185.25	4304.45
980.7321	2539.1366	5177.75	4296.75
980.8591	2540.4562	5163.75	4280.4
980.986	2541.7752	5156.55	4275.3
981.1129	2543.0935	5133.55	4253.3
981.2397	2544.411	5116	4233.1
981.3665	2545.7279	5115.6	4234.05
981.4933	2547.0441	5097.15	4216.45
981.62	2548.3596	5089.85	4205.45
981.7467	2549.6744	5079.15	4197.7
981.8734	2550.9885	5063.4	4173.55
982.0001	2552.3019	5065.95	4184
982.1267	2553.6146	5052.6	4172.95
982.2532	2554.9266	5027.15	4147.2
982.3798	2556.2379	5006.85	4125.6
982.5063	2557.5485	4994.9	4115.5
982.6327	2558.8585	4997.75	4109.75
982.7592	2560.1677	4980.95	4096.75
982.8856	2561.4762	4969.9	4087.35
983.0119	2562.7841	4974.15	4089.55
983.1383	2564.0913	4948	4068.8
983.2646	2565.3977	4946.9	4066.5
983.3908	2566.7035	4920.5	4038.9
983.517	2568.0086	4904.8	4023.1
983.6432	2569.313	4909.9	4026
983.7694	2570.6167	4892.35	4010.4
983.8955	2571.9197	4876.55	3996.55
984.0216	2573.222	4886.95	4003.1
984.1476	2574.5236	4878.05	3995.3
984.2737	2575.8246	4852.95	3968.55
984.3996	2577.1248	4842.05	3956.75
984.5256	2578.4244	4837.5	3957.35
984.6515	2579.7232	4841.1	3960.6
984.7774	2581.0214	4837.45	3933.3
984.9032	2582.3189	4820.6	3941.4
985.029	2583.6157	4801.3	3916.6
985.1548	2584.9118	4804.05	3922.45
985.2806	2586.2072	4793.05	3910.6
985.4063	2587.5019	4754.9	3875.05
985.5319	2588.7959	4746.4	3863.25
985.6576	2590.0893	4723.6	3841.25
985.7832	2591.3819	4700.5	3820.05
985.9087	2592.6739	4686.7	3805.35
986.0343	2593.9652	4678.45	3795.6
986.1597	2595.2557	4680.85	3800.25
986.2852	2596.5456	4649.8	3766.6
986.4106	2597.8348	4624.55	3744.55
986.536	2599.1234	4609.5	3729.3
986.6614	2600.4112	4607.7	3726.55
986.7867	2601.6983	4599.55	3712.2
986.912	2602.9848	4575.95	3695.5
987.0372	2604.2705	4567.1	3678.4
987.1624	2605.5556	4553.75	3672.8
987.2876	2606.84	4536.25	3656.2
987.4128	2608.1237	4516.1	3633.35
987.5379	2609.4067	4500.3	3617.7
987.6629	2610.689	4497.4	3607.5
987.788	2611.9707	4499.45	3614.05
987.913	2613.2516	4469.15	3583.3
988.0379	2614.5319	4443.45	3562.15
988.1629	2615.8115	4421.55	3538.3
988.2878	2617.0903	4410.35	3528.6
988.4126	2618.3685	4405.4	3522.65
988.5375	2619.6461	4385	3504.9
988.6622	2620.9229	4366.55	3484.55
988.787	2622.199	4373.75	3493.15
988.9117	2623.4745	4350.3	3467.8
989.0364	2624.7493	4342.2	3462.8
989.161	2626.0234	4328.95	3448.05
989.2857	2627.2968	4308.05	3426
989.4102	2628.5695	4275.5	3391.7
989.5348	2629.8415	4269.4	3389.2
989.6593	2631.1128	4254.35	3371.2
989.7837	2632.3835	4242.15	3362.75
989.9082	2633.6535	4225.25	3344.8
990.0326	2634.9228	4228.6	3347.35
990.1569	2636.1914	4191.9	3310.35
990.2812	2637.4593	4183.3	3297.3
990.4055	2638.7265	4175.1	3294.5
990.5298	2639.9931	4168.15	3285.1
990.654	2641.259	4156.1	3275.45
990.7782	2642.5242	4135.8	3253.95
990.9023	2643.7887	4117.9	3236.6
991.0264	2645.0525	4120	3238.45
991.1505	2646.3156	4098.55	3216.25
991.2745	2647.5781	4090.8	3209.4
991.3985	2648.8398	4069.9	3187.5
991.5225	2650.1009	4094.8	3178.8
991.6464	2651.3613	4072.45	3192.45
991.7703	2652.6211	4046.35	3165.05
991.8942	2653.8801	4040.75	3159.4
992.018	2655.1385	4032.35	3148.2
992.1418	2656.3961	4018.4	3138.4
992.2655	2657.6531	3999.55	3118.45
992.3892	2658.9094	3984.35	3102.9
992.5129	2660.1651	3998.2	3117.05
992.6366	2661.42	3965.95	3084.5
992.7602	2662.6743	3974.2	3092.45
992.8837	2663.9279	3950.85	3069.7
993.0073	2665.1808	3959.15	3079.45
993.1307	2666.433	3929.8	3047.25
993.2542	2667.6846	3925.35	3045
993.3776	2668.9354	3905.95	3021.65
993.501	2670.1856	3912.95	3030.25
993.6244	2671.4351	3903.1	3021.85
993.7477	2672.6839	3889.7	3006.3
993.8709	2673.9321	3872.85	2989.6
993.9942	2675.1795	3863.45	2982
994.1174	2676.4263	3844.8	2962.5
994.2405	2677.6724	3845.8	2965.85
994.3637	2678.9179	3829.6	2947.8
994.4868	2680.1626	3816.1	2936.85
994.6098	2681.4067	3810.55	2928.85
994.7328	2682.6501	3796.45	2915.1
994.8558	2683.8928	3788.55	2906.85
994.9788	2685.1348	3779.7	2899.75
995.1017	2686.3761	3761.75	2878.85
995.2245	2687.6168	3759.85	2877.55
995.3474	2688.8568	3733.95	2853.15
995.4702	2690.0961	3723.5	2843.75
995.5929	2691.3348	3716.9	2835.1
995.7156	2692.5727	3707.85	2827.4
995.8383	2693.81	3686.45	2805.85
995.961	2695.0466	3680.6	2802.35
996.0836	2696.2826	3673.7	2790.9
996.2062	2697.5178	3673.65	2790.55
996.3287	2698.7524	3661.45	2780.5
996.4512	2699.9863	3642.3	2758.4
996.5737	2701.2195	3637.2	2757.95
996.6961	2702.452	3634	2749.5
996.8185	2703.6839	3619.15	2737
996.9408	2704.9151	3604.1	2723.55
997.0631	2706.1456	3602.4	2720.95
997.1854	2707.3755	3578.8	2697.65
997.3077	2708.6046	3575.8	2690
997.4299	2709.8331	3560.75	2678.15
997.552	2711.0609	3562.3	2683
997.6742	2712.2881	3534.75	2653.85
997.7963	2713.5145	3521.5	2638.85
997.9183	2714.7403	3514	2632.65
998.0403	2715.9654	3501.25	2620.25
998.1623	2717.1899	3496	2600.35
998.2842	2718.4136	3492.4	2610.9
998.4062	2719.6367	3481.45	2601.25
998.528	2720.8591	3466.95	2578.75
998.6498	2722.0809	3464.5	2583.6
998.7716	2723.3019	3457.5	2572.75
998.8934	2724.5223	3433.05	2550.7
999.0151	2725.7421	3435.4	2553.9
999.1368	2726.9611	3419.55	2536.85
999.2584	2728.1795	3408.2	2521.7
999.38	2729.3972	3403.65	2524.05
999.5016	2730.6142	3384.9	2495.45
999.6231	2731.8306	3359.9	2477.55
999.7446	2733.0462	3366.7	2483.2
999.8661	2734.2612	3341	2454.35
999.9875	2735.4756	3332.5	2451
1000.1089	2736.6892	3306.7	2425.25
1000.2302	2737.9022	3294.6	2415.7
1000.3515	2739.1145	3296.9	2415.55
1000.4728	2740.3262	3288.6	2401.95
1000.594	2741.5372	3266.75	2386.7
1000.7152	2742.7475	3257.7	2376.75
1000.8363	2743.9571	3259.6	2375.45
1000.9575	2745.1661	3245.15	2359.4
1001.0785	2746.3744	3233.5	2350.15
1001.1996	2747.582	3224.6	2345.8
1001.3206	2748.7889	3221.65	2339.25
1001.4415	2749.9952	3209.95	2329.25
1001.5625	2751.2008	3196.35	2315.6
1001.6833	2752.4057	3194.7	2310.55
1001.8042	2753.61	3182.45	2300.5
1001.925	2754.8136	3182.9	2299.4
1002.0458	2756.0165	3170.9	2289.25
1002.1665	2757.2188	3149.85	2270
1002.2872	2758.4204	3148.7	2266.8
1002.4078	2759.6213	3132.6	2250.1
1002.5285	2760.8215	3138.35	2254
1002.649	2762.0211	3123.5	2241
1002.7696	2763.22	3116.2	2231.8
1002.8901	2764.4182	3098.8	2213.4
1003.0106	2765.6158	3098.4	2216.35
1003.131	2766.8127	3090.3	2208.8
1003.2514	2768.009	3085.2	2203.45
1003.3717	2769.2045	3063.9	2181.7
1003.492	2770.3994	3060.05	2174.6
1003.6123	2771.5936	3044.55	2164.2
1003.7325	2772.7872	3033.2	2153.2
1003.8527	2773.9801	3022.45	2138.5
1003.9729	2775.1723	3038.85	2141.95
1004.093	2776.3639	3011.55	2129.55
1004.2131	2777.5548	3011.2	2128.35
1004.3331	2778.745	2988.65	2107.2
1004.4531	2779.9346	2976.65	2096.25
1004.5731	2781.1235	2971.75	2089.65
1004.693	2782.3117	2973.2	2094.2
1004.8129	2783.4992	2956.85	2075
1004.9328	2784.6861	2950.9	2071.05
1005.0526	2785.8723	2944.9	2059.8
1005.1723	2787.0579	2926.6	2045.05
1005.2921	2788.2428	2922.75	2040.15
1005.4118	2789.427	2925.55	2044.2
1005.5314	2790.6106	2904.05	2023.9
1005.651	2791.7935	2894.7	2012.1
1005.7706	2792.9757	2880.95	2002.45
1005.8902	2794.1573	2871.15	1987.65
1006.0097	2795.3382	2862.6	1982.05
1006.1291	2796.5184	2855.6	1976.6
1006.2485	2797.698	2853.55	1972.15
1006.3679	2798.8769	2841.6	1959.9
1006.4873	2800.0551	2844.1	1960.85
1006.6066	2801.2327	2819.45	1935
1006.7258	2802.4096	2822.05	1942.3
1006.8451	2803.5859	2820.55	1939.75
1006.9642	2804.7615	2803.3	1921.1
1007.0834	2805.9364	2792.45	1912.1
1007.2025	2807.1106	2788.45	1906.9
1007.3216	2808.2842	2786.6	1905
1007.4406	2809.4572	2783.4	1902.85
1007.5596	2810.6294	2767.85	1883.85
1007.6785	2811.801	2764.45	1886
1007.7975	2812.972	2764.7	1884.75
1007.9163	2814.1423	2757.75	1877.5
1008.0352	2815.3119	2753.15	1872.3
1008.154	2816.4808	2749.25	1867.15
1008.2727	2817.6491	2766.3	1885
1008.3914	2818.8167	2755.2	1874.65
1008.5101	2819.9837	2751.25	1865.55
1008.6288	2821.15	2758.3	1877.55
1008.7474	2822.3157	2764.55	1884.75
1008.8659	2823.4807	2773.65	1893.65
1008.9844	2824.645	2777	1893.65
1009.1029	2825.8086	2794.2	1911.85
1009.2214	2826.9716	2777.15	1896.1
1009.3398	2828.134	2818.7	1938.65
1009.4581	2829.2957	2814.85	1934.2
1009.5764	2830.4567	2825.9	1945.8
1009.6947	2831.617	2814.9	1933.7
1009.813	2832.7767	2816.6	1937.1
1009.9312	2833.9358	2828.6	1948.95
1010.0493	2835.0941	2816.4	1934.05
1010.1675	2836.2519	2806.55	1926.55
1010.2855	2837.4089	2791.35	1909.45
1010.4036	2838.5653	2776.95	1894.65
1010.5216	2839.7211	2784.15	1904.45
1010.6396	2840.8761	2756.5	1876.1
1010.7575	2842.0306	2755.2	1875.85
1010.8754	2843.1843	2744.95	1863.4
1010.9932	2844.3374	2740.05	1860.55
1011.111	2845.4899	2739.35	1857.5
1011.2288	2846.6417	2746.3	1866.7
1011.3465	2847.7928	2731.8	1853
1011.4642	2848.9433	2732.9	1851.55
1011.5818	2850.0931	2729.6	1850.55
1011.6995	2851.2422	2724.45	1839
1011.817	2852.3907	2722.65	1843.65
1011.9345	2853.5385	2734.45	1854.4
1012.052	2854.6857	2724.5	1832.4
1012.1695	2855.8323	2706.3	1825.1
1012.2869	2856.9781	2707.7	1826.3
1012.4042	2858.1233	2695.25	1814.65
1012.5216	2859.2679	2696.25	1815.6
1012.6389	2860.4118	2713.45	1832.75
1012.7561	2861.555	2704.3	1818.65
1012.8733	2862.6976	2723.5	1840.65
1012.9905	2863.8395	2697.05	1818.35
1013.1076	2864.9808	2711.8	1830.9
1013.2247	2866.1214	2705.4	1823.6
1013.3417	2867.2614	2708.25	1826.9
1013.4587	2868.4007	2698.1	1814.7
1013.5757	2869.5393	2697.25	1813.7
1013.6926	2870.6773	2691.45	1809.1
1013.8095	2871.8146	2686.35	1801.5
1013.9263	2872.9513	2691	1807.7
1014.0431	2874.0874	2672.25	1790.9
1014.1599	2875.2227	2672.75	1793.1
1014.2766	2876.3574	2679.25	1798.5
1014.3933	2877.4915	2674.6	1794.7
1014.51	2878.6249	2655	1771.7
1014.6266	2879.7577	2652.7	1771.7
1014.7431	2880.8898	2666.55	1775.5
1014.8596	2882.0212	2664.25	1785.5
1014.9761	2883.152	2658.15	1775
1015.0925	2884.2821	2655.85	1776.95
1015.2089	2885.4116	2648.95	1770.1
1015.3253	2886.5405	2645.45	1765.05
1015.4416	2887.6686	2640.25	1756.4
1015.5579	2888.7962	2633.45	1754.8
1015.6741	2889.923	2626.6	1745.95
1015.7903	2891.0493	2622.25	1742.65
1015.9065	2892.1748	2599.15	1718.05
1016.0226	2893.2997	2604.75	1723.2
1016.1387	2894.424	2598.3	1719.35
1016.2547	2895.5476	2580.15	1698.8
1016.3707	2896.6706	2585.95	1706.55
1016.4866	2897.7929	2575.55	1694
1016.6025	2898.9145	2587.7	1706.55
1016.7184	2900.0355	2559	1676.25
1016.8342	2901.1559	2558.75	1677.7
1016.95	2902.2756	2549.4	1669.5
1017.0658	2903.3946	2556.85	1676.8
1017.1815	2904.513	2538.1	1652.05
1017.2971	2905.6308	2527.7	1647.15
1017.4127	2906.7479	2516.5	1634.7
1017.5283	2907.8643	2506.75	1624.5
1017.6439	2908.9801	2499.4	1619.65
1017.7594	2910.0953	2498.05	1616.95
1017.8748	2911.2098	2495.1	1611.55
1017.9902	2912.3236	2490.25	1603.1
1018.1056	2913.4368	2479	1596.1
1018.2209	2914.5494	2480	1597.2
1018.3362	2915.6613	2475.25	1589.05
1018.4515	2916.7725	2465.65	1582.95
1018.5667	2917.8831	2450.25	1569.1
1018.6819	2918.9931	2440.55	1557.2
1018.797	2920.1024	2432.15	1549.45
1018.9121	2921.211	2414.4	1535.95
1019.0271	2922.319	2407.15	1525.45
1019.1421	2923.4264	2396.7	1517.05
1019.2571	2924.5331	2385.05	1505.45
1019.372	2925.6391	2377.45	1497.8
1019.4869	2926.7445	2384.75	1506.15
1019.6017	2927.8493	2381.75	1500.4
1019.7165	2928.9534	2374.65	1494.25
1019.8313	2930.0569	2371.3	1488.05
1019.946	2931.1597	2373.5	1491
1020.0606	2932.2619	2360.2	1478.8
1020.1753	2933.3634	2364.25	1482.4
1020.2899	2934.4643	2372.4	1484.5
1020.4044	2935.5645	2371.35	1483.4
1020.5189	2936.6641	2364.8	1481.35
1020.6334	2937.763	2359.1	1479
1020.7478	2938.8613	2348.35	1467.55
1020.8622	2939.959	2354.35	1468.7
1020.9765	2941.056	2326.75	1445.9
1021.0908	2942.1523	2314.15	1433.15
1021.2051	2943.248	2297.15	1415.55
1021.3193	2944.3431	2274.45	1394.55
1021.4334	2945.4375	2261.65	1380.85
1021.5476	2946.5313	2241.9	1363.2
1021.6617	2947.6244	2218.15	1336.85
1021.7757	2948.7169	2192.75	1310.75
1021.8897	2949.8087	2183.9	1300.9
1022.0037	2950.8999	2161.55	1281
1022.1176	2951.9904	2139.85	1259.55
1022.2315	2953.0803	2128.6	1248.15
1022.3453	2954.1696	2116.55	1234.3
1022.4591	2955.2582	2109.35	1230.2
1022.5728	2956.3462	2095.15	1214.7
1022.6865	2957.4335	2091.35	1210.15
1022.8002	2958.5202	2080.6	1196.2
1022.9138	2959.6062	2080.3	1200.15
1023.0274	2960.6916	2074.3	1194.05
1023.141	2961.7764	2070.55	1189.5
1023.2545	2962.8605	2054.15	1171.9
1023.3679	2963.9439	2055.35	1174.95
1023.4813	2965.0267	2060.45	1178.25
1023.5947	2966.1089	2061.95	1159.2
1023.708	2967.1905	2027.9	1146.5
1023.8213	2968.2714	2020.75	1141.35
1023.9346	2969.3516	2027.2	1145.75
1024.0478	2970.4312	2029.3	1140.2
1024.1609	2971.5102	2011.4	1129.85
1024.274	2972.5885	2012.75	1132.5
1024.3871	2973.6662	2003.35	1116.5
1024.5002	2974.7432	1996.2	1116.65
1024.6132	2975.8196	2002.35	1120.1
1024.7261	2976.8954	1994.1	1113.4
1024.839	2977.9705	1983.95	1102.85
1024.9519	2979.045	1979.15	1100
1025.0647	2980.1188	1971.9	1091.45
1025.1775	2981.192	1963.55	1083.7
1025.2902	2982.2645	1956.55	1074.55
1025.4029	2983.3364	1956.95	1077
1025.5156	2984.4077	1941.3	1060.8
1025.6282	2985.4783	1950.75	1064.8
1025.7407	2986.5483	1933.3	1053.5
1025.8532	2987.6177	1921.9	1042
1025.9657	2988.6864	1907.35	1026.05
1026.0782	2989.7545	1915.95	1035.75
1026.1906	2990.8219	1905.4	1026.1
1026.3029	2991.8887	1892.25	1010.25
1026.4152	2992.9548	1884.05	1002.1
1026.5275	2994.0204	1879.4	999
1026.6397	2995.0852	1869.6	988.05
1026.7519	2996.1495	1861.3	979.95
1026.864	2997.2131	1851.1	971.15
1026.9761	2998.276	1845.05	965.4
1027.0882	2999.3383	1825.5	941.9
1027.2002	3000.4	1828.15	947.2
1027.3122	3001.4611	1823.35	941.95
1027.4241	3002.5215	1809.7	928.55
1027.536	3003.5812	1805.75	925.6
1027.6478	3004.6404	1800.05	916.9
1027.7596	3005.6989	1802.35	919
1027.8714	3006.7567	1795.45	913.95
1027.9831	3007.8139	1804.2	899.55
1028.0947	3008.8705	1776.15	895.9
1028.2064	3009.9264	1777.3	893
1028.3179	3010.9818	1768.65	888.4
1028.4295	3012.0364	1762.85	882.9
1028.541	3013.0905	1750.95	869.1
1028.6524	3014.1439	1751.65	871.4
1028.7638	3015.1966	1754.9	874.3
1028.8752	3016.2487	1743.4	862.8
1028.9865	3017.3002	1745	861.75
1029.0978	3018.3511	1735.8	856.55
1029.209	3019.4013	1733.4	853.05
1029.3202	3020.4509	1730.4	850.1
1029.4314	3021.4998	1726.7	847.45
1029.5425	3022.5481	1724.05	843.3
1029.6535	3023.5958	1719.85	837.5
1029.7645	3024.6428	1711.75	829.9
1029.8755	3025.6892	1711	832.95
1029.9864	3026.735	1703.7	822.5
1030.0973	3027.7802	1696.35	812.75
1030.2082	3028.8247	1693.3	813.05
1030.319	3029.8685	1695.25	814.5
1030.4297	3030.9118	1691.35	809.3
1030.5404	3031.9544	1689.15	809.2
1030.6511	3032.9963	1685.6	804.95
1030.7617	3034.0376	1682.05	800.9
1030.8723	3035.0783	1671.95	789.2
1030.9829	3036.1184	1667.9	786.1
1031.0934	3037.1578	1667.35	787.15
1031.2038	3038.1966	1670.95	789.3
1031.3142	3039.2348	1668	788.85
1031.4246	3040.2723	1662.35	771
1031.5349	3041.3092	1667.5	788.5
1031.6452	3042.3455	1660.75	782.15
1031.7554	3043.3811	1645.9	765.25
1031.8656	3044.4161	1643.75	762.25
1031.9758	3045.4505	1645.35	766.35
1032.0859	3046.4842	1634.9	753.35
1032.1959	3047.5173	1640	760.35
1032.3059	3048.5498	1639.1	757.05
1032.4159	3049.5816	1626.8	746.2
1032.5258	3050.6128	1645.15	763.9
1032.6357	3051.6434	1627.95	745.5
1032.7455	3052.6734	1625.9	743.7
1032.8553	3053.7027	1622.6	742.3
1032.9651	3054.7314	1617.15	737.3
1033.0748	3055.7594	1619.3	739.15
1033.1845	3056.7868	1616.3	734.75
1033.2941	3057.8136	1608.55	729.5
1033.4037	3058.8398	1614.95	733.25
1033.5132	3059.8653	1613	731.85
1033.6227	3060.8902	1608.05	728.75
1033.7321	3061.9145	1603	722.55
1033.8415	3062.9381	1599.15	719.65
1033.9509	3063.9612	1615.4	718.7
1034.0602	3064.9835	1594.5	715
1034.1694	3066.0053	1590.55	707.8
1034.2787	3067.0264	1590.1	709.1
1034.3878	3068.0469	1584.1	701.45
1034.497	3069.0668	1589.25	705.85
1034.6061	3070.086	1584.8	705.85
1034.7151	3071.1046	1572.25	691.5
1034.8241	3072.1226	1582.45	700.8
1034.9331	3073.1399	1572.65	691.2
1035.042	3074.1567	1572.35	689.05
1035.1508	3075.1727	1564.1	681.15
1035.2597	3076.1882	1556.05	675
1035.3684	3077.203	1557.7	675.55
1035.4772	3078.2173	1556.85	674.05
1035.5859	3079.2308	1547.5	663.9
1035.6945	3080.2438	1550.3	667.75
1035.8031	3081.2561	1542.25	662.2
1035.9117	3082.2678	1538.25	657
1036.0202	3083.2789	1535.2	654.95
1036.1286	3084.2893	1534.05	652.3
1036.2371	3085.2991	1526.8	644.1
1036.3454	3086.3083	1519.1	633.65
1036.4538	3087.3169	1528.75	647.75
1036.562	3088.3248	1522.45	640.25
1036.6703	3089.3321	1516.1	632.6
1036.7785	3090.3388	1515.3	634.7
1036.8866	3091.3449	1508.2	629.3
1036.9948	3092.3503	1503.4	621.45
1037.1028	3093.3551	1501.55	623.75
1037.2108	3094.3593	1496.8	616.3
1037.3188	3095.3629	1495.05	614.55
1037.4267	3096.3658	1494.1	612
1037.5346	3097.3681	1498.1	618.15
1037.6425	3098.3698	1488.2	603.95
1037.7503	3099.3708	1495.1	607.85
1037.858	3100.3713	1479.65	600.5
1037.9657	3101.3711	1473.55	590.9
1038.0734	3102.3702	1596.5	575.8
1038.181	3103.3688	1472.8	589.55
1038.2886	3104.3667	1471.5	591.5
1038.3961	3105.364	1461.2	581.25
1038.5036	3106.3607	1458	574
1038.611	3107.3568	1457.55	577.05
1038.7184	3108.3522	1449.15	569.45
1038.8257	3109.347	1440.85	558.35
1038.933	3110.3412	1454.05	568.6
1039.0403	3111.3348	1440.8	560.6
1039.1475	3112.3277	1434.2	554.35
1039.2547	3113.32	1435.4	555.35
1039.3618	3114.3117	1432.3	550.85
1039.4689	3115.3028	1423.9	543.9
1039.5759	3116.2932	1422.2	539.45
1039.6829	3117.2831	1427.45	540.35
1039.7898	3118.2723	1413	531.65
1039.8967	3119.2608	1418.85	538.15
1040.0035	3120.2488	1418.55	537.05
1040.1103	3121.2361	1409	528
1040.2171	3122.2229	1403.55	524.2
1040.3238	3123.209	1403.25	522.2
1040.4305	3124.1944	1397.95	516
1040.5371	3125.1793	1396	512.85
1040.6437	3126.1635	1396.55	516.65
1040.7502	3127.1471	1388.6	509.4
1040.8567	3128.1301	1389	508.05
1040.9631	3129.1125	1382.4	500.95
1041.0695	3130.0942	1387.15	505.6
1041.1759	3131.0753	1397.35	510.6
1041.2822	3132.0558	1383.55	502.4
1041.3884	3133.0357	1379.25	497.25
1041.4946	3134.015	1373.2	492.05
1041.6008	3134.9936	1368.2	485.6
1041.7069	3135.9716	1386.4	484.75
1041.813	3136.949	1378.7	496.85
1041.919	3137.9258	1378.05	489.8
1042.025	3138.902	1365.35	480.4
1042.1309	3139.8775	1362.05	482.35
1042.2368	3140.8524	1355.05	473.45
1042.3427	3141.8267	1365	483.1
1042.4485	3142.8004	1360.8	478.4
1042.5542	3143.7735	1359.25	473.8
1042.6599	3144.7459	1365.5	482.3
1042.7656	3145.7178	1353.05	473.35
1042.8712	3146.689	1346	465.55
1042.9768	3147.6596	1344.45	462.25
1043.0823	3148.6295	1344.7	462.95
1043.1878	3149.5989	1344.3	463.75
1043.2932	3150.5676	1333.95	455
1043.3986	3151.5357	1330.6	451.3
1043.5039	3152.5032	1332.2	451.35
1043.6092	3153.4701	1331.85	452.75
1043.7145	3154.4364	1331.45	449.15
1043.8197	3155.402	1329.9	450.15
1043.9248	3156.367	1321.9	438.55
1044.03	3157.3315	1357	439.1
1044.135	3158.2952	1316.8	436.85
1044.24	3159.2584	1318.65	440.5
1044.345	3160.221	1317.1	436.7
1044.4499	3161.1829	1314.25	433.2
1044.5548	3162.1442	1310.75	429.65
1044.6596	3163.105	1306.5	425.45
1044.7644	3164.065	1306.15	423.95
1044.8692	3165.0245	1306.1	421.4
1044.9739	3165.9834	1298.5	418.35
1045.0785	3166.9416	1294.1	412.9
1045.1831	3167.8993	1299.7	416.55
1045.2877	3168.8563	1291.25	408.8
1045.3922	3169.8127	1292	413
1045.4966	3170.7684	1286.75	407.95
1045.6011	3171.7236	1284.5	402.85
1045.7054	3172.6782	1285.9	404.95
1045.8098	3173.6321	1283.75	401.75
1045.914	3174.5854	1286.05	400.55
1046.0183	3175.5381	1277.35	395.65
1046.1224	3176.4902	1273.45	392.7
1046.2266	3177.4417	1276.6	395.8
1046.3307	3178.3926	1272.4	391.95
1046.4347	3179.3428	1272.95	394.15
1046.5387	3180.2924	1267	387.55
1046.6427	3181.2415	1265.25	385.9
1046.7466	3182.1899	1260.15	379
1046.8504	3183.1377	1263.8	384.45
1046.9542	3184.0848	1261.45	376.85
1047.058	3185.0314	1254.75	374.35
1047.1617	3185.9773	1253.25	372.4
1047.2654	3186.9227	1247.05	365.8
1047.369	3187.8674	1249.65	368.5
1047.4726	3188.8115	1254.2	369.4
1047.5761	3189.755	1244.85	365.65
1047.6796	3190.6979	1242.5	361.7
1047.783	3191.6402	1237.15	358.3
1047.8864	3192.5818	1239.85	359.75
1047.9898	3193.5229	1243.35	357.15
1048.0931	3194.4633	1237.9	355.6
1048.1963	3195.4031	1233.85	351.5
1048.2995	3196.3423	1236.8	354.4
1048.4027	3197.2809	1228.6	347.95
1048.5058	3198.2189	1229.5	347.85
1048.6089	3199.1563	1235.05	347.95
1048.7119	3200.0931	1225.2	344.75
1048.8148	3201.0292	1216.95	336.45
1048.9178	3201.9648	1219.15	339.35
1049.0206	3202.8997	1218.85	335.2
1049.1235	3203.834	1215.15	334.75
1049.2262	3204.7677	1211.85	330.35
1049.329	3205.7008	1213.6	332.6
1049.4317	3206.6333	1216.8	336.5
1049.5343	3207.5652	1217.2	333.65
1049.6369	3208.4964	1209.45	327.75
1049.7394	3209.4271	1206.35	325.65
1049.8419	3210.3571	1203.6	323.55
1049.9444	3211.2865	1204.15	320.6
1050.0468	3212.2154	1205.1	323.35
1050.1491	3213.1436	1207	323.55
1050.2514	3214.0712	1200.8	314.8
1050.3537	3214.9982	1202.2	321.25
1050.4559	3215.9246	1197.4	314.95
1050.5581	3216.8503	1194.3	314.5
1050.6602	3217.7755	1198.7	316.5
1050.7623	3218.7001	1195.4	314.2
1050.8643	3219.624	1187.15	306.5
1050.9663	3220.5473	1185.85	305.75
1051.0682	3221.4701	1189.9	308.4
1051.1701	3222.3922	1185.1	302.55
1051.2719	3223.3137	1186.8	306.3
1051.3737	3224.2346	1188.05	305.9
1051.4754	3225.1549	1178.1	298.65
1051.5771	3226.0746	1181	301.35
1051.6788	3226.9937	1175.2	294.1
1051.7804	3227.9121	1173.15	293.15
1051.8819	3228.83	1165.95	285.85
1051.9834	3229.7473	1169.45	287.3
1052.0849	3230.6639	1173.6	292.4
1052.1863	3231.5799	1168.3	287
1052.2876	3232.4954	1163.85	283.05
1052.3889	3233.4102	1162.85	282.6
1052.4902	3234.3244	1163	282.4
1052.5914	3235.238	1163.7	282.65
1052.6926	3236.151	1183.55	276.9
1052.7937	3237.0634	1157.3	275.15
1052.8948	3237.9752	1154.5	273.75
1052.9958	3238.8864	1154.25	271.55
1053.0968	3239.797	1154	272.45
1053.1977	3240.7069	1151.7	268.2
1053.2986	3241.6163	1146.25	263.05
1053.3994	3242.5251	1148.6	269.15
1053.5002	3243.4332	1144	265.45
1053.6009	3244.3408	1142.65	261.55
1053.7016	3245.2477	1145.6	264.1
1053.8022	3246.154	1141.3	260.4
1053.9028	3247.0598	1136.95	255.5
1054.0034	3247.9649	1134	253.85
1054.1039	3248.8694	1138.7	258.6
1054.2043	3249.7733	1133.85	253.5
1054.3047	3250.6766	1134.2	253.85
1054.4051	3251.5793	1129.25	249.05
1054.5054	3252.4814	1128.35	249.8
1054.6056	3253.3829	1124.65	244.4
1054.7058	3254.2838	1131.9	249.9
1054.806	3255.1841	1125.4	246.2
1054.9061	3256.0838	1119.45	241.1
1055.0061	3256.9829	1118.6	239.85
1055.1062	3257.8814	1118.85	235.85
1055.2061	3258.7792	1122.45	240.95
1055.306	3259.6765	1116.1	234.25
1055.4059	3260.5731	1113.8	233.75
1055.5057	3261.4692	1109.75	227.95
1055.6055	3262.3647	1109.95	227
1055.7052	3263.2595	1105.4	227.35
1055.8049	3264.1538	1099.9	218.4
1055.9045	3265.0474	1095.05	215.35
1056.0041	3265.9404	1094	213.5
1056.1036	3266.8329	1091.5	213.55
1056.2031	3267.7247	1097.9	207.2
1056.3025	3268.616	1085.2	205.8
1056.4019	3269.5066	1076.6	195.1
1056.5013	3270.3966	1077.5	193.2
1056.6005	3271.286	1064.6	183.9
