Software Version:	3.9.2.0
Unit SN:	10000200
Spectrometer SN:	6960
Date:	3/6/2024 10:07:48 AM
Data Line Index:	25
Spectral Points:	2048
Integration time (ms):	125
Averages:	20
Delay (ms):	30
Sequence Number:	1
Processing:	dark subtract
Laser Power (mW):	305
Laser Current (mA):	826
Laser Diode Temp (C):	25
Laser Case Temp (C):	24.8
System Temp (C):	24.7
Spectrometer Temp (C):	22.2
CCD Temp (C):	0
Secondary Temp (C):	20.006
Heatsink Temp (C):	18.454
CCDPCB Temp (C):	31.094
SecondaryPCB Temp (C):	26.403

Wavelength	RamanShift	Raw Counts	Dark Subtracted
787.061	30.1047	822.2	412.9
787.2016	32.3739	843.2	436.95
787.3422	34.6426	866.5	458.15
787.4828	36.9109	890.45	480.3
787.6235	39.1787	926.5	511.65
787.7642	41.4461	959.9	542.95
787.9049	43.7131	1001.1	579.9
788.0456	45.9796	1040.9	617.65
788.1863	48.2456	1078.9	650.65
788.3271	50.5112	1119.75	686.7
788.4679	52.7764	1150.2	715.85
788.6087	55.0411	1202.45	763.85
788.7496	57.3054	1256.7	813.05
788.8904	59.5692	1301.8	855.25
789.0313	61.8326	1363.9	916.5
789.1722	64.0955	1425.85	973.55
789.3132	66.3579	1501.35	1044.35
789.4541	68.6199	1597.8	1139.5
789.5951	70.8815	1763.55	1299.4
789.7361	73.1426	2101.25	1632.6
789.8771	75.4032	2987.7	2517.55
790.0181	77.6634	5258.1	4782.5
790.1592	79.9231	11003	10522.45
790.3003	82.1824	30134.65	29641.4
790.4414	84.4412	50760.3	50246.9
790.5825	86.6995	60040.6	59502.15
790.7237	88.9574	63165.5	62608.55
790.8648	91.2148	64462.6	63890.6
791.006	93.4717	64761.95	64178.45
791.1472	95.7282	64896.75	64307.45
791.2885	97.9842	64978.3	64386.8
791.4297	100.2398	64970.2	64378.1
791.571	102.4949	64981.3	64384.35
791.7123	104.7495	64992.6	64393.3
791.8536	107.0036	64954.2	64350
791.9949	109.2573	65023.7	64428.95
792.1363	111.5105	64990.75	64386
792.2777	113.7632	64998.2	64391.85
792.4191	116.0154	65047.55	64429.6
792.5605	118.2672	65079.15	64468.55
792.7019	120.5185	65084.75	64471.35
792.8434	122.7693	65088.85	64474.75
792.9849	125.0197	65015.1	64394.65
793.1264	127.2696	65140.95	64519.5
793.2679	129.519	65115.1	64487.25
793.4094	131.7679	65158.1	64526.9
793.551	134.0163	65064.6	64431.65
793.6926	136.2642	65108.65	64474.15
793.8342	138.5117	65167.95	64530.35
793.9758	140.7587	65143.9	64506.55
794.1175	143.0052	65145.05	64502.4
794.2591	145.2512	65091.8	64448.8
794.4008	147.4967	65155.45	64513.25
794.5425	149.7417	65138	64490.05
794.6842	151.9863	65139.6	64489.15
794.826	154.2304	65110.15	64455
794.9677	156.4739	65133.25	64472.9
795.1095	158.717	65168.9	64508.45
795.2513	160.9596	65139.05	64474.3
795.3931	163.2017	65096.7	64432.05
795.535	165.4433	65148.05	64482.15
795.6768	167.6844	65123.6	64454.8
795.8187	169.925	65148.4	64476.6
795.9606	172.1651	65125.6	64449.1
796.1025	174.4047	65147.95	64470.05
796.2445	176.6439	65127.8	64446.85
796.3864	178.8825	65116.55	64433.8
796.5284	181.1206	65161.95	64472.65
796.6704	183.3582	65147.25	64456.2
796.8124	185.5954	65136.95	64444.8
796.9544	187.832	65137.7	64438.95
797.0965	190.0681	65109.4	64409
797.2386	192.3037	65162.55	64458.45
797.3806	194.5388	65219.65	64512.9
797.5228	196.7734	65093.3	64384.2
797.6649	199.0075	65212.3	64504
797.807	201.2411	65154.95	64442.75
797.9492	203.4742	65226.65	64510.6
798.0914	205.7068	65201.05	64484.9
798.2336	207.9389	65196.7	64476.75
798.3758	210.1704	65194.35	64479.55
798.518	212.4015	65239.95	64532.85
798.6603	214.632	65178.05	64475.5
798.8025	216.862	65233.5	64540.4
798.9448	219.0915	65208.2	64504.75
799.0871	221.3205	65205.1	64503.15
799.2294	223.549	65251.35	64555.25
799.3718	225.777	65240.5	64542.2
799.5141	228.0044	65274.9	64573.1
799.6565	230.2314	65243.8	64536.2
799.7989	232.4578	65241.55	64534.15
799.9413	234.6837	65253.65	64539.4
800.0837	236.909	65358.45	64639.55
800.2262	239.1339	65214.9	64470.45
800.3687	241.3582	65279.2	64549.85
800.5111	243.582	65283.35	64524.85
800.6536	245.8053	65269.5	64520.7
800.7961	248.0281	65280.3	64537.75
800.9387	250.2503	65309	64560.35
801.0812	252.472	65255.05	64505.7
801.2238	254.6932	65292.15	64545.6
801.3664	256.9139	65271.55	64522.3
801.509	259.134	65361.15	64606.7
801.6516	261.3536	65264.8	64511.85
801.7942	263.5727	65307.05	64555.05
801.9369	265.7912	65280.75	64530.55
802.0795	268.0092	65304.45	64548.15
802.2222	270.2267	65316.5	64561.6
802.3649	272.4436	65264.8	64508.45
802.5076	274.6601	65302.1	64534.35
802.6504	276.8759	65326.6	64565.1
802.7931	279.0913	65298.3	64538.4
802.9359	281.3061	65319	64554.25
803.0787	283.5204	65309.1	64542.7
803.2215	285.7341	65314.6	64544.5
803.3643	287.9473	65359.45	64578.7
803.5071	290.16	65320.05	64547.7
803.6499	292.3721	65327.05	64563.65
803.7928	294.5837	65298.45	64529.25
803.9357	296.7947	65268.25	64496.7
804.0786	299.0052	65352.4	64583.25
804.2215	301.2152	65322.1	64548.4
804.3644	303.4246	65338.05	64569.3
804.5074	305.6334	65343.1	64573.25
804.6503	307.8418	65297.8	64524.2
804.7933	310.0495	65298.65	64519.3
804.9363	312.2568	65301.75	64529.1
805.0793	314.4635	65290.7	64511.45
805.2223	316.6696	65324.45	64541.65
805.3653	318.8752	65349.2	64562.45
805.5084	321.0802	65253.35	64471.2
805.6514	323.2847	65297.45	64516.25
805.7945	325.4887	65288.85	64507.8
805.9376	327.692	65266.2	64480.1
806.0807	329.8949	65301.8	64517.4
806.2238	332.0972	65276.7	64483.95
806.367	334.2989	65296.5	64500.95
806.5101	336.5001	65326.65	64535.6
806.6533	338.7007	65254.85	64463.9
806.7965	340.9008	65292.55	64498.7
806.9397	343.1003	65304.95	64506.4
807.0829	345.2992	65328.25	64530.7
807.2261	347.4976	65284.45	64488.25
807.3693	349.6955	65298.85	64495.85
807.5126	351.8927	65273.1	64468.75
807.6559	354.0895	65314.35	64500.6
807.7991	356.2856	65309.25	64503.85
807.9424	358.4812	65338.45	64533.4
808.0857	360.6763	65273.6	64465.85
808.2291	362.8707	65336.5	64526.9
808.3724	365.0646	65295.7	64481.9
808.5158	367.258	65297.55	64483.55
808.6591	369.4508	65257.45	64441.2
808.8025	371.643	65330.65	64513.65
808.9459	373.8346	65290.05	64472.25
809.0893	376.0257	65298.25	64479.6
809.2327	378.2162	65284.4	64464.35
809.3762	380.4062	65244.45	64422.85
809.5196	382.5956	65284.65	64464.65
809.6631	384.7844	65281.35	64465.1
809.8066	386.9726	65302.35	64487.95
809.9501	389.1603	65301.85	64489.7
810.0936	391.3474	65270.1	64415.1
810.2371	393.5339	65301.45	64485.9
810.3806	395.7199	65246.15	64433.55
810.5241	397.9052	65254.65	64441.35
810.6677	400.09	65267.25	64456
810.8113	402.2743	65310.35	64498.8
810.9548	404.4579	65254.3	64438.3
811.0984	406.641	65251.3	64429.65
811.2421	408.8235	65270.05	64452.05
811.3857	411.0054	65285.5	64462.05
811.5293	413.1868	65282.8	64459.8
811.673	415.3675	65270.85	64447.4
811.8166	417.5477	65275	64449.25
811.9603	419.7273	65273.15	64441.2
812.104	421.9064	65260.65	64427.7
812.2477	424.0848	65264.7	64435.75
812.3914	426.2627	65304.9	64473.9
812.5351	428.4399	65255.45	64423.3
812.6788	430.6166	65219.85	64382.5
812.8226	432.7928	65274.4	64436.3
812.9663	434.9683	65229.25	64391.95
813.1101	437.1432	65232.25	64393
813.2539	439.3176	65270.9	64436.9
813.3977	441.4914	65207.1	64373.55
813.5415	443.6645	65221.5	64386.3
813.6853	445.8371	65225.05	64389.1
813.8291	448.0091	65208.05	64371.4
813.973	450.1806	65182.75	64346.7
814.1168	452.3514	65188.2	64349.65
814.2607	454.5216	65167	64321.35
814.4046	456.6913	65197.1	64355.05
814.5485	458.8603	65202.45	64367.1
814.6924	461.0288	65162.55	64328.25
814.8363	463.1967	65204.85	64370.45
814.9802	465.3639	65197.3	64356.2
815.1241	467.5306	65131.65	64293.15
815.2681	469.6967	65161.9	64324.65
815.412	471.8622	65197.35	64358
815.556	474.0271	65162.3	64322.45
815.7	476.1914	65160.2	64317.4
815.844	478.3551	65167.75	64325.7
815.988	480.5182	65211.15	64365.8
816.132	482.6807	65151.25	64311.15
816.276	484.8426	65156.35	64321.7
816.4201	487.0039	65199.7	64358.65
816.5641	489.1647	65184.4	64344.2
816.7082	491.3248	65138.45	64294.65
816.8522	493.4843	65207.7	64364.35
816.9963	495.6432	65209.95	64367.75
817.1404	497.8015	65148.55	64296.85
817.2845	499.9592	65179.35	64326.3
817.4286	502.1163	65176.55	64324.1
817.5727	504.2728	65164.2	64315.05
817.7168	506.4287	65175.6	64328.55
817.861	508.5839	65149.6	64304.2
818.0051	510.7386	65166.3	64318.35
818.1493	512.8927	65177.7	64324.7
818.2935	515.0461	65159.85	64306.55
818.4377	517.199	65197.25	64343.15
818.5818	519.3512	65157.9	64308.1
818.726	521.5029	65150.1	64290.8
818.8703	523.6539	65161.4	64304.6
819.0145	525.8043	65118.85	64263.3
819.1587	527.9541	65164.65	64307.65
819.303	530.1033	65164.8	64308.15
819.4472	532.2519	65140.35	64283.55
819.5915	534.3999	65158.25	64299.55
819.7357	536.5472	65187.9	64328.15
819.88	538.694	65127.45	64274
820.0243	540.8401	65156.45	64297.15
820.1686	542.9856	65154.75	64290.6
820.3129	545.1305	65181.35	64314.65
820.4572	547.2748	65144.3	64275.2
820.6016	549.4185	65154.25	64287.55
820.7459	551.5615	65169.75	64302.7
820.8902	553.704	65157.8	64294.7
821.0346	555.8458	65137.25	64274.55
821.1789	557.987	65150.5	64288.55
821.3233	560.1276	65157.85	64293.4
821.4677	562.2675	65133.75	64271.45
821.6121	564.4069	65139.5	64277.3
821.7565	566.5456	65164.35	64298.55
821.9009	568.6837	65119.25	64255
822.0453	570.8212	65140.1	64273.5
822.1897	572.958	65091	64224.1
822.3342	575.0942	65138.6	64275.15
822.4786	577.2299	65107.6	64243.2
822.6231	579.3648	65110.6	64253.25
822.7675	581.4992	65090.8	64237.05
822.912	583.6329	65087.25	64232.45
823.0565	585.766	65077.7	64220.8
823.201	587.8985	65096.45	64239.3
823.3454	590.0304	65047.25	64158.15
823.4899	592.1616	65081.65	64209.05
823.6345	594.2922	65063.05	64191.85
823.779	596.4222	65045.1	64173.9
823.9235	598.5515	65054.55	64180.3
824.068	600.6802	65066.2	64190.7
824.2126	602.8083	65033.15	64163.05
824.3571	604.9358	65034.3	64161.2
824.5017	607.0626	65060.55	64186.75
824.6462	609.1888	65011	64135.2
824.7908	611.3144	65035.65	64159.15
824.9354	613.4393	65021.95	64145.45
825.08	615.5636	64991.55	64116.6
825.2246	617.6873	65020.75	64144.8
825.3692	619.8103	64993.95	64116
825.5138	621.9327	65022.55	64145.75
825.6584	624.0544	65022.9	64150.7
825.803	626.1756	65016.45	64141.8
825.9477	628.2961	65024.6	64147.15
826.0923	630.4159	64988	64108.8
826.237	632.5351	64971.05	64092.45
826.3816	634.6537	65021.55	64145.65
826.5263	636.7716	64967.65	64088
826.6709	638.8889	64993.35	64110.85
826.8156	641.0056	64980.8	64096.65
826.9603	643.1216	65001.85	64117.2
827.105	645.237	65016.75	64138.9
827.2497	647.3518	64974.25	64093.45
827.3944	649.4659	64980.6	64106.25
827.5391	651.5793	64974.7	64097.55
827.6838	653.6922	64987.45	64109.35
827.8285	655.8043	64933.6	64057.45
827.9733	657.9159	65008.6	64128.85
828.118	660.0268	64869.9	63987.95
828.2627	662.137	64951.55	64072
828.4075	664.2466	64977.65	64091.75
828.5522	666.3556	64944.8	64061.3
828.697	668.4639	64968.1	64084.8
828.8418	670.5716	64922.95	64040.05
828.9865	672.6786	64951.45	64070.65
829.1313	674.785	64891.95	64002.95
829.2761	676.8907	64907.8	64021.95
829.4209	678.9958	64918	64037.65
829.5657	681.1002	64940.75	64059.1
829.7105	683.204	64878.3	63987.15
829.8553	685.3072	64835.8	63947.55
830.0001	687.4097	64875.9	63987.45
830.1449	689.5115	64842.35	63952.85
830.2898	691.6127	64919.05	64030.05
830.4346	693.7132	64845.1	63963.15
830.5794	695.8131	64861.25	63950.45
830.7243	697.9123	64885.9	63996.75
830.8691	700.0109	64893.55	64003.75
831.014	702.1089	64811.3	63922.3
831.1588	704.2061	64827.05	63939.1
831.3037	706.3028	64827.05	63938.9
831.4486	708.3987	64842.4	63952.7
831.5935	710.4941	64815.15	63927.15
831.7383	712.5887	64873.3	63986.8
831.8832	714.6827	64816	63923.75
832.0281	716.7761	64858.45	63968.9
832.173	718.8688	64858.15	63970.7
832.3179	720.9608	64788.2	63892.05
832.4628	723.0522	64787.8	63889.95
832.6077	725.1429	64752.25	63860.45
832.7527	727.233	64889.4	63996.55
832.8976	729.3224	64685.45	63792.9
833.0425	731.4112	64768.8	63878.1
833.1874	733.4993	64764.05	63869.55
833.3324	735.5867	64754.5	63861.35
833.4773	737.6735	64708	63817.15
833.6222	739.7596	64674.25	63779.4
833.7672	741.845	64672.75	63781.45
833.9122	743.9298	64746.15	63852.95
834.0571	746.014	64649.8	63756.1
834.2021	748.0974	64602.6	63700.95
834.347	750.1802	64703.35	63806.65
834.492	752.2624	64566.75	63671.9
834.637	754.3439	64582.4	63684
834.782	756.4247	64611.2	63706.5
834.9269	758.5048	64520.35	63624.15
835.0719	760.5843	64536.2	63638.15
835.2169	762.6631	64572.2	63670.75
835.3619	764.7413	64522.55	63626.65
835.5069	766.8188	64504.55	63607.25
835.6519	768.8956	64554.1	63656.95
835.7969	770.9718	64532	63635.7
835.9419	773.0473	64503.6	63608
836.0869	775.1221	64419.05	63526.6
836.232	777.1962	64422.55	63525.95
836.377	779.2697	64324.85	63426.5
836.522	781.3426	64393.7	63476.45
836.667	783.4147	64400.85	63500.2
836.8121	785.4862	64352.45	63455.25
836.9571	787.557	64255.1	63355.3
837.1021	789.6271	64379.65	63479.85
837.2472	791.6966	64301	63401.45
837.3922	793.7654	64228.85	63329.65
837.5373	795.8335	64226.1	63329.3
837.6823	797.901	64259.15	63361.1
837.8274	799.9678	64195.6	63296.25
837.9724	802.0339	64181.35	63280.75
838.1175	804.0993	64186.7	63273.6
838.2626	806.1641	64148.65	63245
838.4076	808.2282	64127.7	63226.2
838.5527	810.2916	64114.4	63210.85
838.6978	812.3544	64151.8	63255.3
838.8428	814.4164	64052.9	63154.5
838.9879	816.4778	64091.05	63186.55
839.133	818.5385	64062.05	63158.65
839.2781	820.5986	64059.45	63154.75
839.4232	822.658	64090.5	63188.25
839.5682	824.7166	64056.8	63150.85
839.7133	826.7747	63980	63077.75
839.8584	828.832	64010.9	63108.2
840.0035	830.8886	64050.05	63146.2
840.1486	832.9446	64042.4	63137.1
840.2937	834.9999	63911.65	63008.5
840.4388	837.0545	63971.7	63064.2
840.5839	839.1085	64002.5	63098.15
840.729	841.1618	63964.85	63056.7
840.8741	843.2143	63859.9	62955.85
841.0192	845.2662	63857.4	62954.55
841.1643	847.3175	63870.8	62966.5
841.3095	849.368	63773.55	62868.85
841.4546	851.4179	63854.55	62953.45
841.5997	853.467	63781.25	62879.8
841.7448	855.5155	63806.45	62900.15
841.8899	857.5633	63765.35	62859.9
842.0351	859.6105	63714.2	62809
842.1802	861.6569	63766.95	62866.1
842.3253	863.7027	63689.45	62782.2
842.4704	865.7478	63718.65	62814.15
842.6156	867.7922	63681	62771
842.7607	869.8359	63730.2	62824.5
842.9058	871.8789	63629	62722.55
843.0509	873.9212	63681.2	62742.3
843.1961	875.9629	63634.9	62727.5
843.3412	878.0039	63643.75	62736.6
843.4863	880.0441	63597.5	62692.75
843.6315	882.0837	63582.75	62676.2
843.7766	884.1226	63615.35	62706.45
843.9218	886.1609	63583.45	62676.9
844.0669	888.1984	63578.4	62674.45
844.212	890.2352	63650.75	62746
844.3572	892.2714	63546.7	62636.85
844.5023	894.3069	63559.25	62650.1
844.6475	896.3416	63516.45	62606.45
844.7926	898.3757	63521.5	62613.8
844.9377	900.4091	63454.65	62544.85
845.0829	902.4418	63514.3	62603.8
845.228	904.4739	63467.05	62557.1
845.3732	906.5052	63485.45	62577.7
845.5183	908.5358	63451.3	62540.9
845.6635	910.5658	63423.6	62514.2
845.8086	912.595	63394.65	62484.3
845.9538	914.6236	63325.3	62417.75
846.0989	916.6515	63418.9	62510.6
846.2441	918.6786	63319	62407.75
846.3892	920.7051	63325.9	62414.95
846.5344	922.7309	63309.25	62397.4
846.6795	924.756	63310.7	62404.75
846.8246	926.7804	63270.9	62358.55
846.9698	928.8041	63202.1	62292.05
847.1149	930.8272	63222.15	62311.1
847.2601	932.8495	63205.75	62296.1
847.4052	934.8711	63147.15	62235.95
847.5504	936.892	63138.35	62227.35
847.6955	938.9123	63125.95	62214.7
847.8407	940.9318	63080.5	62171.05
847.9858	942.9506	63081.65	62172.5
848.131	944.9688	63082.35	62173.8
848.2761	946.9862	62965.2	62056.1
848.4213	949.003	62981.85	62073.3
848.5664	951.019	62872.25	61964.1
848.7115	953.0344	62883.3	61972.05
848.8567	955.0491	62859.2	61948.9
849.0018	957.063	62875.15	61963.05
849.147	959.0763	62884.9	61973.85
849.2921	961.0888	62807.95	61897.8
849.4373	963.1007	62851	61941.2
849.5824	965.1119	62820.55	61913.8
849.7275	967.1223	62771.4	61869.45
849.8727	969.1321	62810.05	61906.85
850.0178	971.1412	62745.2	61840.25
850.1629	973.1495	62678.6	61771.65
850.3081	975.1572	62715.85	61767.7
850.4532	977.1641	62684.6	61772
850.5983	979.1704	62654	61742.45
850.7435	981.1759	62618.7	61706.35
850.8886	983.1808	62591.4	61678.45
851.0337	985.1849	62572.4	61651.5
851.1788	987.1884	62584.1	61670.45
851.324	989.1911	62583.7	61674.1
851.4691	991.1932	62458.8	61547.85
851.6142	993.1945	62459.1	61552.4
851.7593	995.1951	62486.3	61574.45
851.9045	997.1951	62406.9	61492.45
852.0496	999.1943	62363.2	61452.3
852.1947	1001.1928	62324.25	61411.95
852.3398	1003.1906	62305.6	61395.85
852.4849	1005.1877	62162.85	61248.8
852.63	1007.1841	62143.45	61231.3
852.7751	1009.1798	62115.8	61205.8
852.9202	1011.1748	62106.15	61193.25
853.0653	1013.1691	62082.4	61173.15
853.2104	1015.1627	61870.1	60961.1
853.3555	1017.1556	61917.8	61008.4
853.5006	1019.1477	61963.35	61051.4
853.6457	1021.1392	61801.9	60895.4
853.7908	1023.1299	61686	60781.7
853.9359	1025.12	61718.95	60813.45
854.081	1027.1093	61625.4	60726.9
854.2261	1029.0979	61590.6	60693.95
854.3712	1031.0859	61545.3	60646.3
854.5163	1033.0731	61437.95	60533.35
854.6613	1035.0596	61479.65	60573.95
854.8064	1037.0454	61422.6	60515.8
854.9515	1039.0304	61370.8	60459.7
855.0965	1041.0148	61249.35	60342.5
855.2416	1042.9985	61244.65	60333.15
855.3867	1044.9814	61300.15	60389.4
855.5317	1046.9636	61204	60292.45
855.6768	1048.9452	61159.7	60254.1
855.8219	1050.926	61131.8	60225.85
855.9669	1052.9061	61103.1	60193.8
856.112	1054.8855	61066	60153.9
856.257	1056.8642	61034.75	60122.6
856.4021	1058.8421	60980.45	60067.25
856.5471	1060.8194	60988.05	60076.55
856.6921	1062.7959	60903.5	59993.8
856.8372	1064.7717	60957.35	60044.9
856.9822	1066.7469	60883.55	59973.85
857.1272	1068.7213	60913.95	59998.05
857.2723	1070.695	60861	59952.6
857.4173	1072.6679	60789.8	59879.95
857.5623	1074.6402	60802.25	59891.25
857.7073	1076.6117	60743.2	59827.3
857.8523	1078.5826	60749.65	59838.7
857.9973	1080.5527	60693.2	59778.75
858.1423	1082.5221	60634.8	59726.1
858.2873	1084.4908	60637.15	59727
858.4323	1086.4587	60560.95	59651.25
858.5773	1088.426	60581.15	59667.55
858.7223	1090.3925	60510.25	59593.95
858.8673	1092.3584	60496.2	59586.1
859.0123	1094.3235	60368.6	59458.25
859.1573	1096.2879	60378.4	59467.8
859.3022	1098.2515	60413	59502.95
859.4472	1100.2145	60351.2	59439.75
859.5922	1102.1767	60292.6	59381.1
859.7371	1104.1382	60304.95	59394.85
859.8821	1106.099	60250.35	59340.35
860.027	1108.0591	60224.95	59313.55
860.172	1110.0185	60096.5	59184.05
860.3169	1111.9771	60194.75	59286.55
860.4619	1113.9351	60087.6	59177.45
860.6068	1115.8923	60039.6	59128.7
860.7517	1117.8488	59986.8	59074.15
860.8967	1119.8045	59853.35	58941.55
861.0416	1121.7596	59902.6	58993.2
861.1865	1123.7139	59839.05	58932.3
861.3314	1125.6675	59811.85	58904.35
861.4763	1127.6204	59800.3	58891.75
861.6212	1129.5726	59708.25	58795.55
861.7661	1131.524	59733	58824.3
861.911	1133.4748	59733.8	58823.65
862.0559	1135.4248	59648.55	58739.3
862.2008	1137.3741	59621.75	58708.85
862.3457	1139.3226	59570.9	58660.2
862.4905	1141.2705	59563.55	58649.4
862.6354	1143.2176	59492.65	58574.65
862.7803	1145.164	59422.25	58507.95
862.9251	1147.1097	59450.6	58539
863.07	1149.0546	59400.7	58487.95
863.2148	1150.9989	59431.35	58519.4
863.3597	1152.9424	59342.85	58431.1
863.5045	1154.8852	59349.9	58437.9
863.6493	1156.8272	59289.65	58380.15
863.7942	1158.7686	59342	58422.25
863.939	1160.7092	59209.7	58298.8
864.0838	1162.6491	59179.2	58267.6
864.2286	1164.5883	59169.75	58259.7
864.3734	1166.5267	59104.5	58193.8
864.5182	1168.4644	59157.8	58245.9
864.663	1170.4014	59153.55	58238.35
864.8078	1172.3377	59193	58282.55
864.9526	1174.2732	59182.15	58272.3
865.0974	1176.2081	59118.05	58206
865.2421	1178.1421	59114.5	58201.3
865.3869	1180.0755	59182.45	58275.55
865.5317	1182.0082	59095.05	58186.2
865.6764	1183.9401	59102.8	58194.8
865.8212	1185.8713	58996.9	58090
865.9659	1187.8017	58970.3	58065.55
866.1106	1189.7315	58961.65	58061.1
866.2554	1191.6605	58879.7	57949.5
866.4001	1193.5888	58790.75	57888.6
866.5448	1195.5163	58701.05	57796.5
866.6895	1197.4432	58712.3	57802.55
866.8342	1199.3693	58668.8	57761.95
866.9789	1201.2947	58606.1	57694.8
867.1236	1203.2193	58611.2	57701.2
867.2683	1205.1432	58551.55	57642.6
867.413	1207.0664	58494.2	57585.35
867.5576	1208.9889	58460.7	57549.15
867.7023	1210.9106	58432.25	57522.05
867.847	1212.8316	58344.4	57434.7
867.9916	1214.7519	58337.65	57419.1
868.1363	1216.6715	58281.55	57372.55
868.2809	1218.5903	58281.4	57371.85
868.4255	1220.5084	58271	57362.2
868.5701	1222.4257	58249.85	57339.95
868.7148	1224.3424	58161.35	57253.5
868.8594	1226.2583	58079.9	57165.1
869.004	1228.1735	58125.95	57215.9
869.1486	1230.0879	58004.3	57092.45
869.2932	1232.0016	58021.85	57113.35
869.4377	1233.9146	57958.5	57049.75
869.5823	1235.8269	57947.65	57039.45
869.7269	1237.7384	57912.6	57003.75
869.8715	1239.6492	57835.65	56926.85
870.016	1241.5592	57757.75	56848.7
870.1606	1243.4686	57813.3	56906.75
870.3051	1245.3772	57695.6	56786.65
870.4496	1247.285	57696.4	56787.4
870.5941	1249.1922	57593.9	56684.65
870.7387	1251.0986	57646.25	56739.5
870.8832	1253.0042	57550.9	56643.3
871.0277	1254.9092	57597.5	56686.45
871.1722	1256.8134	57427.9	56520.85
871.3167	1258.7169	57543.55	56634.25
871.4611	1260.6196	57396.95	56490.6
871.6056	1262.5216	57389.5	56481.05
871.7501	1264.4229	57427.75	56518.5
871.8945	1266.3234	57480	56571.85
872.039	1268.2232	57436.45	56526.1
872.1834	1270.1223	57298.05	56386.6
872.3278	1272.0207	57315.85	56408.8
872.4723	1273.9183	57292.1	56377.5
872.6167	1275.8151	57227.9	56320.3
872.7611	1277.7113	57201.05	56293.6
872.9055	1279.6067	57081.2	56174.65
873.0499	1281.5014	57070.8	56161.35
873.1943	1283.3953	57168.45	56255.6
873.3386	1285.2885	57140.1	56231.3
873.483	1287.181	57118.5	56209.25
873.6274	1289.0727	57122.95	56215.75
873.7717	1290.9637	56962.15	56053.2
873.9161	1292.854	57156.55	56246.2
874.0604	1294.7435	57081.95	56173.55
874.2047	1296.6323	57076.6	56168.4
874.349	1298.5204	56951.9	56036.4
874.4933	1300.4077	57019.95	56110.65
874.6376	1302.2943	56907.75	56001.95
874.7819	1304.1802	56848.55	55940.55
874.9262	1306.0653	56781.5	55872.4
875.0705	1307.9497	56717.3	55809.6
875.2147	1309.8333	56690.85	55782.9
875.359	1311.7162	56615.4	55707.5
875.5032	1313.5984	56616.45	55705.6
875.6475	1315.4798	56524.55	55610.4
875.7917	1317.3605	56445.2	55519.95
875.9359	1319.2405	56477.75	55566.4
876.0801	1321.1197	56294.2	55382.65
876.2243	1322.9982	56329.3	55416.15
876.3685	1324.876	56247.1	55338.1
876.5127	1326.753	56125.85	55217.4
876.6569	1328.6293	56271.95	55365
876.801	1330.5048	56127.25	55216.55
876.9452	1332.3796	55997.5	55086.45
877.0893	1334.2537	55957.55	55024.45
877.2335	1336.127	56024.5	55115.35
877.3776	1337.9996	55906.8	54998.95
877.5217	1339.8714	55982.35	55073.45
877.6658	1341.7426	55719.15	54767.1
877.8099	1343.6129	55854.3	54945.35
877.954	1345.4826	55839.05	54930.85
878.0981	1347.3515	55673.15	54762.8
878.2422	1349.2196	55765.1	54856.15
878.3862	1351.087	55697.85	54787.6
878.5303	1352.9537	55686.85	54778
878.6743	1354.8197	55705.5	54794.25
878.8184	1356.6849	55733.6	54825.05
878.9624	1358.5493	55650.8	54742.45
879.1064	1360.4131	55589.05	54680.55
879.2504	1362.276	55658.35	54747.9
879.3944	1364.1383	55489.55	54583.5
879.5384	1365.9998	55356.45	54439.65
879.6823	1367.8606	55393.25	54482.45
879.8263	1369.7206	55268.35	54359.4
879.9702	1371.5799	55181.25	54271.2
880.1142	1373.4384	55010.7	54102.75
880.2581	1375.2962	55063.6	54153.9
880.402	1377.1533	54769.9	53862.4
880.5459	1379.0096	54627.2	53720.4
880.6898	1380.8652	54627.95	53720.85
880.8337	1382.7201	54502.5	53596.3
880.9776	1384.5742	54464.2	53555.65
881.1215	1386.4275	54216.05	53305.3
881.2653	1388.2802	54230.15	53325.25
881.4092	1390.132	54229.8	53320.1
881.553	1391.9832	54020.15	53113
881.6968	1393.8336	53890.35	52982.55
881.8406	1395.6832	53905.25	52996.65
881.9844	1397.5322	53877.25	52968.35
882.1282	1399.3803	53688.35	52778.55
882.272	1401.2278	53636.4	52727.55
882.4158	1403.0745	53580.25	52674.95
882.5595	1404.9204	53503.8	52597
882.7033	1406.7656	53469.1	52563.5
882.847	1408.6101	53291.6	52383.65
882.9908	1410.4538	53312.5	52402.35
883.1345	1412.2968	53295.15	52386.4
883.2782	1414.139	53133.75	52225.95
883.4219	1415.9805	53160.2	52254
883.5656	1417.8213	53045.7	52132.7
883.7092	1419.6613	53071.25	52166
883.8529	1421.5006	52977.65	52070.2
883.9965	1423.3391	52931.85	52023.9
884.1402	1425.1769	52952.5	52044.4
884.2838	1427.0139	52975.7	52066.75
884.4274	1428.8502	53014.6	52106.15
884.571	1430.6858	53072.65	52166.6
884.7146	1432.5206	53073.7	52165.1
884.8582	1434.3547	53025.45	52117.55
885.0018	1436.188	52949.8	52045.1
885.1453	1438.0206	52965.75	52060.1
885.2889	1439.8524	52896.2	51987.55
885.4324	1441.6835	52791.7	51883.75
885.5759	1443.5139	52801.5	51890.15
885.7194	1445.3435	52663.3	51758.35
885.8629	1447.1724	52732.65	51828.9
886.0064	1449.0005	52609.85	51704.95
886.1499	1450.8279	52624.9	51719.3
886.2933	1452.6545	52569.7	51665.05
886.4368	1454.4804	52521.6	51618.35
886.5802	1456.3056	52454.25	51540.6
886.7237	1458.13	52441.4	51536.85
886.8671	1459.9536	52480.45	51574.6
887.0105	1461.7766	52378.3	51473.3
887.1539	1463.5987	52208.7	51299.65
887.2972	1465.4202	52163.15	51255.8
887.4406	1467.2409	52062.35	51155.6
887.584	1469.0608	51985.05	51080.15
887.7273	1470.88	51934.8	51029.1
887.8706	1472.6984	51872.05	50966
888.0139	1474.5161	51748.1	50838.4
888.1572	1476.3331	51727.6	50825.8
888.3005	1478.1493	51653.95	50745.1
888.4438	1479.9648	51604.55	50700
888.5871	1481.7795	51631.4	50725.9
888.7303	1483.5935	51576.6	50671.85
888.8736	1485.4067	51500.65	50593.55
889.0168	1487.2192	51471.5	50563.65
889.16	1489.031	51438	50528.2
889.3032	1490.842	51405.95	50501.9
889.4464	1492.6522	51396.45	50492.8
889.5896	1494.4618	51336.8	50431.1
889.7327	1496.2705	51313.9	50408.85
889.8759	1498.0785	51220.35	50315.2
890.019	1499.8858	51165.45	50259.05
890.1622	1501.6924	51191.6	50289.55
890.3053	1503.4981	51143.55	50238.4
890.4484	1505.3032	51094.65	50189.3
890.5914	1507.1075	51048.1	50145.5
890.7345	1508.911	50997.75	50089.6
890.8776	1510.7138	50948.95	50044.6
891.0206	1512.5159	50902	49996.9
891.1637	1514.3172	50814	49910.35
891.3067	1516.1178	50753.15	49849.85
891.4497	1517.9176	50771.2	49863.9
891.5927	1519.7166	50705.55	49801.3
891.7357	1521.515	50631.85	49720.75
891.8786	1523.3126	50584.55	49676.75
892.0216	1525.1094	50539.3	49635.1
892.1645	1526.9055	50496.85	49596.25
892.3074	1528.7008	50440.5	49537.1
892.4503	1530.4954	50335.95	49432.45
892.5932	1532.2893	50309.2	49407.35
892.7361	1534.0824	50228	49320.2
892.879	1535.8747	50183.15	49283.75
893.0218	1537.6663	50187.15	49284.1
893.1647	1539.4572	50067.15	49167.25
893.3075	1541.2473	50021.95	49120.65
893.4503	1543.0367	49997.05	49095.5
893.5931	1544.8253	49941.55	49037.05
893.7359	1546.6132	49907.95	49002.65
893.8787	1548.4003	49831.35	48920.25
894.0214	1550.1867	49842.85	48932.25
894.1642	1551.9723	49764.7	48859
894.3069	1553.7572	49767.05	48867.25
894.4496	1555.5414	49719.45	48819.1
894.5923	1557.3247	49677.35	48778.2
894.735	1559.1074	49636.3	48736.7
894.8777	1560.8893	49632.05	48734.05
895.0204	1562.6705	49598.45	48700.3
895.163	1564.4509	49560.8	48662.8
895.3056	1566.2305	49519.6	48624
895.4482	1568.0094	49561.2	48663.8
895.5908	1569.7876	49519.5	48624.8
895.7334	1571.565	49487.1	48588.25
895.876	1573.3417	49458.05	48559.55
896.0186	1575.1176	49409.6	48512.65
896.1611	1576.8928	49343.9	48448.6
896.3036	1578.6672	49285.3	48393.3
896.4461	1580.4409	49259.5	48367.1
896.5886	1582.2138	49187.7	48290.95
896.7311	1583.986	49117.2	48221.3
896.8736	1585.7575	49126.1	48231.05
897.0161	1587.5282	49093.2	48200.25
897.1585	1589.2981	49059.2	48166.75
897.3009	1591.0673	49012	48117.75
897.4433	1592.8358	49024.55	48132.05
897.5857	1594.6035	48995.35	48100.5
897.7281	1596.3704	48924.05	48029.3
897.8705	1598.1366	48911.7	48016.4
898.0128	1599.9021	48862.25	47968.7
898.1551	1601.6668	48798.6	47902.85
898.2975	1603.4308	48749.1	47851.6
898.4398	1605.194	48792.05	47891.5
898.5821	1606.9564	48782.25	47889.95
898.7243	1608.7182	48775.3	47881.8
898.8666	1610.4791	48768.1	47881.1
899.0088	1612.2394	48729.85	47843.2
899.1511	1613.9988	48735.05	47845.65
899.2933	1615.7576	48721.05	47831.3
899.4355	1617.5156	48779.7	47877.35
899.5776	1619.2728	48734	47836.4
899.7198	1621.0293	48699.05	47804.05
899.862	1622.785	48635.2	47738.8
900.0041	1624.54	48508.85	47613.95
900.1462	1626.2942	48489.3	47595.35
900.2883	1628.0477	48316.5	47419.7
900.4304	1629.8005	48257.15	47361.55
900.5725	1631.5525	48205.6	47313.1
900.7145	1633.3037	48110.3	47219.05
900.8566	1635.0542	48058.25	47166.4
900.9986	1636.804	47972.1	47078.95
901.1406	1638.553	47939.5	47002.7
901.2826	1640.3013	47906.6	47013.5
901.4245	1642.0488	47808.75	46914.75
901.5665	1643.7955	47816.05	46925.5
901.7085	1645.5416	47774.8	46884.15
901.8504	1647.2868	47717.3	46827.55
901.9923	1649.0313	47735.75	46842.25
902.1342	1650.7751	47691.25	46795.3
902.2761	1652.5181	47644	46752.7
902.4179	1654.2604	47609.55	46717.05
902.5598	1656.0019	47620.8	46731.4
902.7016	1657.7427	47593.75	46702.6
902.8434	1659.4828	47657.3	46766.85
902.9852	1661.222	47572.7	46678.5
903.127	1662.9606	47607.6	46716
903.2687	1664.6984	47465	46571.15
903.4105	1666.4354	47407.65	46513.85
903.5522	1668.1717	47185.35	46293.5
903.6939	1669.9072	46930.75	46037.2
903.8356	1671.642	46856.15	45961.3
903.9773	1673.3761	46780.25	45888.05
904.119	1675.1094	46644.2	45751.65
904.2606	1676.8419	46460.6	45568.7
904.4022	1678.5737	46405.95	45512.75
904.5439	1680.3048	46322.1	45429.65
904.6855	1682.0351	46245.95	45351.35
904.827	1683.7646	46105.5	45210.75
904.9686	1685.4934	46090.8	45200.7
905.1101	1687.2215	45872.95	44981.3
905.2517	1688.9488	45929.95	45038.9
905.3932	1690.6754	45609.3	44717.95
905.5347	1692.4012	45684.25	44792.15
905.6761	1694.1263	45676.05	44782.6
905.8176	1695.8506	45567.35	44674.25
905.9591	1697.5742	45540.4	44651.05
906.1005	1699.297	45462.65	44573.25
906.2419	1701.0191	45410.95	44522.95
906.3833	1702.7404	45240.9	44352.8
906.5246	1704.461	45115.5	44227.05
906.666	1706.1808	45157.75	44266.3
906.8073	1707.8999	45113.8	44225.1
906.9487	1709.6182	45009.8	44121.35
907.09	1711.3358	44977.4	44091.35
907.2313	1713.0527	44900.8	44013.35
907.3725	1714.7688	44871.95	43978.65
907.5138	1716.4841	44621.5	43729.9
907.655	1718.1987	44706.95	43813.05
907.7962	1719.9126	44581.6	43693.5
907.9374	1721.6257	44576.3	43689.15
908.0786	1723.338	44560.9	43671.4
908.2198	1725.0496	44201.6	43311.7
908.3609	1726.7605	44270.15	43380.65
908.502	1728.4706	44130.6	43243.15
908.6431	1730.18	44189.9	43302.95
908.7842	1731.8886	43985.95	43099.8
908.9253	1733.5964	43888.15	42995.25
909.0664	1735.3036	44025.1	43133.1
909.2074	1737.0099	43849.6	42961.3
909.3484	1738.7156	43659.9	42774.8
909.4894	1740.4204	43578.75	42687.3
909.6304	1742.1246	43639.9	42751.4
909.7714	1743.8279	43648.4	42760.4
909.9123	1745.5306	43574	42684.7
910.0532	1747.2325	43024.75	42138.3
910.1941	1748.9336	43017.25	42128.75
910.335	1750.634	43127.6	42237.75
910.4759	1752.3336	43292.8	42402.2
910.6168	1754.0325	42832.6	41947.1
910.7576	1755.7307	43219.85	42331.95
910.8984	1757.4281	42684.1	41797.5
911.0392	1759.1247	43050.3	42152.6
911.18	1760.8206	42492.4	41598.15
911.3208	1762.5158	42490	41597.25
911.4615	1764.2102	42566.6	41679.05
911.6022	1765.9039	42420	41531.7
911.7429	1767.5968	42238.55	41350.9
911.8836	1769.289	42148.45	41261.55
912.0243	1770.9804	42235.85	41347.25
912.1649	1772.6711	42078.8	41190.75
912.3056	1774.361	41964.8	41074.2
912.4462	1776.0502	41987.6	41100.3
912.5868	1777.7386	41542.85	40651.7
912.7274	1779.4263	41751.65	40862.1
912.8679	1781.1132	41734.85	40848.05
913.0084	1782.7994	41634.25	40748.3
913.149	1784.4849	41630.3	40744.7
913.2895	1786.1696	41073.65	40179.65
913.4299	1787.8535	41332.35	40446.6
913.5704	1789.5367	41337.1	40452.45
913.7108	1791.2192	41042.15	40154.65
913.8513	1792.9009	40790.7	39874.8
913.9917	1794.5818	41012.9	40122.9
914.132	1796.2621	40742.9	39856.2
914.2724	1797.9415	40715.5	39825.95
914.4128	1799.6202	40657.05	39769.05
914.5531	1801.2982	40648.8	39758
914.6934	1802.9755	40356.55	39465.2
914.8337	1804.6519	40256.9	39368.45
914.9739	1806.3277	40605.9	39718.6
915.1142	1808.0027	39913.05	39029.25
915.2544	1809.6769	40128.85	39242.5
915.3946	1811.3504	40126.35	39240.15
915.5348	1813.0231	39683.3	38795.8
915.675	1814.6951	39942.3	39057.5
915.8151	1816.3664	39737.25	38848.7
915.9553	1818.0369	39763.75	38874.4
916.0954	1819.7067	39554.2	38665.95
916.2355	1821.3757	39789.4	38898.65
916.3755	1823.044	39390.05	38503.25
916.5156	1824.7115	39169.4	38280.3
916.6556	1826.3783	39239.3	38350.8
916.7956	1828.0443	39219.9	38334.4
916.9356	1829.7096	39035.65	38147.6
917.0756	1831.3741	38756.55	37866.8
917.2155	1833.0379	38927.1	38042.55
917.3555	1834.701	38867.4	37978.35
917.4954	1836.3633	38617.9	37734.65
917.6353	1838.0248	38714.5	37826.05
917.7751	1839.6856	38599.7	37713.05
917.915	1841.3457	38336.75	37450.45
918.0548	1843.005	38545.35	37657.4
918.1946	1844.6636	38349.1	37461.85
918.3344	1846.3214	38004.55	37116.25
918.4742	1847.9785	38104.55	37219.75
918.6139	1849.6349	38051.9	37162.9
918.7537	1851.2904	38183.6	37286.3
918.8934	1852.9453	37793.45	36904.65
919.0331	1854.5994	37914.55	37022.25
919.1727	1856.2528	37965.5	37073.5
919.3124	1857.9054	37687.1	36799.4
919.452	1859.5572	37530.4	36644.65
919.5916	1861.2083	37585.75	36699.4
919.7312	1862.8587	37793.65	36904.65
919.8708	1864.5084	37224.55	36334.2
920.0103	1866.1572	37438.1	36552.55
920.1498	1867.8054	37051.6	36162.45
920.2893	1869.4528	37234.15	36345.4
920.4288	1871.0994	36953.8	36066.1
920.5683	1872.7453	36918.9	36029.7
920.7077	1874.3905	36966.95	36073.25
920.8471	1876.0349	36728.7	35839.1
920.9865	1877.6786	36873.4	35985.6
921.1259	1879.3215	36631.5	35744.65
921.2653	1880.9637	36752.85	35864.95
921.4046	1882.6051	36551.8	35667.05
921.5439	1884.2458	36412.35	35522.75
921.6832	1885.8858	36191.45	35303.35
921.8225	1887.525	36304.95	35416.2
921.9617	1889.1634	36110.3	35223.65
922.101	1890.8011	35973.45	35085.45
922.2402	1892.4381	35755.2	34868.05
922.3794	1894.0743	35981	35095.2
922.5185	1895.7098	35791.85	34904.85
922.6577	1897.3446	35614.8	34728.95
922.7968	1898.9786	35640.5	34749.9
922.9359	1900.6118	35509.3	34623.55
923.075	1902.2443	35294.05	34405.55
923.214	1903.8761	35384.95	34497.5
923.3531	1905.5071	35168	34280.15
923.4921	1907.1374	34884.95	33997
923.6311	1908.7669	34955.9	34069.5
923.77	1910.3957	35018.35	34135.1
923.909	1912.0237	34690.15	33801.95
924.0479	1913.651	34603.8	33716.9
924.1868	1915.2776	34554.45	33668.75
924.3257	1916.9034	34430	33545.25
924.4646	1918.5285	34274.9	33389.45
924.6034	1920.1528	34152.3	33265.85
924.7422	1921.7764	34115.45	33230
924.881	1923.3992	33980.15	33094.75
925.0198	1925.0213	33777.9	32890.8
925.1586	1926.6427	33624.2	32739.65
925.2973	1928.2633	33727.85	32631.15
925.436	1929.8832	33513.25	32620.6
925.5747	1931.5023	33357.1	32470.05
925.7134	1933.1207	33194.4	32307.45
925.852	1934.7383	33276.7	32389.75
925.9906	1936.3552	33047.9	32161.35
926.1292	1937.9714	32951.35	32063.95
926.2678	1939.5868	32914	32026.3
926.4064	1941.2015	32704.4	31816.8
926.5449	1942.8154	32599.5	31713.85
926.6834	1944.4286	32405.65	31517.8
926.8219	1946.041	32376.35	31464.9
926.9604	1947.6528	32205.35	31313.35
927.0988	1949.2637	32118.9	31232
927.2372	1950.8739	32001.7	31116.2
927.3756	1952.4834	31946.1	31058.05
927.514	1954.0921	31862.85	30976
927.6523	1955.7001	31804.5	30917.8
927.7907	1957.3074	31712	30829.35
927.929	1958.9139	31542.3	30658.55
928.0673	1960.5197	31468.8	30580.55
928.2055	1962.1247	31319.3	30435.45
928.3438	1963.729	31201.1	30316.3
928.482	1965.3325	31088.45	30182.05
928.6202	1966.9353	30947.2	30066
928.7584	1968.5374	30882.45	29998.05
928.8965	1970.1387	30762.75	29879
929.0346	1971.7393	30678.65	29793.55
929.1727	1973.3392	30614.5	29728
929.3108	1974.9383	30468.25	29584.4
929.4489	1976.5366	30353.5	29468.95
929.5869	1978.1342	30289.95	29406.8
929.7249	1979.7311	30257.2	29372.75
929.8629	1981.3273	30116.1	29231.35
930.0009	1982.9227	30025.85	29142.2
930.1388	1984.5173	29925.45	29044.25
930.2767	1986.1112	29803	28918.65
930.4146	1987.7044	29795.4	28915
930.5525	1989.2968	29650.95	28766.05
930.6904	1990.8885	29669.75	28785.75
930.8282	1992.4795	29583.9	28698.3
930.966	1994.0697	29403.8	28520.2
931.1038	1995.6592	29348.2	28465.3
931.2415	1997.2479	29246.15	28362.85
931.3793	1998.8359	29197.1	28311.8
931.517	2000.4232	29033.8	28151.25
931.6547	2002.0097	28923.7	28043.35
931.7923	2003.5955	28780	27898.3
931.93	2005.1805	28785.15	27901
932.0676	2006.7648	28707.7	27826.45
932.2052	2008.3484	28614.2	27733.1
932.3427	2009.9312	28647.8	27765.3
932.4803	2011.5133	28474.7	27596.1
932.6178	2013.0946	28371.15	27490.95
932.7553	2014.6752	28322.4	27441.7
932.8928	2016.2551	28268.5	27387.25
933.0302	2017.8342	28129.9	27247.35
933.1676	2019.4126	28009.15	27128.15
933.305	2020.9902	27924.1	27043
933.4424	2022.5672	27888.4	27006
933.5798	2024.1433	27817.65	26934.35
933.7171	2025.7188	27755.9	26877.4
933.8544	2027.2935	27624	26743.4
933.9917	2028.8674	27523.9	26643.25
934.129	2030.4406	27452.65	26573.2
934.2662	2032.0131	27345.8	26464.75
934.4034	2033.5849	27270.85	26384
934.5406	2035.1559	27187.6	26307.8
934.6778	2036.7261	27193.95	26312.05
934.8149	2038.2957	27088.15	26204.35
934.952	2039.8645	27011.8	26130.65
935.0891	2041.4325	27059.05	26171.8
935.2262	2042.9998	26881.55	26002.15
935.3632	2044.5664	26826.4	25943.65
935.5002	2046.1323	26737.15	25857.55
935.6372	2047.6974	26645.65	25764.95
935.7742	2049.2617	26594.85	25715.6
935.9111	2050.8254	26564.65	25679
936.048	2052.3883	26466.25	25585.35
936.1849	2053.9504	26470.3	25587.4
936.3218	2055.5118	26306.95	25422.65
936.4586	2057.0725	26170.9	25285.55
936.5955	2058.6325	26137.8	25257.85
936.7323	2060.1917	26050.05	25170.35
936.869	2061.7502	25988.75	25103.4
937.0058	2063.3079	25919.6	25036.7
937.1425	2064.8649	25834.95	24950.65
937.2792	2066.4212	25770.5	24888.6
937.4159	2067.9767	25729.3	24849.05
937.5525	2069.5315	25606.6	24726.35
937.6891	2071.0856	25495.55	24612.75
937.8257	2072.6389	25399.65	24519.7
937.9623	2074.1915	25292.3	24412.45
938.0989	2075.7433	25161.2	24278.2
938.2354	2077.2945	25144.6	24264.8
938.3719	2078.8448	25052.15	24169.75
938.5084	2080.3945	24956.7	24074.75
938.6448	2081.9434	24954.8	24072.8
938.7812	2083.4916	24868.75	23986.35
938.9176	2085.039	24786.4	23904
939.054	2086.5857	24716.15	23830.9
939.1903	2088.1317	24686.95	23802.75
939.3267	2089.677	24598.95	23713.25
939.463	2091.2215	24506.45	23619.7
939.5992	2092.7652	24430.95	23544.25
939.7355	2094.3083	24373.75	23487.8
939.8717	2095.8506	24328.2	23445.8
940.0079	2097.3921	24329.45	23447.7
940.1441	2098.933	24216.25	23334.7
940.2802	2100.4731	24153.8	23271.25
940.4163	2102.0124	24164.45	23263.35
940.5524	2103.5511	24071.85	23190.45
940.6885	2105.089	23999	23113.5
940.8245	2106.6261	23942.75	23059.3
940.9606	2108.1626	23889.45	23004.55
941.0965	2109.6983	23829.15	22918
941.2325	2111.2332	23718.2	22833.75
941.3684	2112.7675	23679.7	22795.15
941.5044	2114.301	23603.75	22717.8
941.6403	2115.8337	23594.45	22707.4
941.7761	2117.3657	23526.7	22642.4
941.912	2118.897	23448.75	22564
942.0478	2120.4276	23389.85	22503.3
942.1835	2121.9575	23277.3	22391.6
942.3193	2123.4866	23294.25	22395.85
942.455	2125.0149	23284.5	22397.65
942.5907	2126.5426	23089.9	22209.1
942.7264	2128.0695	23012.4	22128
942.8621	2129.5956	23011.9	22131.8
942.9977	2131.1211	22957.95	22072.25
943.1333	2132.6458	22892.4	22010.1
943.2689	2134.1698	22813.95	21928.55
943.4044	2135.693	22759.15	21871.45
943.54	2137.2155	22712.5	21824.55
943.6755	2138.7373	22661.65	21778.6
943.8109	2140.2584	22552.65	21670.35
943.9464	2141.7787	22491.55	21605.7
944.0818	2143.2983	22414.1	21533.3
944.2172	2144.8171	22277.25	21397.55
944.3526	2146.3353	22242.6	21359.2
944.4879	2147.8527	22167.35	21286.2
944.6232	2149.3693	22156.05	21271.8
944.7585	2150.8853	22061.85	21176.05
944.8938	2152.4005	21974.5	21091
945.029	2153.9149	21948.6	21061.85
945.1642	2155.4287	21889.75	21004.15
945.2994	2156.9417	21826.9	20941.8
945.4346	2158.454	21775.1	20889.35
945.5697	2159.9655	21661.5	20780.3
945.7048	2161.4764	21605.8	20723.35
945.8399	2162.9865	21575.05	20692.4
945.9749	2164.4958	21526.75	20643.95
946.1099	2166.0045	21409.05	20525.25
946.2449	2167.5124	21409.7	20524.95
946.3799	2169.0195	21316.5	20433.1
946.5148	2170.526	21329.6	20444.65
946.6498	2172.0317	21248.6	20365.55
946.7846	2173.5367	21186	20304.3
946.9195	2175.0409	21135.65	20252.65
947.0543	2176.5445	21104.3	20220.9
947.1891	2178.0473	21002.7	20117.75
947.3239	2179.5494	20910.65	20025.05
947.4587	2181.0507	20873.65	19990.5
947.5934	2182.5513	20798.05	19916.25
947.7281	2184.0512	20750.15	19865.85
947.8628	2185.5504	20692.7	19810.15
947.9974	2187.0488	20556.35	19676.5
948.132	2188.5465	20529.65	19647.75
948.2666	2190.0435	20440.7	19556.8
948.4012	2191.5397	20382.7	19499.3
948.5357	2193.0353	20318.05	19435.75
948.6702	2194.5301	20223.95	19338.6
948.8047	2196.0241	20144.8	19256.7
948.9392	2197.5175	20104	19218.25
949.0736	2199.0101	20010.95	19122.95
949.208	2200.502	19950.05	19068.15
949.3424	2201.9931	19882.35	18998.95
949.4767	2203.4835	19805.25	18923.5
949.611	2204.9733	19758.6	18870.3
949.7453	2206.4622	19698.75	18819.25
949.8796	2207.9505	19652.4	18768.3
950.0138	2209.438	19536.9	18657.05
950.148	2210.9248	19475.7	18591.4
950.2822	2212.4109	19419.3	18538.5
950.4164	2213.8962	19345.45	18456.95
950.5505	2215.3809	19353.1	18464.4
950.6846	2216.8648	19266.05	18381.5
950.8186	2218.3479	19240.8	18351.3
950.9527	2219.8304	19169.65	18282.4
951.0867	2221.3121	19070.2	18182.05
951.2207	2222.7931	19014.7	18129
951.3546	2224.2733	18951.05	18067
951.4886	2225.7529	18879.8	17996.9
951.6225	2227.2317	18807.75	17920.35
951.7563	2228.7098	18769.95	17889.05
951.8902	2230.1872	18655.3	17773.85
952.024	2231.6638	18677.6	17797.6
952.1578	2233.1397	18541.05	17653.55
952.2916	2234.6149	18534.9	17654.75
952.4253	2236.0894	18471.2	17588.2
952.559	2237.5632	18405.6	17512.3
952.6927	2239.0362	18337.2	17453.9
952.8263	2240.5085	18284.65	17402.95
952.9599	2241.9801	18217.1	17332.55
953.0935	2243.4509	18195.5	17312.65
953.2271	2244.921	18098.3	17214.3
953.3606	2246.3904	18021	17134.1
953.4941	2247.8591	17963.7	17078.35
953.6276	2249.3271	17925.65	17043
953.7611	2250.7943	17848.85	16963.15
953.8945	2252.2608	17802.8	16919.8
954.0279	2253.7266	17763.95	16878.5
954.1612	2255.1917	17708.55	16828
954.2946	2256.656	17633.8	16748.25
954.4279	2258.1197	17570.15	16686.85
954.5612	2259.5826	17522.5	16637.5
954.6944	2261.0447	17546.9	16663.05
954.8276	2262.5062	17436.2	16550.7
954.9608	2263.9669	17423.05	16536.75
955.094	2265.4269	17386.6	16503.15
955.2271	2266.8862	17302.15	16419.5
955.3602	2268.3448	17251.2	16366.85
955.4933	2269.8026	17248.75	16366.65
955.6264	2271.2598	17165.95	16282.9
955.7594	2272.7162	17114.25	16234.05
955.8924	2274.1719	17071.3	16187.5
956.0253	2275.6268	17022.5	16138.25
956.1583	2277.0811	16971.8	16085.8
956.2912	2278.5346	16941.25	16059.85
956.4241	2279.9874	16916.35	16032.95
956.5569	2281.4395	16903.15	16022.1
956.6897	2282.8908	16805.15	15916.25
956.8225	2284.3414	16737.1	15853.25
956.9553	2285.7914	16705.6	15821.5
957.088	2287.2406	16640.1	15753.55
957.2207	2288.689	16622.05	15737.8
957.3534	2290.1368	16569.55	15680.2
957.486	2291.5838	16503.7	15616.05
957.6186	2293.0302	16438.1	15550.85
957.7512	2294.4758	16375.3	15488.65
957.8838	2295.9206	16311.45	15425.15
958.0163	2297.3648	16250.75	15366.3
958.1488	2298.8082	16256.35	15369.15
958.2813	2300.251	16177.65	15291.95
958.4137	2301.693	16118.05	15230.9
958.5461	2303.1343	16102.05	15216.35
958.6785	2304.5748	16063.85	15179.25
958.8108	2306.0147	15990.9	15110
958.9432	2307.4538	15959.75	15074.6
959.0754	2308.8922	15907.75	15026.3
959.2077	2310.3299	15869.5	14987.75
959.3399	2311.7669	15839.4	14954.25
959.4721	2313.2031	15787.7	14904.45
959.6043	2314.6387	15695.3	14810.2
959.7365	2316.0735	15642.95	14761.45
959.8686	2317.5076	15646.4	14760.5
960.0006	2318.941	15593.5	14708.8
960.1327	2320.3737	15537.25	14653.95
960.2647	2321.8056	15484.9	14597.5
960.3967	2323.2369	15436.75	14551.75
960.5287	2324.6674	15412.2	14526
960.6606	2326.0972	15350.1	14463
960.7925	2327.5263	15282.2	14398.25
960.9244	2328.9547	15237.1	14353.2
961.0562	2330.3823	15194.95	14311.1
961.1881	2331.8092	15189.9	14300.5
961.3198	2333.2355	15127.55	14243.5
961.4516	2334.661	15081.2	14195.1
961.5833	2336.0858	15054.25	14166.65
961.715	2337.5098	15004	14118.9
961.8467	2338.9332	14944.9	14061.1
961.9783	2340.3558	14891.8	14005.55
962.1099	2341.7778	14861.7	13977.6
962.2415	2343.199	14804.3	13918.35
962.373	2344.6195	14784.2	13900.95
962.5045	2346.0393	14739.65	13857.55
962.636	2347.4583	14718.5	13834
962.7675	2348.8767	14646.2	13759.45
962.8989	2350.2943	14632.55	13746.3
963.0303	2351.7113	14610.8	13722.35
963.1617	2353.1275	14552.15	13666.25
963.293	2354.543	14494.5	13599.1
963.4243	2355.9578	14467.55	13581.35
963.5556	2357.3718	14360.55	13475.95
963.6868	2358.7852	14323.95	13436.5
963.818	2360.1978	14266.85	13383.95
963.9492	2361.6098	14248.25	13365.75
964.0803	2363.021	14177.6	13288.65
964.2114	2364.4315	14138.75	13254.45
964.3425	2365.8413	14069.25	13179.7
964.4736	2367.2504	14051.3	13169.2
964.6046	2368.6587	13956	13072.1
964.7356	2370.0664	13941	13056.9
964.8666	2371.4733	13906.15	13024.25
964.9975	2372.8795	13854.3	12971
965.1284	2374.285	13775.35	12890.85
965.2593	2375.6899	13725.65	12843.65
965.3901	2377.0939	13691.45	12809.5
965.5209	2378.4973	13624.7	12741.8
965.6517	2379.9	13609.05	12724.25
965.7825	2381.3019	13554.45	12673.2
965.9132	2382.7032	13504.2	12622.65
966.0439	2384.1037	13482.25	12599.9
966.1745	2385.5035	13443	12562.5
966.3051	2386.9027	13370.75	12486.5
966.4357	2388.3011	13348.65	12461.75
966.5663	2389.6987	13298.95	12417.7
966.6968	2391.0957	13240.9	12358.4
966.8273	2392.492	13195.05	12312.1
966.9578	2393.8876	13150.6	12266.95
967.0882	2395.2824	13094.15	12211
967.2186	2396.6765	13048.8	12166.1
967.349	2398.07	12991.75	12108.05
967.4793	2399.4627	12959.85	12073.3
967.6097	2400.8547	12945.9	12061.25
967.7399	2402.246	12890.65	12000.85
967.8702	2403.6366	12799.45	11916.1
968.0004	2405.0265	12768.5	11885.75
968.1306	2406.4156	12706	11819.7
968.2607	2407.8041	12682.65	11794.5
968.3909	2409.1918	12600.2	11714.05
968.521	2410.5789	12562.4	11678.85
968.651	2411.9652	12529.4	11641.7
968.781	2413.3508	12453.25	11569.1
968.911	2414.7358	12405.6	11522.2
969.041	2416.12	12406.1	11522.9
969.1709	2417.5035	12364.65	11481.85
969.3008	2418.8863	12315.6	11428.9
969.4307	2420.2684	12271.2	11388.1
969.5606	2421.6497	12181.1	11296.95
969.6904	2423.0304	12132.45	11248.7
969.8201	2424.4104	12120.75	11235.85
969.9499	2425.7896	12065.8	11179.8
970.0796	2427.1682	12036.95	11153.25
970.2093	2428.546	12029.45	11143.55
970.3389	2429.9232	11983.85	11097.1
970.4685	2431.2996	11954.75	11069.65
970.5981	2432.6753	11924.95	11039.45
970.7277	2434.0503	11875.9	10991.55
970.8572	2435.4246	11842.25	10958.8
970.9867	2436.7982	11808.15	10920.8
971.1161	2438.1711	11757.75	10874.55
971.2456	2439.5433	11725.2	10838.35
971.375	2440.9148	11677.55	10792.95
971.5043	2442.2856	11620.55	10736.9
971.6336	2443.6557	11615.7	10729.05
971.7629	2445.025	11595.55	10712.25
971.8922	2446.3937	11515.9	10630.4
972.0214	2447.7617	11475.75	10590.4
972.1506	2449.1289	11458.55	10576.3
972.2798	2450.4955	11453.4	10565.9
972.4089	2451.8613	11391.15	10508.4
972.538	2453.2265	11377.75	10493.55
972.6671	2454.5909	11337.25	10452.8
972.7961	2455.9546	11322.3	10438.85
972.9251	2457.3177	11261.9	10377.8
973.0541	2458.68	11239.2	10356.05
973.1831	2460.0416	11210	10326.4
973.312	2461.4025	11213.05	10325.4
973.4408	2462.7627	11170.8	10277.55
973.5697	2464.1222	11114.35	10233.2
973.6985	2465.4811	11073.65	10191.35
973.8273	2466.8392	11026.25	10143.5
973.956	2468.1966	11004.85	10119.1
974.0847	2469.5533	10999.95	10114.65
974.2134	2470.9093	10977.5	10092.25
974.3421	2472.2645	10940.05	10053.6
974.4707	2473.6191	10919	10036.4
974.5993	2474.973	10857.35	9971.75
974.7278	2476.3262	10809.05	9924.55
974.8563	2477.6787	10766.35	9884.35
974.9848	2479.0305	10713.8	9828.6
975.1132	2480.3816	10696.05	9810.4
975.2417	2481.7319	10626.55	9741.55
975.37	2483.0816	10587.4	9701.85
975.4984	2484.4306	10575.9	9692.1
975.6267	2485.7789	10520.45	9635.7
975.755	2487.1264	10496.3	9611.3
975.8833	2488.4733	10468.25	9585.7
976.0115	2489.8195	10392.2	9502.1
976.1397	2491.165	10340.85	9453.8
976.2678	2492.5097	10344.7	9458.25
976.3959	2493.8538	10313.45	9430.25
976.524	2495.1972	10245.45	9358.8
976.6521	2496.5398	10208.7	9327.15
976.7801	2497.8818	10175.4	9287.3
976.9081	2499.2231	10182.4	9298.1
977.036	2500.5637	10102.85	9217.9
977.164	2501.9035	10079.6	9191.9
977.2918	2503.2427	10060.25	9173.9
977.4197	2504.5812	10015.6	9130.85
977.5475	2505.919	9995.15	9109.5
977.6753	2507.256	9996.1	9113.05
977.8031	2508.5924	9934.9	9051.7
977.9308	2509.9281	9908.65	9019.2
978.0585	2511.2631	9874.6	8990.1
978.1861	2512.5974	9845.4	8962.2
978.3137	2513.9309	9827.7	8944.75
978.4413	2515.2638	9796.25	8882.35
978.5689	2516.596	9782.25	8899.65
978.6964	2517.9275	9697.9	8812.7
978.8239	2519.2583	9649.8	8765.9
978.9513	2520.5884	9638.8	8752.75
979.0788	2521.9178	9590.95	8707.95
979.2062	2523.2465	9571.05	8688.95
979.3335	2524.5745	9546.5	8661.65
979.4608	2525.9018	9503.45	8618.45
979.5881	2527.2284	9486.65	8603.8
979.7154	2528.5543	9447.9	8565.3
979.8426	2529.8796	9416.5	8533.2
979.9698	2531.2041	9418.7	8535.85
980.0969	2532.5279	9382.4	8499.2
980.224	2533.851	9344.15	8459.6
980.3511	2535.1735	9321.6	8438.7
980.4781	2536.4952	9296.45	8411.65
980.6052	2537.8163	9278.25	8394.25
980.7321	2539.1366	9281.75	8397.4
980.8591	2540.4562	9229.2	8343.9
980.986	2541.7752	9219.35	8336.45
981.1129	2543.0935	9174.4	8289.75
981.2397	2544.411	9145.25	8260.7
981.3665	2545.7279	9153.5	8269.8
981.4933	2547.0441	9149.4	8266.45
981.62	2548.3596	9146.55	8262
981.7467	2549.6744	9093.1	8209.35
981.8734	2550.9885	9081.5	8190.75
982.0001	2552.3019	9041.75	8159.25
982.1267	2553.6146	9017.3	8131.5
982.2532	2554.9266	8978.2	8093.8
982.3798	2556.2379	8962.45	8074.75
982.5063	2557.5485	8951.3	8069.75
982.6327	2558.8585	8933.85	8042.55
982.7592	2560.1677	8903.85	8015.45
982.8856	2561.4762	8874.85	7991.3
983.0119	2562.7841	8888.9	8001.9
983.1383	2564.0913	8848.75	7966.85
983.2646	2565.3977	8812.15	7928.85
983.3908	2566.7035	8762.4	7877.15
983.517	2568.0086	8779.85	7893.05
983.6432	2569.313	8776.6	7891.9
983.7694	2570.6167	8756.65	7869.45
983.8955	2571.9197	8737.05	7855.4
984.0216	2573.222	8710.9	7822.1
984.1476	2574.5236	8699.35	7814.2
984.2737	2575.8246	8677.85	7792.2
984.3996	2577.1248	8645.25	7759.25
984.5256	2578.4244	8621.55	7736.25
984.6515	2579.7232	8607.65	7725.15
984.7774	2581.0214	8644.15	7732.4
984.9032	2582.3189	8571.15	7689.45
985.029	2583.6157	8540.85	7651
985.1548	2584.9118	8532.55	7649.8
985.2806	2586.2072	8514.35	7629.3
985.4063	2587.5019	8487.25	7603
985.5319	2588.7959	8462.8	7577.4
985.6576	2590.0893	8448.55	7562.35
985.7832	2591.3819	8438.25	7554.45
985.9087	2592.6739	8366.9	7482.7
986.0343	2593.9652	8356.85	7472
986.1597	2595.2557	8334.4	7450.4
986.2852	2596.5456	8300.35	7415.1
986.4106	2597.8348	8269.15	7385.9
986.536	2599.1234	8241.3	7356.3
986.6614	2600.4112	8217.7	7330.9
986.7867	2601.6983	8195	7308.4
986.912	2602.9848	8157.55	7274.2
987.0372	2604.2705	8129.35	7239.95
987.1624	2605.5556	8114.9	7231.6
987.2876	2606.84	8073.1	7187.85
987.4128	2608.1237	8048.7	7165.1
987.5379	2609.4067	8039.55	7154.95
987.6629	2610.689	7992.25	7098.5
987.788	2611.9707	7966.25	7078.9
987.913	2613.2516	7933.6	7044.65
988.0379	2614.5319	7903.65	7019.95
988.1629	2615.8115	7867.15	6984.45
988.2878	2617.0903	7837.25	6949.55
988.4126	2618.3685	7814.9	6931.3
988.5375	2619.6461	7792.5	6907.6
988.6622	2620.9229	7772.05	6889.05
988.787	2622.199	7755.3	6870.15
988.9117	2623.4745	7727.45	6843.45
989.0364	2624.7493	7696.7	6814.35
989.161	2626.0234	7661.05	6777.8
989.2857	2627.2968	7663.5	6781.05
989.4102	2628.5695	7623.05	6739.3
989.5348	2629.8415	7588.6	6705.6
989.6593	2631.1128	7553.35	6667.45
989.7837	2632.3835	7545.95	6662.45
989.9082	2633.6535	7485.35	6602
990.0326	2634.9228	7461.1	6577.8
990.1569	2636.1914	7434.75	6551.45
990.2812	2637.4593	7447.4	6559.1
990.4055	2638.7265	7391.85	6509
990.5298	2639.9931	7370.85	6487.9
990.654	2641.259	7352.1	6464.85
990.7782	2642.5242	7335.8	6451.1
990.9023	2643.7887	7307.7	6424.15
991.0264	2645.0525	7286.35	6402.25
991.1505	2646.3156	7257.3	6370.1
991.2745	2647.5781	7230.05	6347.55
991.3985	2648.8398	7218.05	6336.75
991.5225	2650.1009	7197.2	6304.75
991.6464	2651.3613	7167	6282.65
991.7703	2652.6211	7175.5	6293.85
991.8942	2653.8801	7142.95	6260.5
992.018	2655.1385	7112.2	6226.25
992.1418	2656.3961	7092.3	6209.1
992.2655	2657.6531	7104.25	6220.4
992.3892	2658.9094	7057.15	6175.85
992.5129	2660.1651	7036.6	6154
992.6366	2661.42	7013.55	6130.5
992.7602	2662.6743	7001.85	6117.55
992.8837	2663.9279	7005.4	6122.4
993.0073	2665.1808	6986.7	6102.75
993.1307	2666.433	6974	6088.95
993.2542	2667.6846	6924.05	6041.15
993.3776	2668.9354	6901.7	6013.35
993.501	2670.1856	6887.6	6002.1
993.6244	2671.4351	6868.3	5984.8
993.7477	2672.6839	6878.75	5992.3
993.8709	2673.9321	6853.8	5970.9
993.9942	2675.1795	6820.85	5937.45
994.1174	2676.4263	6781.8	5898.2
994.2405	2677.6724	6785.7	5904.65
994.3637	2678.9179	6739.8	5856.15
994.4868	2680.1626	6742.2	5862.1
994.6098	2681.4067	6734.25	5851.1
994.7328	2682.6501	6710.15	5826.35
994.8558	2683.8928	6668.35	5784.75
994.9788	2685.1348	6641.55	5759.95
995.1017	2686.3761	6627.25	5743.7
995.2245	2687.6168	6613.2	5728.5
995.3474	2688.8568	6573.4	5690.35
995.4702	2690.0961	6559.35	5677.5
995.5929	2691.3348	6547.4	5663.95
995.7156	2692.5727	6523.5	5639.2
995.8383	2693.81	6499.85	5616.8
995.961	2695.0466	6468.8	5585.75
996.0836	2696.2826	6463.05	5580.35
996.2062	2697.5178	6449.7	5564.5
996.3287	2698.7524	6435.9	5550.7
996.4512	2699.9863	6414.05	5529.15
996.5737	2701.2195	6377.85	5496.1
996.6961	2702.452	6382.9	5497.65
996.8185	2703.6839	6358.05	5473.95
996.9408	2704.9151	6334.05	5454.1
997.0631	2706.1456	6333.7	5449.1
997.1854	2707.3755	6285.55	5402.8
997.3077	2708.6046	6278.85	5394.95
997.4299	2709.8331	6268.5	5385.75
997.552	2711.0609	6243.75	5361.4
997.6742	2712.2881	6231.6	5348.4
997.7963	2713.5145	6211.9	5326.65
997.9183	2714.7403	6192.8	5311.1
998.0403	2715.9654	6162.7	5281.25
998.1623	2717.1899	6148.6	5263.3
998.2842	2718.4136	6152.45	5270.25
998.4062	2719.6367	6125.7	5241.65
998.528	2720.8591	6127.4	5237.65
998.6498	2722.0809	6099.5	5216.4
998.7716	2723.3019	6075.75	5189.2
998.8934	2724.5223	6057	5172.65
999.0151	2725.7421	6039.2	5155.4
999.1368	2726.9611	6041.75	5156.5
999.2584	2728.1795	6010.5	5123.75
999.38	2729.3972	6005.65	5122.1
999.5016	2730.6142	5975.4	5085.65
999.6231	2731.8306	5925.15	5038.8
999.7446	2733.0462	5891.3	5007.8
999.8661	2734.2612	5860.05	4972.35
999.9875	2735.4756	5852.1	4970.3
1000.1089	2736.6892	5813.45	4930.3
1000.2302	2737.9022	5787.2	4906.75
1000.3515	2739.1145	5753.85	4870.65
1000.4728	2740.3262	5729.95	4838.15
1000.594	2741.5372	5724.95	4842.15
1000.7152	2742.7475	5684.5	4801.7
1000.8363	2743.9571	5680.05	4794.75
1000.9575	2745.1661	5670.7	4783.3
1001.0785	2746.3744	5634.85	4753.15
1001.1996	2747.582	5618.15	4736.3
1001.3206	2748.7889	5592.25	4707.85
1001.4415	2749.9952	5566.6	4685
1001.5625	2751.2008	5558.1	4676.6
1001.6833	2752.4057	5524.3	4637.85
1001.8042	2753.61	5514.25	4630.8
1001.925	2754.8136	5482.45	4598.9
1002.0458	2756.0165	5466.5	4583.85
1002.1665	2757.2188	5462.95	4581.55
1002.2872	2758.4204	5425.95	4542.35
1002.4078	2759.6213	5419.75	4535.4
1002.5285	2760.8215	5403.3	4515.85
1002.649	2762.0211	5378.75	4493.55
1002.7696	2763.22	5390.1	4503.9
1002.8901	2764.4182	5371.1	4487.75
1003.0106	2765.6158	5343	4458.2
1003.131	2766.8127	5332.15	4449.1
1003.2514	2768.009	5304.05	4423
1003.3717	2769.2045	5289.8	4405.85
1003.492	2770.3994	5280.8	4395.75
1003.6123	2771.5936	5246.3	4362.7
1003.7325	2772.7872	5217.5	4335.05
1003.8527	2773.9801	5208.15	4323.05
1003.9729	2775.1723	5204.25	4304
1004.093	2776.3639	5165.2	4284.15
1004.2131	2777.5548	5162.9	4277.1
1004.3331	2778.745	5129.8	4246.95
1004.4531	2779.9346	5126.4	4246
1004.5731	2781.1235	5115.2	4232.6
1004.693	2782.3117	5113.1	4231.95
1004.8129	2783.4992	5078.1	4196.9
1004.9328	2784.6861	5064.7	4182.85
1005.0526	2785.8723	5054.15	4171.8
1005.1723	2787.0579	5047.55	4165.25
1005.2921	2788.2428	5020.05	4136.35
1005.4118	2789.427	5014.9	4134.8
1005.5314	2790.6106	5006.2	4123.25
1005.651	2791.7935	5001.25	4118.75
1005.7706	2792.9757	4977.3	4096.1
1005.8902	2794.1573	4950.3	4065.9
1006.0097	2795.3382	4951.35	4068.25
1006.1291	2796.5184	4936.65	4055.45
1006.2485	2797.698	4935.1	4052.25
1006.3679	2798.8769	4917.3	4035.75
1006.4873	2800.0551	4898.1	4015.8
1006.6066	2801.2327	4885.45	4000.45
1006.7258	2802.4096	4888.55	4006.75
1006.8451	2803.5859	4863.15	3980.5
1006.9642	2804.7615	4870.5	3985.9
1007.0834	2805.9364	4858.05	3975.3
1007.2025	2807.1106	4875	3994.25
1007.3216	2808.2842	4858.15	3975.75
1007.4406	2809.4572	4858.2	3977.1
1007.5596	2810.6294	4859.75	3976.95
1007.6785	2811.801	4877.3	3995.4
1007.7975	2812.972	4890.7	4010.55
1007.9163	2814.1423	4890.35	4008.95
1008.0352	2815.3119	4910.7	4029.15
1008.154	2816.4808	4910.9	4028.95
1008.2727	2817.6491	4938.3	4055.95
1008.3914	2818.8167	4976.2	4095.7
1008.5101	2819.9837	4986.2	4099.75
1008.6288	2821.15	4996	4114.35
1008.7474	2822.3157	5005.9	4125.25
1008.8659	2823.4807	5056.15	4176.3
1008.9844	2824.645	5072.45	4190.15
1009.1029	2825.8086	5081	4202
1009.2214	2826.9716	5112.15	4230.7
1009.3398	2828.134	5145.95	4263.65
1009.4581	2829.2957	5169.4	4287.45
1009.5764	2830.4567	5167.35	4289.1
1009.6947	2831.617	5170	4288.65
1009.813	2832.7767	5181.5	4300.65
1009.9312	2833.9358	5149.5	4268.35
1010.0493	2835.0941	5140.9	4257.95
1010.1675	2836.2519	5131.3	4252.25
1010.2855	2837.4089	5082.35	4200.85
1010.4036	2838.5653	5078.75	4198.25
1010.5216	2839.7211	5072.65	4193.2
1010.6396	2840.8761	5052.9	4169.75
1010.7575	2842.0306	5048.45	4167.3
1010.8754	2843.1843	5059.7	4178
1010.9932	2844.3374	5072.45	4191.4
1011.111	2845.4899	5080.75	4197.75
1011.2288	2846.6417	5107.05	4224.75
1011.3465	2847.7928	5143.85	4263.8
1011.4642	2848.9433	5148.7	4268
1011.5818	2850.0931	5189.2	4310
1011.6995	2851.2422	5207.7	4325.05
1011.817	2852.3907	5244.45	4360.95
1011.9345	2853.5385	5279.2	4397.35
1012.052	2854.6857	5305.7	4414.4
1012.1695	2855.8323	5291.8	4413.05
1012.2869	2856.9781	5318.1	4438.05
1012.4042	2858.1233	5341.75	4459.5
1012.5216	2859.2679	5354.25	4474.3
1012.6389	2860.4118	5379.75	4497.9
1012.7561	2861.555	5386.9	4500.5
1012.8733	2862.6976	5397.4	4515.95
1012.9905	2863.8395	5420.3	4538.75
1013.1076	2864.9808	5426.05	4544.8
1013.2247	2866.1214	5405.65	4525.4
1013.3417	2867.2614	5420.1	4538.2
1013.4587	2868.4007	5399.75	4518.35
1013.5757	2869.5393	5421.8	4539.7
1013.6926	2870.6773	5396.25	4512.25
1013.8095	2871.8146	5406	4522.6
1013.9263	2872.9513	5387.2	4503.75
1014.0431	2874.0874	5366.95	4486.15
1014.1599	2875.2227	5340.15	4458.15
1014.2766	2876.3574	5316.8	4435.55
1014.3933	2877.4915	5274.6	4393.85
1014.51	2878.6249	5244.8	4364.8
1014.6266	2879.7577	5223.7	4338.85
1014.7431	2880.8898	5214.25	4322.15
1014.8596	2882.0212	5196.25	4317.25
1014.9761	2883.152	5184.65	4302.95
1015.0925	2884.2821	5160.1	4278.4
1015.2089	2885.4116	5122.5	4241.6
1015.3253	2886.5405	5108.9	4226.95
1015.4416	2887.6686	5111.7	4230.1
1015.5579	2888.7962	5092.15	4213.7
1015.6741	2889.923	5101.7	4220.7
1015.7903	2891.0493	5096.2	4216.4
1015.9065	2892.1748	5083.6	4200.8
1016.0226	2893.2997	5054.95	4175.75
1016.1387	2894.424	5062.8	4183.15
1016.2547	2895.5476	5060.65	4178.6
1016.3707	2896.6706	5059.5	4179.9
1016.4866	2897.7929	5046.9	4165.55
1016.6025	2898.9145	5073.5	4192.5
1016.7184	2900.0355	5056.3	4174.45
1016.8342	2901.1559	5078.2	4195.9
1016.95	2902.2756	5084.05	4205.2
1017.0658	2903.3946	5093.45	4213.85
1017.1815	2904.513	5097.2	4213.8
1017.2971	2905.6308	5106.95	4229.2
1017.4127	2906.7479	5090.4	4208.1
1017.5283	2907.8643	5103.15	4220.4
1017.6439	2908.9801	5095.2	4215.25
1017.7594	2910.0953	5083	4202.1
1017.8748	2911.2098	5053.7	4171.75
1017.9902	2912.3236	5050.05	4160.65
1018.1056	2913.4368	5043.45	4159.65
1018.2209	2914.5494	5011.5	4129.4
1018.3362	2915.6613	4990.6	4105.15
1018.4515	2916.7725	4968.85	4085.05
1018.5667	2917.8831	4927.8	4047.2
1018.6819	2918.9931	4902.25	4018.4
1018.797	2920.1024	4864.2	3982.65
1018.9121	2921.211	4830.95	3949.35
1019.0271	2922.319	4828.65	3950.3
1019.1421	2923.4264	4819.9	3940.05
1019.2571	2924.5331	4806.25	3927.65
1019.372	2925.6391	4778.3	3899.4
1019.4869	2926.7445	4786.4	3904.55
1019.6017	2927.8493	4760.45	3880.8
1019.7165	2928.9534	4750.55	3870.4
1019.8313	2930.0569	4740.4	3856.95
1019.946	2931.1597	4743.25	3861.75
1020.0606	2932.2619	4745.65	3862.75
1020.1753	2933.3634	4747.2	3867.5
1020.2899	2934.4643	4741.6	3854.55
1020.4044	2935.5645	4711.4	3825.55
1020.5189	2936.6641	4691.15	3807.65
1020.6334	2937.763	4661.05	3780.2
1020.7478	2938.8613	4628.9	3747.2
1020.8622	2939.959	4601.8	3715.6
1020.9765	2941.056	4531.35	3653.2
1021.0908	2942.1523	4491.8	3611.15
1021.2051	2943.248	4411.05	3531.05
1021.3193	2944.3431	4366.7	3486.55
1021.4334	2945.4375	4281.8	3400.9
1021.5476	2946.5313	4214	3336
1021.6617	2947.6244	4151.15	3271
1021.7757	2948.7169	4084.4	3201.55
1021.8897	2949.8087	4024	3144.05
1022.0037	2950.8999	3958.2	3077.6
1022.1176	2951.9904	3896.55	3013.4
1022.2315	2953.0803	3838.85	2959.25
1022.3453	2954.1696	3790.9	2910.65
1022.4591	2955.2582	3750.3	2871
1022.5728	2956.3462	3716.45	2836.45
1022.6865	2957.4335	3675.7	2794.95
1022.8002	2958.5202	3645.95	2764.65
1022.9138	2959.6062	3625.95	2745.95
1023.0274	2960.6916	3591.75	2712.55
1023.141	2961.7764	3574.85	2694.6
1023.2545	2962.8605	3560.1	2677.9
1023.3679	2963.9439	3541.35	2663.1
1023.4813	2965.0267	3529.8	2647.65
1023.5947	2966.1089	3518.2	2613.25
1023.708	2967.1905	3489.5	2610.5
1023.8213	2968.2714	3475.85	2596.4
1023.9346	2969.3516	3473.2	2593.3
1024.0478	2970.4312	3474.65	2586.1
1024.1609	2971.5102	3453.1	2574.1
1024.274	2972.5885	3457.55	2578.35
1024.3871	2973.6662	3439.15	2553
1024.5002	2974.7432	3447.55	2569.5
1024.6132	2975.8196	3415.1	2534.7
1024.7261	2976.8954	3414.25	2533.5
1024.839	2977.9705	3399.2	2519.85
1024.9519	2979.045	3380.7	2498.15
1025.0647	2980.1188	3356.85	2479.35
1025.1775	2981.192	3347.5	2469.1
1025.2902	2982.2645	3325.05	2443.95
1025.4029	2983.3364	3298.55	2419.5
1025.5156	2984.4077	3274.05	2395.15
1025.6282	2985.4783	3254.4	2370.15
1025.7407	2986.5483	3222.7	2344.6
1025.8532	2987.6177	3200.85	2321.5
1025.9657	2988.6864	3166.7	2286
1026.0782	2989.7545	3160.1	2276.3
1026.1906	2990.8219	3119.85	2240.25
1026.3029	2991.8887	3102.7	2222.4
1026.4152	2992.9548	3078.25	2196.9
1026.5275	2994.0204	3046.95	2169.2
1026.6397	2995.0852	3010.3	2131.05
1026.7519	2996.1495	3003.9	2122.6
1026.864	2997.2131	2973.55	2093.5
1026.9761	2998.276	2961.15	2079.95
1027.0882	2999.3383	2938.8	2058.25
1027.2002	3000.4	2921.55	2038.8
1027.3122	3001.4611	2886.85	2007.3
1027.4241	3002.5215	2886.05	2007.05
1027.536	3003.5812	2862.1	1981.95
1027.6478	3004.6404	2839.95	1960.95
1027.7596	3005.6989	2832.1	1950.4
1027.8714	3006.7567	2818.15	1938.5
1027.9831	3007.8139	2826.5	1916.8
1028.0947	3008.8705	2799.7	1920.7
1028.2064	3009.9264	2778	1893.65
1028.3179	3010.9818	2763.4	1884.2
1028.4295	3012.0364	2773.2	1893.15
1028.541	3013.0905	2750.95	1870.7
1028.6524	3014.1439	2745.05	1867.2
1028.7638	3015.1966	2739.95	1859.4
1028.8752	3016.2487	2723.15	1842.95
1028.9865	3017.3002	2720.1	1836.65
1029.0978	3018.3511	2707.7	1827.9
1029.209	3019.4013	2696.9	1816.85
1029.3202	3020.4509	2682.95	1803.2
1029.4314	3021.4998	2701.3	1823
1029.5425	3022.5481	2680.2	1800
1029.6535	3023.5958	2667.2	1788.85
1029.7645	3024.6428	2681.55	1799.35
1029.8755	3025.6892	2649.6	1769.95
1029.9864	3026.735	2652.15	1770.9
1030.0973	3027.7802	2647.9	1767.8
1030.2082	3028.8247	2637.55	1755.25
1030.319	3029.8685	2611.55	1731.65
1030.4297	3030.9118	2627.55	1746.35
1030.5404	3031.9544	2615.75	1735.35
1030.6511	3032.9963	2605.7	1727.05
1030.7617	3034.0376	2603.25	1723.85
1030.8723	3035.0783	2592	1709.95
1030.9829	3036.1184	2589.15	1707.65
1031.0934	3037.1578	2583.2	1704.95
1031.2038	3038.1966	2589	1709.6
1031.3142	3039.2348	2570.4	1692.55
1031.4246	3040.2723	2578.55	1691.7
1031.5349	3041.3092	2560.75	1682.55
1031.6452	3042.3455	2554.3	1674.85
1031.7554	3043.3811	2543.25	1662.15
1031.8656	3044.4161	2535.25	1654.65
1031.9758	3045.4505	2523.75	1645.25
1032.0859	3046.4842	2524.6	1644.25
1032.1959	3047.5173	2509	1631.15
1032.3059	3048.5498	2508.55	1628.6
1032.4159	3049.5816	2496.05	1615.75
1032.5258	3050.6128	2508.7	1629.3
1032.6357	3051.6434	2493.15	1612.2
1032.7455	3052.6734	2476.8	1596.35
1032.8553	3053.7027	2466.2	1587.2
1032.9651	3054.7314	2476.2	1596.8
1033.0748	3055.7594	2444.95	1566.05
1033.1845	3056.7868	2450.35	1568.55
1033.2941	3057.8136	2438.7	1560.35
1033.4037	3058.8398	2436.55	1555.65
1033.5132	3059.8653	2425	1544.4
1033.6227	3060.8902	2411.7	1531.45
1033.7321	3061.9145	2414.35	1533.75
1033.8415	3062.9381	2407.15	1528.7
1033.9509	3063.9612	2412.25	1518.65
1034.0602	3064.9835	2397.6	1519.45
1034.1694	3066.0053	2372.25	1491.35
1034.2787	3067.0264	2370.65	1491.1
1034.3878	3068.0469	2378.85	1498.65
1034.497	3069.0668	2364.65	1480.9
1034.6061	3070.086	2357.35	1479.95
1034.7151	3071.1046	2348.3	1468.65
1034.8241	3072.1226	2342.45	1461.75
1034.9331	3073.1399	2306.85	1429.95
1035.042	3074.1567	2311.05	1431.7
1035.1508	3075.1727	2315.45	1435.3
1035.2597	3076.1882	2290.1	1410.6
1035.3684	3077.203	2288.45	1410.15
1035.4772	3078.2173	2272.05	1391.6
1035.5859	3079.2308	2259	1375.8
1035.6945	3080.2438	2253.6	1372.75
1035.8031	3081.2561	2252.95	1373.35
1035.9117	3082.2678	2229	1349.25
1036.0202	3083.2789	2233.65	1356.45
1036.1286	3084.2893	2228.6	1349.3
1036.2371	3085.2991	2214	1335.65
1036.3454	3086.3083	2207.1	1322.35
1036.4538	3087.3169	2209.6	1329.25
1036.562	3088.3248	2198.95	1318.75
1036.6703	3089.3321	2190.95	1310.15
1036.7785	3090.3388	2174.35	1295.65
1036.8866	3091.3449	2161.4	1283.5
1036.9948	3092.3503	2163.7	1282.25
1037.1028	3093.3551	2154.45	1277.4
1037.2108	3094.3593	2160.55	1283.25
1037.3188	3095.3629	2143.3	1265.2
1037.4267	3096.3658	2124.1	1243.1
1037.5346	3097.3681	2124.75	1247.05
1037.6425	3098.3698	2126.8	1247.5
1037.7503	3099.3708	2117.5	1231.9
1037.858	3100.3713	2104.5	1227.05
1037.9657	3101.3711	2091.1	1211.95
1038.0734	3102.3702	2228.95	1216.25
1038.181	3103.3688	2092.95	1211.85
1038.2886	3104.3667	2073.75	1194.45
1038.3961	3105.364	2072.3	1192.4
1038.5036	3106.3607	2060.8	1179.1
1038.611	3107.3568	2059.6	1178.25
1038.7184	3108.3522	2049.4	1171.95
1038.8257	3109.347	2037.95	1159.05
1038.933	3110.3412	2025.45	1141.85
1039.0403	3111.3348	2017.3	1138.3
1039.1475	3112.3277	2014.4	1133.95
1039.2547	3113.32	2004.4	1126.9
1039.3618	3114.3117	2012.35	1133.7
1039.4689	3115.3028	2006.05	1126.75
1039.5759	3116.2932	1981.25	1100.55
1039.6829	3117.2831	1985.05	1100.55
1039.7898	3118.2723	1968.55	1088
1039.8967	3119.2608	1965.85	1087.1
1040.0035	3120.2488	1970.8	1090.2
1040.1103	3121.2361	1959.4	1080.6
1040.2171	3122.2229	1955.45	1074.8
1040.3238	3123.209	1945.45	1064.2
1040.4305	3124.1944	1940.65	1062.55
1040.5371	3125.1793	1928.2	1046.95
1040.6437	3126.1635	1925.3	1048.3
1040.7502	3127.1471	1924.65	1045.4
1040.8567	3128.1301	1916.15	1036.8
1040.9631	3129.1125	1911.9	1032.2
1041.0695	3130.0942	1911.25	1034.3
1041.1759	3131.0753	1914.9	1026.2
1041.2822	3132.0558	1893.6	1011.85
1041.3884	3133.0357	1888.45	1009.15
1041.4946	3134.015	1896.4	1016.15
1041.6008	3134.9936	1890.75	1009.8
1041.7069	3135.9716	1903.45	1003.35
1041.813	3136.949	1876.75	996.85
1041.919	3137.9258	1875.15	992
1042.025	3138.902	1869	985.8
1042.1309	3139.8775	1860.45	982.75
1042.2368	3140.8524	1855.3	975
1042.3427	3141.8267	1859.45	977
1042.4485	3142.8004	1853.85	973.6
1042.5542	3143.7735	1850.5	966.15
1042.6599	3144.7459	1848.4	967
1042.7656	3145.7178	1839.55	962.05
1042.8712	3146.689	1834.6	957.65
1042.9768	3147.6596	1824.4	943.05
1043.0823	3148.6295	1819.55	940
1043.1878	3149.5989	1823.2	944.25
1043.2932	3150.5676	1807.55	931.95
1043.3986	3151.5357	1806.7	929.2
1043.5039	3152.5032	1794.8	916.6
1043.6092	3153.4701	1798.35	920.75
1043.7145	3154.4364	1790.05	908.85
1043.8197	3155.402	1792.25	915.95
1043.9248	3156.367	1780	897.45
1044.03	3157.3315	1810.7	892.15
1044.135	3158.2952	1779.4	900
1044.24	3159.2584	1761.05	882.9
1044.345	3160.221	1762.7	883.7
1044.4499	3161.1829	1748.4	869.1
1044.5548	3162.1442	1751.6	871.35
1044.6596	3163.105	1737.65	857.55
1044.7644	3164.065	1745.25	866.55
1044.8692	3165.0245	1734.95	853.05
1044.9739	3165.9834	1731.6	854
1045.0785	3166.9416	1724.25	845.6
1045.1831	3167.8993	1724.5	846.6
1045.2877	3168.8563	1712.15	833.45
1045.3922	3169.8127	1706.15	828.3
1045.4966	3170.7684	1708.6	832.3
1045.6011	3171.7236	1700.8	819
1045.7054	3172.6782	1704.6	825
1045.8098	3173.6321	1699.55	820.3
1045.914	3174.5854	1699.1	817.25
1046.0183	3175.5381	1689.95	810.75
1046.1224	3176.4902	1672	793.7
1046.2266	3177.4417	1675.7	796.65
1046.3307	3178.3926	1679.1	801.35
1046.4347	3179.3428	1665.65	789.15
1046.5387	3180.2924	1662.9	785.8
1046.6427	3181.2415	1660.55	780.8
1046.7466	3182.1899	1649.75	769.85
1046.8504	3183.1377	1648.75	769.2
1046.9542	3184.0848	1646.8	764.5
1047.058	3185.0314	1633.65	755.2
1047.1617	3185.9773	1626.2	745.4
1047.2654	3186.9227	1632.95	753.5
1047.369	3187.8674	1626.25	747
1047.4726	3188.8115	1631	747
1047.5761	3189.755	1622.8	744.75
1047.6796	3190.6979	1618.8	739.3
1047.783	3191.6402	1610.65	733.15
1047.8864	3192.5818	1611.65	733.6
1047.9898	3193.5229	1619.55	722
1048.0931	3194.4633	1607.8	730.25
1048.1963	3195.4031	1604.85	727.25
1048.2995	3196.3423	1593.35	714.4
1048.4027	3197.2809	1585.75	706.65
1048.5058	3198.2189	1591.4	709.75
1048.6089	3199.1563	1597.6	703.8
1048.7119	3200.0931	1579.3	701.85
1048.8148	3201.0292	1570.3	694
1048.9178	3201.9648	1576.7	698.75
1049.0206	3202.8997	1573.05	689.95
1049.1235	3203.834	1566.2	688.05
1049.2262	3204.7677	1560.45	682.3
1049.329	3205.7008	1567.2	686.15
1049.4317	3206.6333	1552	674.85
1049.5343	3207.5652	1551.25	669.9
1049.6369	3208.4964	1553.45	674
1049.7394	3209.4271	1536.35	657.65
1049.8419	3210.3571	1542.05	663.15
1049.9444	3211.2865	1538.1	659.2
1050.0468	3212.2154	1531.35	650.8
1050.1491	3213.1436	1539.5	659
1050.2514	3214.0712	1531.95	646.05
1050.3537	3214.9982	1523.45	645.65
1050.4559	3215.9246	1515.25	634
1050.5581	3216.8503	1517.7	639.3
1050.6602	3217.7755	1520.2	639.25
1050.7623	3218.7001	1520.2	642.05
1050.8643	3219.624	1509.4	630.05
1050.9663	3220.5473	1509.25	630.7
1051.0682	3221.4701	1506.95	626.9
1051.1701	3222.3922	1500.8	620.1
1051.2719	3223.3137	1494.4	617.55
1051.3737	3224.2346	1501.1	621.45
1051.4754	3225.1549	1484.4	606.1
1051.5771	3226.0746	1487.75	609.3
1051.6788	3226.9937	1484.85	605.65
1051.7804	3227.9121	1472.85	596.2
1051.8819	3228.83	1477.4	598.9
1051.9834	3229.7473	1468.2	590.65
1052.0849	3230.6639	1472.8	594.4
1052.1863	3231.5799	1465.85	586.7
1052.2876	3232.4954	1459.6	580.75
1052.3889	3233.4102	1469.35	590.65
1052.4902	3234.3244	1447.45	569.25
1052.5914	3235.238	1453.1	573.7
1052.6926	3236.151	1469.3	567.7
1052.7937	3237.0634	1449.75	573
1052.8948	3237.9752	1438.05	558.85
1052.9958	3238.8864	1440.4	561.2
1053.0968	3239.797	1442.35	563.15
1053.1977	3240.7069	1425.25	545.35
1053.2986	3241.6163	1432.25	554
1053.3994	3242.5251	1427.2	548.75
1053.5002	3243.4332	1426.65	549.05
1053.6009	3244.3408	1421.25	539.5
1053.7016	3245.2477	1419.5	540.3
1053.8022	3246.154	1414.25	533.7
1053.9028	3247.0598	1412.55	533.9
1054.0034	3247.9649	1407.5	529.3
1054.1039	3248.8694	1397.2	518.3
1054.2043	3249.7733	1401.6	523.25
1054.3047	3250.6766	1397.35	519.2
1054.4051	3251.5793	1398.6	521.05
1054.5054	3252.4814	1387.95	511.45
1054.6056	3253.3829	1385.5	507.5
1054.7058	3254.2838	1381.95	504.1
1054.806	3255.1841	1378.55	501.45
1054.9061	3256.0838	1375.8	496.85
1055.0061	3256.9829	1367.8	491.1
1055.1062	3257.8814	1365.1	486.9
1055.2061	3258.7792	1365.8	485.4
1055.306	3259.6765	1362.25	483.2
1055.4059	3260.5731	1358.7	479.9
1055.5057	3261.4692	1343.15	462.15
1055.6055	3262.3647	1343.05	462.1
1055.7052	3263.2595	1337.8	458.65
1055.8049	3264.1538	1333.4	455.85
1055.9045	3265.0474	1317.8	440.15
1056.0041	3265.9404	1316	436.45
1056.1036	3266.8329	1308.45	431.35
1056.2031	3267.7247	1310.15	421.45
1056.3025	3268.616	1289.95	413.9
1056.4019	3269.5066	1280.25	401.4
1056.5013	3270.3966	1271.95	390.8
1056.6005	3271.286	1257.25	379.55
