Software Version:	3.9.2.0
Unit SN:	10000200
Spectrometer SN:	6960
Date:	3/6/2024 11:03:25 AM
Data Line Index:	25
Spectral Points:	2048
Integration time (ms):	125
Averages:	20
Delay (ms):	30
Sequence Number:	1
Processing:	dark subtract
Laser Power (mW):	300
Laser Current (mA):	822
Laser Diode Temp (C):	25
Laser Case Temp (C):	28.3
System Temp (C):	28.2
Spectrometer Temp (C):	25.6
CCD Temp (C):	-0.002
Secondary Temp (C):	20.028
Heatsink Temp (C):	24.04
CCDPCB Temp (C):	37.418
SecondaryPCB Temp (C):	34.628

Wavelength	RamanShift	Raw Counts	Dark Subtracted
787.061	30.1047	1075.85	662.3
787.2016	32.3739	1096.6	683.35
787.3422	34.6426	1137.2	723.7
787.4828	36.9109	1197.85	781.15
787.6235	39.1787	1241.4	820.75
787.7642	41.4461	1302.4	878.25
787.9049	43.7131	1361.8	932.45
788.0456	45.9796	1416.05	984.3
788.1863	48.2456	1479.95	1044.55
788.3271	50.5112	1538.65	1099.6
788.4679	52.7764	1613.7	1173.35
788.6087	55.0411	1691.8	1246.1
788.7496	57.3054	1767.9	1318.05
788.8904	59.5692	1851.55	1398.2
789.0313	61.8326	1935.15	1477.25
789.1722	64.0955	2037.55	1576.95
789.3132	66.3579	2165.3	1700.3
789.4541	68.6199	2301.7	1833.8
789.5951	70.8815	2525.15	2053.7
789.7361	73.1426	2997.25	2522.65
789.8771	75.4032	4186.7	3707.4
790.0181	77.6634	7190.7	6706.75
790.1592	79.9231	14880.5	14392.3
790.3003	82.1824	47691.85	47192.8
790.4414	84.4412	65535	65016.2
790.5825	86.6995	65535	64996.15
790.7237	88.9574	65535	64974.9
790.8648	91.2148	65535	64957.85
791.006	93.4717	65535	64952.2
791.1472	95.7282	65535	64943.4
791.2885	97.9842	65535	64939.3
791.4297	100.2398	65535	64934.1
791.571	102.4949	65535	64931.55
791.7123	104.7495	65535	64930.85
791.8536	107.0036	65535	64927
791.9949	109.2573	65535	64929.6
792.1363	111.5105	65535	64930.8
792.2777	113.7632	65535	64925
792.4191	116.0154	65535	64915.6
792.5605	118.2672	65535	64917.35
792.7019	120.5185	65535	64920.1
792.8434	122.7693	65535	64916.35
792.9849	125.0197	65535	64912.4
793.1264	127.2696	65535	64913
793.2679	129.519	65535	64907
793.4094	131.7679	65535	64906.45
793.551	134.0163	65535	64901.7
793.6926	136.2642	65535	64897.6
793.8342	138.5117	65535	64887.3
793.9758	140.7587	65535	64892.55
794.1175	143.0052	65535	64890.05
794.2591	145.2512	65535	64890.25
794.4008	147.4967	65535	64890.25
794.5425	149.7417	65535	64887.75
794.6842	151.9863	65535	64885.8
794.826	154.2304	65535	64878
794.9677	156.4739	65535	64874.05
795.1095	158.717	65535	64873
795.2513	160.9596	65535	64868.7
795.3931	163.2017	65535	64868.1
795.535	165.4433	65535	64866.3
795.6768	167.6844	65535	64864.3
795.8187	169.925	65535	64860.75
795.9606	172.1651	65535	64857.85
796.1025	174.4047	65535	64853.9
796.2445	176.6439	65535	64855.2
796.3864	178.8825	65535	64850.85
796.5284	181.1206	65535	64846.7
796.6704	183.3582	65535	64839.8
796.8124	185.5954	65535	64841.55
796.9544	187.832	65535	64838.3
797.0965	190.0681	65535	64836.6
797.2386	192.3037	65535	64828.95
797.3806	194.5388	65535	64828.3
797.5228	196.7734	65535	64827.65
797.6649	199.0075	65535	64823.4
797.807	201.2411	65535	64822.75
797.9492	203.4742	65535	64824.8
798.0914	205.7068	65535	64821.55
798.2336	207.9389	65535	64819.4
798.3758	210.1704	65535	64811.45
798.518	212.4015	65535	64814.5
798.6603	214.632	65535	64820.45
798.8025	216.862	65535	64829.9
798.9448	219.0915	65535	64836.05
799.0871	221.3205	65535	64833.55
799.2294	223.549	65535	64837
799.3718	225.777	65535	64838.6
799.5141	228.0044	65535	64832.3
799.6565	230.2314	65535	64835.35
799.7989	232.4578	65535	64830.35
799.9413	234.6837	65535	64824.05
800.0837	236.909	65535	64821.35
800.2262	239.1339	65535	64798.35
800.3687	241.3582	65535	64813.7
800.5111	243.582	65535	64777.75
800.6536	245.8053	65535	64791.4
800.7961	248.0281	65535	64797.55
800.9387	250.2503	65535	64793.1
801.0812	252.472	65535	64791
801.2238	254.6932	65535	64790
801.3664	256.9139	65535	64785.75
801.509	259.134	65535	64786.2
801.6516	261.3536	65535	64786.95
801.7942	263.5727	65535	64786.1
801.9369	265.7912	65535	64783.45
802.0795	268.0092	65535	64782.35
802.2222	270.2267	65535	64780.4
802.3649	272.4436	65535	64780.9
802.5076	274.6601	65535	64775.6
802.6504	276.8759	65535	64780.3
802.7931	279.0913	65535	64775.9
802.9359	281.3061	65535	64773.4
803.0787	283.5204	65535	64773.7
803.2215	285.7341	65535	64770.45
803.3643	287.9473	65535	64758
803.5071	290.16	65535	64764.05
803.6499	292.3721	65535	64767.9
803.7928	294.5837	65535	64766.45
803.9357	296.7947	65535	64768.85
804.0786	299.0052	65535	64767.65
804.2215	301.2152	65535	64764.95
804.3644	303.4246	65535	64768.2
804.5074	305.6334	65535	64763.9
804.6503	307.8418	65535	64766.25
804.7933	310.0495	65535	64763.85
804.9363	312.2568	65535	64764.2
805.0793	314.4635	65535	64761.15
805.2223	316.6696	65535	64760.85
805.3653	318.8752	65535	64751.95
805.5084	321.0802	65535	64756.55
805.6514	323.2847	65535	64758.3
805.7945	325.4887	65535	64757.45
805.9376	327.692	65535	64757.95
806.0807	329.8949	65535	64755.55
806.2238	332.0972	65535	64753.65
806.367	334.2989	65535	64748
806.5101	336.5001	65535	64750.15
806.6533	338.7007	65535	64749.85
806.7965	340.9008	65535	64747.65
806.9397	343.1003	65535	64741.8
807.0829	345.2992	65535	64743.8
807.2261	347.4976	65535	64742.65
807.3693	349.6955	65535	64738.2
807.5126	351.8927	65535	64737.05
807.6559	354.0895	65535	64728.5
807.7991	356.2856	65535	64737.95
807.9424	358.4812	65535	64733.6
808.0857	360.6763	65535	64736.2
808.2291	362.8707	65535	64735.3
808.3724	365.0646	65535	64731.8
808.5158	367.258	65535	64729.4
808.6591	369.4508	65535	64726
808.8025	371.643	65535	64726.2
808.9459	373.8346	65535	64726.9
809.0893	376.0257	65535	64721
809.2327	378.2162	65535	64721.1
809.3762	380.4062	65535	64718.25
809.5196	382.5956	65535	64715.55
809.6631	384.7844	65535	64716.05
809.8066	386.9726	65535	64717.45
809.9501	389.1603	65535	64721.85
810.0936	391.3474	65535	64690.6
810.2371	393.5339	65535	64721.25
810.3806	395.7199	65535	64724
810.5241	397.9052	65535	64726.3
810.6677	400.09	65535	64727.45
810.8113	402.2743	65535	64730
810.9548	404.4579	65535	64730.1
811.0984	406.641	65535	64725.35
811.2421	408.8235	65535	64728.15
811.3857	411.0054	65535	64721.85
811.5293	413.1868	65535	64720.95
811.673	415.3675	65535	64718
811.8166	417.5477	65535	64718.95
811.9603	419.7273	65535	64714
812.104	421.9064	65535	64704.25
812.2477	424.0848	65535	64710.85
812.3914	426.2627	65535	64710.1
812.5351	428.4399	65535	64707.95
812.6788	430.6166	65535	64704.55
812.8226	432.7928	65535	64705.05
812.9663	434.9683	65535	64704.15
813.1101	437.1432	65535	64699.85
813.2539	439.3176	65535	64700.05
813.3977	441.4914	65535	64703.25
813.5415	443.6645	65535	64703.4
813.6853	445.8371	65535	64703.6
813.8291	448.0091	65535	64703.4
813.973	450.1806	65535	64702.65
814.1168	452.3514	65535	64700.4
814.2607	454.5216	65535	64693.7
814.4046	456.6913	65535	64695.65
814.5485	458.8603	65535	64698.8
814.6924	461.0288	65535	64699.95
814.8363	463.1967	65535	64699.4
814.9802	465.3639	65535	64699
815.1241	467.5306	65535	64695.3
815.2681	469.6967	65535	64697.25
815.412	471.8622	65535	64693.05
815.556	474.0271	65535	64699.55
815.7	476.1914	65535	64693.5
815.844	478.3551	65535	64695.45
815.988	480.5182	65535	64696.8
816.132	482.6807	65535	64696.15
816.276	484.8426	65535	64694.55
816.4201	487.0039	65535	64691.85
816.5641	489.1647	65535	64690.4
816.7082	491.3248	65535	64691.25
816.8522	493.4843	65535	64694.65
816.9963	495.6432	65535	64693.65
817.1404	497.8015	65535	64686.5
817.2845	499.9592	65535	64688.9
817.4286	502.1163	65535	64686.7
817.5727	504.2728	65535	64684.35
817.7168	506.4287	65535	64687.15
817.861	508.5839	65535	64689.5
818.0051	510.7386	65535	64691
818.1493	512.8927	65535	64683.15
818.2935	515.0461	65535	64685.9
818.4377	517.199	65535	64687.05
818.5818	519.3512	65535	64686.7
818.726	521.5029	65535	64682.1
818.8703	523.6539	65535	64686.05
819.0145	525.8043	65535	64682.2
819.1587	527.9541	65535	64675.85
819.303	530.1033	65535	64682.55
819.4472	532.2519	65535	64682.2
819.5915	534.3999	65535	64683.85
819.7357	536.5472	65535	64681.55
819.88	538.694	65535	64681.7
820.0243	540.8401	65535	64678.9
820.1686	542.9856	65535	64677.4
820.3129	545.1305	65535	64679.3
820.4572	547.2748	65535	64673.85
820.6016	549.4185	65535	64672.6
820.7459	551.5615	65535	64676.3
820.8902	553.704	65535	64675.25
821.0346	555.8458	65535	64676.8
821.1789	557.987	65535	64676.3
821.3233	560.1276	65535	64676.1
821.4677	562.2675	65535	64676.3
821.6121	564.4069	65535	64678.25
821.7565	566.5456	65535	64676.1
821.9009	568.6837	65535	64674.8
822.0453	570.8212	65535	64676.05
822.1897	572.958	65535	64671.7
822.3342	575.0942	65535	64675.45
822.4786	577.2299	65535	64679.8
822.6231	579.3648	65535	64676.25
822.7675	581.4992	65535	64676.75
822.912	583.6329	65535	64674.85
823.0565	585.766	65535	64677.15
823.201	587.8985	65535	64675.9
823.3454	590.0304	65535	64663.15
823.4899	592.1616	65535	64673
823.6345	594.2922	65535	64672.25
823.779	596.4222	65535	64666.45
823.9235	598.5515	65535	64670.85
824.068	600.6802	65535	64672.45
824.2126	602.8083	65535	64668.25
824.3571	604.9358	65535	64669.7
824.5017	607.0626	65535	64667.65
824.6462	609.1888	65535	64669.05
824.7908	611.3144	65535	64666.6
824.9354	613.4393	65535	64671.25
825.08	615.5636	65535	64667.6
825.2246	617.6873	65535	64668.1
825.3692	619.8103	65535	64666.6
825.5138	621.9327	65535	64664.15
825.6584	624.0544	65535	64666.9
825.803	626.1756	65535	64668
825.9477	628.2961	65535	64668.6
826.0923	630.4159	65535	64668.4
826.237	632.5351	65535	64664.85
826.3816	634.6537	65535	64666.7
826.5263	636.7716	65535	64661.85
826.6709	638.8889	65535	64660.95
826.8156	641.0056	65535	64665.1
826.9603	643.1216	65535	64660.5
827.105	645.237	65535	64660
827.2497	647.3518	65535	64664.45
827.3944	649.4659	65535	64663.7
827.5391	651.5793	65535	64662.4
827.6838	653.6922	65535	64664.65
827.8285	655.8043	65535	64661.05
827.9733	657.9159	65535	64665.95
828.118	660.0268	65535	64661.5
828.2627	662.137	65535	64660.45
828.4075	664.2466	65535	64658.25
828.5522	666.3556	65535	64662.45
828.697	668.4639	65535	64656.8
828.8418	670.5716	65535	64663.25
828.9865	672.6786	65535	64658.25
829.1313	674.785	65535	64657.95
829.2761	676.8907	65535	64660.95
829.4209	678.9958	65535	64662.1
829.5657	681.1002	65535	64658.35
829.7105	683.204	65535	64655.5
829.8553	685.3072	65535	64654.45
830.0001	687.4097	65535	64657.6
830.1449	689.5115	65535	64656.2
830.2898	691.6127	65535	64658.25
830.4346	693.7132	65535	64654.85
830.5794	695.8131	65535	64645.5
830.7243	697.9123	65535	64653.25
830.8691	700.0109	65535	64656.7
831.014	702.1089	65535	64655.05
831.1588	704.2061	65535	64653.15
831.3037	706.3028	65535	64653.45
831.4486	708.3987	65535	64654.55
831.5935	710.4941	65535	64653.5
831.7383	712.5887	65535	64655.65
831.8832	714.6827	65535	64653.4
832.0281	716.7761	65535	64653.45
832.173	718.8688	65535	64652.55
832.3179	720.9608	65535	64649.75
832.4628	723.0522	65535	64648.65
832.6077	725.1429	65535	64652.4
832.7527	727.233	65535	64649.55
832.8976	729.3224	65535	64654.65
833.0425	731.4112	65535	64651.5
833.1874	733.4993	65535	64651.15
833.3324	735.5867	65535	64648.75
833.4773	737.6735	65535	64648.75
833.6222	739.7596	65535	64651.25
833.7672	741.845	65535	64649.9
833.9122	743.9298	65535	64649.4
834.0571	746.014	65535	64651.6
834.2021	748.0974	65535	64647.1
834.347	750.1802	65535	64650.5
834.492	752.2624	65535	64648.65
834.637	754.3439	65535	64647.6
834.782	756.4247	65535	64644
834.9269	758.5048	65535	64648.65
835.0719	760.5843	65535	64647.6
835.2169	762.6631	65535	64649.8
835.3619	764.7413	65535	64648.8
835.5069	766.8188	65535	64648.15
835.6519	768.8956	65535	64645.65
835.7969	770.9718	65535	64647.75
835.9419	773.0473	65535	64648.25
836.0869	775.1221	65535	64647.2
836.232	777.1962	65535	64648.55
836.377	779.2697	65535	64648.25
836.522	781.3426	65535	64628.2
836.667	783.4147	65535	64646.05
836.8121	785.4862	65535	64646.2
836.9571	787.557	65535	64647.3
837.1021	789.6271	65535	64645.9
837.2472	791.6966	65535	64647.85
837.3922	793.7654	65535	64645.45
837.5373	795.8335	65535	64645.55
837.6823	797.901	65535	64649.45
837.8274	799.9678	65535	64645
837.9724	802.0339	65535	64648.85
838.1175	804.0993	65535	64637.25
838.2626	806.1641	65535	64646.15
838.4076	808.2282	65535	64645.35
838.5527	810.2916	65535	64645.15
838.6978	812.3544	65535	64649.7
838.8428	814.4164	65535	64645.8
838.9879	816.4778	65535	64644.85
839.133	818.5385	65535	64646.05
839.2781	820.5986	65535	64647.8
839.4232	822.658	65535	64642.95
839.5682	824.7166	65535	64648.65
839.7133	826.7747	65535	64644.15
839.8584	828.832	65535	64643.5
840.0035	830.8886	65535	64643.35
840.1486	832.9446	65535	64644.2
840.2937	834.9999	65535	64644.4
840.4388	837.0545	65535	64644.35
840.5839	839.1085	65535	64643.35
840.729	841.1618	65535	64640.9
840.8741	843.2143	65535	64644.5
841.0192	845.2662	65535	64645.2
841.1643	847.3175	65535	64644.7
841.3095	849.368	65535	64643.35
841.4546	851.4179	65535	64644.1
841.5997	853.467	65535	64644.65
841.7448	855.5155	65535	64645.6
841.8899	857.5633	65535	64642.8
842.0351	859.6105	65535	64646.65
842.1802	861.6569	65535	64640.85
842.3253	863.7027	65535	64642
842.4704	865.7478	65535	64642.05
842.6156	867.7922	65535	64641.4
842.7607	869.8359	65535	64643.25
842.9058	871.8789	65535	64643.55
843.0509	873.9212	65535	64612.1
843.1961	875.9629	65535	64640.65
843.3412	878.0039	65535	64640.3
843.4863	880.0441	65535	64642.35
843.6315	882.0837	65535	64642.75
843.7766	884.1226	65535	64640.45
843.9218	886.1609	65535	64643.65
844.0669	888.1984	65535	64643.1
844.212	890.2352	65535	64641.9
844.3572	892.2714	65535	64637.8
844.5023	894.3069	65535	64642
844.6475	896.3416	65535	64639.5
844.7926	898.3757	65535	64638
844.9377	900.4091	65535	64641.55
845.0829	902.4418	65535	64638
845.228	904.4739	65535	64637.9
845.3732	906.5052	65535	64640
845.5183	908.5358	65535	64641.8
845.6635	910.5658	65535	64636.25
845.8086	912.595	65535	64640.35
845.9538	914.6236	65535	64641.2
846.0989	916.6515	65535	64640.8
846.2441	918.6786	65535	64639.6
846.3892	920.7051	65535	64638.65
846.5344	922.7309	65535	64642.2
846.6795	924.756	65535	64638.35
846.8246	926.7804	65535	64637.8
846.9698	928.8041	65535	64635.05
847.1149	930.8272	65535	64637.25
847.2601	932.8495	65535	64638.7
847.4052	934.8711	65535	64639.3
847.5504	936.892	65535	64638.8
847.6955	938.9123	65535	64638.95
847.8407	940.9318	65535	64641
847.9858	942.9506	65535	64639.75
848.131	944.9688	65535	64638.95
848.2761	946.9862	65535	64639.8
848.4213	949.003	65535	64637.85
848.5664	951.019	65535	64639.05
848.7115	953.0344	65535	64640.4
848.8567	955.0491	65535	64638.85
849.0018	957.063	65535	64640.85
849.147	959.0763	65535	64638.9
849.2921	961.0888	65535	64637.8
849.4373	963.1007	65535	64641.5
849.5824	965.1119	65535	64637.6
849.7275	967.1223	65535	64638.4
849.8727	969.1321	65535	64640.2
850.0178	971.1412	65535	64639
850.1629	973.1495	65535	64638.65
850.3081	975.1572	65535	64603.6
850.4532	977.1641	65535	64638.8
850.5983	979.1704	65535	64636.05
850.7435	981.1759	65535	64638.5
850.8886	983.1808	65535	64636.25
851.0337	985.1849	65535	64627.8
851.1788	987.1884	65535	64634.65
851.324	989.1911	65535	64633.2
851.4691	991.1932	65535	64637.4
851.6142	993.1945	65535	64639.9
851.7593	995.1951	65535	64636.8
851.9045	997.1951	65535	64632.65
852.0496	999.1943	65535	64638.9
852.1947	1001.1928	65535	64636
852.3398	1003.1906	65535	64638.55
852.4849	1005.1877	65535	64636.45
852.63	1007.1841	65535	64634.6
852.7751	1009.1798	65535	64636.75
852.9202	1011.1748	65535	64636.7
853.0653	1013.1691	65535	64637.3
853.2104	1015.1627	65535	64638.4
853.3555	1017.1556	65535	64637.8
853.5006	1019.1477	65535	64637.15
853.6457	1021.1392	65535	64640.8
853.7908	1023.1299	65535	64638.6
853.9359	1025.12	65535	64635.25
854.081	1027.1093	65535	64642.6
854.2261	1029.0979	65535	64643.4
854.3712	1031.0859	65535	64640.9
854.5163	1033.0731	65535	64640.5
854.6613	1035.0596	65535	64640.4
854.8064	1037.0454	65535	64636.8
854.9515	1039.0304	65535	64637.65
855.0965	1041.0148	65535	64637.75
855.2416	1042.9985	65535	64638.45
855.3867	1044.9814	65535	64638.5
855.5317	1046.9636	65535	64637.15
855.6768	1048.9452	65535	64636.05
855.8219	1050.926	65535	64638.85
855.9669	1052.9061	65535	64638.7
856.112	1054.8855	65535	64637.25
856.257	1056.8642	65535	64637.8
856.4021	1058.8421	65535	64634.3
856.5471	1060.8194	65535	64636.9
856.6921	1062.7959	65535	64640.2
856.8372	1064.7717	65535	64637.3
856.9822	1066.7469	65535	64635.4
857.1272	1068.7213	65535	64634.9
857.2723	1070.695	65535	64638.35
857.4173	1072.6679	65535	64637.3
857.5623	1074.6402	65535	64638.5
857.7073	1076.6117	65535	64630.45
857.8523	1078.5826	65535	64637.45
857.9973	1080.5527	65535	64633.55
858.1423	1082.5221	65535	64637.45
858.2873	1084.4908	65535	64637.6
858.4323	1086.4587	65535	64637.35
858.5773	1088.426	65535	64633.7
858.7223	1090.3925	65535	64632.4
858.8673	1092.3584	65535	64637.2
859.0123	1094.3235	65535	64636.05
859.1573	1096.2879	65535	64634.3
859.3022	1098.2515	65535	64638.4
859.4472	1100.2145	65535	64638.45
859.5922	1102.1767	65535	64635.6
859.7371	1104.1382	65535	64636.55
859.8821	1106.099	65535	64635.65
860.027	1108.0591	65535	64637.8
860.172	1110.0185	65535	64634.85
860.3169	1111.9771	65535	64635.6
860.4619	1113.9351	65535	64635.8
860.6068	1115.8923	65535	64636.45
860.7517	1117.8488	65535	64635.5
860.8967	1119.8045	65535	64638.2
861.0416	1121.7596	65535	64637.55
861.1865	1123.7139	65535	64638.95
861.3314	1125.6675	65535	64638.5
861.4763	1127.6204	65535	64636.6
861.6212	1129.5726	65535	64633.6
861.7661	1131.524	65535	64636.55
861.911	1133.4748	65535	64635.75
862.0559	1135.4248	65535	64636.2
862.2008	1137.3741	65535	64637.45
862.3457	1139.3226	65535	64635.45
862.4905	1141.2705	65535	64637.9
862.6354	1143.2176	65535	64630.5
862.7803	1145.164	65535	64634
862.9251	1147.1097	65535	64636.8
863.07	1149.0546	65535	64637.4
863.2148	1150.9989	65535	64636.85
863.3597	1152.9424	65535	64636.95
863.5045	1154.8852	65535	64635.15
863.6493	1156.8272	65535	64638.45
863.7942	1158.7686	65535	64629.55
863.939	1160.7092	65535	64635.95
864.0838	1162.6491	65535	64634.85
864.2286	1164.5883	65535	64637.85
864.3734	1166.5267	65535	64635.8
864.5182	1168.4644	65535	64636.3
864.663	1170.4014	65535	64630.95
864.8078	1172.3377	65535	64637.2
864.9526	1174.2732	65535	64637.35
865.0974	1176.2081	65535	64638.55
865.2421	1178.1421	65535	64631.5
865.3869	1180.0755	65535	64635.7
865.5317	1182.0082	65535	64637.9
865.6764	1183.9401	65535	64635.1
865.8212	1185.8713	65535	64638.25
865.9659	1187.8017	65535	64638.45
866.1106	1189.7315	65535	64639.1
866.2554	1191.6605	65535	64608.8
866.4001	1193.5888	65535	64637.95
866.5448	1195.5163	65535	64636.5
866.6895	1197.4432	65535	64634.4
866.8342	1199.3693	65535	64636.05
866.9789	1201.2947	65535	64634.8
867.1236	1203.2193	65535	64636.45
867.2683	1205.1432	65535	64637
867.413	1207.0664	65535	64634.85
867.5576	1208.9889	65535	64635.6
867.7023	1210.9106	65535	64637.15
867.847	1212.8316	65535	64637.75
867.9916	1214.7519	65535	64626.3
868.1363	1216.6715	65535	64636.9
868.2809	1218.5903	65535	64636.9
868.4255	1220.5084	65535	64636.4
868.5701	1222.4257	65535	64636.45
868.7148	1224.3424	65535	64639.35
868.8594	1226.2583	65535	64630.95
869.004	1228.1735	65535	64634.85
869.1486	1230.0879	65535	64634.85
869.2932	1232.0016	65535	64636.4
869.4377	1233.9146	65535	64638.55
869.5823	1235.8269	65535	64640.25
869.7269	1237.7384	65535	64636.15
869.8715	1239.6492	65535	64637.15
870.016	1241.5592	65535	64633.6
870.1606	1243.4686	65535	64634.7
870.3051	1245.3772	65535	64636.4
870.4496	1247.285	65535	64635.6
870.5941	1249.1922	65535	64635.9
870.7387	1251.0986	65535	64640
870.8832	1253.0042	65535	64635.1
871.0277	1254.9092	65535	64639.25
871.1722	1256.8134	65535	64637.4
871.3167	1258.7169	65535	64635.5
871.4611	1260.6196	65535	64638.2
871.6056	1262.5216	65535	64632.75
871.7501	1264.4229	65535	64636.1
871.8945	1266.3234	65535	64635.3
872.039	1268.2232	65535	64635.1
872.1834	1270.1223	65535	64634.55
872.3278	1272.0207	65535	64636.1
872.4723	1273.9183	65535	64632.85
872.6167	1275.8151	65535	64636.7
872.7611	1277.7113	65535	64634.1
872.9055	1279.6067	65535	64637.65
873.0499	1281.5014	65535	64635.5
873.1943	1283.3953	65535	64635.1
873.3386	1285.2885	65535	64635.45
873.483	1287.181	65535	64632.95
873.6274	1289.0727	65535	64638.05
873.7717	1290.9637	65535	64635.95
873.9161	1292.854	65535	64637.3
874.0604	1294.7435	65535	64637.7
874.2047	1296.6323	65535	64634.55
874.349	1298.5204	65535	64632.85
874.4933	1300.4077	65535	64633.8
874.6376	1302.2943	65535	64635.75
874.7819	1304.1802	65535	64637.1
874.9262	1306.0653	65535	64634.65
875.0705	1307.9497	65535	64638.5
875.2147	1309.8333	65535	64636.45
875.359	1311.7162	65535	64637.45
875.5032	1313.5984	65535	64635.35
875.6475	1315.4798	65535	64625.15
875.7917	1317.3605	65535	64620.3
875.9359	1319.2405	65535	64633.1
876.0801	1321.1197	65535	64635.45
876.2243	1322.9982	65535	64632.55
876.3685	1324.876	65535	64636.8
876.5127	1326.753	65535	64636.25
876.6569	1328.6293	65535	64634.95
876.801	1330.5048	65535	64634
876.9452	1332.3796	65535	64637.3
877.0893	1334.2537	65535	64612.6
877.2335	1336.127	65535	64636.9
877.3776	1337.9996	65535	64635.75
877.5217	1339.8714	65535	64635.8
877.6658	1341.7426	65535	64592.85
877.8099	1343.6129	65535	64635.7
877.954	1345.4826	65535	64636.05
878.0981	1347.3515	65535	64634.55
878.2422	1349.2196	65535	64634.4
878.3862	1351.087	65535	64635.95
878.5303	1352.9537	65535	64636.05
878.6743	1354.8197	65535	64637.7
878.8184	1356.6849	65535	64635.35
878.9624	1358.5493	65535	64637.4
879.1064	1360.4131	65535	64637.75
879.2504	1362.276	65535	64637.95
879.3944	1364.1383	65535	64634.6
879.5384	1365.9998	65535	64630.4
879.6823	1367.8606	65535	64634.2
879.8263	1369.7206	65535	64636.8
879.9702	1371.5799	65535	64635.05
880.1142	1373.4384	65535	64637.1
880.2581	1375.2962	65535	64635.1
880.402	1377.1533	65535	64636.45
880.5459	1379.0096	65535	64636.55
880.6898	1380.8652	65535	64636.35
880.8337	1382.7201	65535	64636.45
880.9776	1384.5742	65535	64635
881.1215	1386.4275	65535	64635.3
881.2653	1388.2802	65535	64637.65
881.4092	1390.132	65535	64636.55
881.553	1391.9832	65535	64636
881.6968	1393.8336	65535	64637.7
881.8406	1395.6832	65535	64632.95
881.9844	1397.5322	65535	64635.9
882.1282	1399.3803	65535	64629.85
882.272	1401.2278	65535	64634.25
882.4158	1403.0745	65535	64638.5
882.5595	1404.9204	65535	64637.95
882.7033	1406.7656	65535	64635.5
882.847	1408.6101	65535	64636.15
882.9908	1410.4538	65535	64634.35
883.1345	1412.2968	65535	64634.5
883.2782	1414.139	65535	64636.4
883.4219	1415.9805	65535	64635.8
883.5656	1417.8213	65535	64630.9
883.7092	1419.6613	65535	64637.1
883.8529	1421.5006	65535	64635.45
883.9965	1423.3391	65535	64634.9
884.1402	1425.1769	65535	64636.75
884.2838	1427.0139	65535	64635.6
884.4274	1428.8502	65535	64636.25
884.571	1430.6858	65535	64636.55
884.7146	1432.5206	65535	64635.5
884.8582	1434.3547	65535	64634.4
885.0018	1436.188	65535	64633.8
885.1453	1438.0206	65535	64636.05
885.2889	1439.8524	65535	64633.9
885.4324	1441.6835	65535	64634.95
885.5759	1443.5139	65535	64634.3
885.7194	1445.3435	65535	64637.65
885.8629	1447.1724	65535	64637.6
886.0064	1449.0005	65535	64636.55
886.1499	1450.8279	65535	64634.25
886.2933	1452.6545	65535	64637.2
886.4368	1454.4804	65535	64638.4
886.5802	1456.3056	65535	64627.9
886.7237	1458.13	65535	64637.05
886.8671	1459.9536	65535	64634.15
887.0105	1461.7766	65535	64638.8
887.1539	1463.5987	65535	64637.15
887.2972	1465.4202	65535	64635.7
887.4406	1467.2409	65535	64637.45
887.584	1469.0608	65535	64637.55
887.7273	1470.88	65535	64635.35
887.8706	1472.6984	65535	64636.9
888.0139	1474.5161	65535	64631.6
888.1572	1476.3331	65535	64637
888.3005	1478.1493	65535	64637.15
888.4438	1479.9648	65535	64637.25
888.5871	1481.7795	65535	64637.05
888.7303	1483.5935	65535	64637.1
888.8736	1485.4067	65535	64637.9
889.0168	1487.2192	65535	64637.9
889.16	1489.031	65535	64634.95
889.3032	1490.842	65535	64636.45
889.4464	1492.6522	65535	64637.55
889.5896	1494.4618	65535	64634.45
889.7327	1496.2705	65535	64636.25
889.8759	1498.0785	65535	64636.55
890.019	1499.8858	65535	64636.2
890.1622	1501.6924	65535	64639.2
890.3053	1503.4981	65535	64635.95
890.4484	1505.3032	65535	64635.8
890.5914	1507.1075	65535	64636.25
890.7345	1508.911	65535	64638.85
890.8776	1510.7138	65535	64637.75
891.0206	1512.5159	65535	64635.85
891.1637	1514.3172	65488.85	64590.5
891.3067	1516.1178	65510.1	64612.25
891.4497	1517.9176	65531.95	64631.65
891.5927	1519.7166	65506.25	64610.25
891.7357	1521.515	65491.75	64587.3
891.8786	1523.3126	65374.1	64475.95
892.0216	1525.1094	65497.05	64596.75
892.1645	1526.9055	65442.65	64545.1
892.3074	1528.7008	65449.65	64554.4
892.4503	1530.4954	65228.6	64326
892.5932	1532.2893	65418.9	64523.7
892.7361	1534.0824	65179.1	64277.55
892.879	1535.8747	65005.95	64107.75
893.0218	1537.6663	65433.95	64537.45
893.1647	1539.4572	64525.85	63626.15
893.3075	1541.2473	64969.4	64070.75
893.4503	1543.0367	64865.15	63966.95
893.5931	1544.8253	64734.6	63832.45
893.7359	1546.6132	64849.1	63949.8
893.8787	1548.4003	64494.85	63587.9
894.0214	1550.1867	64371.5	63464.75
894.1642	1551.9723	64203	63299.8
894.3069	1553.7572	64260.05	63363.25
894.4496	1555.5414	64548.65	63651.05
894.5923	1557.3247	62966.25	62068.85
894.735	1559.1074	64286.3	63393.65
894.8777	1560.8893	63683.3	62788.4
895.0204	1562.6705	63940.55	63043.2
895.163	1564.4509	63007.3	62109.15
895.3056	1566.2305	63483.6	62586.65
895.4482	1568.0094	64046.75	63152.1
895.5908	1569.7876	63542.95	62647.25
895.7334	1571.565	62910.85	62014.85
895.876	1573.3417	63308.9	62414.15
896.0186	1575.1176	63069	62173.9
896.1611	1576.8928	62754.7	61859.25
896.3036	1578.6672	62117.2	61222.2
896.4461	1580.4409	62460.8	61568.85
896.5886	1582.2138	61662.15	60765
896.7311	1583.986	61824	60926.45
896.8736	1585.7575	61086.7	60188.65
897.0161	1587.5282	61115	60221.15
897.1585	1589.2981	61242.05	60347.7
897.3009	1591.0673	60526.3	59630.1
897.4433	1592.8358	60071.15	59178.2
897.5857	1594.6035	60500.85	59604.15
897.7281	1596.3704	60523.1	59625.85
897.8705	1598.1366	59631.95	58736.95
898.0128	1599.9021	59136.25	58242.6
898.1551	1601.6668	59768	58871.4
898.2975	1603.4308	59394.1	58498.9
898.4398	1605.194	59613	58713.7
898.5821	1606.9564	58487.2	57593.95
898.7243	1608.7182	59126.2	58231
898.8666	1610.4791	58628	57733.9
899.0088	1612.2394	58998.25	58104.75
899.1511	1613.9988	58592.5	57695.7
899.2933	1615.7576	59127.45	58234.55
899.4355	1617.5156	59114.25	58212.8
899.5776	1619.2728	59825.15	58929.8
899.7198	1621.0293	58799.55	57903.05
899.862	1622.785	58777.2	57878
900.0041	1624.54	59149.85	58253.05
900.1462	1626.2942	58581.3	57684.5
900.2883	1628.0477	57493.65	56596.4
900.4304	1629.8005	56985.35	56085.15
900.5725	1631.5525	57380.7	56485.95
900.7145	1633.3037	56374.85	55480.65
900.8566	1635.0542	56311.85	55419.05
900.9986	1636.804	56375.45	55479.75
901.1406	1638.553	55794.9	54781.5
901.2826	1640.3013	55802.5	54906
901.4245	1642.0488	55237.9	54343.4
901.5665	1643.7955	55435	54542.1
901.7085	1645.5416	55122.25	54228.5
901.8504	1647.2868	54815.9	53920.75
901.9923	1649.0313	55188.9	54296.05
902.1342	1650.7751	54981.85	54084.3
902.2761	1652.5181	54704.2	53810.4
902.4179	1654.2604	54786.8	53890.8
902.5598	1656.0019	55207.45	54311.9
902.7016	1657.7427	55067.65	54173.8
902.8434	1659.4828	55532.1	54640
902.9852	1661.222	55457.15	54561.95
903.127	1662.9606	55450.45	54556.8
903.2687	1664.6984	55040.55	54144.05
903.4105	1666.4354	54888.6	53993.1
903.5522	1668.1717	53979.95	53086.5
903.6939	1669.9072	53298.65	52404.55
903.8356	1671.642	52903.35	52005.65
903.9773	1673.3761	52547.75	51655.3
904.119	1675.1094	52207.75	51314.95
904.2606	1676.8419	51795.85	50903.85
904.4022	1678.5737	51475.2	50579.2
904.5439	1680.3048	51247.1	50352.35
904.6855	1682.0351	50888.05	49993.4
904.827	1683.7646	50580.1	49682.1
904.9686	1685.4934	50509	49615.95
905.1101	1687.2215	50023	49126.7
905.2517	1688.9488	50023.9	49129.4
905.3932	1690.6754	49495.1	48602.25
905.5347	1692.4012	49519.85	48625.5
905.6761	1694.1263	49339.1	48444.7
905.8176	1695.8506	49137.5	48242.7
905.9591	1697.5742	48900.6	48008.3
906.1005	1699.297	48719.8	47828.6
906.2419	1701.0191	48442.1	47549.35
906.3833	1702.7404	48217.2	47323.75
906.5246	1704.461	47977.65	47082.75
906.666	1706.1808	47824.75	46930.65
906.8073	1707.8999	47745.2	46852
906.9487	1709.6182	47469.8	46575.95
907.09	1711.3358	47378.3	46485.35
907.2313	1713.0527	47140.55	46250.05
907.3725	1714.7688	46990.15	46091.75
907.5138	1716.4841	46689	45792.15
907.655	1718.1987	46706.75	45808.15
907.7962	1719.9126	46513.3	45622.8
907.9374	1721.6257	46343.95	45446.95
908.0786	1723.338	46242.55	45347.95
908.2198	1725.0496	45858.15	44962.9
908.3609	1726.7605	45817.5	44923.2
908.502	1728.4706	45643.6	44747.7
908.6431	1730.18	45430.05	44534.85
908.7842	1731.8886	45256	44361.9
908.9253	1733.5964	45152.65	44240.2
909.0664	1735.3036	45043	44147.75
909.2074	1737.0099	44901.6	44009.1
909.3484	1738.7156	44767.25	43874.15
909.4894	1740.4204	44529.7	43634.55
909.6304	1742.1246	44416.15	43522.2
909.7714	1743.8279	44245.15	43352.1
909.9123	1745.5306	44252.45	43357.85
910.0532	1747.2325	44044.9	43153.4
910.1941	1748.9336	43872.3	42978.8
910.335	1750.634	43630.75	42737.05
910.4759	1752.3336	43568.75	42675.75
910.6168	1754.0325	43442.85	42550.95
910.7576	1755.7307	43318.25	42426.1
910.8984	1757.4281	43287.15	42393.45
911.0392	1759.1247	43171.05	42268.35
911.18	1760.8206	43027.9	42129.9
911.3208	1762.5158	42977.95	42080.1
911.4615	1764.2102	42760.85	41869.5
911.6022	1765.9039	42562.55	41669.55
911.7429	1767.5968	42486.55	41594.55
911.8836	1769.289	42371.75	41478.4
912.0243	1770.9804	42242.9	41348.4
912.1649	1772.6711	42200.7	41307.75
912.3056	1774.361	42029.95	41135.3
912.4462	1776.0502	41932.55	41039.55
912.5868	1777.7386	41855.25	40960.3
912.7274	1779.4263	41691.85	40799
912.8679	1781.1132	41601.7	40710.1
913.0084	1782.7994	41395.35	40501.7
913.149	1784.4849	41363.55	40472.6
913.2895	1786.1696	41239.15	40341.3
913.4299	1787.8535	41050.6	40159.25
913.5704	1789.5367	40939.05	40047.4
913.7108	1791.2192	40907.05	40015.55
913.8513	1792.9009	40628.15	39704.05
913.9917	1794.5818	40553.5	39661
914.132	1796.2621	40465.65	39574.55
914.2724	1797.9415	40355.35	39461.95
914.4128	1799.6202	40190	39298.75
914.5531	1801.2982	40103.6	39211.75
914.6934	1802.9755	39986.1	39092.5
914.8337	1804.6519	39917.4	39024.85
914.9739	1806.3277	39665.3	38772.65
915.1142	1808.0027	39532.25	38640.55
915.2544	1809.6769	39534.3	38642.95
915.3946	1811.3504	39344.45	38452.1
915.5348	1813.0231	39314.1	38419.15
915.675	1814.6951	39216.65	38324.95
915.8151	1816.3664	39158.6	38263.45
915.9553	1818.0369	39027.1	38135.2
916.0954	1819.7067	38878.1	37986.05
916.2355	1821.3757	38764.4	37869.35
916.3755	1823.044	38720.9	37827.4
916.5156	1824.7115	38626.3	37733.75
916.6556	1826.3783	38447.8	37554.1
916.7956	1828.0443	38272.5	37381.15
916.9356	1829.7096	38189.65	37295.75
917.0756	1831.3741	38186.1	37290.55
917.2155	1833.0379	37992.2	37099.8
917.3555	1834.701	37808.45	36913.8
917.4954	1836.3633	37802.65	36908.15
917.6353	1838.0248	37713.2	36819.1
917.7751	1839.6856	37575.65	36682.75
917.915	1841.3457	37561.1	36669.65
918.0548	1843.005	37387.2	36494.4
918.1946	1844.6636	37368.65	36478.25
918.3344	1846.3214	37151.8	36259.15
918.4742	1847.9785	37149.7	36257.3
918.6139	1849.6349	37014.15	36119.05
918.7537	1851.2904	36944.05	36041.85
918.8934	1852.9453	36811.5	35919.4
919.0331	1854.5994	36664.05	35768.25
919.1727	1856.2528	36688.95	35792.5
919.3124	1857.9054	36543.85	35650.25
919.452	1859.5572	36461.15	35569.95
919.5916	1861.2083	36371.1	35477.6
919.7312	1862.8587	36402	35510.9
919.8708	1864.5084	36259	35365.6
920.0103	1866.1572	36125.5	35233.45
920.1498	1867.8054	35950.45	35057.45
920.2893	1869.4528	35927.6	35033.9
920.4288	1871.0994	35742.6	34850.8
920.5683	1872.7453	35712.8	34820.35
920.7077	1874.3905	35576.8	34678.6
920.8471	1876.0349	35468.9	34575.4
920.9865	1877.6786	35426.35	34534.15
921.1259	1879.3215	35402.95	34511.1
921.2653	1880.9637	35293.25	34397.45
921.4046	1882.6051	35177.3	34285.6
921.5439	1884.2458	35101.8	34207.35
921.6832	1885.8858	34907.2	34014.5
921.8225	1887.525	34883.5	33988.3
921.9617	1889.1634	34708.1	33816.4
922.101	1890.8011	34569.2	33674.8
922.2402	1892.4381	34496	33603.3
922.3794	1894.0743	34460.6	33569.8
922.5185	1895.7098	34354.85	33462.25
922.6577	1897.3446	34266.6	33373.85
922.7968	1898.9786	34149.95	33253.4
922.9359	1900.6118	34053.15	33161.35
923.075	1902.2443	33845.85	32950
923.214	1903.8761	33741.95	32850.8
923.3531	1905.5071	33560.75	32666.25
923.4921	1907.1374	33469	32577.15
923.6311	1908.7669	33386.9	32494.5
923.77	1910.3957	33356.25	32463.45
923.909	1912.0237	33110.05	32217.65
924.0479	1913.651	33062.7	32170
924.1868	1915.2776	32980.95	32089.05
924.3257	1916.9034	32824.85	31933.45
924.4646	1918.5285	32677.7	31785.5
924.6034	1920.1528	32490.5	31597.2
924.7422	1921.7764	32452.45	31561.7
924.881	1923.3992	32327.1	31433.6
925.0198	1925.0213	32091.65	31200.05
925.1586	1926.6427	31912.35	31021.1
925.2973	1928.2633	31964.95	30965.65
925.436	1929.8832	31787.05	30893.75
925.5747	1931.5023	31666.65	30774.2
925.7134	1933.1207	31580.55	30690
925.852	1934.7383	31465.6	30572.25
925.9906	1936.3552	31328.1	30434.75
926.1292	1937.9714	31256.4	30362.4
926.2678	1939.5868	31113.75	30219.9
926.4064	1941.2015	30943.35	30051.75
926.5449	1942.8154	30836.4	29944.8
926.6834	1944.4286	30678	29785.2
926.8219	1946.041	30563.7	29654.1
926.9604	1947.6528	30385.65	29488.35
927.0988	1949.2637	30337.55	29446.35
927.2372	1950.8739	30199.55	29308.65
927.3756	1952.4834	30121.65	29228.15
927.514	1954.0921	30048.45	29155.55
927.6523	1955.7001	29981.35	29086.35
927.7907	1957.3074	29862.65	28971.4
927.929	1958.9139	29707.3	28814.4
928.0673	1960.5197	29587.4	28694
928.2055	1962.1247	29476.25	28584.4
928.3438	1963.729	29331.55	28439.9
928.482	1965.3325	29173.3	28259.25
928.6202	1966.9353	29106.45	28216.1
928.7584	1968.5374	29002.8	28110.7
928.8965	1970.1387	28891.05	27999.35
929.0346	1971.7393	28797.55	27908.15
929.1727	1973.3392	28674.9	27783.05
929.3108	1974.9383	28593.5	27703.35
929.4489	1976.5366	28442.4	27551.8
929.5869	1978.1342	28404.95	27514.05
929.7249	1979.7311	28271.7	27379.6
929.8629	1981.3273	28196.5	27306.3
930.0009	1982.9227	28109.65	27216.05
930.1388	1984.5173	28025.8	27132.65
930.2767	1986.1112	27868.45	26975.3
930.4146	1987.7044	27808.45	26918.4
930.5525	1989.2968	27678	26785.25
930.6904	1990.8885	27631.25	26736.35
930.8282	1992.4795	27555.25	26661.5
930.966	1994.0697	27407.85	26515.95
931.1038	1995.6592	27330.3	26439.8
931.2415	1997.2479	27249.35	26356.6
931.3793	1998.8359	27159.15	26267.65
931.517	2000.4232	27005.85	26115.05
931.6547	2002.0097	26924	26032.8
931.7923	2003.5955	26784	25891.05
931.93	2005.1805	26754	25860
932.0676	2006.7648	26696.6	25805.15
932.2052	2008.3484	26564.75	25674.25
932.3427	2009.9312	26624.65	25731.05
932.4803	2011.5133	26455.4	25564.55
932.6178	2013.0946	26397.7	25506
932.7553	2014.6752	26295.2	25404.85
932.8928	2016.2551	26236.35	25346.85
933.0302	2017.8342	26101.55	25210.95
933.1676	2019.4126	26005.1	25115.2
933.305	2020.9902	25905.9	25015.3
933.4424	2022.5672	25813.65	24921.9
933.5798	2024.1433	25740.45	24844.9
933.7171	2025.7188	25674.6	24785.1
933.8544	2027.2935	25549.8	24658.45
933.9917	2028.8674	25465.4	24573.95
934.129	2030.4406	25401.65	24512.3
934.2662	2032.0131	25273.6	24384.15
934.4034	2033.5849	25144.75	24248
934.5406	2035.1559	25128.9	24236.25
934.6778	2036.7261	25072.3	24179.75
934.8149	2038.2957	25010.7	24119.65
934.952	2039.8645	24923.75	24034.85
935.0891	2041.4325	24879.65	23983.9
935.2262	2042.9998	24769	23878.95
935.3632	2044.5664	24739.5	23847
935.5002	2046.1323	24656.4	23765.05
935.6372	2047.6974	24575.05	23684.7
935.7742	2049.2617	24482.95	23593.35
935.9111	2050.8254	24459.4	23546.4
936.048	2052.3883	24409.45	23515.25
936.1849	2053.9504	24286.15	23393.5
936.3218	2055.5118	24164.8	23271.9
936.4586	2057.0725	24095.05	23199.05
936.5955	2058.6325	24006.35	23113.8
936.7323	2060.1917	23926.75	23036
936.869	2061.7502	23923.8	23029.8
937.0058	2063.3079	23798	22908
937.1425	2064.8649	23725.7	22830.35
937.2792	2066.4212	23636.75	22743.4
937.4159	2067.9767	23546.2	22652.65
937.5525	2069.5315	23408.65	22518.35
937.6891	2071.0856	23321.1	22429.9
937.8257	2072.6389	23227.15	22335.5
937.9623	2074.1915	23108.65	22217.7
938.0989	2075.7433	23004.45	22112.6
938.2354	2077.2945	22966.5	22075.4
938.3719	2078.8448	22897.25	22004.75
938.5084	2080.3945	22776.3	21884.6
938.6448	2081.9434	22780.7	21889.7
938.7812	2083.4916	22687.05	21797.6
938.9176	2085.039	22583.9	21692.6
939.054	2086.5857	22531.8	21638.8
939.1903	2088.1317	22521.45	21629.45
939.3267	2089.677	22405.3	21513.35
939.463	2091.2215	22324.85	21434.85
939.5992	2092.7652	22298.95	21404.4
939.7355	2094.3083	22227.6	21334.5
939.8717	2095.8506	22139.25	21248.8
940.0079	2097.3921	22148.65	21258.3
940.1441	2098.933	22045.05	21153.8
940.2802	2100.4731	21954.35	21064.65
940.4163	2102.0124	21960.45	21059.2
940.5524	2103.5511	21866.25	20976
940.6885	2105.089	21833.75	20941.95
940.8245	2106.6261	21767.3	20876.45
940.9606	2108.1626	21687.6	20794.8
941.0965	2109.6983	21627.8	20706.85
941.2325	2111.2332	21557.7	20666.55
941.3684	2112.7675	21467.55	20575.5
941.5044	2114.301	21385.6	20492.45
941.6403	2115.8337	21347.9	20457.55
941.7761	2117.3657	21301.6	20410.7
941.912	2118.897	21274.7	20382.25
942.0478	2120.4276	21169.9	20271.75
942.1835	2121.9575	21055.05	20163.25
942.3193	2123.4866	21087.5	20179.85
942.455	2125.0149	20991.1	20094.5
942.5907	2126.5426	20902.95	20011.45
942.7264	2128.0695	20852.85	19957.8
942.8621	2129.5956	20791.4	19900.85
942.9977	2131.1211	20706.75	19812
943.1333	2132.6458	20653.8	19761.85
943.2689	2134.1698	20615.5	19722.9
943.4044	2135.693	20538.6	19645.35
943.54	2137.2155	20495.8	19600.5
943.6755	2138.7373	20417.35	19525.1
943.8109	2140.2584	20368.4	19474.15
943.9464	2141.7787	20283.6	19387.45
944.0818	2143.2983	20147.1	19256.7
944.2172	2144.8171	20071.55	19180.5
944.3526	2146.3353	20045.75	19153.9
944.4879	2147.8527	19958.55	19070.2
944.6232	2149.3693	19923.6	19030.9
944.7585	2150.8853	19826.75	18936
944.8938	2152.4005	19746	18852.7
945.029	2153.9149	19713.55	18819.8
945.1642	2155.4287	19644.45	18751.25
945.2994	2156.9417	19584.25	18691.7
945.4346	2158.454	19531.75	18638.65
945.5697	2159.9655	19485.15	18593.95
945.7048	2161.4764	19457.55	18566.45
945.8399	2162.9865	19375.4	18483.5
945.9749	2164.4958	19322.85	18429.35
946.1099	2166.0045	19243.2	18348.05
946.2449	2167.5124	19230.4	18338.65
946.3799	2169.0195	19140	18247.9
946.5148	2170.526	19105	18213.9
946.6498	2172.0317	19035.4	18142.4
946.7846	2173.5367	18962.85	18069.45
946.9195	2175.0409	18920.5	18028.95
947.0543	2176.5445	18863.05	17972.5
947.1891	2178.0473	18791.3	17898.85
947.3239	2179.5494	18730.95	17835.7
947.4587	2181.0507	18616.3	17723.6
947.5934	2182.5513	18605.15	17714.7
947.7281	2184.0512	18526.45	17635.45
947.8628	2185.5504	18485	17594.4
947.9974	2187.0488	18343	17449.85
948.132	2188.5465	18303.85	17412
948.2666	2190.0435	18280.55	17386.65
948.4012	2191.5397	18183.15	17289.45
948.5357	2193.0353	18142.15	17250.7
948.6702	2194.5301	18039.5	17146.5
948.8047	2196.0241	18005.85	17112.75
948.9392	2197.5175	17924.95	17034
949.0736	2199.0101	17851.35	16956.95
949.208	2200.502	17752.85	16862
949.3424	2201.9931	17680.1	16789.7
949.4767	2203.4835	17634.15	16741.9
949.611	2204.9733	17588.4	16690.1
949.7453	2206.4622	17551.4	16660.55
949.8796	2207.9505	17421.55	16527.25
950.0138	2209.438	17388.25	16497
950.148	2210.9248	17305.6	16413.3
950.2822	2212.4109	17262.15	16370.05
950.4164	2213.8962	17184.7	16289.65
950.5505	2215.3809	17164	16270.75
950.6846	2216.8648	17119	16226.55
950.8186	2218.3479	17064.1	16168.35
950.9527	2219.8304	16999.15	16104.95
951.0867	2221.3121	16926	16028.75
951.2207	2222.7931	16872.35	15979.2
951.3546	2224.2733	16808.25	15916.4
951.4886	2225.7529	16718.35	15823.55
951.6225	2227.2317	16662.1	15768.6
951.7563	2228.7098	16629.4	15736.35
951.8902	2230.1872	16533.8	15641.65
952.024	2231.6638	16528.4	15636.25
952.1578	2233.1397	16429.35	15531.85
952.2916	2234.6149	16412.1	15520.55
952.4253	2236.0894	16319.05	15427.2
952.559	2237.5632	16269.2	15367.05
952.6927	2239.0362	16173.85	15282.85
952.8263	2240.5085	16158.6	15264.65
952.9599	2241.9801	16106.25	15214.85
953.0935	2243.4509	16044.8	15152.4
953.2271	2244.921	15965.1	15072.05
953.3606	2246.3904	15939.45	15046.8
953.4941	2247.8591	15872.45	14980.35
953.6276	2249.3271	15832.15	14942.8
953.7611	2250.7943	15785.1	14892.9
953.8945	2252.2608	15703.8	14812.3
954.0279	2253.7266	15652.2	14759.75
954.1612	2255.1917	15616.45	14724.9
954.2946	2256.656	15570.15	14676.7
954.4279	2258.1197	15481.1	14588.9
954.5612	2259.5826	15457.3	14564.2
954.6944	2261.0447	15448.8	14555.25
954.8276	2262.5062	15379.55	14485.55
954.9608	2263.9669	15327.8	14433.45
955.094	2265.4269	15253.85	14362.05
955.2271	2266.8862	15217.15	14325.6
955.3602	2268.3448	15200.8	14308.65
955.4933	2269.8026	15156.3	14264.25
955.6264	2271.2598	15130.7	14239.55
955.7594	2272.7162	15069.35	14177.85
955.8924	2274.1719	15025	14132.9
956.0253	2275.6268	14947.6	14055.35
956.1583	2277.0811	14894.9	14002.1
956.2912	2278.5346	14852.85	13962
956.4241	2279.9874	14849.15	13957
956.5569	2281.4395	14821.7	13930.85
956.6897	2282.8908	14700.05	13803.15
956.8225	2284.3414	14717.4	13821.95
956.9553	2285.7914	14617.95	13726.55
957.088	2287.2406	14570.75	13674.9
957.2207	2288.689	14532.45	13641.2
957.3534	2290.1368	14457.15	13562.9
957.486	2291.5838	14434.95	13542.65
957.6186	2293.0302	14387.95	13492.75
957.7512	2294.4758	14314.9	13424.2
957.8838	2295.9206	14257.1	13362.65
958.0163	2297.3648	14225.9	13332.7
958.1488	2298.8082	14244.3	13353.75
958.2813	2300.251	14193.7	13301.95
958.4137	2301.693	14120.05	13226.15
958.5461	2303.1343	14126.7	13233.35
958.6785	2304.5748	14044.3	13153.25
958.8108	2306.0147	13986.9	13093.8
958.9432	2307.4538	13951.8	13057.9
959.0754	2308.8922	13904.8	13014.1
959.2077	2310.3299	13877.95	12985.6
959.3399	2311.7669	13814.75	12924.15
959.4721	2313.2031	13789.75	12897.75
959.6043	2314.6387	13701.4	12809.25
959.7365	2316.0735	13624.9	12733.5
959.8686	2317.5076	13618.25	12724.15
960.0006	2318.941	13577.9	12686.5
960.1327	2320.3737	13558.55	12664.8
960.2647	2321.8056	13504.25	12609.15
960.3967	2323.2369	13443.25	12549.75
960.5287	2324.6674	13413.85	12519.65
960.6606	2326.0972	13395.5	12502.5
960.7925	2327.5263	13296	12402.5
960.9244	2328.9547	13254.2	12363.7
961.0562	2330.3823	13247.5	12357.1
961.1881	2331.8092	13223.55	12330.4
961.3198	2333.2355	13185.15	12291.9
961.4516	2334.661	13126	12231.55
961.5833	2336.0858	13105.4	12210.5
961.715	2337.5098	13064.3	12174.7
961.8467	2338.9332	12990.4	12097.85
961.9783	2340.3558	12949.5	12055.2
962.1099	2341.7778	12921.4	12028.85
962.2415	2343.199	12877.35	11983.1
962.373	2344.6195	12804.1	11914.2
962.5045	2346.0393	12795.45	11904.5
962.636	2347.4583	12761.65	11868.95
962.7675	2348.8767	12693.65	11801.05
962.8989	2350.2943	12676.95	11783.9
963.0303	2351.7113	12641.5	11747.6
963.1617	2353.1275	12591.5	11699.55
963.293	2354.543	12559.55	11645
963.4243	2355.9578	12525.9	11633.85
963.5556	2357.3718	12418.15	11527.25
963.6868	2358.7852	12354.65	11458
963.818	2360.1978	12323.05	11430.55
963.9492	2361.6098	12319.45	11428.4
964.0803	2363.021	12269.1	11373.95
964.2114	2364.4315	12231.7	11339.2
964.3425	2365.8413	12177.9	11284.8
964.4736	2367.2504	12121.9	11230
964.6046	2368.6587	12063.65	11171.35
964.7356	2370.0664	11987.95	11097.1
964.8666	2371.4733	11971.45	11080.2
964.9975	2372.8795	11938.9	11047.2
965.1284	2374.285	11894.75	11002.8
965.2593	2375.6899	11808.75	10918.6
965.3901	2377.0939	11772.7	10881.3
965.5209	2378.4973	11724.6	10832.9
965.6517	2379.9	11693	10801.85
965.7825	2381.3019	11636.15	10743.95
965.9132	2382.7032	11608.5	10717.95
966.0439	2384.1037	11600.25	10709.7
966.1745	2385.5035	11523.6	10632.95
966.3051	2386.9027	11465.05	10573.5
966.4357	2388.3011	11470	10575.6
966.5663	2389.6987	11410.25	10518.15
966.6968	2391.0957	11391.4	10501.9
966.8273	2392.492	11312.9	10421.5
966.9578	2393.8876	11250.6	10360.55
967.0882	2395.2824	11187.25	10295.75
967.2186	2396.6765	11169.3	10279.4
967.349	2398.07	11107.25	10217.55
967.4793	2399.4627	11111	10218
967.6097	2400.8547	11067.3	10178.35
967.7399	2402.246	11019.25	10121.4
967.8702	2403.6366	10956.75	10064.5
968.0004	2405.0265	10897.05	10006.6
968.1306	2406.4156	10861.25	9967.05
968.2607	2407.8041	10806.25	9909.8
968.3909	2409.1918	10791.75	9897.15
968.521	2410.5789	10740.55	9848.6
968.651	2411.9652	10713.5	9820.3
968.781	2413.3508	10672.4	9783.15
968.911	2414.7358	10616.2	9725.15
969.041	2416.12	10576.35	9686.95
969.1709	2417.5035	10578.15	9689.25
969.3008	2418.8863	10512.95	9620.25
969.4307	2420.2684	10502.85	9611.7
969.5606	2421.6497	10426.8	9535.85
969.6904	2423.0304	10394.3	9504.55
969.8201	2424.4104	10366.75	9474.4
969.9499	2425.7896	10296.1	9399.55
970.0796	2427.1682	10292.4	9402.05
970.2093	2428.546	10255.05	9362.8
970.3389	2429.9232	10236.5	9343.9
970.4685	2431.2996	10171.25	9280.8
970.5981	2432.6753	10171.1	9280.1
970.7277	2434.0503	10138.3	9245.4
970.8572	2435.4246	10085.7	9195.5
970.9867	2436.7982	10072.35	9178.9
971.1161	2438.1711	10018.25	9127.15
971.2456	2439.5433	9980.5	9086.75
971.375	2440.9148	9935.9	9041.3
971.5043	2442.2856	9904.5	9012.6
971.6336	2443.6557	9872.35	8980.45
971.7629	2445.025	9833.35	8941.6
971.8922	2446.3937	9816.25	8925.55
972.0214	2447.7617	9780.55	8889.35
972.1506	2449.1289	9737.8	8849.6
972.2798	2450.4955	9712.65	8817.4
972.4089	2451.8613	9694.6	8803.55
972.538	2453.2265	9671.05	8777.3
972.6671	2454.5909	9646.35	8754.15
972.7961	2455.9546	9619.35	8728.15
972.9251	2457.3177	9570.05	8676.85
973.0541	2458.68	9546.35	8654.35
973.1831	2460.0416	9536.3	8644
973.312	2461.4025	9530.7	8636.15
973.4408	2462.7627	9503.1	8599.7
973.5697	2464.1222	9464.65	8574.5
973.6985	2465.4811	9425.6	8533.85
973.8273	2466.8392	9385.15	8492.35
973.956	2468.1966	9336.25	8442.7
974.0847	2469.5533	9356.65	8462.15
974.2134	2470.9093	9337.2	8444.95
974.3421	2472.2645	9274.55	8380.15
974.4707	2473.6191	9263.6	8372.7
974.5993	2474.973	9209.55	8318.65
974.7278	2476.3262	9181	8287.75
974.8563	2477.6787	9158.65	8267.2
974.9848	2479.0305	9105.75	8214.65
975.1132	2480.3816	9092.95	8201.15
975.2417	2481.7319	9069.25	8178.65
975.37	2483.0816	9023.55	8131.65
975.4984	2484.4306	8995.55	8103.15
975.6267	2485.7789	8948.15	8056.6
975.755	2487.1264	8894.95	8001
975.8833	2488.4733	8865.75	7975.6
976.0115	2489.8195	8863.7	7966.3
976.1397	2491.165	8801.35	7907.1
976.2678	2492.5097	8770.2	7875.6
976.3959	2493.8538	8740.65	7848.6
976.524	2495.1972	8689.8	7796.05
976.6521	2496.5398	8664.5	7772.3
976.7801	2497.8818	8636.85	7742.35
976.9081	2499.2231	8623.35	7732.3
977.036	2500.5637	8561.1	7667.4
977.164	2501.9035	8539.95	7646.95
977.2918	2503.2427	8497.65	7601.1
977.4197	2504.5812	8485.75	7594.1
977.5475	2505.919	8450.1	7555
977.6753	2507.256	8462.25	7570.1
977.8031	2508.5924	8415.1	7523.8
977.9308	2509.9281	8374.65	7477.9
978.0585	2511.2631	8337.75	7443.55
978.1861	2512.5974	8346.1	7456.05
978.3137	2513.9309	8309.25	7416.75
978.4413	2515.2638	8299.05	7373.35
978.5689	2516.596	8248.5	7356.55
978.6964	2517.9275	8203.4	7312.45
978.8239	2519.2583	8169.45	7277.4
978.9513	2520.5884	8123.05	7228.8
979.0788	2521.9178	8103.95	7210.5
979.2062	2523.2465	8068.75	7177.85
979.3335	2524.5745	8042.05	7149.2
979.4608	2525.9018	8036.65	7144
979.5881	2527.2284	8013	7123.1
979.7154	2528.5543	7995.4	7105.5
979.8426	2529.8796	7963.65	7072.9
979.9698	2531.2041	7953.45	7060.95
980.0969	2532.5279	7925.4	7035.2
980.224	2533.851	7922.75	7029.8
980.3511	2535.1735	7854.3	6962.6
980.4781	2536.4952	7839.3	6947.45
980.6052	2537.8163	7827.75	6934.7
980.7321	2539.1366	7820.95	6929.95
980.8591	2540.4562	7780.05	6887.3
980.986	2541.7752	7769.9	6878.8
981.1129	2543.0935	7755.05	6863.6
981.2397	2544.411	7735.4	6841.7
981.3665	2545.7279	7694.6	6802.05
981.4933	2547.0441	7709.05	6815.6
981.62	2548.3596	7677.65	6783
981.7467	2549.6744	7652.75	6760.8
981.8734	2550.9885	7638.6	6743.85
982.0001	2552.3019	7596.1	6704.85
982.1267	2553.6146	7581.6	6688.65
982.2532	2554.9266	7561.45	6668.45
982.3798	2556.2379	7530.95	6637.1
982.5063	2557.5485	7521.9	6631.55
982.6327	2558.8585	7518.75	6618.25
982.7592	2560.1677	7496.8	6599.6
982.8856	2561.4762	7470.55	6578.6
983.0119	2562.7841	7454.25	6558.8
983.1383	2564.0913	7442.2	6551.55
983.2646	2565.3977	7434.3	6543.25
983.3908	2566.7035	7412.75	6521.95
983.517	2568.0086	7385.4	6492.65
983.6432	2569.313	7366	6474.15
983.7694	2570.6167	7342.75	6445.7
983.8955	2571.9197	7311.2	6419.05
984.0216	2573.222	7321.1	6426.45
984.1476	2574.5236	7289.25	6397.45
984.2737	2575.8246	7270.1	6375.15
984.3996	2577.1248	7267.75	6372.3
984.5256	2578.4244	7241.8	6351.3
984.6515	2579.7232	7234.8	6343.4
984.7774	2581.0214	7217.05	6300.35
984.9032	2582.3189	7197	6305.55
985.029	2583.6157	7182.85	6286.8
985.1548	2584.9118	7169.15	6276.1
985.2806	2586.2072	7115.4	6223.6
985.4063	2587.5019	7121.25	6230
985.5319	2588.7959	7086.95	6193.35
985.6576	2590.0893	7093.45	6200.9
985.7832	2591.3819	7067.5	6176.9
985.9087	2592.6739	7029.55	6138.6
986.0343	2593.9652	7017.95	6124.75
986.1597	2595.2557	7012.2	6119.85
986.2852	2596.5456	6964.2	6069.6
986.4106	2597.8348	6955.65	6064.05
986.536	2599.1234	6926.25	6033.2
986.6614	2600.4112	6916.25	6024.2
986.7867	2601.6983	6902.45	6006.9
986.912	2602.9848	6872.95	5981.15
987.0372	2604.2705	6846.75	5945.8
987.1624	2605.5556	6800.3	5906.25
987.2876	2606.84	6797.95	5908.25
987.4128	2608.1237	6782.9	5890.95
987.5379	2609.4067	6745.35	5852.6
987.6629	2610.689	6755.6	5853.4
987.788	2611.9707	6728.9	5832.8
987.913	2613.2516	6678.85	5781.85
988.0379	2614.5319	6640.95	5750.2
988.1629	2615.8115	6621.05	5731.85
988.2878	2617.0903	6580.55	5686.3
988.4126	2618.3685	6580.55	5688.2
988.5375	2619.6461	6553.25	5660.95
988.6622	2620.9229	6542	5651.8
988.787	2622.199	6531.1	5640.2
988.9117	2623.4745	6487.3	5595.4
989.0364	2624.7493	6477.75	5587.6
989.161	2626.0234	6454.95	5563.3
989.2857	2627.2968	6435.3	5541.5
989.4102	2628.5695	6409.5	5516.45
989.5348	2629.8415	6373.6	5479.6
989.6593	2631.1128	6366.8	5473.85
989.7837	2632.3835	6306.6	5413.05
989.9082	2633.6535	6300.25	5408.8
990.0326	2634.9228	6298.4	5408
990.1569	2636.1914	6271.8	5381.55
990.2812	2637.4593	6252.7	5354.2
990.4055	2638.7265	6232.55	5338.85
990.5298	2639.9931	6205.6	5312.85
990.654	2641.259	6166.65	5272.7
990.7782	2642.5242	6170.95	5277.15
990.9023	2643.7887	6151.45	5257.8
991.0264	2645.0525	6123.15	5230.55
991.1505	2646.3156	6099.1	5207.65
991.2745	2647.5781	6088.95	5198.4
991.3985	2648.8398	6052.4	5161.05
991.5225	2650.1009	6049.3	5149.4
991.6464	2651.3613	6040.75	5147.5
991.7703	2652.6211	6008.7	5116.75
991.8942	2653.8801	6002.45	5112.15
992.018	2655.1385	5969.15	5074.6
992.1418	2656.3961	5978.55	5086.25
992.2655	2657.6531	5973.9	5081.1
992.3892	2658.9094	5953.4	5061
992.5129	2660.1651	5915.3	5024.35
992.6366	2661.42	5924.15	5031.95
992.7602	2662.6743	5901.3	5008.55
992.8837	2663.9279	5865.6	4974
993.0073	2665.1808	5854.8	4960.95
993.1307	2666.433	5831.15	4937.2
993.2542	2667.6846	5812.45	4921.95
993.3776	2668.9354	5821.65	4929.1
993.501	2670.1856	5805.4	4911.2
993.6244	2671.4351	5787.35	4894.7
993.7477	2672.6839	5784.35	4890.75
993.8709	2673.9321	5750.95	4860
993.9942	2675.1795	5744.05	4852.3
994.1174	2676.4263	5718.8	4826.3
994.2405	2677.6724	5696.6	4805.35
994.3637	2678.9179	5687.4	4794.3
994.4868	2680.1626	5691	4800.15
994.6098	2681.4067	5669.6	4776.15
994.7328	2682.6501	5651.65	4758.6
994.8558	2683.8928	5633	4740.45
994.9788	2685.1348	5595.35	4703.2
995.1017	2686.3761	5591.95	4701.15
995.2245	2687.6168	5575.5	4682.05
995.3474	2688.8568	5543	4653.2
995.4702	2690.0961	5524.8	4633.95
995.5929	2691.3348	5502.5	4611.2
995.7156	2692.5727	5493.9	4602.35
995.8383	2693.81	5489.35	4597.55
995.961	2695.0466	5449.7	4557.05
996.0836	2696.2826	5447.1	4552.7
996.2062	2697.5178	5440.9	4547.3
996.3287	2698.7524	5415.4	4522.5
996.4512	2699.9863	5399	4504.15
996.5737	2701.2195	5395	4503.55
996.6961	2702.452	5378.15	4484.9
996.8185	2703.6839	5359	4466
996.9408	2704.9151	5345.35	4455.8
997.0631	2706.1456	5326.45	4435.1
997.1854	2707.3755	5308.45	4416.05
997.3077	2708.6046	5318.85	4423.45
997.4299	2709.8331	5305	4411.6
997.552	2711.0609	5289.15	4397.2
997.6742	2712.2881	5277.4	4385.95
997.7963	2713.5145	5264.8	4371.7
997.9183	2714.7403	5259.4	4368.45
998.0403	2715.9654	5242.25	4349.45
998.1623	2717.1899	5254.8	4347.3
998.2842	2718.4136	5249.35	4357.15
998.4062	2719.6367	5233.2	4341.85
998.528	2720.8591	5247.25	4348.7
998.6498	2722.0809	5225.05	4332.6
998.7716	2723.3019	5233.6	4340.35
998.8934	2724.5223	5212.95	4317.6
999.0151	2725.7421	5193.45	4299.3
999.1368	2726.9611	5179.55	4284.45
999.2584	2728.1795	5171.6	4274.1
999.38	2729.3972	5142.9	4252.5
999.5016	2730.6142	5110.5	4210.75
999.6231	2731.8306	5082.75	4189.1
999.7446	2733.0462	5063.6	4168.3
999.8661	2734.2612	5034.15	4137.65
999.9875	2735.4756	4977.9	4083.45
1000.1089	2736.6892	4958.4	4064.95
1000.2302	2737.9022	4934.9	4043.5
1000.3515	2739.1145	4896	4003.3
1000.4728	2740.3262	4882.4	3983.7
1000.594	2741.5372	4832.9	3941.15
1000.7152	2742.7475	4812.6	3919.9
1000.8363	2743.9571	4794.05	3899.4
1000.9575	2745.1661	4779.9	3884.25
1001.0785	2746.3744	4743.35	3852.55
1001.1996	2747.582	4725.95	3835.1
1001.3206	2748.7889	4712.5	3818.1
1001.4415	2749.9952	4709.7	3819.65
1001.5625	2751.2008	4676.3	3783.45
1001.6833	2752.4057	4653.1	3758.5
1001.8042	2753.61	4649.45	3755.85
1001.925	2754.8136	4638.6	3741.75
1002.0458	2756.0165	4618.2	3726.4
1002.1665	2757.2188	4600.3	3708.75
1002.2872	2758.4204	4584.35	3692.2
1002.4078	2759.6213	4567.6	3674.2
1002.5285	2760.8215	4570.7	3675.35
1002.649	2762.0211	4539.9	3646.5
1002.7696	2763.22	4537.75	3644
1002.8901	2764.4182	4524.95	3630.9
1003.0106	2765.6158	4512.2	3621.3
1003.131	2766.8127	4486.8	3593.6
1003.2514	2768.009	4461.65	3570.6
1003.3717	2769.2045	4453.8	3561.2
1003.492	2770.3994	4448.1	3554.05
1003.6123	2771.5936	4439.05	3546.55
1003.7325	2772.7872	4420.7	3530.75
1003.8527	2773.9801	4391.7	3498.7
1003.9729	2775.1723	4410.9	3503.65
1004.093	2776.3639	4368.25	3477.3
1004.2131	2777.5548	4354.1	3460.3
1004.3331	2778.745	4346.4	3451.35
1004.4531	2779.9346	4332.3	3441.1
1004.5731	2781.1235	4323.35	3429.8
1004.693	2782.3117	4318.45	3425.25
1004.8129	2783.4992	4312.1	3419.75
1004.9328	2784.6861	4298.65	3406.35
1005.0526	2785.8723	4306.15	3413.6
1005.1723	2787.0579	4289.4	3398
1005.2921	2788.2428	4273.35	3381.4
1005.4118	2789.427	4282.8	3390.1
1005.5314	2790.6106	4293.65	3403.1
1005.651	2791.7935	4271.1	3379.25
1005.7706	2792.9757	4283.05	3392
1005.8902	2794.1573	4266.75	3371.85
1006.0097	2795.3382	4279.15	3386.8
1006.1291	2796.5184	4287.05	3395
1006.2485	2797.698	4275.1	3380.3
1006.3679	2798.8769	4271.3	3381.1
1006.4873	2800.0551	4283.8	3390.55
1006.6066	2801.2327	4283.75	3389.6
1006.7258	2802.4096	4302.8	3413.35
1006.8451	2803.5859	4294.95	3401.95
1006.9642	2804.7615	4294.45	3402.75
1007.0834	2805.9364	4303.9	3411.2
1007.2025	2807.1106	4333.35	3443.5
1007.3216	2808.2842	4346.1	3454.6
1007.4406	2809.4572	4364.9	3471.6
1007.5596	2810.6294	4384.65	3491.85
1007.6785	2811.801	4419.45	3529.35
1007.7975	2812.972	4455.65	3562.05
1007.9163	2814.1423	4481.5	3589.25
1008.0352	2815.3119	4516.45	3624.15
1008.154	2816.4808	4551.65	3658.8
1008.2727	2817.6491	4596.2	3703.75
1008.3914	2818.8167	4621.5	3732.9
1008.5101	2819.9837	4674.3	3778.55
1008.6288	2821.15	4723.65	3832
1008.7474	2822.3157	4749.9	3859.45
1008.8659	2823.4807	4789.3	3896.1
1008.9844	2824.645	4815.2	3922.25
1009.1029	2825.8086	4853.8	3961.85
1009.2214	2826.9716	4875.8	3984.95
1009.3398	2828.134	4941.65	4052.5
1009.4581	2829.2957	4951.9	4059.95
1009.5764	2830.4567	4960.2	4070.3
1009.6947	2831.617	4971.25	4079.8
1009.813	2832.7767	4980	4088.15
1009.9312	2833.9358	4983.3	4091.5
1010.0493	2835.0941	4963.2	4070.1
1010.1675	2836.2519	4952.15	4060.1
1010.2855	2837.4089	4912.85	4020.25
1010.4036	2838.5653	4903.6	4012.4
1010.5216	2839.7211	4896.05	4006.9
1010.6396	2840.8761	4912.45	4017.85
1010.7575	2842.0306	4904.9	4014.2
1010.8754	2843.1843	4939.55	4048.15
1010.9932	2844.3374	4994.25	4102.05
1011.111	2845.4899	5043.35	4149.05
1011.2288	2846.6417	5094.85	4202.45
1011.3465	2847.7928	5173.2	4282.6
1011.4642	2848.9433	5246.6	4355.2
1011.5818	2850.0931	5309.8	4418.4
1011.6995	2851.2422	5374	4481
1011.817	2852.3907	5461.65	4569.2
1011.9345	2853.5385	5526.9	4631.95
1012.052	2854.6857	5573.45	4655.5
1012.1695	2855.8323	5592.4	4699.25
1012.2869	2856.9781	5621.55	4732.05
1012.4042	2858.1233	5680.7	4788.6
1012.5216	2859.2679	5698.25	4805.05
1012.6389	2860.4118	5758.65	4866.95
1012.7561	2861.555	5761.95	4866
1012.8733	2862.6976	5813.55	4920.4
1012.9905	2863.8395	5840.35	4950
1013.1076	2864.9808	5841.65	4951.05
1013.2247	2866.1214	5832.85	4941.9
1013.3417	2867.2614	5843.15	4950.85
1013.4587	2868.4007	5843.9	4950.05
1013.5757	2869.5393	5842.2	4949.95
1013.6926	2870.6773	5838.55	4944.35
1013.8095	2871.8146	5857.7	4962.9
1013.9263	2872.9513	5859.4	4966.65
1014.0431	2874.0874	5830.35	4938.45
1014.1599	2875.2227	5842.2	4951.5
1014.2766	2876.3574	5792.1	4901.75
1014.3933	2877.4915	5759.65	4868.15
1014.51	2878.6249	5724.55	4833.45
1014.6266	2879.7577	5681.1	4790.25
1014.7431	2880.8898	5677.25	4773.6
1014.8596	2882.0212	5615.55	4724.1
1014.9761	2883.152	5597.2	4705.7
1015.0925	2884.2821	5579.5	4688.85
1015.2089	2885.4116	5563.85	4673.6
1015.3253	2886.5405	5544.5	4652.45
1015.4416	2887.6686	5561.15	4665.7
1015.5579	2888.7962	5545.9	4656.25
1015.6741	2889.923	5537.8	4644.9
1015.7903	2891.0493	5551.05	4660.95
1015.9065	2892.1748	5560.75	4668.75
1016.0226	2893.2997	5563.2	4670.9
1016.1387	2894.424	5550.45	4658.3
1016.2547	2895.5476	5585.8	4694
1016.3707	2896.6706	5602.3	4712.7
1016.4866	2897.7929	5607.75	4715.15
1016.6025	2898.9145	5638.45	4746.55
1016.7184	2900.0355	5651.9	4761.9
1016.8342	2901.1559	5687.85	4795.35
1016.95	2902.2756	5672.95	4783.2
1017.0658	2903.3946	5726.15	4835.15
1017.1815	2904.513	5754.45	4860.85
1017.2971	2905.6308	5741.45	4848.7
1017.4127	2906.7479	5766.65	4874.7
1017.5283	2907.8643	5783	4889.95
1017.6439	2908.9801	5800.3	4907.75
1017.7594	2910.0953	5794.7	4903.45
1017.8748	2911.2098	5783.6	4888.7
1017.9902	2912.3236	5771.85	4873.35
1018.1056	2913.4368	5766.6	4869.8
1018.2209	2914.5494	5731.65	4839.7
1018.3362	2915.6613	5687.6	4790.5
1018.4515	2916.7725	5661.25	4765.8
1018.5667	2917.8831	5627.25	4733.2
1018.6819	2918.9931	5587.75	4693.95
1018.797	2920.1024	5556.6	4663.5
1018.9121	2921.211	5526	4634.95
1019.0271	2922.319	5486	4596.05
1019.1421	2923.4264	5475.7	4585.55
1019.2571	2924.5331	5446	4554.5
1019.372	2925.6391	5424	4532.3
1019.4869	2926.7445	5413.15	4523.75
1019.6017	2927.8493	5402.55	4509.95
1019.7165	2928.9534	5393.05	4502.25
1019.8313	2930.0569	5368.75	4472.55
1019.946	2931.1597	5353.3	4461.55
1020.0606	2932.2619	5338.1	4446.75
1020.1753	2933.3634	5335.2	4443
1020.2899	2934.4643	5314.7	4416.5
1020.4044	2935.5645	5289.75	4390.75
1020.5189	2936.6641	5240.6	4342.4
1020.6334	2937.763	5180.45	4290.05
1020.7478	2938.8613	5130.5	4239.2
1020.8622	2939.959	5056.35	4161.5
1020.9765	2941.056	4982.9	4090.4
1021.0908	2942.1523	4867.75	3974.1
1021.2051	2943.248	4796.75	3904.25
1021.3193	2944.3431	4711.5	3820.95
1021.4334	2945.4375	4583.55	3693.7
1021.5476	2946.5313	4463.5	3572.1
1021.6617	2947.6244	4354.55	3464.25
1021.7757	2948.7169	4257.35	3365
1021.8897	2949.8087	4156.25	3263.7
1022.0037	2950.8999	4034.15	3142.65
1022.1176	2951.9904	3948.35	3057.9
1022.2315	2953.0803	3870.75	2978.95
1022.3453	2954.1696	3800.75	2909.75
1022.4591	2955.2582	3743.3	2852.5
1022.5728	2956.3462	3674.7	2782.3
1022.6865	2957.4335	3634.45	2741.65
1022.8002	2958.5202	3596	2702.3
1022.9138	2959.6062	3562.75	2672.15
1023.0274	2960.6916	3536	2644.65
1023.141	2961.7764	3506.4	2614.4
1023.2545	2962.8605	3481.75	2589.75
1023.3679	2963.9439	3466.55	2575
1023.4813	2965.0267	3455.2	2562.1
1023.5947	2966.1089	3450.85	2536.5
1023.708	2967.1905	3413.65	2522.45
1023.8213	2968.2714	3406.15	2513.9
1023.9346	2969.3516	3407.75	2516.05
1024.0478	2970.4312	3409.8	2511.85
1024.1609	2971.5102	3389.1	2497.2
1024.274	2972.5885	3386.65	2495.8
1024.3871	2973.6662	3383.7	2487.55
1024.5002	2974.7432	3366.6	2475.95
1024.6132	2975.8196	3354.95	2464.7
1024.7261	2976.8954	3338.7	2448.9
1024.839	2977.9705	3314.1	2423.6
1024.9519	2979.045	3285.5	2394.5
1025.0647	2980.1188	3266.5	2375.2
1025.1775	2981.192	3249.6	2359.45
1025.2902	2982.2645	3220.55	2329.25
1025.4029	2983.3364	3187	2296.75
1025.5156	2984.4077	3150.9	2260.45
1025.6282	2985.4783	3129.85	2233.05
1025.7407	2986.5483	3097.85	2208.05
1025.8532	2987.6177	3057.95	2166.35
1025.9657	2988.6864	2998.95	2109
1026.0782	2989.7545	2963.95	2072.15
1026.1906	2990.8219	2922	2032.5
1026.3029	2991.8887	2889.9	1995.6
1026.4152	2992.9548	2861.35	1968.85
1026.5275	2994.0204	2815.75	1924.45
1026.6397	2995.0852	2774.15	1884
1026.7519	2996.1495	2759.75	1866.95
1026.864	2997.2131	2733.35	1842.2
1026.9761	2998.276	2713.2	1822.55
1027.0882	2999.3383	2680.65	1788.55
1027.2002	3000.4	2658.65	1767.4
1027.3122	3001.4611	2640.05	1749.35
1027.4241	3002.5215	2618.8	1727.95
1027.536	3003.5812	2617.35	1727.35
1027.6478	3004.6404	2595.35	1702.75
1027.7596	3005.6989	2566.6	1675.1
1027.8714	3006.7567	2561.4	1669.55
1027.9831	3007.8139	2567.9	1654
1028.0947	3008.8705	2538.35	1648.15
1028.2064	3009.9264	2529.55	1622.45
1028.3179	3010.9818	2509.55	1617.85
1028.4295	3012.0364	2498.95	1607.75
1028.541	3013.0905	2501.15	1609.6
1028.6524	3014.1439	2490.45	1599.1
1028.7638	3015.1966	2473.85	1586.1
1028.8752	3016.2487	2470.85	1581.1
1028.9865	3017.3002	2489.55	1589.05
1029.0978	3018.3511	2470.7	1582.3
1029.209	3019.4013	2455.3	1563.85
1029.3202	3020.4509	2465.2	1575.45
1029.4314	3021.4998	2453.8	1563.5
1029.5425	3022.5481	2455.75	1565.75
1029.6535	3023.5958	2447.75	1555.9
1029.7645	3024.6428	2445.65	1552.15
1029.8755	3025.6892	2436.9	1545.95
1029.9864	3026.735	2436.9	1547
1030.0973	3027.7802	2435.2	1543.85
1030.2082	3028.8247	2425.1	1536.7
1030.319	3029.8685	2426.6	1535.2
1030.4297	3030.9118	2423.85	1532.95
1030.5404	3031.9544	2422.2	1532.8
1030.6511	3032.9963	2424.75	1535.75
1030.7617	3034.0376	2417.75	1528.2
1030.8723	3035.0783	2421.55	1528.45
1030.9829	3036.1184	2419.8	1528
1031.0934	3037.1578	2425.65	1534.5
1031.2038	3038.1966	2430.65	1538.65
1031.3142	3039.2348	2414.9	1526.15
1031.4246	3040.2723	2412.85	1512.4
1031.5349	3041.3092	2404.6	1515.85
1031.6452	3042.3455	2400.95	1509.15
1031.7554	3043.3811	2393.55	1501.3
1031.8656	3044.4161	2376.35	1484.2
1031.9758	3045.4505	2377.1	1488.45
1032.0859	3046.4842	2369.5	1478.85
1032.1959	3047.5173	2347.95	1458.15
1032.3059	3048.5498	2336.85	1446.4
1032.4159	3049.5816	2333.7	1440.45
1032.5258	3050.6128	2311.9	1418.5
1032.6357	3051.6434	2314.65	1420.6
1032.7455	3052.6734	2297.45	1405.9
1032.8553	3053.7027	2288.55	1397.15
1032.9651	3054.7314	2282.6	1391.8
1033.0748	3055.7594	2266.2	1376.3
1033.1845	3056.7868	2261.1	1369.4
1033.2941	3057.8136	2246.95	1356.5
1033.4037	3058.8398	2237.85	1348.6
1033.5132	3059.8653	2228.4	1337
1033.6227	3060.8902	2214.3	1322.3
1033.7321	3061.9145	2211.25	1319.65
1033.8415	3062.9381	2209.1	1318
1033.9509	3063.9612	2207.9	1302.2
1034.0602	3064.9835	2185.9	1297.2
1034.1694	3066.0053	2174.6	1282.85
1034.2787	3067.0264	2156.45	1265.6
1034.3878	3068.0469	2159.7	1266.05
1034.497	3069.0668	2146.15	1253.4
1034.6061	3070.086	2127.15	1237.95
1034.7151	3071.1046	2117.6	1226.3
1034.8241	3072.1226	2106.95	1215.75
1034.9331	3073.1399	2093.85	1203.25
1035.042	3074.1567	2085.05	1193.05
1035.1508	3075.1727	2064.15	1169.8
1035.2597	3076.1882	2061.6	1170.7
1035.3684	3077.203	2043.2	1152.4
1035.4772	3078.2173	2034.15	1141.2
1035.5859	3079.2308	2012.45	1118.1
1035.6945	3080.2438	2019.1	1125.5
1035.8031	3081.2561	1996.25	1106.75
1035.9117	3082.2678	1991.2	1100.1
1036.0202	3083.2789	1976.55	1085.6
1036.1286	3084.2893	1966.35	1075
1036.2371	3085.2991	1962.05	1070.6
1036.3454	3086.3083	1953.65	1058
1036.4538	3087.3169	1938.45	1045.9
1036.562	3088.3248	1929.9	1039
1036.6703	3089.3321	1926.6	1033.85
1036.7785	3090.3388	1925.7	1035.2
1036.8866	3091.3449	1904.65	1014.15
1036.9948	3092.3503	1912.4	1020.1
1037.1028	3093.3551	1892.45	1003.75
1037.2108	3094.3593	1889.5	1000.2
1037.3188	3095.3629	1876.8	986.65
1037.4267	3096.3658	1869.95	978.35
1037.5346	3097.3681	1868.9	978.45
1037.6425	3098.3698	1872.1	980.1
1037.7503	3099.3708	1856.65	959.3
1037.858	3100.3713	1843.25	953
1037.9657	3101.3711	1838.85	947.3
1038.0734	3102.3702	1931.1	926.5
1038.181	3103.3688	1829.3	938.25
1038.2886	3104.3667	1824.85	936.45
1038.3961	3105.364	1813.9	924
1038.5036	3106.3607	1801.3	909.55
1038.611	3107.3568	1794.15	901.25
1038.7184	3108.3522	1787.2	897
1038.8257	3109.347	1793.85	900.45
1038.933	3110.3412	1799.15	904.75
1039.0403	3111.3348	1772.35	881.3
1039.1475	3112.3277	1775.25	883.25
1039.2547	3113.32	1772.65	883.25
1039.3618	3114.3117	1772.9	881.75
1039.4689	3115.3028	1759.5	868.25
1039.5759	3116.2932	1750.7	857.55
1039.6829	3117.2831	1756.25	860.75
1039.7898	3118.2723	1749.2	859
1039.8967	3119.2608	1738.4	847.95
1040.0035	3120.2488	1733.65	841.85
1040.1103	3121.2361	1727.9	837.1
1040.2171	3122.2229	1722.05	832.4
1040.3238	3123.209	1716.85	825.25
1040.4305	3124.1944	1708.55	817.95
1040.5371	3125.1793	1715.25	822.55
1040.6437	3126.1635	1703.3	812.35
1040.7502	3127.1471	1693.95	802.75
1040.8567	3128.1301	1694.75	805.4
1040.9631	3129.1125	1689.9	800.3
1041.0695	3130.0942	1684.05	794.4
1041.1759	3131.0753	1697.65	798.25
1041.2822	3132.0558	1682.45	789.35
1041.3884	3133.0357	1677.4	787.1
1041.4946	3134.015	1665.75	774.1
1041.6008	3134.9936	1674.4	782.5
1041.7069	3135.9716	1681.8	771.25
1041.813	3136.949	1661.7	768.35
1041.919	3137.9258	1658.5	765.5
1042.025	3138.902	1656.8	760.9
1042.1309	3139.8775	1642.95	752.2
1042.2368	3140.8524	1639.95	750.45
1042.3427	3141.8267	1640.65	748.3
1042.4485	3142.8004	1638.7	747.3
1042.5542	3143.7735	1641.75	745.35
1042.6599	3144.7459	1629.45	734.85
1042.7656	3145.7178	1621.15	727.65
1042.8712	3146.689	1620.8	732
1042.9768	3147.6596	1616.5	723.95
1043.0823	3148.6295	1622.4	731.45
1043.1878	3149.5989	1605.4	715.4
1043.2932	3150.5676	1599.85	710.5
1043.3986	3151.5357	1595	706.9
1043.5039	3152.5032	1594.25	705.7
1043.6092	3153.4701	1591.45	700.15
1043.7145	3154.4364	1596.2	700.95
1043.8197	3155.402	1595.25	705.9
1043.9248	3156.367	1587.4	695.8
1044.03	3157.3315	1610.95	683.9
1044.135	3158.2952	1575.55	685.8
1044.24	3159.2584	1567.65	678.6
1044.345	3160.221	1561.55	671.3
1044.4499	3161.1829	1557.05	664.95
1044.5548	3162.1442	1558.35	666.1
1044.6596	3163.105	1551.35	663.05
1044.7644	3164.065	1545.2	655.05
1044.8692	3165.0245	1545.1	652.9
1044.9739	3165.9834	1539.1	649.4
1045.0785	3166.9416	1534	643.95
1045.1831	3167.8993	1533.6	642.15
1045.2877	3168.8563	1525.6	634.35
1045.3922	3169.8127	1519.15	628.2
1045.4966	3170.7684	1529.95	641.6
1045.6011	3171.7236	1526.1	637.4
1045.7054	3172.6782	1514.8	625.65
1045.8098	3173.6321	1511.75	621.8
1045.914	3174.5854	1514.55	621.1
1046.0183	3175.5381	1500.5	611.7
1046.1224	3176.4902	1501.7	610.7
1046.2266	3177.4417	1495.8	605.35
1046.3307	3178.3926	1502	610.7
1046.4347	3179.3428	1495.45	605
1046.5387	3180.2924	1492.95	602.95
1046.6427	3181.2415	1483.4	592.55
1046.7466	3182.1899	1482.2	591.9
1046.8504	3183.1377	1476	586.9
1046.9542	3184.0848	1475.85	581.9
1047.058	3185.0314	1468.75	579.05
1047.1617	3185.9773	1470.85	580.15
1047.2654	3186.9227	1459.65	570.2
1047.369	3187.8674	1459.6	570.25
1047.4726	3188.8115	1463.1	567.25
1047.5761	3189.755	1460.2	570.1
1047.6796	3190.6979	1453.35	563.25
1047.783	3191.6402	1457.8	567.5
1047.8864	3192.5818	1449.8	558.35
1047.9898	3193.5229	1476.6	560
1048.0931	3194.4633	1442.95	552.75
1048.1963	3195.4031	1445.3	554.45
1048.2995	3196.3423	1437.4	546.55
1048.4027	3197.2809	1440.6	549.95
1048.5058	3198.2189	1433.6	544.1
1048.6089	3199.1563	1443.75	538.9
1048.7119	3200.0931	1430.1	540.75
1048.8148	3201.0292	1417.05	529.35
1048.9178	3201.9648	1425.2	536.75
1049.0206	3202.8997	1413.75	520.9
1049.1235	3203.834	1414.55	524
1049.2262	3204.7677	1412.25	521.35
1049.329	3205.7008	1409.35	517.85
1049.4317	3206.6333	1403.45	513.45
1049.5343	3207.5652	1403.1	510.25
1049.6369	3208.4964	1399.3	508.2
1049.7394	3209.4271	1400.95	511.2
1049.8419	3210.3571	1395.05	505.95
1049.9444	3211.2865	1393.7	500.35
1050.0468	3212.2154	1390.6	498.55
1050.1491	3213.1436	1391.5	496.75
1050.2514	3214.0712	1395.6	499.45
1050.3537	3214.9982	1385.85	495.55
1050.4559	3215.9246	1383.35	492.9
1050.5581	3216.8503	1381.75	494.25
1050.6602	3217.7755	1370.9	480.35
1050.7623	3218.7001	1374.85	484.45
1050.8643	3219.624	1375.05	486.35
1050.9663	3220.5473	1366.4	476.3
1051.0682	3221.4701	1367.5	476.05
1051.1701	3222.3922	1371.5	480.25
1051.2719	3223.3137	1366.35	476.1
1051.3737	3224.2346	1360.5	473.1
1051.4754	3225.1549	1361.6	473.9
1051.5771	3226.0746	1350.35	462.65
1051.6788	3226.9937	1349	458.25
1051.7804	3227.9121	1346.9	456.45
1051.8819	3228.83	1347.25	457.55
1051.9834	3229.7473	1345.05	453.4
1052.0849	3230.6639	1347	454.85
1052.1863	3231.5799	1338.2	447.35
1052.2876	3232.4954	1335.55	444.75
1052.3889	3233.4102	1332	441.15
1052.4902	3234.3244	1332.9	442.2
1052.5914	3235.238	1330.05	441.8
1052.6926	3236.151	1345.5	430.9
1052.7937	3237.0634	1327.55	439.05
1052.8948	3237.9752	1322.15	433.1
1052.9958	3238.8864	1323.65	433.65
1053.0968	3239.797	1325.4	436.95
1053.1977	3240.7069	1317.4	426.25
1053.2986	3241.6163	1314.45	423.7
1053.3994	3242.5251	1308.25	420.4
1053.5002	3243.4332	1306.45	417.5
1053.6009	3244.3408	1300.55	408.95
1053.7016	3245.2477	1297.25	407.65
1053.8022	3246.154	1296.75	407.75
1053.9028	3247.0598	1300.2	409.45
1054.0034	3247.9649	1290.05	398.9
1054.1039	3248.8694	1285.9	396
1054.2043	3249.7733	1288.25	397.75
1054.3047	3250.6766	1286.4	398.15
1054.4051	3251.5793	1283.1	391.7
1054.5054	3252.4814	1276.45	387.95
1054.6056	3253.3829	1273.85	383.95
1054.7058	3254.2838	1270.3	380.7
1054.806	3255.1841	1273.3	385.05
1054.9061	3256.0838	1272.3	381.85
1055.0061	3256.9829	1267.25	378.05
1055.1062	3257.8814	1258.6	367.95
1055.2061	3258.7792	1262.95	371.8
1055.306	3259.6765	1254.35	363.9
1055.4059	3260.5731	1252.35	363.65
1055.5057	3261.4692	1251.4	361.35
1055.6055	3262.3647	1243.35	352.6
1055.7052	3263.2595	1244.65	354.1
1055.8049	3264.1538	1236.3	346.3
1055.9045	3265.0474	1235.4	342.95
1056.0041	3265.9404	1224.3	334.65
1056.1036	3266.8329	1217.75	330.2
1056.2031	3267.7247	1219.9	320.35
1056.3025	3268.616	1196.65	308.4
1056.4019	3269.5066	1196.5	306.5
1056.5013	3270.3966	1191.35	300.1
1056.6005	3271.286	1176.9	288.75
