Software Version:	3.9.2.0
Unit SN:	10000200
Spectrometer SN:	6960
Date:	3/6/2024 10:32:17 AM
Data Line Index:	25
Spectral Points:	2048
Integration time (ms):	125
Averages:	20
Delay (ms):	30
Sequence Number:	1
Processing:	dark subtract
Laser Power (mW):	300
Laser Current (mA):	825
Laser Diode Temp (C):	25.1
Laser Case Temp (C):	26.3
System Temp (C):	26.1
Spectrometer Temp (C):	23.6
CCD Temp (C):	0.001
Secondary Temp (C):	20.01
Heatsink Temp (C):	21.692
CCDPCB Temp (C):	35.873
SecondaryPCB Temp (C):	29.793

Wavelength	RamanShift	Raw Counts	Dark Subtracted
787.061	30.1047	1141.8	728.15
787.2016	32.3739	1179.4	768.1
787.3422	34.6426	1220.3	808.05
787.4828	36.9109	1270	855.35
787.6235	39.1787	1327.55	909.05
787.7642	41.4461	1393.3	968.7
787.9049	43.7131	1443.7	1018.45
788.0456	45.9796	1511.2	1083.1
788.1863	48.2456	1583.5	1151.6
788.3271	50.5112	1655.05	1218
788.4679	52.7764	1721.8	1283.15
788.6087	55.0411	1801.75	1358.75
788.7496	57.3054	1889.45	1439.55
788.8904	59.5692	1977.95	1528.1
789.0313	61.8326	2089.3	1634.8
789.1722	64.0955	2198.15	1740.5
789.3132	66.3579	2323.4	1861.7
789.4541	68.6199	2481.05	2016.5
789.5951	70.8815	2738.15	2268.7
789.7361	73.1426	3274	2801.45
789.8771	75.4032	4637.25	4160.9
790.0181	77.6634	8165.3	7682.75
790.1592	79.9231	17598.9	17110.4
790.3003	82.1824	56891.15	56391.5
790.4414	84.4412	65535	65013.1
790.5825	86.6995	65535	64987.15
790.7237	88.9574	65535	64959.4
790.8648	91.2148	65535	64938.45
791.006	93.4717	65535	64929.3
791.1472	95.7282	65535	64923.8
791.2885	97.9842	65535	64918.3
791.4297	100.2398	65535	64918.1
791.571	102.4949	65535	64913
791.7123	104.7495	65535	64911.6
791.8536	107.0036	65535	64909.1
791.9949	109.2573	65535	64909.8
792.1363	111.5105	65535	64910.5
792.2777	113.7632	65535	64903.85
792.4191	116.0154	65535	64896.55
792.5605	118.2672	65535	64898.65
792.7019	120.5185	65535	64900.35
792.8434	122.7693	65535	64897.45
792.9849	125.0197	65535	64891.7
793.1264	127.2696	65535	64889.35
793.2679	129.519	65535	64887.5
793.4094	131.7679	65535	64883.75
793.551	134.0163	65535	64883.05
793.6926	136.2642	65535	64879.2
793.8342	138.5117	65535	64870.05
793.9758	140.7587	65535	64872.25
794.1175	143.0052	65535	64874.5
794.2591	145.2512	65535	64872.5
794.4008	147.4967	65535	64871
794.5425	149.7417	65535	64867.4
794.6842	151.9863	65535	64863.6
794.826	154.2304	65535	64861.7
794.9677	156.4739	65535	64851
795.1095	158.717	65535	64853.5
795.2513	160.9596	65535	64850.9
795.3931	163.2017	65535	64848.4
795.535	165.4433	65535	64845.55
795.6768	167.6844	65535	64845.75
795.8187	169.925	65535	64843.6
795.9606	172.1651	65535	64839.2
796.1025	174.4047	65535	64834.95
796.2445	176.6439	65535	64834.3
796.3864	178.8825	65535	64833.35
796.5284	181.1206	65535	64827.7
796.6704	183.3582	65535	64824.35
796.8124	185.5954	65535	64822.85
796.9544	187.832	65535	64821.3
797.0965	190.0681	65535	64815.85
797.2386	192.3037	65535	64811.15
797.3806	194.5388	65535	64809.8
797.5228	196.7734	65535	64808.7
797.6649	199.0075	65535	64804.4
797.807	201.2411	65535	64804.15
797.9492	203.4742	65535	64802.3
798.0914	205.7068	65535	64799.85
798.2336	207.9389	65535	64801
798.3758	210.1704	65535	64795.3
798.518	212.4015	65535	64802.75
798.6603	214.632	65535	64809.7
798.8025	216.862	65535	64820.4
798.9448	219.0915	65535	64815.5
799.0871	221.3205	65535	64813
799.2294	223.549	65535	64818.3
799.3718	225.777	65535	64818.15
799.5141	228.0044	65535	64811.7
799.6565	230.2314	65535	64819
799.7989	232.4578	65535	64811.95
799.9413	234.6837	65535	64801.65
800.0837	236.909	65535	64799.15
800.2262	239.1339	65535	64774.3
800.3687	241.3582	65535	64786.25
800.5111	243.582	65535	64761.05
800.6536	245.8053	65535	64770.5
800.7961	248.0281	65535	64774.65
800.9387	250.2503	65535	64773.15
801.0812	252.472	65535	64768.25
801.2238	254.6932	65535	64772.15
801.3664	256.9139	65535	64770.7
801.509	259.134	65535	64765.95
801.6516	261.3536	65535	64770.15
801.7942	263.5727	65535	64764.2
801.9369	265.7912	65535	64767.2
802.0795	268.0092	65535	64764.9
802.2222	270.2267	65535	64763.1
802.3649	272.4436	65535	64766.35
802.5076	274.6601	65535	64756.4
802.6504	276.8759	65535	64755.7
802.7931	279.0913	65535	64756.3
802.9359	281.3061	65535	64757.65
803.0787	283.5204	65535	64754.75
803.2215	285.7341	65535	64749.6
803.3643	287.9473	65535	64738.15
803.5071	290.16	65535	64744.9
803.6499	292.3721	65535	64752.4
803.7928	294.5837	65535	64751.75
803.9357	296.7947	65535	64754.25
804.0786	299.0052	65535	64748.75
804.2215	301.2152	65535	64746.15
804.3644	303.4246	65535	64750.65
804.5074	305.6334	65535	64750
804.6503	307.8418	65535	64749.45
804.7933	310.0495	65535	64745.55
804.9363	312.2568	65535	64748.5
805.0793	314.4635	65535	64744.5
805.2223	316.6696	65535	64740.45
805.3653	318.8752	65535	64731.45
805.5084	321.0802	65535	64738.9
805.6514	323.2847	65535	64737.4
805.7945	325.4887	65535	64740
805.9376	327.692	65535	64736.8
806.0807	329.8949	65535	64737.95
806.2238	332.0972	65535	64735.5
806.367	334.2989	65535	64734.95
806.5101	336.5001	65535	64729.8
806.6533	338.7007	65535	64733.35
806.7965	340.9008	65535	64728.4
806.9397	343.1003	65535	64728.1
807.0829	345.2992	65535	64724.75
807.2261	347.4976	65535	64726.4
807.3693	349.6955	65535	64720.35
807.5126	351.8927	65535	64719.8
807.6559	354.0895	65535	64707.65
807.7991	356.2856	65535	64718.45
807.9424	358.4812	65535	64718.55
808.0857	360.6763	65535	64717.55
808.2291	362.8707	65535	64713.55
808.3724	365.0646	65535	64712
808.5158	367.258	65535	64713.25
808.6591	369.4508	65535	64707.95
808.8025	371.643	65535	64706.15
808.9459	373.8346	65535	64709.35
809.0893	376.0257	65535	64702.25
809.2327	378.2162	65535	64705.15
809.3762	380.4062	65535	64701.85
809.5196	382.5956	65535	64702.35
809.6631	384.7844	65535	64703.3
809.8066	386.9726	65535	64707.7
809.9501	389.1603	65535	64710.3
810.0936	391.3474	65535	64667.7
810.2371	393.5339	65535	64708.45
810.3806	395.7199	65535	64710.65
810.5241	397.9052	65535	64712.85
810.6677	400.09	65535	64714.1
810.8113	402.2743	65535	64710.45
810.9548	404.4579	65535	64713.8
811.0984	406.641	65535	64707.25
811.2421	408.8235	65535	64706.4
811.3857	411.0054	65535	64704
811.5293	413.1868	65535	64702.3
811.673	415.3675	65535	64700.9
811.8166	417.5477	65535	64700.2
811.9603	419.7273	65535	64695.05
812.104	421.9064	65535	64691.5
812.2477	424.0848	65535	64689.9
812.3914	426.2627	65535	64695.1
812.5351	428.4399	65535	64695.2
812.6788	430.6166	65535	64687.4
812.8226	432.7928	65535	64686.25
812.9663	434.9683	65535	64686.5
813.1101	437.1432	65535	64686.7
813.2539	439.3176	65535	64688.9
813.3977	441.4914	65535	64686.4
813.5415	443.6645	65535	64686.85
813.6853	445.8371	65535	64688.8
813.8291	448.0091	65535	64690.5
813.973	450.1806	65535	64686.8
814.1168	452.3514	65535	64683.25
814.2607	454.5216	65535	64676.8
814.4046	456.6913	65535	64681.75
814.5485	458.8603	65535	64682.85
814.6924	461.0288	65535	64684.1
814.8363	463.1967	65535	64689.65
814.9802	465.3639	65535	64683.8
815.1241	467.5306	65535	64681.6
815.2681	469.6967	65535	64684.4
815.412	471.8622	65535	64684.1
815.556	474.0271	65535	64682.6
815.7	476.1914	65535	64679.9
815.844	478.3551	65535	64680.3
815.988	480.5182	65535	64678.75
816.132	482.6807	65535	64679.45
816.276	484.8426	65535	64680.75
816.4201	487.0039	65535	64683.4
816.5641	489.1647	65535	64677.2
816.7082	491.3248	65535	64680.35
816.8522	493.4843	65535	64678
816.9963	495.6432	65535	64677.2
817.1404	497.8015	65535	64675
817.2845	499.9592	65535	64676.45
817.4286	502.1163	65535	64675
817.5727	504.2728	65535	64675.55
817.7168	506.4287	65535	64673.65
817.861	508.5839	65535	64674.8
818.0051	510.7386	65535	64673.8
818.1493	512.8927	65535	64670.5
818.2935	515.0461	65535	64670.45
818.4377	517.199	65535	64671.5
818.5818	519.3512	65535	64673.35
818.726	521.5029	65535	64666.4
818.8703	523.6539	65535	64671.55
819.0145	525.8043	65535	64668.95
819.1587	527.9541	65535	64664.55
819.303	530.1033	65535	64669.45
819.4472	532.2519	65535	64668.45
819.5915	534.3999	65535	64667.05
819.7357	536.5472	65535	64668.35
819.88	538.694	65535	64665.85
820.0243	540.8401	65535	64664.55
820.1686	542.9856	65535	64662.8
820.3129	545.1305	65535	64661.9
820.4572	547.2748	65535	64661.15
820.6016	549.4185	65535	64659.1
820.7459	551.5615	65535	64661.3
820.8902	553.704	65535	64662.15
821.0346	555.8458	65535	64661.95
821.1789	557.987	65535	64666.5
821.3233	560.1276	65535	64661.85
821.4677	562.2675	65535	64664.15
821.6121	564.4069	65535	64663.55
821.7565	566.5456	65535	64661.85
821.9009	568.6837	65535	64666.35
822.0453	570.8212	65535	64664.45
822.1897	572.958	65535	64659.9
822.3342	575.0942	65535	64663.9
822.4786	577.2299	65535	64663.6
822.6231	579.3648	65535	64665.4
822.7675	581.4992	65535	64662.75
822.912	583.6329	65535	64669.6
823.0565	585.766	65535	64663.7
823.201	587.8985	65535	64662.35
823.3454	590.0304	65535	64636.1
823.4899	592.1616	65535	64657.45
823.6345	594.2922	65535	64658.5
823.779	596.4222	65535	64659.05
823.9235	598.5515	65535	64658.35
824.068	600.6802	65535	64659.45
824.2126	602.8083	65535	64658.1
824.3571	604.9358	65535	64657
824.5017	607.0626	65535	64654.05
824.6462	609.1888	65535	64654.2
824.7908	611.3144	65535	64653.05
824.9354	613.4393	65535	64657.65
825.08	615.5636	65535	64657.05
825.2246	617.6873	65535	64656.9
825.3692	619.8103	65535	64652.1
825.5138	621.9327	65535	64651.35
825.6584	624.0544	65535	64658.3
825.803	626.1756	65535	64657.3
825.9477	628.2961	65535	64657.6
826.0923	630.4159	65535	64655.55
826.237	632.5351	65535	64655.4
826.3816	634.6537	65535	64648.9
826.5263	636.7716	65535	64649
826.6709	638.8889	65535	64651.65
826.8156	641.0056	65535	64649.6
826.9603	643.1216	65535	64650.55
827.105	645.237	65535	64647.95
827.2497	647.3518	65535	64652.6
827.3944	649.4659	65535	64653.45
827.5391	651.5793	65535	64650
827.6838	653.6922	65535	64654.25
827.8285	655.8043	65535	64650.9
827.9733	657.9159	65535	64648.75
828.118	660.0268	65535	64648.4
828.2627	662.137	65535	64649.65
828.4075	664.2466	65535	64645.05
828.5522	666.3556	65535	64650.35
828.697	668.4639	65535	64644.35
828.8418	670.5716	65535	64651.1
828.9865	672.6786	65535	64648.75
829.1313	674.785	65535	64644.35
829.2761	676.8907	65535	64645.65
829.4209	678.9958	65535	64648.85
829.5657	681.1002	65535	64644.45
829.7105	683.204	65535	64643.4
829.8553	685.3072	65535	64644.15
830.0001	687.4097	65535	64646.6
830.1449	689.5115	65535	64646.3
830.2898	691.6127	65535	64642.2
830.4346	693.7132	65535	64643.1
830.5794	695.8131	65535	64635.55
830.7243	697.9123	65535	64643.3
830.8691	700.0109	65535	64644.05
831.014	702.1089	65535	64641.8
831.1588	704.2061	65535	64642.85
831.3037	706.3028	65535	64642.4
831.4486	708.3987	65535	64642.5
831.5935	710.4941	65535	64643.55
831.7383	712.5887	65535	64644.15
831.8832	714.6827	65535	64636.8
832.0281	716.7761	65535	64643.85
832.173	718.8688	65535	64643.3
832.3179	720.9608	65535	64640.75
832.4628	723.0522	65535	64637.35
832.6077	725.1429	65535	64643
832.7527	727.233	65535	64640.4
832.8976	729.3224	65535	64641.55
833.0425	731.4112	65535	64638.05
833.1874	733.4993	65535	64640.4
833.3324	735.5867	65535	64640.65
833.4773	737.6735	65535	64640.3
833.6222	739.7596	65535	64637.2
833.7672	741.845	65535	64639.5
833.9122	743.9298	65535	64636.5
834.0571	746.014	65535	64640.85
834.2021	748.0974	65535	64637.5
834.347	750.1802	65535	64638.45
834.492	752.2624	65535	64639.75
834.637	754.3439	65535	64638.9
834.782	756.4247	65535	64625.45
834.9269	758.5048	65535	64635.6
835.0719	760.5843	65535	64637.3
835.2169	762.6631	65535	64640.75
835.3619	764.7413	65535	64641.1
835.5069	766.8188	65535	64638.6
835.6519	768.8956	65535	64637.9
835.7969	770.9718	65535	64637.1
835.9419	773.0473	65535	64638.15
836.0869	775.1221	65535	64636.7
836.232	777.1962	65535	64636.7
836.377	779.2697	65535	64635.65
836.522	781.3426	65535	64617.9
836.667	783.4147	65535	64633.85
836.8121	785.4862	65535	64636.5
836.9571	787.557	65535	64634.25
837.1021	789.6271	65535	64635.75
837.2472	791.6966	65535	64636.15
837.3922	793.7654	65535	64635.05
837.5373	795.8335	65535	64634.15
837.6823	797.901	65535	64638.15
837.8274	799.9678	65535	64635.1
837.9724	802.0339	65535	64637.6
838.1175	804.0993	65535	64627.35
838.2626	806.1641	65535	64636.45
838.4076	808.2282	65535	64636.35
838.5527	810.2916	65535	64632.6
838.6978	812.3544	65535	64641.2
838.8428	814.4164	65535	64636.25
838.9879	816.4778	65535	64634.85
839.133	818.5385	65535	64634.55
839.2781	820.5986	65535	64635.2
839.4232	822.658	65535	64633.65
839.5682	824.7166	65535	64637.8
839.7133	826.7747	65535	64635.4
839.8584	828.832	65535	64635.05
840.0035	830.8886	65535	64633.2
840.1486	832.9446	65535	64632.2
840.2937	834.9999	65535	64636.9
840.4388	837.0545	65535	64632.3
840.5839	839.1085	65535	64636.35
840.729	841.1618	65535	64630.6
840.8741	843.2143	65535	64634.25
841.0192	845.2662	65535	64635.25
841.1643	847.3175	65535	64636.65
841.3095	849.368	65535	64633.4
841.4546	851.4179	65535	64634.3
841.5997	853.467	65535	64634.6
841.7448	855.5155	65535	64633.4
841.8899	857.5633	65535	64633.95
842.0351	859.6105	65535	64632.45
842.1802	861.6569	65535	64632.45
842.3253	863.7027	65535	64632.85
842.4704	865.7478	65535	64633.8
842.6156	867.7922	65535	64632.75
842.7607	869.8359	65535	64633.4
842.9058	871.8789	65535	64632.3
843.0509	873.9212	65535	64603.1
843.1961	875.9629	65535	64629.3
843.3412	878.0039	65535	64632.45
843.4863	880.0441	65535	64633
843.6315	882.0837	65535	64631.6
843.7766	884.1226	65535	64630.5
843.9218	886.1609	65535	64633.05
844.0669	888.1984	65535	64630.55
844.212	890.2352	65535	64631.3
844.3572	892.2714	65535	64626.55
844.5023	894.3069	65535	64630.1
844.6475	896.3416	65535	64630.95
844.7926	898.3757	65535	64632.7
844.9377	900.4091	65535	64630.1
845.0829	902.4418	65535	64626.3
845.228	904.4739	65535	64629.25
845.3732	906.5052	65535	64630.05
845.5183	908.5358	65535	64630.1
845.6635	910.5658	65535	64630.3
845.8086	912.595	65535	64630.95
845.9538	914.6236	65535	64628.95
846.0989	916.6515	65535	64632.3
846.2441	918.6786	65535	64629.25
846.3892	920.7051	65535	64626.5
846.5344	922.7309	65535	64634.25
846.6795	924.756	65535	64629.55
846.8246	926.7804	65535	64630.5
846.9698	928.8041	65535	64625.7
847.1149	930.8272	65535	64627.2
847.2601	932.8495	65535	64624.65
847.4052	934.8711	65535	64628.5
847.5504	936.892	65535	64631.15
847.6955	938.9123	65535	64629.4
847.8407	940.9318	65535	64630.35
847.9858	942.9506	65535	64630.2
848.131	944.9688	65535	64629.45
848.2761	946.9862	65535	64630.6
848.4213	949.003	65535	64628
848.5664	951.019	65535	64630.2
848.7115	953.0344	65535	64630.9
848.8567	955.0491	65535	64628.55
849.0018	957.063	65535	64628.25
849.147	959.0763	65535	64629.45
849.2921	961.0888	65535	64628.3
849.4373	963.1007	65535	64630.55
849.5824	965.1119	65535	64630.95
849.7275	967.1223	65535	64633.5
849.8727	969.1321	65535	64635.75
850.0178	971.1412	65535	64632.3
850.1629	973.1495	65535	64630.2
850.3081	975.1572	65535	64597.5
850.4532	977.1641	65535	64631.35
850.5983	979.1704	65535	64629.5
850.7435	981.1759	65535	64627.25
850.8886	983.1808	65535	64628.1
851.0337	985.1849	65535	64618.4
851.1788	987.1884	65535	64626.4
851.324	989.1911	65535	64628.1
851.4691	991.1932	65535	64626.1
851.6142	993.1945	65535	64629.5
851.7593	995.1951	65535	64629
851.9045	997.1951	65535	64625.55
852.0496	999.1943	65535	64631.65
852.1947	1001.1928	65535	64627
852.3398	1003.1906	65535	64629.7
852.4849	1005.1877	65535	64627.25
852.63	1007.1841	65535	64630
852.7751	1009.1798	65535	64630.25
852.9202	1011.1748	65535	64630.4
853.0653	1013.1691	65535	64630.15
853.2104	1015.1627	65535	64631.7
853.3555	1017.1556	65535	64628.35
853.5006	1019.1477	65535	64627.65
853.6457	1021.1392	65535	64632.25
853.7908	1023.1299	65535	64632.4
853.9359	1025.12	65535	64631.85
854.081	1027.1093	65535	64634.45
854.2261	1029.0979	65535	64635.3
854.3712	1031.0859	65535	64631.95
854.5163	1033.0731	65535	64630.15
854.6613	1035.0596	65535	64632.65
854.8064	1037.0454	65535	64632.05
854.9515	1039.0304	65535	64629.8
855.0965	1041.0148	65535	64629.4
855.2416	1042.9985	65535	64631.35
855.3867	1044.9814	65535	64633.25
855.5317	1046.9636	65535	64629.25
855.6768	1048.9452	65535	64633.15
855.8219	1050.926	65535	64630.65
855.9669	1052.9061	65535	64632.9
856.112	1054.8855	65535	64629.4
856.257	1056.8642	65535	64627.8
856.4021	1058.8421	65535	64626.9
856.5471	1060.8194	65535	64631.4
856.6921	1062.7959	65535	64630.85
856.8372	1064.7717	65535	64626.25
856.9822	1066.7469	65535	64629.65
857.1272	1068.7213	65535	64627.35
857.2723	1070.695	65535	64630.75
857.4173	1072.6679	65535	64630.85
857.5623	1074.6402	65535	64631.15
857.7073	1076.6117	65535	64624.5
857.8523	1078.5826	65535	64628.5
857.9973	1080.5527	65535	64629.2
858.1423	1082.5221	65535	64627.55
858.2873	1084.4908	65535	64628.9
858.4323	1086.4587	65535	64629.55
858.5773	1088.426	65535	64627.2
858.7223	1090.3925	65535	64625.45
858.8673	1092.3584	65535	64630.95
859.0123	1094.3235	65535	64632.95
859.1573	1096.2879	65535	64630.6
859.3022	1098.2515	65535	64629.5
859.4472	1100.2145	65535	64630.45
859.5922	1102.1767	65535	64628.9
859.7371	1104.1382	65535	64628.8
859.8821	1106.099	65535	64627.3
860.027	1108.0591	65535	64630
860.172	1110.0185	65535	64629.75
860.3169	1111.9771	65535	64629.5
860.4619	1113.9351	65535	64630.8
860.6068	1115.8923	65535	64629.6
860.7517	1117.8488	65535	64627.3
860.8967	1119.8045	65535	64630.55
861.0416	1121.7596	65535	64629.75
861.1865	1123.7139	65535	64630.7
861.3314	1125.6675	65535	64628.65
861.4763	1127.6204	65535	64631.2
861.6212	1129.5726	65535	64627.6
861.7661	1131.524	65535	64630.85
861.911	1133.4748	65535	64630.2
862.0559	1135.4248	65535	64629.45
862.2008	1137.3741	65535	64631.55
862.3457	1139.3226	65535	64626.75
862.4905	1141.2705	65535	64630.8
862.6354	1143.2176	65535	64624.7
862.7803	1145.164	65535	64628.95
862.9251	1147.1097	65535	64631.75
863.07	1149.0546	65535	64629.25
863.2148	1150.9989	65535	64633.55
863.3597	1152.9424	65535	64633.55
863.5045	1154.8852	65535	64631.1
863.6493	1156.8272	65535	64632.2
863.7942	1158.7686	65535	64622.25
863.939	1160.7092	65535	64628.75
864.0838	1162.6491	65535	64626.85
864.2286	1164.5883	65535	64629.55
864.3734	1166.5267	65535	64632.1
864.5182	1168.4644	65535	64630.45
864.663	1170.4014	65535	64627.55
864.8078	1172.3377	65535	64630.35
864.9526	1174.2732	65535	64629.8
865.0974	1176.2081	65535	64631.55
865.2421	1178.1421	65535	64626.35
865.3869	1180.0755	65535	64627.9
865.5317	1182.0082	65535	64630.25
865.6764	1183.9401	65535	64629
865.8212	1185.8713	65535	64630.35
865.9659	1187.8017	65535	64632.95
866.1106	1189.7315	65535	64635.55
866.2554	1191.6605	65535	64608.35
866.4001	1193.5888	65535	64632.65
866.5448	1195.5163	65535	64631.65
866.6895	1197.4432	65535	64631.2
866.8342	1199.3693	65535	64629.25
866.9789	1201.2947	65535	64627.3
867.1236	1203.2193	65535	64631.9
867.2683	1205.1432	65535	64631.25
867.413	1207.0664	65535	64631.5
867.5576	1208.9889	65535	64629.55
867.7023	1210.9106	65535	64631.8
867.847	1212.8316	65535	64632.85
867.9916	1214.7519	65535	64622.85
868.1363	1216.6715	65535	64629.7
868.2809	1218.5903	65535	64631.95
868.4255	1220.5084	65535	64631.55
868.5701	1222.4257	65535	64631.55
868.7148	1224.3424	65535	64632.7
868.8594	1226.2583	65535	64625.35
869.004	1228.1735	65535	64629.45
869.1486	1230.0879	65535	64630.35
869.2932	1232.0016	65535	64631.25
869.4377	1233.9146	65535	64628.45
869.5823	1235.8269	65535	64631.7
869.7269	1237.7384	65535	64631.95
869.8715	1239.6492	65535	64631.4
870.016	1241.5592	65535	64629.5
870.1606	1243.4686	65535	64633.05
870.3051	1245.3772	65535	64633.2
870.4496	1247.285	65535	64629.15
870.5941	1249.1922	65535	64628.4
870.7387	1251.0986	65535	64630.55
870.8832	1253.0042	65535	64631.35
871.0277	1254.9092	65535	64631.2
871.1722	1256.8134	65535	64634.3
871.3167	1258.7169	65535	64630.2
871.4611	1260.6196	65535	64631.5
871.6056	1262.5216	65535	64630.2
871.7501	1264.4229	65535	64632.15
871.8945	1266.3234	65535	64632.15
872.039	1268.2232	65535	64628.95
872.1834	1270.1223	65535	64630.05
872.3278	1272.0207	65535	64631.3
872.4723	1273.9183	65535	64626.05
872.6167	1275.8151	65535	64631.1
872.7611	1277.7113	65535	64632.45
872.9055	1279.6067	65535	64633.05
873.0499	1281.5014	65535	64630.75
873.1943	1283.3953	65535	64629
873.3386	1285.2885	65535	64634
873.483	1287.181	65535	64631.8
873.6274	1289.0727	65535	64632.35
873.7717	1290.9637	65535	64630.15
873.9161	1292.854	65535	64632.9
874.0604	1294.7435	65535	64630.15
874.2047	1296.6323	65535	64633.35
874.349	1298.5204	65535	64628.35
874.4933	1300.4077	65535	64629.5
874.6376	1302.2943	65535	64634.1
874.7819	1304.1802	65535	64633.45
874.9262	1306.0653	65535	64631.5
875.0705	1307.9497	65535	64632.85
875.2147	1309.8333	65535	64632.3
875.359	1311.7162	65535	64632.05
875.5032	1313.5984	65535	64630
875.6475	1315.4798	65535	64631.1
875.7917	1317.3605	65535	64616.75
875.9359	1319.2405	65535	64630.4
876.0801	1321.1197	65535	64630.7
876.2243	1322.9982	65535	64627.9
876.3685	1324.876	65535	64630.7
876.5127	1326.753	65535	64631.65
876.6569	1328.6293	65535	64630.5
876.801	1330.5048	65535	64630
876.9452	1332.3796	65535	64632.9
877.0893	1334.2537	65535	64608.95
877.2335	1336.127	65535	64633.45
877.3776	1337.9996	65535	64631.45
877.5217	1339.8714	65535	64632.65
877.6658	1341.7426	65535	64588.35
877.8099	1343.6129	65535	64631.35
877.954	1345.4826	65535	64632.4
878.0981	1347.3515	65535	64630.05
878.2422	1349.2196	65535	64630.3
878.3862	1351.087	65535	64631.75
878.5303	1352.9537	65535	64629.15
878.6743	1354.8197	65535	64631.55
878.8184	1356.6849	65535	64631.55
878.9624	1358.5493	65535	64633.3
879.1064	1360.4131	65535	64631.8
879.2504	1362.276	65535	64632.3
879.3944	1364.1383	65535	64632.5
879.5384	1365.9998	65535	64625.3
879.6823	1367.8606	65535	64630.1
879.8263	1369.7206	65535	64630.45
879.9702	1371.5799	65535	64629.1
880.1142	1373.4384	65535	64632.05
880.2581	1375.2962	65535	64629.7
880.402	1377.1533	65535	64631.75
880.5459	1379.0096	65535	64632.9
880.6898	1380.8652	65535	64631.8
880.8337	1382.7201	65535	64633.35
880.9776	1384.5742	65535	64631.5
881.1215	1386.4275	65535	64633.25
881.2653	1388.2802	65535	64634.3
881.4092	1390.132	65535	64635
881.553	1391.9832	65535	64633.85
881.6968	1393.8336	65535	64632.45
881.8406	1395.6832	65535	64630.2
881.9844	1397.5322	65535	64633.6
882.1282	1399.3803	65535	64624.35
882.272	1401.2278	65535	64632.55
882.4158	1403.0745	65535	64633
882.5595	1404.9204	65535	64633.15
882.7033	1406.7656	65535	64631.25
882.847	1408.6101	65535	64631.95
882.9908	1410.4538	65535	64633.35
883.1345	1412.2968	65535	64632.4
883.2782	1414.139	65535	64632.2
883.4219	1415.9805	65535	64631.25
883.5656	1417.8213	65535	64627.55
883.7092	1419.6613	65535	64633.45
883.8529	1421.5006	65535	64631.55
883.9965	1423.3391	65535	64634.15
884.1402	1425.1769	65535	64632.05
884.2838	1427.0139	65535	64634.75
884.4274	1428.8502	65535	64630.4
884.571	1430.6858	65535	64632.75
884.7146	1432.5206	65535	64631.2
884.8582	1434.3547	65535	64632.4
885.0018	1436.188	65535	64632.5
885.1453	1438.0206	65535	64632
885.2889	1439.8524	65535	64632.8
885.4324	1441.6835	65535	64633.55
885.5759	1443.5139	65535	64631.35
885.7194	1445.3435	65535	64632.6
885.8629	1447.1724	65535	64633.25
886.0064	1449.0005	65535	64635.4
886.1499	1450.8279	65535	64631.2
886.2933	1452.6545	65535	64632.65
886.4368	1454.4804	65535	64634.8
886.5802	1456.3056	65535	64627.3
886.7237	1458.13	65535	64635.25
886.8671	1459.9536	65535	64633.15
887.0105	1461.7766	65535	64632.75
887.1539	1463.5987	65535	64632.8
887.2972	1465.4202	65535	64636.7
887.4406	1467.2409	65535	64632.55
887.584	1469.0608	65535	64635.25
887.7273	1470.88	65535	64632.95
887.8706	1472.6984	65535	64632.75
888.0139	1474.5161	65535	64629.2
888.1572	1476.3331	65535	64632.9
888.3005	1478.1493	65535	64633.3
888.4438	1479.9648	65535	64632.75
888.5871	1481.7795	65535	64634.1
888.7303	1483.5935	65535	64633.95
888.8736	1485.4067	65535	64635.05
889.0168	1487.2192	65535	64632.8
889.16	1489.031	65535	64631.25
889.3032	1490.842	65535	64633.15
889.4464	1492.6522	65535	64634.7
889.5896	1494.4618	65535	64631.15
889.7327	1496.2705	65535	64634.55
889.8759	1498.0785	65535	64635
890.019	1499.8858	65535	64633.35
890.1622	1501.6924	65535	64634.3
890.3053	1503.4981	65535	64634.1
890.4484	1505.3032	65535	64633.9
890.5914	1507.1075	65535	64634.85
890.7345	1508.911	65535	64632
890.8776	1510.7138	65535	64635.5
891.0206	1512.5159	65535	64633.9
891.1637	1514.3172	65535	64632.3
891.3067	1516.1178	65535	64633.85
891.4497	1517.9176	65535	64630.55
891.5927	1519.7166	65535	64634.45
891.7357	1521.515	65535	64629.05
891.8786	1523.3126	65535	64634.6
892.0216	1525.1094	65535	64632.7
892.1645	1526.9055	65535	64634.5
892.3074	1528.7008	65535	64635.4
892.4503	1530.4954	65535	64627.75
892.5932	1532.2893	65535	64634.7
892.7361	1534.0824	65535	64631.4
892.879	1535.8747	65535	64633
893.0218	1537.6663	65535	64634.45
893.1647	1539.4572	65535	64633.6
893.3075	1541.2473	65535	64634.4
893.4503	1543.0367	65535	64636.55
893.5931	1544.8253	65535	64630.05
893.7359	1546.6132	65535	64631
893.8787	1548.4003	65535	64624.9
894.0214	1550.1867	65535	64625.85
894.1642	1551.9723	65535	64631.05
894.3069	1553.7572	65535	64636.35
894.4496	1555.5414	65535	64637.5
894.5923	1557.3247	65535	64636.3
894.735	1559.1074	65535	64637.9
894.8777	1560.8893	65535	64637.75
895.0204	1562.6705	65535	64635.65
895.163	1564.4509	65535	64635.4
895.3056	1566.2305	65535	64637
895.4482	1568.0094	65535	64637.95
895.5908	1569.7876	65535	64635.85
895.7334	1571.565	65535	64638.35
895.876	1573.3417	65535	64638.15
896.0186	1575.1176	65535	64638.2
896.1611	1576.8928	65535	64637.4
896.3036	1578.6672	65535	64639.05
896.4461	1580.4409	65535	64639.15
896.5886	1582.2138	65535	64635.9
896.7311	1583.986	65535	64637.65
896.8736	1585.7575	65535	64637.95
897.0161	1587.5282	65535	64637.15
897.1585	1589.2981	65535	64638.25
897.3009	1591.0673	65535	64639.8
897.4433	1592.8358	65535	64639.2
897.5857	1594.6035	65535	64634.5
897.7281	1596.3704	65535	64639.1
897.8705	1598.1366	65535	64637.4
898.0128	1599.9021	65535	64639
898.1551	1601.6668	65535	64638.15
898.2975	1603.4308	65535	64636.05
898.4398	1605.194	65535	64634.75
898.5821	1606.9564	65535	64640.35
898.7243	1608.7182	65535	64636.1
898.8666	1610.4791	65535	64641.85
899.0088	1612.2394	65535	64640.6
899.1511	1613.9988	65535	64640.85
899.2933	1615.7576	65535	64637.45
899.4355	1617.5156	65535	64630.85
899.5776	1619.2728	65535	64640.1
899.7198	1621.0293	65535	64638.7
899.862	1622.785	65535	64636.05
900.0041	1624.54	65535	64633.85
900.1462	1626.2942	65535	64637.95
900.2883	1628.0477	65535	64636.05
900.4304	1629.8005	65535	64634.55
900.5725	1631.5525	65535	64640.55
900.7145	1633.3037	65535	64641.5
900.8566	1635.0542	65535	64638.6
900.9986	1636.804	65535	64641.95
901.1406	1638.553	65535	64549.35
901.2826	1640.3013	65535	64641.25
901.4245	1642.0488	65535	64639.75
901.5665	1643.7955	65535	64641
901.7085	1645.5416	65535	64639.85
901.8504	1647.2868	65535	64639.35
901.9923	1649.0313	65535	64638.95
902.1342	1650.7751	65535	64636.7
902.2761	1652.5181	65535	64640.25
902.4179	1654.2604	65535	64639.3
902.5598	1656.0019	65535	64640.85
902.7016	1657.7427	65535	64640.1
902.8434	1659.4828	65535	64641.85
902.9852	1661.222	65535	64638.75
903.127	1662.9606	65535	64641.8
903.2687	1664.6984	65535	64640.4
903.4105	1666.4354	65535	64638.05
903.5522	1668.1717	65535	64637.8
903.6939	1669.9072	65535	64637.3
903.8356	1671.642	65535	64638.25
903.9773	1673.3761	65535	64640.9
904.119	1675.1094	65535	64639.15
904.2606	1676.8419	65535	64640.7
904.4022	1678.5737	65535	64640.6
904.5439	1680.3048	65535	64641.35
904.6855	1682.0351	65535	64639.75
904.827	1683.7646	65535	64634.85
904.9686	1685.4934	65535	64640.3
905.1101	1687.2215	65527	64631.4
905.2517	1688.9488	65535	64641.95
905.3932	1690.6754	65501.4	64608.85
905.5347	1692.4012	65527.65	64633.1
905.6761	1694.1263	65535	64642.7
905.8176	1695.8506	65512.85	64616.7
905.9591	1697.5742	65523.3	64630.45
906.1005	1699.297	65518.6	64623.6
906.2419	1701.0191	65521.65	64628.05
906.3833	1702.7404	65446.2	64554.75
906.5246	1704.461	65415.65	64519.8
906.666	1706.1808	65497.1	64601.6
906.8073	1707.8999	65458.4	64563.15
906.9487	1709.6182	65445.65	64554.25
907.09	1711.3358	65434.5	64540.6
907.2313	1713.0527	65417.65	64526.45
907.3725	1714.7688	65425.7	64529.15
907.5138	1716.4841	65303.4	64408.2
907.655	1718.1987	65363	64463.85
907.7962	1719.9126	65299.8	64406.75
907.9374	1721.6257	65367.9	64472.55
908.0786	1723.338	65369.35	64474.95
908.2198	1725.0496	65071.15	64176.75
908.3609	1726.7605	65139.55	64243.25
908.502	1728.4706	64994.15	64101.35
908.6431	1730.18	65168.25	64272.55
908.7842	1731.8886	64963.1	64072.65
908.9253	1733.5964	64865.7	63967.15
909.0664	1735.3036	65104.2	64209.05
909.2074	1737.0099	64908.65	64014.05
909.3484	1738.7156	64757.05	63864.7
909.4894	1740.4204	64707.25	63810.6
909.6304	1742.1246	64780.4	63884.95
909.7714	1743.8279	64847	63957.05
909.9123	1745.5306	64788.3	63896.05
910.0532	1747.2325	64061.6	63167.85
910.1941	1748.9336	64106.1	63215.1
910.335	1750.634	64374.25	63479.8
910.4759	1752.3336	64575.2	63683.85
910.6168	1754.0325	63972.65	63082.15
910.7576	1755.7307	64555.6	63664.4
910.8984	1757.4281	63816.85	62922.8
911.0392	1759.1247	64366.25	63464.95
911.18	1760.8206	63486.95	62588.45
911.3208	1762.5158	63620.8	62724.8
911.4615	1764.2102	63860.7	62968.5
911.6022	1765.9039	63689.4	62797
911.7429	1767.5968	63449.95	62559.5
911.8836	1769.289	63327.6	62436.45
912.0243	1770.9804	63537.9	62642.5
912.1649	1772.6711	63315	62423.75
912.3056	1774.361	63115.35	62221.65
912.4462	1776.0502	63179.4	62283.9
912.5868	1777.7386	62359.5	61463.05
912.7274	1779.4263	62893.7	61999.95
912.8679	1781.1132	62802.8	61909.2
913.0084	1782.7994	62674	61780.9
913.149	1784.4849	62679.5	61788.7
913.2895	1786.1696	61650.5	60749.25
913.4299	1787.8535	62320.95	61431.2
913.5704	1789.5367	62464.5	61575.5
913.7108	1791.2192	61805.8	60913.55
913.8513	1792.9009	61389	60464.65
913.9917	1794.5818	61933.2	61038.2
914.132	1796.2621	61345.7	60453.85
914.2724	1797.9415	61431.35	60540.25
914.4128	1799.6202	61316.5	60425.05
914.5531	1801.2982	61339.65	60446.6
914.6934	1802.9755	60679.85	59787.05
914.8337	1804.6519	60475.45	59581.55
914.9739	1806.3277	61399.2	60509.05
915.1142	1808.0027	59979.7	59090.55
915.2544	1809.6769	60466.45	59574.1
915.3946	1811.3504	60601.75	59708.6
915.5348	1813.0231	59515.1	58623.2
915.675	1814.6951	60218.4	59326.55
915.8151	1816.3664	59689.4	58793.35
915.9553	1818.0369	59815.85	58924.3
916.0954	1819.7067	59524.45	58633.75
916.2355	1821.3757	60112.35	59218.15
916.3755	1823.044	59153.5	58264.05
916.5156	1824.7115	58695.2	57803.15
916.6556	1826.3783	59032.5	58140.35
916.7956	1828.0443	59070.8	58180.55
916.9356	1829.7096	58673.15	57779.2
917.0756	1831.3741	58007.4	57114.75
917.2155	1833.0379	58407.85	57514.7
917.3555	1834.701	58392.75	57498.45
917.4954	1836.3633	57881.25	56989.8
917.6353	1838.0248	58153.9	57257.6
917.7751	1839.6856	57924.15	57034.4
917.915	1841.3457	57354.05	56464.9
918.0548	1843.005	57991.85	57100.45
918.1946	1844.6636	57584.6	56692.65
918.3344	1846.3214	56874.45	55981.05
918.4742	1847.9785	57088.95	56197.05
918.6139	1849.6349	56984.6	56090.95
918.7537	1851.2904	57417.55	56516
918.8934	1852.9453	56559.85	55667
919.0331	1854.5994	56768.75	55874.15
919.1727	1856.2528	56859.7	55962.7
919.3124	1857.9054	56336.8	55444.4
919.452	1859.5572	56143.6	55253.85
919.5916	1861.2083	56245.55	55354.1
919.7312	1862.8587	56788.45	55894.45
919.8708	1864.5084	55483.3	54588.75
920.0103	1866.1572	56015.45	55124.1
920.1498	1867.8054	55269.4	54376.4
920.2893	1869.4528	55702.9	54809.55
920.4288	1871.0994	55116.05	54224.55
920.5683	1872.7453	55154.9	54261.25
920.7077	1874.3905	55299.65	54403.2
920.8471	1876.0349	54821.85	53927.25
920.9865	1877.6786	55093.4	54200.8
921.1259	1879.3215	54678.9	53787.45
921.2653	1880.9637	55012.6	54119.85
921.4046	1882.6051	54533.8	53642.8
921.5439	1884.2458	54228.75	53333.75
921.6832	1885.8858	53960.1	53068.45
921.8225	1887.525	54125.05	53230.85
921.9617	1889.1634	53958.45	53067.15
922.101	1890.8011	53705.4	52811.85
922.2402	1892.4381	53209	52318.9
922.3794	1894.0743	53664.85	52773.95
922.5185	1895.7098	53323.55	52431.4
922.6577	1897.3446	52917.05	52025.2
922.7968	1898.9786	53091.35	52195.1
922.9359	1900.6118	52828.6	51937.25
923.075	1902.2443	52547.35	51651.95
923.214	1903.8761	52706.3	51814.35
923.3531	1905.5071	52352.05	51460.6
923.4921	1907.1374	51829.55	50938.15
923.6311	1908.7669	51963.55	51071.95
923.77	1910.3957	52090.05	51196.9
923.909	1912.0237	51536.85	50644.9
924.0479	1913.651	51375.25	50479.6
924.1868	1915.2776	51220.5	50329.8
924.3257	1916.9034	51111.95	50222.85
924.4646	1918.5285	50945.35	50056.85
924.6034	1920.1528	50770.5	49880
924.7422	1921.7764	50615.35	49724.45
924.881	1923.3992	50410.35	49521.7
925.0198	1925.0213	50124.4	49229.95
925.1586	1926.6427	49773.3	48882.8
925.2973	1928.2633	49939.75	48968.15
925.436	1929.8832	49675.7	48782.85
925.5747	1931.5023	49428.65	48536.85
925.7134	1933.1207	49190.25	48298.7
925.852	1934.7383	49262.45	48371.95
925.9906	1936.3552	48957.6	48067.2
926.1292	1937.9714	48840.15	47946.45
926.2678	1939.5868	48712.45	47820.1
926.4064	1941.2015	48335.9	47443.15
926.5449	1942.8154	48155.55	47262.2
926.6834	1944.4286	48050.15	47160.4
926.8219	1946.041	47983.3	47073.05
926.9604	1947.6528	47617.4	46722.35
927.0988	1949.2637	47510.9	46620.45
927.2372	1950.8739	47321.35	46429.05
927.3756	1952.4834	47317.3	46425.55
927.514	1954.0921	47183.45	46291.2
927.6523	1955.7001	46912	46018.55
927.7907	1957.3074	46889.1	45998.75
927.929	1958.9139	46600.6	45710.5
928.0673	1960.5197	46459.25	45567.8
928.2055	1962.1247	46232.6	45340.5
928.3438	1963.729	46006.45	45116.65
928.482	1965.3325	45923.75	45010.55
928.6202	1966.9353	45769.8	44881.25
928.7584	1968.5374	45558.4	44666.8
928.8965	1970.1387	45438.9	44548.75
929.0346	1971.7393	45253.15	44363.95
929.1727	1973.3392	45153.15	44262.35
929.3108	1974.9383	44941.3	44050.7
929.4489	1976.5366	44695.8	43807.1
929.5869	1978.1342	44693.65	43801.2
929.7249	1979.7311	44568.65	43676.75
929.8629	1981.3273	44414.9	43523.5
930.0009	1982.9227	44232.3	43340.55
930.1388	1984.5173	44102.45	43212.05
930.2767	1986.1112	43919.4	43029.5
930.4146	1987.7044	43920.85	43031.15
930.5525	1989.2968	43617.4	42727.25
930.6904	1990.8885	43599.3	42706.2
930.8282	1992.4795	43432.15	42540.85
930.966	1994.0697	43267.35	42377.55
931.1038	1995.6592	43152.15	42262.85
931.2415	1997.2479	43003.35	42112.1
931.3793	1998.8359	42867.9	41979.5
931.517	2000.4232	42665.7	41776.95
931.6547	2002.0097	42576.2	41686.6
931.7923	2003.5955	42325.6	41433.8
931.93	2005.1805	42293	41401.65
932.0676	2006.7648	42214.8	41324.15
932.2052	2008.3484	42007.3	41117.5
932.3427	2009.9312	42019.1	41127.5
932.4803	2011.5133	41828.85	40940.05
932.6178	2013.0946	41700.25	40813.5
932.7553	2014.6752	41620.75	40732.5
932.8928	2016.2551	41489.15	40600.35
933.0302	2017.8342	41302.95	40413.35
933.1676	2019.4126	41137.05	40248.45
933.305	2020.9902	40955.3	40067.3
933.4424	2022.5672	40822.3	39931.4
933.5798	2024.1433	40743.15	39847.65
933.7171	2025.7188	40596.4	39706.3
933.8544	2027.2935	40476.1	39585.9
933.9917	2028.8674	40310.4	39421.85
934.129	2030.4406	40210.7	39323.5
934.2662	2032.0131	40005.3	39118.3
934.4034	2033.5849	39923.25	39027.35
934.5406	2035.1559	39874.65	38984.9
934.6778	2036.7261	39783.15	38893.95
934.8149	2038.2957	39615	38726.95
934.952	2039.8645	39557.35	38667.55
935.0891	2041.4325	39602.35	38712.25
935.2262	2042.9998	39365.45	38477.05
935.3632	2044.5664	39257.2	38367.1
935.5002	2046.1323	39175.4	38286.1
935.6372	2047.6974	38979.3	38090.3
935.7742	2049.2617	38863.75	37973
935.9111	2050.8254	38827.1	37932.2
936.048	2052.3883	38770.75	37880.2
936.1849	2053.9504	38635.4	37744.55
936.3218	2055.5118	38467.25	37576.7
936.4586	2057.0725	38268.4	37374.95
936.5955	2058.6325	38193.85	37304.95
936.7323	2060.1917	38072.4	37183.7
936.869	2061.7502	38035.6	37142.1
937.0058	2063.3079	37824.1	36935.5
937.1425	2064.8649	37666.2	36773.95
937.2792	2066.4212	37608	36718.7
937.4159	2067.9767	37460.4	36571.5
937.5525	2069.5315	37316.45	36426.2
937.6891	2071.0856	37198.05	36309.05
937.8257	2072.6389	37009.65	36119.6
937.9623	2074.1915	36891.9	36007
938.0989	2075.7433	36678.6	35789.05
938.2354	2077.2945	36589.95	35701.25
938.3719	2078.8448	36484.95	35595.35
938.5084	2080.3945	36350.55	35462.1
938.6448	2081.9434	36315.8	35425.55
938.7812	2083.4916	36177.7	35287.95
938.9176	2085.039	35960.1	35067.65
939.054	2086.5857	35931.05	35040.4
939.1903	2088.1317	35916.25	35026.6
939.3267	2089.677	35767.9	34876.8
939.463	2091.2215	35652.7	34763
939.5992	2092.7652	35495.5	34604.8
939.7355	2094.3083	35453.25	34562.45
939.8717	2095.8506	35420.55	34531.25
940.0079	2097.3921	35343.65	34454.8
940.1441	2098.933	35143.9	34255.15
940.2802	2100.4731	35110.6	34221.4
940.4163	2102.0124	35013.95	34115.15
940.5524	2103.5511	34944.55	34054.4
940.6885	2105.089	34909.4	34020.05
940.8245	2106.6261	34749.55	33860.8
940.9606	2108.1626	34664.45	33772.5
941.0965	2109.6983	34585.85	33669.25
941.2325	2111.2332	34458.65	33567.8
941.3684	2112.7675	34361.4	33468.9
941.5044	2114.301	34268.1	33375.65
941.6403	2115.8337	34265.65	33375.4
941.7761	2117.3657	34084.95	33195.05
941.912	2118.897	34025.65	33134.8
942.0478	2120.4276	33878.1	32983.55
942.1835	2121.9575	33725.4	32837.3
942.3193	2123.4866	33743.6	32836.35
942.455	2125.0149	33624.85	32730.8
942.5907	2126.5426	33418.4	32526.45
942.7264	2128.0695	33363.05	32469.15
942.8621	2129.5956	33287.1	32400.25
942.9977	2131.1211	33200.65	32306.35
943.1333	2132.6458	33101.55	32211.1
943.2689	2134.1698	33033.1	32144.2
943.4044	2135.693	32880.15	31985.95
943.54	2137.2155	32848.85	31957.75
943.6755	2138.7373	32765.1	31875.9
943.8109	2140.2584	32620.1	31730.75
943.9464	2141.7787	32515.25	31621.2
944.0818	2143.2983	32338.95	31449.95
944.2172	2144.8171	32228.05	31340.55
944.3526	2146.3353	32151.75	31261.15
944.4879	2147.8527	32022.25	31131.85
944.6232	2149.3693	32006.5	31116.8
944.7585	2150.8853	31882.7	30991.7
944.8938	2152.4005	31733.55	30843.7
945.029	2153.9149	31648.3	30756.4
945.1642	2155.4287	31522.9	30633.35
945.2994	2156.9417	31469.55	30577.7
945.4346	2158.454	31417.7	30526.2
945.5697	2159.9655	31305.9	30417.45
945.7048	2161.4764	31224.6	30335.5
945.8399	2162.9865	31128.95	30239.45
945.9749	2164.4958	31085.4	30196.75
946.1099	2166.0045	30933.2	30040.6
946.2449	2167.5124	30916.4	30026.95
946.3799	2169.0195	30812.55	29925.2
946.5148	2170.526	30767.55	29874.6
946.6498	2172.0317	30611.85	29721.65
946.7846	2173.5367	30531.35	29640.35
946.9195	2175.0409	30442.4	29554.25
947.0543	2176.5445	30401.8	29516.05
947.1891	2178.0473	30295.1	29404.25
947.3239	2179.5494	30156.55	29263.85
947.4587	2181.0507	30025.25	29134
947.5934	2182.5513	29960.25	29070.1
947.7281	2184.0512	29898.7	29010.3
947.8628	2185.5504	29753.55	28864.65
947.9974	2187.0488	29566.6	28676.05
948.132	2188.5465	29535.4	28647.8
948.2666	2190.0435	29407.1	28516.75
948.4012	2191.5397	29327.4	28437.55
948.5357	2193.0353	29224.45	28332.45
948.6702	2194.5301	29045.85	28152.3
948.8047	2196.0241	29000.6	28108.1
948.9392	2197.5175	28897.8	28007.2
949.0736	2199.0101	28775.4	27882.8
949.208	2200.502	28649.5	27761.3
949.3424	2201.9931	28561.25	27671.65
949.4767	2203.4835	28419.55	27529.15
949.611	2204.9733	28381.6	27486
949.7453	2206.4622	28259.5	27372.8
949.8796	2207.9505	28146.25	27254.35
950.0138	2209.438	28047.75	27160.5
950.148	2210.9248	27970.1	27078.4
950.2822	2212.4109	27858.3	26969.55
950.4164	2213.8962	27731.6	26840.2
950.5505	2215.3809	27697.75	26806.8
950.6846	2216.8648	27675.8	26785.1
950.8186	2218.3479	27518.95	26624.7
950.9527	2219.8304	27401.8	26507.35
951.0867	2221.3121	27309.8	26415.9
951.2207	2222.7931	27195.05	26305.9
951.3546	2224.2733	27089.85	26200.2
951.4886	2225.7529	26988.3	26096.45
951.6225	2227.2317	26921.2	26028.1
951.7563	2228.7098	26905.95	26017.35
951.8902	2230.1872	26715	25825.2
952.024	2231.6638	26725.3	25835.3
952.1578	2233.1397	26592.85	25697.7
952.2916	2234.6149	26502.25	25612.6
952.4253	2236.0894	26455.05	25566.05
952.559	2237.5632	26304.3	25414.7
952.6927	2239.0362	26226.3	25336.4
952.8263	2240.5085	26148.65	25258.65
952.9599	2241.9801	26069.55	25179.65
953.0935	2243.4509	25992.6	25104.25
953.2271	2244.921	25855.35	24965.2
953.3606	2246.3904	25729.3	24838.85
953.4941	2247.8591	25703.4	24814
953.6276	2249.3271	25625.35	24735.15
953.7611	2250.7943	25530.2	24638.55
953.8945	2252.2608	25412.45	24522.55
954.0279	2253.7266	25343.15	24455.85
954.1612	2255.1917	25286.5	24397.6
954.2946	2256.656	25168	24279.4
954.4279	2258.1197	25067.9	24180
954.5612	2259.5826	25017.9	24124.15
954.6944	2261.0447	24989.75	24096.3
954.8276	2262.5062	24830.95	23939.25
954.9608	2263.9669	24797.9	23906.15
955.094	2265.4269	24736.8	23848.4
955.2271	2266.8862	24643.75	23755
955.3602	2268.3448	24614.8	23725
955.4933	2269.8026	24522.4	23631.5
955.6264	2271.2598	24450.25	23561.2
955.7594	2272.7162	24377.9	23491
955.8924	2274.1719	24289.45	23398.9
956.0253	2275.6268	24223.25	23333.15
956.1583	2277.0811	24144.25	23253.35
956.2912	2278.5346	24111.2	23221.85
956.4241	2279.9874	24047.2	23155.45
956.5569	2281.4395	23961.2	23072.15
956.6897	2282.8908	23862.4	22968.35
956.8225	2284.3414	23846.75	22956.35
956.9553	2285.7914	23761.75	22872.6
957.088	2287.2406	23636	22745.7
957.2207	2288.689	23522.65	22633.1
957.3534	2290.1368	23473.15	22583.4
957.486	2291.5838	23411.4	22518
957.6186	2293.0302	23334.05	22442.5
957.7512	2294.4758	23251.35	22359.75
957.8838	2295.9206	23151	22259.5
958.0163	2297.3648	23080.75	22192.25
958.1488	2298.8082	23059.1	22168.05
958.2813	2300.251	22994.05	22104.85
958.4137	2301.693	22931.3	22039.25
958.5461	2303.1343	22882.2	21992.5
958.6785	2304.5748	22808.7	21919.15
958.8108	2306.0147	22686	21795.75
958.9432	2307.4538	22640.35	21750.3
959.0754	2308.8922	22576.5	21687.75
959.2077	2310.3299	22505.5	21615.2
959.3399	2311.7669	22424.3	21536
959.4721	2313.2031	22336.3	21446.95
959.6043	2314.6387	22250.7	21359.45
959.7365	2316.0735	22181.8	21291.95
959.8686	2317.5076	22104.4	21214.15
960.0006	2318.941	22034.5	21143.95
960.1327	2320.3737	21986.15	21094.3
960.2647	2321.8056	21932.25	21039.15
960.3967	2323.2369	21838.3	20948
960.5287	2324.6674	21792.3	20899.6
960.6606	2326.0972	21696.2	20805.7
960.7925	2327.5263	21581.25	20693.3
960.9244	2328.9547	21519.4	20628.55
961.0562	2330.3823	21490.1	20601.45
961.1881	2331.8092	21438.35	20547.15
961.3198	2333.2355	21348.75	20458.45
961.4516	2334.661	21336.75	20445.65
961.5833	2336.0858	21258.5	20365
961.715	2337.5098	21204.35	20314.65
961.8467	2338.9332	21115.2	20224.15
961.9783	2340.3558	21029.45	20137.05
962.1099	2341.7778	20972.6	20081.85
962.2415	2343.199	20878.05	19986.65
962.373	2344.6195	20815.6	19926.05
962.5045	2346.0393	20798.35	19908.3
962.636	2347.4583	20734.45	19842.7
962.7675	2348.8767	20633.75	19743.9
962.8989	2350.2943	20591.9	19701.05
963.0303	2351.7113	20575.95	19684.9
963.1617	2353.1275	20486.7	19595.25
963.293	2354.543	20399.5	19500.95
963.4243	2355.9578	20373.7	19483.4
963.5556	2357.3718	20235	19345.25
963.6868	2358.7852	20127.15	19234.65
963.818	2360.1978	20080.45	19191
963.9492	2361.6098	20045.8	19156.9
964.0803	2363.021	19958.25	19067.65
964.2114	2364.4315	19901.35	19011.6
964.3425	2365.8413	19842.65	18951.7
964.4736	2367.2504	19778.85	18891.2
964.6046	2368.6587	19697.7	18808.3
964.7356	2370.0664	19572.6	18683.55
964.8666	2371.4733	19527.05	18637.6
964.9975	2372.8795	19428.3	18539.05
965.1284	2374.285	19365.8	18475.35
965.2593	2375.6899	19258.05	18368.9
965.3901	2377.0939	19178	18288.2
965.5209	2378.4973	19139.4	18252.75
965.6517	2379.9	19050.35	18162.95
965.7825	2381.3019	18976.8	18089.3
965.9132	2382.7032	18911.15	18022.2
966.0439	2384.1037	18891.05	18003
966.1745	2385.5035	18818.5	17929.8
966.3051	2386.9027	18766.35	17879.05
966.4357	2388.3011	18707.7	17814.4
966.5663	2389.6987	18652.2	17762.6
966.6968	2391.0957	18559.7	17672
966.8273	2392.492	18458.7	17570.45
966.9578	2393.8876	18361.6	17474.9
967.0882	2395.2824	18304.5	17416.3
967.2186	2396.6765	18231.6	17341.75
967.349	2398.07	18117.8	17228.8
967.4793	2399.4627	18088.4	17199.15
967.6097	2400.8547	18079.9	17190.5
967.7399	2402.246	17967.35	17072.8
967.8702	2403.6366	17877.55	16987.7
968.0004	2405.0265	17774.75	16885.55
968.1306	2406.4156	17729.6	16838.9
968.2607	2407.8041	17656.05	16764.15
968.3909	2409.1918	17597.5	16704.7
968.521	2410.5789	17534.6	16644.4
968.651	2411.9652	17462.5	16571.55
968.781	2413.3508	17396.85	16507.55
968.911	2414.7358	17306.45	16415.95
969.041	2416.12	17224.85	16337.45
969.1709	2417.5035	17212.95	16324.5
969.3008	2418.8863	17156.15	16265.15
969.4307	2420.2684	17096.3	16208.15
969.5606	2421.6497	16979.75	16089.25
969.6904	2423.0304	16900.8	16014.45
969.8201	2424.4104	16897.75	16009
969.9499	2425.7896	16837.05	15945.45
970.0796	2427.1682	16797.9	15909.05
970.2093	2428.546	16755.05	15865.7
970.3389	2429.9232	16700.45	15810.15
970.4685	2431.2996	16644.5	15756.55
970.5981	2432.6753	16582.9	15693.7
970.7277	2434.0503	16559.3	15669.95
970.8572	2435.4246	16473.55	15584.15
970.9867	2436.7982	16425.45	15535.3
971.1161	2438.1711	16361.4	15473
971.2456	2439.5433	16286.2	15396.05
971.375	2440.9148	16286	15391.3
971.5043	2442.2856	16195.05	15307.55
971.6336	2443.6557	16120.55	15229.35
971.7629	2445.025	16069.1	15180.3
971.8922	2446.3937	16043.2	15153
972.0214	2447.7617	15970.65	15081.4
972.1506	2449.1289	15929.05	15040
972.2798	2450.4955	15879.15	14989.3
972.4089	2451.8613	15805.95	14917.95
972.538	2453.2265	15736.7	14848.6
972.6671	2454.5909	15735.3	14844.7
972.7961	2455.9546	15687.6	14798.65
972.9251	2457.3177	15635.3	14746.1
973.0541	2458.68	15586.55	14696.7
973.1831	2460.0416	15565	14674.7
973.312	2461.4025	15526.3	14636.45
973.4408	2462.7627	15465.95	14563.6
973.5697	2464.1222	15439.95	14550.95
973.6985	2465.4811	15354.15	14465.3
973.8273	2466.8392	15303.75	14413.8
973.956	2468.1966	15264.75	14375.15
974.0847	2469.5533	15221.9	14329.95
974.2134	2470.9093	15190.75	14301.15
974.3421	2472.2645	15107.6	14217.2
974.4707	2473.6191	15076.8	14189.35
974.5993	2474.973	15022.85	14134.15
974.7278	2476.3262	14961.45	14070.45
974.8563	2477.6787	14916.75	14028.05
974.9848	2479.0305	14809.55	13921.9
975.1132	2480.3816	14791.55	13903.1
975.2417	2481.7319	14756.45	13866.15
975.37	2483.0816	14676.15	13784.4
975.4984	2484.4306	14635.35	13745.1
975.6267	2485.7789	14564.8	13677.55
975.755	2487.1264	14477.75	13587.95
975.8833	2488.4733	14427.4	13540.25
976.0115	2489.8195	14395.6	13490.65
976.1397	2491.165	14343.15	13451
976.2678	2492.5097	14266.75	13374.85
976.3959	2493.8538	14216.95	13327.75
976.524	2495.1972	14137.35	13247.75
976.6521	2496.5398	14072.65	13182.55
976.7801	2497.8818	14030.85	13140.05
976.9081	2499.2231	13989	13101.75
977.036	2500.5637	13970.7	13080.45
977.164	2501.9035	13916.05	13025.8
977.2918	2503.2427	13869.9	12974.6
977.4197	2504.5812	13810.65	12920.05
977.5475	2505.919	13823.35	12931.2
977.6753	2507.256	13770.55	12882.15
977.8031	2508.5924	13715	12825.05
977.9308	2509.9281	13623.7	12729.45
978.0585	2511.2631	13572.45	12683.45
978.1861	2512.5974	13591.25	12702.85
978.3137	2513.9309	13517.25	12628.85
978.4413	2515.2638	13486.15	12571.5
978.5689	2516.596	13401.8	12511.9
978.6964	2517.9275	13334.2	12442.95
978.8239	2519.2583	13305	12415.45
978.9513	2520.5884	13260.95	12370.55
979.0788	2521.9178	13209.55	12319.7
979.2062	2523.2465	13177.75	12289.3
979.3335	2524.5745	13102.25	12214.45
979.4608	2525.9018	13058.1	12169.75
979.5881	2527.2284	13026.5	12139.15
979.7154	2528.5543	12994.55	12103.95
979.8426	2529.8796	12957.95	12066
979.9698	2531.2041	12906.1	12017.8
980.0969	2532.5279	12874.35	11986.6
980.224	2533.851	12847	11958.65
980.3511	2535.1735	12809.9	11920.3
980.4781	2536.4952	12777.45	11887.55
980.6052	2537.8163	12733.5	11842.3
980.7321	2539.1366	12711.75	11823
980.8591	2540.4562	12654.5	11766.15
980.986	2541.7752	12642.45	11754.3
981.1129	2543.0935	12602.4	11712.65
981.2397	2544.411	12579.25	11688.35
981.3665	2545.7279	12546.25	11657.1
981.4933	2547.0441	12514.95	11625.25
981.62	2548.3596	12503.25	11610.75
981.7467	2549.6744	12471.8	11583.75
981.8734	2550.9885	12411.7	11515.35
982.0001	2552.3019	12368.4	11478.4
982.1267	2553.6146	12371.4	11481.65
982.2532	2554.9266	12292.15	11403.2
982.3798	2556.2379	12263.75	11373.6
982.5063	2557.5485	12245.25	11357.65
982.6327	2558.8585	12218.45	11322.05
982.7592	2560.1677	12189.45	11294.75
982.8856	2561.4762	12151.2	11262.35
983.0119	2562.7841	12132	11239.75
983.1383	2564.0913	12120.2	11232.3
983.2646	2565.3977	12074.4	11186.2
983.3908	2566.7035	12013.95	11125.1
983.517	2568.0086	12010.2	11120
983.6432	2569.313	11979.9	11089.5
983.7694	2570.6167	11957.6	11065.2
983.8955	2571.9197	11922.25	11031.75
984.0216	2573.222	11895.4	11003.15
984.1476	2574.5236	11853.4	10963.3
984.2737	2575.8246	11821.35	10928.75
984.3996	2577.1248	11785.65	10891.8
984.5256	2578.4244	11779.95	10889.9
984.6515	2579.7232	11749	10858.7
984.7774	2581.0214	11752.4	10823.9
984.9032	2582.3189	11698.35	10809.45
985.029	2583.6157	11680.9	10788.15
985.1548	2584.9118	11647.8	10756.7
985.2806	2586.2072	11601.75	10713.25
985.4063	2587.5019	11589.2	10699.9
985.5319	2588.7959	11551.6	10662.85
985.6576	2590.0893	11494.45	10601.7
985.7832	2591.3819	11476.2	10589.25
985.9087	2592.6739	11427.35	10540.05
986.0343	2593.9652	11409.75	10517.9
986.1597	2595.2557	11366.55	10476.65
986.2852	2596.5456	11322.9	10431.75
986.4106	2597.8348	11284.65	10396.85
986.536	2599.1234	11203.2	10314.15
986.6614	2600.4112	11168.55	10279.95
986.7867	2601.6983	11145.05	10252.3
986.912	2602.9848	11111.45	10222.65
987.0372	2604.2705	11074.1	10180.45
987.1624	2605.5556	11041.45	10151.25
987.2876	2606.84	11011.9	10124.55
987.4128	2608.1237	10947.95	10057.65
987.5379	2609.4067	10894.2	10003.45
987.6629	2610.689	10890.25	9992.3
987.788	2611.9707	10836.2	9943.2
987.913	2613.2516	10779.05	9885.2
988.0379	2614.5319	10734.35	9845.5
988.1629	2615.8115	10692.85	9802.6
988.2878	2617.0903	10653	9763.2
988.4126	2618.3685	10632.95	9743.6
988.5375	2619.6461	10578.7	9688.95
988.6622	2620.9229	10574.3	9684.5
988.787	2622.199	10516.2	9626.5
988.9117	2623.4745	10475.55	9584.1
989.0364	2624.7493	10469.5	9579.2
989.161	2626.0234	10387.35	9499.3
989.2857	2627.2968	10353.3	9465
989.4102	2628.5695	10323.5	9432.6
989.5348	2629.8415	10286.15	9398.7
989.6593	2631.1128	10229.9	9339.05
989.7837	2632.3835	10188.35	9299.85
989.9082	2633.6535	10160.5	9271.9
990.0326	2634.9228	10111.25	9223.6
990.1569	2636.1914	10101.95	9214.55
990.2812	2637.4593	10070.2	9179.7
990.4055	2638.7265	10032.25	9141.75
990.5298	2639.9931	9968.7	9079.25
990.654	2641.259	9975.85	9085.55
990.7782	2642.5242	9945.95	9055.65
990.9023	2643.7887	9890.05	8998.5
991.0264	2645.0525	9863.75	8975.3
991.1505	2646.3156	9851.1	8961.6
991.2745	2647.5781	9792.15	8904.7
991.3985	2648.8398	9765.75	8878.45
991.5225	2650.1009	9716.05	8817.75
991.6464	2651.3613	9713.95	8824.85
991.7703	2652.6211	9668.7	8780.1
991.8942	2653.8801	9645.6	8755.95
992.018	2655.1385	9624.3	8731.6
992.1418	2656.3961	9588.05	8699.3
992.2655	2657.6531	9581.45	8692.9
992.3892	2658.9094	9540.1	8650.15
992.5129	2660.1651	9513.55	8625.55
992.6366	2661.42	9481.35	8590.4
992.7602	2662.6743	9461.7	8572.65
992.8837	2663.9279	9445.35	8556.25
993.0073	2665.1808	9406.15	8517.9
993.1307	2666.433	9357.7	8466.65
993.2542	2667.6846	9339.95	8450.6
993.3776	2668.9354	9336.3	8442.3
993.501	2670.1856	9313.05	8422.1
993.6244	2671.4351	9279.6	8391.85
993.7477	2672.6839	9271	8381.6
993.8709	2673.9321	9234.2	8345.75
993.9942	2675.1795	9194.7	8305.5
994.1174	2676.4263	9155.85	8267.15
994.2405	2677.6724	9134.2	8246.65
994.3637	2678.9179	9109.15	8219.25
994.4868	2680.1626	9098.05	8207.85
994.6098	2681.4067	9080.55	8190.25
994.7328	2682.6501	9040.15	8150.95
994.8558	2683.8928	8998.95	8109.75
994.9788	2685.1348	8952.15	8066.05
995.1017	2686.3761	8924.25	8036.7
995.2245	2687.6168	8891.95	8003.35
995.3474	2688.8568	8851.25	7962.15
995.4702	2690.0961	8826.75	7939.95
995.5929	2691.3348	8810.9	7921.2
995.7156	2692.5727	8778.4	7889.25
995.8383	2693.81	8765.7	7875.65
995.961	2695.0466	8720.85	7831.75
996.0836	2696.2826	8692.75	7800.2
996.2062	2697.5178	8672.85	7780.25
996.3287	2698.7524	8652.95	7764.95
996.4512	2699.9863	8649.3	7756.65
996.5737	2701.2195	8594.9	7707.8
996.6961	2702.452	8572.9	7684.15
996.8185	2703.6839	8540.75	7653.15
996.9408	2704.9151	8524.15	7635.9
997.0631	2706.1456	8494.15	7604.15
997.1854	2707.3755	8466.15	7576.6
997.3077	2708.6046	8447.6	7555.7
997.4299	2709.8331	8436.45	7548.3
997.552	2711.0609	8402.8	7512.75
997.6742	2712.2881	8365.75	7477.85
997.7963	2713.5145	8359.5	7469.2
997.9183	2714.7403	8325.2	7436.45
998.0403	2715.9654	8303.2	7413.55
998.1623	2717.1899	8284.35	7379.85
998.2842	2718.4136	8236.6	7347.95
998.4062	2719.6367	8244.25	7354.7
998.528	2720.8591	8206.2	7310.35
998.6498	2722.0809	8180	7292.35
998.7716	2723.3019	8148.4	7255.3
998.8934	2724.5223	8154	7262.1
999.0151	2725.7421	8144.45	7254.65
999.1368	2726.9611	8094.9	7204.5
999.2584	2728.1795	8067.9	7173
999.38	2729.3972	8040.9	7151.6
999.5016	2730.6142	7987.6	7085.9
999.6231	2731.8306	7931	7042.5
999.7446	2733.0462	7924.35	7033.6
999.8661	2734.2612	7860.65	6965.85
999.9875	2735.4756	7825.25	6934.85
1000.1089	2736.6892	7795.1	6905.85
1000.2302	2737.9022	7711.05	6823.6
1000.3515	2739.1145	7688.3	6799.65
1000.4728	2740.3262	7647.8	6751.8
1000.594	2741.5372	7620.8	6730.9
1000.7152	2742.7475	7584.15	6694.9
1000.8363	2743.9571	7548.2	6659.3
1000.9575	2745.1661	7535.75	6643.75
1001.0785	2746.3744	7513.9	6623.4
1001.1996	2747.582	7456.45	6566.95
1001.3206	2748.7889	7450.15	6561.95
1001.4415	2749.9952	7417.2	6528.75
1001.5625	2751.2008	7375.1	6486.25
1001.6833	2752.4057	7361.6	6470
1001.8042	2753.61	7344.7	6453.7
1001.925	2754.8136	7305.65	6413
1002.0458	2756.0165	7293.25	6403.1
1002.1665	2757.2188	7273.2	6384.65
1002.2872	2758.4204	7239.25	6351.8
1002.4078	2759.6213	7216.75	6328.5
1002.5285	2760.8215	7199.75	6306.75
1002.649	2762.0211	7166.25	6277
1002.7696	2763.22	7142.85	6250.85
1002.8901	2764.4182	7114.9	6224.45
1003.0106	2765.6158	7093.2	6205.8
1003.131	2766.8127	7048.3	6157
1003.2514	2768.009	7044.65	6156.45
1003.3717	2769.2045	7010.65	6121.1
1003.492	2770.3994	6994.85	6105.95
1003.6123	2771.5936	6980.7	6090.55
1003.7325	2772.7872	6927.45	6040.75
1003.8527	2773.9801	6897.4	6007.25
1003.9729	2775.1723	6901.55	5997.65
1004.093	2776.3639	6853.35	5965.5
1004.2131	2777.5548	6851.75	5961.75
1004.3331	2778.745	6832.35	5941.95
1004.4531	2779.9346	6807.6	5918.95
1004.5731	2781.1235	6793.65	5905.1
1004.693	2782.3117	6766.7	5878.6
1004.8129	2783.4992	6740.95	5851.8
1004.9328	2784.6861	6726.7	5837.9
1005.0526	2785.8723	6704.1	5816.4
1005.1723	2787.0579	6679.9	5788.35
1005.2921	2788.2428	6665.15	5775.4
1005.4118	2789.427	6645.4	5757.15
1005.5314	2790.6106	6637.75	5748.9
1005.651	2791.7935	6615.35	5725.55
1005.7706	2792.9757	6597	5709.25
1005.8902	2794.1573	6579.4	5689.65
1006.0097	2795.3382	6554.35	5664.95
1006.1291	2796.5184	6545.8	5658.15
1006.2485	2797.698	6550.1	5659.8
1006.3679	2798.8769	6559.45	5669.75
1006.4873	2800.0551	6550.9	5662.8
1006.6066	2801.2327	6520.8	5629.8
1006.7258	2802.4096	6526.1	5637.8
1006.8451	2803.5859	6515.6	5626.9
1006.9642	2804.7615	6493.4	5602.7
1007.0834	2805.9364	6529.35	5643.15
1007.2025	2807.1106	6518.2	5628.9
1007.3216	2808.2842	6506.05	5617.4
1007.4406	2809.4572	6512.45	5624.7
1007.5596	2810.6294	6530.55	5640.85
1007.6785	2811.801	6557.95	5670.5
1007.7975	2812.972	6580.9	5693.4
1007.9163	2814.1423	6597.1	5706.8
1008.0352	2815.3119	6617.15	5728.15
1008.154	2816.4808	6657.95	5770.7
1008.2727	2817.6491	6674.1	5785.85
1008.3914	2818.8167	6717.95	5829.7
1008.5101	2819.9837	6751.5	5858.6
1008.6288	2821.15	6766.3	5879.05
1008.7474	2822.3157	6791.1	5903.05
1008.8659	2823.4807	6822.35	5935.5
1008.9844	2824.645	6857.35	5968.4
1009.1029	2825.8086	6877.4	5989.65
1009.2214	2826.9716	6905.5	6018
1009.3398	2828.134	6915.05	6026.05
1009.4581	2829.2957	6966.7	6078.05
1009.5764	2830.4567	6967.1	6079.45
1009.6947	2831.617	6959.25	6070.15
1009.813	2832.7767	6954.05	6066.2
1009.9312	2833.9358	6936.55	6049.5
1010.0493	2835.0941	6930.05	6039.15
1010.1675	2836.2519	6898.75	6011.45
1010.2855	2837.4089	6886.8	5996.55
1010.4036	2838.5653	6857	5967.8
1010.5216	2839.7211	6867.25	5981.05
1010.6396	2840.8761	6856.2	5966.25
1010.7575	2842.0306	6859.55	5973.15
1010.8754	2843.1843	6871.25	5984.65
1010.9932	2844.3374	6901.35	6013.35
1011.111	2845.4899	6937.55	6050.15
1011.2288	2846.6417	7001.55	6114.1
1011.3465	2847.7928	7065.3	6177.9
1011.4642	2848.9433	7118.45	6231.5
1011.5818	2850.0931	7151	6263.85
1011.6995	2851.2422	7225.05	6334.6
1011.817	2852.3907	7272.15	6383.8
1011.9345	2853.5385	7307.7	6417.65
1012.052	2854.6857	7356.75	6440.95
1012.1695	2855.8323	7378.65	6492.95
1012.2869	2856.9781	7404.8	6516.5
1012.4042	2858.1233	7447.6	6560.95
1012.5216	2859.2679	7470.15	6583.05
1012.6389	2860.4118	7513.65	6625.95
1012.7561	2861.555	7523.35	6628.65
1012.8733	2862.6976	7528.05	6636.75
1012.9905	2863.8395	7518.65	6629.6
1013.1076	2864.9808	7537.15	6648.95
1013.2247	2866.1214	7545.8	6656.85
1013.3417	2867.2614	7543.95	6656.85
1013.4587	2868.4007	7528.45	6637.85
1013.5757	2869.5393	7492.5	6601.5
1013.6926	2870.6773	7518.55	6627.85
1013.8095	2871.8146	7516.85	6623.35
1013.9263	2872.9513	7502.95	6612
1014.0431	2874.0874	7447.25	6560.7
1014.1599	2875.2227	7433.3	6544.9
1014.2766	2876.3574	7418.3	6531.9
1014.3933	2877.4915	7371.35	6483.1
1014.51	2878.6249	7344.25	6456.05
1014.6266	2879.7577	7275.3	6386.45
1014.7431	2880.8898	7242.65	6343.95
1014.8596	2882.0212	7213.1	6324.65
1014.9761	2883.152	7165.65	6276.25
1015.0925	2884.2821	7172.1	6286.1
1015.2089	2885.4116	7144.2	6257.4
1015.3253	2886.5405	7109.6	6220.45
1015.4416	2887.6686	7096.55	6204.4
1015.5579	2888.7962	7076.75	6191.15
1015.6741	2889.923	7082.4	6196.4
1015.7903	2891.0493	7060.35	6174.4
1015.9065	2892.1748	7047.8	6159.55
1016.0226	2893.2997	7047.7	6158.3
1016.1387	2894.424	7050.95	6163.45
1016.2547	2895.5476	7049.3	6161.3
1016.3707	2896.6706	7038.8	6151.5
1016.4866	2897.7929	7042.7	6153.15
1016.6025	2898.9145	7062.65	6174.8
1016.7184	2900.0355	7063.25	6174.8
1016.8342	2901.1559	7081.1	6191
1016.95	2902.2756	7095.55	6208.75
1017.0658	2903.3946	7107.6	6220.55
1017.1815	2904.513	7127.55	6234.3
1017.2971	2905.6308	7147.1	6260.3
1017.4127	2906.7479	7128.15	6237.95
1017.5283	2907.8643	7157.8	6267.7
1017.6439	2908.9801	7139.7	6252
1017.7594	2910.0953	7119.2	6231.35
1017.8748	2911.2098	7116.3	6224.2
1017.9902	2912.3236	7092	6197.35
1018.1056	2913.4368	7078.3	6186.4
1018.2209	2914.5494	7073.95	6186.25
1018.3362	2915.6613	7006.1	6111
1018.4515	2916.7725	6967.7	6077.65
1018.5667	2917.8831	6915.85	6026.6
1018.6819	2918.9931	6876.6	5987.1
1018.797	2920.1024	6830.75	5941.45
1018.9121	2921.211	6794.45	5905.95
1019.0271	2922.319	6772	5884.65
1019.1421	2923.4264	6756.3	5867.9
1019.2571	2924.5331	6719.8	5833.8
1019.372	2925.6391	6690.15	5801.9
1019.4869	2926.7445	6671.9	5785.2
1019.6017	2927.8493	6655.4	5767.65
1019.7165	2928.9534	6628	5740.15
1019.8313	2930.0569	6640.35	5749.8
1019.946	2931.1597	6598.85	5709.05
1020.0606	2932.2619	6573.05	5685.35
1020.1753	2933.3634	6560.95	5673.5
1020.2899	2934.4643	6561	5668.3
1020.4044	2935.5645	6529.3	5634.4
1020.5189	2936.6641	6471.4	5579.05
1020.6334	2937.763	6418.2	5530.65
1020.7478	2938.8613	6375.95	5488.9
1020.8622	2939.959	6326.5	5433.35
1020.9765	2941.056	6222.2	5333.05
1021.0908	2942.1523	6112.75	5224.25
1021.2051	2943.248	6035.35	5145.85
1021.3193	2944.3431	5927	5039.9
1021.4334	2945.4375	5827	4937.5
1021.5476	2946.5313	5714.65	4827
1021.6617	2947.6244	5595.2	4704.95
1021.7757	2948.7169	5512.35	4623.95
1021.8897	2949.8087	5403.9	4517.45
1022.0037	2950.8999	5303.25	4415.55
1022.1176	2951.9904	5198.8	4310.7
1022.2315	2953.0803	5108.85	4221.7
1022.3453	2954.1696	5041.45	4151.5
1022.4591	2955.2582	4972.8	4085.5
1022.5728	2956.3462	4920.65	4032.85
1022.6865	2957.4335	4882.15	3994.7
1022.8002	2958.5202	4821.3	3930.75
1022.9138	2959.6062	4766.5	3878.05
1023.0274	2960.6916	4744.65	3857.3
1023.141	2961.7764	4710.6	3821.65
1023.2545	2962.8605	4681.5	3794.15
1023.3679	2963.9439	4669.8	3780.35
1023.4813	2965.0267	4635.25	3744.85
1023.5947	2966.1089	4624.1	3713.45
1023.708	2967.1905	4584.45	3696.3
1023.8213	2968.2714	4574	3687.3
1023.9346	2969.3516	4561.75	3674.4
1024.0478	2970.4312	4548.35	3654.35
1024.1609	2971.5102	4548.05	3659.8
1024.274	2972.5885	4521.6	3633.7
1024.3871	2973.6662	4513.25	3620.65
1024.5002	2974.7432	4509.7	3622.25
1024.6132	2975.8196	4481.8	3592.95
1024.7261	2976.8954	4461.95	3574.3
1024.839	2977.9705	4436.4	3547.95
1024.9519	2979.045	4436.6	3548.6
1025.0647	2980.1188	4395.8	3508.55
1025.1775	2981.192	4354.8	3466.85
1025.2902	2982.2645	4341.35	3452.05
1025.4029	2983.3364	4287.15	3399.2
1025.5156	2984.4077	4264.7	3376.25
1025.6282	2985.4783	4239.1	3345.75
1025.7407	2986.5483	4185.1	3297.05
1025.8532	2987.6177	4139.55	3252.3
1025.9657	2988.6864	4099.75	3214.55
1026.0782	2989.7545	4071.25	3183.7
1026.1906	2990.8219	4018.8	3130
1026.3029	2991.8887	3985.3	3095.95
1026.4152	2992.9548	3928.75	3040.2
1026.5275	2994.0204	3908.55	3022.45
1026.6397	2995.0852	3862.25	2973.5
1026.7519	2996.1495	3834.15	2946.05
1026.864	2997.2131	3792.75	2903.55
1026.9761	2998.276	3782.95	2897.8
1027.0882	2999.3383	3734.95	2849.25
1027.2002	3000.4	3707.8	2820.1
1027.3122	3001.4611	3695.4	2806.8
1027.4241	3002.5215	3666.25	2778.85
1027.536	3003.5812	3636.25	2749.05
1027.6478	3004.6404	3613.85	2726.15
1027.7596	3005.6989	3600.2	2712.95
1027.8714	3006.7567	3576.45	2689.6
1027.9831	3007.8139	3578.05	2667.6
1028.0947	3008.8705	3557.2	2669.15
1028.2064	3009.9264	3541.6	2651.7
1028.3179	3010.9818	3518.6	2632.2
1028.4295	3012.0364	3510.1	2621.45
1028.541	3013.0905	3505	2617.5
1028.6524	3014.1439	3493.3	2608.4
1028.7638	3015.1966	3463.65	2576.2
1028.8752	3016.2487	3457.2	2570.95
1028.9865	3017.3002	3446.45	2553.65
1029.0978	3018.3511	3452.75	2568.1
1029.209	3019.4013	3437.55	2549.25
1029.3202	3020.4509	3435.75	2550.15
1029.4314	3021.4998	3414.65	2527.85
1029.5425	3022.5481	3418.2	2529.85
1029.6535	3023.5958	3404	2515.3
1029.7645	3024.6428	3393.6	2506.6
1029.8755	3025.6892	3396.65	2510.05
1029.9864	3026.735	3370.35	2481.9
1030.0973	3027.7802	3379.1	2491.75
1030.2082	3028.8247	3352.65	2464.35
1030.319	3029.8685	3341.95	2453.4
1030.4297	3030.9118	3343.4	2455.85
1030.5404	3031.9544	3329.7	2441.5
1030.6511	3032.9963	3335.9	2448.1
1030.7617	3034.0376	3325.85	2439.1
1030.8723	3035.0783	3314.8	2424.9
1030.9829	3036.1184	3321.5	2434.05
1031.0934	3037.1578	3307.4	2420.6
1031.2038	3038.1966	3309.05	2421.05
1031.3142	3039.2348	3295.2	2408
1031.4246	3040.2723	3294.2	2396.95
1031.5349	3041.3092	3274.45	2387.35
1031.6452	3042.3455	3266.35	2379.65
1031.7554	3043.3811	3251.9	2364.8
1031.8656	3044.4161	3246.5	2359.2
1031.9758	3045.4505	3229.5	2343.05
1032.0859	3046.4842	3226	2338.35
1032.1959	3047.5173	3199.4	2312.35
1032.3059	3048.5498	3182.25	2295.8
1032.4159	3049.5816	3181.5	2293.6
1032.5258	3050.6128	3158	2271.55
1032.6357	3051.6434	3164.65	2274.75
1032.7455	3052.6734	3138.65	2249.15
1032.8553	3053.7027	3124.9	2237.2
1032.9651	3054.7314	3108.15	2221.05
1033.0748	3055.7594	3098.4	2211.85
1033.1845	3056.7868	3097.05	2208.35
1033.2941	3057.8136	3065.7	2177.25
1033.4037	3058.8398	3069.3	2182.9
1033.5132	3059.8653	3046.7	2159
1033.6227	3060.8902	3030.35	2144.45
1033.7321	3061.9145	3020.6	2133.05
1033.8415	3062.9381	3016.55	2128.7
1033.9509	3063.9612	3015.65	2114.35
1034.0602	3064.9835	2987.1	2098.8
1034.1694	3066.0053	2988.7	2102.35
1034.2787	3067.0264	2960.9	2074.6
1034.3878	3068.0469	2947.75	2060.8
1034.497	3069.0668	2944.25	2053.2
1034.6061	3070.086	2923.15	2035.15
1034.7151	3071.1046	2918.2	2030.95
1034.8241	3072.1226	2899.5	2010.3
1034.9331	3073.1399	2885.15	1997.15
1035.042	3074.1567	2864.1	1977.75
1035.1508	3075.1727	2856.7	1967.95
1035.2597	3076.1882	2824.3	1938.35
1035.3684	3077.203	2816.4	1928.3
1035.4772	3078.2173	2809.1	1919.75
1035.5859	3079.2308	2794.45	1903.45
1035.6945	3080.2438	2778.85	1890.25
1035.8031	3081.2561	2759.65	1871.15
1035.9117	3082.2678	2744.65	1856.7
1036.0202	3083.2789	2727.6	1841.3
1036.1286	3084.2893	2710.25	1823.9
1036.2371	3085.2991	2713.2	1827.6
1036.3454	3086.3083	2709.1	1817.7
1036.4538	3087.3169	2691.9	1801.35
1036.562	3088.3248	2671.1	1782.6
1036.6703	3089.3321	2669	1780.15
1036.7785	3090.3388	2656.75	1769.4
1036.8866	3091.3449	2645.2	1757.05
1036.9948	3092.3503	2641	1749.45
1037.1028	3093.3551	2630.3	1744.95
1037.2108	3094.3593	2608.75	1721.1
1037.3188	3095.3629	2598.2	1712.8
1037.4267	3096.3658	2590.7	1701.35
1037.5346	3097.3681	2582.3	1695.65
1037.6425	3098.3698	2571.2	1682.3
1037.7503	3099.3708	2560.15	1667.6
1037.858	3100.3713	2558.05	1670.85
1037.9657	3101.3711	2538.4	1650.65
1038.0734	3102.3702	2661.3	1634.65
1038.181	3103.3688	2543.85	1652.05
1038.2886	3104.3667	2515.85	1631.15
1038.3961	3105.364	2499	1614.1
1038.5036	3106.3607	2498.6	1609.5
1038.611	3107.3568	2483.7	1594.95
1038.7184	3108.3522	2481	1596.7
1038.8257	3109.347	2463.5	1576.45
1038.933	3110.3412	2458.35	1568.25
1039.0403	3111.3348	2447.3	1559.55
1039.1475	3112.3277	2427.5	1540.9
1039.2547	3113.32	2429.95	1543.75
1039.3618	3114.3117	2417.9	1529.8
1039.4689	3115.3028	2407.9	1522.85
1039.5759	3116.2932	2396.2	1506.9
1039.6829	3117.2831	2396.55	1504.2
1039.7898	3118.2723	2378.95	1491.85
1039.8967	3119.2608	2365.9	1480.05
1040.0035	3120.2488	2363.15	1477.2
1040.1103	3121.2361	2356.3	1466.55
1040.2171	3122.2229	2341.35	1453.75
1040.3238	3123.209	2337.9	1449.65
1040.4305	3124.1944	2334.1	1445.4
1040.5371	3125.1793	2325	1436.7
1040.6437	3126.1635	2329.8	1441.35
1040.7502	3127.1471	2315.7	1429.65
1040.8567	3128.1301	2302.65	1414.95
1040.9631	3129.1125	2292.4	1406.35
1041.0695	3130.0942	2298.65	1411.45
1041.1759	3131.0753	2300.15	1402.8
1041.2822	3132.0558	2283.9	1389.95
1041.3884	3133.0357	2263.6	1374.75
1041.4946	3134.015	2278.2	1390.35
1041.6008	3134.9936	2258.15	1371.5
1041.7069	3135.9716	2276.05	1367.65
1041.813	3136.949	2244	1356.65
1041.919	3137.9258	2243.1	1352.85
1042.025	3138.902	2231.45	1339.65
1042.1309	3139.8775	2241.7	1355.65
1042.2368	3140.8524	2212.2	1325.8
1042.3427	3141.8267	2215	1326.95
1042.4485	3142.8004	2209.95	1322.7
1042.5542	3143.7735	2212.4	1320.6
1042.6599	3144.7459	2203.65	1313.5
1042.7656	3145.7178	2202.7	1315.4
1042.8712	3146.689	2191.3	1305.65
1042.9768	3147.6596	2176	1288.8
1043.0823	3148.6295	2181.25	1294.2
1043.1878	3149.5989	2160.5	1274.35
1043.2932	3150.5676	2147.15	1261.95
1043.3986	3151.5357	2154.35	1269.05
1043.5039	3152.5032	2132.65	1246.9
1043.6092	3153.4701	2133.9	1246.8
1043.7145	3154.4364	2128.85	1238.95
1043.8197	3155.402	2119.85	1233.6
1043.9248	3156.367	2119	1228.35
1044.03	3157.3315	2151.85	1222.9
1044.135	3158.2952	2099.1	1210.65
1044.24	3159.2584	2099.6	1213.95
1044.345	3160.221	2090.3	1200.5
1044.4499	3161.1829	2082.25	1194.05
1044.5548	3162.1442	2076.05	1188.3
1044.6596	3163.105	2061.95	1175.55
1044.7644	3164.065	2046.95	1158.7
1044.8692	3165.0245	2056.1	1166.2
1044.9739	3165.9834	2043.2	1155.75
1045.0785	3166.9416	2044.85	1158.1
1045.1831	3167.8993	2026.25	1139.75
1045.2877	3168.8563	2027.85	1138.75
1045.3922	3169.8127	2022.45	1135.65
1045.4966	3170.7684	2019.1	1132.55
1045.6011	3171.7236	2001.35	1112.45
1045.7054	3172.6782	2006.9	1119.45
1045.8098	3173.6321	1992.75	1104.3
1045.914	3174.5854	1990.5	1099
1046.0183	3175.5381	1988.1	1098.9
1046.1224	3176.4902	1986.8	1099
1046.2266	3177.4417	1965.7	1080.25
1046.3307	3178.3926	1959.75	1074
1046.4347	3179.3428	1954.5	1069.15
1046.5387	3180.2924	1946.2	1061.45
1046.6427	3181.2415	1951.9	1064.65
1046.7466	3182.1899	1941.65	1054.5
1046.8504	3183.1377	1940.35	1053.85
1046.9542	3184.0848	1938.9	1048.85
1047.058	3185.0314	1919.2	1031.4
1047.1617	3185.9773	1920.4	1031.95
1047.2654	3186.9227	1913.15	1025.5
1047.369	3187.8674	1912.2	1025.1
1047.4726	3188.8115	1912	1020.25
1047.5761	3189.755	1896.1	1010.4
1047.6796	3190.6979	1890.55	1004.45
1047.783	3191.6402	1886.8	1002.35
1047.8864	3192.5818	1879.45	991.2
1047.9898	3193.5229	1895.65	985
1048.0931	3194.4633	1863.55	974.45
1048.1963	3195.4031	1872.55	985.5
1048.2995	3196.3423	1867.6	980.2
1048.4027	3197.2809	1855.85	969.1
1048.5058	3198.2189	1843.1	955.85
1048.6089	3199.1563	1848.1	955.2
1048.7119	3200.0931	1844	957.05
1048.8148	3201.0292	1825.7	938.2
1048.9178	3201.9648	1825.1	936.95
1049.0206	3202.8997	1832.65	943.9
1049.1235	3203.834	1827.2	939.7
1049.2262	3204.7677	1820.15	933.65
1049.329	3205.7008	1807.9	920.3
1049.4317	3206.6333	1802.85	917.75
1049.5343	3207.5652	1804.3	915.1
1049.6369	3208.4964	1801.55	914.2
1049.7394	3209.4271	1787	899.85
1049.8419	3210.3571	1793.8	908.45
1049.9444	3211.2865	1789.05	901.15
1050.0468	3212.2154	1773.7	886.65
1050.1491	3213.1436	1780.85	892.1
1050.2514	3214.0712	1778.15	884.7
1050.3537	3214.9982	1766.5	879.6
1050.4559	3215.9246	1758.1	870.75
1050.5581	3216.8503	1752.65	867.45
1050.6602	3217.7755	1749.9	863.1
1050.7623	3218.7001	1757.55	870.2
1050.8643	3219.624	1745.85	858.35
1050.9663	3220.5473	1737.6	848.7
1051.0682	3221.4701	1734.7	845.8
1051.1701	3222.3922	1734.85	846.15
1051.2719	3223.3137	1732.65	846.3
1051.3737	3224.2346	1719.7	834.8
1051.4754	3225.1549	1719.75	833.95
1051.5771	3226.0746	1717.4	831.75
1051.6788	3226.9937	1717.8	830.35
1051.7804	3227.9121	1715.85	828.45
1051.8819	3228.83	1704.15	816.45
1051.9834	3229.7473	1698.75	810.65
1052.0849	3230.6639	1692.3	806.2
1052.1863	3231.5799	1678.05	791.45
1052.2876	3232.4954	1673.95	786.2
1052.3889	3233.4102	1687.8	801.95
1052.4902	3234.3244	1673.3	784.55
1052.5914	3235.238	1666.8	779.25
1052.6926	3236.151	1686.75	775.9
1052.7937	3237.0634	1667.65	781.6
1052.8948	3237.9752	1651.95	768.55
1052.9958	3238.8864	1646.15	757.6
1053.0968	3239.797	1652.75	767.45
1053.1977	3240.7069	1641.8	754.05
1053.2986	3241.6163	1637.5	748.35
1053.3994	3242.5251	1640.35	753.9
1053.5002	3243.4332	1628.9	742.4
1053.6009	3244.3408	1614.45	725.9
1053.7016	3245.2477	1620.5	734.05
1053.8022	3246.154	1613.5	726.35
1053.9028	3247.0598	1613.75	727.35
1054.0034	3247.9649	1608.4	721.5
1054.1039	3248.8694	1603.95	716.2
1054.2043	3249.7733	1606.45	719.85
1054.3047	3250.6766	1597	708.8
1054.4051	3251.5793	1588.4	700.35
1054.5054	3252.4814	1584.5	698.75
1054.6056	3253.3829	1581.7	694.95
1054.7058	3254.2838	1577.35	693.15
1054.806	3255.1841	1575.95	689.3
1054.9061	3256.0838	1568.55	683.35
1055.0061	3256.9829	1557.95	673
1055.1062	3257.8814	1553.15	662.4
1055.2061	3258.7792	1549.35	660.95
1055.306	3259.6765	1542.4	653.8
1055.4059	3260.5731	1539.9	654.2
1055.5057	3261.4692	1524.6	636.45
1055.6055	3262.3647	1519.6	630.15
1055.7052	3263.2595	1507.8	621.55
1055.8049	3264.1538	1497.05	610.15
1055.9045	3265.0474	1495.1	609.5
1056.0041	3265.9404	1477.9	592.2
1056.1036	3266.8329	1474	586.9
1056.2031	3267.7247	1466.25	569.45
1056.3025	3268.616	1447.85	562.2
1056.4019	3269.5066	1436.9	549.7
1056.5013	3270.3966	1425.5	536.5
1056.6005	3271.286	1405.65	520.4
