Software Version:	3.9.2.0
Unit SN:	10000200
Spectrometer SN:	6960
Date:	3/6/2024 10:54:50 AM
Data Line Index:	25
Spectral Points:	2048
Integration time (ms):	125
Averages:	20
Delay (ms):	30
Sequence Number:	1
Processing:	dark subtract
Laser Power (mW):	300
Laser Current (mA):	822
Laser Diode Temp (C):	25.1
Laser Case Temp (C):	27.9
System Temp (C):	27.7
Spectrometer Temp (C):	25.1
CCD Temp (C):	0.007
Secondary Temp (C):	20.007
Heatsink Temp (C):	23.482
CCDPCB Temp (C):	36.885
SecondaryPCB Temp (C):	34.673

Wavelength	RamanShift	Raw Counts	Dark Subtracted
787.061	30.1047	1105.8	692.75
787.2016	32.3739	1134.9	721.1
787.3422	34.6426	1187.15	771.65
787.4828	36.9109	1228.6	813.05
787.6235	39.1787	1283.85	864.35
787.7642	41.4461	1343.55	919.8
787.9049	43.7131	1406.05	978.4
788.0456	45.9796	1460.8	1029.65
788.1863	48.2456	1530.85	1095.1
788.3271	50.5112	1599.9	1161.3
788.4679	52.7764	1667.9	1228.9
788.6087	55.0411	1738.05	1295.15
788.7496	57.3054	1824.55	1376.55
788.8904	59.5692	1911.65	1459.5
789.0313	61.8326	2009.25	1553.15
789.1722	64.0955	2106.55	1646.45
789.3132	66.3579	2241.9	1778
789.4541	68.6199	2390.75	1922.75
789.5951	70.8815	2630.05	2159.95
789.7361	73.1426	3124.45	2649.95
789.8771	75.4032	4382.4	3901.25
790.0181	77.6634	7584.85	7098.9
790.1592	79.9231	15796.7	15307.45
790.3003	82.1824	51475.6	50974.8
790.4414	84.4412	65535	65018.75
790.5825	86.6995	65535	64994.75
790.7237	88.9574	65535	64972.9
790.8648	91.2148	65535	64957.75
791.006	93.4717	65535	64944.65
791.1472	95.7282	65535	64941.65
791.2885	97.9842	65535	64941.65
791.4297	100.2398	65535	64938.65
791.571	102.4949	65535	64932.95
791.7123	104.7495	65535	64929.85
791.8536	107.0036	65535	64926.85
791.9949	109.2573	65535	64928.3
792.1363	111.5105	65535	64925.4
792.2777	113.7632	65535	64925.45
792.4191	116.0154	65535	64913.7
792.5605	118.2672	65535	64918.65
792.7019	120.5185	65535	64918.5
792.8434	122.7693	65535	64918.25
792.9849	125.0197	65535	64912.75
793.1264	127.2696	65535	64909.75
793.2679	129.519	65535	64904.15
793.4094	131.7679	65535	64905.55
793.551	134.0163	65535	64900.95
793.6926	136.2642	65535	64897.15
793.8342	138.5117	65535	64886.25
793.9758	140.7587	65535	64894.4
794.1175	143.0052	65535	64892.95
794.2591	145.2512	65535	64887.5
794.4008	147.4967	65535	64890.65
794.5425	149.7417	65535	64886.5
794.6842	151.9863	65535	64884
794.826	154.2304	65535	64880.65
794.9677	156.4739	65535	64871.55
795.1095	158.717	65535	64875.25
795.2513	160.9596	65535	64866.15
795.3931	163.2017	65535	64868.7
795.535	165.4433	65535	64867.15
795.6768	167.6844	65535	64863.1
795.8187	169.925	65535	64859.6
795.9606	172.1651	65535	64856.9
796.1025	174.4047	65535	64854.8
796.2445	176.6439	65535	64852
796.3864	178.8825	65535	64850.1
796.5284	181.1206	65535	64844.65
796.6704	183.3582	65535	64845.05
796.8124	185.5954	65535	64839.5
796.9544	187.832	65535	64838.4
797.0965	190.0681	65535	64835.2
797.2386	192.3037	65535	64833.75
797.3806	194.5388	65535	64830.15
797.5228	196.7734	65535	64826.75
797.6649	199.0075	65535	64819.85
797.807	201.2411	65535	64821.2
797.9492	203.4742	65535	64822.6
798.0914	205.7068	65535	64819.9
798.2336	207.9389	65535	64818.7
798.3758	210.1704	65535	64813.6
798.518	212.4015	65535	64812.55
798.6603	214.632	65535	64821.95
798.8025	216.862	65535	64832.3
798.9448	219.0915	65535	64835.45
799.0871	221.3205	65535	64835.6
799.2294	223.549	65535	64837.5
799.3718	225.777	65535	64838
799.5141	228.0044	65535	64832.05
799.6565	230.2314	65535	64834.8
799.7989	232.4578	65535	64828.5
799.9413	234.6837	65535	64820.7
800.0837	236.909	65535	64821.65
800.2262	239.1339	65535	64797.9
800.3687	241.3582	65535	64808.6
800.5111	243.582	65535	64780
800.6536	245.8053	65535	64794.95
800.7961	248.0281	65535	64795.6
800.9387	250.2503	65535	64791.85
801.0812	252.472	65535	64787.8
801.2238	254.6932	65535	64786
801.3664	256.9139	65535	64788.85
801.509	259.134	65535	64781.05
801.6516	261.3536	65535	64783.9
801.7942	263.5727	65535	64781.3
801.9369	265.7912	65535	64786.8
802.0795	268.0092	65535	64782.8
802.2222	270.2267	65535	64782.65
802.3649	272.4436	65535	64781.05
802.5076	274.6601	65535	64768.85
802.6504	276.8759	65535	64775.4
802.7931	279.0913	65535	64774.25
802.9359	281.3061	65535	64775.2
803.0787	283.5204	65535	64767.35
803.2215	285.7341	65535	64769.55
803.3643	287.9473	65535	64755.7
803.5071	290.16	65535	64759.6
803.6499	292.3721	65535	64768.85
803.7928	294.5837	65535	64763.9
803.9357	296.7947	65535	64768.65
804.0786	299.0052	65535	64768.25
804.2215	301.2152	65535	64767.3
804.3644	303.4246	65535	64767.95
804.5074	305.6334	65535	64766.2
804.6503	307.8418	65535	64761.6
804.7933	310.0495	65535	64762.6
804.9363	312.2568	65535	64762.6
805.0793	314.4635	65535	64762.75
805.2223	316.6696	65535	64760.4
805.3653	318.8752	65535	64752.2
805.5084	321.0802	65535	64754.55
805.6514	323.2847	65535	64755.5
805.7945	325.4887	65535	64757.15
805.9376	327.692	65535	64754.4
806.0807	329.8949	65535	64750.45
806.2238	332.0972	65535	64753.25
806.367	334.2989	65535	64747
806.5101	336.5001	65535	64748.15
806.6533	338.7007	65535	64746.8
806.7965	340.9008	65535	64742.95
806.9397	343.1003	65535	64743.8
807.0829	345.2992	65535	64742.35
807.2261	347.4976	65535	64740.55
807.3693	349.6955	65535	64738.6
807.5126	351.8927	65535	64736.4
807.6559	354.0895	65535	64726
807.7991	356.2856	65535	64732.1
807.9424	358.4812	65535	64736.05
808.0857	360.6763	65535	64733.65
808.2291	362.8707	65535	64729.35
808.3724	365.0646	65535	64732.35
808.5158	367.258	65535	64729.3
808.6591	369.4508	65535	64727.7
808.8025	371.643	65535	64726.85
808.9459	373.8346	65535	64724.1
809.0893	376.0257	65535	64720.3
809.2327	378.2162	65535	64716
809.3762	380.4062	65535	64719.1
809.5196	382.5956	65535	64716.8
809.6631	384.7844	65535	64717.25
809.8066	386.9726	65535	64721.1
809.9501	389.1603	65535	64720.75
810.0936	391.3474	65535	64679.6
810.2371	393.5339	65535	64721.9
810.3806	395.7199	65535	64722.8
810.5241	397.9052	65535	64727.05
810.6677	400.09	65535	64727.25
810.8113	402.2743	65535	64724.9
810.9548	404.4579	65535	64727.3
811.0984	406.641	65535	64724.95
811.2421	408.8235	65535	64725.1
811.3857	411.0054	65535	64722.35
811.5293	413.1868	65535	64717.2
811.673	415.3675	65535	64717.75
811.8166	417.5477	65535	64715.35
811.9603	419.7273	65535	64713.95
812.104	421.9064	65535	64704.2
812.2477	424.0848	65535	64710.1
812.3914	426.2627	65535	64709.2
812.5351	428.4399	65535	64707.05
812.6788	430.6166	65535	64707.3
812.8226	432.7928	65535	64703.75
812.9663	434.9683	65535	64702.7
813.1101	437.1432	65535	64702.5
813.2539	439.3176	65535	64701.85
813.3977	441.4914	65535	64701.85
813.5415	443.6645	65535	64699.65
813.6853	445.8371	65535	64701.35
813.8291	448.0091	65535	64700.65
813.973	450.1806	65535	64702.6
814.1168	452.3514	65535	64697.45
814.2607	454.5216	65535	64690.8
814.4046	456.6913	65535	64700
814.5485	458.8603	65535	64696.45
814.6924	461.0288	65535	64697.25
814.8363	463.1967	65535	64695.8
814.9802	465.3639	65535	64692.7
815.1241	467.5306	65535	64694.4
815.2681	469.6967	65535	64696.05
815.412	471.8622	65535	64697.15
815.556	474.0271	65535	64695.8
815.7	476.1914	65535	64694.05
815.844	478.3551	65535	64695.75
815.988	480.5182	65535	64692.5
816.132	482.6807	65535	64692.8
816.276	484.8426	65535	64696.3
816.4201	487.0039	65535	64692.5
816.5641	489.1647	65535	64691.35
816.7082	491.3248	65535	64692.6
816.8522	493.4843	65535	64692.95
816.9963	495.6432	65535	64693.75
817.1404	497.8015	65535	64684.45
817.2845	499.9592	65535	64687.15
817.4286	502.1163	65535	64690.1
817.5727	504.2728	65535	64686.2
817.7168	506.4287	65535	64688.75
817.861	508.5839	65535	64689.8
818.0051	510.7386	65535	64687.1
818.1493	512.8927	65535	64683.9
818.2935	515.0461	65535	64686.7
818.4377	517.199	65535	64681.45
818.5818	519.3512	65535	64682
818.726	521.5029	65535	64678.4
818.8703	523.6539	65535	64684.75
819.0145	525.8043	65535	64680.7
819.1587	527.9541	65535	64680.25
819.303	530.1033	65535	64682.3
819.4472	532.2519	65535	64682.65
819.5915	534.3999	65535	64677.75
819.7357	536.5472	65535	64680.55
819.88	538.694	65535	64679.6
820.0243	540.8401	65535	64679.4
820.1686	542.9856	65535	64674.55
820.3129	545.1305	65535	64677.25
820.4572	547.2748	65535	64674.65
820.6016	549.4185	65535	64674.6
820.7459	551.5615	65535	64675.1
820.8902	553.704	65535	64672.1
821.0346	555.8458	65535	64675.95
821.1789	557.987	65535	64674.65
821.3233	560.1276	65535	64674.65
821.4677	562.2675	65535	64674.8
821.6121	564.4069	65535	64674.5
821.7565	566.5456	65535	64675.55
821.9009	568.6837	65535	64671.4
822.0453	570.8212	65535	64676.2
822.1897	572.958	65535	64672.35
822.3342	575.0942	65535	64674.7
822.4786	577.2299	65535	64676.7
822.6231	579.3648	65535	64674.4
822.7675	581.4992	65535	64680.3
822.912	583.6329	65535	64678.55
823.0565	585.766	65535	64678.15
823.201	587.8985	65535	64673.45
823.3454	590.0304	65535	64651.2
823.4899	592.1616	65535	64671.8
823.6345	594.2922	65535	64668.65
823.779	596.4222	65535	64669.4
823.9235	598.5515	65535	64666.2
824.068	600.6802	65535	64672.15
824.2126	602.8083	65535	64669.7
824.3571	604.9358	65535	64669.55
824.5017	607.0626	65535	64669.15
824.6462	609.1888	65535	64665.8
824.7908	611.3144	65535	64666.35
824.9354	613.4393	65535	64668.05
825.08	615.5636	65535	64666.45
825.2246	617.6873	65535	64666.95
825.3692	619.8103	65535	64661.3
825.5138	621.9327	65535	64664.6
825.6584	624.0544	65535	64665.4
825.803	626.1756	65535	64666.45
825.9477	628.2961	65535	64664.2
826.0923	630.4159	65535	64665.2
826.237	632.5351	65535	64667.5
826.3816	634.6537	65535	64661.5
826.5263	636.7716	65535	64661.05
826.6709	638.8889	65535	64661.35
826.8156	641.0056	65535	64661.45
826.9603	643.1216	65535	64661.75
827.105	645.237	65535	64657.25
827.2497	647.3518	65535	64660.25
827.3944	649.4659	65535	64662.7
827.5391	651.5793	65535	64660.35
827.6838	653.6922	65535	64660.45
827.8285	655.8043	65535	64665
827.9733	657.9159	65535	64660.8
828.118	660.0268	65535	64659
828.2627	662.137	65535	64659.55
828.4075	664.2466	65535	64657.6
828.5522	666.3556	65535	64659.05
828.697	668.4639	65535	64657.75
828.8418	670.5716	65535	64659.05
828.9865	672.6786	65535	64657.6
829.1313	674.785	65535	64660.4
829.2761	676.8907	65535	64657.4
829.4209	678.9958	65535	64659.65
829.5657	681.1002	65535	64655.55
829.7105	683.204	65535	64654.55
829.8553	685.3072	65535	64656.95
830.0001	687.4097	65535	64658.35
830.1449	689.5115	65535	64655.2
830.2898	691.6127	65535	64654.65
830.4346	693.7132	65535	64654.7
830.5794	695.8131	65535	64640.95
830.7243	697.9123	65535	64651.3
830.8691	700.0109	65535	64652.65
831.014	702.1089	65535	64654.6
831.1588	704.2061	65535	64655
831.3037	706.3028	65535	64649.65
831.4486	708.3987	65535	64652.15
831.5935	710.4941	65535	64653.25
831.7383	712.5887	65535	64652.25
831.8832	714.6827	65535	64649.85
832.0281	716.7761	65535	64653.05
832.173	718.8688	65535	64652.9
832.3179	720.9608	65535	64648.25
832.4628	723.0522	65535	64646.75
832.6077	725.1429	65535	64649.95
832.7527	727.233	65535	64651.15
832.8976	729.3224	65535	64649.1
833.0425	731.4112	65535	64651.65
833.1874	733.4993	65535	64647.15
833.3324	735.5867	65535	64651.2
833.4773	737.6735	65535	64648.95
833.6222	739.7596	65535	64649.85
833.7672	741.845	65535	64650.25
833.9122	743.9298	65535	64648.7
834.0571	746.014	65535	64649.75
834.2021	748.0974	65535	64646.75
834.347	750.1802	65535	64649.5
834.492	752.2624	65535	64650.8
834.637	754.3439	65535	64647.9
834.782	756.4247	65535	64639.35
834.9269	758.5048	65535	64647.9
835.0719	760.5843	65535	64647.9
835.2169	762.6631	65535	64646.55
835.3619	764.7413	65535	64651.5
835.5069	766.8188	65535	64647.65
835.6519	768.8956	65535	64646.1
835.7969	770.9718	65535	64644.8
835.9419	773.0473	65535	64648.3
836.0869	775.1221	65535	64647.75
836.232	777.1962	65535	64645.2
836.377	779.2697	65535	64645.7
836.522	781.3426	65535	64628.1
836.667	783.4147	65535	64644.1
836.8121	785.4862	65535	64649.5
836.9571	787.557	65535	64648.2
837.1021	789.6271	65535	64647.05
837.2472	791.6966	65535	64645.4
837.3922	793.7654	65535	64644.8
837.5373	795.8335	65535	64643.6
837.6823	797.901	65535	64645.95
837.8274	799.9678	65535	64644.95
837.9724	802.0339	65535	64648.6
838.1175	804.0993	65535	64636.65
838.2626	806.1641	65535	64645.9
838.4076	808.2282	65535	64645.45
838.5527	810.2916	65535	64640.85
838.6978	812.3544	65535	64645.9
838.8428	814.4164	65535	64645.7
838.9879	816.4778	65535	64643.25
839.133	818.5385	65535	64644.5
839.2781	820.5986	65535	64646.65
839.4232	822.658	65535	64643.9
839.5682	824.7166	65535	64642.95
839.7133	826.7747	65535	64645.9
839.8584	828.832	65535	64639.55
840.0035	830.8886	65535	64639.1
840.1486	832.9446	65535	64642.9
840.2937	834.9999	65535	64645.35
840.4388	837.0545	65535	64641.1
840.5839	839.1085	65535	64642.7
840.729	841.1618	65535	64638.5
840.8741	843.2143	65535	64641.25
841.0192	845.2662	65535	64644.25
841.1643	847.3175	65535	64646.15
841.3095	849.368	65535	64642.75
841.4546	851.4179	65535	64645.05
841.5997	853.467	65535	64642.6
841.7448	855.5155	65535	64642.6
841.8899	857.5633	65535	64645
842.0351	859.6105	65535	64642
842.1802	861.6569	65535	64643.9
842.3253	863.7027	65535	64643.4
842.4704	865.7478	65535	64639.2
842.6156	867.7922	65535	64641.8
842.7607	869.8359	65535	64639.75
842.9058	871.8789	65535	64638.2
843.0509	873.9212	65535	64609.85
843.1961	875.9629	65535	64643.75
843.3412	878.0039	65535	64642.05
843.4863	880.0441	65535	64643.05
843.6315	882.0837	65535	64637.9
843.7766	884.1226	65535	64639.45
843.9218	886.1609	65535	64639.8
844.0669	888.1984	65535	64643.65
844.212	890.2352	65535	64642.15
844.3572	892.2714	65535	64636.1
844.5023	894.3069	65535	64639.5
844.6475	896.3416	65535	64642.45
844.7926	898.3757	65535	64639.5
844.9377	900.4091	65535	64640.95
845.0829	902.4418	65535	64633.15
845.228	904.4739	65535	64636.1
845.3732	906.5052	65535	64638.15
845.5183	908.5358	65535	64640.75
845.6635	910.5658	65535	64636.15
845.8086	912.595	65535	64639
845.9538	914.6236	65535	64639.5
846.0989	916.6515	65535	64640.25
846.2441	918.6786	65535	64635.85
846.3892	920.7051	65535	64636.75
846.5344	922.7309	65535	64637.65
846.6795	924.756	65535	64638.15
846.8246	926.7804	65535	64636.85
846.9698	928.8041	65535	64634.2
847.1149	930.8272	65535	64638.9
847.2601	932.8495	65535	64634.5
847.4052	934.8711	65535	64636.95
847.5504	936.892	65535	64638.1
847.6955	938.9123	65535	64637
847.8407	940.9318	65535	64639.75
847.9858	942.9506	65535	64637.45
848.131	944.9688	65535	64638.2
848.2761	946.9862	65535	64639.1
848.4213	949.003	65535	64637.65
848.5664	951.019	65535	64638.15
848.7115	953.0344	65535	64638.55
848.8567	955.0491	65535	64635.95
849.0018	957.063	65535	64639.9
849.147	959.0763	65535	64637.9
849.2921	961.0888	65535	64635.35
849.4373	963.1007	65535	64637.15
849.5824	965.1119	65535	64639.25
849.7275	967.1223	65535	64639.65
849.8727	969.1321	65535	64636.65
850.0178	971.1412	65535	64640.05
850.1629	973.1495	65535	64636.85
850.3081	975.1572	65535	64602.8
850.4532	977.1641	65535	64636.95
850.5983	979.1704	65535	64635.8
850.7435	981.1759	65535	64634.85
850.8886	983.1808	65535	64637.75
851.0337	985.1849	65535	64627.45
851.1788	987.1884	65535	64633.45
851.324	989.1911	65535	64634.45
851.4691	991.1932	65535	64637.15
851.6142	993.1945	65535	64638.4
851.7593	995.1951	65535	64636.9
851.9045	997.1951	65535	64631.9
852.0496	999.1943	65535	64638.45
852.1947	1001.1928	65535	64637.3
852.3398	1003.1906	65535	64638.5
852.4849	1005.1877	65535	64637.5
852.63	1007.1841	65535	64636.2
852.7751	1009.1798	65535	64634.3
852.9202	1011.1748	65535	64638.3
853.0653	1013.1691	65535	64635.4
853.2104	1015.1627	65535	64636.4
853.3555	1017.1556	65535	64638.3
853.5006	1019.1477	65535	64635.25
853.6457	1021.1392	65535	64639.35
853.7908	1023.1299	65535	64639.8
853.9359	1025.12	65535	64633.9
854.081	1027.1093	65535	64640.85
854.2261	1029.0979	65535	64642.3
854.3712	1031.0859	65535	64639.7
854.5163	1033.0731	65535	64637.25
854.6613	1035.0596	65535	64638.95
854.8064	1037.0454	65535	64639.1
854.9515	1039.0304	65535	64635.9
855.0965	1041.0148	65535	64639.35
855.2416	1042.9985	65535	64635.05
855.3867	1044.9814	65535	64637.15
855.5317	1046.9636	65535	64636.7
855.6768	1048.9452	65535	64638
855.8219	1050.926	65535	64637.35
855.9669	1052.9061	65535	64637.15
856.112	1054.8855	65535	64636.1
856.257	1056.8642	65535	64636.95
856.4021	1058.8421	65535	64633
856.5471	1060.8194	65535	64636.55
856.6921	1062.7959	65535	64635.7
856.8372	1064.7717	65535	64635.4
856.9822	1066.7469	65535	64635.2
857.1272	1068.7213	65535	64634.45
857.2723	1070.695	65535	64638.15
857.4173	1072.6679	65535	64637.7
857.5623	1074.6402	65535	64637.4
857.7073	1076.6117	65535	64631.35
857.8523	1078.5826	65535	64635.15
857.9973	1080.5527	65535	64633.75
858.1423	1082.5221	65535	64635.95
858.2873	1084.4908	65535	64635.9
858.4323	1086.4587	65535	64636
858.5773	1088.426	65535	64636.05
858.7223	1090.3925	65535	64629.9
858.8673	1092.3584	65535	64637.7
859.0123	1094.3235	65535	64636.6
859.1573	1096.2879	65535	64635.1
859.3022	1098.2515	65535	64638.95
859.4472	1100.2145	65535	64634.7
859.5922	1102.1767	65535	64634
859.7371	1104.1382	65535	64635.9
859.8821	1106.099	65535	64633.75
860.027	1108.0591	65535	64637.45
860.172	1110.0185	65535	64635.6
860.3169	1111.9771	65535	64635.75
860.4619	1113.9351	65535	64633.1
860.6068	1115.8923	65535	64634.65
860.7517	1117.8488	65535	64636.7
860.8967	1119.8045	65535	64637.85
861.0416	1121.7596	65535	64637.8
861.1865	1123.7139	65535	64637.6
861.3314	1125.6675	65535	64635.25
861.4763	1127.6204	65535	64636.7
861.6212	1129.5726	65535	64633
861.7661	1131.524	65535	64636.25
861.911	1133.4748	65535	64635.9
862.0559	1135.4248	65535	64635.3
862.2008	1137.3741	65535	64637.2
862.3457	1139.3226	65535	64634.45
862.4905	1141.2705	65535	64638.3
862.6354	1143.2176	65535	64628.25
862.7803	1145.164	65535	64634.4
862.9251	1147.1097	65535	64635.4
863.07	1149.0546	65535	64634.15
863.2148	1150.9989	65535	64634.3
863.3597	1152.9424	65535	64634.7
863.5045	1154.8852	65535	64636.05
863.6493	1156.8272	65535	64635.95
863.7942	1158.7686	65535	64629.35
863.939	1160.7092	65535	64636.75
864.0838	1162.6491	65535	64634.1
864.2286	1164.5883	65535	64636.5
864.3734	1166.5267	65535	64633.9
864.5182	1168.4644	65535	64635.25
864.663	1170.4014	65535	64628.45
864.8078	1172.3377	65535	64635.35
864.9526	1174.2732	65535	64636.25
865.0974	1176.2081	65535	64636.95
865.2421	1178.1421	65535	64630.6
865.3869	1180.0755	65535	64636.3
865.5317	1182.0082	65535	64635.1
865.6764	1183.9401	65535	64637.65
865.8212	1185.8713	65535	64635.1
865.9659	1187.8017	65535	64636.65
866.1106	1189.7315	65535	64639
866.2554	1191.6605	65535	64607.8
866.4001	1193.5888	65535	64634.65
866.5448	1195.5163	65535	64637.25
866.6895	1197.4432	65535	64634.55
866.8342	1199.3693	65535	64633.8
866.9789	1201.2947	65535	64633.95
867.1236	1203.2193	65535	64635
867.2683	1205.1432	65535	64633.85
867.413	1207.0664	65535	64635.6
867.5576	1208.9889	65535	64633.3
867.7023	1210.9106	65535	64634.95
867.847	1212.8316	65535	64636.7
867.9916	1214.7519	65535	64627.55
868.1363	1216.6715	65535	64636.05
868.2809	1218.5903	65535	64636.7
868.4255	1220.5084	65535	64637.25
868.5701	1222.4257	65535	64634.6
868.7148	1224.3424	65535	64637.1
868.8594	1226.2583	65535	64627.55
869.004	1228.1735	65535	64635.7
869.1486	1230.0879	65535	64634.8
869.2932	1232.0016	65535	64634.3
869.4377	1233.9146	65535	64634.35
869.5823	1235.8269	65535	64636.6
869.7269	1237.7384	65535	64636.25
869.8715	1239.6492	65535	64635.3
870.016	1241.5592	65535	64634.65
870.1606	1243.4686	65535	64636
870.3051	1245.3772	65535	64638.55
870.4496	1247.285	65535	64635.2
870.5941	1249.1922	65535	64636.95
870.7387	1251.0986	65535	64635.8
870.8832	1253.0042	65535	64634.75
871.0277	1254.9092	65535	64634.3
871.1722	1256.8134	65535	64636.6
871.3167	1258.7169	65535	64634.35
871.4611	1260.6196	65535	64637.5
871.6056	1262.5216	65535	64633.9
871.7501	1264.4229	65535	64637.8
871.8945	1266.3234	65535	64636
872.039	1268.2232	65535	64635.05
872.1834	1270.1223	65535	64633.1
872.3278	1272.0207	65535	64635.4
872.4723	1273.9183	65535	64630.9
872.6167	1275.8151	65535	64633.3
872.7611	1277.7113	65535	64635.05
872.9055	1279.6067	65535	64633.9
873.0499	1281.5014	65535	64632.15
873.1943	1283.3953	65535	64631.3
873.3386	1285.2885	65535	64636.05
873.483	1287.181	65535	64634.85
873.6274	1289.0727	65535	64638.5
873.7717	1290.9637	65535	64635.1
873.9161	1292.854	65535	64635.1
874.0604	1294.7435	65535	64633.75
874.2047	1296.6323	65535	64634.6
874.349	1298.5204	65535	64629.2
874.4933	1300.4077	65535	64635.4
874.6376	1302.2943	65535	64636.3
874.7819	1304.1802	65535	64637.6
874.9262	1306.0653	65535	64633.3
875.0705	1307.9497	65535	64639.45
875.2147	1309.8333	65535	64635.85
875.359	1311.7162	65535	64635.4
875.5032	1313.5984	65535	64633.65
875.6475	1315.4798	65535	64620
875.7917	1317.3605	65535	64617.1
875.9359	1319.2405	65535	64634.65
876.0801	1321.1197	65535	64635.05
876.2243	1322.9982	65535	64630.25
876.3685	1324.876	65535	64637.85
876.5127	1326.753	65535	64636.9
876.6569	1328.6293	65535	64635.7
876.801	1330.5048	65535	64634.75
876.9452	1332.3796	65535	64635.7
877.0893	1334.2537	65535	64609.05
877.2335	1336.127	65535	64635.05
877.3776	1337.9996	65535	64634.45
877.5217	1339.8714	65535	64633.8
877.6658	1341.7426	65535	64593.15
877.8099	1343.6129	65535	64635.7
877.954	1345.4826	65535	64634.3
878.0981	1347.3515	65535	64632.35
878.2422	1349.2196	65535	64634.9
878.3862	1351.087	65535	64636.7
878.5303	1352.9537	65535	64636
878.6743	1354.8197	65535	64635.4
878.8184	1356.6849	65535	64634.9
878.9624	1358.5493	65535	64635.7
879.1064	1360.4131	65535	64637.2
879.2504	1362.276	65535	64636.05
879.3944	1364.1383	65535	64636.95
879.5384	1365.9998	65535	64628.05
879.6823	1367.8606	65535	64635.85
879.8263	1369.7206	65535	64634.4
879.9702	1371.5799	65535	64635
880.1142	1373.4384	65535	64635.2
880.2581	1375.2962	65535	64632.95
880.402	1377.1533	65535	64636.3
880.5459	1379.0096	65535	64636.2
880.6898	1380.8652	65535	64636.55
880.8337	1382.7201	65535	64635.75
880.9776	1384.5742	65535	64634.4
881.1215	1386.4275	65535	64635.5
881.2653	1388.2802	65535	64637.4
881.4092	1390.132	65535	64635.35
881.553	1391.9832	65535	64636.05
881.6968	1393.8336	65535	64635.45
881.8406	1395.6832	65535	64633.05
881.9844	1397.5322	65535	64632.85
882.1282	1399.3803	65535	64633
882.272	1401.2278	65535	64632.9
882.4158	1403.0745	65535	64636.35
882.5595	1404.9204	65535	64636.9
882.7033	1406.7656	65535	64634.95
882.847	1408.6101	65535	64635.8
882.9908	1410.4538	65535	64633.65
883.1345	1412.2968	65535	64633.6
883.2782	1414.139	65535	64637.5
883.4219	1415.9805	65535	64637.55
883.5656	1417.8213	65535	64629.3
883.7092	1419.6613	65535	64636.15
883.8529	1421.5006	65535	64635.15
883.9965	1423.3391	65535	64634.3
884.1402	1425.1769	65535	64634.25
884.2838	1427.0139	65535	64634.1
884.4274	1428.8502	65535	64633.3
884.571	1430.6858	65535	64636.05
884.7146	1432.5206	65535	64635.75
884.8582	1434.3547	65535	64634.1
885.0018	1436.188	65535	64633.85
885.1453	1438.0206	65535	64633.65
885.2889	1439.8524	65535	64634.85
885.4324	1441.6835	65535	64635.4
885.5759	1443.5139	65535	64632.55
885.7194	1445.3435	65535	64633.75
885.8629	1447.1724	65535	64636.75
886.0064	1449.0005	65535	64634.95
886.1499	1450.8279	65535	64634.2
886.2933	1452.6545	65535	64636
886.4368	1454.4804	65535	64636.65
886.5802	1456.3056	65535	64629.45
886.7237	1458.13	65535	64635.5
886.8671	1459.9536	65535	64635.5
887.0105	1461.7766	65535	64637.45
887.1539	1463.5987	65535	64634.2
887.2972	1465.4202	65535	64635.15
887.4406	1467.2409	65535	64633.4
887.584	1469.0608	65535	64634
887.7273	1470.88	65535	64636.25
887.8706	1472.6984	65535	64637.4
888.0139	1474.5161	65535	64635.55
888.1572	1476.3331	65535	64636.55
888.3005	1478.1493	65535	64634.4
888.4438	1479.9648	65535	64636.2
888.5871	1481.7795	65535	64632.65
888.7303	1483.5935	65535	64636.55
888.8736	1485.4067	65535	64636.9
889.0168	1487.2192	65535	64635.45
889.16	1489.031	65535	64633.65
889.3032	1490.842	65535	64637.3
889.4464	1492.6522	65535	64634.85
889.5896	1494.4618	65535	64635.3
889.7327	1496.2705	65535	64635.15
889.8759	1498.0785	65535	64637.6
890.019	1499.8858	65535	64637.65
890.1622	1501.6924	65535	64636.65
890.3053	1503.4981	65535	64635.6
890.4484	1505.3032	65535	64635.2
890.5914	1507.1075	65535	64638.55
890.7345	1508.911	65535	64636.15
890.8776	1510.7138	65535	64636.45
891.0206	1512.5159	65535	64636.95
891.1637	1514.3172	65535	64636.5
891.3067	1516.1178	65535	64637.75
891.4497	1517.9176	65535	64634.35
891.5927	1519.7166	65535	64636.55
891.7357	1521.515	65535	64629.1
891.8786	1523.3126	65535	64636
892.0216	1525.1094	65535	64633.8
892.1645	1526.9055	65535	64638.15
892.3074	1528.7008	65535	64636.95
892.4503	1530.4954	65535	64631.95
892.5932	1532.2893	65535	64637.7
892.7361	1534.0824	65535	64633.05
892.879	1535.8747	65535	64637.35
893.0218	1537.6663	65535	64636.25
893.1647	1539.4572	65522.2	64623.3
893.3075	1541.2473	65534.4	64637.45
893.4503	1543.0367	65535	64638.65
893.5931	1544.8253	65532.5	64626.25
893.7359	1546.6132	65535	64635.85
893.8787	1548.4003	65526.2	64618.4
894.0214	1550.1867	65513.45	64606.3
894.1642	1551.9723	65503.5	64602.3
894.3069	1553.7572	65507.55	64610.25
894.4496	1555.5414	65530.5	64633.55
894.5923	1557.3247	65199.8	64303.15
894.735	1559.1074	65512.3	64615.5
894.8777	1560.8893	65454.85	64560.05
895.0204	1562.6705	65486.05	64590.15
895.163	1564.4509	65260.25	64363.55
895.3056	1566.2305	65405.25	64508.8
895.4482	1568.0094	65487.75	64590.65
895.5908	1569.7876	65417.7	64522.4
895.7334	1571.565	65209.15	64311.6
895.876	1573.3417	65353.1	64456.85
896.0186	1575.1176	65319.05	64423.5
896.1611	1576.8928	65179.2	64283.5
896.3036	1578.6672	64897.65	64002.3
896.4461	1580.4409	65087.05	64192.95
896.5886	1582.2138	64575.95	63678.4
896.7311	1583.986	64752.65	63854.9
896.8736	1585.7575	64122.35	63224.95
897.0161	1587.5282	64341.4	63446.95
897.1585	1589.2981	64387.25	63492.9
897.3009	1591.0673	63718.3	62823
897.4433	1592.8358	63236.6	62341.05
897.5857	1594.6035	63778.35	62880.45
897.7281	1596.3704	63809	62911.7
897.8705	1598.1366	62860.25	61963.45
898.0128	1599.9021	62326.55	61429.95
898.1551	1601.6668	63175.2	62278
898.2975	1603.4308	62689.35	61790.2
898.4398	1605.194	62844.8	61944.45
898.5821	1606.9564	61665.15	60769.75
898.7243	1608.7182	62270.6	61371.65
898.8666	1610.4791	61674.25	60782.25
899.0088	1612.2394	62253.95	61360.3
899.1511	1613.9988	61585.5	60690.7
899.2933	1615.7576	62372.65	61479.1
899.4355	1617.5156	62340.8	61440.4
899.5776	1619.2728	63114.9	62219.6
899.7198	1621.0293	61851.75	60957.45
899.862	1622.785	61858.3	60960.6
900.0041	1624.54	62266.6	61369.05
900.1462	1626.2942	61594.8	60697.95
900.2883	1628.0477	60571.2	59673.65
900.4304	1629.8005	59872.4	58973.7
900.5725	1631.5525	60490.05	59594.25
900.7145	1633.3037	59334	58438.2
900.8566	1635.0542	59242.3	58344.8
900.9986	1636.804	59501.6	58605.25
901.1406	1638.553	58581.8	57580.45
901.2826	1640.3013	58839.2	57944.2
901.4245	1642.0488	58105.9	57210.45
901.5665	1643.7955	58557.75	57665.1
901.7085	1645.5416	58026.15	57131.4
901.8504	1647.2868	57696.75	56803.9
901.9923	1649.0313	58341.4	57447.05
902.1342	1650.7751	57951.65	57054.7
902.2761	1652.5181	57581.2	56684.9
902.4179	1654.2604	57684.15	56789.1
902.5598	1656.0019	58186.85	57293.9
902.7016	1657.7427	57918.2	57024.15
902.8434	1659.4828	58431.45	57537.8
902.9852	1661.222	58174.45	57277.25
903.127	1662.9606	58480.8	57585.2
903.2687	1664.6984	57830.3	56934.1
903.4105	1666.4354	57830.45	56934.4
903.5522	1668.1717	56702.4	55807.5
903.6939	1669.9072	56053.7	55157.55
903.8356	1671.642	55701.75	54804.05
903.9773	1673.3761	55381	54487.2
904.119	1675.1094	55029.05	54133.35
904.2606	1676.8419	54597.85	53703.1
904.4022	1678.5737	54298.3	53404.2
904.5439	1680.3048	53988.3	53095.65
904.6855	1682.0351	53761.9	52869.7
904.827	1683.7646	53449.2	52552.6
904.9686	1685.4934	53364.85	52470.1
905.1101	1687.2215	52684.55	51789.55
905.2517	1688.9488	52919.4	52025.7
905.3932	1690.6754	51960	51064.45
905.5347	1692.4012	52188.8	51296.55
905.6761	1694.1263	52051.35	51156.8
905.8176	1695.8506	51832.5	50937.25
905.9591	1697.5742	51666.9	50772.45
906.1005	1699.297	51398.3	50503.55
906.2419	1701.0191	51209.8	50314.95
906.3833	1702.7404	50880.7	49988.45
906.5246	1704.461	50543	49648.2
906.666	1706.1808	50435.55	49541.4
906.8073	1707.8999	50294.1	49400.75
906.9487	1709.6182	50081.2	49186.25
907.09	1711.3358	49984.9	49091.7
907.2313	1713.0527	49757.45	48866.3
907.3725	1714.7688	49601.25	48701.6
907.5138	1716.4841	49229.4	48334.3
907.655	1718.1987	49267.85	48365.7
907.7962	1719.9126	49074.2	48182.2
907.9374	1721.6257	48885.1	47988.3
908.0786	1723.338	48826.55	47932.2
908.2198	1725.0496	48348.4	47454.25
908.3609	1726.7605	48300.7	47404.85
908.502	1728.4706	48135.9	47241.85
908.6431	1730.18	47817.75	46921.5
908.7842	1731.8886	47658	46765.15
908.9253	1733.5964	47548.8	46635.55
909.0664	1735.3036	47492.4	46596.1
909.2074	1737.0099	47354.75	46461.05
909.3484	1738.7156	47215.6	46323.85
909.4894	1740.4204	46973.5	46077.3
909.6304	1742.1246	46837.35	45940.55
909.7714	1743.8279	46727.1	45832.75
909.9123	1745.5306	46648.9	45754.9
910.0532	1747.2325	46391.35	45498.9
910.1941	1748.9336	46233.25	45340.55
910.335	1750.634	46016.35	45122.95
910.4759	1752.3336	45929.05	45036.1
910.6168	1754.0325	45834.8	44943.65
910.7576	1755.7307	45795.65	44903.3
910.8984	1757.4281	45635.65	44742.3
911.0392	1759.1247	45612.35	44710.75
911.18	1760.8206	45415.85	44515.75
911.3208	1762.5158	45287.65	44390.4
911.4615	1764.2102	45096.65	44206.05
911.6022	1765.9039	44865.9	43973.15
911.7429	1767.5968	44805.9	43914.8
911.8836	1769.289	44626.9	43732.75
912.0243	1770.9804	44551.75	43657.4
912.1649	1772.6711	44443.1	43547.7
912.3056	1774.361	44306.85	43412.7
912.4462	1776.0502	44216.4	43321.8
912.5868	1777.7386	44075	43178.95
912.7274	1779.4263	43909.7	43016.3
912.8679	1781.1132	43890.95	43000.05
913.0084	1782.7994	43708	42814.45
913.149	1784.4849	43603.2	42711.7
913.2895	1786.1696	43350.85	42450.95
913.4299	1787.8535	43249.45	42356.8
913.5704	1789.5367	43110.2	42216.4
913.7108	1791.2192	43034.75	42142.8
913.8513	1792.9009	42910.35	41988.45
913.9917	1794.5818	42747.6	41856.15
914.132	1796.2621	42590.1	41701.9
914.2724	1797.9415	42514.35	41622.4
914.4128	1799.6202	42413.6	41521.95
914.5531	1801.2982	42304.6	41412
914.6934	1802.9755	42191.9	41296.8
914.8337	1804.6519	42154.2	41260.8
914.9739	1806.3277	41857.55	40966.65
915.1142	1808.0027	41685.35	40793.1
915.2544	1809.6769	41619.15	40727.5
915.3946	1811.3504	41475.1	40581.75
915.5348	1813.0231	41345.15	40451.7
915.675	1814.6951	41341.35	40448.35
915.8151	1816.3664	41290.9	40396
915.9553	1818.0369	41145	40253.4
916.0954	1819.7067	40985.95	40093.2
916.2355	1821.3757	40867.2	39973.25
916.3755	1823.044	40786.45	39894.95
916.5156	1824.7115	40651.15	39757.85
916.6556	1826.3783	40526.25	39632.95
916.7956	1828.0443	40367.4	39475.9
916.9356	1829.7096	40222.1	39326.7
917.0756	1831.3741	40200.6	39306.6
917.2155	1833.0379	40048.1	39155.5
917.3555	1834.701	39929.7	39033.8
917.4954	1836.3633	39835.7	38940.95
917.6353	1838.0248	39674.95	38779.45
917.7751	1839.6856	39582	38689.2
917.915	1841.3457	39513	38620.9
918.0548	1843.005	39400.75	38509.5
918.1946	1844.6636	39347.55	38455
918.3344	1846.3214	39173.75	38280.9
918.4742	1847.9785	39140.9	38249.4
918.6139	1849.6349	39027.45	38133.1
918.7537	1851.2904	38936.15	38033.15
918.8934	1852.9453	38787.3	37894.45
919.0331	1854.5994	38659.7	37764.3
919.1727	1856.2528	38643.15	37745.9
919.3124	1857.9054	38518.3	37625.95
919.452	1859.5572	38458	37565.35
919.5916	1861.2083	38349.05	37456.45
919.7312	1862.8587	38384.6	37492.85
919.8708	1864.5084	38148.35	37258.2
920.0103	1866.1572	38039.65	37146.95
920.1498	1867.8054	37833.65	36940.35
920.2893	1869.4528	37775.65	36884.05
920.4288	1871.0994	37683.7	36791.4
920.5683	1872.7453	37635.05	36741.9
920.7077	1874.3905	37531.7	36632.85
920.8471	1876.0349	37346.9	36454.4
920.9865	1877.6786	37270.65	36375.55
921.1259	1879.3215	37231.25	36340.7
921.2653	1880.9637	37136.25	36242.9
921.4046	1882.6051	37042.05	36150.3
921.5439	1884.2458	36961.5	36066.45
921.6832	1885.8858	36791.75	35897.9
921.8225	1887.525	36676.6	35783.3
921.9617	1889.1634	36506.5	35613.85
922.101	1890.8011	36359.2	35466.3
922.2402	1892.4381	36288.7	35396.45
922.3794	1894.0743	36235.35	35342.6
922.5185	1895.7098	36204.15	35310.1
922.6577	1897.3446	36046.3	35154.4
922.7968	1898.9786	35901.5	35006.65
922.9359	1900.6118	35857.45	34964.55
923.075	1902.2443	35625.95	34732.4
923.214	1903.8761	35544.55	34652.8
923.3531	1905.5071	35377.9	34485.6
923.4921	1907.1374	35225.15	34332.65
923.6311	1908.7669	35171.05	34277.7
923.77	1910.3957	35108.3	34217.6
923.909	1912.0237	34844.3	33951.85
924.0479	1913.651	34783.4	33887.95
924.1868	1915.2776	34713.05	33821.6
924.3257	1916.9034	34540.55	33647.9
924.4646	1918.5285	34354.3	33463.05
924.6034	1920.1528	34185	33292.3
924.7422	1921.7764	34175.75	33284.35
924.881	1923.3992	33971.1	33079.95
925.0198	1925.0213	33747.5	32855.05
925.1586	1926.6427	33604.4	32713.5
925.2973	1928.2633	33613.95	32612.6
925.436	1929.8832	33464.75	32570.25
925.5747	1931.5023	33285.8	32395.15
925.7134	1933.1207	33232.8	32341.2
925.852	1934.7383	33105.7	32213
925.9906	1936.3552	32988.55	32097.1
926.1292	1937.9714	32924.5	32030.3
926.2678	1939.5868	32751.15	31856.45
926.4064	1941.2015	32584.8	31691
926.5449	1942.8154	32413.45	31521.55
926.6834	1944.4286	32265.4	31373.15
926.8219	1946.041	32195.95	31285.95
926.9604	1947.6528	31937.2	31040.85
927.0988	1949.2637	31879.55	30987.35
927.2372	1950.8739	31773.25	30879.5
927.3756	1952.4834	31668	30776.55
927.514	1954.0921	31621.75	30729.3
927.6523	1955.7001	31491.7	30595.1
927.7907	1957.3074	31403.35	30510.75
927.929	1958.9139	31214.25	30322.8
928.0673	1960.5197	31164.3	30269.35
928.2055	1962.1247	30976.15	30083.15
928.3438	1963.729	30826.5	29935.8
928.482	1965.3325	30734.7	29819.3
928.6202	1966.9353	30604.75	29713.75
928.7584	1968.5374	30509	29617.75
928.8965	1970.1387	30384.85	29492.15
929.0346	1971.7393	30308.15	29415.8
929.1727	1973.3392	30214.7	29322.55
929.3108	1974.9383	30089.6	29199.15
929.4489	1976.5366	29906.65	29014.05
929.5869	1978.1342	29881.1	28989.2
929.7249	1979.7311	29845.2	28952.6
929.8629	1981.3273	29708.35	28814.95
930.0009	1982.9227	29598.65	28705.95
930.1388	1984.5173	29507.5	28617
930.2767	1986.1112	29303.05	28411.85
930.4146	1987.7044	29270.7	28380.65
930.5525	1989.2968	29153.15	28260.55
930.6904	1990.8885	29096.4	28201.45
930.8282	1992.4795	29000.9	28107.45
930.966	1994.0697	28855.15	27961.4
931.1038	1995.6592	28744.4	27853.4
931.2415	1997.2479	28637.7	27747.4
931.3793	1998.8359	28560.05	27668.25
931.517	2000.4232	28434.35	27544.25
931.6547	2002.0097	28340	27449.75
931.7923	2003.5955	28169.3	27278.4
931.93	2005.1805	28167.5	27274.85
932.0676	2006.7648	28037.1	27145.95
932.2052	2008.3484	27965.25	27073
932.3427	2009.9312	27966.45	27073.65
932.4803	2011.5133	27818.35	26928.2
932.6178	2013.0946	27723.55	26832.4
932.7553	2014.6752	27636.35	26746.55
932.8928	2016.2551	27547.75	26655.85
933.0302	2017.8342	27436.9	26543.4
933.1676	2019.4126	27338.8	26447.9
933.305	2020.9902	27220.8	26332
933.4424	2022.5672	27158.5	26264.25
933.5798	2024.1433	27093.9	26195.95
933.7171	2025.7188	27002	26112.5
933.8544	2027.2935	26872.45	25980.65
933.9917	2028.8674	26756.75	25868.05
934.129	2030.4406	26702.45	25813.2
934.2662	2032.0131	26566.35	25677.5
934.4034	2033.5849	26472.5	25573.65
934.5406	2035.1559	26403.45	25512.1
934.6778	2036.7261	26378.4	25486.1
934.8149	2038.2957	26271.05	25379.45
934.952	2039.8645	26204.75	25313.55
935.0891	2041.4325	26185.45	25292.5
935.2262	2042.9998	26068	25176.65
935.3632	2044.5664	25957.55	25065.65
935.5002	2046.1323	25881.85	24990.65
935.6372	2047.6974	25801.75	24912.55
935.7742	2049.2617	25719.6	24829.6
935.9111	2050.8254	25700.55	24789.2
936.048	2052.3883	25646.55	24753.55
936.1849	2053.9504	25488.6	24598.2
936.3218	2055.5118	25411.2	24517.7
936.4586	2057.0725	25310.75	24416.3
936.5955	2058.6325	25255.15	24364.25
936.7323	2060.1917	25134.85	24243.85
936.869	2061.7502	25083.3	24188.75
937.0058	2063.3079	24981.3	24091.75
937.1425	2064.8649	24898.7	24004.4
937.2792	2066.4212	24852.5	23960.55
937.4159	2067.9767	24763.1	23872.15
937.5525	2069.5315	24634.9	23743.65
937.6891	2071.0856	24532.75	23641.3
937.8257	2072.6389	24425.95	23533.75
937.9623	2074.1915	24314.65	23425.5
938.0989	2075.7433	24174.3	23282.2
938.2354	2077.2945	24131.95	23242.65
938.3719	2078.8448	24048.95	23156.75
938.5084	2080.3945	23946.75	23056.55
938.6448	2081.9434	23941.9	23050.25
938.7812	2083.4916	23843.2	22950.5
938.9176	2085.039	23743.05	22849.35
939.054	2086.5857	23706.5	22813.6
939.1903	2088.1317	23615.3	22722.1
939.3267	2089.677	23555.35	22664.2
939.463	2091.2215	23462.05	22571.65
939.5992	2092.7652	23384.05	22489.9
939.7355	2094.3083	23322.65	22429.3
939.8717	2095.8506	23313.05	22423.8
940.0079	2097.3921	23254.95	22364.85
940.1441	2098.933	23129.15	22238.35
940.2802	2100.4731	23073.8	22182.2
940.4163	2102.0124	23069.9	22173.9
940.5524	2103.5511	22983.55	22092.35
940.6885	2105.089	22949.9	22055.8
940.8245	2106.6261	22863	21972.65
940.9606	2108.1626	22779.95	21886
941.0965	2109.6983	22686	21765.85
941.2325	2111.2332	22633.65	21741.35
941.3684	2112.7675	22551.65	21659
941.5044	2114.301	22453.75	21560.75
941.6403	2115.8337	22443.75	21550.5
941.7761	2117.3657	22379.25	21487.3
941.912	2118.897	22305.4	21411.95
942.0478	2120.4276	22229.1	21330.4
942.1835	2121.9575	22143.25	21250.4
942.3193	2123.4866	22155.2	21248.9
942.455	2125.0149	22088.85	21192.3
942.5907	2126.5426	21910.45	21022.55
942.7264	2128.0695	21880.75	20986.1
942.8621	2129.5956	21834.95	20944.9
942.9977	2131.1211	21767.55	20870.9
943.1333	2132.6458	21716.9	20825.2
943.2689	2134.1698	21638.35	20745.6
943.4044	2135.693	21564.7	20669
943.54	2137.2155	21512.55	20617.5
943.6755	2138.7373	21459.5	20566.45
943.8109	2140.2584	21348.45	20457.4
943.9464	2141.7787	21275.8	20379.3
944.0818	2143.2983	21170	20279.45
944.2172	2144.8171	21086.2	20196.2
944.3526	2146.3353	21011.8	20119.55
944.4879	2147.8527	20919.2	20027.35
944.6232	2149.3693	20943.4	20051
944.7585	2150.8853	20848.65	19955.95
944.8938	2152.4005	20716.05	19821.8
945.029	2153.9149	20675.5	19784.35
945.1642	2155.4287	20613.45	19722.35
945.2994	2156.9417	20576.1	19683
945.4346	2158.454	20510.35	19615.8
945.5697	2159.9655	20435.15	19544.6
945.7048	2161.4764	20420.9	19526.95
945.8399	2162.9865	20324.3	19432.7
945.9749	2164.4958	20290.8	19397.1
946.1099	2166.0045	20181.35	19287
946.2449	2167.5124	20215.5	19325.1
946.3799	2169.0195	20120.25	19230.3
946.5148	2170.526	20086.05	19196.5
946.6498	2172.0317	19974.3	19082.15
946.7846	2173.5367	19888	18996.5
946.9195	2175.0409	19893.5	19001.55
947.0543	2176.5445	19872.05	18982.75
947.1891	2178.0473	19763	18872
947.3239	2179.5494	19617.85	18720.25
947.4587	2181.0507	19572.65	18681.05
947.5934	2182.5513	19537.9	18644.15
947.7281	2184.0512	19479.8	18587.6
947.8628	2185.5504	19383.9	18491.15
947.9974	2187.0488	19300.4	18409.45
948.132	2188.5465	19231.85	18338.6
948.2666	2190.0435	19158.4	18266.35
948.4012	2191.5397	19076.65	18187.2
948.5357	2193.0353	19024.5	18134.4
948.6702	2194.5301	18942.55	18050.25
948.8047	2196.0241	18847.5	17953.55
948.9392	2197.5175	18835.8	17941.35
949.0736	2199.0101	18725.85	17829.8
949.208	2200.502	18648.1	17756.1
949.3424	2201.9931	18545.35	17652.4
949.4767	2203.4835	18501.4	17608.05
949.611	2204.9733	18438.6	17540.35
949.7453	2206.4622	18379.8	17488.05
949.8796	2207.9505	18323.7	17429.95
950.0138	2209.438	18209.85	17320.85
950.148	2210.9248	18152.05	17259.4
950.2822	2212.4109	18090.65	17199.05
950.4164	2213.8962	18008.2	17116.75
950.5505	2215.3809	17977.2	17082.55
950.6846	2216.8648	17951.4	17058.45
950.8186	2218.3479	17907.8	17010.8
950.9527	2219.8304	17805.9	16912
951.0867	2221.3121	17749.45	16854.95
951.2207	2222.7931	17663.85	16771.05
951.3546	2224.2733	17624.8	16731.6
951.4886	2225.7529	17572.1	16680.2
951.6225	2227.2317	17518.7	16623.1
951.7563	2228.7098	17473.85	16582.45
951.8902	2230.1872	17351.15	16460.2
952.024	2231.6638	17340.9	16449.8
952.1578	2233.1397	17245.15	16346.45
952.2916	2234.6149	17170.05	16278
952.4253	2236.0894	17125.5	16233.95
952.559	2237.5632	17108.7	16209.35
952.6927	2239.0362	16996.3	16104.7
952.8263	2240.5085	16959.85	16068.6
952.9599	2241.9801	16863.15	15970.35
953.0935	2243.4509	16820.6	15929.25
953.2271	2244.921	16744.55	15851.95
953.3606	2246.3904	16690.95	15795.75
953.4941	2247.8591	16645	15752.5
953.6276	2249.3271	16582.9	15690.9
953.7611	2250.7943	16531.9	15640.15
953.8945	2252.2608	16478.7	15585.4
954.0279	2253.7266	16443.3	15550.7
954.1612	2255.1917	16389.35	15497.25
954.2946	2256.656	16295.8	15403.15
954.4279	2258.1197	16235	15344.35
954.5612	2259.5826	16192.25	15296.9
954.6944	2261.0447	16135.65	15243.8
954.8276	2262.5062	16065.1	15171.55
954.9608	2263.9669	16078.55	15184.55
955.094	2265.4269	16043.1	15151.25
955.2271	2266.8862	15965.85	15073
955.3602	2268.3448	15888.05	14995
955.4933	2269.8026	15907.1	15015.15
955.6264	2271.2598	15850.55	14958.7
955.7594	2272.7162	15766.55	14874.85
955.8924	2274.1719	15721.05	14828
956.0253	2275.6268	15670.45	14777.65
956.1583	2277.0811	15663.55	14770.3
956.2912	2278.5346	15586.25	14694.35
956.4241	2279.9874	15522.9	14629.15
956.5569	2281.4395	15501.55	14611.8
956.6897	2282.8908	15413.1	14517.15
956.8225	2284.3414	15392.8	14499
956.9553	2285.7914	15329.2	14437.55
957.088	2287.2406	15282.65	14389.95
957.2207	2288.689	15245.5	14353.15
957.3534	2290.1368	15190.3	14296.3
957.486	2291.5838	15147.1	14253
957.6186	2293.0302	15063.2	14170.65
957.7512	2294.4758	15035.65	14142.45
957.8838	2295.9206	14955.35	14061
958.0163	2297.3648	14926.1	14035.55
958.1488	2298.8082	14902.7	14010.25
958.2813	2300.251	14834.2	13942.75
958.4137	2301.693	14797.95	13903.7
958.5461	2303.1343	14756.6	13863.85
958.6785	2304.5748	14732	13840.35
958.8108	2306.0147	14650	13758.2
958.9432	2307.4538	14599.1	13705
959.0754	2308.8922	14557.7	13666.5
959.2077	2310.3299	14513.85	13621.05
959.3399	2311.7669	14449.25	13558.8
959.4721	2313.2031	14398.25	13507.05
959.6043	2314.6387	14343.45	13450.15
959.7365	2316.0735	14257.6	13364.65
959.8686	2317.5076	14272.35	13379.05
960.0006	2318.941	14203.25	13310
960.1327	2320.3737	14178.1	13286.35
960.2647	2321.8056	14121.65	13227.3
960.3967	2323.2369	14077.9	13183.4
960.5287	2324.6674	14033.7	13137.15
960.6606	2326.0972	13969	13073.15
960.7925	2327.5263	13924.9	13034.05
960.9244	2328.9547	13896.6	13002.65
961.0562	2330.3823	13865.45	12971.9
961.1881	2331.8092	13850.85	12954
961.3198	2333.2355	13763.55	12870.75
961.4516	2334.661	13720.3	12828.5
961.5833	2336.0858	13676	12781.55
961.715	2337.5098	13647.3	12755.05
961.8467	2338.9332	13612.35	12719.75
961.9783	2340.3558	13574.5	12679
962.1099	2341.7778	13517.2	12623.35
962.2415	2343.199	13469.15	12574.7
962.373	2344.6195	13423.8	12530.35
962.5045	2346.0393	13374.6	12483.55
962.636	2347.4583	13384.8	12491.15
962.7675	2348.8767	13293.05	12399.4
962.8989	2350.2943	13270.55	12377.45
963.0303	2351.7113	13242.15	12348.3
963.1617	2353.1275	13186.7	12293.1
963.293	2354.543	13158.7	12241
963.4243	2355.9578	13097.8	12205.8
963.5556	2357.3718	13004.6	12113.5
963.6868	2358.7852	12946.3	12051.15
963.818	2360.1978	12924.75	12031.9
963.9492	2361.6098	12882	11989
964.0803	2363.021	12849.85	11954.6
964.2114	2364.4315	12791.2	11898.4
964.3425	2365.8413	12772.35	11874.65
964.4736	2367.2504	12693.6	11802.7
964.6046	2368.6587	12632.55	11742.35
964.7356	2370.0664	12569.1	11678.5
964.8666	2371.4733	12553.5	11661.7
964.9975	2372.8795	12504.2	11613.6
965.1284	2374.285	12450.95	11560.1
965.2593	2375.6899	12381.35	11492.3
965.3901	2377.0939	12305	11413.7
965.5209	2378.4973	12269.95	11378.85
965.6517	2379.9	12237	11342.9
965.7825	2381.3019	12170.15	11277.85
965.9132	2382.7032	12148.2	11258.5
966.0439	2384.1037	12105.85	11216.4
966.1745	2385.5035	12065.3	11174.4
966.3051	2386.9027	12028.6	11136.35
966.4357	2388.3011	11970.15	11074.9
966.5663	2389.6987	11937.15	11044.7
966.6968	2391.0957	11881.7	10990.2
966.8273	2392.492	11855.05	10965
966.9578	2393.8876	11773.55	10879.3
967.0882	2395.2824	11732.35	10842.45
967.2186	2396.6765	11684.4	10793.95
967.349	2398.07	11645.65	10753.55
967.4793	2399.4627	11622.1	10730.35
967.6097	2400.8547	11570.15	10679.05
967.7399	2402.246	11521.4	10624.85
967.8702	2403.6366	11480.75	10589.15
968.0004	2405.0265	11428.75	10536.35
968.1306	2406.4156	11376.05	10482
968.2607	2407.8041	11343.1	10448.4
968.3909	2409.1918	11296.85	10402.85
968.521	2410.5789	11235.35	10342.4
968.651	2411.9652	11212.55	10318.9
968.781	2413.3508	11130.65	10236.9
968.911	2414.7358	11087.35	10194.15
969.041	2416.12	11061.1	10170.55
969.1709	2417.5035	11025.5	10134.5
969.3008	2418.8863	10979.45	10087.65
969.4307	2420.2684	10960.8	10067.85
969.5606	2421.6497	10922.35	10029.95
969.6904	2423.0304	10843.55	9952.7
969.8201	2424.4104	10816.75	9925.2
969.9499	2425.7896	10776.15	9878.5
970.0796	2427.1682	10740.2	9847.35
970.2093	2428.546	10742.7	9848.85
970.3389	2429.9232	10678.65	9788.15
970.4685	2431.2996	10677.5	9786.85
970.5981	2432.6753	10640.95	9750.2
970.7277	2434.0503	10598.6	9707.8
970.8572	2435.4246	10539.45	9649.5
970.9867	2436.7982	10500.1	9603.95
971.1161	2438.1711	10471.9	9581.85
971.2456	2439.5433	10456.25	9562.8
971.375	2440.9148	10393.8	9502.3
971.5043	2442.2856	10358.2	9468.3
971.6336	2443.6557	10338.55	9445.25
971.7629	2445.025	10264.3	9374.15
971.8922	2446.3937	10232.7	9340.4
972.0214	2447.7617	10212.55	9321.65
972.1506	2449.1289	10186.05	9294.7
972.2798	2450.4955	10159.95	9264.85
972.4089	2451.8613	10125.8	9234.65
972.538	2453.2265	10098.2	9206.5
972.6671	2454.5909	10089	9196.15
972.7961	2455.9546	10036.45	9146.95
972.9251	2457.3177	9996.9	9105.95
973.0541	2458.68	9963.95	9071.7
973.1831	2460.0416	9982.75	9091.05
973.312	2461.4025	9960.45	9068.7
973.4408	2462.7627	9938.9	9035.25
973.5697	2464.1222	9874.9	8980.3
973.6985	2465.4811	9847.95	8955.6
973.8273	2466.8392	9790.9	8901.7
973.956	2468.1966	9764.4	8870.35
974.0847	2469.5533	9759.9	8865.85
974.2134	2470.9093	9715.2	8822.05
974.3421	2472.2645	9703.6	8808.75
974.4707	2473.6191	9686.2	8793.4
974.5993	2474.973	9639.6	8747.3
974.7278	2476.3262	9611.3	8720.3
974.8563	2477.6787	9583.6	8691.8
974.9848	2479.0305	9492.6	8601.45
975.1132	2480.3816	9498.3	8604.65
975.2417	2481.7319	9455.3	8562.35
975.37	2483.0816	9413.2	8519.45
975.4984	2484.4306	9356.6	8462.5
975.6267	2485.7789	9328.6	8438.05
975.755	2487.1264	9307.35	8414.35
975.8833	2488.4733	9264.65	8374.15
976.0115	2489.8195	9251.4	8355.75
976.1397	2491.165	9199.65	8305.45
976.2678	2492.5097	9173.4	8282.3
976.3959	2493.8538	9101.15	8208.1
976.524	2495.1972	9067.55	8175.6
976.6521	2496.5398	9035.75	8142.75
976.7801	2497.8818	9018.65	8123.8
976.9081	2499.2231	8978.35	8087.25
977.036	2500.5637	8927.9	8033.35
977.164	2501.9035	8920.8	8027
977.2918	2503.2427	8908.65	8011.95
977.4197	2504.5812	8877	7987.2
977.5475	2505.919	8847.35	7954.05
977.6753	2507.256	8836.2	7943.65
977.8031	2508.5924	8784.7	7895.25
977.9308	2509.9281	8749.55	7852.75
978.0585	2511.2631	8739.3	7847.5
978.1861	2512.5974	8697.4	7804.85
978.3137	2513.9309	8636.6	7743.95
978.4413	2515.2638	8646.05	7719.65
978.5689	2516.596	8602.65	7711.15
978.6964	2517.9275	8542.3	7648.85
978.8239	2519.2583	8545.55	7653.1
978.9513	2520.5884	8491.1	7596
979.0788	2521.9178	8447.35	7555.85
979.2062	2523.2465	8455.4	7564.55
979.3335	2524.5745	8402.5	7509.95
979.4608	2525.9018	8380.5	7487.7
979.5881	2527.2284	8347.3	7454.65
979.7154	2528.5543	8323.75	7432.95
979.8426	2529.8796	8301.95	7409.55
979.9698	2531.2041	8288.8	7398.35
980.0969	2532.5279	8240.2	7350.9
980.224	2533.851	8255.75	7363.4
980.3511	2535.1735	8212.6	7322
980.4781	2536.4952	8184.35	7293.15
980.6052	2537.8163	8146.4	7254.3
980.7321	2539.1366	8140.55	7250.55
980.8591	2540.4562	8125.65	7234.25
980.986	2541.7752	8112.8	7221.7
981.1129	2543.0935	8089.5	7196.95
981.2397	2544.411	8078.95	7184.2
981.3665	2545.7279	8066.55	7175.1
981.4933	2547.0441	8043.85	7150
981.62	2548.3596	8011.8	7115.7
981.7467	2549.6744	7982.1	7090.95
981.8734	2550.9885	7972.55	7080.8
982.0001	2552.3019	7949.1	7057.2
982.1267	2553.6146	7924.7	7032.35
982.2532	2554.9266	7890.45	6999.05
982.3798	2556.2379	7858.5	6964.6
982.5063	2557.5485	7838.55	6948.75
982.6327	2558.8585	7834.5	6933.8
982.7592	2560.1677	7801.9	6906.25
982.8856	2561.4762	7788.9	6895.75
983.0119	2562.7841	7774.4	6879.35
983.1383	2564.0913	7738.35	6848.3
983.2646	2565.3977	7726.85	6834.75
983.3908	2566.7035	7697.05	6805.6
983.517	2568.0086	7706.5	6811.3
983.6432	2569.313	7674.25	6780.8
983.7694	2570.6167	7677.15	6781.1
983.8955	2571.9197	7666.9	6775.05
984.0216	2573.222	7629.5	6733.45
984.1476	2574.5236	7610.95	6719.2
984.2737	2575.8246	7594.55	6698.6
984.3996	2577.1248	7579	6684.2
984.5256	2578.4244	7541.9	6650.7
984.6515	2579.7232	7538.5	6647.4
984.7774	2581.0214	7536.4	6621
984.9032	2582.3189	7523.8	6633.85
985.029	2583.6157	7490.25	6594.1
985.1548	2584.9118	7486.25	6593.7
985.2806	2586.2072	7449.7	6557.65
985.4063	2587.5019	7427.5	6535.1
985.5319	2588.7959	7398.05	6504.9
985.6576	2590.0893	7393	6499.75
985.7832	2591.3819	7378.35	6485.3
985.9087	2592.6739	7329	6437.8
986.0343	2593.9652	7334.9	6442.4
986.1597	2595.2557	7301.65	6411.1
986.2852	2596.5456	7293.6	6399.8
986.4106	2597.8348	7261.1	6368.3
986.536	2599.1234	7197.2	6306.85
986.6614	2600.4112	7208.35	6315.3
986.7867	2601.6983	7186.4	6291.05
986.912	2602.9848	7149	6255.5
987.0372	2604.2705	7133	6231.75
987.1624	2605.5556	7108.5	6215.95
987.2876	2606.84	7093.2	6201.85
987.4128	2608.1237	7035.2	6143.45
987.5379	2609.4067	7021.45	6130
987.6629	2610.689	7010.95	6111.4
987.788	2611.9707	6974.35	6076.9
987.913	2613.2516	6966.4	6071.6
988.0379	2614.5319	6930.25	6038.35
988.1629	2615.8115	6885.65	5991.45
988.2878	2617.0903	6855.15	5962.8
988.4126	2618.3685	6836.1	5943.75
988.5375	2619.6461	6822.1	5928.6
988.6622	2620.9229	6820.3	5925.85
988.787	2622.199	6802.65	5910.3
988.9117	2623.4745	6763.95	5870.8
989.0364	2624.7493	6730.4	5839.15
989.161	2626.0234	6708.95	5816.6
989.2857	2627.2968	6691.95	5798.65
989.4102	2628.5695	6668.55	5775.75
989.5348	2629.8415	6623.6	5731.1
989.6593	2631.1128	6607.9	5715.5
989.7837	2632.3835	6575.3	5684.15
989.9082	2633.6535	6541.1	5648.15
990.0326	2634.9228	6522.9	5630.9
990.1569	2636.1914	6511	5619.05
990.2812	2637.4593	6500.95	5602.5
990.4055	2638.7265	6469.95	5576.5
990.5298	2639.9931	6459.45	5568.35
990.654	2641.259	6459.3	5565.9
990.7782	2642.5242	6415.35	5521.5
990.9023	2643.7887	6394.15	5501.8
991.0264	2645.0525	6362.6	5470.3
991.1505	2646.3156	6346.4	5452.25
991.2745	2647.5781	6351.35	5458.55
991.3985	2648.8398	6324.45	5434.25
991.5225	2650.1009	6291	5388
991.6464	2651.3613	6283.5	5392.05
991.7703	2652.6211	6254.8	5362.75
991.8942	2653.8801	6224.65	5335.5
992.018	2655.1385	6217.85	5324.4
992.1418	2656.3961	6203.35	5312
992.2655	2657.6531	6201.3	5308.5
992.3892	2658.9094	6177.4	5284.25
992.5129	2660.1651	6150.45	5258.65
992.6366	2661.42	6142.1	5247.9
992.7602	2662.6743	6132.4	5238.65
992.8837	2663.9279	6116.45	5225.45
993.0073	2665.1808	6100.15	5207.8
993.1307	2666.433	6085.5	5194
993.2542	2667.6846	6059.85	5168.55
993.3776	2668.9354	6058.15	5161.65
993.501	2670.1856	6044.8	5151.65
993.6244	2671.4351	6016.8	5126.1
993.7477	2672.6839	6001.95	5108.05
993.8709	2673.9321	5983.35	5091.75
993.9942	2675.1795	5980.6	5088.2
994.1174	2676.4263	5969.2	5075.85
994.2405	2677.6724	5938.2	5046.8
994.3637	2678.9179	5915.15	5021.75
994.4868	2680.1626	5910.85	5020.4
994.6098	2681.4067	5883.95	4993
994.7328	2682.6501	5875.5	4983.85
994.8558	2683.8928	5846.95	4954.65
994.9788	2685.1348	5827.05	4936.9
995.1017	2686.3761	5818.85	4927.1
995.2245	2687.6168	5783.8	4891.9
995.3474	2688.8568	5769.1	4878.5
995.4702	2690.0961	5766.95	4876.5
995.5929	2691.3348	5745.65	4852.15
995.7156	2692.5727	5722.3	4830.15
995.8383	2693.81	5695.35	4802.95
995.961	2695.0466	5686.2	4794.55
996.0836	2696.2826	5660.75	4767.05
996.2062	2697.5178	5631.65	4735.95
996.3287	2698.7524	5613.9	4722.9
996.4512	2699.9863	5604.15	4708.3
996.5737	2701.2195	5592.3	4703.25
996.6961	2702.452	5589.15	4696.1
996.8185	2703.6839	5554.25	4661.1
996.9408	2704.9151	5553.35	4663.7
997.0631	2706.1456	5540.35	4646.4
997.1854	2707.3755	5514.55	4622.5
997.3077	2708.6046	5502.25	4609.15
997.4299	2709.8331	5519.55	4627.7
997.552	2711.0609	5487.6	4595.05
997.6742	2712.2881	5488.15	4594.65
997.7963	2713.5145	5492.95	4599.65
997.9183	2714.7403	5463.85	4571.65
998.0403	2715.9654	5445.65	4551.6
998.1623	2717.1899	5445.1	4540.6
998.2842	2718.4136	5443.5	4551.25
998.4062	2719.6367	5430.15	4537.5
998.528	2720.8591	5437.7	4539.35
998.6498	2722.0809	5410.7	4518.55
998.7716	2723.3019	5404.3	4508.15
998.8934	2724.5223	5410.05	4517.35
999.0151	2725.7421	5386.65	4492.45
999.1368	2726.9611	5369.25	4475.7
999.2584	2728.1795	5360.6	4465.45
999.38	2729.3972	5310.95	4419.2
999.5016	2730.6142	5309.9	4409.35
999.6231	2731.8306	5261.55	4367.45
999.7446	2733.0462	5242.95	4348.7
999.8661	2734.2612	5208.8	4310.75
999.9875	2735.4756	5174.3	4280.7
1000.1089	2736.6892	5137.35	4245.45
1000.2302	2737.9022	5100.4	4209.35
1000.3515	2739.1145	5079.2	4187.85
1000.4728	2740.3262	5079.75	4179.9
1000.594	2741.5372	5009.7	4117.45
1000.7152	2742.7475	5000.75	4108.9
1000.8363	2743.9571	4978.7	4084.25
1000.9575	2745.1661	4946.55	4050.5
1001.0785	2746.3744	4920.1	4026.9
1001.1996	2747.582	4906.15	4015.45
1001.3206	2748.7889	4889.7	3998.2
1001.4415	2749.9952	4867.2	3973.4
1001.5625	2751.2008	4840.8	3946.85
1001.6833	2752.4057	4841.1	3945.55
1001.8042	2753.61	4814.4	3921.75
1001.925	2754.8136	4807.55	3913.25
1002.0458	2756.0165	4779.2	3888.05
1002.1665	2757.2188	4768.35	3878.6
1002.2872	2758.4204	4752.15	3860.85
1002.4078	2759.6213	4746.15	3850.9
1002.5285	2760.8215	4760.5	3868.5
1002.649	2762.0211	4706.6	3812.3
1002.7696	2763.22	4698.05	3803.15
1002.8901	2764.4182	4681.8	3789.55
1003.0106	2765.6158	4673.45	3781
1003.131	2766.8127	4658.6	3766.45
1003.2514	2768.009	4630.9	3740.6
1003.3717	2769.2045	4626.65	3736.1
1003.492	2770.3994	4612.9	3719.3
1003.6123	2771.5936	4598.45	3705.9
1003.7325	2772.7872	4572.65	3680.45
1003.8527	2773.9801	4564.85	3672.85
1003.9729	2775.1723	4555.5	3647.45
1004.093	2776.3639	4542.3	3652.85
1004.2131	2777.5548	4519.3	3624.9
1004.3331	2778.745	4484.95	3591.45
1004.4531	2779.9346	4484.85	3592.85
1004.5731	2781.1235	4481.5	3589.75
1004.693	2782.3117	4468.25	3576.65
1004.8129	2783.4992	4460.8	3567.7
1004.9328	2784.6861	4444.4	3551.35
1005.0526	2785.8723	4458	3565.7
1005.1723	2787.0579	4436	3541.8
1005.2921	2788.2428	4419.55	3527.25
1005.4118	2789.427	4433.2	3542.25
1005.5314	2790.6106	4428.9	3540.1
1005.651	2791.7935	4411.4	3519
1005.7706	2792.9757	4405.25	3513.9
1005.8902	2794.1573	4406.15	3511.6
1006.0097	2795.3382	4404.5	3514.8
1006.1291	2796.5184	4408.2	3518.2
1006.2485	2797.698	4423.95	3530.8
1006.3679	2798.8769	4417.75	3526.9
1006.4873	2800.0551	4426.25	3535.2
1006.6066	2801.2327	4414.95	3520.25
1006.7258	2802.4096	4406.6	3514.45
1006.8451	2803.5859	4431.6	3536.75
1006.9642	2804.7615	4432.8	3541.9
1007.0834	2805.9364	4438.6	3547.75
1007.2025	2807.1106	4474.55	3584.7
1007.3216	2808.2842	4494.4	3602.1
1007.4406	2809.4572	4497.15	3604.65
1007.5596	2810.6294	4513.7	3620
1007.6785	2811.801	4565.6	3675.35
1007.7975	2812.972	4590.95	3699.25
1007.9163	2814.1423	4630.25	3739.2
1008.0352	2815.3119	4655.15	3762.3
1008.154	2816.4808	4686.4	3796.2
1008.2727	2817.6491	4730.55	3837.25
1008.3914	2818.8167	4768.15	3877.05
1008.5101	2819.9837	4817.35	3921.2
1008.6288	2821.15	4830.95	3940.55
1008.7474	2822.3157	4875.55	3984.65
1008.8659	2823.4807	4911.15	4020
1008.9844	2824.645	4941.9	4048.6
1009.1029	2825.8086	4993.8	4103.45
1009.2214	2826.9716	5011.45	4119.15
1009.3398	2828.134	5027.6	4138.4
1009.4581	2829.2957	5064.2	4171.05
1009.5764	2830.4567	5091.35	4198.15
1009.6947	2831.617	5100.6	4207.8
1009.813	2832.7767	5092.9	4202.35
1009.9312	2833.9358	5091	4198.6
1010.0493	2835.0941	5080.15	4187.05
1010.1675	2836.2519	5067.65	4175.45
1010.2855	2837.4089	5045.05	4153.3
1010.4036	2838.5653	5034.8	4144.2
1010.5216	2839.7211	5017	4125.05
1010.6396	2840.8761	4998.1	4103.1
1010.7575	2842.0306	5035.55	4145.4
1010.8754	2843.1843	5060.6	4169.3
1010.9932	2844.3374	5109.55	4218.3
1011.111	2845.4899	5146.55	4255.5
1011.2288	2846.6417	5221.25	4328.1
1011.3465	2847.7928	5285.55	4394.2
1011.4642	2848.9433	5365.05	4473.7
1011.5818	2850.0931	5431.35	4541
1011.6995	2851.2422	5508.65	4614.8
1011.817	2852.3907	5561.55	4669.2
1011.9345	2853.5385	5601.65	4708.65
1012.052	2854.6857	5689.15	4770.25
1012.1695	2855.8323	5711.75	4821.8
1012.2869	2856.9781	5772.7	4882
1012.4042	2858.1233	5805	4913
1012.5216	2859.2679	5839.4	4948.2
1012.6389	2860.4118	5850.7	4959.8
1012.7561	2861.555	5907.8	5011.95
1012.8733	2862.6976	5933.75	5038.75
1012.9905	2863.8395	5930.15	5039.95
1013.1076	2864.9808	5964.55	5071.75
1013.2247	2866.1214	5951.35	5062.85
1013.3417	2867.2614	5953.9	5061.7
1013.4587	2868.4007	5962.25	5068.65
1013.5757	2869.5393	5959.9	5066.55
1013.6926	2870.6773	5965.65	5069.2
1013.8095	2871.8146	5959.5	5065.5
1013.9263	2872.9513	5954.25	5061
1014.0431	2874.0874	5933.25	5041.8
1014.1599	2875.2227	5914.1	5022.95
1014.2766	2876.3574	5878.35	4986.65
1014.3933	2877.4915	5848.2	4956.75
1014.51	2878.6249	5802	4912.2
1014.6266	2879.7577	5783.95	4892.15
1014.7431	2880.8898	5770	4867.65
1014.8596	2882.0212	5739.65	4847.45
1014.9761	2883.152	5730.6	4839.75
1015.0925	2884.2821	5694.15	4802.55
1015.2089	2885.4116	5662.8	4773.05
1015.3253	2886.5405	5663.65	4773.2
1015.4416	2887.6686	5661.45	4766.8
1015.5579	2888.7962	5647.3	4758.05
1015.6741	2889.923	5645.75	4755.9
1015.7903	2891.0493	5644	4753.75
1015.9065	2892.1748	5656.5	4765.6
1016.0226	2893.2997	5671.5	4780.05
1016.1387	2894.424	5664.65	4773.3
1016.2547	2895.5476	5655.1	4763.45
1016.3707	2896.6706	5682.7	4792.65
1016.4866	2897.7929	5703.25	4811.5
1016.6025	2898.9145	5727.15	4836.05
1016.7184	2900.0355	5748.15	4854.85
1016.8342	2901.1559	5769.75	4877.25
1016.95	2902.2756	5795.85	4899.4
1017.0658	2903.3946	5810.55	4919
1017.1815	2904.513	5827.2	4932.7
1017.2971	2905.6308	5834.15	4942.5
1017.4127	2906.7479	5848.4	4956.3
1017.5283	2907.8643	5880.7	4987.75
1017.6439	2908.9801	5878.15	4987.95
1017.7594	2910.0953	5867.3	4974.85
1017.8748	2911.2098	5872.3	4976.75
1017.9902	2912.3236	5863.05	4964.55
1018.1056	2913.4368	5835.95	4940.5
1018.2209	2914.5494	5816.35	4925.75
1018.3362	2915.6613	5782.5	4886
1018.4515	2916.7725	5757	4860.8
1018.5667	2917.8831	5716.95	4824.85
1018.6819	2918.9931	5665.6	4770.65
1018.797	2920.1024	5634.35	4740.15
1018.9121	2921.211	5608.15	4717.9
1019.0271	2922.319	5575.6	4682.8
1019.1421	2923.4264	5547.15	4657.65
1019.2571	2924.5331	5520.1	4630.9
1019.372	2925.6391	5491.5	4599.7
1019.4869	2926.7445	5493.85	4602.25
1019.6017	2927.8493	5449.45	4555.95
1019.7165	2928.9534	5462.35	4571.65
1019.8313	2930.0569	5449.6	4556.1
1019.946	2931.1597	5440.15	4546.55
1020.0606	2932.2619	5421.2	4530.75
1020.1753	2933.3634	5412.15	4521
1020.2899	2934.4643	5399.95	4502
1020.4044	2935.5645	5370.65	4473.05
1020.5189	2936.6641	5323.2	4426.25
1020.6334	2937.763	5276.55	4383.3
1020.7478	2938.8613	5226.35	4333.75
1020.8622	2939.959	5150.35	4255.2
1020.9765	2941.056	5051.4	4161.65
1021.0908	2942.1523	4967.35	4076.1
1021.2051	2943.248	4870.4	3979.35
1021.3193	2944.3431	4764.3	3870.95
1021.4334	2945.4375	4677.7	3787.8
1021.5476	2946.5313	4543.25	3652.7
1021.6617	2947.6244	4416.8	3524.15
1021.7757	2948.7169	4303.05	3410.9
1021.8897	2949.8087	4210.4	3318.75
1022.0037	2950.8999	4124.35	3232.4
1022.1176	2951.9904	4044.6	3154.8
1022.2315	2953.0803	3942.75	3050.05
1022.3453	2954.1696	3882.8	2992.45
1022.4591	2955.2582	3824.7	2933.65
1022.5728	2956.3462	3769.45	2879.05
1022.6865	2957.4335	3730.65	2838.25
1022.8002	2958.5202	3682.6	2787.55
1022.9138	2959.6062	3633.75	2741.95
1023.0274	2960.6916	3607.65	2717.85
1023.141	2961.7764	3590.9	2699.25
1023.2545	2962.8605	3557.05	2665.45
1023.3679	2963.9439	3542.4	2652.5
1023.4813	2965.0267	3520	2628.1
1023.5947	2966.1089	3523	2608.05
1023.708	2967.1905	3482.65	2591.05
1023.8213	2968.2714	3482.95	2593.15
1023.9346	2969.3516	3461.75	2569.4
1024.0478	2970.4312	3473.2	2572.4
1024.1609	2971.5102	3471.3	2580.5
1024.274	2972.5885	3450.2	2560.05
1024.3871	2973.6662	3452.35	2556.35
1024.5002	2974.7432	3440.05	2550.95
1024.6132	2975.8196	3424.45	2532.95
1024.7261	2976.8954	3406.4	2515
1024.839	2977.9705	3392.9	2502.95
1024.9519	2979.045	3368.35	2476.85
1025.0647	2980.1188	3343.95	2454.35
1025.1775	2981.192	3324.35	2432.55
1025.2902	2982.2645	3278.4	2385.75
1025.4029	2983.3364	3256.15	2363.85
1025.5156	2984.4077	3223.5	2333.2
1025.6282	2985.4783	3197.8	2300.15
1025.7407	2986.5483	3149.4	2257.85
1025.8532	2987.6177	3112.65	2224.05
1025.9657	2988.6864	3063.7	2172.25
1026.0782	2989.7545	3025.3	2134.05
1026.1906	2990.8219	2993.85	2103.3
1026.3029	2991.8887	2960.15	2067.5
1026.4152	2992.9548	2920.5	2029.7
1026.5275	2994.0204	2879.25	1988.65
1026.6397	2995.0852	2856.35	1967.2
1026.7519	2996.1495	2823.35	1932.45
1026.864	2997.2131	2789	1895.6
1026.9761	2998.276	2769.85	1878.6
1027.0882	2999.3383	2737.55	1844.95
1027.2002	3000.4	2725.95	1835.7
1027.3122	3001.4611	2707.45	1815.65
1027.4241	3002.5215	2679.9	1789.5
1027.536	3003.5812	2673.05	1782.8
1027.6478	3004.6404	2649	1758.45
1027.7596	3005.6989	2630.85	1738.3
1027.8714	3006.7567	2623.4	1732.8
1027.9831	3007.8139	2623.1	1710.5
1028.0947	3008.8705	2583.55	1692.15
1028.2064	3009.9264	2584.05	1688.65
1028.3179	3010.9818	2580.9	1690.45
1028.4295	3012.0364	2566.3	1675.05
1028.541	3013.0905	2560.7	1670.55
1028.6524	3014.1439	2547.05	1654.55
1028.7638	3015.1966	2542.35	1652.95
1028.8752	3016.2487	2543.75	1652.7
1028.9865	3017.3002	2524.05	1626.4
1029.0978	3018.3511	2535.1	1644.8
1029.209	3019.4013	2525.6	1637.75
1029.3202	3020.4509	2517.25	1628.3
1029.4314	3021.4998	2515.7	1625.3
1029.5425	3022.5481	2512.05	1620.05
1029.6535	3023.5958	2506.55	1614.25
1029.7645	3024.6428	2512	1619.65
1029.8755	3025.6892	2496.3	1606.05
1029.9864	3026.735	2491.35	1601.6
1030.0973	3027.7802	2488.35	1597.6
1030.2082	3028.8247	2489.85	1599.1
1030.319	3029.8685	2482.25	1593
1030.4297	3030.9118	2476.5	1585.2
1030.5404	3031.9544	2489.45	1599.95
1030.6511	3032.9963	2484.5	1592
1030.7617	3034.0376	2478.9	1588.05
1030.8723	3035.0783	2486.25	1593
1030.9829	3036.1184	2483.75	1592.7
1031.0934	3037.1578	2478.45	1589.65
1031.2038	3038.1966	2473.35	1582.9
1031.3142	3039.2348	2469.25	1579.65
1031.4246	3040.2723	2480.55	1578.9
1031.5349	3041.3092	2449.1	1560.05
1031.6452	3042.3455	2449.75	1558.2
1031.7554	3043.3811	2453.55	1561.55
1031.8656	3044.4161	2430.2	1539.3
1031.9758	3045.4505	2433.75	1545.2
1032.0859	3046.4842	2407.55	1516.65
1032.1959	3047.5173	2397.05	1508.65
1032.3059	3048.5498	2391.3	1499.5
1032.4159	3049.5816	2384.15	1491.75
1032.5258	3050.6128	2362.8	1470.35
1032.6357	3051.6434	2367.8	1474.65
1032.7455	3052.6734	2349.15	1456
1032.8553	3053.7027	2340.1	1451.25
1032.9651	3054.7314	2336.15	1447
1033.0748	3055.7594	2318.3	1429.95
1033.1845	3056.7868	2315.35	1423.15
1033.2941	3057.8136	2295.3	1402.8
1033.4037	3058.8398	2291.35	1400.85
1033.5132	3059.8653	2273.95	1384.25
1033.6227	3060.8902	2274.9	1385.9
1033.7321	3061.9145	2261	1368.1
1033.8415	3062.9381	2258.9	1366.8
1033.9509	3063.9612	2251.55	1343.55
1034.0602	3064.9835	2242.05	1351.1
1034.1694	3066.0053	2228.2	1335.85
1034.2787	3067.0264	2209.15	1319.2
1034.3878	3068.0469	2196.2	1305.7
1034.497	3069.0668	2189.15	1295.8
1034.6061	3070.086	2180.25	1289.6
1034.7151	3071.1046	2157.25	1264.7
1034.8241	3072.1226	2146.25	1252.8
1034.9331	3073.1399	2137.85	1248.15
1035.042	3074.1567	2120.75	1229.75
1035.1508	3075.1727	2110	1217.35
1035.2597	3076.1882	2102.05	1212.35
1035.3684	3077.203	2094.65	1204.1
1035.4772	3078.2173	2083.4	1191.4
1035.5859	3079.2308	2066.9	1172.35
1035.6945	3080.2438	2057.75	1165.55
1035.8031	3081.2561	2045.55	1155.35
1035.9117	3082.2678	2035.6	1145.35
1036.0202	3083.2789	2013.4	1123.05
1036.1286	3084.2893	2017.9	1127.5
1036.2371	3085.2991	2000.55	1109.3
1036.3454	3086.3083	1998.95	1103.5
1036.4538	3087.3169	1994.25	1103.3
1036.562	3088.3248	1979.55	1087.35
1036.6703	3089.3321	1964.25	1073.55
1036.7785	3090.3388	1957.25	1067.4
1036.8866	3091.3449	1945.65	1054.85
1036.9948	3092.3503	1941.15	1047.45
1037.1028	3093.3551	1928.75	1037.4
1037.2108	3094.3593	1929.3	1040.15
1037.3188	3095.3629	1923.9	1033.95
1037.4267	3096.3658	1900.95	1009.2
1037.5346	3097.3681	1907.15	1018
1037.6425	3098.3698	1904.2	1010.7
1037.7503	3099.3708	1899.75	1002.6
1037.858	3100.3713	1880.45	990.35
1037.9657	3101.3711	1875.4	985.6
1038.0734	3102.3702	1983.35	977.25
1038.181	3103.3688	1876.7	985.65
1038.2886	3104.3667	1868.1	978.6
1038.3961	3105.364	1859.15	969.65
1038.5036	3106.3607	1851.55	960.35
1038.611	3107.3568	1851.5	957.75
1038.7184	3108.3522	1831.55	939.9
1038.8257	3109.347	1835.05	943.7
1038.933	3110.3412	1842.15	947.2
1039.0403	3111.3348	1821.15	929.95
1039.1475	3112.3277	1817.45	927.3
1039.2547	3113.32	1815.1	924.95
1039.3618	3114.3117	1804.05	913.05
1039.4689	3115.3028	1795.95	906
1039.5759	3116.2932	1791.9	897.2
1039.6829	3117.2831	1790.05	891.85
1039.7898	3118.2723	1788	895.25
1039.8967	3119.2608	1781.05	890.55
1040.0035	3120.2488	1770.35	880.35
1040.1103	3121.2361	1765.15	874.45
1040.2171	3122.2229	1758.05	869.5
1040.3238	3123.209	1761.35	871.35
1040.4305	3124.1944	1750.3	857.25
1040.5371	3125.1793	1746	853.55
1040.6437	3126.1635	1741	850.9
1040.7502	3127.1471	1744.5	854.7
1040.8567	3128.1301	1729.05	839.35
1040.9631	3129.1125	1726	836.05
1041.0695	3130.0942	1727.85	839.7
1041.1759	3131.0753	1726.6	828.85
1041.2822	3132.0558	1713.45	820.4
1041.3884	3133.0357	1716.35	822
1041.4946	3134.015	1701.5	811.15
1041.6008	3134.9936	1705.7	813.3
1041.7069	3135.9716	1720.4	809.45
1041.813	3136.949	1698.7	808.35
1041.919	3137.9258	1696.55	802.2
1042.025	3138.902	1693.6	797.65
1042.1309	3139.8775	1687.2	797
1042.2368	3140.8524	1682.55	792.6
1042.3427	3141.8267	1675.95	784.1
1042.4485	3142.8004	1675.5	784.9
1042.5542	3143.7735	1679.85	782.65
1042.6599	3144.7459	1672.15	778.55
1042.7656	3145.7178	1656	763.85
1042.8712	3146.689	1655.35	764.25
1042.9768	3147.6596	1654.25	761.8
1043.0823	3148.6295	1644.4	753.8
1043.1878	3149.5989	1634.6	744.9
1043.2932	3150.5676	1638.25	748.4
1043.3986	3151.5357	1630.55	744.3
1043.5039	3152.5032	1633	744.3
1043.6092	3153.4701	1621.45	730.75
1043.7145	3154.4364	1626.3	733.1
1043.8197	3155.402	1612.9	723.6
1043.9248	3156.367	1615.1	723.35
1044.03	3157.3315	1654.95	721.85
1044.135	3158.2952	1610.4	718.9
1044.24	3159.2584	1600.9	711.1
1044.345	3160.221	1594.2	703.15
1044.4499	3161.1829	1586.85	696.25
1044.5548	3162.1442	1590.15	699.65
1044.6596	3163.105	1580.9	688.65
1044.7644	3164.065	1573.1	683.3
1044.8692	3165.0245	1575.05	682
1044.9739	3165.9834	1573.5	685.3
1045.0785	3166.9416	1566	674.85
1045.1831	3167.8993	1568.2	676.7
1045.2877	3168.8563	1558.3	667.85
1045.3922	3169.8127	1552.95	662.45
1045.4966	3170.7684	1560.7	671.15
1045.6011	3171.7236	1550.6	659.75
1045.7054	3172.6782	1549.75	658.5
1045.8098	3173.6321	1533.9	644.9
1045.914	3174.5854	1542.6	648.2
1046.0183	3175.5381	1538	646.6
1046.1224	3176.4902	1536.5	645.7
1046.2266	3177.4417	1526.85	637.8
1046.3307	3178.3926	1524.9	634.25
1046.4347	3179.3428	1521.45	633.5
1046.5387	3180.2924	1520.05	630.4
1046.6427	3181.2415	1514.25	622.7
1046.7466	3182.1899	1510.75	618.8
1046.8504	3183.1377	1503.1	612.9
1046.9542	3184.0848	1509.45	616.25
1047.058	3185.0314	1502.15	611.4
1047.1617	3185.9773	1496.55	605.5
1047.2654	3186.9227	1491.2	599.8
1047.369	3187.8674	1491.45	602.9
1047.4726	3188.8115	1495.05	600.2
1047.5761	3189.755	1486.25	594.7
1047.6796	3190.6979	1476.45	586.35
1047.783	3191.6402	1475.5	585.2
1047.8864	3192.5818	1469.55	580.35
1047.9898	3193.5229	1497.15	582.8
1048.0931	3194.4633	1475.65	583.55
1048.1963	3195.4031	1459.25	569.5
1048.2995	3196.3423	1465.05	575.75
1048.4027	3197.2809	1454.35	563.45
1048.5058	3198.2189	1459.75	569.15
1048.6089	3199.1563	1461.7	563.3
1048.7119	3200.0931	1458.8	569.3
1048.8148	3201.0292	1448.25	559.1
1048.9178	3201.9648	1447.7	558.7
1049.0206	3202.8997	1447.35	555.5
1049.1235	3203.834	1441.9	552.75
1049.2262	3204.7677	1446.05	556.5
1049.329	3205.7008	1435.05	541.9
1049.4317	3206.6333	1430.1	541.6
1049.5343	3207.5652	1435.15	541.65
1049.6369	3208.4964	1426.2	535.25
1049.7394	3209.4271	1427.05	538.7
1049.8419	3210.3571	1420.35	531.1
1049.9444	3211.2865	1420.45	532.1
1050.0468	3212.2154	1417.75	527.85
1050.1491	3213.1436	1411.55	516.15
1050.2514	3214.0712	1412.5	515.1
1050.3537	3214.9982	1402	510.4
1050.4559	3215.9246	1404.35	513.95
1050.5581	3216.8503	1406	517.85
1050.6602	3217.7755	1399.95	509.05
1050.7623	3218.7001	1398.2	508.9
1050.8643	3219.624	1385.7	496.05
1050.9663	3220.5473	1392.35	501.65
1051.0682	3221.4701	1391.8	501.85
1051.1701	3222.3922	1385.3	492.25
1051.2719	3223.3137	1387.2	497.55
1051.3737	3224.2346	1384.5	493.95
1051.4754	3225.1549	1386.1	496.15
1051.5771	3226.0746	1378.55	488.6
1051.6788	3226.9937	1374.4	484.75
1051.7804	3227.9121	1368.05	478.3
1051.8819	3228.83	1368.4	477.65
1051.9834	3229.7473	1366.35	474.35
1052.0849	3230.6639	1362.4	472.35
1052.1863	3231.5799	1359.45	470.2
1052.2876	3232.4954	1363.15	472.55
1052.3889	3233.4102	1353.4	463.65
1052.4902	3234.3244	1356	464.6
1052.5914	3235.238	1351.45	460.7
1052.6926	3236.151	1364.65	450.1
1052.7937	3237.0634	1344.75	455.55
1052.8948	3237.9752	1337.9	447.25
1052.9958	3238.8864	1343.15	450.6
1053.0968	3239.797	1343	453.55
1053.1977	3240.7069	1337.45	446.3
1053.2986	3241.6163	1335.7	444
1053.3994	3242.5251	1333.25	444.3
1053.5002	3243.4332	1328.15	438.3
1053.6009	3244.3408	1323.2	432.95
1053.7016	3245.2477	1318.5	429.5
1053.8022	3246.154	1317.55	427.5
1053.9028	3247.0598	1310.1	419.95
1054.0034	3247.9649	1313	423.5
1054.1039	3248.8694	1307.6	417.4
1054.2043	3249.7733	1302.75	412.25
1054.3047	3250.6766	1305.6	416.7
1054.4051	3251.5793	1302.5	412.85
1054.5054	3252.4814	1295.05	406.15
1054.6056	3253.3829	1297	406.5
1054.7058	3254.2838	1288.9	400.4
1054.806	3255.1841	1296.85	409.1
1054.9061	3256.0838	1289.35	399.6
1055.0061	3256.9829	1279.05	389.25
1055.1062	3257.8814	1283.35	392.65
1055.2061	3258.7792	1279.9	387.15
1055.306	3259.6765	1271.65	379.75
1055.4059	3260.5731	1268.6	380.3
1055.5057	3261.4692	1263.2	371.2
1055.6055	3262.3647	1261.75	371.65
1055.7052	3263.2595	1249.3	360.15
1055.8049	3264.1538	1253.1	364.25
1055.9045	3265.0474	1244.25	356.4
1056.0041	3265.9404	1241.15	351.6
1056.1036	3266.8329	1234.8	347.45
1056.2031	3267.7247	1239.35	340.45
1056.3025	3268.616	1217.4	328.6
1056.4019	3269.5066	1215.75	325.55
1056.5013	3270.3966	1206.6	314.35
1056.6005	3271.286	1198.2	309.55
