Software Version:	3.9.2.0
Unit SN:	10000200
Spectrometer SN:	6960
Date:	3/6/2024 9:59:29 AM
Data Line Index:	25
Spectral Points:	2048
Integration time (ms):	125
Averages:	20
Delay (ms):	30
Sequence Number:	1
Processing:	dark subtract
Laser Power (mW):	300
Laser Current (mA):	824
Laser Diode Temp (C):	25.1
Laser Case Temp (C):	24.6
System Temp (C):	24.4
Spectrometer Temp (C):	22
CCD Temp (C):	0
Secondary Temp (C):	20.014
Heatsink Temp (C):	18.301
CCDPCB Temp (C):	31.06
SecondaryPCB Temp (C):	26.247

Wavelength	RamanShift	Raw Counts	Dark Subtracted
787.061	30.1047	601.95	196.25
787.2016	32.3739	605.6	198.2
787.3422	34.6426	623.75	217.15
787.4828	36.9109	636.55	227.2
787.6235	39.1787	651.65	238.7
787.7642	41.4461	673.6	256.8
787.9049	43.7131	695.35	275.3
788.0456	45.9796	709.6	285.45
788.1863	48.2456	735.1	307.75
788.3271	50.5112	754.15	321.85
788.4679	52.7764	774.3	342.45
788.6087	55.0411	801.65	363.25
788.7496	57.3054	824.65	382.1
788.8904	59.5692	847.85	402.2
789.0313	61.8326	879.2	430.4
789.1722	64.0955	917.55	465.65
789.3132	66.3579	954.9	498.5
789.4541	68.6199	998.85	538.95
789.5951	70.8815	1080.75	615.9
789.7361	73.1426	1269.05	801.6
789.8771	75.4032	1725.4	1254.5
790.0181	77.6634	2885.45	2409.3
790.1592	79.9231	5737.85	5258.9
790.3003	82.1824	12290.1	11802.45
790.4414	84.4412	26585.2	26078.9
790.5825	86.6995	40911.45	40388.3
790.7237	88.9574	48135.6	47596.05
790.8648	91.2148	52274.25	51723.4
791.006	93.4717	53932.55	53373.35
791.1472	95.7282	54642.55	54078.9
791.2885	97.9842	54985.55	54418.4
791.4297	100.2398	55056.95	54490.15
791.571	102.4949	54978.7	54409.55
791.7123	104.7495	55038.1	54461.25
791.8536	107.0036	54884.95	54309.65
791.9949	109.2573	55135.7	54559.9
792.1363	111.5105	54899.7	54322.15
792.2777	113.7632	55061.4	54480.5
792.4191	116.0154	55148.95	54559.75
792.5605	118.2672	55320.3	54733.35
792.7019	120.5185	55330.1	54745.1
792.8434	122.7693	55350.05	54759.85
792.9849	125.0197	55220.9	54625.05
793.1264	127.2696	55593.55	54996.85
793.2679	129.519	55626.35	55024.4
793.4094	131.7679	55813.15	55208.3
793.551	134.0163	55346.3	54741.25
793.6926	136.2642	55548	54939.3
793.8342	138.5117	55778.5	55164.85
793.9758	140.7587	55697.3	55082.9
794.1175	143.0052	55750.95	55132.7
794.2591	145.2512	55511.15	54895.9
794.4008	147.4967	55759.15	55139.2
794.5425	149.7417	55675.95	55055.6
794.6842	151.9863	55730.7	55105.8
794.826	154.2304	55525.2	54898.65
794.9677	156.4739	55629.95	54992.55
795.1095	158.717	55811.95	55178.65
795.2513	160.9596	55686.8	55047.95
795.3931	163.2017	55490.8	54848.15
795.535	165.4433	55702.1	55059.55
795.6768	167.6844	55599.85	54954.55
795.8187	169.925	55713.05	55063.05
795.9606	172.1651	55605.7	54953.8
796.1025	174.4047	55605.95	54951.7
796.2445	176.6439	55646.05	54992.9
796.3864	178.8825	55621.55	54962.4
796.5284	181.1206	55762.35	55098.05
796.6704	183.3582	55755.55	55086.6
796.8124	185.5954	55609.45	54944.05
796.9544	187.832	55694.25	55023.35
797.0965	190.0681	55625.2	54948.6
797.2386	192.3037	55815.25	55133.4
797.3806	194.5388	56013.8	55329
797.5228	196.7734	55539.6	54854.8
797.6649	199.0075	55979	55294.15
797.807	201.2411	55925.95	55240.25
797.9492	203.4742	56166.3	55474.3
798.0914	205.7068	56159.55	55465.35
798.2336	207.9389	56142.7	55446.3
798.3758	210.1704	56154.45	55459.25
798.518	212.4015	56344	55663.6
798.6603	214.632	56126.2	55451.6
798.8025	216.862	56344.15	55671.45
798.9448	219.0915	56296.45	55619.4
799.0871	221.3205	56257.05	55578.5
799.2294	223.549	56458.35	55783.8
799.3718	225.777	56474.25	55800.85
799.5141	228.0044	56504.65	55823.85
799.6565	230.2314	56507.85	55824.4
799.7989	232.4578	56513	55825.5
799.9413	234.6837	56555	55861.3
800.0837	236.909	56830.1	56134.55
800.2262	239.1339	56456.75	55735.25
800.3687	241.3582	56640.45	55935.1
800.5111	243.582	56614.05	55876.25
800.6536	245.8053	56656.05	55932.15
800.7961	248.0281	56630.4	55911.75
800.9387	250.2503	56660.5	55935.6
801.0812	252.472	56661.5	55935.7
801.2238	254.6932	56699.1	55977.05
801.3664	256.9139	56671.45	55944.5
801.509	259.134	56918.8	56187.6
801.6516	261.3536	56579.95	55848.3
801.7942	263.5727	56804.8	56074.05
801.9369	265.7912	56671.75	55942.95
802.0795	268.0092	56777.15	56043.75
802.2222	270.2267	56759.75	56027.85
802.3649	272.4436	56694	55963.95
802.5076	274.6601	56766.5	56022.4
802.6504	276.8759	56795.4	56054.75
802.7931	279.0913	56806.4	56068.85
802.9359	281.3061	56730.35	55992.65
803.0787	283.5204	56876.7	56133.05
803.2215	285.7341	56815.1	56068.45
803.3643	287.9473	56969.4	56209.7
803.5071	290.16	56834.1	56083.65
803.6499	292.3721	57001.5	56260.2
803.7928	294.5837	56787.85	56041.6
803.9357	296.7947	56757.65	56010.9
804.0786	299.0052	56898.25	56153.15
804.2215	301.2152	56819.4	56069.85
804.3644	303.4246	56966.45	56220.95
804.5074	305.6334	56947.75	56200.45
804.6503	307.8418	56783.65	56032.8
804.7933	310.0495	56838.8	56086.05
804.9363	312.2568	56761.15	56007.9
805.0793	314.4635	56731.25	55975.85
805.2223	316.6696	56756.75	55996.4
805.3653	318.8752	56796.55	56032.45
805.5084	321.0802	56541.45	55780.8
805.6514	323.2847	56667.7	55903.05
805.7945	325.4887	56669.45	55907.25
805.9376	327.692	56597.5	55833.8
806.0807	329.8949	56696.5	55933.5
806.2238	332.0972	56646.9	55879.65
806.367	334.2989	56705.4	55936.3
806.5101	336.5001	56733.45	55961.8
806.6533	338.7007	56575.25	55799.55
806.7965	340.9008	56660.85	55890.2
806.9397	343.1003	56679.05	55905.9
807.0829	345.2992	56766	55987.2
807.2261	347.4976	56662.25	55884.05
807.3693	349.6955	56640.6	55859.1
807.5126	351.8927	56647	55864.95
807.6559	354.0895	56660	55866.9
807.7991	356.2856	56689.3	55902.6
807.9424	358.4812	56754.2	55968.3
808.0857	360.6763	56673.4	55885.95
808.2291	362.8707	56694.2	55906.7
808.3724	365.0646	56686	55894.4
808.5158	367.258	56692.5	55897.7
808.6591	369.4508	56606.05	55808.3
808.8025	371.643	56684.6	55889.4
808.9459	373.8346	56643.1	55843.2
809.0893	376.0257	56609.05	55807.6
809.2327	378.2162	56557.15	55754.55
809.3762	380.4062	56527.7	55730.4
809.5196	382.5956	56525.3	55727.2
809.6631	384.7844	56545.2	55750.05
809.8066	386.9726	56537.45	55744.45
809.9501	389.1603	56583.75	55791.1
810.0936	391.3474	56464.55	55643
810.2371	393.5339	56554	55760.75
810.3806	395.7199	56357.35	55566
810.5241	397.9052	56362.4	55569.3
810.6677	400.09	56401.85	55609
810.8113	402.2743	56451.2	55660.85
810.9548	404.4579	56426.85	55633.5
811.0984	406.641	56405.8	55608.7
811.2421	408.8235	56488.15	55689.7
811.3857	411.0054	56466.6	55665.75
811.5293	413.1868	56495.5	55687.05
811.673	415.3675	56443.55	55635.1
811.8166	417.5477	56448.75	55640.45
811.9603	419.7273	56461.05	55649.3
812.104	421.9064	56383.15	55566.15
812.2477	424.0848	56383.4	55571.75
812.3914	426.2627	56401.6	55590.7
812.5351	428.4399	56287.75	55472.05
812.6788	430.6166	56226.4	55407.6
812.8226	432.7928	56245.35	55426.2
812.9663	434.9683	56155	55336.35
813.1101	437.1432	56153.1	55334.75
813.2539	439.3176	56128.8	55312.3
813.3977	441.4914	55997.2	55182.3
813.5415	443.6645	56065.15	55248.5
813.6853	445.8371	55995.15	55176.4
813.8291	448.0091	55864.2	55042.5
813.973	450.1806	55830.9	55011.2
814.1168	452.3514	55788.1	54966.85
814.2607	454.5216	55744.95	54919
814.4046	456.6913	55701.65	54879.9
814.5485	458.8603	55727.55	54907.2
814.6924	461.0288	55690.8	54871.35
814.8363	463.1967	55725.35	54907.75
814.9802	465.3639	55769.35	54950.8
815.1241	467.5306	55596.15	54774.15
815.2681	469.6967	55656.2	54836.25
815.412	471.8622	55603.6	54784.65
815.556	474.0271	55612.9	54788.25
815.7	476.1914	55644.6	54817.2
815.844	478.3551	55600.05	54774.6
815.988	480.5182	55681.4	54858.3
816.132	482.6807	55579.25	54756.4
816.276	484.8426	55620.4	54804.55
816.4201	487.0039	55721.45	54898.3
816.5641	489.1647	55735.85	54909.35
816.7082	491.3248	55697.2	54869.95
816.8522	493.4843	55759.05	54933.15
816.9963	495.6432	55733.35	54908.7
817.1404	497.8015	55558.95	54726.4
817.2845	499.9592	55675.65	54843.95
817.4286	502.1163	55668.35	54832.95
817.5727	504.2728	55601.4	54770.2
817.7168	506.4287	55684.55	54859.15
817.861	508.5839	55535.8	54711.1
818.0051	510.7386	55593.4	54760.45
818.1493	512.8927	55618.45	54782
818.2935	515.0461	55607.65	54770.7
818.4377	517.199	55607.75	54770.85
818.5818	519.3512	55553.25	54714.6
818.726	521.5029	55527.65	54688.25
818.8703	523.6539	55569.55	54733.95
819.0145	525.8043	55457.2	54616
819.1587	527.9541	55518.2	54676.15
819.303	530.1033	55482.05	54641.5
819.4472	532.2519	55449.6	54608
819.5915	534.3999	55506.65	54664.6
819.7357	536.5472	55552.55	54712.8
819.88	538.694	55424.25	54588.7
820.0243	540.8401	55526.15	54686.2
820.1686	542.9856	55533.9	54687.3
820.3129	545.1305	55518.15	54670.3
820.4572	547.2748	55474.1	54623.95
820.6016	549.4185	55446.1	54597.8
820.7459	551.5615	55507	54656
820.8902	553.704	55500.95	54652.25
821.0346	555.8458	55369.75	54527.25
821.1789	557.987	55393.95	54547.2
821.3233	560.1276	55414.4	54565.35
821.4677	562.2675	55430.5	54583.5
821.6121	564.4069	55409.7	54557.5
821.7565	566.5456	55438.45	54593.4
821.9009	568.6837	55346.35	54500.95
822.0453	570.8212	55329	54482.65
822.1897	572.958	55190.25	54340.2
822.3342	575.0942	55224.75	54376.85
822.4786	577.2299	55112.95	54265.5
822.6231	579.3648	55028.15	54185.75
822.7675	581.4992	54936.9	54100.2
822.912	583.6329	54896	54057.55
823.0565	585.766	54891.8	54048.5
823.201	587.8985	54887.15	54042.45
823.3454	590.0304	54720.8	53859.5
823.4899	592.1616	54789.35	53933.15
823.6345	594.2922	54714.25	53859.45
823.779	596.4222	54650.5	53794.6
823.9235	598.5515	54659.9	53805.3
824.068	600.6802	54647.75	53793.6
824.2126	602.8083	54532.8	53678.1
824.3571	604.9358	54542.85	53684.5
824.5017	607.0626	54525.3	53667.85
824.6462	609.1888	54365.7	53505.95
824.7908	611.3144	54455.55	53599.65
824.9354	613.4393	54368.85	53507.75
825.08	615.5636	54281.65	53420.3
825.2246	617.6873	54354.2	53494.5
825.3692	619.8103	54255.2	53394.1
825.5138	621.9327	54321.65	53458.9
825.6584	624.0544	54303.5	53447.65
825.803	626.1756	54276.25	53420.75
825.9477	628.2961	54270.15	53410.95
826.0923	630.4159	54169.65	53309.85
826.237	632.5351	54114.9	53252.9
826.3816	634.6537	54232.7	53372.45
826.5263	636.7716	54079.35	53214.3
826.6709	638.8889	54146.3	53278.85
826.8156	641.0056	54183.75	53318.25
826.9603	643.1216	54125.7	53258.7
827.105	645.237	54180.35	53313.3
827.2497	647.3518	54027.35	53166.2
827.3944	649.4659	54098.25	53235.9
827.5391	651.5793	54063.1	53200.6
827.6838	653.6922	54055.85	53193.25
827.8285	655.8043	53876.3	53011.5
827.9733	657.9159	54113	53247.55
828.118	660.0268	53735.4	52870.15
828.2627	662.137	53880.85	53017.2
828.4075	664.2466	53931.7	53059.15
828.5522	666.3556	53839.35	52969.25
828.697	668.4639	53819.95	52949.75
828.8418	670.5716	53739.25	52873.65
828.9865	672.6786	53789.65	52921.5
829.1313	674.785	53644.1	52772.85
829.2761	676.8907	53629.05	52761.2
829.4209	678.9958	53719.8	52853.55
829.5657	681.1002	53640.55	52769.6
829.7105	683.204	53506.85	52630.7
829.8553	685.3072	53433.05	52560.1
830.0001	687.4097	53457.75	52587.35
830.1449	689.5115	53425.35	52550.05
830.2898	691.6127	53530.85	52661.6
830.4346	693.7132	53392.3	52519.3
830.5794	695.8131	53427.8	52534.7
830.7243	697.9123	53448.95	52575
830.8691	700.0109	53410.65	52535.55
831.014	702.1089	53295.5	52423.45
831.1588	704.2061	53290.35	52415.55
831.3037	706.3028	53261.9	52385.85
831.4486	708.3987	53270.3	52393.85
831.5935	710.4941	53165.45	52289.75
831.7383	712.5887	53267.45	52393.8
831.8832	714.6827	53204.1	52324.6
832.0281	716.7761	53223	52348.9
832.173	718.8688	53247.65	52372.75
832.3179	720.9608	53104.95	52224.85
832.4628	723.0522	53170.75	52287.8
832.6077	725.1429	53057.85	52179.3
832.7527	727.233	53242.5	52364.45
832.8976	729.3224	52933	52053.3
833.0425	731.4112	53002	52123.15
833.1874	733.4993	52945.35	52065.35
833.3324	735.5867	52890.05	52010.35
833.4773	737.6735	52854.85	51974.8
833.6222	739.7596	52764.45	51883.45
833.7672	741.845	52733.5	51853.3
833.9122	743.9298	52759.75	51879.75
834.0571	746.014	52652.65	51772.3
834.2021	748.0974	52572.7	51688.2
834.347	750.1802	52638.6	51754.25
834.492	752.2624	52422.25	51540.45
834.637	754.3439	52380.35	51495.35
834.782	756.4247	52346.8	51454.55
834.9269	758.5048	52243.75	51361
835.0719	760.5843	52287.45	51403.7
835.2169	762.6631	52275.2	51392.6
835.3619	764.7413	52152.25	51269.4
835.5069	766.8188	52215.35	51331.4
835.6519	768.8956	52210.7	51324
835.7969	770.9718	52195.25	51310.7
835.9419	773.0473	52109.15	51223.85
836.0869	775.1221	51984.75	51103.25
836.232	777.1962	51925.35	51041.9
836.377	779.2697	51795.65	50907.4
836.522	781.3426	51814.4	50908.2
836.667	783.4147	51749.75	50864.1
836.8121	785.4862	51751.6	50866.15
836.9571	787.557	51619.45	50730.2
837.1021	789.6271	51687.65	50797.9
837.2472	791.6966	51555.8	50669.9
837.3922	793.7654	51418.95	50533.5
837.5373	795.8335	51446.8	50559.65
837.6823	797.901	51425.7	50539.35
837.8274	799.9678	51333.5	50442.05
837.9724	802.0339	51271.55	50384.05
838.1175	804.0993	51261.45	50360.5
838.2626	806.1641	51135.9	50246.85
838.4076	808.2282	51082.8	50193.15
838.5527	810.2916	51055.65	50166.1
838.6978	812.3544	51115	50226.2
838.8428	814.4164	50942.6	50054.8
838.9879	816.4778	50986.1	50096.35
839.133	818.5385	50923.2	50034.2
839.2781	820.5986	50880.75	49992
839.4232	822.658	50895.6	50005.65
839.5682	824.7166	50847.95	49958.95
839.7133	826.7747	50793.8	49902.7
839.8584	828.832	50843.85	49953.6
840.0035	830.8886	50771.9	49878.8
840.1486	832.9446	50756.3	49862.8
840.2937	834.9999	50562.7	49672.9
840.4388	837.0545	50608.75	49713.3
840.5839	839.1085	50597.95	49706.95
840.729	841.1618	50570.4	49674.95
840.8741	843.2143	50440.65	49550.9
841.0192	845.2662	50328.75	49435.6
841.1643	847.3175	50356.65	49463.35
841.3095	849.368	50206.45	49311.4
841.4546	851.4179	50242.1	49349.75
841.5997	853.467	50076.05	49180.55
841.7448	855.5155	50104.65	49211.1
841.8899	857.5633	49983.15	49093.15
842.0351	859.6105	49859.9	48966.9
842.1802	861.6569	49924.4	49029.3
842.3253	863.7027	49822.05	48927.25
842.4704	865.7478	49859.2	48965.05
842.6156	867.7922	49787.8	48894.15
842.7607	869.8359	49813.05	48919.45
842.9058	871.8789	49678.8	48782.5
843.0509	873.9212	49693	48766.65
843.1961	875.9629	49629	48734.6
843.3412	878.0039	49634.25	48739.75
843.4863	880.0441	49602.7	48713.1
843.6315	882.0837	49573.15	48679.55
843.7766	884.1226	49564.05	48666.95
843.9218	886.1609	49557.15	48664.1
844.0669	888.1984	49520.25	48626.2
844.212	890.2352	49585.05	48691
844.3572	892.2714	49418	48520.35
844.5023	894.3069	49440.35	48544.8
844.6475	896.3416	49341.3	48444.6
844.7926	898.3757	49355.9	48459.6
844.9377	900.4091	49207.15	48310.55
845.0829	902.4418	49233.4	48332.05
845.228	904.4739	49135.45	48235.35
845.3732	906.5052	49152.05	48254.55
845.5183	908.5358	49032.8	48136.6
845.6635	910.5658	48984.85	48084.85
845.8086	912.595	48925.7	48031
845.9538	914.6236	48808.95	47910.15
846.0989	916.6515	48908.15	48012.85
846.2441	918.6786	48709.15	47809.35
846.3892	920.7051	48735.9	47834.6
846.5344	922.7309	48734.45	47837.05
846.6795	924.756	48674.7	47773.4
846.8246	926.7804	48644.05	47741.5
846.9698	928.8041	48430.25	47530.05
847.1149	930.8272	48431.25	47530.4
847.2601	932.8495	48361.7	47461.7
847.4052	934.8711	48310.45	47410.95
847.5504	936.892	48214.75	47316.75
847.6955	938.9123	48167.9	47268.55
847.8407	940.9318	48103.5	47205.9
847.9858	942.9506	48041.75	47140.8
848.131	944.9688	47979.8	47080.35
848.2761	946.9862	47863.6	46965.55
848.4213	949.003	47786.4	46888.7
848.5664	951.019	47730.65	46833.05
848.7115	953.0344	47716.95	46818.55
848.8567	955.0491	47650.65	46750.4
849.0018	957.063	47628.35	46724.65
849.147	959.0763	47654.6	46756.2
849.2921	961.0888	47542.5	46640.65
849.4373	963.1007	47554.45	46657.3
849.5824	965.1119	47507.75	46613.4
849.7275	967.1223	47448.55	46555.2
849.8727	969.1321	47460	46564.3
850.0178	971.1412	47392.85	46497.5
850.1629	973.1495	47258.8	46359.8
850.3081	975.1572	47267.7	46329.85
850.4532	977.1641	47257.4	46356.2
850.5983	979.1704	47163.95	46263.45
850.7435	981.1759	47124.7	46222.85
850.8886	983.1808	47086.65	46183.8
851.0337	985.1849	47052.2	46142.55
851.1788	987.1884	46980.6	46080.3
851.324	989.1911	46946.2	46043.1
851.4691	991.1932	46799.45	45898.55
851.6142	993.1945	46795.35	45896.4
851.7593	995.1951	46718.45	45816.9
851.9045	997.1951	46576.9	45670.35
852.0496	999.1943	46503.4	45602.45
852.1947	1001.1928	46411.95	45510
852.3398	1003.1906	46407.4	45506.6
852.4849	1005.1877	46261.45	45358.05
852.63	1007.1841	46140.8	45241.15
852.7751	1009.1798	46073.75	45172.45
852.9202	1011.1748	46009.5	45108.7
853.0653	1013.1691	45966.25	45066.85
853.2104	1015.1627	45605.3	44703.65
853.3555	1017.1556	45617.6	44717.9
853.5006	1019.1477	45607.8	44708.25
853.6457	1021.1392	45393.55	44497.1
853.7908	1023.1299	45150.05	44248.8
853.9359	1025.12	45215.1	44320.45
854.081	1027.1093	45024.45	44134.75
854.2261	1029.0979	45030.7	44144.15
854.3712	1031.0859	44891.4	43999.85
854.5163	1033.0731	44744.95	43847.9
854.6613	1035.0596	44738.9	43841.05
854.8064	1037.0454	44616.55	43715.5
854.9515	1039.0304	44519.3	43615.45
855.0965	1041.0148	44301.05	43398.75
855.2416	1042.9985	44305.55	43406.55
855.3867	1044.9814	44374.35	43473.9
855.5317	1046.9636	44109.95	43210.1
855.6768	1048.9452	44113.75	43215.3
855.8219	1050.926	44060.4	43159.85
855.9669	1052.9061	44008.6	43109.5
856.112	1054.8855	43934.65	43032.25
856.257	1056.8642	43835.4	42935.8
856.4021	1058.8421	43743.8	42840.7
856.5471	1060.8194	43723.5	42822.35
856.6921	1062.7959	43592.7	42686.95
856.8372	1064.7717	43677.55	42775.2
856.9822	1066.7469	43553.65	42651.85
857.1272	1068.7213	43561.55	42656.85
857.2723	1070.695	43460.65	42562.05
857.4173	1072.6679	43274.35	42371.15
857.5623	1074.6402	43351.35	42449.95
857.7073	1076.6117	43243.4	42338.2
857.8523	1078.5826	43225.3	42323.4
857.9973	1080.5527	43172.75	42268.05
858.1423	1082.5221	43004.8	42104.25
858.2873	1084.4908	42992.85	42091.65
858.4323	1086.4587	42915.05	42010.65
858.5773	1088.426	42856.3	41950.7
858.7223	1090.3925	42789.55	41882.35
858.8673	1092.3584	42767.95	41865.25
859.0123	1094.3235	42570.3	41667.35
859.1573	1096.2879	42545.95	41642.65
859.3022	1098.2515	42582.95	41682.15
859.4472	1100.2145	42525.95	41625.15
859.5922	1102.1767	42453.95	41549
859.7371	1104.1382	42445.25	41543.25
859.8821	1106.099	42358.25	41453.35
860.027	1108.0591	42250.55	41349.3
860.172	1110.0185	42121.15	41217.45
860.3169	1111.9771	42218.85	41316.4
860.4619	1113.9351	42092.8	41189.25
860.6068	1115.8923	42012.95	41112.2
860.7517	1117.8488	41869.15	40965.3
860.8967	1119.8045	41688.7	40786.55
861.0416	1121.7596	41720.75	40817.2
861.1865	1123.7139	41626.3	40726.75
861.3314	1125.6675	41594.75	40693
861.4763	1127.6204	41522.8	40621
861.6212	1129.5726	41389.25	40483.95
861.7661	1131.524	41431.1	40528.45
861.911	1133.4748	41393.1	40491.7
862.0559	1135.4248	41225.75	40320.4
862.2008	1137.3741	41192.25	40293
862.3457	1139.3226	41131.5	40228.05
862.4905	1141.2705	41121.65	40217.65
862.6354	1143.2176	40981.85	40076.4
862.7803	1145.164	40850.9	39947.05
862.9251	1147.1097	40913.2	40009.3
863.07	1149.0546	40859.35	39957.3
863.2148	1150.9989	40841.35	39937.95
863.3597	1152.9424	40621.65	39719.8
863.5045	1154.8852	40706.05	39803.1
863.6493	1156.8272	40608.7	39704.8
863.7942	1158.7686	40723.95	39812.2
863.939	1160.7092	40444.65	39540.75
864.0838	1162.6491	40381.4	39474.6
864.2286	1164.5883	40439.4	39537
864.3734	1166.5267	40286.45	39380.25
864.5182	1168.4644	40405.35	39500.95
864.663	1170.4014	40349.8	39443.55
864.8078	1172.3377	40382.05	39480.4
864.9526	1174.2732	40423.05	39521.95
865.0974	1176.2081	40351.05	39450.75
865.2421	1178.1421	40319.65	39415.2
865.3869	1180.0755	40439.4	39539.3
865.5317	1182.0082	40303.6	39401.1
865.6764	1183.9401	40286.65	39385.65
865.8212	1185.8713	40081.8	39183.45
865.9659	1187.8017	40051.95	39152.35
866.1106	1189.7315	39971.75	39079.4
866.2554	1191.6605	39806.45	38910.2
866.4001	1193.5888	39659.8	38763.5
866.5448	1195.5163	39463.25	38562.35
866.6895	1197.4432	39436.75	38536.25
866.8342	1199.3693	39376.05	38477.2
866.9789	1201.2947	39238.05	38329.95
867.1236	1203.2193	39271.8	38370.8
867.2683	1205.1432	39053.6	38154.6
867.413	1207.0664	38992.8	38090.65
867.5576	1208.9889	38924.15	38021
867.7023	1210.9106	38876.65	37974.2
867.847	1212.8316	38725.45	37825.1
867.9916	1214.7519	38648.9	37737.85
868.1363	1216.6715	38543.5	37642.9
868.2809	1218.5903	38517.75	37617.4
868.4255	1220.5084	38443.3	37540.2
868.5701	1222.4257	38452.35	37551.75
868.7148	1224.3424	38318.8	37419.05
868.8594	1226.2583	38193.45	37288.2
869.004	1228.1735	38262.6	37358.3
869.1486	1230.0879	38025.45	37122
869.2932	1232.0016	38121.1	37219.2
869.4377	1233.9146	37960.25	37059.5
869.5823	1235.8269	37923.9	37021.9
869.7269	1237.7384	37850.4	36951.55
869.8715	1239.6492	37722.65	36819.4
870.016	1241.5592	37599.8	36694.75
870.1606	1243.4686	37619.45	36719.75
870.3051	1245.3772	37466.85	36563.1
870.4496	1247.285	37546.15	36644.95
870.5941	1249.1922	37343.45	36440.25
870.7387	1251.0986	37391.35	36493.35
870.8832	1253.0042	37202.3	36301.35
871.0277	1254.9092	37303.7	36401.5
871.1722	1256.8134	37042.2	36142.9
871.3167	1258.7169	37196.15	36294.35
871.4611	1260.6196	37019.15	36119.75
871.6056	1262.5216	37019.55	36116.7
871.7501	1264.4229	37050.5	36149.6
871.8945	1266.3234	37131	36230.25
872.039	1268.2232	37058	36157.2
872.1834	1270.1223	36910.15	36006.55
872.3278	1272.0207	36880.05	35978.65
872.4723	1273.9183	36835.85	35928.2
872.6167	1275.8151	36813.05	35910.7
872.7611	1277.7113	36745.7	35844.9
872.9055	1279.6067	36590.95	35689.45
873.0499	1281.5014	36557.9	35653.2
873.1943	1283.3953	36713.1	35809.9
873.3386	1285.2885	36672.85	35770.85
873.483	1287.181	36710.55	35807.75
873.6274	1289.0727	36828.6	35928.45
873.7717	1290.9637	36565.15	35662.05
873.9161	1292.854	36776.3	35876.65
874.0604	1294.7435	36655.6	35753.4
874.2047	1296.6323	36643.65	35742.35
874.349	1298.5204	36491.8	35589.45
874.4933	1300.4077	36550.85	35648.3
874.6376	1302.2943	36377.3	35477.25
874.7819	1304.1802	36277.65	35376.9
874.9262	1306.0653	36121.55	35219.6
875.0705	1307.9497	36057.4	35155.8
875.2147	1309.8333	35937.4	35036.15
875.359	1311.7162	35871.45	34967.45
875.5032	1313.5984	35840.95	34936.75
875.6475	1315.4798	35709.4	34805.75
875.7917	1317.3605	35631.45	34713.05
875.9359	1319.2405	35581.25	34679.3
876.0801	1321.1197	35424.15	34521.5
876.2243	1322.9982	35386.55	34481.15
876.3685	1324.876	35304.55	34403.15
876.5127	1326.753	35142.2	34242.2
876.6569	1328.6293	35229.2	34325.6
876.801	1330.5048	35151.4	34249.05
876.9452	1332.3796	35029.9	34126.1
877.0893	1334.2537	34935.75	34009.55
877.2335	1336.127	34916	34014.45
877.3776	1337.9996	34801.3	33898.3
877.5217	1339.8714	34808.65	33907.1
877.6658	1341.7426	34662.7	33717.2
877.8099	1343.6129	34710.15	33807.65
877.954	1345.4826	34665.85	33763.65
878.0981	1347.3515	34501.85	33597.85
878.2422	1349.2196	34535.7	33632.45
878.3862	1351.087	34516.3	33615.75
878.5303	1352.9537	34498.2	33594.5
878.6743	1354.8197	34499.8	33597.3
878.8184	1356.6849	34502.5	33598.9
878.9624	1358.5493	34420.95	33517.3
879.1064	1360.4131	34358.15	33457.75
879.2504	1362.276	34406.1	33502.75
879.3944	1364.1383	34267.9	33365.4
879.5384	1365.9998	34148.2	33242.4
879.6823	1367.8606	34041.3	33137.35
879.8263	1369.7206	33917.35	33014.65
879.9702	1371.5799	33772.95	32868.45
880.1142	1373.4384	33659.75	32758.45
880.2581	1375.2962	33622.35	32720.9
880.402	1377.1533	33409.75	32509.65
880.5459	1379.0096	33219.05	32318.4
880.6898	1380.8652	33133	32233.7
880.8337	1382.7201	32975	32073.6
880.9776	1384.5742	32814.15	31914.65
881.1215	1386.4275	32665.9	31763.6
881.2653	1388.2802	32609.2	31707.65
881.4092	1390.132	32540	31637.5
881.553	1391.9832	32448.1	31543.2
881.6968	1393.8336	32264.8	31362.75
881.8406	1395.6832	32236.35	31332.95
881.9844	1397.5322	32110.5	31209.6
882.1282	1399.3803	32015.15	31108.95
882.272	1401.2278	31857.7	30954.15
882.4158	1403.0745	31811.7	30910.9
882.5595	1404.9204	31707.8	30808.2
882.7033	1406.7656	31687.85	30785
882.847	1408.6101	31522.5	30619.8
882.9908	1410.4538	31449.65	30547.5
883.1345	1412.2968	31394.95	30493.15
883.2782	1414.139	31270.85	30370.45
883.4219	1415.9805	31281.35	30381.05
883.5656	1417.8213	31112.45	30205.7
883.7092	1419.6613	31122.1	30218.2
883.8529	1421.5006	31061.65	30159
883.9965	1423.3391	31036.3	30132.9
884.1402	1425.1769	30988.85	30089.4
884.2838	1427.0139	31103.15	30201.35
884.4274	1428.8502	31101.1	30199.9
884.571	1430.6858	31172.15	30271.6
884.7146	1432.5206	31217.6	30319.1
884.8582	1434.3547	31147.6	30246
885.0018	1436.188	31149	30245.15
885.1453	1438.0206	31118.8	30216.45
885.2889	1439.8524	30986.95	30083.8
885.4324	1441.6835	30915.85	30016.45
885.5759	1443.5139	30876.35	29969.6
885.7194	1445.3435	30718.7	29817.2
885.8629	1447.1724	30722.1	29823.3
886.0064	1449.0005	30612.85	29714.75
886.1499	1450.8279	30618.65	29716.75
886.2933	1452.6545	30575.7	29674.25
886.4368	1454.4804	30549.7	29651.1
886.5802	1456.3056	30469.6	29561.45
886.7237	1458.13	30465.7	29565.15
886.8671	1459.9536	30433.9	29535.5
887.0105	1461.7766	30244.85	29344.5
887.1539	1463.5987	30099.2	29200.95
887.2972	1465.4202	30014	29113.35
887.4406	1467.2409	29859.95	28959.7
887.584	1469.0608	29728.15	28827.6
887.7273	1470.88	29674	28771.4
887.8706	1472.6984	29561.15	28660.5
888.0139	1474.5161	29371.2	28468.75
888.1572	1476.3331	29345.65	28447.55
888.3005	1478.1493	29218.95	28321.7
888.4438	1479.9648	29186.4	28285.15
888.5871	1481.7795	29162.7	28262.05
888.7303	1483.5935	29165.05	28264.55
888.8736	1485.4067	28958.85	28057.3
889.0168	1487.2192	29021.3	28120.65
889.16	1489.031	28845.95	27944.8
889.3032	1490.842	28816.4	27918.05
889.4464	1492.6522	28835.6	27936.65
889.5896	1494.4618	28676.45	27774.3
889.7327	1496.2705	28709.6	27809.35
889.8759	1498.0785	28516.05	27615.9
890.019	1499.8858	28513.95	27614.15
890.1622	1501.6924	28521.4	27623.9
890.3053	1503.4981	28343.65	27447.05
890.4484	1505.3032	28345.15	27446.5
890.5914	1507.1075	28224.85	27326.1
890.7345	1508.911	28209.95	27309.35
890.8776	1510.7138	28162.05	27262.65
891.0206	1512.5159	28125.25	27226.5
891.1637	1514.3172	27895.7	26996.6
891.3067	1516.1178	27832.35	26933.9
891.4497	1517.9176	27870.2	26969.4
891.5927	1519.7166	27723.45	26824.9
891.7357	1521.515	27628.65	26722.65
891.8786	1523.3126	27560.65	26660.85
892.0216	1525.1094	27569.95	26668.25
892.1645	1526.9055	27421.6	26523.3
892.3074	1528.7008	27340.85	26442.25
892.4503	1530.4954	27181.65	26284.05
892.5932	1532.2893	27198.95	26301.75
892.7361	1534.0824	27004.3	26102.85
892.879	1535.8747	26981.45	26083.65
893.0218	1537.6663	26987.95	26092.8
893.1647	1539.4572	26739.65	25842.05
893.3075	1541.2473	26760.6	25863.85
893.4503	1543.0367	26668.45	25772.7
893.5931	1544.8253	26579.75	25677.05
893.7359	1546.6132	26580.95	25681.6
893.8787	1548.4003	26464.55	25556.85
894.0214	1550.1867	26406.6	25501.6
894.1642	1551.9723	26359.8	25460.05
894.3069	1553.7572	26384.7	25490.85
894.4496	1555.5414	26323.1	25427.8
894.5923	1557.3247	26230.55	25336
894.735	1559.1074	26244.85	25350.5
894.8777	1560.8893	26131	25235.65
895.0204	1562.6705	26149.55	25254.9
895.163	1564.4509	26071.75	25178.25
895.3056	1566.2305	26010.7	25117.55
895.4482	1568.0094	26114.65	25224.15
895.5908	1569.7876	25999.5	25107.35
895.7334	1571.565	25903.35	25008.1
895.876	1573.3417	25922.8	25029.15
896.0186	1575.1176	25872.75	24979.85
896.1611	1576.8928	25782.95	24892.45
896.3036	1578.6672	25637.9	24748.3
896.4461	1580.4409	25647.35	24759.35
896.5886	1582.2138	25492.85	24598.25
896.7311	1583.986	25456.9	24563.4
896.8736	1585.7575	25428.25	24537.15
897.0161	1587.5282	25361.1	24470.65
897.1585	1589.2981	25395.45	24504
897.3009	1591.0673	25268.75	24376.75
897.4433	1592.8358	25268.3	24379.05
897.5857	1594.6035	25286.8	24396.45
897.7281	1596.3704	25207.15	24315.75
897.8705	1598.1366	25072.15	24181.65
898.0128	1599.9021	25013.1	24121.9
898.1551	1601.6668	24982.4	24088.85
898.2975	1603.4308	24945.4	24053.9
898.4398	1605.194	24956.55	24061.45
898.5821	1606.9564	24855.6	23967.55
898.7243	1608.7182	24964.7	24073.45
898.8666	1610.4791	24944.2	24058.45
899.0088	1612.2394	24952.85	24068.4
899.1511	1613.9988	24930.15	24044.75
899.2933	1615.7576	25010.8	24123
899.4355	1617.5156	25074.05	24179.65
899.5776	1619.2728	25074.3	24183.5
899.7198	1621.0293	24925.65	24035.25
899.862	1622.785	24826.7	23929.65
900.0041	1624.54	24699.15	23806.65
900.1462	1626.2942	24541.15	23650.65
900.2883	1628.0477	24312.3	23419.1
900.4304	1629.8005	24164.9	23273.75
900.5725	1631.5525	24064.5	23176.8
900.7145	1633.3037	23911.7	23023.15
900.8566	1635.0542	23857.9	22972.35
900.9986	1636.804	23711.7	22821.75
901.1406	1638.553	23692.1	22758
901.2826	1640.3013	23541.45	22654.1
901.4245	1642.0488	23454.85	22565.5
901.5665	1643.7955	23452.15	22565.5
901.7085	1645.5416	23406.6	22519.25
901.8504	1647.2868	23380.25	22493
901.9923	1649.0313	23345.7	22456.5
902.1342	1650.7751	23337.5	22446.35
902.2761	1652.5181	23279.6	22392.9
902.4179	1654.2604	23212.8	22326.55
902.5598	1656.0019	23270.8	22384.75
902.7016	1657.7427	23249.3	22359.35
902.8434	1659.4828	23327.15	22439.95
902.9852	1661.222	23312.65	22421.25
903.127	1662.9606	23223.55	22332.8
903.2687	1664.6984	23127.15	22237.95
903.4105	1666.4354	22947.85	22055.5
903.5522	1668.1717	22760.85	21870.7
903.6939	1669.9072	22562.95	21673.4
903.8356	1671.642	22361.65	21469.9
903.9773	1673.3761	22265.8	21377.4
904.119	1675.1094	22128.75	21241.6
904.2606	1676.8419	21981.3	21094.65
904.4022	1678.5737	21862.1	20971.85
904.5439	1680.3048	21736.2	20844.95
904.6855	1682.0351	21606.6	20718.2
904.827	1683.7646	21541.4	20648
904.9686	1685.4934	21454.95	20565.2
905.1101	1687.2215	21354.95	20466.55
905.2517	1688.9488	21239.1	20352.2
905.3932	1690.6754	21110	20221.5
905.5347	1692.4012	21124.85	20237.15
905.6761	1694.1263	21058.1	20169.15
905.8176	1695.8506	20994.35	20105.55
905.9591	1697.5742	20932.45	20045.6
906.1005	1699.297	20841.3	19954.2
906.2419	1701.0191	20688.75	19802.4
906.3833	1702.7404	20613.65	19728
906.5246	1704.461	20531.9	19644.7
906.666	1706.1808	20457	19570.25
906.8073	1707.8999	20407.95	19519.4
906.9487	1709.6182	20380	19493.25
907.09	1711.3358	20284.5	19401.05
907.2313	1713.0527	20241.85	19357.9
907.3725	1714.7688	20161.35	19270
907.5138	1716.4841	20110.65	19223
907.655	1718.1987	20079.6	19188.6
907.7962	1719.9126	19993.85	19109.85
907.9374	1721.6257	19929.45	19041.3
908.0786	1723.338	19855.4	18971.8
908.2198	1725.0496	19759.95	18873.25
908.3609	1726.7605	19740.65	18853.1
908.502	1728.4706	19703.85	18817.55
908.6431	1730.18	19614.55	18727.65
908.7842	1731.8886	19555.55	18672
908.9253	1733.5964	19515.65	18626.3
909.0664	1735.3036	19459.75	18573.15
909.2074	1737.0099	19415.45	18529.55
909.3484	1738.7156	19376.3	18492
909.4894	1740.4204	19282.3	18392.7
909.6304	1742.1246	19285.05	18397.2
909.7714	1743.8279	19223.25	18339.65
909.9123	1745.5306	19206.75	18321.4
910.0532	1747.2325	19120.95	18236.8
910.1941	1748.9336	19041.35	18156.7
910.335	1750.634	18965.3	18079.05
910.4759	1752.3336	18943.3	18057.75
910.6168	1754.0325	18915.65	18032.75
910.7576	1755.7307	18872.3	17987.9
910.8984	1757.4281	18891.25	18005.5
911.0392	1759.1247	18837.55	17943.1
911.18	1760.8206	18769.65	17876.35
911.3208	1762.5158	18758.35	17867.4
911.4615	1764.2102	18679.25	17793.8
911.6022	1765.9039	18614.05	17730.15
911.7429	1767.5968	18597	17714.9
911.8836	1769.289	18534.4	17651.2
912.0243	1770.9804	18492.75	17605.3
912.1649	1772.6711	18474.75	17586.85
912.3056	1774.361	18428	17539.2
912.4462	1776.0502	18375.65	17489.7
912.5868	1777.7386	18356.2	17468.4
912.7274	1779.4263	18260.5	17373.7
912.8679	1781.1132	18262.35	17379.2
913.0084	1782.7994	18199.85	17314.55
913.149	1784.4849	18173.8	17290.75
913.2895	1786.1696	18139.6	17236.65
913.4299	1787.8535	18098.6	17215.65
913.5704	1789.5367	18041.85	17157.85
913.7108	1791.2192	18027.85	17144.75
913.8513	1792.9009	17953.05	17036.35
913.9917	1794.5818	17895.3	17006.05
914.132	1796.2621	17835.85	16953.65
914.2724	1797.9415	17781.4	16896.95
914.4128	1799.6202	17758.3	16874.55
914.5531	1801.2982	17728.2	16842.8
914.6934	1802.9755	17699.8	16813.95
914.8337	1804.6519	17638.95	16755.1
914.9739	1806.3277	17597.25	16712.75
915.1142	1808.0027	17510.5	16628.45
915.2544	1809.6769	17522.65	16639.7
915.3946	1811.3504	17469.95	16588.25
915.5348	1813.0231	17412.65	16526.6
915.675	1814.6951	17445.5	16562.7
915.8151	1816.3664	17400.65	16514.6
915.9553	1818.0369	17321.95	16440.65
916.0954	1819.7067	17288.95	16405.05
916.2355	1821.3757	17282.85	16395.8
916.3755	1823.044	17195.55	16310.8
916.5156	1824.7115	17187.05	16301.25
916.6556	1826.3783	17112.95	16229.6
916.7956	1828.0443	17047.3	16163.1
916.9356	1829.7096	17026.05	16140.25
917.0756	1831.3741	17019.9	16132.2
917.2155	1833.0379	16966.5	16083.45
917.3555	1834.701	16908.55	16023.45
917.4954	1836.3633	16875.45	15992.4
917.6353	1838.0248	16856.05	15971.3
917.7751	1839.6856	16808.55	15923.85
917.915	1841.3457	16815.5	15934.85
918.0548	1843.005	16760.6	15875.4
918.1946	1844.6636	16767.25	15883.95
918.3344	1846.3214	16699.95	15814.4
918.4742	1847.9785	16649.65	15767.35
918.6139	1849.6349	16615	15728.45
918.7537	1851.2904	16623.2	15728.9
918.8934	1852.9453	16532.6	15647.85
919.0331	1854.5994	16517	15629.9
919.1727	1856.2528	16524.4	15632.1
919.3124	1857.9054	16461.85	15577.75
919.452	1859.5572	16448.75	15566
919.5916	1861.2083	16430.8	15544.45
919.7312	1862.8587	16401.55	15516.8
919.8708	1864.5084	16404.3	15516.4
920.0103	1866.1572	16324.7	15439.45
920.1498	1867.8054	16226.3	15340.05
920.2893	1869.4528	16210.7	15324.3
920.4288	1871.0994	16164.05	15278.85
920.5683	1872.7453	16121.6	15237.6
920.7077	1874.3905	16098.4	15206.1
920.8471	1876.0349	16059.8	15173.75
920.9865	1877.6786	16054.1	15167.15
921.1259	1879.3215	15996.2	15110.8
921.2653	1880.9637	15961.25	15073.95
921.4046	1882.6051	15967.3	15083.5
921.5439	1884.2458	15934.2	15047.15
921.6832	1885.8858	15860.05	14975.7
921.8225	1887.525	15831.75	14946.8
921.9617	1889.1634	15782.6	14898.3
922.101	1890.8011	15716.45	14831.35
922.2402	1892.4381	15672	14788.3
922.3794	1894.0743	15671.15	14786.4
922.5185	1895.7098	15630.85	14746.35
922.6577	1897.3446	15593.45	14706.3
922.7968	1898.9786	15576.8	14686.9
922.9359	1900.6118	15534.55	14649.45
923.075	1902.2443	15452.1	14564.1
923.214	1903.8761	15419.85	14535.85
923.3531	1905.5071	15326.2	14438.85
923.4921	1907.1374	15270.35	14385
923.6311	1908.7669	15244.3	14360
923.77	1910.3957	15282.25	14399.75
923.909	1912.0237	15153.3	14269.6
924.0479	1913.651	15130.65	14244.35
924.1868	1915.2776	15103.85	14220.7
924.3257	1916.9034	15021.65	14138.95
924.4646	1918.5285	14956.05	14071.7
924.6034	1920.1528	14912.35	14029
924.7422	1921.7764	14910.5	14023.95
924.881	1923.3992	14842	13957.75
925.0198	1925.0213	14741.4	13858.3
925.1586	1926.6427	14711.5	13829.65
925.2973	1928.2633	14867.3	13739.5
925.436	1929.8832	14689.6	13799.7
925.5747	1931.5023	14592.55	13707.4
925.7134	1933.1207	14528.95	13643.95
925.852	1934.7383	14535.85	13651.5
925.9906	1936.3552	14453.2	13567.95
926.1292	1937.9714	14459.9	13577.45
926.2678	1939.5868	14366	13478.15
926.4064	1941.2015	14312.2	13425.6
926.5449	1942.8154	14268.05	13382.05
926.6834	1944.4286	14161.35	13276.2
926.8219	1946.041	14178.7	13270.95
926.9604	1947.6528	14087.9	13199.3
927.0988	1949.2637	14079.8	13196.7
927.2372	1950.8739	14028.25	13142.7
927.3756	1952.4834	13981.1	13095.2
927.514	1954.0921	13961.85	13077.4
927.6523	1955.7001	13925.2	13037.45
927.7907	1957.3074	13879.3	12995.5
927.929	1958.9139	13827.2	12944.15
928.0673	1960.5197	13788.7	12901.9
928.2055	1962.1247	13727.9	12844.15
928.3438	1963.729	13640.15	12759.4
928.482	1965.3325	13631.05	12726.3
928.6202	1966.9353	13582.7	12702.6
928.7584	1968.5374	13552.5	12668.45
928.8965	1970.1387	13535.9	12651.85
929.0346	1971.7393	13449.1	12565.95
929.1727	1973.3392	13416	12532.5
929.3108	1974.9383	13369.65	12487.05
929.4489	1976.5366	13282.8	12398.5
929.5869	1978.1342	13285.3	12402.5
929.7249	1979.7311	13244.4	12360.1
929.8629	1981.3273	13221.15	12338.8
930.0009	1982.9227	13195.65	12314.55
930.1388	1984.5173	13100.25	12218.5
930.2767	1986.1112	13057.95	12176.45
930.4146	1987.7044	13066.9	12185.4
930.5525	1989.2968	13039.85	12158.2
930.6904	1990.8885	12990.65	12106.55
930.8282	1992.4795	12974.95	12092.8
930.966	1994.0697	12908.55	12024.3
931.1038	1995.6592	12872.25	11989.6
931.2415	1997.2479	12837	11955
931.3793	1998.8359	12818.55	11938.35
931.517	2000.4232	12763.45	11883.75
931.6547	2002.0097	12722.4	11842.8
931.7923	2003.5955	12688.3	11806
931.93	2005.1805	12697.3	11816.1
932.0676	2006.7648	12631.9	11752.45
932.2052	2008.3484	12591.95	11710.8
932.3427	2009.9312	12586.35	11703.7
932.4803	2011.5133	12539.45	11660.25
932.6178	2013.0946	12485.1	11601.75
932.7553	2014.6752	12460.85	11582.45
932.8928	2016.2551	12434.15	11552.35
933.0302	2017.8342	12391.25	11509.2
933.1676	2019.4126	12350.2	11468.7
933.305	2020.9902	12291.1	11411.6
933.4424	2022.5672	12281.7	11399.9
933.5798	2024.1433	12245	11361.5
933.7171	2025.7188	12189.05	11309.35
933.8544	2027.2935	12139.65	11258.35
933.9917	2028.8674	12122.8	11242.75
934.129	2030.4406	12079.65	11199.15
934.2662	2032.0131	12050.85	11172.65
934.4034	2033.5849	11980.65	11096.95
934.5406	2035.1559	11971.4	11091.4
934.6778	2036.7261	11983.35	11100.9
934.8149	2038.2957	11927.6	11045.5
934.952	2039.8645	11915.2	11033.4
935.0891	2041.4325	11905.15	11023.95
935.2262	2042.9998	11849.25	10969.1
935.3632	2044.5664	11833.75	10950.95
935.5002	2046.1323	11798.3	10918.7
935.6372	2047.6974	11743.8	10864.25
935.7742	2049.2617	11718	10837.55
935.9111	2050.8254	11717.7	10832.35
936.048	2052.3883	11689.75	10807.4
936.1849	2053.9504	11655.1	10773.55
936.3218	2055.5118	11621.9	10739.45
936.4586	2057.0725	11568.8	10686.05
936.5955	2058.6325	11534.85	10653.8
936.7323	2060.1917	11494.85	10615.6
936.869	2061.7502	11500.25	10618.1
937.0058	2063.3079	11431	10551.45
937.1425	2064.8649	11409.85	10527.15
937.2792	2066.4212	11409.5	10528.25
937.4159	2067.9767	11373.5	10494.45
937.5525	2069.5315	11327.45	10447
937.6891	2071.0856	11248.5	10368.6
937.8257	2072.6389	11228.85	10348.15
937.9623	2074.1915	11190.95	10313.25
938.0989	2075.7433	11122.55	10240.85
938.2354	2077.2945	11114.15	10235.7
938.3719	2078.8448	11059.5	10179.45
938.5084	2080.3945	11009	10128.05
938.6448	2081.9434	11025.9	10146.05
938.7812	2083.4916	10982.55	10101.15
938.9176	2085.039	10960.9	10076.45
939.054	2086.5857	10920.9	10036.85
939.1903	2088.1317	10925.4	10042.75
939.3267	2089.677	10892.45	10009.6
939.463	2091.2215	10847.1	9964.5
939.5992	2092.7652	10814.85	9928.2
939.7355	2094.3083	10779.65	9897.1
939.8717	2095.8506	10783.95	9902.65
940.0079	2097.3921	10793.15	9912.55
940.1441	2098.933	10741.45	9857.25
940.2802	2100.4731	10707.45	9826.5
940.4163	2102.0124	10712.85	9814.25
940.5524	2103.5511	10676.8	9794.65
940.6885	2105.089	10641.8	9760.3
940.8245	2106.6261	10622.95	9739.55
940.9606	2108.1626	10582.55	9700.9
941.0965	2109.6983	10599.05	9690.6
941.2325	2111.2332	10555.85	9672.45
941.3684	2112.7675	10551.65	9670
941.5044	2114.301	10484.65	9601.5
941.6403	2115.8337	10489.45	9606.9
941.7761	2117.3657	10419.65	9539.3
941.912	2118.897	10426.65	9543.45
942.0478	2120.4276	10385.55	9497.25
942.1835	2121.9575	10348	9465.05
942.3193	2123.4866	10333.85	9436.9
942.455	2125.0149	10295.45	9411.1
942.5907	2126.5426	10247.3	9365.6
942.7264	2128.0695	10243.75	9360.25
942.8621	2129.5956	10215	9337.3
942.9977	2131.1211	10213.25	9327.35
943.1333	2132.6458	10212.5	9332.2
943.2689	2134.1698	10159.75	9275.25
943.4044	2135.693	10106.65	9221.5
943.54	2137.2155	10090.45	9205.05
943.6755	2138.7373	10081.7	9201
943.8109	2140.2584	10035.8	9156.4
943.9464	2141.7787	10006.6	9121.2
944.0818	2143.2983	9980.6	9099.3
944.2172	2144.8171	9929.25	9051.95
944.3526	2146.3353	9900.4	9016.95
944.4879	2147.8527	9833.4	8954.4
944.6232	2149.3693	9854.65	8973.1
944.7585	2150.8853	9804.5	8921.75
944.8938	2152.4005	9768.25	8884.05
945.029	2153.9149	9765.7	8882.8
945.1642	2155.4287	9744.05	8861.45
945.2994	2156.9417	9709.9	8826.3
945.4346	2158.454	9706.8	8823.5
945.5697	2159.9655	9658.85	8777.25
945.7048	2161.4764	9659.45	8780.4
945.8399	2162.9865	9622.8	8741.05
945.9749	2164.4958	9581.05	8699.55
946.1099	2166.0045	9555.2	8671.2
946.2449	2167.5124	9561.4	8681.6
946.3799	2169.0195	9532.15	8650.5
946.5148	2170.526	9528.15	8645.1
946.6498	2172.0317	9486.65	8604.1
946.7846	2173.5367	9446.15	8563.65
946.9195	2175.0409	9414	8532.7
947.0543	2176.5445	9403.9	8523.8
947.1891	2178.0473	9388.2	8505.9
947.3239	2179.5494	9346.1	8458.95
947.4587	2181.0507	9318.65	8437.35
947.5934	2182.5513	9292.25	8409.6
947.7281	2184.0512	9244.2	8361.65
947.8628	2185.5504	9230.1	8348.55
947.9974	2187.0488	9192.3	8311.95
948.132	2188.5465	9168.8	8285.1
948.2666	2190.0435	9126.35	8243.9
948.4012	2191.5397	9111.2	8230.2
948.5357	2193.0353	9070.5	8186.3
948.6702	2194.5301	9024.1	8139.6
948.8047	2196.0241	9024.65	8142.2
948.9392	2197.5175	9016.6	8135.15
949.0736	2199.0101	8972.5	8087.55
949.208	2200.502	8930.1	8049.3
949.3424	2201.9931	8912.6	8031.55
949.4767	2203.4835	8851.05	7968.3
949.611	2204.9733	8822.05	7934.95
949.7453	2206.4622	8820.25	7940.7
949.8796	2207.9505	8818.15	7935.85
950.0138	2209.438	8765.05	7887.65
950.148	2210.9248	8760.1	7877.95
950.2822	2212.4109	8702.45	7820.8
950.4164	2213.8962	8673.45	7787.25
950.5505	2215.3809	8645.5	7759.45
950.6846	2216.8648	8632.55	7747.45
950.8186	2218.3479	8624.55	7736.7
950.9527	2219.8304	8592.35	7705.55
951.0867	2221.3121	8556.3	7672.85
951.2207	2222.7931	8537.35	7653.65
951.3546	2224.2733	8480.55	7596.3
951.4886	2225.7529	8469.85	7585
951.6225	2227.2317	8434.1	7549
951.7563	2228.7098	8458.35	7577.25
951.8902	2230.1872	8400.3	7519.7
952.024	2231.6638	8393.4	7512.2
952.1578	2233.1397	8359.5	7473.15
952.2916	2234.6149	8317.7	7436.95
952.4253	2236.0894	8302.2	7420.05
952.559	2237.5632	8273.25	7381.95
952.6927	2239.0362	8261	7378.95
952.8263	2240.5085	8220.05	7337.4
952.9599	2241.9801	8202.6	7320.95
953.0935	2243.4509	8183.1	7299.1
953.2271	2244.921	8146.7	7262.6
953.3606	2246.3904	8116.45	7232
953.4941	2247.8591	8091.15	7207.75
953.6276	2249.3271	8082.2	7200.45
953.7611	2250.7943	8064.2	7181.4
953.8945	2252.2608	8025.25	7143.05
954.0279	2253.7266	7988.65	7105.9
954.1612	2255.1917	7972.6	7091.25
954.2946	2256.656	7937.85	7052.9
954.4279	2258.1197	7929.45	7049.55
954.5612	2259.5826	7903	7016.9
954.6944	2261.0447	7907.45	7025.9
954.8276	2262.5062	7883.1	6997.35
954.9608	2263.9669	7849.05	6963.5
955.094	2265.4269	7847.7	6965.6
955.2271	2266.8862	7792.1	6908.25
955.3602	2268.3448	7771.6	6890
955.4933	2269.8026	7771.15	6886.65
955.6264	2271.2598	7748.6	6867.75
955.7594	2272.7162	7724.8	6842.55
955.8924	2274.1719	7729.1	6845
956.0253	2275.6268	7696.55	6813.3
956.1583	2277.0811	7668.15	6782
956.2912	2278.5346	7634.75	6750
956.4241	2279.9874	7631.1	6749.75
956.5569	2281.4395	7614.8	6735.35
956.6897	2282.8908	7601.4	6714.4
956.8225	2284.3414	7589.2	6704.15
956.9553	2285.7914	7540.45	6658.6
957.088	2287.2406	7513.25	6629.4
957.2207	2288.689	7520.15	6637.65
957.3534	2290.1368	7503.05	6618.15
957.486	2291.5838	7489.7	6602.65
957.6186	2293.0302	7469.2	6583.55
957.7512	2294.4758	7412.45	6528.2
957.8838	2295.9206	7392.8	6507.15
958.0163	2297.3648	7395.3	6513.5
958.1488	2298.8082	7374	6491.2
958.2813	2300.251	7352.25	6470.25
958.4137	2301.693	7339.6	6452.85
958.5461	2303.1343	7321.3	6436.35
958.6785	2304.5748	7286.35	6403.95
958.8108	2306.0147	7273	6388.4
958.9432	2307.4538	7257.45	6373.25
959.0754	2308.8922	7214.2	6333.3
959.2077	2310.3299	7188.55	6307.2
959.3399	2311.7669	7159.9	6280.85
959.4721	2313.2031	7163.3	6281.4
959.6043	2314.6387	7139.35	6254.8
959.7365	2316.0735	7108.9	6225.9
959.8686	2317.5076	7097.3	6213.85
960.0006	2318.941	7091.05	6209.35
960.1327	2320.3737	7043.9	6159.1
960.2647	2321.8056	7045.4	6160.1
960.3967	2323.2369	7021.15	6135.85
960.5287	2324.6674	7012.1	6126.05
960.6606	2326.0972	6994.95	6109.2
960.7925	2327.5263	6967.35	6084.35
960.9244	2328.9547	6945.15	6061.05
961.0562	2330.3823	6928.6	6044.2
961.1881	2331.8092	6936.95	6050.05
961.3198	2333.2355	6872.7	5988.9
961.4516	2334.661	6876.6	5992.4
961.5833	2336.0858	6863.55	5978.25
961.715	2337.5098	6839.25	5954.9
961.8467	2338.9332	6801.3	5917
961.9783	2340.3558	6813.8	5925.85
962.1099	2341.7778	6793.8	5911.4
962.2415	2343.199	6766.8	5881.7
962.373	2344.6195	6738.9	5856.2
962.5045	2346.0393	6719.45	5836.3
962.636	2347.4583	6713.05	5829.8
962.7675	2348.8767	6680.2	5796.65
962.8989	2350.2943	6667.15	5781.1
963.0303	2351.7113	6666.85	5782.25
963.1617	2353.1275	6635.9	5750.95
963.293	2354.543	6612.7	5718.5
963.4243	2355.9578	6585.65	5701.2
963.5556	2357.3718	6552.1	5670.75
963.6868	2358.7852	6547.85	5662.35
963.818	2360.1978	6509.25	5624.55
963.9492	2361.6098	6496.1	5614.6
964.0803	2363.021	6475.9	5588.9
964.2114	2364.4315	6459.95	5576.6
964.3425	2365.8413	6455.65	5571.2
964.4736	2367.2504	6435.7	5552.75
964.6046	2368.6587	6411.15	5529.7
964.7356	2370.0664	6375.15	5493.6
964.8666	2371.4733	6366.9	5483.3
964.9975	2372.8795	6334.15	5452.6
965.1284	2374.285	6311	5427.4
965.2593	2375.6899	6287.9	5406.95
965.3901	2377.0939	6260.55	5378.25
965.5209	2378.4973	6226.2	5344.1
965.6517	2379.9	6190.6	5306.15
965.7825	2381.3019	6186.85	5304.1
965.9132	2382.7032	6173.5	5292.05
966.0439	2384.1037	6167.55	5288.55
966.1745	2385.5035	6134.9	5253.65
966.3051	2386.9027	6120.3	5238.75
966.4357	2388.3011	6130.9	5248.1
966.5663	2389.6987	6106.8	5226.1
966.6968	2391.0957	6070.95	5188.5
966.8273	2392.492	6049.45	5167.7
966.9578	2393.8876	6021	5138.15
967.0882	2395.2824	6001.3	5119.5
967.2186	2396.6765	5979.3	5097.3
967.349	2398.07	5971.3	5088.85
967.4793	2399.4627	5944.3	5059.3
967.6097	2400.8547	5943.35	5058.4
967.7399	2402.246	5917.75	5031.05
967.8702	2403.6366	5885.25	5000.9
968.0004	2405.0265	5844.25	4961.5
968.1306	2406.4156	5847.05	4959.2
968.2607	2407.8041	5808.3	4923.7
968.3909	2409.1918	5810.4	4925.2
968.521	2410.5789	5783.05	4898.8
968.651	2411.9652	5760.2	4873.7
968.781	2413.3508	5730.3	4845.35
968.911	2414.7358	5716.2	4832.1
969.041	2416.12	5707.25	4824.4
969.1709	2417.5035	5684.95	4800.4
969.3008	2418.8863	5658.2	4772.4
969.4307	2420.2684	5655.95	4772.05
969.5606	2421.6497	5632.55	4748.15
969.6904	2423.0304	5612	4731
969.8201	2424.4104	5585.65	4702.3
969.9499	2425.7896	5590.95	4706.85
970.0796	2427.1682	5537.65	4654.65
970.2093	2428.546	5548.5	4664.2
970.3389	2429.9232	5530.8	4647.15
970.4685	2431.2996	5513.85	4633.05
970.5981	2432.6753	5512.75	4629.8
970.7277	2434.0503	5497.85	4615.25
970.8572	2435.4246	5477.65	4592.65
970.9867	2436.7982	5455.35	4569.65
971.1161	2438.1711	5440.55	4558.8
971.2456	2439.5433	5437.85	4552
971.375	2440.9148	5421.5	4533.25
971.5043	2442.2856	5385.6	4502.55
971.6336	2443.6557	5369.6	4483.75
971.7629	2445.025	5350.95	4468.05
971.8922	2446.3937	5338.75	4452.4
972.0214	2447.7617	5323.55	4438.7
972.1506	2449.1289	5323.2	4440.3
972.2798	2450.4955	5310.6	4424.5
972.4089	2451.8613	5297.35	4415.7
972.538	2453.2265	5271.55	4386.8
972.6671	2454.5909	5256.45	4373.6
972.7961	2455.9546	5259.15	4377.5
972.9251	2457.3177	5232.7	4349.65
973.0541	2458.68	5229.05	4345.15
973.1831	2460.0416	5224.5	4341.3
973.312	2461.4025	5201.35	4316.8
973.4408	2462.7627	5175.25	4281.2
973.5697	2464.1222	5173.8	4291.8
973.6985	2465.4811	5155	4272.15
973.8273	2466.8392	5148.15	4264.85
973.956	2468.1966	5123.5	4236.8
974.0847	2469.5533	5131.95	4245.75
974.2134	2470.9093	5122.7	4239.15
974.3421	2472.2645	5088.5	4201.55
974.4707	2473.6191	5080.55	4199.4
974.5993	2474.973	5055.25	4174.7
974.7278	2476.3262	5047.9	4164.35
974.8563	2477.6787	5028.1	4147.75
974.9848	2479.0305	5000.7	4119.45
975.1132	2480.3816	4992.65	4109.3
975.2417	2481.7319	4972.7	4089.65
975.37	2483.0816	4960.55	4075.4
975.4984	2484.4306	4943.35	4058.65
975.6267	2485.7789	4931.9	4049.25
975.755	2487.1264	4915.4	4030.55
975.8833	2488.4733	4906.5	4027.1
976.0115	2489.8195	4866.1	3976.55
976.1397	2491.165	4871.4	3988.5
976.2678	2492.5097	4838.8	3953.4
976.3959	2493.8538	4821.1	3939.55
976.524	2495.1972	4816.4	3931.6
976.6521	2496.5398	4785.75	3901.05
976.7801	2497.8818	4803.75	3917.2
976.9081	2499.2231	4755.1	3870.65
977.036	2500.5637	4753.6	3866.1
977.164	2501.9035	4754.15	3870.9
977.2918	2503.2427	4744	3855.7
977.4197	2504.5812	4712	3829
977.5475	2505.919	4708	3822.2
977.6753	2507.256	4686.05	3801.05
977.8031	2508.5924	4691.2	3805.95
977.9308	2509.9281	4680.05	3790.95
978.0585	2511.2631	4660.8	3778.3
978.1861	2512.5974	4651	3769.2
978.3137	2513.9309	4636.55	3754.2
978.4413	2515.2638	4631.25	3721.25
978.5689	2516.596	4600.85	3718.5
978.6964	2517.9275	4583	3700
978.8239	2519.2583	4571.3	3689.05
978.9513	2520.5884	4541.15	3655.95
979.0788	2521.9178	4538.4	3655.9
979.2062	2523.2465	4518.55	3634.5
979.3335	2524.5745	4519.45	3637.85
979.4608	2525.9018	4498.4	3615.7
979.5881	2527.2284	4492	3609.8
979.7154	2528.5543	4484.4	3601.75
979.8426	2529.8796	4460.55	3577.95
979.9698	2531.2041	4463.7	3580.05
980.0969	2532.5279	4447.2	3565.35
980.224	2533.851	4443.1	3561.65
980.3511	2535.1735	4428.6	3545.15
980.4781	2536.4952	4422	3538.8
980.6052	2537.8163	4406.7	3523.85
980.7321	2539.1366	4398.6	3515.1
980.8591	2540.4562	4386.7	3501.1
980.986	2541.7752	4368.35	3485.75
981.1129	2543.0935	4371.65	3486.75
981.2397	2544.411	4360.15	3477.25
981.3665	2545.7279	4345	3461.75
981.4933	2547.0441	4352.05	3469.75
981.62	2548.3596	4339.2	3452.95
981.7467	2549.6744	4336.25	3452.05
981.8734	2550.9885	4330.1	3438.3
982.0001	2552.3019	4307.4	3425.5
982.1267	2553.6146	4307.5	3425.75
982.2532	2554.9266	4272.85	3391.3
982.3798	2556.2379	4267.6	3383.2
982.5063	2557.5485	4275.15	3393.85
982.6327	2558.8585	4251.2	3359.55
982.7592	2560.1677	4247.35	3360.9
982.8856	2561.4762	4240.5	3358.55
983.0119	2562.7841	4226.25	3341.2
983.1383	2564.0913	4207.25	3325.15
983.2646	2565.3977	4208.25	3325.3
983.3908	2566.7035	4199.25	3315.7
983.517	2568.0086	4188.55	3303.7
983.6432	2569.313	4183.7	3301.1
983.7694	2570.6167	4186.3	3298.1
983.8955	2571.9197	4174.95	3292.7
984.0216	2573.222	4171.65	3284.95
984.1476	2574.5236	4165.2	3281.65
984.2737	2575.8246	4142.35	3257.2
984.3996	2577.1248	4139.25	3253.45
984.5256	2578.4244	4131.15	3248.4
984.6515	2579.7232	4127.65	3244.3
984.7774	2581.0214	4131.6	3224.05
984.9032	2582.3189	4107.15	3225.05
985.029	2583.6157	4096.75	3210.2
985.1548	2584.9118	4092.4	3207.9
985.2806	2586.2072	4077.65	3196.15
985.4063	2587.5019	4066.1	3181.55
985.5319	2588.7959	4062.2	3177.5
985.6576	2590.0893	4067.05	3180.25
985.7832	2591.3819	4050.45	3170.7
985.9087	2592.6739	4013.8	3129.1
986.0343	2593.9652	4015.15	3131.35
986.1597	2595.2557	4012.35	3128.8
986.2852	2596.5456	3983.45	3099.2
986.4106	2597.8348	3991.1	3107.3
986.536	2599.1234	3976.7	3091.9
986.6614	2600.4112	3964.25	3081.2
986.7867	2601.6983	3946.25	3058.85
986.912	2602.9848	3939.65	3057.95
987.0372	2604.2705	3916.1	3026.65
987.1624	2605.5556	3912.25	3027.75
987.2876	2606.84	3894	3011.8
987.4128	2608.1237	3881.5	2998.5
987.5379	2609.4067	3864.9	2980.75
987.6629	2610.689	3865.5	2973.25
987.788	2611.9707	3852.3	2965
987.913	2613.2516	3843.65	2955.1
988.0379	2614.5319	3833.65	2952.35
988.1629	2615.8115	3805.8	2922.7
988.2878	2617.0903	3798.4	2916.35
988.4126	2618.3685	3787.65	2904.45
988.5375	2619.6461	3774.1	2890.3
988.6622	2620.9229	3779.2	2897.4
988.787	2622.199	3759.3	2877
988.9117	2623.4745	3750.55	2866.35
989.0364	2624.7493	3741.85	2860.05
989.161	2626.0234	3729.95	2847.3
989.2857	2627.2968	3705.95	2823.1
989.4102	2628.5695	3696.95	2811.65
989.5348	2629.8415	3669.65	2786.25
989.6593	2631.1128	3676.3	2792.55
989.7837	2632.3835	3661.45	2778.75
989.9082	2633.6535	3660.8	2778.8
990.0326	2634.9228	3630.4	2748.65
990.1569	2636.1914	3626.5	2743.6
990.2812	2637.4593	3630.45	2743.45
990.4055	2638.7265	3610.85	2727.3
990.5298	2639.9931	3597.9	2715.65
990.654	2641.259	3596.75	2713.8
990.7782	2642.5242	3587.75	2703.9
990.9023	2643.7887	3572.9	2690.4
991.0264	2645.0525	3555.35	2672.65
991.1505	2646.3156	3551.45	2667.05
991.2745	2647.5781	3545.65	2662.3
991.3985	2648.8398	3532.9	2652.55
991.5225	2650.1009	3527.4	2635.2
991.6464	2651.3613	3515.15	2634.15
991.7703	2652.6211	3503.15	2621.5
991.8942	2653.8801	3494.3	2613.3
992.018	2655.1385	3480.75	2595.65
992.1418	2656.3961	3493.9	2611.9
992.2655	2657.6531	3473.95	2591.2
992.3892	2658.9094	3462.6	2579.95
992.5129	2660.1651	3463.8	2582.55
992.6366	2661.42	3465.35	2582.2
992.7602	2662.6743	3459.5	2577.2
992.8837	2663.9279	3432.65	2551.1
993.0073	2665.1808	3418.3	2535.55
993.1307	2666.433	3417.9	2534.05
993.2542	2667.6846	3412.85	2531.5
993.3776	2668.9354	3407.55	2521.9
993.501	2670.1856	3402.7	2518.25
993.6244	2671.4351	3381	2499.25
993.7477	2672.6839	3384.2	2500.6
993.8709	2673.9321	3382.4	2502.75
993.9942	2675.1795	3366.15	2484.6
994.1174	2676.4263	3364.85	2482.8
994.2405	2677.6724	3346.8	2466.05
994.3637	2678.9179	3346.45	2463.35
994.4868	2680.1626	3345.05	2463.8
994.6098	2681.4067	3328.85	2446.6
994.7328	2682.6501	3315.75	2432.3
994.8558	2683.8928	3301.95	2421.4
994.9788	2685.1348	3289.15	2406.5
995.1017	2686.3761	3283.2	2401.3
995.2245	2687.6168	3267.2	2385.45
995.3474	2688.8568	3256.25	2372.45
995.4702	2690.0961	3267.75	2387.15
995.5929	2691.3348	3249.05	2368.55
995.7156	2692.5727	3237.8	2355.05
995.8383	2693.81	3228.2	2347.25
995.961	2695.0466	3227.85	2345.5
996.0836	2696.2826	3221.25	2337.85
996.2062	2697.5178	3227	2325.35
996.3287	2698.7524	3211.75	2329.9
996.4512	2699.9863	3197.15	2311.85
996.5737	2701.2195	3195.1	2314.9
996.6961	2702.452	3183.65	2300.05
996.8185	2703.6839	3194.65	2312.05
996.9408	2704.9151	3164	2281.65
997.0631	2706.1456	3157.4	2276.65
997.1854	2707.3755	3146.65	2264.55
997.3077	2708.6046	3141.35	2257.2
997.4299	2709.8331	3136.85	2255.35
997.552	2711.0609	3130.6	2248.85
997.6742	2712.2881	3106.85	2225.7
997.7963	2713.5145	3115.85	2231.25
997.9183	2714.7403	3104.4	2223.5
998.0403	2715.9654	3100.05	2218.45
998.1623	2717.1899	3107.1	2208.85
998.2842	2718.4136	3087.3	2206.3
998.4062	2719.6367	3079.85	2197.25
998.528	2720.8591	3090.15	2199.25
998.6498	2722.0809	3058.8	2174.9
998.7716	2723.3019	3055.05	2167.65
998.8934	2724.5223	3057.65	2175.7
999.0151	2725.7421	3035.25	2152.6
999.1368	2726.9611	3027.55	2143.3
999.2584	2728.1795	3029.9	2144.95
999.38	2729.3972	3007.05	2124.85
999.5016	2730.6142	3012.5	2118.6
999.6231	2731.8306	3004.5	2121.3
999.7446	2733.0462	2990.2	2107.35
999.8661	2734.2612	2972.4	2083.9
999.9875	2735.4756	2959.55	2077.4
1000.1089	2736.6892	2952.45	2070.45
1000.2302	2737.9022	2932.55	2051.8
1000.3515	2739.1145	2919.55	2036.05
1000.4728	2740.3262	2922.35	2033.45
1000.594	2741.5372	2901.35	2021.1
1000.7152	2742.7475	2903.1	2020.4
1000.8363	2743.9571	2886.6	2001.05
1000.9575	2745.1661	2880.7	1996.1
1001.0785	2746.3744	2855.85	1972.3
1001.1996	2747.582	2848.25	1967
1001.3206	2748.7889	2853.35	1970.2
1001.4415	2749.9952	2844.65	1961.45
1001.5625	2751.2008	2822.6	1940.75
1001.6833	2752.4057	2834.75	1951.15
1001.8042	2753.61	2814.4	1931.6
1001.925	2754.8136	2820.65	1935.9
1002.0458	2756.0165	2801.1	1919.1
1002.1665	2757.2188	2782.9	1901.1
1002.2872	2758.4204	2794.9	1912.8
1002.4078	2759.6213	2776.75	1894.7
1002.5285	2760.8215	2781.25	1896.45
1002.649	2762.0211	2774.95	1889.55
1002.7696	2763.22	2760.5	1875.9
1002.8901	2764.4182	2752.15	1869
1003.0106	2765.6158	2753	1869.3
1003.131	2766.8127	2734.55	1852.05
1003.2514	2768.009	2733.05	1851.1
1003.3717	2769.2045	2717.65	1834.95
1003.492	2770.3994	2711	1826.9
1003.6123	2771.5936	2711	1829.55
1003.7325	2772.7872	2706	1824.55
1003.8527	2773.9801	2687.45	1805.1
1003.9729	2775.1723	2707.1	1807.1
1004.093	2776.3639	2674.2	1791.8
1004.2131	2777.5548	2663.1	1779.05
1004.3331	2778.745	2663.45	1780.05
1004.4531	2779.9346	2648.1	1768.55
1004.5731	2781.1235	2653.65	1770.4
1004.693	2782.3117	2643.6	1763.8
1004.8129	2783.4992	2649.75	1768.95
1004.9328	2784.6861	2634.85	1755.75
1005.0526	2785.8723	2630.05	1746.5
1005.1723	2787.0579	2626.4	1742.4
1005.2921	2788.2428	2614.05	1731.6
1005.4118	2789.427	2614.45	1734.3
1005.5314	2790.6106	2605.35	1723.95
1005.651	2791.7935	2594.25	1711.9
1005.7706	2792.9757	2595.8	1715.05
1005.8902	2794.1573	2586.2	1702.25
1006.0097	2795.3382	2588.35	1705.8
1006.1291	2796.5184	2575.1	1695.35
1006.2485	2797.698	2576.65	1692.6
1006.3679	2798.8769	2582.45	1703.75
1006.4873	2800.0551	2571.4	1689.75
1006.6066	2801.2327	2563.1	1680.55
1006.7258	2802.4096	2550.05	1666.45
1006.8451	2803.5859	2553.7	1673.15
1006.9642	2804.7615	2553.45	1671.55
1007.0834	2805.9364	2546.25	1666.4
1007.2025	2807.1106	2551.3	1668.55
1007.3216	2808.2842	2540.5	1658.35
1007.4406	2809.4572	2549.65	1668.35
1007.5596	2810.6294	2558.9	1675.85
1007.6785	2811.801	2559.25	1678.8
1007.7975	2812.972	2562.9	1682.05
1007.9163	2814.1423	2571.05	1690.2
1008.0352	2815.3119	2567.2	1685.15
1008.154	2816.4808	2560.5	1679.65
1008.2727	2817.6491	2582.85	1698.05
1008.3914	2818.8167	2594.9	1713.9
1008.5101	2819.9837	2602.65	1716.3
1008.6288	2821.15	2598	1717.7
1008.7474	2822.3157	2614.15	1733.7
1008.8659	2823.4807	2625.25	1743.45
1008.9844	2824.645	2632	1749.45
1009.1029	2825.8086	2638.5	1757.55
1009.2214	2826.9716	2656.05	1775.9
1009.3398	2828.134	2667.3	1785.35
1009.4581	2829.2957	2676.85	1796.05
1009.5764	2830.4567	2679.55	1801.2
1009.6947	2831.617	2680.85	1799.15
1009.813	2832.7767	2671.5	1791.15
1009.9312	2833.9358	2674.4	1793.4
1010.0493	2835.0941	2656.4	1774.95
1010.1675	2836.2519	2671.1	1789.75
1010.2855	2837.4089	2651.1	1770.85
1010.4036	2838.5653	2642.4	1763.3
1010.5216	2839.7211	2643.05	1764.7
1010.6396	2840.8761	2635.6	1753.95
1010.7575	2842.0306	2637	1757.6
1010.8754	2843.1843	2628.7	1748.05
1010.9932	2844.3374	2631.9	1749.6
1011.111	2845.4899	2647.4	1766.2
1011.2288	2846.6417	2647.05	1766.35
1011.3465	2847.7928	2653.1	1772.6
1011.4642	2848.9433	2679.8	1799.4
1011.5818	2850.0931	2694.25	1813.1
1011.6995	2851.2422	2699.1	1817.95
1011.817	2852.3907	2719.25	1837.2
1011.9345	2853.5385	2713.55	1829.7
1012.052	2854.6857	2746.5	1855
1012.1695	2855.8323	2727.4	1847.9
1012.2869	2856.9781	2742.65	1861.25
1012.4042	2858.1233	2751.6	1869.85
1012.5216	2859.2679	2757.2	1877.6
1012.6389	2860.4118	2771.25	1890.4
1012.7561	2861.555	2779.75	1893.5
1012.8733	2862.6976	2776.6	1896.35
1012.9905	2863.8395	2776.85	1896.7
1013.1076	2864.9808	2786.4	1906.75
1013.2247	2866.1214	2782.5	1901.1
1013.3417	2867.2614	2781.25	1900.55
1013.4587	2868.4007	2791.6	1907.9
1013.5757	2869.5393	2781.45	1900.15
1013.6926	2870.6773	2779	1893.65
1013.8095	2871.8146	2785.45	1903.45
1013.9263	2872.9513	2779.7	1895.45
1014.0431	2874.0874	2767.45	1886.7
1014.1599	2875.2227	2760.45	1878.1
1014.2766	2876.3574	2765.9	1885.8
1014.3933	2877.4915	2741.4	1861.8
1014.51	2878.6249	2719.8	1839.6
1014.6266	2879.7577	2712.85	1831.75
1014.7431	2880.8898	2709.85	1819.75
1014.8596	2882.0212	2681.95	1803.25
1014.9761	2883.152	2680.8	1799.85
1015.0925	2884.2821	2676.8	1796.8
1015.2089	2885.4116	2671.3	1791
1015.3253	2886.5405	2658.9	1778.85
1015.4416	2887.6686	2663.55	1780.25
1015.5579	2888.7962	2648.45	1769.95
1015.6741	2889.923	2652.1	1770.55
1015.7903	2891.0493	2648.3	1769.25
1015.9065	2892.1748	2647.85	1766.25
1016.0226	2893.2997	2638.9	1758.4
1016.1387	2894.424	2638.2	1760.4
1016.2547	2895.5476	2634.7	1756.5
1016.3707	2896.6706	2644.8	1764.85
1016.4866	2897.7929	2629.3	1746.5
1016.6025	2898.9145	2634.2	1756.45
1016.7184	2900.0355	2634.85	1752.95
1016.8342	2901.1559	2650.2	1768.55
1016.95	2902.2756	2664.2	1780.95
1017.0658	2903.3946	2662.6	1780.75
1017.1815	2904.513	2655.25	1771.75
1017.2971	2905.6308	2660.25	1781.35
1017.4127	2906.7479	2647.9	1766.85
1017.5283	2907.8643	2654.3	1771.25
1017.6439	2908.9801	2651.85	1772.3
1017.7594	2910.0953	2650.05	1770.35
1017.8748	2911.2098	2639.55	1754
1017.9902	2912.3236	2646.45	1758.45
1018.1056	2913.4368	2634.25	1751.2
1018.2209	2914.5494	2624.4	1746.35
1018.3362	2915.6613	2615.8	1728
1018.4515	2916.7725	2596.55	1715.4
1018.5667	2917.8831	2588.7	1706.25
1018.6819	2918.9931	2576.95	1693.55
1018.797	2920.1024	2556.3	1675.1
1018.9121	2921.211	2547.35	1666.3
1019.0271	2922.319	2540.45	1659.1
1019.1421	2923.4264	2535.4	1655
1019.2571	2924.5331	2535.45	1657.25
1019.372	2925.6391	2534.15	1654.25
1019.4869	2926.7445	2521.65	1644.2
1019.6017	2927.8493	2520.6	1637.35
1019.7165	2928.9534	2506.85	1626.25
1019.8313	2930.0569	2505.65	1622.8
1019.946	2931.1597	2507	1624.65
1020.0606	2932.2619	2510.5	1630.7
1020.1753	2933.3634	2501.55	1621.85
1020.2899	2934.4643	2503.65	1617.05
1020.4044	2935.5645	2504.3	1619.3
1020.5189	2936.6641	2489.1	1603.7
1020.6334	2937.763	2467.45	1587.45
1020.7478	2938.8613	2451.6	1569.55
1020.8622	2939.959	2445.45	1560.6
1020.9765	2941.056	2424.85	1545.05
1021.0908	2942.1523	2402.4	1521.85
1021.2051	2943.248	2364	1481.15
1021.3193	2944.3431	2339.9	1458.45
1021.4334	2945.4375	2314.4	1434.95
1021.5476	2946.5313	2288.8	1407.7
1021.6617	2947.6244	2249.55	1368.95
1021.7757	2948.7169	2216.1	1336.25
1021.8897	2949.8087	2193.8	1312.25
1022.0037	2950.8999	2174.2	1293.45
1022.1176	2951.9904	2149.65	1269.6
1022.2315	2953.0803	2131.4	1250.85
1022.3453	2954.1696	2103.05	1223.1
1022.4591	2955.2582	2086.15	1206.35
1022.5728	2956.3462	2065.35	1183.95
1022.6865	2957.4335	2055.1	1173.6
1022.8002	2958.5202	2039.95	1158.25
1022.9138	2959.6062	2034.55	1153.4
1023.0274	2960.6916	2023.3	1145.5
1023.141	2961.7764	2014.95	1132.6
1023.2545	2962.8605	2012.95	1132.4
1023.3679	2963.9439	2003.45	1122.7
1023.4813	2965.0267	1990.85	1111.2
1023.5947	2966.1089	2010.1	1106.35
1023.708	2967.1905	1985.6	1107.35
1023.8213	2968.2714	1975.25	1097.25
1023.9346	2969.3516	1977.85	1097.5
1024.0478	2970.4312	1977.05	1087.85
1024.1609	2971.5102	1963.75	1084.05
1024.274	2972.5885	1961.95	1081.9
1024.3871	2973.6662	1971.3	1086.35
1024.5002	2974.7432	1957.85	1079.1
1024.6132	2975.8196	1944.75	1064.15
1024.7261	2976.8954	1945.8	1066.45
1024.839	2977.9705	1933.1	1053.15
1024.9519	2979.045	1936.15	1057.55
1025.0647	2980.1188	1923.9	1044.75
1025.1775	2981.192	1918.1	1040.4
1025.2902	2982.2645	1916.8	1036.5
1025.4029	2983.3364	1892	1013.05
1025.5156	2984.4077	1888.25	1007.35
1025.6282	2985.4783	1890.25	1005.85
1025.7407	2986.5483	1865.65	985.9
1025.8532	2987.6177	1851.6	973.25
1025.9657	2988.6864	1852.75	970.3
1026.0782	2989.7545	1836.95	955.2
1026.1906	2990.8219	1820.25	939.85
1026.3029	2991.8887	1815.95	933.8
1026.4152	2992.9548	1791.5	912
1026.5275	2994.0204	1795	916.95
1026.6397	2995.0852	1780.9	901.95
1026.7519	2996.1495	1770.65	889.8
1026.864	2997.2131	1762.9	885.05
1026.9761	2998.276	1751.25	871.35
1027.0882	2999.3383	1748.15	867.45
1027.2002	3000.4	1730.7	849.8
1027.3122	3001.4611	1723.4	844.55
1027.4241	3002.5215	1722.6	841.85
1027.536	3003.5812	1708.25	829.5
1027.6478	3004.6404	1708.55	828.5
1027.7596	3005.6989	1703.2	821.15
1027.8714	3006.7567	1683.85	804.25
1027.9831	3007.8139	1704.9	803.65
1028.0947	3008.8705	1675.1	795.2
1028.2064	3009.9264	1686.95	803.9
1028.3179	3010.9818	1676	796.75
1028.4295	3012.0364	1669.65	790.9
1028.541	3013.0905	1662.35	782.05
1028.6524	3014.1439	1661.35	782.4
1028.7638	3015.1966	1653.4	775.45
1028.8752	3016.2487	1652.1	772
1028.9865	3017.3002	1644.35	759.35
1029.0978	3018.3511	1638.8	759.55
1029.209	3019.4013	1638.55	758.65
1029.3202	3020.4509	1635	755.9
1029.4314	3021.4998	1631.5	751.05
1029.5425	3022.5481	1621.75	741.7
1029.6535	3023.5958	1618.15	737.95
1029.7645	3024.6428	1629.25	747.6
1029.8755	3025.6892	1622.5	743.65
1029.9864	3026.735	1613.6	733.95
1030.0973	3027.7802	1611.6	731.9
1030.2082	3028.8247	1614.4	735.75
1030.319	3029.8685	1617.25	734.9
1030.4297	3030.9118	1603.8	724.3
1030.5404	3031.9544	1610	730.4
1030.6511	3032.9963	1606.25	726.1
1030.7617	3034.0376	1596.05	716.95
1030.8723	3035.0783	1597.5	716.05
1030.9829	3036.1184	1595.25	717.35
1031.0934	3037.1578	1588	710.45
1031.2038	3038.1966	1594.35	714.4
1031.3142	3039.2348	1590.1	712.35
1031.4246	3040.2723	1592.35	703.1
1031.5349	3041.3092	1584.6	706.65
1031.6452	3042.3455	1581.5	700.6
1031.7554	3043.3811	1575.5	696.15
1031.8656	3044.4161	1565.85	684.9
1031.9758	3045.4505	1581.1	702.7
1032.0859	3046.4842	1575.75	695.7
1032.1959	3047.5173	1566.3	688.35
1032.3059	3048.5498	1557.85	677.35
1032.4159	3049.5816	1550.25	669.7
1032.5258	3050.6128	1562.05	683.2
1032.6357	3051.6434	1548.9	667.25
1032.7455	3052.6734	1552.1	671.7
1032.8553	3053.7027	1551.15	672.25
1032.9651	3054.7314	1544.85	665.15
1033.0748	3055.7594	1538.15	660.2
1033.1845	3056.7868	1541.85	659.65
1033.2941	3057.8136	1534.5	656.5
1033.4037	3058.8398	1520.7	642.15
1033.5132	3059.8653	1528.45	649.6
1033.6227	3060.8902	1525.2	646.15
1033.7321	3061.9145	1522.7	641.5
1033.8415	3062.9381	1518.5	639
1033.9509	3063.9612	1532.2	636.1
1034.0602	3064.9835	1508.9	628.1
1034.1694	3066.0053	1510.3	627.45
1034.2787	3067.0264	1503.5	624.2
1034.3878	3068.0469	1502.25	623.5
1034.497	3069.0668	1496.3	614.55
1034.6061	3070.086	1499.95	620.55
1034.7151	3071.1046	1492.25	611.05
1034.8241	3072.1226	1490.6	610.7
1034.9331	3073.1399	1483.8	604.3
1035.042	3074.1567	1486.95	607
1035.1508	3075.1727	1473.9	592.6
1035.2597	3076.1882	1467.35	589.15
1035.3684	3077.203	1464.6	584.2
1035.4772	3078.2173	1462.75	580.5
1035.5859	3079.2308	1460.95	578.65
1035.6945	3080.2438	1466.15	582.75
1035.8031	3081.2561	1452.5	571.95
1035.9117	3082.2678	1454.05	575.9
1036.0202	3083.2789	1447.05	567.5
1036.1286	3084.2893	1437.95	562.7
1036.2371	3085.2991	1438.3	557.95
1036.3454	3086.3083	1439.05	555.7
1036.4538	3087.3169	1431.95	550
1036.562	3088.3248	1430.2	549.55
1036.6703	3089.3321	1429.85	550.8
1036.7785	3090.3388	1416.4	535.45
1036.8866	3091.3449	1417.9	537.3
1036.9948	3092.3503	1422.35	541.85
1037.1028	3093.3551	1406.5	527.85
1037.2108	3094.3593	1404.5	526
1037.3188	3095.3629	1402.7	524.2
1037.4267	3096.3658	1407.4	526.45
1037.5346	3097.3681	1401.1	522.25
1037.6425	3098.3698	1393.7	511.05
1037.7503	3099.3708	1404.6	520.65
1037.858	3100.3713	1399.75	517.65
1037.9657	3101.3711	1383.55	503.7
1038.0734	3102.3702	1515.7	500.25
1038.181	3103.3688	1387.25	506.9
1038.2886	3104.3667	1387.1	509.5
1038.3961	3105.364	1376.2	496.25
1038.5036	3106.3607	1371.35	493.5
1038.611	3107.3568	1373.45	491
1038.7184	3108.3522	1362.75	484.35
1038.8257	3109.347	1369.75	487.8
1038.933	3110.3412	1364.8	481.55
1039.0403	3111.3348	1354.85	476.1
1039.1475	3112.3277	1349.35	471.85
1039.2547	3113.32	1346	468.05
1039.3618	3114.3117	1345.95	466.9
1039.4689	3115.3028	1355.25	475.9
1039.5759	3116.2932	1349.95	471.05
1039.6829	3117.2831	1347.4	463.85
1039.7898	3118.2723	1332.15	454.95
1039.8967	3119.2608	1335.35	456.35
1040.0035	3120.2488	1333.3	452.45
1040.1103	3121.2361	1326.2	447.25
1040.2171	3122.2229	1330.25	452.2
1040.3238	3123.209	1322.5	440.2
1040.4305	3124.1944	1320.6	443.25
1040.5371	3125.1793	1312.75	431.55
1040.6437	3126.1635	1312.2	434.95
1040.7502	3127.1471	1316	439.6
1040.8567	3128.1301	1315.35	434.55
1040.9631	3129.1125	1310.4	431.65
1041.0695	3130.0942	1309.65	429.7
1041.1759	3131.0753	1312.2	426.05
1041.2822	3132.0558	1307.85	427.35
1041.3884	3133.0357	1303.5	424
1041.4946	3134.015	1307.15	426.75
1041.6008	3134.9936	1293.65	413.1
1041.7069	3135.9716	1310	407.75
1041.813	3136.949	1296.7	418.5
1041.919	3137.9258	1293.8	408.45
1042.025	3138.902	1298.5	414.95
1042.1309	3139.8775	1294.75	416.5
1042.2368	3140.8524	1282.1	402.8
1042.3427	3141.8267	1286.75	405.25
1042.4485	3142.8004	1289.9	409.45
1042.5542	3143.7735	1283.65	399.25
1042.6599	3144.7459	1279.65	399.7
1042.7656	3145.7178	1281.05	400.7
1042.8712	3146.689	1274.6	396.3
1042.9768	3147.6596	1277.95	399.7
1043.0823	3148.6295	1274.05	396.75
1043.1878	3149.5989	1269.85	390.3
1043.2932	3150.5676	1267.55	389.25
1043.3986	3151.5357	1272.35	393.9
1043.5039	3152.5032	1263.75	385.6
1043.6092	3153.4701	1261.2	382.65
1043.7145	3154.4364	1268.2	386.3
1043.8197	3155.402	1261.95	383.35
1043.9248	3156.367	1254.85	373.4
1044.03	3157.3315	1286.55	368.55
1044.135	3158.2952	1251.75	374.1
1044.24	3159.2584	1250.3	370.05
1044.345	3160.221	1239.05	358.8
1044.4499	3161.1829	1236.5	357.7
1044.5548	3162.1442	1242.85	362.3
1044.6596	3163.105	1239.3	361.35
1044.7644	3164.065	1240.1	360.1
1044.8692	3165.0245	1242.45	361.35
1044.9739	3165.9834	1235.1	358.25
1045.0785	3166.9416	1231.9	354
1045.1831	3167.8993	1229.85	350.85
1045.2877	3168.8563	1233.15	353.3
1045.3922	3169.8127	1229.15	349.75
1045.4966	3170.7684	1226.75	345.9
1045.6011	3171.7236	1223.35	342.95
1045.7054	3172.6782	1223.9	345.8
1045.8098	3173.6321	1222.45	345.7
1045.914	3174.5854	1217.85	334.35
1046.0183	3175.5381	1211.15	332.65
1046.1224	3176.4902	1208.5	330.6
1046.2266	3177.4417	1214.9	337.8
1046.3307	3178.3926	1209.65	329.95
1046.4347	3179.3428	1209.95	331.85
1046.5387	3180.2924	1202.45	325.85
1046.6427	3181.2415	1201.55	322.7
1046.7466	3182.1899	1204.1	325.2
1046.8504	3183.1377	1198.6	320.7
1046.9542	3184.0848	1202.75	320
1047.058	3185.0314	1196.4	318.05
1047.1617	3185.9773	1193.85	314.95
1047.2654	3186.9227	1193.6	314.7
1047.369	3187.8674	1195.3	316.85
1047.4726	3188.8115	1192.95	309.9
1047.5761	3189.755	1192.05	312.9
1047.6796	3190.6979	1188.35	309.4
1047.783	3191.6402	1181.9	302.8
1047.8864	3192.5818	1184.75	306.75
1047.9898	3193.5229	1199.8	304.85
1048.0931	3194.4633	1176.6	299.55
1048.1963	3195.4031	1179.7	299.75
1048.2995	3196.3423	1176.35	297.35
1048.4027	3197.2809	1174.75	295.5
1048.5058	3198.2189	1170.35	289.4
1048.6089	3199.1563	1193.95	299.55
1048.7119	3200.0931	1171.75	294.25
1048.8148	3201.0292	1167.45	290.1
1048.9178	3201.9648	1168.95	289.65
1049.0206	3202.8997	1171.15	286.8
1049.1235	3203.834	1165.3	287.05
1049.2262	3204.7677	1164.95	285.15
1049.329	3205.7008	1162.85	283.45
1049.4317	3206.6333	1165.75	287.7
1049.5343	3207.5652	1162.9	281.2
1049.6369	3208.4964	1158.4	279.85
1049.7394	3209.4271	1158.3	281.55
1049.8419	3210.3571	1155.95	277.55
1049.9444	3211.2865	1156.25	275.15
1050.0468	3212.2154	1156.9	278.35
1050.1491	3213.1436	1152.95	270.7
1050.2514	3214.0712	1153.8	269.35
1050.3537	3214.9982	1150.4	270.8
1050.4559	3215.9246	1147	267.8
1050.5581	3216.8503	1149.15	271.9
1050.6602	3217.7755	1148.45	268.05
1050.7623	3218.7001	1138.95	259.6
1050.8643	3219.624	1142.95	262.6
1050.9663	3220.5473	1139	261.35
1051.0682	3221.4701	1139.6	258.7
1051.1701	3222.3922	1142.2	262.15
1051.2719	3223.3137	1135.5	257.8
1051.3737	3224.2346	1133.35	256.95
1051.4754	3225.1549	1133.2	256.25
1051.5771	3226.0746	1132.65	254.45
1051.6788	3226.9937	1131.35	252.8
1051.7804	3227.9121	1126.3	248.3
1051.8819	3228.83	1128.45	248.8
1051.9834	3229.7473	1131.7	254.4
1052.0849	3230.6639	1127.5	247.5
1052.1863	3231.5799	1122	243.7
1052.2876	3232.4954	1124.85	246.6
1052.3889	3233.4102	1122.25	245.25
1052.4902	3234.3244	1121.8	242.4
1052.5914	3235.238	1115.15	236.7
1052.6926	3236.151	1141.65	237.7
1052.7937	3237.0634	1116.25	240.55
1052.8948	3237.9752	1115	235.5
1052.9958	3238.8864	1111.1	231
1053.0968	3239.797	1110.05	231.45
1053.1977	3240.7069	1112	233.35
1053.2986	3241.6163	1108.25	229.85
1053.3994	3242.5251	1106.9	228.3
1053.5002	3243.4332	1106.5	227.95
1053.6009	3244.3408	1108.75	231.4
1053.7016	3245.2477	1100.8	223.6
1053.8022	3246.154	1100.85	222.35
1053.9028	3247.0598	1103.65	222.25
1054.0034	3247.9649	1099.9	222.3
1054.1039	3248.8694	1096.65	216.65
1054.2043	3249.7733	1098.6	217.45
1054.3047	3250.6766	1096.2	219.35
1054.4051	3251.5793	1094.2	215
1054.5054	3252.4814	1096.25	218.6
1054.6056	3253.3829	1088.9	210.25
1054.7058	3254.2838	1090.1	211.9
1054.806	3255.1841	1089.65	210.65
1054.9061	3256.0838	1084.7	205.65
1055.0061	3256.9829	1084.05	206.3
1055.1062	3257.8814	1086.05	207.35
1055.2061	3258.7792	1081.6	202.2
1055.306	3259.6765	1077.85	200.05
1055.4059	3260.5731	1068.95	191.55
1055.5057	3261.4692	1080.25	201.75
1055.6055	3262.3647	1068.05	188.65
1055.7052	3263.2595	1071.35	190.7
1055.8049	3264.1538	1068.35	188
1055.9045	3265.0474	1063.5	183.65
1056.0041	3265.9404	1059	179.85
1056.1036	3266.8329	1057.9	181.85
1056.2031	3267.7247	1059.55	167.45
1056.3025	3268.616	1051.1	174.15
1056.4019	3269.5066	1049.6	168.4
1056.5013	3270.3966	1045.75	167.15
1056.6005	3271.286	1034.4	156.35
