Software Version:	3.9.2.0
Unit SN:	10000200
Spectrometer SN:	6960
Date:	3/6/2024 11:03:43 AM
Data Line Index:	25
Spectral Points:	2048
Integration time (ms):	125
Averages:	20
Delay (ms):	30
Sequence Number:	1
Processing:	dark subtract
Laser Power (mW):	305
Laser Current (mA):	822
Laser Diode Temp (C):	25.1
Laser Case Temp (C):	28.3
System Temp (C):	28.2
Spectrometer Temp (C):	25.6
CCD Temp (C):	0.008
Secondary Temp (C):	20.017
Heatsink Temp (C):	24.035
CCDPCB Temp (C):	37.418
SecondaryPCB Temp (C):	34.373

Wavelength	RamanShift	Raw Counts	Dark Subtracted
787.061	30.1047	1066.9	653.9
787.2016	32.3739	1099.6	685.6
787.3422	34.6426	1135.8	721.6
787.4828	36.9109	1183.55	768.5
787.6235	39.1787	1232.5	814.1
787.7642	41.4461	1292.2	869.2
787.9049	43.7131	1350.9	923.6
788.0456	45.9796	1408.65	977.7
788.1863	48.2456	1468.25	1034.3
788.3271	50.5112	1542.65	1104.5
788.4679	52.7764	1597.1	1157.8
788.6087	55.0411	1678.3	1233.15
788.7496	57.3054	1745.05	1294.45
788.8904	59.5692	1833.4	1379.75
789.0313	61.8326	1937.15	1479.7
789.1722	64.0955	2037.35	1577.8
789.3132	66.3579	2148.3	1683.4
789.4541	68.6199	2280.65	1813.95
789.5951	70.8815	2507.75	2038.7
789.7361	73.1426	2988.85	2513.1
789.8771	75.4032	4156.4	3676.65
790.0181	77.6634	7139.85	6657.45
790.1592	79.9231	14793.15	14302.65
790.3003	82.1824	47247.85	46749.95
790.4414	84.4412	65535	65018.55
790.5825	86.6995	65535	64999.55
790.7237	88.9574	65535	64975.85
790.8648	91.2148	65535	64959.3
791.006	93.4717	65535	64950.5
791.1472	95.7282	65535	64943.15
791.2885	97.9842	65535	64938.3
791.4297	100.2398	65535	64936.6
791.571	102.4949	65535	64930.35
791.7123	104.7495	65535	64928.8
791.8536	107.0036	65535	64929.1
791.9949	109.2573	65535	64931.8
792.1363	111.5105	65535	64928.1
792.2777	113.7632	65535	64927.25
792.4191	116.0154	65535	64913.5
792.5605	118.2672	65535	64923.8
792.7019	120.5185	65535	64922.5
792.8434	122.7693	65535	64919.7
792.9849	125.0197	65535	64915.8
793.1264	127.2696	65535	64913.25
793.2679	129.519	65535	64908.45
793.4094	131.7679	65535	64906.65
793.551	134.0163	65535	64899.8
793.6926	136.2642	65535	64898.1
793.8342	138.5117	65535	64888.9
793.9758	140.7587	65535	64896.85
794.1175	143.0052	65535	64891.6
794.2591	145.2512	65535	64892.05
794.4008	147.4967	65535	64888.7
794.5425	149.7417	65535	64887.65
794.6842	151.9863	65535	64887.8
794.826	154.2304	65535	64880.75
794.9677	156.4739	65535	64873.4
795.1095	158.717	65535	64876.2
795.2513	160.9596	65535	64872.45
795.3931	163.2017	65535	64870.2
795.535	165.4433	65535	64867.6
795.6768	167.6844	65535	64867
795.8187	169.925	65535	64865.35
795.9606	172.1651	65535	64861.6
796.1025	174.4047	65535	64857.7
796.2445	176.6439	65535	64854.05
796.3864	178.8825	65535	64851.95
796.5284	181.1206	65535	64849.6
796.6704	183.3582	65535	64846.35
796.8124	185.5954	65535	64845.65
796.9544	187.832	65535	64839.9
797.0965	190.0681	65535	64837.3
797.2386	192.3037	65535	64834.4
797.3806	194.5388	65535	64834.85
797.5228	196.7734	65535	64830.5
797.6649	199.0075	65535	64825.2
797.807	201.2411	65535	64820.8
797.9492	203.4742	65535	64822.6
798.0914	205.7068	65535	64820.7
798.2336	207.9389	65535	64816.9
798.3758	210.1704	65535	64818.85
798.518	212.4015	65535	64813.35
798.6603	214.632	65535	64817.6
798.8025	216.862	65535	64829.35
798.9448	219.0915	65535	64832.95
799.0871	221.3205	65535	64834.25
799.2294	223.549	65535	64837.5
799.3718	225.777	65535	64837.65
799.5141	228.0044	65535	64832.25
799.6565	230.2314	65535	64836.4
799.7989	232.4578	65535	64833.2
799.9413	234.6837	65535	64826.6
800.0837	236.909	65535	64823.05
800.2262	239.1339	65535	64798.1
800.3687	241.3582	65535	64814.5
800.5111	243.582	65535	64780.4
800.6536	245.8053	65535	64798.05
800.7961	248.0281	65535	64801.3
800.9387	250.2503	65535	64796.45
801.0812	252.472	65535	64792.3
801.2238	254.6932	65535	64788.3
801.3664	256.9139	65535	64787.9
801.509	259.134	65535	64786.4
801.6516	261.3536	65535	64787.3
801.7942	263.5727	65535	64788
801.9369	265.7912	65535	64787.25
802.0795	268.0092	65535	64785.4
802.2222	270.2267	65535	64783.35
802.3649	272.4436	65535	64781.75
802.5076	274.6601	65535	64776.55
802.6504	276.8759	65535	64780.4
802.7931	279.0913	65535	64778.05
802.9359	281.3061	65535	64775.55
803.0787	283.5204	65535	64773.85
803.2215	285.7341	65535	64767.1
803.3643	287.9473	65535	64756.75
803.5071	290.16	65535	64761.55
803.6499	292.3721	65535	64768.85
803.7928	294.5837	65535	64768.3
803.9357	296.7947	65535	64771.35
804.0786	299.0052	65535	64765.25
804.2215	301.2152	65535	64766.1
804.3644	303.4246	65535	64769.55
804.5074	305.6334	65535	64765.45
804.6503	307.8418	65535	64764.3
804.7933	310.0495	65535	64761.95
804.9363	312.2568	65535	64762.25
805.0793	314.4635	65535	64765.85
805.2223	316.6696	65535	64761.1
805.3653	318.8752	65535	64752.2
805.5084	321.0802	65535	64757.95
805.6514	323.2847	65535	64756.25
805.7945	325.4887	65535	64756.15
805.9376	327.692	65535	64755.8
806.0807	329.8949	65535	64755.95
806.2238	332.0972	65535	64751.6
806.367	334.2989	65535	64746.35
806.5101	336.5001	65535	64749.6
806.6533	338.7007	65535	64749
806.7965	340.9008	65535	64746.25
806.9397	343.1003	65535	64744.6
807.0829	345.2992	65535	64747.9
807.2261	347.4976	65535	64744.95
807.3693	349.6955	65535	64739.15
807.5126	351.8927	65535	64737.85
807.6559	354.0895	65535	64729.2
807.7991	356.2856	65535	64735.2
807.9424	358.4812	65535	64739.15
808.0857	360.6763	65535	64738.1
808.2291	362.8707	65535	64735.55
808.3724	365.0646	65535	64731.3
808.5158	367.258	65535	64732.45
808.6591	369.4508	65535	64725.05
808.8025	371.643	65535	64728.4
808.9459	373.8346	65535	64723.15
809.0893	376.0257	65535	64721.75
809.2327	378.2162	65535	64722.65
809.3762	380.4062	65535	64716.15
809.5196	382.5956	65535	64716.05
809.6631	384.7844	65535	64717.6
809.8066	386.9726	65535	64722.1
809.9501	389.1603	65535	64723.15
810.0936	391.3474	65535	64690.25
810.2371	393.5339	65535	64723.95
810.3806	395.7199	65535	64727.1
810.5241	397.9052	65535	64728.8
810.6677	400.09	65535	64729.7
810.8113	402.2743	65535	64728.55
810.9548	404.4579	65535	64729.9
811.0984	406.641	65535	64727.45
811.2421	408.8235	65535	64727.55
811.3857	411.0054	65535	64724.95
811.5293	413.1868	65535	64725.2
811.673	415.3675	65535	64720.1
811.8166	417.5477	65535	64715.15
811.9603	419.7273	65535	64712.85
812.104	421.9064	65535	64707.9
812.2477	424.0848	65535	64711.3
812.3914	426.2627	65535	64710.1
812.5351	428.4399	65535	64709.75
812.6788	430.6166	65535	64705.05
812.8226	432.7928	65535	64702.85
812.9663	434.9683	65535	64704.1
813.1101	437.1432	65535	64701.6
813.2539	439.3176	65535	64704.6
813.3977	441.4914	65535	64703.85
813.5415	443.6645	65535	64702.35
813.6853	445.8371	65535	64702.35
813.8291	448.0091	65535	64703.3
813.973	450.1806	65535	64700.5
814.1168	452.3514	65535	64701.05
814.2607	454.5216	65535	64691.9
814.4046	456.6913	65535	64697.5
814.5485	458.8603	65535	64698.25
814.6924	461.0288	65535	64698.7
814.8363	463.1967	65535	64699.8
814.9802	465.3639	65535	64695
815.1241	467.5306	65535	64696.9
815.2681	469.6967	65535	64697.6
815.412	471.8622	65535	64699.85
815.556	474.0271	65535	64699.1
815.7	476.1914	65535	64692.95
815.844	478.3551	65535	64697
815.988	480.5182	65535	64693.7
816.132	482.6807	65535	64694.4
816.276	484.8426	65535	64697.35
816.4201	487.0039	65535	64691.9
816.5641	489.1647	65535	64695.05
816.7082	491.3248	65535	64695.5
816.8522	493.4843	65535	64695.2
816.9963	495.6432	65535	64691.8
817.1404	497.8015	65535	64689.35
817.2845	499.9592	65535	64691.75
817.4286	502.1163	65535	64691.9
817.5727	504.2728	65535	64687.35
817.7168	506.4287	65535	64690.5
817.861	508.5839	65535	64688.55
818.0051	510.7386	65535	64690.45
818.1493	512.8927	65535	64686.65
818.2935	515.0461	65535	64687.45
818.4377	517.199	65535	64689.5
818.5818	519.3512	65535	64686.75
818.726	521.5029	65535	64681.4
818.8703	523.6539	65535	64682.95
819.0145	525.8043	65535	64682.7
819.1587	527.9541	65535	64682.8
819.303	530.1033	65535	64681.7
819.4472	532.2519	65535	64684.4
819.5915	534.3999	65535	64680.7
819.7357	536.5472	65535	64680.25
819.88	538.694	65535	64680.65
820.0243	540.8401	65535	64681.4
820.1686	542.9856	65535	64677.15
820.3129	545.1305	65535	64674.95
820.4572	547.2748	65535	64676.6
820.6016	549.4185	65535	64675.35
820.7459	551.5615	65535	64676.95
820.8902	553.704	65535	64675
821.0346	555.8458	65535	64678.6
821.1789	557.987	65535	64678.65
821.3233	560.1276	65535	64676.65
821.4677	562.2675	65535	64676.65
821.6121	564.4069	65535	64676.2
821.7565	566.5456	65535	64676.65
821.9009	568.6837	65535	64678.1
822.0453	570.8212	65535	64678.75
822.1897	572.958	65535	64676.3
822.3342	575.0942	65535	64680.1
822.4786	577.2299	65535	64679
822.6231	579.3648	65535	64679
822.7675	581.4992	65535	64677.6
822.912	583.6329	65535	64677.1
823.0565	585.766	65535	64675.25
823.201	587.8985	65535	64677.1
823.3454	590.0304	65535	64659.2
823.4899	592.1616	65535	64670.85
823.6345	594.2922	65535	64671.65
823.779	596.4222	65535	64674.3
823.9235	598.5515	65535	64671.85
824.068	600.6802	65535	64671.7
824.2126	602.8083	65535	64668.35
824.3571	604.9358	65535	64669.55
824.5017	607.0626	65535	64670.75
824.6462	609.1888	65535	64666.5
824.7908	611.3144	65535	64668.8
824.9354	613.4393	65535	64668.05
825.08	615.5636	65535	64668.15
825.2246	617.6873	65535	64668.8
825.3692	619.8103	65535	64666.85
825.5138	621.9327	65535	64663.8
825.6584	624.0544	65535	64667.45
825.803	626.1756	65535	64668.75
825.9477	628.2961	65535	64666.05
826.0923	630.4159	65535	64667.1
826.237	632.5351	65535	64665.85
826.3816	634.6537	65535	64664.8
826.5263	636.7716	65535	64664.65
826.6709	638.8889	65535	64663.4
826.8156	641.0056	65535	64662.4
826.9603	643.1216	65535	64660.85
827.105	645.237	65535	64661.7
827.2497	647.3518	65535	64661.2
827.3944	649.4659	65535	64662.8
827.5391	651.5793	65535	64664.6
827.6838	653.6922	65535	64663.95
827.8285	655.8043	65535	64664.9
827.9733	657.9159	65535	64660
828.118	660.0268	65535	64661.55
828.2627	662.137	65535	64660.2
828.4075	664.2466	65535	64660.85
828.5522	666.3556	65535	64663.6
828.697	668.4639	65535	64657.65
828.8418	670.5716	65535	64662.7
828.9865	672.6786	65535	64660.6
829.1313	674.785	65535	64658.05
829.2761	676.8907	65535	64659.6
829.4209	678.9958	65535	64661.05
829.5657	681.1002	65535	64657.4
829.7105	683.204	65535	64652.7
829.8553	685.3072	65535	64656.95
830.0001	687.4097	65535	64657.65
830.1449	689.5115	65535	64656
830.2898	691.6127	65535	64660.05
830.4346	693.7132	65535	64654.7
830.5794	695.8131	65535	64648.75
830.7243	697.9123	65535	64656.35
830.8691	700.0109	65535	64655.35
831.014	702.1089	65535	64659
831.1588	704.2061	65535	64655.25
831.3037	706.3028	65535	64654.3
831.4486	708.3987	65535	64654.1
831.5935	710.4941	65535	64656.95
831.7383	712.5887	65535	64653.15
831.8832	714.6827	65535	64650.8
832.0281	716.7761	65535	64656.65
832.173	718.8688	65535	64653
832.3179	720.9608	65535	64652.85
832.4628	723.0522	65535	64648.45
832.6077	725.1429	65535	64653.4
832.7527	727.233	65535	64654.85
832.8976	729.3224	65535	64652.15
833.0425	731.4112	65535	64651.3
833.1874	733.4993	65535	64649.45
833.3324	735.5867	65535	64651.2
833.4773	737.6735	65535	64649.7
833.6222	739.7596	65535	64649.95
833.7672	741.845	65535	64651.7
833.9122	743.9298	65535	64651.05
834.0571	746.014	65535	64653.1
834.2021	748.0974	65535	64649.65
834.347	750.1802	65535	64648.7
834.492	752.2624	65535	64651.05
834.637	754.3439	65535	64648.55
834.782	756.4247	65535	64641.65
834.9269	758.5048	65535	64652.1
835.0719	760.5843	65535	64650.35
835.2169	762.6631	65535	64648.95
835.3619	764.7413	65535	64651.1
835.5069	766.8188	65535	64646.45
835.6519	768.8956	65535	64647.55
835.7969	770.9718	65535	64649.2
835.9419	773.0473	65535	64647.05
836.0869	775.1221	65535	64649.35
836.232	777.1962	65535	64650.05
836.377	779.2697	65535	64647.5
836.522	781.3426	65535	64631.25
836.667	783.4147	65535	64648.55
836.8121	785.4862	65535	64650.35
836.9571	787.557	65535	64647.7
837.1021	789.6271	65535	64650.9
837.2472	791.6966	65535	64650.9
837.3922	793.7654	65535	64646.4
837.5373	795.8335	65535	64646.8
837.6823	797.901	65535	64648.9
837.8274	799.9678	65535	64646.75
837.9724	802.0339	65535	64647.45
838.1175	804.0993	65535	64636.8
838.2626	806.1641	65535	64646.6
838.4076	808.2282	65535	64647.7
838.5527	810.2916	65535	64644.45
838.6978	812.3544	65535	64650.55
838.8428	814.4164	65535	64649.65
838.9879	816.4778	65535	64645.5
839.133	818.5385	65535	64647.3
839.2781	820.5986	65535	64645.25
839.4232	822.658	65535	64646.15
839.5682	824.7166	65535	64648.35
839.7133	826.7747	65535	64644.55
839.8584	828.832	65535	64646.2
840.0035	830.8886	65535	64642.4
840.1486	832.9446	65535	64643.8
840.2937	834.9999	65535	64646.3
840.4388	837.0545	65535	64645.8
840.5839	839.1085	65535	64644.35
840.729	841.1618	65535	64640.5
840.8741	843.2143	65535	64648.15
841.0192	845.2662	65535	64643.4
841.1643	847.3175	65535	64644.6
841.3095	849.368	65535	64645.25
841.4546	851.4179	65535	64647.3
841.5997	853.467	65535	64644.05
841.7448	855.5155	65535	64641.2
841.8899	857.5633	65535	64643.95
842.0351	859.6105	65535	64643.3
842.1802	861.6569	65535	64645.05
842.3253	863.7027	65535	64645.1
842.4704	865.7478	65535	64642.3
842.6156	867.7922	65535	64645.7
842.7607	869.8359	65535	64644.05
842.9058	871.8789	65535	64640.95
843.0509	873.9212	65535	64611.6
843.1961	875.9629	65535	64643.95
843.3412	878.0039	65535	64645.4
843.4863	880.0441	65535	64644.85
843.6315	882.0837	65535	64643
843.7766	884.1226	65535	64642.9
843.9218	886.1609	65535	64642.05
844.0669	888.1984	65535	64642.9
844.212	890.2352	65535	64642.5
844.3572	892.2714	65535	64637.4
844.5023	894.3069	65535	64641.55
844.6475	896.3416	65535	64641.1
844.7926	898.3757	65535	64643.9
844.9377	900.4091	65535	64642.45
845.0829	902.4418	65535	64637.5
845.228	904.4739	65535	64637.9
845.3732	906.5052	65535	64638.5
845.5183	908.5358	65535	64642.95
845.6635	910.5658	65535	64640.55
845.8086	912.595	65535	64639.6
845.9538	914.6236	65535	64640.55
846.0989	916.6515	65535	64643.05
846.2441	918.6786	65535	64641.55
846.3892	920.7051	65535	64641.8
846.5344	922.7309	65535	64638.5
846.6795	924.756	65535	64640
846.8246	926.7804	65535	64639.4
846.9698	928.8041	65535	64638.25
847.1149	930.8272	65535	64639.05
847.2601	932.8495	65535	64639.75
847.4052	934.8711	65535	64641.4
847.5504	936.892	65535	64639.3
847.6955	938.9123	65535	64640
847.8407	940.9318	65535	64639.7
847.9858	942.9506	65535	64640.35
848.131	944.9688	65535	64638.95
848.2761	946.9862	65535	64640.45
848.4213	949.003	65535	64640.95
848.5664	951.019	65535	64640
848.7115	953.0344	65535	64640.2
848.8567	955.0491	65535	64638.3
849.0018	957.063	65535	64639.8
849.147	959.0763	65535	64640.2
849.2921	961.0888	65535	64636.6
849.4373	963.1007	65535	64638.95
849.5824	965.1119	65535	64638.75
849.7275	967.1223	65535	64641.2
849.8727	969.1321	65535	64641.8
850.0178	971.1412	65535	64640.35
850.1629	973.1495	65535	64639.65
850.3081	975.1572	65535	64604.5
850.4532	977.1641	65535	64641.6
850.5983	979.1704	65535	64639.7
850.7435	981.1759	65535	64637.4
850.8886	983.1808	65535	64637.5
851.0337	985.1849	65535	64627.7
851.1788	987.1884	65535	64636.95
851.324	989.1911	65535	64634.95
851.4691	991.1932	65535	64637.35
851.6142	993.1945	65535	64642.35
851.7593	995.1951	65535	64638.6
851.9045	997.1951	65535	64633.3
852.0496	999.1943	65535	64640.1
852.1947	1001.1928	65535	64640.1
852.3398	1003.1906	65535	64639.55
852.4849	1005.1877	65535	64637.1
852.63	1007.1841	65535	64639.1
852.7751	1009.1798	65535	64639.25
852.9202	1011.1748	65535	64639.3
853.0653	1013.1691	65535	64640.05
853.2104	1015.1627	65535	64638.25
853.3555	1017.1556	65535	64641.4
853.5006	1019.1477	65535	64640.25
853.6457	1021.1392	65535	64641.35
853.7908	1023.1299	65535	64640.05
853.9359	1025.12	65535	64635.55
854.081	1027.1093	65535	64642.25
854.2261	1029.0979	65535	64640.7
854.3712	1031.0859	65535	64641.1
854.5163	1033.0731	65535	64642.55
854.6613	1035.0596	65535	64639.8
854.8064	1037.0454	65535	64637.4
854.9515	1039.0304	65535	64637.85
855.0965	1041.0148	65535	64640.2
855.2416	1042.9985	65535	64637.45
855.3867	1044.9814	65535	64636.25
855.5317	1046.9636	65535	64637.45
855.6768	1048.9452	65535	64639.9
855.8219	1050.926	65535	64641.5
855.9669	1052.9061	65535	64641
856.112	1054.8855	65535	64636.6
856.257	1056.8642	65535	64639.2
856.4021	1058.8421	65535	64633.5
856.5471	1060.8194	65535	64638.15
856.6921	1062.7959	65535	64641.65
856.8372	1064.7717	65535	64636.4
856.9822	1066.7469	65535	64636.8
857.1272	1068.7213	65535	64634.65
857.2723	1070.695	65535	64639.5
857.4173	1072.6679	65535	64636.15
857.5623	1074.6402	65535	64639.15
857.7073	1076.6117	65535	64633.85
857.8523	1078.5826	65535	64636.55
857.9973	1080.5527	65535	64635.05
858.1423	1082.5221	65535	64638.35
858.2873	1084.4908	65535	64638.75
858.4323	1086.4587	65535	64637.2
858.5773	1088.426	65535	64637.65
858.7223	1090.3925	65535	64634.5
858.8673	1092.3584	65535	64637.9
859.0123	1094.3235	65535	64638.65
859.1573	1096.2879	65535	64635.75
859.3022	1098.2515	65535	64637.9
859.4472	1100.2145	65535	64636.1
859.5922	1102.1767	65535	64638
859.7371	1104.1382	65535	64635.9
859.8821	1106.099	65535	64635.65
860.027	1108.0591	65535	64637.25
860.172	1110.0185	65535	64636.55
860.3169	1111.9771	65535	64638.2
860.4619	1113.9351	65535	64635.9
860.6068	1115.8923	65535	64636.55
860.7517	1117.8488	65535	64636.45
860.8967	1119.8045	65535	64639.95
861.0416	1121.7596	65535	64635.7
861.1865	1123.7139	65535	64637.85
861.3314	1125.6675	65535	64638.3
861.4763	1127.6204	65535	64637.95
861.6212	1129.5726	65535	64635
861.7661	1131.524	65535	64640.15
861.911	1133.4748	65535	64636.6
862.0559	1135.4248	65535	64635.15
862.2008	1137.3741	65535	64638.95
862.3457	1139.3226	65535	64636.45
862.4905	1141.2705	65535	64638.6
862.6354	1143.2176	65535	64632.2
862.7803	1145.164	65535	64635.25
862.9251	1147.1097	65535	64637.7
863.07	1149.0546	65535	64636.55
863.2148	1150.9989	65535	64639
863.3597	1152.9424	65535	64637.7
863.5045	1154.8852	65535	64637.1
863.6493	1156.8272	65535	64640.4
863.7942	1158.7686	65535	64630.55
863.939	1160.7092	65535	64635.4
864.0838	1162.6491	65535	64635.85
864.2286	1164.5883	65535	64636.25
864.3734	1166.5267	65535	64636.6
864.5182	1168.4644	65535	64636.55
864.663	1170.4014	65535	64632.35
864.8078	1172.3377	65535	64638.25
864.9526	1174.2732	65535	64637.5
865.0974	1176.2081	65535	64640.4
865.2421	1178.1421	65535	64632.4
865.3869	1180.0755	65535	64639
865.5317	1182.0082	65535	64638.95
865.6764	1183.9401	65535	64637.25
865.8212	1185.8713	65535	64637.35
865.9659	1187.8017	65535	64637.9
866.1106	1189.7315	65535	64639.7
866.2554	1191.6605	65535	64610.8
866.4001	1193.5888	65535	64637.95
866.5448	1195.5163	65535	64638.95
866.6895	1197.4432	65535	64634.7
866.8342	1199.3693	65535	64638.4
866.9789	1201.2947	65535	64636.15
867.1236	1203.2193	65535	64634.5
867.2683	1205.1432	65535	64634.5
867.413	1207.0664	65535	64638.55
867.5576	1208.9889	65535	64633
867.7023	1210.9106	65535	64636.85
867.847	1212.8316	65535	64638.6
867.9916	1214.7519	65535	64627.65
868.1363	1216.6715	65535	64639.55
868.2809	1218.5903	65535	64638.75
868.4255	1220.5084	65535	64638.7
868.5701	1222.4257	65535	64638.45
868.7148	1224.3424	65535	64638.7
868.8594	1226.2583	65535	64633.6
869.004	1228.1735	65535	64636.3
869.1486	1230.0879	65535	64635.9
869.2932	1232.0016	65535	64636.75
869.4377	1233.9146	65535	64633.65
869.5823	1235.8269	65535	64637.85
869.7269	1237.7384	65535	64640.85
869.8715	1239.6492	65535	64639.9
870.016	1241.5592	65535	64636.15
870.1606	1243.4686	65535	64638.75
870.3051	1245.3772	65535	64638.5
870.4496	1247.285	65535	64634.85
870.5941	1249.1922	65535	64639.35
870.7387	1251.0986	65535	64637.95
870.8832	1253.0042	65535	64636.3
871.0277	1254.9092	65535	64637.85
871.1722	1256.8134	65535	64639.8
871.3167	1258.7169	65535	64636.25
871.4611	1260.6196	65535	64640.5
871.6056	1262.5216	65535	64634.95
871.7501	1264.4229	65535	64639.15
871.8945	1266.3234	65535	64635.95
872.039	1268.2232	65535	64634.1
872.1834	1270.1223	65535	64634.85
872.3278	1272.0207	65535	64635.75
872.4723	1273.9183	65535	64632.8
872.6167	1275.8151	65535	64636.45
872.7611	1277.7113	65535	64636.85
872.9055	1279.6067	65535	64636.85
873.0499	1281.5014	65535	64635.6
873.1943	1283.3953	65535	64635.35
873.3386	1285.2885	65535	64637.9
873.483	1287.181	65535	64637.15
873.6274	1289.0727	65535	64637.9
873.7717	1290.9637	65535	64636.3
873.9161	1292.854	65535	64638.15
874.0604	1294.7435	65535	64636.55
874.2047	1296.6323	65535	64636.4
874.349	1298.5204	65535	64631.75
874.4933	1300.4077	65535	64636.8
874.6376	1302.2943	65535	64637.05
874.7819	1304.1802	65535	64637.7
874.9262	1306.0653	65535	64634.2
875.0705	1307.9497	65535	64636.75
875.2147	1309.8333	65535	64639.3
875.359	1311.7162	65535	64637
875.5032	1313.5984	65535	64635
875.6475	1315.4798	65535	64626.5
875.7917	1317.3605	65535	64619.75
875.9359	1319.2405	65535	64634.85
876.0801	1321.1197	65535	64634.85
876.2243	1322.9982	65535	64634.1
876.3685	1324.876	65535	64639.5
876.5127	1326.753	65535	64638.65
876.6569	1328.6293	65535	64635.1
876.801	1330.5048	65535	64637.6
876.9452	1332.3796	65535	64637.95
877.0893	1334.2537	65535	64610.6
877.2335	1336.127	65535	64635.2
877.3776	1337.9996	65535	64638.25
877.5217	1339.8714	65535	64637.3
877.6658	1341.7426	65535	64593.4
877.8099	1343.6129	65535	64634.45
877.954	1345.4826	65535	64635.9
878.0981	1347.3515	65535	64635
878.2422	1349.2196	65535	64636.7
878.3862	1351.087	65535	64637.85
878.5303	1352.9537	65535	64635.2
878.6743	1354.8197	65535	64638.2
878.8184	1356.6849	65535	64636.8
878.9624	1358.5493	65535	64636.75
879.1064	1360.4131	65535	64635.9
879.2504	1362.276	65535	64636.35
879.3944	1364.1383	65535	64636.75
879.5384	1365.9998	65535	64630.45
879.6823	1367.8606	65535	64636.9
879.8263	1369.7206	65535	64637.25
879.9702	1371.5799	65535	64635.45
880.1142	1373.4384	65535	64636.2
880.2581	1375.2962	65535	64635.1
880.402	1377.1533	65535	64636.7
880.5459	1379.0096	65535	64637.1
880.6898	1380.8652	65535	64638.95
880.8337	1382.7201	65535	64639.65
880.9776	1384.5742	65535	64636.15
881.1215	1386.4275	65535	64637.85
881.2653	1388.2802	65535	64637.1
881.4092	1390.132	65535	64636.8
881.553	1391.9832	65535	64635.25
881.6968	1393.8336	65535	64637.05
881.8406	1395.6832	65535	64635.35
881.9844	1397.5322	65535	64638.1
882.1282	1399.3803	65535	64632.1
882.272	1401.2278	65535	64637.35
882.4158	1403.0745	65535	64635.35
882.5595	1404.9204	65535	64637.95
882.7033	1406.7656	65535	64638.25
882.847	1408.6101	65535	64636.75
882.9908	1410.4538	65535	64636.8
883.1345	1412.2968	65535	64637.3
883.2782	1414.139	65535	64635.4
883.4219	1415.9805	65535	64638.15
883.5656	1417.8213	65535	64630.45
883.7092	1419.6613	65535	64636.9
883.8529	1421.5006	65535	64636.15
883.9965	1423.3391	65535	64637.45
884.1402	1425.1769	65535	64637.15
884.2838	1427.0139	65535	64636.6
884.4274	1428.8502	65535	64636.15
884.571	1430.6858	65535	64638.05
884.7146	1432.5206	65535	64638.1
884.8582	1434.3547	65535	64638.5
885.0018	1436.188	65535	64636.6
885.1453	1438.0206	65535	64635.5
885.2889	1439.8524	65535	64636.3
885.4324	1441.6835	65535	64636.3
885.5759	1443.5139	65535	64633.4
885.7194	1445.3435	65535	64636.9
885.8629	1447.1724	65535	64637
886.0064	1449.0005	65535	64637.8
886.1499	1450.8279	65535	64634.95
886.2933	1452.6545	65535	64637.3
886.4368	1454.4804	65535	64637.5
886.5802	1456.3056	65535	64628.7
886.7237	1458.13	65535	64639.7
886.8671	1459.9536	65535	64638.1
887.0105	1461.7766	65535	64639.2
887.1539	1463.5987	65535	64636.45
887.2972	1465.4202	65535	64636.5
887.4406	1467.2409	65535	64635.05
887.584	1469.0608	65535	64637.6
887.7273	1470.88	65535	64635.85
887.8706	1472.6984	65535	64637.3
888.0139	1474.5161	65535	64634.8
888.1572	1476.3331	65535	64638.7
888.3005	1478.1493	65535	64636.4
888.4438	1479.9648	65535	64638
888.5871	1481.7795	65535	64637.45
888.7303	1483.5935	65535	64637.85
888.8736	1485.4067	65535	64638.5
889.0168	1487.2192	65535	64636.65
889.16	1489.031	65535	64634.5
889.3032	1490.842	65535	64639.3
889.4464	1492.6522	65535	64637.65
889.5896	1494.4618	65535	64635.8
889.7327	1496.2705	65535	64639.45
889.8759	1498.0785	65535	64636.5
890.019	1499.8858	65535	64637.1
890.1622	1501.6924	65535	64638.35
890.3053	1503.4981	65535	64638.9
890.4484	1505.3032	65535	64636.5
890.5914	1507.1075	65535	64637.2
890.7345	1508.911	65535	64637.35
890.8776	1510.7138	65535	64637.1
891.0206	1512.5159	65535	64636.15
891.1637	1514.3172	65526.95	64629.25
891.3067	1516.1178	65535	64638.45
891.4497	1517.9176	65535	64635.45
891.5927	1519.7166	65535	64639.8
891.7357	1521.515	65527.75	64626.45
891.8786	1523.3126	65460.75	64563.55
892.0216	1525.1094	65532.3	64634.45
892.1645	1526.9055	65494.4	64598.35
892.3074	1528.7008	65504.3	64607.5
892.4503	1530.4954	65348.15	64443.2
892.5932	1532.2893	65505.9	64608.9
892.7361	1534.0824	65303.6	64402
892.879	1535.8747	65067.5	64171.35
893.0218	1537.6663	65498.55	64599.3
893.1647	1539.4572	64391.05	63494.45
893.3075	1541.2473	64988.45	64089.65
893.4503	1543.0367	64883.95	63989.9
893.5931	1544.8253	64700.6	63801.5
893.7359	1546.6132	64851.1	63948.95
893.8787	1548.4003	64413.85	63506.7
894.0214	1550.1867	64238.15	63332.1
894.1642	1551.9723	64007.75	63105.3
894.3069	1553.7572	64086.05	63188.55
894.4496	1555.5414	64466.85	63572.4
894.5923	1557.3247	62583.95	61686.8
894.735	1559.1074	64087.15	63191.1
894.8777	1560.8893	63347.55	62452.35
895.0204	1562.6705	63713.2	62816.05
895.163	1564.4509	62574	61678.55
895.3056	1566.2305	63038.95	62145.3
895.4482	1568.0094	63815.8	62919.65
895.5908	1569.7876	63195.55	62300.25
895.7334	1571.565	62458.6	61562.3
895.876	1573.3417	62853.7	61957
896.0186	1575.1176	62662.25	61766.9
896.1611	1576.8928	62285.3	61387.95
896.3036	1578.6672	61638.8	60745
896.4461	1580.4409	61995.75	61100
896.5886	1582.2138	61109.75	60211.9
896.7311	1583.986	61332.5	60436.7
896.8736	1585.7575	60511.15	59617.05
897.0161	1587.5282	60581.6	59688.05
897.1585	1589.2981	60673.55	59779.35
897.3009	1591.0673	59966.05	59071.05
897.4433	1592.8358	59525.15	58632.05
897.5857	1594.6035	59977.1	59079.3
897.7281	1596.3704	60024.3	59127.3
897.8705	1598.1366	59156.1	58259.4
898.0128	1599.9021	58628.2	57733.5
898.1551	1601.6668	59261	58362.8
898.2975	1603.4308	58882.6	57986.25
898.4398	1605.194	59172.05	58273.6
898.5821	1606.9564	57991	57097
898.7243	1608.7182	58596.95	57698.5
898.8666	1610.4791	58070.7	57177.1
899.0088	1612.2394	58466.35	57572.65
899.1511	1613.9988	57990.75	57096.25
899.2933	1615.7576	58563.05	57669.3
899.4355	1617.5156	58562.2	57662.5
899.5776	1619.2728	59292.05	58396.35
899.7198	1621.0293	58246.8	57352.45
899.862	1622.785	58264.35	57365.2
900.0041	1624.54	58593.85	57697.15
900.1462	1626.2942	58043.65	57149.5
900.2883	1628.0477	57007.15	56109.8
900.4304	1629.8005	56579.35	55681.65
900.5725	1631.5525	56836.45	55939.8
900.7145	1633.3037	55851.25	54956.7
900.8566	1635.0542	55773.55	54879
900.9986	1636.804	55828.6	54935.5
901.1406	1638.553	55247.45	54236.7
901.2826	1640.3013	55236.65	54339.7
901.4245	1642.0488	54775.7	53880.4
901.5665	1643.7955	54901.65	54010.6
901.7085	1645.5416	54607.15	53713.3
901.8504	1647.2868	54398.95	53504.55
901.9923	1649.0313	54628.65	53733.2
902.1342	1650.7751	54420.15	53522.55
902.2761	1652.5181	54205.95	53311.3
902.4179	1654.2604	54312.7	53417.7
902.5598	1656.0019	54755.2	53861.8
902.7016	1657.7427	54626.6	53732.25
902.8434	1659.4828	55003.05	54108.4
902.9852	1661.222	54933.4	54039.6
903.127	1662.9606	54924.35	54032.5
903.2687	1664.6984	54573.1	53678.95
903.4105	1666.4354	54336.4	53440.85
903.5522	1668.1717	53472.2	52579.2
903.6939	1669.9072	52854.15	51961.6
903.8356	1671.642	52487.25	51591.75
903.9773	1673.3761	52102.35	51209.45
904.119	1675.1094	51692.75	50797.9
904.2606	1676.8419	51276.75	50384.7
904.4022	1678.5737	50995.2	50102
904.5439	1680.3048	50757.35	49862.05
904.6855	1682.0351	50364.8	49470.9
904.827	1683.7646	50171.4	49275.6
904.9686	1685.4934	50030.4	49137.3
905.1101	1687.2215	49563.4	48668.4
905.2517	1688.9488	49524.4	48630.25
905.3932	1690.6754	49060.6	48167.65
905.5347	1692.4012	49092.35	48198.4
905.6761	1694.1263	48904.9	48010.55
905.8176	1695.8506	48671.25	47777.45
905.9591	1697.5742	48498.75	47605.9
906.1005	1699.297	48229.35	47335.25
906.2419	1701.0191	48024.85	47132.2
906.3833	1702.7404	47790.9	46897.5
906.5246	1704.461	47510.05	46616.55
906.666	1706.1808	47398.65	46504.15
906.8073	1707.8999	47291.3	46397.2
906.9487	1709.6182	47070.9	46177.3
907.09	1711.3358	46915.8	46023.1
907.2313	1713.0527	46716.4	45826.1
907.3725	1714.7688	46566.65	45666.7
907.5138	1716.4841	46299.8	45402.45
907.655	1718.1987	46303	45404.35
907.7962	1719.9126	46071.1	45178.4
907.9374	1721.6257	45885.65	44991.05
908.0786	1723.338	45820	44925
908.2198	1725.0496	45459.1	44566.4
908.3609	1726.7605	45369.9	44476.7
908.502	1728.4706	45215.05	44321.85
908.6431	1730.18	44934	44038.95
908.7842	1731.8886	44847.9	43953.7
908.9253	1733.5964	44697.35	43785.2
909.0664	1735.3036	44604	43710.3
909.2074	1737.0099	44441.4	43549.05
909.3484	1738.7156	44329.85	43436.65
909.4894	1740.4204	44134.15	43240.85
909.6304	1742.1246	44060.35	43165.15
909.7714	1743.8279	43906.15	43013.45
909.9123	1745.5306	43799.75	42904.75
910.0532	1747.2325	43597	42704.85
910.1941	1748.9336	43434.35	42541.55
910.335	1750.634	43258.2	42363.7
910.4759	1752.3336	43186	42293.25
910.6168	1754.0325	43058.8	42166.7
910.7576	1755.7307	42963.8	42071.3
910.8984	1757.4281	42921.95	42027.3
911.0392	1759.1247	42755.45	41856.1
911.18	1760.8206	42659.55	41761.6
911.3208	1762.5158	42582.7	41686.35
911.4615	1764.2102	42384.85	41491.15
911.6022	1765.9039	42168.3	41276
911.7429	1767.5968	42103.5	41210.9
911.8836	1769.289	41979.4	41087
912.0243	1770.9804	41810.55	40916.3
912.1649	1772.6711	41788.3	40895.8
912.3056	1774.361	41566.75	40674.2
912.4462	1776.0502	41559.4	40666.8
912.5868	1777.7386	41450.05	40553.35
912.7274	1779.4263	41258.4	40364.65
912.8679	1781.1132	41267.3	40374.95
913.0084	1782.7994	41067.3	40175.1
913.149	1784.4849	40925.9	40034.65
913.2895	1786.1696	40777.05	39876.75
913.4299	1787.8535	40684.15	39792.35
913.5704	1789.5367	40562.4	39671.25
913.7108	1791.2192	40467.05	39575.45
913.8513	1792.9009	40303.5	39381.15
913.9917	1794.5818	40217.55	39323.95
914.132	1796.2621	40109.5	39217
914.2724	1797.9415	40001.75	39110.1
914.4128	1799.6202	39796.2	38903
914.5531	1801.2982	39762.8	38868.2
914.6934	1802.9755	39659.5	38766.4
914.8337	1804.6519	39540.85	38646.55
914.9739	1806.3277	39344.4	38451.9
915.1142	1808.0027	39167.45	38277.35
915.2544	1809.6769	39162.75	38272.05
915.3946	1811.3504	38999.45	38107.75
915.5348	1813.0231	38917.85	38024.4
915.675	1814.6951	38832	37939.45
915.8151	1816.3664	38811.85	37918.55
915.9553	1818.0369	38668.35	37776.8
916.0954	1819.7067	38511.15	37619.7
916.2355	1821.3757	38424.25	37531.45
916.3755	1823.044	38355.7	37462.2
916.5156	1824.7115	38208.1	37318.05
916.6556	1826.3783	38029.35	37138.35
916.7956	1828.0443	37962.55	37071.6
916.9356	1829.7096	37828.95	36935.2
917.0756	1831.3741	37790.45	36893.45
917.2155	1833.0379	37676.25	36784.5
917.3555	1834.701	37501.35	36605.9
917.4954	1836.3633	37447.65	36554.05
917.6353	1838.0248	37332.55	36438.55
917.7751	1839.6856	37267.4	36375.4
917.915	1841.3457	37191.25	36298.7
918.0548	1843.005	37038.7	36146.35
918.1946	1844.6636	37015.2	36124.9
918.3344	1846.3214	36866.7	35975.35
918.4742	1847.9785	36838.3	35946.55
918.6139	1849.6349	36678.5	35785.1
918.7537	1851.2904	36590.65	35690.15
918.8934	1852.9453	36464.6	35572.7
919.0331	1854.5994	36348.1	35453.65
919.1727	1856.2528	36410.1	35513
919.3124	1857.9054	36229.9	35337.3
919.452	1859.5572	36165.05	35273.35
919.5916	1861.2083	35996.25	35104.2
919.7312	1862.8587	35990.45	35097.4
919.8708	1864.5084	35864.5	34971.4
920.0103	1866.1572	35769.45	34879.3
920.1498	1867.8054	35543.45	34652.3
920.2893	1869.4528	35542.85	34649.95
920.4288	1871.0994	35442.25	34552.05
920.5683	1872.7453	35403.05	34510.15
920.7077	1874.3905	35250.05	34353.6
920.8471	1876.0349	35087.75	34193.6
920.9865	1877.6786	35109.7	34216.6
921.1259	1879.3215	35059.25	34167.15
921.2653	1880.9637	34977.6	34082.9
921.4046	1882.6051	34866.1	33973
921.5439	1884.2458	34756.5	33862.4
921.6832	1885.8858	34580.4	33689.1
921.8225	1887.525	34539.95	33647.5
921.9617	1889.1634	34366.3	33474.2
922.101	1890.8011	34246.75	33354.4
922.2402	1892.4381	34119.15	33227.1
922.3794	1894.0743	34085.1	33191.9
922.5185	1895.7098	33992.95	33102.75
922.6577	1897.3446	33923.8	33031.35
922.7968	1898.9786	33809.9	32913
922.9359	1900.6118	33732.75	32840.65
923.075	1902.2443	33533	32637.2
923.214	1903.8761	33449.6	32556.95
923.3531	1905.5071	33233.85	32340.1
923.4921	1907.1374	33127.2	32233.75
923.6311	1908.7669	33082.45	32191.25
923.77	1910.3957	33068.8	32177.75
923.909	1912.0237	32839	31947.7
924.0479	1913.651	32733.45	31840.2
924.1868	1915.2776	32672.25	31779.65
924.3257	1916.9034	32455.05	31563.6
924.4646	1918.5285	32333.75	31444.15
924.6034	1920.1528	32196.4	31302.65
924.7422	1921.7764	32169.45	31277.95
924.881	1923.3992	32037.35	31145
925.0198	1925.0213	31768.65	30874.5
925.1586	1926.6427	31675.15	30782.6
925.2973	1928.2633	31684.55	30684.5
925.436	1929.8832	31546.55	30651.5
925.5747	1931.5023	31316.35	30426.55
925.7134	1933.1207	31283.5	30392.6
925.852	1934.7383	31174.6	30283.75
925.9906	1936.3552	31053.45	30163.15
926.1292	1937.9714	31002.65	30109.95
926.2678	1939.5868	30824.35	29931.55
926.4064	1941.2015	30664.15	29771.15
926.5449	1942.8154	30520.6	29628
926.6834	1944.4286	30415.65	29523.4
926.8219	1946.041	30304.1	29393.4
926.9604	1947.6528	30067.7	29170.95
927.0988	1949.2637	30026.6	29133.55
927.2372	1950.8739	29938.4	29047.75
927.3756	1952.4834	29866.05	28973.95
927.514	1954.0921	29817.15	28923.45
927.6523	1955.7001	29707.4	28812.7
927.7907	1957.3074	29540.85	28649.5
927.929	1958.9139	29441	28548.25
928.0673	1960.5197	29324.75	28431.1
928.2055	1962.1247	29178.95	28287.75
928.3438	1963.729	29057.15	28166.7
928.482	1965.3325	28950.75	28036.3
928.6202	1966.9353	28812.5	27921.9
928.7584	1968.5374	28715.15	27823.1
928.8965	1970.1387	28643.85	27752.1
929.0346	1971.7393	28558.75	27665.2
929.1727	1973.3392	28458.05	27566.95
929.3108	1974.9383	28289.85	27399.25
929.4489	1976.5366	28186.5	27295.1
929.5869	1978.1342	28118.3	27227.1
929.7249	1979.7311	28049.45	27156.75
929.8629	1981.3273	27942.35	27050.75
930.0009	1982.9227	27864.05	26970.95
930.1388	1984.5173	27753.05	26860.7
930.2767	1986.1112	27616.45	26725.4
930.4146	1987.7044	27521	26631.8
930.5525	1989.2968	27456.75	26563.3
930.6904	1990.8885	27402.45	26507.2
930.8282	1992.4795	27318	26424.3
930.966	1994.0697	27225.6	26334.3
931.1038	1995.6592	27062.35	26173.25
931.2415	1997.2479	26939.7	26047.8
931.3793	1998.8359	26892.2	26002
931.517	2000.4232	26755	25862.4
931.6547	2002.0097	26697.8	25807.65
931.7923	2003.5955	26565.55	25674.15
931.93	2005.1805	26512.95	25618.25
932.0676	2006.7648	26432.55	25541.2
932.2052	2008.3484	26344.1	25451.95
932.3427	2009.9312	26341.6	25450
932.4803	2011.5133	26203.2	25313.05
932.6178	2013.0946	26128.25	25236.9
932.7553	2014.6752	26047.9	25157.15
932.8928	2016.2551	25972.65	25081.05
933.0302	2017.8342	25841.55	24949.45
933.1676	2019.4126	25738.2	24847.55
933.305	2020.9902	25626.4	24736.75
933.4424	2022.5672	25627.6	24735
933.5798	2024.1433	25532.5	24635.95
933.7171	2025.7188	25426.4	24535.35
933.8544	2027.2935	25349.2	24457.25
933.9917	2028.8674	25234.2	24342.1
934.129	2030.4406	25137.2	24248.7
934.2662	2032.0131	24997.1	24108.4
934.4034	2033.5849	24932.6	24037.8
934.5406	2035.1559	24907.5	24016.15
934.6778	2036.7261	24814.85	23924.1
934.8149	2038.2957	24752.1	23862.65
934.952	2039.8645	24688.6	23797.55
935.0891	2041.4325	24674.9	23781.9
935.2262	2042.9998	24537	23645.75
935.3632	2044.5664	24509.75	23617.45
935.5002	2046.1323	24394.05	23501.7
935.6372	2047.6974	24288.95	23397.35
935.7742	2049.2617	24199.1	23309.8
935.9111	2050.8254	24164.4	23252.1
936.048	2052.3883	24138.85	23244.35
936.1849	2053.9504	24058.45	23166.1
936.3218	2055.5118	23929.4	23037.45
936.4586	2057.0725	23817.1	22924.25
936.5955	2058.6325	23786.35	22896.75
936.7323	2060.1917	23718.85	22828.75
936.869	2061.7502	23674.05	22779.55
937.0058	2063.3079	23577.4	22688.15
937.1425	2064.8649	23466.2	22573.35
937.2792	2066.4212	23379.9	22486.25
937.4159	2067.9767	23331.75	22441.5
937.5525	2069.5315	23215.95	22325.15
937.6891	2071.0856	23097	22204.65
937.8257	2072.6389	23023.15	22130.75
937.9623	2074.1915	22938.9	22049.2
938.0989	2075.7433	22796.45	21902
938.2354	2077.2945	22747.4	21856.45
938.3719	2078.8448	22675.75	21785.85
938.5084	2080.3945	22577.75	21686.4
938.6448	2081.9434	22575.05	21685.25
938.7812	2083.4916	22466.95	21576.05
938.9176	2085.039	22385.95	21494.3
939.054	2086.5857	22304.35	21413
939.1903	2088.1317	22264.15	21371.9
939.3267	2089.677	22186.25	21294.7
939.463	2091.2215	22134	21239.8
939.5992	2092.7652	22043.75	21150.35
939.7355	2094.3083	22011.45	21118.9
939.8717	2095.8506	21962.45	21072.35
940.0079	2097.3921	21946.1	21055.25
940.1441	2098.933	21848.4	20958.75
940.2802	2100.4731	21781.9	20890.9
940.4163	2102.0124	21722.2	20823.35
940.5524	2103.5511	21670.9	20780.15
940.6885	2105.089	21634.75	20741.9
940.8245	2106.6261	21555.2	20663.95
940.9606	2108.1626	21511.25	20619.05
941.0965	2109.6983	21448.9	20528.7
941.2325	2111.2332	21343.15	20450.5
941.3684	2112.7675	21269.65	20375.95
941.5044	2114.301	21191.4	20297.75
941.6403	2115.8337	21203.85	20312.35
941.7761	2117.3657	21105.1	20213
941.912	2118.897	21073.9	20180.4
942.0478	2120.4276	20964.1	20064.55
942.1835	2121.9575	20861.65	19969.55
942.3193	2123.4866	20905.15	20000.65
942.455	2125.0149	20828.1	19935.35
942.5907	2126.5426	20668.35	19777.65
942.7264	2128.0695	20621.45	19726.15
942.8621	2129.5956	20562.85	19671.4
942.9977	2131.1211	20546.95	19651.25
943.1333	2132.6458	20438.2	19547.35
943.2689	2134.1698	20394.45	19502.4
943.4044	2135.693	20383.65	19488.75
943.54	2137.2155	20312.95	19417.95
943.6755	2138.7373	20256.55	19364.7
943.8109	2140.2584	20172.3	19280
943.9464	2141.7787	20094.35	19199.35
944.0818	2143.2983	19938.6	19048
944.2172	2144.8171	19853.9	18964
944.3526	2146.3353	19828.3	18937.15
944.4879	2147.8527	19757	18865.55
944.6232	2149.3693	19733.8	18842.75
944.7585	2150.8853	19643.95	18750.9
944.8938	2152.4005	19523.7	18630.4
945.029	2153.9149	19511.7	18619
945.1642	2155.4287	19447.1	18556.35
945.2994	2156.9417	19408.2	18516.55
945.4346	2158.454	19339.85	18446.7
945.5697	2159.9655	19276.95	18386.65
945.7048	2161.4764	19251.2	18359.5
945.8399	2162.9865	19157.15	18264.2
945.9749	2164.4958	19143.7	18248.95
946.1099	2166.0045	19057.75	18162.4
946.2449	2167.5124	19024.05	18130.2
946.3799	2169.0195	18961.1	18069
946.5148	2170.526	18928.55	18034.7
946.6498	2172.0317	18862.55	17972.05
946.7846	2173.5367	18797.6	17907.2
946.9195	2175.0409	18734.2	17842.8
947.0543	2176.5445	18723.4	17832.15
947.1891	2178.0473	18637.95	17746.1
947.3239	2179.5494	18543.7	17647.55
947.4587	2181.0507	18476.25	17582.95
947.5934	2182.5513	18442	17551.1
947.7281	2184.0512	18408.45	17516.75
947.8628	2185.5504	18329.8	17439.3
947.9974	2187.0488	18223.15	17331.05
948.132	2188.5465	18131.65	17239.65
948.2666	2190.0435	18078.25	17184.55
948.4012	2191.5397	18028.45	17136.5
948.5357	2193.0353	17957.3	17067.45
948.6702	2194.5301	17842.85	16950.2
948.8047	2196.0241	17783.65	16891.4
948.9392	2197.5175	17758.75	16865.75
949.0736	2199.0101	17662.35	16764.95
949.208	2200.502	17573.25	16683.1
949.3424	2201.9931	17509.5	16616.4
949.4767	2203.4835	17469.25	16575.35
949.611	2204.9733	17402.25	16503.55
949.7453	2206.4622	17357	16466.25
949.8796	2207.9505	17301.5	16409.15
950.0138	2209.438	17208.25	16318.25
950.148	2210.9248	17157.8	16266.15
950.2822	2212.4109	17096.15	16204.85
950.4164	2213.8962	17032.8	16138.2
950.5505	2215.3809	16974.4	16082.55
950.6846	2216.8648	16950.5	16058.55
950.8186	2218.3479	16892.55	15996.65
950.9527	2219.8304	16826.75	15930.8
951.0867	2221.3121	16747.15	15852.95
951.2207	2222.7931	16690.55	15799.75
951.3546	2224.2733	16629.35	15735.5
951.4886	2225.7529	16561.95	15668.55
951.6225	2227.2317	16517.3	15623
951.7563	2228.7098	16498.1	15606.3
951.8902	2230.1872	16372.25	15482.95
952.024	2231.6638	16367.5	15476.25
952.1578	2233.1397	16300.65	15401.25
952.2916	2234.6149	16253.7	15360.1
952.4253	2236.0894	16148.9	15255.8
952.559	2237.5632	16163.85	15264.45
952.6927	2239.0362	16068.5	15177.4
952.8263	2240.5085	15999.2	15109.3
952.9599	2241.9801	15969.05	15077.95
953.0935	2243.4509	15894.3	15001.5
953.2271	2244.921	15832.95	14940.45
953.3606	2246.3904	15769	14874.4
953.4941	2247.8591	15725.1	14834.3
953.6276	2249.3271	15704.8	14812
953.7611	2250.7943	15642.25	14750.7
953.8945	2252.2608	15559.35	14668.1
954.0279	2253.7266	15520.45	14628.1
954.1612	2255.1917	15469.45	14577.4
954.2946	2256.656	15416.5	14522.95
954.4279	2258.1197	15344.3	14451.3
954.5612	2259.5826	15308.1	14413.6
954.6944	2261.0447	15272.2	14380.35
954.8276	2262.5062	15196.25	14302.5
954.9608	2263.9669	15162.95	14271
955.094	2265.4269	15158.25	14266.9
955.2271	2266.8862	15057.15	14164.85
955.3602	2268.3448	15025.35	14133.7
955.4933	2269.8026	15038.85	14148
955.6264	2271.2598	14959.8	14066.1
955.7594	2272.7162	14903.2	14013.05
955.8924	2274.1719	14838.05	13946.2
956.0253	2275.6268	14828.05	13934.5
956.1583	2277.0811	14752.35	13859.1
956.2912	2278.5346	14732.25	13840.95
956.4241	2279.9874	14693.35	13799.55
956.5569	2281.4395	14654.15	13763.4
956.6897	2282.8908	14590.2	13694.6
956.8225	2284.3414	14552.2	13657.95
956.9553	2285.7914	14495.55	13603.15
957.088	2287.2406	14450.25	13557.2
957.2207	2288.689	14409.55	13516.75
957.3534	2290.1368	14355.35	13461.45
957.486	2291.5838	14331.6	13438.55
957.6186	2293.0302	14251.15	13358.1
957.7512	2294.4758	14182.75	13290.85
957.8838	2295.9206	14147.9	13254.3
958.0163	2297.3648	14101.55	13208.75
958.1488	2298.8082	14094.15	13200.6
958.2813	2300.251	14047.6	13155.5
958.4137	2301.693	13979.15	13085.2
958.5461	2303.1343	13988.45	13095.95
958.6785	2304.5748	13929.6	13036.95
958.8108	2306.0147	13855	12963.7
958.9432	2307.4538	13823.75	12930.35
959.0754	2308.8922	13802.9	12912.3
959.2077	2310.3299	13730.15	12839.5
959.3399	2311.7669	13682	12790.7
959.4721	2313.2031	13588.8	12697.1
959.6043	2314.6387	13578.15	12685.9
959.7365	2316.0735	13508.85	12617.25
959.8686	2317.5076	13492.25	12598.6
960.0006	2318.941	13439.5	12548.65
960.1327	2320.3737	13407.35	12516.1
960.2647	2321.8056	13389.7	12496.8
960.3967	2323.2369	13318.4	12426.5
960.5287	2324.6674	13290.2	12396.3
960.6606	2326.0972	13227.35	12334.45
960.7925	2327.5263	13191.4	12299.8
960.9244	2328.9547	13135.3	12243.05
961.0562	2330.3823	13093.25	12202.3
961.1881	2331.8092	13074.6	12179.7
961.3198	2333.2355	13001.8	12109.15
961.4516	2334.661	12984.15	12090.6
961.5833	2336.0858	12976.55	12082.35
961.715	2337.5098	12940.7	12048.8
961.8467	2338.9332	12887.15	11995
961.9783	2340.3558	12830.05	11934.45
962.1099	2341.7778	12796.5	11904.9
962.2415	2343.199	12744.5	11850.8
962.373	2344.6195	12682.2	11790.85
962.5045	2346.0393	12652.7	11761.5
962.636	2347.4583	12613.05	11721
962.7675	2348.8767	12584.6	11692.15
962.8989	2350.2943	12554.15	11661.2
963.0303	2351.7113	12519.35	11625.2
963.1617	2353.1275	12456.75	11562.1
963.293	2354.543	12457.1	11540.85
963.4243	2355.9578	12399.5	11507.5
963.5556	2357.3718	12336.75	11444.65
963.6868	2358.7852	12292.6	11399.5
963.818	2360.1978	12220.25	11326.45
963.9492	2361.6098	12191.8	11300.45
964.0803	2363.021	12126.25	11229.7
964.2114	2364.4315	12106.85	11214.6
964.3425	2365.8413	12048.8	11156.8
964.4736	2367.2504	12034.75	11144.55
964.6046	2368.6587	11958.65	11065.6
964.7356	2370.0664	11892.75	11002.2
964.8666	2371.4733	11871.4	10980.4
964.9975	2372.8795	11843.45	10952.5
965.1284	2374.285	11788.35	10897.1
965.2593	2375.6899	11720.65	10829.8
965.3901	2377.0939	11660.8	10770.1
965.5209	2378.4973	11608.9	10718.2
965.6517	2379.9	11590.75	10698.4
965.7825	2381.3019	11563.35	10673.2
965.9132	2382.7032	11505.15	10616.75
966.0439	2384.1037	11469.75	10580.65
966.1745	2385.5035	11421.8	10530.9
966.3051	2386.9027	11383.8	10494.2
966.4357	2388.3011	11333.25	10439.6
966.5663	2389.6987	11315.05	10422.7
966.6968	2391.0957	11304.8	10412.65
966.8273	2392.492	11227.55	10334.9
966.9578	2393.8876	11142.65	10251.5
967.0882	2395.2824	11116.9	10225.4
967.2186	2396.6765	11047.9	10157.75
967.349	2398.07	11001.3	10111.8
967.4793	2399.4627	11000.5	10110.2
967.6097	2400.8547	10952.3	10061.85
967.7399	2402.246	10934.95	10038.5
967.8702	2403.6366	10863.2	9972.7
968.0004	2405.0265	10804.25	9914.05
968.1306	2406.4156	10785.8	9890.5
968.2607	2407.8041	10738.1	9844.85
968.3909	2409.1918	10695	9801.65
968.521	2410.5789	10650.25	9758.2
968.651	2411.9652	10605.75	9712.7
968.781	2413.3508	10576.45	9686.95
968.911	2414.7358	10520.4	9629.2
969.041	2416.12	10477.05	9586.2
969.1709	2417.5035	10466.55	9575.5
969.3008	2418.8863	10412.25	9521.85
969.4307	2420.2684	10406.6	9517.1
969.5606	2421.6497	10340.8	9447.9
969.6904	2423.0304	10287.4	9398.75
969.8201	2424.4104	10267.25	9376.75
969.9499	2425.7896	10217.15	9319.75
970.0796	2427.1682	10193.6	9303
970.2093	2428.546	10164.3	9273.3
970.3389	2429.9232	10131.85	9238.75
970.4685	2431.2996	10114	9225.95
970.5981	2432.6753	10091.5	9201.6
970.7277	2434.0503	10048.45	9157
970.8572	2435.4246	9984.25	9094.3
970.9867	2436.7982	9959.8	9064.35
971.1161	2438.1711	9918.1	9027.75
971.2456	2439.5433	9872.05	8978.95
971.375	2440.9148	9832.4	8938.8
971.5043	2442.2856	9839.9	8949.05
971.6336	2443.6557	9788.75	8897.3
971.7629	2445.025	9745.95	8855.3
971.8922	2446.3937	9735.05	8843.1
972.0214	2447.7617	9696.4	8802.45
972.1506	2449.1289	9665.75	8773.25
972.2798	2450.4955	9620.1	8725.5
972.4089	2451.8613	9614.6	8724.75
972.538	2453.2265	9586.6	8696.55
972.6671	2454.5909	9541.85	8650.45
972.7961	2455.9546	9553.85	8662.85
972.9251	2457.3177	9497.3	8606.6
973.0541	2458.68	9465.75	8572.6
973.1831	2460.0416	9480.3	8587.2
973.312	2461.4025	9430.15	8536.85
973.4408	2462.7627	9414.05	8511.45
973.5697	2464.1222	9381.65	8491.2
973.6985	2465.4811	9323.2	8433.1
973.8273	2466.8392	9304.7	8414.45
973.956	2468.1966	9287.9	8393.55
974.0847	2469.5533	9257.95	8363.8
974.2134	2470.9093	9252.1	8361.3
974.3421	2472.2645	9197.2	8305.75
974.4707	2473.6191	9172.1	8280.9
974.5993	2474.973	9107.55	8214.2
974.7278	2476.3262	9103.1	8209.8
974.8563	2477.6787	9071.25	8179.8
974.9848	2479.0305	9036.95	8145.85
975.1132	2480.3816	8979.4	8086.3
975.2417	2481.7319	8955.05	8063.4
975.37	2483.0816	8945.55	8052.35
975.4984	2484.4306	8902.7	8009.15
975.6267	2485.7789	8859	7969
975.755	2487.1264	8821	7927.55
975.8833	2488.4733	8776.2	7886.4
976.0115	2489.8195	8759.45	7860.3
976.1397	2491.165	8719.65	7823.8
976.2678	2492.5097	8694.9	7805
976.3959	2493.8538	8640.5	7749.45
976.524	2495.1972	8608	7716.45
976.6521	2496.5398	8579.05	7685.65
976.7801	2497.8818	8557.6	7664.75
976.9081	2499.2231	8510.75	7620.45
977.036	2500.5637	8486	7593.4
977.164	2501.9035	8478.35	7585.7
977.2918	2503.2427	8453.65	7559.6
977.4197	2504.5812	8430.6	7540.25
977.5475	2505.919	8383.9	7490
977.6753	2507.256	8366.8	7474.7
977.8031	2508.5924	8313.45	7420.1
977.9308	2509.9281	8296	7398
978.0585	2511.2631	8272.9	7381.45
978.1861	2512.5974	8254.85	7363.8
978.3137	2513.9309	8221.75	7330.65
978.4413	2515.2638	8198.7	7270.6
978.5689	2516.596	8166.55	7275.1
978.6964	2517.9275	8122.05	7230.8
978.8239	2519.2583	8098.35	7207.05
978.9513	2520.5884	8073.1	7179.15
979.0788	2521.9178	8053.05	7161.9
979.2062	2523.2465	8004.6	7114.1
979.3335	2524.5745	7967.05	7076
979.4608	2525.9018	7957.65	7066.2
979.5881	2527.2284	7944.5	7056.5
979.7154	2528.5543	7909.75	7019.55
979.8426	2529.8796	7902.25	7009.85
979.9698	2531.2041	7873.15	6980.75
980.0969	2532.5279	7857.4	6966.65
980.224	2533.851	7833.8	6939.85
980.3511	2535.1735	7797.85	6907.9
980.4781	2536.4952	7764.85	6873.25
980.6052	2537.8163	7763.6	6871.15
980.7321	2539.1366	7722.1	6831.1
980.8591	2540.4562	7726.3	6831.6
980.986	2541.7752	7702.45	6811.45
981.1129	2543.0935	7668.95	6777.4
981.2397	2544.411	7647.9	6754.55
981.3665	2545.7279	7644.55	6751.6
981.4933	2547.0441	7642.2	6748.65
981.62	2548.3596	7627.75	6734
981.7467	2549.6744	7596.9	6706.25
981.8734	2550.9885	7563.2	6668.25
982.0001	2552.3019	7532.5	6643.2
982.1267	2553.6146	7526.4	6634.3
982.2532	2554.9266	7512.2	6618.7
982.3798	2556.2379	7468.8	6574.95
982.5063	2557.5485	7459.1	6567.5
982.6327	2558.8585	7428.7	6530.15
982.7592	2560.1677	7431.85	6536.3
982.8856	2561.4762	7403.15	6511.35
983.0119	2562.7841	7391.25	6498
983.1383	2564.0913	7362.2	6471.45
983.2646	2565.3977	7349.1	6457.2
983.3908	2566.7035	7315.1	6423.05
983.517	2568.0086	7314.15	6421.65
983.6432	2569.313	7300.1	6406.4
983.7694	2570.6167	7276.45	6379.95
983.8955	2571.9197	7258.2	6367
984.0216	2573.222	7239.15	6345.25
984.1476	2574.5236	7216.35	6324.65
984.2737	2575.8246	7206	6312.65
984.3996	2577.1248	7207.25	6314.05
984.5256	2578.4244	7198.55	6307.4
984.6515	2579.7232	7177.9	6286.15
984.7774	2581.0214	7158.05	6228.2
984.9032	2582.3189	7134.85	6243.25
985.029	2583.6157	7129.3	6233.7
985.1548	2584.9118	7102.35	6211.8
985.2806	2586.2072	7085.6	6195.85
985.4063	2587.5019	7032.5	6141.85
985.5319	2588.7959	7047.2	6154.15
985.6576	2590.0893	7049.45	6155.4
985.7832	2591.3819	7031.8	6143.15
985.9087	2592.6739	7001.2	6109.25
986.0343	2593.9652	6981.4	6088.9
986.1597	2595.2557	6937	6045.2
986.2852	2596.5456	6928.1	6034
986.4106	2597.8348	6906.95	6016.25
986.536	2599.1234	6875.75	5985.1
986.6614	2600.4112	6848.8	5956.7
986.7867	2601.6983	6822.85	5928.7
986.912	2602.9848	6803.4	5912.9
987.0372	2604.2705	6790.5	5892.85
987.1624	2605.5556	6743.6	5851.6
987.2876	2606.84	6748.3	5855.35
987.4128	2608.1237	6708.15	5815.15
987.5379	2609.4067	6689.4	5796.3
987.6629	2610.689	6672.3	5770.75
987.788	2611.9707	6634.25	5737.2
987.913	2613.2516	6622.95	5725.05
988.0379	2614.5319	6605.85	5715.6
988.1629	2615.8115	6570.95	5677.5
988.2878	2617.0903	6543.65	5651.05
988.4126	2618.3685	6505.1	5613.95
988.5375	2619.6461	6512.6	5618.95
988.6622	2620.9229	6466.25	5574.8
988.787	2622.199	6464.65	5569.75
988.9117	2623.4745	6445.1	5552.2
989.0364	2624.7493	6430.7	5538.55
989.161	2626.0234	6387.7	5498.65
989.2857	2627.2968	6368.3	5477.05
989.4102	2628.5695	6354.95	5463.05
989.5348	2629.8415	6322.25	5430.2
989.6593	2631.1128	6296.45	5403.2
989.7837	2632.3835	6265.8	5373.4
989.9082	2633.6535	6232.8	5341.35
990.0326	2634.9228	6222.05	5329.85
990.1569	2636.1914	6208.55	5316.6
990.2812	2637.4593	6204.45	5307.45
990.4055	2638.7265	6177.65	5283.5
990.5298	2639.9931	6161.8	5269.55
990.654	2641.259	6148.2	5257.2
990.7782	2642.5242	6128.45	5236.05
990.9023	2643.7887	6089.5	5198.1
991.0264	2645.0525	6087.5	5194.75
991.1505	2646.3156	6055.45	5163.15
991.2745	2647.5781	6038.25	5147.2
991.3985	2648.8398	5999.45	5107.85
991.5225	2650.1009	6006.65	5106.95
991.6464	2651.3613	5984.55	5092.45
991.7703	2652.6211	5961.95	5069.3
991.8942	2653.8801	5949.05	5057.5
992.018	2655.1385	5932.95	5038.85
992.1418	2656.3961	5915.95	5023.4
992.2655	2657.6531	5920.2	5029.45
992.3892	2658.9094	5893.7	5001.1
992.5129	2660.1651	5865.1	4974.1
992.6366	2661.42	5847.7	4954.5
992.7602	2662.6743	5827.65	4935
992.8837	2663.9279	5847.75	4956.4
993.0073	2665.1808	5817.95	4924.75
993.1307	2666.433	5798.45	4907.65
993.2542	2667.6846	5769.55	4878.8
993.3776	2668.9354	5766.95	4870.65
993.501	2670.1856	5752.25	4862.05
993.6244	2671.4351	5722.55	4830.7
993.7477	2672.6839	5739.95	4846.55
993.8709	2673.9321	5726	4836.9
993.9942	2675.1795	5711.25	4819.7
994.1174	2676.4263	5672.8	4780.9
994.2405	2677.6724	5659.15	4770.3
994.3637	2678.9179	5664.3	4771.25
994.4868	2680.1626	5620.15	4727.2
994.6098	2681.4067	5614	4720.75
994.7328	2682.6501	5610.9	4717.4
994.8558	2683.8928	5597.75	4707.1
994.9788	2685.1348	5563.75	4673.8
995.1017	2686.3761	5528.9	4638.95
995.2245	2687.6168	5521.3	4630.35
995.3474	2688.8568	5514.45	4622.95
995.4702	2690.0961	5481.85	4591.85
995.5929	2691.3348	5476.25	4583
995.7156	2692.5727	5465.6	4572.65
995.8383	2693.81	5439.6	4548.9
995.961	2695.0466	5428.7	4538
996.0836	2696.2826	5407.6	4516
996.2062	2697.5178	5395.15	4501.1
996.3287	2698.7524	5368.75	4477.9
996.4512	2699.9863	5366.5	4474.45
996.5737	2701.2195	5324.75	4433.9
996.6961	2702.452	5332.4	4439.55
996.8185	2703.6839	5321.7	4428.9
996.9408	2704.9151	5296.55	4405.85
997.0631	2706.1456	5283.85	4390.4
997.1854	2707.3755	5279.4	4385.3
997.3077	2708.6046	5278.65	4385.35
997.4299	2709.8331	5269.5	4375.6
997.552	2711.0609	5247.8	4355.15
997.6742	2712.2881	5231.95	4339.6
997.7963	2713.5145	5219.6	4326.3
997.9183	2714.7403	5216.35	4324.15
998.0403	2715.9654	5204.2	4312.75
998.1623	2717.1899	5219.75	4313.75
998.2842	2718.4136	5207.1	4315.65
998.4062	2719.6367	5182.25	4290.9
998.528	2720.8591	5198.45	4299.05
998.6498	2722.0809	5171.45	4280
998.7716	2723.3019	5164.65	4269.9
998.8934	2724.5223	5171.45	4277.1
999.0151	2725.7421	5153.35	4258.5
999.1368	2726.9611	5145.05	4251.1
999.2584	2728.1795	5121.1	4225.55
999.38	2729.3972	5118.2	4226.85
999.5016	2730.6142	5083	4184.45
999.6231	2731.8306	5044	4151.6
999.7446	2733.0462	5022.9	4129.55
999.8661	2734.2612	4976.2	4080.3
999.9875	2735.4756	4938.65	4043.9
1000.1089	2736.6892	4904.2	4011.8
1000.2302	2737.9022	4885	3993.85
1000.3515	2739.1145	4870.35	3977.2
1000.4728	2740.3262	4843.75	3942.3
1000.594	2741.5372	4793.3	3901.7
1000.7152	2742.7475	4781.55	3888.85
1000.8363	2743.9571	4783.65	3891.8
1000.9575	2745.1661	4749.75	3854.5
1001.0785	2746.3744	4721.15	3830.9
1001.1996	2747.582	4686.05	3793.75
1001.3206	2748.7889	4671.8	3776.7
1001.4415	2749.9952	4656.15	3765.25
1001.5625	2751.2008	4631.65	3738.9
1001.6833	2752.4057	4639.45	3745.55
1001.8042	2753.61	4622.45	3728.6
1001.925	2754.8136	4591.25	3696.7
1002.0458	2756.0165	4585.1	3694.35
1002.1665	2757.2188	4561.1	3670.3
1002.2872	2758.4204	4552.85	3661.4
1002.4078	2759.6213	4533.1	3638.4
1002.5285	2760.8215	4532.35	3636.25
1002.649	2762.0211	4511.2	3617.7
1002.7696	2763.22	4514.05	3619.55
1002.8901	2764.4182	4502.2	3608.75
1003.0106	2765.6158	4467.3	3575.45
1003.131	2766.8127	4451.9	3560.45
1003.2514	2768.009	4429.2	3537.85
1003.3717	2769.2045	4425.75	3533.35
1003.492	2770.3994	4423.35	3530.3
1003.6123	2771.5936	4405.45	3514
1003.7325	2772.7872	4386.55	3496.65
1003.8527	2773.9801	4352.5	3457.1
1003.9729	2775.1723	4358.55	3448.6
1004.093	2776.3639	4348.4	3457.65
1004.2131	2777.5548	4316.9	3423.35
1004.3331	2778.745	4314.95	3421.15
1004.4531	2779.9346	4309.65	3417.25
1004.5731	2781.1235	4289.8	3396.05
1004.693	2782.3117	4281.7	3391.2
1004.8129	2783.4992	4274.5	3382.9
1004.9328	2784.6861	4267	3375.1
1005.0526	2785.8723	4273.6	3379.45
1005.1723	2787.0579	4260.5	3369
1005.2921	2788.2428	4258.65	3368.1
1005.4118	2789.427	4259.05	3367.3
1005.5314	2790.6106	4239.75	3347.7
1005.651	2791.7935	4238.15	3344.95
1005.7706	2792.9757	4232.95	3342.35
1005.8902	2794.1573	4223.25	3332.1
1006.0097	2795.3382	4246.7	3356.35
1006.1291	2796.5184	4230.65	3338.25
1006.2485	2797.698	4241.9	3348.9
1006.3679	2798.8769	4240.2	3347.4
1006.4873	2800.0551	4252.95	3359.15
1006.6066	2801.2327	4234.6	3341.25
1006.7258	2802.4096	4252.7	3361.35
1006.8451	2803.5859	4251.95	3361.1
1006.9642	2804.7615	4269.05	3376.2
1007.0834	2805.9364	4282.5	3393
1007.2025	2807.1106	4291.95	3401.55
1007.3216	2808.2842	4302.4	3410.35
1007.4406	2809.4572	4332.25	3438.05
1007.5596	2810.6294	4379.45	3486.5
1007.6785	2811.801	4371.75	3481.65
1007.7975	2812.972	4417.05	3525.7
1007.9163	2814.1423	4446.75	3557.2
1008.0352	2815.3119	4497.15	3606.45
1008.154	2816.4808	4524.45	3635.95
1008.2727	2817.6491	4576.95	3682.15
1008.3914	2818.8167	4619.85	3728.45
1008.5101	2819.9837	4659.6	3763.6
1008.6288	2821.15	4677.85	3785.55
1008.7474	2822.3157	4711.5	3822.8
1008.8659	2823.4807	4748.2	3857.8
1008.9844	2824.645	4788	3894.9
1009.1029	2825.8086	4816.25	3925.85
1009.2214	2826.9716	4848.55	3957.85
1009.3398	2828.134	4884.3	3994.75
1009.4581	2829.2957	4923.2	4033.7
1009.5764	2830.4567	4932.3	4041.2
1009.6947	2831.617	4943.8	4052.8
1009.813	2832.7767	4929.25	4038.35
1009.9312	2833.9358	4934.75	4043.05
1010.0493	2835.0941	4933	4040.2
1010.1675	2836.2519	4925.55	4033.6
1010.2855	2837.4089	4896.45	4003.55
1010.4036	2838.5653	4883.6	3993.6
1010.5216	2839.7211	4868.15	3978
1010.6396	2840.8761	4862.9	3970.9
1010.7575	2842.0306	4882.5	3991.9
1010.8754	2843.1843	4932.9	4041.5
1010.9932	2844.3374	4949.4	4058.95
1011.111	2845.4899	5011.3	4117.75
1011.2288	2846.6417	5065.95	4174.7
1011.3465	2847.7928	5142.55	4250.9
1011.4642	2848.9433	5210.25	4318.4
1011.5818	2850.0931	5292.5	4401.2
1011.6995	2851.2422	5358.7	4465.15
1011.817	2852.3907	5416.2	4522.75
1011.9345	2853.5385	5469.3	4577.5
1012.052	2854.6857	5543.65	4626.35
1012.1695	2855.8323	5570.6	4679.25
1012.2869	2856.9781	5608.2	4717.75
1012.4042	2858.1233	5651.25	4759.65
1012.5216	2859.2679	5671.6	4780.8
1012.6389	2860.4118	5725.4	4834.2
1012.7561	2861.555	5749.9	4854.7
1012.8733	2862.6976	5747.45	4855.75
1012.9905	2863.8395	5765.15	4875.25
1013.1076	2864.9808	5804.3	4913.7
1013.2247	2866.1214	5799.35	4911.5
1013.3417	2867.2614	5834.3	4944.55
1013.4587	2868.4007	5813.7	4920.5
1013.5757	2869.5393	5809.2	4915.3
1013.6926	2870.6773	5830.1	4934.35
1013.8095	2871.8146	5839.1	4944.75
1013.9263	2872.9513	5835.2	4942.2
1014.0431	2874.0874	5791.3	4899.75
1014.1599	2875.2227	5798.5	4907.4
1014.2766	2876.3574	5763.9	4871.85
1014.3933	2877.4915	5740.35	4850.05
1014.51	2878.6249	5707.2	4816.9
1014.6266	2879.7577	5661.1	4767.75
1014.7431	2880.8898	5644.7	4742.1
1014.8596	2882.0212	5603.4	4711.8
1014.9761	2883.152	5573.65	4683.65
1015.0925	2884.2821	5557.8	4668.25
1015.2089	2885.4116	5546.95	4657.25
1015.3253	2886.5405	5538.9	4646.65
1015.4416	2887.6686	5535.65	4640.15
1015.5579	2888.7962	5532	4641.15
1015.6741	2889.923	5519.95	4629.45
1015.7903	2891.0493	5536.9	4647
1015.9065	2892.1748	5521.25	4629.55
1016.0226	2893.2997	5529.35	4635.25
1016.1387	2894.424	5544.35	4653.7
1016.2547	2895.5476	5563	4670.6
1016.3707	2896.6706	5568.75	4678.15
1016.4866	2897.7929	5575.9	4684.8
1016.6025	2898.9145	5605.4	4713.3
1016.7184	2900.0355	5592.65	4701.05
1016.8342	2901.1559	5646.85	4754.6
1016.95	2902.2756	5686.45	4795.35
1017.0658	2903.3946	5692.95	4801.55
1017.1815	2904.513	5711.75	4818.5
1017.2971	2905.6308	5741.7	4850.55
1017.4127	2906.7479	5746.3	4854.15
1017.5283	2907.8643	5777.05	4885.5
1017.6439	2908.9801	5759.8	4867.5
1017.7594	2910.0953	5767.7	4877.8
1017.8748	2911.2098	5762.35	4867.45
1017.9902	2912.3236	5732	4832.5
1018.1056	2913.4368	5724.35	4829.65
1018.2209	2914.5494	5683.8	4792.35
1018.3362	2915.6613	5662.1	4765.7
1018.4515	2916.7725	5624.15	4729.4
1018.5667	2917.8831	5610.55	4718.1
1018.6819	2918.9931	5568.7	4675.6
1018.797	2920.1024	5534.7	4644.1
1018.9121	2921.211	5483.65	4591.35
1019.0271	2922.319	5475.05	4584.2
1019.1421	2923.4264	5443.45	4552.05
1019.2571	2924.5331	5421.05	4531.15
1019.372	2925.6391	5407.05	4517.15
1019.4869	2926.7445	5382.25	4492.7
1019.6017	2927.8493	5360.6	4468.45
1019.7165	2928.9534	5346.65	4455.6
1019.8313	2930.0569	5344.25	4449
1019.946	2931.1597	5323.35	4428.8
1020.0606	2932.2619	5321.8	4431.35
1020.1753	2933.3634	5299.5	4410
1020.2899	2934.4643	5289.65	4392.6
1020.4044	2935.5645	5256.35	4359.45
1020.5189	2936.6641	5234.65	4338.65
1020.6334	2937.763	5164	4273.7
1020.7478	2938.8613	5091.35	4200.1
1020.8622	2939.959	5035.9	4139.1
1020.9765	2941.056	4930.05	4038.05
1021.0908	2942.1523	4863.75	3973.05
1021.2051	2943.248	4762.25	3870.85
1021.3193	2944.3431	4674.25	3783.75
1021.4334	2945.4375	4561.75	3670.05
1021.5476	2946.5313	4450.9	3560.75
1021.6617	2947.6244	4338	3447.15
1021.7757	2948.7169	4235.4	3342.85
1021.8897	2949.8087	4140.2	3248.65
1022.0037	2950.8999	4012.9	3120.55
1022.1176	2951.9904	3940.4	3050.35
1022.2315	2953.0803	3870	2978.65
1022.3453	2954.1696	3774.05	2880.5
1022.4591	2955.2582	3720.75	2831.05
1022.5728	2956.3462	3673.85	2782
1022.6865	2957.4335	3627.45	2735.85
1022.8002	2958.5202	3582.9	2690.55
1022.9138	2959.6062	3545.15	2653.7
1023.0274	2960.6916	3529.15	2638.7
1023.141	2961.7764	3503.55	2612.1
1023.2545	2962.8605	3460.85	2569.05
1023.3679	2963.9439	3437.3	2546.95
1023.4813	2965.0267	3430.3	2537.3
1023.5947	2966.1089	3430.75	2515.85
1023.708	2967.1905	3403.1	2512.7
1023.8213	2968.2714	3389.4	2498.3
1023.9346	2969.3516	3384.7	2494.55
1024.0478	2970.4312	3376.65	2477.75
1024.1609	2971.5102	3365.15	2476.55
1024.274	2972.5885	3355.3	2464.2
1024.3871	2973.6662	3372.75	2478.2
1024.5002	2974.7432	3351.5	2461.85
1024.6132	2975.8196	3339.3	2448.05
1024.7261	2976.8954	3320.45	2430.75
1024.839	2977.9705	3310.6	2419.45
1024.9519	2979.045	3287.4	2396.95
1025.0647	2980.1188	3255	2365.95
1025.1775	2981.192	3225.2	2335.65
1025.2902	2982.2645	3198.55	2306.95
1025.4029	2983.3364	3181.5	2290.45
1025.5156	2984.4077	3136.35	2246.65
1025.6282	2985.4783	3107.55	2212.6
1025.7407	2986.5483	3066.3	2176.6
1025.8532	2987.6177	3025.4	2137.1
1025.9657	2988.6864	2986.55	2096.4
1026.0782	2989.7545	2965.45	2074.1
1026.1906	2990.8219	2903.75	2014.4
1026.3029	2991.8887	2885.65	1992.15
1026.4152	2992.9548	2860.1	1966.4
1026.5275	2994.0204	2817.1	1925.2
1026.6397	2995.0852	2768.3	1879.55
1026.7519	2996.1495	2746.1	1853.95
1026.864	2997.2131	2723.8	1832
1026.9761	2998.276	2692.1	1799.65
1027.0882	2999.3383	2672.4	1779.95
1027.2002	3000.4	2642.65	1750.45
1027.3122	3001.4611	2619.1	1727.25
1027.4241	3002.5215	2593.9	1702.8
1027.536	3003.5812	2573.8	1683.5
1027.6478	3004.6404	2585.9	1694.7
1027.7596	3005.6989	2553.7	1662.95
1027.8714	3006.7567	2541.9	1651.05
1027.9831	3007.8139	2558.4	1644.55
1028.0947	3008.8705	2520.85	1628.1
1028.2064	3009.9264	2530.6	1623.4
1028.3179	3010.9818	2501.75	1610.95
1028.4295	3012.0364	2485.5	1594.2
1028.541	3013.0905	2480.45	1589.4
1028.6524	3014.1439	2475.4	1584.1
1028.7638	3015.1966	2471.55	1580.4
1028.8752	3016.2487	2455.4	1564.85
1028.9865	3017.3002	2467.45	1569.6
1029.0978	3018.3511	2456.25	1567.35
1029.209	3019.4013	2447.3	1556.7
1029.3202	3020.4509	2448.95	1558.9
1029.4314	3021.4998	2448	1557.45
1029.5425	3022.5481	2442.05	1552.55
1029.6535	3023.5958	2438.75	1548.3
1029.7645	3024.6428	2429.85	1537.5
1029.8755	3025.6892	2438.05	1548.2
1029.9864	3026.735	2428.4	1538.9
1030.0973	3027.7802	2423.35	1531
1030.2082	3028.8247	2417.05	1526.5
1030.319	3029.8685	2420.35	1531.75
1030.4297	3030.9118	2425.05	1533.25
1030.5404	3031.9544	2414.5	1523
1030.6511	3032.9963	2416.7	1525.7
1030.7617	3034.0376	2412.9	1523.1
1030.8723	3035.0783	2416.95	1521.5
1030.9829	3036.1184	2406.3	1514
1031.0934	3037.1578	2413.65	1523.75
1031.2038	3038.1966	2420.5	1526.8
1031.3142	3039.2348	2415.35	1527.3
1031.4246	3040.2723	2400.75	1501.4
1031.5349	3041.3092	2394.55	1504.2
1031.6452	3042.3455	2381.5	1492.15
1031.7554	3043.3811	2375.25	1483.85
1031.8656	3044.4161	2364.8	1473.2
1031.9758	3045.4505	2359.1	1469.85
1032.0859	3046.4842	2343.35	1452.45
1032.1959	3047.5173	2334.7	1445
1032.3059	3048.5498	2322.3	1433.1
1032.4159	3049.5816	2325.15	1432.8
1032.5258	3050.6128	2311.05	1418.4
1032.6357	3051.6434	2300.15	1407.9
1032.7455	3052.6734	2295.1	1402.55
1032.8553	3053.7027	2283.8	1391.7
1032.9651	3054.7314	2271.6	1382.25
1033.0748	3055.7594	2255.4	1366.85
1033.1845	3056.7868	2243.5	1350.45
1033.2941	3057.8136	2234.1	1343.45
1033.4037	3058.8398	2232.05	1339.9
1033.5132	3059.8653	2228.05	1337.2
1033.6227	3060.8902	2204.7	1313.05
1033.7321	3061.9145	2205.7	1316.2
1033.8415	3062.9381	2195.85	1305.4
1033.9509	3063.9612	2196.35	1289.8
1034.0602	3064.9835	2177.95	1288.55
1034.1694	3066.0053	2169.9	1279.2
1034.2787	3067.0264	2156.7	1265.8
1034.3878	3068.0469	2142.3	1249.55
1034.497	3069.0668	2134.55	1240.25
1034.6061	3070.086	2119.55	1230.9
1034.7151	3071.1046	2108.7	1218.65
1034.8241	3072.1226	2091.45	1197.2
1034.9331	3073.1399	2083.6	1192.4
1035.042	3074.1567	2065.55	1174.55
1035.1508	3075.1727	2059.15	1169.15
1035.2597	3076.1882	2054.05	1165.6
1035.3684	3077.203	2034.55	1143.6
1035.4772	3078.2173	2024.4	1133.1
1035.5859	3079.2308	2014.5	1120.65
1035.6945	3080.2438	2000.7	1109.45
1035.8031	3081.2561	1981.45	1089.8
1035.9117	3082.2678	1974.65	1083.8
1036.0202	3083.2789	1961.65	1072
1036.1286	3084.2893	1961.1	1071.65
1036.2371	3085.2991	1946.75	1056.05
1036.3454	3086.3083	1940.65	1044.5
1036.4538	3087.3169	1933.45	1040.7
1036.562	3088.3248	1917.45	1025.55
1036.6703	3089.3321	1910.5	1017
1036.7785	3090.3388	1900.55	1010.25
1036.8866	3091.3449	1893.45	1004
1036.9948	3092.3503	1884.2	989.35
1037.1028	3093.3551	1885.25	996.55
1037.2108	3094.3593	1882.65	995.95
1037.3188	3095.3629	1863.1	972.95
1037.4267	3096.3658	1866.35	974.55
1037.5346	3097.3681	1860.5	968.4
1037.6425	3098.3698	1847.85	953.75
1037.7503	3099.3708	1846.55	949.1
1037.858	3100.3713	1833.2	943
1037.9657	3101.3711	1831.8	940.85
1038.0734	3102.3702	1935.6	930.8
1038.181	3103.3688	1826.6	934.2
1038.2886	3104.3667	1815.75	926.9
1038.3961	3105.364	1809.3	917.5
1038.5036	3106.3607	1802.8	910.8
1038.611	3107.3568	1796.1	902.8
1038.7184	3108.3522	1785.65	894.9
1038.8257	3109.347	1785.85	892.85
1038.933	3110.3412	1781	886.7
1039.0403	3111.3348	1774.3	884.15
1039.1475	3112.3277	1763.45	873.75
1039.2547	3113.32	1752	863.15
1039.3618	3114.3117	1759.25	869.9
1039.4689	3115.3028	1751.8	861.65
1039.5759	3116.2932	1753.15	859.8
1039.6829	3117.2831	1744.25	846.9
1039.7898	3118.2723	1726	835.95
1039.8967	3119.2608	1718.45	827.9
1040.0035	3120.2488	1715.6	825.15
1040.1103	3121.2361	1716.9	826.65
1040.2171	3122.2229	1713.6	823.25
1040.3238	3123.209	1707.35	817
1040.4305	3124.1944	1704	814.75
1040.5371	3125.1793	1706.25	813.4
1040.6437	3126.1635	1696.05	805.3
1040.7502	3127.1471	1696.75	806.55
1040.8567	3128.1301	1689.75	798.4
1040.9631	3129.1125	1679.5	788.6
1041.0695	3130.0942	1684.3	793.8
1041.1759	3131.0753	1685.95	788.1
1041.2822	3132.0558	1670.05	778.65
1041.3884	3133.0357	1669.4	778.15
1041.4946	3134.015	1658.6	767.2
1041.6008	3134.9936	1667.7	776.5
1041.7069	3135.9716	1673.15	763.65
1041.813	3136.949	1655.5	764.7
1041.919	3137.9258	1650.15	753.95
1042.025	3138.902	1643.85	748.5
1042.1309	3139.8775	1643	753.9
1042.2368	3140.8524	1634.25	743.1
1042.3427	3141.8267	1644.1	751.15
1042.4485	3142.8004	1638.9	748.2
1042.5542	3143.7735	1642.25	748.2
1042.6599	3144.7459	1626.05	735.35
1042.7656	3145.7178	1624.9	732.7
1042.8712	3146.689	1619.55	729.65
1042.9768	3147.6596	1611.5	720.55
1043.0823	3148.6295	1615.7	725.4
1043.1878	3149.5989	1601.85	711.95
1043.2932	3150.5676	1597	708.5
1043.3986	3151.5357	1595.85	705.45
1043.5039	3152.5032	1592.25	703.3
1043.6092	3153.4701	1582.45	693.15
1043.7145	3154.4364	1590.75	698.35
1043.8197	3155.402	1578.65	688.75
1043.9248	3156.367	1568.8	676.9
1044.03	3157.3315	1608.55	682.5
1044.135	3158.2952	1570.75	680.3
1044.24	3159.2584	1559.05	669.8
1044.345	3160.221	1561.95	672.5
1044.4499	3161.1829	1554.15	663.5
1044.5548	3162.1442	1544.55	652.95
1044.6596	3163.105	1544.05	653.75
1044.7644	3164.065	1536.25	644.55
1044.8692	3165.0245	1539.8	644.4
1044.9739	3165.9834	1533.6	643.5
1045.0785	3166.9416	1535.4	644.45
1045.1831	3167.8993	1524.7	634.1
1045.2877	3168.8563	1523	633.6
1045.3922	3169.8127	1517.7	627.2
1045.4966	3170.7684	1519.45	630.7
1045.6011	3171.7236	1511.95	620.05
1045.7054	3172.6782	1515.5	624.5
1045.8098	3173.6321	1510.85	620.4
1045.914	3174.5854	1508.85	612.05
1046.0183	3175.5381	1503.4	612.05
1046.1224	3176.4902	1498.05	606.6
1046.2266	3177.4417	1490.5	603.6
1046.3307	3178.3926	1487.6	597.1
1046.4347	3179.3428	1489	600.15
1046.5387	3180.2924	1480.8	591.25
1046.6427	3181.2415	1479.8	590.05
1046.7466	3182.1899	1476.8	585.5
1046.8504	3183.1377	1472.4	584.15
1046.9542	3184.0848	1470.25	576.1
1047.058	3185.0314	1470.7	579.7
1047.1617	3185.9773	1459.55	568.75
1047.2654	3186.9227	1468.6	577.4
1047.369	3187.8674	1459.6	567.4
1047.4726	3188.8115	1457.5	564.85
1047.5761	3189.755	1452	560.05
1047.6796	3190.6979	1448.5	557.95
1047.783	3191.6402	1445	556.25
1047.8864	3192.5818	1440.7	551.75
1047.9898	3193.5229	1458.35	542.6
1048.0931	3194.4633	1440.85	551.05
1048.1963	3195.4031	1431.7	541.5
1048.2995	3196.3423	1424.9	535.55
1048.4027	3197.2809	1426.7	537.05
1048.5058	3198.2189	1431.8	540.6
1048.6089	3199.1563	1435.4	530.65
1048.7119	3200.0931	1424.5	533.75
1048.8148	3201.0292	1410.95	522.5
1048.9178	3201.9648	1407.15	514.75
1049.0206	3202.8997	1412.8	519.6
1049.1235	3203.834	1401.05	511.15
1049.2262	3204.7677	1407.6	519.85
1049.329	3205.7008	1404.95	513.65
1049.4317	3206.6333	1398.55	510.3
1049.5343	3207.5652	1396.3	503.9
1049.6369	3208.4964	1399.25	508.9
1049.7394	3209.4271	1399.55	510.7
1049.8419	3210.3571	1391.5	501.25
1049.9444	3211.2865	1400	508.6
1050.0468	3212.2154	1380.7	490.25
1050.1491	3213.1436	1395.65	503.3
1050.2514	3214.0712	1385	489.3
1050.3537	3214.9982	1382.35	492.05
1050.4559	3215.9246	1375.2	484.7
1050.5581	3216.8503	1369	479.55
1050.6602	3217.7755	1377.5	486.4
1050.7623	3218.7001	1372.55	482.7
1050.8643	3219.624	1364	473.7
1050.9663	3220.5473	1366.15	476.45
1051.0682	3221.4701	1360.2	468.35
1051.1701	3222.3922	1358.4	465.75
1051.2719	3223.3137	1363.1	472.5
1051.3737	3224.2346	1361.5	471.45
1051.4754	3225.1549	1351.1	462.65
1051.5771	3226.0746	1344.95	455.9
1051.6788	3226.9937	1345.25	454.25
1051.7804	3227.9121	1345.25	456.35
1051.8819	3228.83	1341.6	452
1051.9834	3229.7473	1342.05	451.8
1052.0849	3230.6639	1336.75	447.2
1052.1863	3231.5799	1333.65	445.05
1052.2876	3232.4954	1334.2	443.15
1052.3889	3233.4102	1329.8	440.35
1052.4902	3234.3244	1328.6	438.4
1052.5914	3235.238	1325.1	436.1
1052.6926	3236.151	1346.05	433.4
1052.7937	3237.0634	1322.35	432.25
1052.8948	3237.9752	1315	424.35
1052.9958	3238.8864	1316.55	427.8
1053.0968	3239.797	1314.1	425.1
1053.1977	3240.7069	1311.9	422
1053.2986	3241.6163	1312	420.1
1053.3994	3242.5251	1299.75	409.25
1053.5002	3243.4332	1305.95	416.4
1053.6009	3244.3408	1301.6	409.95
1053.7016	3245.2477	1294.35	405.75
1053.8022	3246.154	1290.55	400.45
1053.9028	3247.0598	1296.65	404.65
1054.0034	3247.9649	1284.45	395.5
1054.1039	3248.8694	1296.15	406.25
1054.2043	3249.7733	1282.05	393.2
1054.3047	3250.6766	1283.65	394.25
1054.4051	3251.5793	1276.25	383.75
1054.5054	3252.4814	1283.15	394.5
1054.6056	3253.3829	1276.15	386.45
1054.7058	3254.2838	1271.9	382.35
1054.806	3255.1841	1268.55	379.75
1054.9061	3256.0838	1268.75	380.05
1055.0061	3256.9829	1261.2	371.65
1055.1062	3257.8814	1255.75	362.6
1055.2061	3258.7792	1263	370.95
1055.306	3259.6765	1256.25	367.35
1055.4059	3260.5731	1246.6	356.45
1055.5057	3261.4692	1241.4	350.35
1055.6055	3262.3647	1236.2	345.4
1055.7052	3263.2595	1233.25	344.15
1055.8049	3264.1538	1233.3	344.85
1055.9045	3265.0474	1226.75	335.4
1056.0041	3265.9404	1219.2	329.9
1056.1036	3266.8329	1212.6	324.2
1056.2031	3267.7247	1219.45	319.6
1056.3025	3268.616	1201	313.15
1056.4019	3269.5066	1195.7	307.15
1056.5013	3270.3966	1191.6	298.15
1056.6005	3271.286	1176.95	288.5
