Software Version:	3.9.2.0
Unit SN:	10000200
Spectrometer SN:	6960
Date:	3/6/2024 10:28:27 AM
Data Line Index:	25
Spectral Points:	2048
Integration time (ms):	125
Averages:	20
Delay (ms):	30
Sequence Number:	1
Processing:	dark subtract
Laser Power (mW):	300
Laser Current (mA):	825
Laser Diode Temp (C):	25.1
Laser Case Temp (C):	26.1
System Temp (C):	25.9
Spectrometer Temp (C):	23.3
CCD Temp (C):	0.004
Secondary Temp (C):	20.01
Heatsink Temp (C):	21.49
CCDPCB Temp (C):	35.462
SecondaryPCB Temp (C):	29.171

Wavelength	RamanShift	Raw Counts	Dark Subtracted
787.061	30.1047	1094.85	684.75
787.2016	32.3739	1121.05	710.35
787.3422	34.6426	1163.05	751.75
787.4828	36.9109	1208.75	796.85
787.6235	39.1787	1261.6	842.7
787.7642	41.4461	1327	906.3
787.9049	43.7131	1374.2	949.35
788.0456	45.9796	1442.4	1012.6
788.1863	48.2456	1509.35	1077.85
788.3271	50.5112	1569.35	1133.8
788.4679	52.7764	1630.4	1193.05
788.6087	55.0411	1712.4	1270.45
788.7496	57.3054	1788.55	1339.4
788.8904	59.5692	1875.3	1426.05
789.0313	61.8326	1966.95	1514.7
789.1722	64.0955	2071.8	1616.1
789.3132	66.3579	2196.35	1735.95
789.4541	68.6199	2327.3	1863.35
789.5951	70.8815	2574.55	2105.95
789.7361	73.1426	3087.85	2614.55
789.8771	75.4032	4385.4	3907.75
790.0181	77.6634	7712.35	7230.4
790.1592	79.9231	16458.05	15970.4
790.3003	82.1824	52674.95	52175.45
790.4414	84.4412	65535	65014.95
790.5825	86.6995	65535	64986.55
790.7237	88.9574	65535	64964.25
790.8648	91.2148	65535	64942.6
791.006	93.4717	65535	64934
791.1472	95.7282	65535	64925.05
791.2885	97.9842	65535	64924
791.4297	100.2398	65535	64918.9
791.571	102.4949	65535	64913.5
791.7123	104.7495	65535	64910.45
791.8536	107.0036	65535	64913.25
791.9949	109.2573	65535	64913.6
792.1363	111.5105	65535	64909.2
792.2777	113.7632	65535	64910
792.4191	116.0154	65535	64900.65
792.5605	118.2672	65535	64904.45
792.7019	120.5185	65535	64904.95
792.8434	122.7693	65535	64897.4
792.9849	125.0197	65535	64896.8
793.1264	127.2696	65535	64891.5
793.2679	129.519	65535	64887.7
793.4094	131.7679	65535	64887.75
793.551	134.0163	65535	64883.65
793.6926	136.2642	65535	64883.65
793.8342	138.5117	65535	64871.2
793.9758	140.7587	65535	64879.05
794.1175	143.0052	65535	64870.55
794.2591	145.2512	65535	64871.1
794.4008	147.4967	65535	64870.5
794.5425	149.7417	65535	64871.15
794.6842	151.9863	65535	64864.55
794.826	154.2304	65535	64864.25
794.9677	156.4739	65535	64857.6
795.1095	158.717	65535	64858.15
795.2513	160.9596	65535	64849.1
795.3931	163.2017	65535	64853.3
795.535	165.4433	65535	64848.9
795.6768	167.6844	65535	64847.8
795.8187	169.925	65535	64843.3
795.9606	172.1651	65535	64841.3
796.1025	174.4047	65535	64839.1
796.2445	176.6439	65535	64834.75
796.3864	178.8825	65535	64831
796.5284	181.1206	65535	64831
796.6704	183.3582	65535	64825.1
796.8124	185.5954	65535	64823.8
796.9544	187.832	65535	64819.7
797.0965	190.0681	65535	64820.35
797.2386	192.3037	65535	64814.15
797.3806	194.5388	65535	64813.4
797.5228	196.7734	65535	64812.15
797.6649	199.0075	65535	64803.8
797.807	201.2411	65535	64808.95
797.9492	203.4742	65535	64807.2
798.0914	205.7068	65535	64804.1
798.2336	207.9389	65535	64801.2
798.3758	210.1704	65535	64803.15
798.518	212.4015	65535	64809.9
798.6603	214.632	65535	64812.95
798.8025	216.862	65535	64825.3
798.9448	219.0915	65535	64821.45
799.0871	221.3205	65535	64817.65
799.2294	223.549	65535	64822.85
799.3718	225.777	65535	64823.7
799.5141	228.0044	65535	64816.25
799.6565	230.2314	65535	64815.1
799.7989	232.4578	65535	64813.3
799.9413	234.6837	65535	64804.2
800.0837	236.909	65535	64801.95
800.2262	239.1339	65535	64774
800.3687	241.3582	65535	64790.25
800.5111	243.582	65535	64763.1
800.6536	245.8053	65535	64772.45
800.7961	248.0281	65535	64779.55
800.9387	250.2503	65535	64777.35
801.0812	252.472	65535	64771.8
801.2238	254.6932	65535	64773.45
801.3664	256.9139	65535	64775.85
801.509	259.134	65535	64770.05
801.6516	261.3536	65535	64770.6
801.7942	263.5727	65535	64769.3
801.9369	265.7912	65535	64768.5
802.0795	268.0092	65535	64767.75
802.2222	270.2267	65535	64767.7
802.3649	272.4436	65535	64769.2
802.5076	274.6601	65535	64759.95
802.6504	276.8759	65535	64759.65
802.7931	279.0913	65535	64758.3
802.9359	281.3061	65535	64756.5
803.0787	283.5204	65535	64757.5
803.2215	285.7341	65535	64752.05
803.3643	287.9473	65535	64741.6
803.5071	290.16	65535	64747.9
803.6499	292.3721	65535	64755.95
803.7928	294.5837	65535	64754.7
803.9357	296.7947	65535	64755
804.0786	299.0052	65535	64755.85
804.2215	301.2152	65535	64749.05
804.3644	303.4246	65535	64756.7
804.5074	305.6334	65535	64752.4
804.6503	307.8418	65535	64748
804.7933	310.0495	65535	64745.2
804.9363	312.2568	65535	64747.85
805.0793	314.4635	65535	64745.35
805.2223	316.6696	65535	64743.05
805.3653	318.8752	65535	64737.5
805.5084	321.0802	65535	64745.7
805.6514	323.2847	65535	64741.35
805.7945	325.4887	65535	64743.35
805.9376	327.692	65535	64738.45
806.0807	329.8949	65535	64738.8
806.2238	332.0972	65535	64738.4
806.367	334.2989	65535	64730.9
806.5101	336.5001	65535	64732.05
806.6533	338.7007	65535	64733.75
806.7965	340.9008	65535	64732.55
806.9397	343.1003	65535	64727.8
807.0829	345.2992	65535	64729.1
807.2261	347.4976	65535	64726.4
807.3693	349.6955	65535	64724.75
807.5126	351.8927	65535	64724.1
807.6559	354.0895	65535	64707.15
807.7991	356.2856	65535	64721.35
807.9424	358.4812	65535	64721.4
808.0857	360.6763	65535	64721.6
808.2291	362.8707	65535	64717.6
808.3724	365.0646	65535	64715.2
808.5158	367.258	65535	64714.1
808.6591	369.4508	65535	64709.5
808.8025	371.643	65535	64708.2
808.9459	373.8346	65535	64710.25
809.0893	376.0257	65535	64704.15
809.2327	378.2162	65535	64704.9
809.3762	380.4062	65535	64707.4
809.5196	382.5956	65535	64705.7
809.6631	384.7844	65535	64709.3
809.8066	386.9726	65535	64710.05
809.9501	389.1603	65535	64712.5
810.0936	391.3474	65535	64671.85
810.2371	393.5339	65535	64714.65
810.3806	395.7199	65535	64713.7
810.5241	397.9052	65535	64714.8
810.6677	400.09	65535	64711.1
810.8113	402.2743	65535	64715.5
810.9548	404.4579	65535	64714.85
811.0984	406.641	65535	64712.05
811.2421	408.8235	65535	64708.3
811.3857	411.0054	65535	64711.25
811.5293	413.1868	65535	64704.8
811.673	415.3675	65535	64703.95
811.8166	417.5477	65535	64699.35
811.9603	419.7273	65535	64694.5
812.104	421.9064	65535	64691.65
812.2477	424.0848	65535	64695.4
812.3914	426.2627	65535	64691.9
812.5351	428.4399	65535	64692.6
812.6788	430.6166	65535	64692.7
812.8226	432.7928	65535	64686.6
812.9663	434.9683	65535	64688.45
813.1101	437.1432	65535	64683.85
813.2539	439.3176	65535	64686.45
813.3977	441.4914	65535	64690.25
813.5415	443.6645	65535	64687.7
813.6853	445.8371	65535	64690.3
813.8291	448.0091	65535	64691.7
813.973	450.1806	65535	64690.2
814.1168	452.3514	65535	64688.25
814.2607	454.5216	65535	64679.4
814.4046	456.6913	65535	64683.55
814.5485	458.8603	65535	64684.85
814.6924	461.0288	65535	64689.4
814.8363	463.1967	65535	64689.15
814.9802	465.3639	65535	64686.2
815.1241	467.5306	65535	64683.95
815.2681	469.6967	65535	64686.55
815.412	471.8622	65535	64686.65
815.556	474.0271	65535	64687.15
815.7	476.1914	65535	64680.15
815.844	478.3551	65535	64682.8
815.988	480.5182	65535	64682.85
816.132	482.6807	65535	64683.5
816.276	484.8426	65535	64685.75
816.4201	487.0039	65535	64679
816.5641	489.1647	65535	64679.7
816.7082	491.3248	65535	64680.4
816.8522	493.4843	65535	64682.1
816.9963	495.6432	65535	64678.15
817.1404	497.8015	65535	64675.45
817.2845	499.9592	65535	64675.8
817.4286	502.1163	65535	64675.1
817.5727	504.2728	65535	64675.05
817.7168	506.4287	65535	64679.05
817.861	508.5839	65535	64678.4
818.0051	510.7386	65535	64675.3
818.1493	512.8927	65535	64669.25
818.2935	515.0461	65535	64670.95
818.4377	517.199	65535	64674.45
818.5818	519.3512	65535	64671.5
818.726	521.5029	65535	64668.65
818.8703	523.6539	65535	64670.65
819.0145	525.8043	65535	64672.25
819.1587	527.9541	65535	64668.8
819.303	530.1033	65535	64671.2
819.4472	532.2519	65535	64670.5
819.5915	534.3999	65535	64670.3
819.7357	536.5472	65535	64670.4
819.88	538.694	65535	64667.85
820.0243	540.8401	65535	64670.65
820.1686	542.9856	65535	64668.15
820.3129	545.1305	65535	64667.1
820.4572	547.2748	65535	64664.3
820.6016	549.4185	65535	64666.75
820.7459	551.5615	65535	64668.05
820.8902	553.704	65535	64666.55
821.0346	555.8458	65535	64667.9
821.1789	557.987	65535	64666.85
821.3233	560.1276	65535	64662.25
821.4677	562.2675	65535	64667.25
821.6121	564.4069	65535	64665.25
821.7565	566.5456	65535	64667.9
821.9009	568.6837	65535	64661.7
822.0453	570.8212	65535	64665.65
822.1897	572.958	65535	64657.4
822.3342	575.0942	65535	64664.2
822.4786	577.2299	65535	64660.3
822.6231	579.3648	65535	64664.6
822.7675	581.4992	65535	64667.95
822.912	583.6329	65535	64667.9
823.0565	585.766	65535	64666.75
823.201	587.8985	65535	64662.7
823.3454	590.0304	65535	64640.4
823.4899	592.1616	65535	64656.9
823.6345	594.2922	65535	64660.15
823.779	596.4222	65535	64659.7
823.9235	598.5515	65535	64657.6
824.068	600.6802	65535	64660.7
824.2126	602.8083	65535	64661.9
824.3571	604.9358	65535	64656.4
824.5017	607.0626	65535	64652.55
824.6462	609.1888	65535	64657.55
824.7908	611.3144	65535	64654.75
824.9354	613.4393	65535	64657.5
825.08	615.5636	65535	64656.25
825.2246	617.6873	65535	64658.1
825.3692	619.8103	65535	64655.85
825.5138	621.9327	65535	64653
825.6584	624.0544	65535	64655.75
825.803	626.1756	65535	64655.75
825.9477	628.2961	65535	64652.65
826.0923	630.4159	65535	64652.95
826.237	632.5351	65535	64654.25
826.3816	634.6537	65535	64655.35
826.5263	636.7716	65535	64656.9
826.6709	638.8889	65535	64649
826.8156	641.0056	65535	64648.85
826.9603	643.1216	65535	64651.15
827.105	645.237	65535	64650.2
827.2497	647.3518	65535	64649.05
827.3944	649.4659	65535	64652.95
827.5391	651.5793	65535	64652.5
827.6838	653.6922	65535	64653.4
827.8285	655.8043	65535	64652.4
827.9733	657.9159	65535	64646.85
828.118	660.0268	65535	64648.3
828.2627	662.137	65535	64650.6
828.4075	664.2466	65535	64647.35
828.5522	666.3556	65535	64645.85
828.697	668.4639	65535	64646.75
828.8418	670.5716	65535	64653.5
828.9865	672.6786	65535	64647.5
829.1313	674.785	65535	64647.75
829.2761	676.8907	65535	64648.9
829.4209	678.9958	65535	64651.1
829.5657	681.1002	65535	64649.05
829.7105	683.204	65535	64642.8
829.8553	685.3072	65535	64645.15
830.0001	687.4097	65535	64644.65
830.1449	689.5115	65535	64643.55
830.2898	691.6127	65535	64648.3
830.4346	693.7132	65535	64647
830.5794	695.8131	65535	64634.5
830.7243	697.9123	65535	64644.05
830.8691	700.0109	65535	64646.4
831.014	702.1089	65535	64647.75
831.1588	704.2061	65535	64646.55
831.3037	706.3028	65535	64642.7
831.4486	708.3987	65535	64643.3
831.5935	710.4941	65535	64643
831.7383	712.5887	65535	64640.35
831.8832	714.6827	65535	64640.2
832.0281	716.7761	65535	64644.75
832.173	718.8688	65535	64642.8
832.3179	720.9608	65535	64640.05
832.4628	723.0522	65535	64637
832.6077	725.1429	65535	64640.55
832.7527	727.233	65535	64638.05
832.8976	729.3224	65535	64642.7
833.0425	731.4112	65535	64642.7
833.1874	733.4993	65535	64640.5
833.3324	735.5867	65535	64639.95
833.4773	737.6735	65535	64639.15
833.6222	739.7596	65535	64639.5
833.7672	741.845	65535	64639.1
833.9122	743.9298	65535	64640.85
834.0571	746.014	65535	64639.9
834.2021	748.0974	65535	64639.95
834.347	750.1802	65535	64639.35
834.492	752.2624	65535	64641.05
834.637	754.3439	65535	64636.75
834.782	756.4247	65535	64628.8
834.9269	758.5048	65535	64640.05
835.0719	760.5843	65535	64640.65
835.2169	762.6631	65535	64637.75
835.3619	764.7413	65535	64641.1
835.5069	766.8188	65535	64635.2
835.6519	768.8956	65535	64635
835.7969	770.9718	65535	64640.1
835.9419	773.0473	65535	64640.85
836.0869	775.1221	65535	64638.55
836.232	777.1962	65535	64638.55
836.377	779.2697	65535	64636.95
836.522	781.3426	65535	64617.45
836.667	783.4147	65535	64638.15
836.8121	785.4862	65535	64639.6
836.9571	787.557	65535	64637.9
837.1021	789.6271	65535	64637.75
837.2472	791.6966	65535	64638.6
837.3922	793.7654	65535	64637.7
837.5373	795.8335	65535	64637.1
837.6823	797.901	65535	64639.65
837.8274	799.9678	65535	64638.15
837.9724	802.0339	65535	64637.1
838.1175	804.0993	65535	64627.05
838.2626	806.1641	65535	64636.25
838.4076	808.2282	65535	64636.1
838.5527	810.2916	65535	64632.45
838.6978	812.3544	65535	64637.05
838.8428	814.4164	65535	64637.85
838.9879	816.4778	65535	64635.75
839.133	818.5385	65535	64636.7
839.2781	820.5986	65535	64636.3
839.4232	822.658	65535	64635.95
839.5682	824.7166	65535	64635.7
839.7133	826.7747	65535	64636.9
839.8584	828.832	65535	64633
840.0035	830.8886	65535	64633.6
840.1486	832.9446	65535	64636.85
840.2937	834.9999	65535	64637.25
840.4388	837.0545	65535	64630.8
840.5839	839.1085	65535	64636.9
840.729	841.1618	65535	64632.3
840.8741	843.2143	65535	64637.55
841.0192	845.2662	65535	64636
841.1643	847.3175	65535	64639.15
841.3095	849.368	65535	64632.5
841.4546	851.4179	65535	64636.35
841.5997	853.467	65535	64634.5
841.7448	855.5155	65535	64635.75
841.8899	857.5633	65535	64636.4
842.0351	859.6105	65535	64634.55
842.1802	861.6569	65535	64631.05
842.3253	863.7027	65535	64632.45
842.4704	865.7478	65535	64630.6
842.6156	867.7922	65535	64633.9
842.7607	869.8359	65535	64633.7
842.9058	871.8789	65535	64632.25
843.0509	873.9212	65535	64600.6
843.1961	875.9629	65535	64634.1
843.3412	878.0039	65535	64634.2
843.4863	880.0441	65535	64633
843.6315	882.0837	65535	64631.85
843.7766	884.1226	65535	64631.1
843.9218	886.1609	65535	64633.35
844.0669	888.1984	65535	64632.85
844.212	890.2352	65535	64630.25
844.3572	892.2714	65535	64627.55
844.5023	894.3069	65535	64629.4
844.6475	896.3416	65535	64631.8
844.7926	898.3757	65535	64631.35
844.9377	900.4091	65535	64631.8
845.0829	902.4418	65535	64624.65
845.228	904.4739	65535	64630.25
845.3732	906.5052	65535	64630.05
845.5183	908.5358	65535	64630.1
845.6635	910.5658	65535	64632.3
845.8086	912.595	65535	64632.25
845.9538	914.6236	65535	64632.95
846.0989	916.6515	65535	64632.8
846.2441	918.6786	65535	64629.35
846.3892	920.7051	65535	64629.3
846.5344	922.7309	65535	64630.3
846.6795	924.756	65535	64633.5
846.8246	926.7804	65535	64633.55
846.9698	928.8041	65535	64624.85
847.1149	930.8272	65535	64631.95
847.2601	932.8495	65535	64628.35
847.4052	934.8711	65535	64631.5
847.5504	936.892	65535	64632.6
847.6955	938.9123	65535	64630.4
847.8407	940.9318	65535	64630.85
847.9858	942.9506	65535	64630.1
848.131	944.9688	65535	64631
848.2761	946.9862	65535	64631.25
848.4213	949.003	65535	64630.25
848.5664	951.019	65535	64633.95
848.7115	953.0344	65535	64628.4
848.8567	955.0491	65535	64627.45
849.0018	957.063	65535	64629.15
849.147	959.0763	65535	64630.6
849.2921	961.0888	65535	64630.8
849.4373	963.1007	65535	64628.55
849.5824	965.1119	65535	64633.15
849.7275	967.1223	65535	64630.45
849.8727	969.1321	65535	64633
850.0178	971.1412	65535	64633.6
850.1629	973.1495	65535	64635.05
850.3081	975.1572	65535	64599.65
850.4532	977.1641	65535	64633.1
850.5983	979.1704	65535	64627.55
850.7435	981.1759	65535	64628.75
850.8886	983.1808	65535	64631.25
851.0337	985.1849	65535	64616.15
851.1788	987.1884	65535	64629.55
851.324	989.1911	65535	64625.2
851.4691	991.1932	65535	64630.25
851.6142	993.1945	65535	64633
851.7593	995.1951	65535	64628.25
851.9045	997.1951	65535	64626.75
852.0496	999.1943	65535	64631.3
852.1947	1001.1928	65535	64630.8
852.3398	1003.1906	65535	64632.05
852.4849	1005.1877	65535	64629.1
852.63	1007.1841	65535	64629.5
852.7751	1009.1798	65535	64629.5
852.9202	1011.1748	65535	64629.5
853.0653	1013.1691	65535	64630.35
853.2104	1015.1627	65535	64630.65
853.3555	1017.1556	65535	64630.85
853.5006	1019.1477	65535	64632.05
853.6457	1021.1392	65535	64632.8
853.7908	1023.1299	65535	64632.75
853.9359	1025.12	65535	64628.85
854.081	1027.1093	65535	64635.95
854.2261	1029.0979	65535	64635.85
854.3712	1031.0859	65535	64635.45
854.5163	1033.0731	65535	64631.65
854.6613	1035.0596	65535	64630.6
854.8064	1037.0454	65535	64632.65
854.9515	1039.0304	65535	64629.25
855.0965	1041.0148	65535	64632.55
855.2416	1042.9985	65535	64632.45
855.3867	1044.9814	65535	64631.25
855.5317	1046.9636	65535	64629.25
855.6768	1048.9452	65535	64632.1
855.8219	1050.926	65535	64632.7
855.9669	1052.9061	65535	64634.45
856.112	1054.8855	65535	64630.15
856.257	1056.8642	65535	64630.9
856.4021	1058.8421	65535	64627.2
856.5471	1060.8194	65535	64628.9
856.6921	1062.7959	65535	64630.15
856.8372	1064.7717	65535	64630.85
856.9822	1066.7469	65535	64632.05
857.1272	1068.7213	65535	64628.4
857.2723	1070.695	65535	64632.25
857.4173	1072.6679	65535	64631.7
857.5623	1074.6402	65535	64631.55
857.7073	1076.6117	65535	64627.1
857.8523	1078.5826	65535	64627.35
857.9973	1080.5527	65535	64626.85
858.1423	1082.5221	65535	64629.5
858.2873	1084.4908	65535	64631.4
858.4323	1086.4587	65535	64631.6
858.5773	1088.426	65535	64631.65
858.7223	1090.3925	65535	64624.65
858.8673	1092.3584	65535	64631.8
859.0123	1094.3235	65535	64630.4
859.1573	1096.2879	65535	64629.75
859.3022	1098.2515	65535	64631.15
859.4472	1100.2145	65535	64631.4
859.5922	1102.1767	65535	64627.35
859.7371	1104.1382	65535	64629.8
859.8821	1106.099	65535	64629.45
860.027	1108.0591	65535	64632.05
860.172	1110.0185	65535	64628.25
860.3169	1111.9771	65535	64632.05
860.4619	1113.9351	65535	64630.8
860.6068	1115.8923	65535	64632.45
860.7517	1117.8488	65535	64629.55
860.8967	1119.8045	65535	64630.95
861.0416	1121.7596	65535	64631.8
861.1865	1123.7139	65535	64632.05
861.3314	1125.6675	65535	64631.25
861.4763	1127.6204	65535	64629.6
861.6212	1129.5726	65535	64630.15
861.7661	1131.524	65535	64631.75
861.911	1133.4748	65535	64631.9
862.0559	1135.4248	65535	64631.05
862.2008	1137.3741	65535	64631.3
862.3457	1139.3226	65535	64630.95
862.4905	1141.2705	65535	64628.5
862.6354	1143.2176	65535	64627.7
862.7803	1145.164	65535	64629.05
862.9251	1147.1097	65535	64631.65
863.07	1149.0546	65535	64630.3
863.2148	1150.9989	65535	64630.8
863.3597	1152.9424	65535	64631.05
863.5045	1154.8852	65535	64629.2
863.6493	1156.8272	65535	64633.25
863.7942	1158.7686	65535	64625.5
863.939	1160.7092	65535	64628.8
864.0838	1162.6491	65535	64629.1
864.2286	1164.5883	65535	64633.1
864.3734	1166.5267	65535	64631.15
864.5182	1168.4644	65535	64630.3
864.663	1170.4014	65535	64628.25
864.8078	1172.3377	65535	64633.45
864.9526	1174.2732	65535	64632
865.0974	1176.2081	65535	64632.35
865.2421	1178.1421	65535	64624.85
865.3869	1180.0755	65535	64631.15
865.5317	1182.0082	65535	64631.45
865.6764	1183.9401	65535	64631.8
865.8212	1185.8713	65535	64631.1
865.9659	1187.8017	65535	64631.35
866.1106	1189.7315	65535	64634.2
866.2554	1191.6605	65535	64607.1
866.4001	1193.5888	65535	64634.25
866.5448	1195.5163	65535	64634.3
866.6895	1197.4432	65535	64634.25
866.8342	1199.3693	65535	64633.05
866.9789	1201.2947	65535	64629.65
867.1236	1203.2193	65535	64632.15
867.2683	1205.1432	65535	64631.15
867.413	1207.0664	65535	64630.7
867.5576	1208.9889	65535	64629.25
867.7023	1210.9106	65535	64632.55
867.847	1212.8316	65535	64635.4
867.9916	1214.7519	65535	64622.35
868.1363	1216.6715	65535	64632.55
868.2809	1218.5903	65535	64632
868.4255	1220.5084	65535	64631.4
868.5701	1222.4257	65535	64631.45
868.7148	1224.3424	65535	64635.4
868.8594	1226.2583	65535	64627.65
869.004	1228.1735	65535	64630.5
869.1486	1230.0879	65535	64630.4
869.2932	1232.0016	65535	64630.2
869.4377	1233.9146	65535	64629.1
869.5823	1235.8269	65535	64633.7
869.7269	1237.7384	65535	64631.45
869.8715	1239.6492	65535	64633.25
870.016	1241.5592	65535	64629.75
870.1606	1243.4686	65535	64633
870.3051	1245.3772	65535	64633.45
870.4496	1247.285	65535	64630.75
870.5941	1249.1922	65535	64632.45
870.7387	1251.0986	65535	64631.85
870.8832	1253.0042	65535	64631.5
871.0277	1254.9092	65535	64633.15
871.1722	1256.8134	65535	64633.4
871.3167	1258.7169	65535	64631.8
871.4611	1260.6196	65535	64631
871.6056	1262.5216	65535	64631.65
871.7501	1264.4229	65535	64634.1
871.8945	1266.3234	65535	64632.35
872.039	1268.2232	65535	64631.7
872.1834	1270.1223	65535	64629.4
872.3278	1272.0207	65535	64633.4
872.4723	1273.9183	65535	64628.05
872.6167	1275.8151	65535	64631.65
872.7611	1277.7113	65535	64633.3
872.9055	1279.6067	65535	64629.75
873.0499	1281.5014	65535	64629.85
873.1943	1283.3953	65535	64629.65
873.3386	1285.2885	65535	64630.7
873.483	1287.181	65535	64633.2
873.6274	1289.0727	65535	64634.4
873.7717	1290.9637	65535	64631.65
873.9161	1292.854	65535	64633.5
874.0604	1294.7435	65535	64630.85
874.2047	1296.6323	65535	64632.5
874.349	1298.5204	65535	64629.25
874.4933	1300.4077	65535	64631.55
874.6376	1302.2943	65535	64633.4
874.7819	1304.1802	65535	64631.9
874.9262	1306.0653	65535	64631.85
875.0705	1307.9497	65535	64632.6
875.2147	1309.8333	65535	64633.7
875.359	1311.7162	65535	64633.55
875.5032	1313.5984	65535	64632.6
875.6475	1315.4798	65535	64633.3
875.7917	1317.3605	65535	64615
875.9359	1319.2405	65535	64632.05
876.0801	1321.1197	65535	64631.2
876.2243	1322.9982	65535	64627.85
876.3685	1324.876	65535	64634.8
876.5127	1326.753	65535	64632.85
876.6569	1328.6293	65535	64628.35
876.801	1330.5048	65535	64630.7
876.9452	1332.3796	65535	64630.85
877.0893	1334.2537	65535	64609.1
877.2335	1336.127	65535	64632.8
877.3776	1337.9996	65535	64632.1
877.5217	1339.8714	65535	64632
877.6658	1341.7426	65535	64587.15
877.8099	1343.6129	65535	64632.75
877.954	1345.4826	65535	64631.8
878.0981	1347.3515	65535	64630.15
878.2422	1349.2196	65535	64629.8
878.3862	1351.087	65535	64631.45
878.5303	1352.9537	65535	64633.3
878.6743	1354.8197	65535	64631.25
878.8184	1356.6849	65535	64632.7
878.9624	1358.5493	65535	64632.25
879.1064	1360.4131	65535	64629.35
879.2504	1362.276	65535	64635.1
879.3944	1364.1383	65535	64633.7
879.5384	1365.9998	65535	64626.75
879.6823	1367.8606	65535	64630.65
879.8263	1369.7206	65535	64631
879.9702	1371.5799	65535	64630.5
880.1142	1373.4384	65535	64633.45
880.2581	1375.2962	65535	64632.7
880.402	1377.1533	65535	64633.8
880.5459	1379.0096	65535	64631.8
880.6898	1380.8652	65535	64632.6
880.8337	1382.7201	65535	64633.3
880.9776	1384.5742	65535	64632.05
881.1215	1386.4275	65535	64631.05
881.2653	1388.2802	65535	64634.6
881.4092	1390.132	65535	64632.25
881.553	1391.9832	65535	64631.05
881.6968	1393.8336	65535	64633.15
881.8406	1395.6832	65535	64632.05
881.9844	1397.5322	65535	64631.6
882.1282	1399.3803	65535	64628.8
882.272	1401.2278	65535	64631.15
882.4158	1403.0745	65535	64634.7
882.5595	1404.9204	65535	64632.3
882.7033	1406.7656	65535	64632.35
882.847	1408.6101	65535	64631.25
882.9908	1410.4538	65535	64633.75
883.1345	1412.2968	65535	64634.55
883.2782	1414.139	65535	64632.45
883.4219	1415.9805	65535	64633.95
883.5656	1417.8213	65535	64626.7
883.7092	1419.6613	65535	64632.75
883.8529	1421.5006	65535	64631.65
883.9965	1423.3391	65535	64632.55
884.1402	1425.1769	65535	64633.05
884.2838	1427.0139	65535	64631.15
884.4274	1428.8502	65535	64633.8
884.571	1430.6858	65535	64633.95
884.7146	1432.5206	65535	64633.35
884.8582	1434.3547	65535	64632.9
885.0018	1436.188	65535	64634
885.1453	1438.0206	65535	64634.5
885.2889	1439.8524	65535	64634.25
885.4324	1441.6835	65535	64633.3
885.5759	1443.5139	65535	64629.45
885.7194	1445.3435	65535	64633.2
885.8629	1447.1724	65535	64634.35
886.0064	1449.0005	65535	64634.65
886.1499	1450.8279	65535	64632.65
886.2933	1452.6545	65535	64632.3
886.4368	1454.4804	65535	64632.7
886.5802	1456.3056	65535	64625.6
886.7237	1458.13	65535	64632.8
886.8671	1459.9536	65535	64632.35
887.0105	1461.7766	65535	64636.65
887.1539	1463.5987	65535	64632.95
887.2972	1465.4202	65535	64633.8
887.4406	1467.2409	65535	64632.6
887.584	1469.0608	65535	64634.85
887.7273	1470.88	65535	64632.8
887.8706	1472.6984	65535	64634.15
888.0139	1474.5161	65535	64629.75
888.1572	1476.3331	65535	64635.8
888.3005	1478.1493	65535	64634
888.4438	1479.9648	65535	64633.75
888.5871	1481.7795	65535	64634.5
888.7303	1483.5935	65535	64635.35
888.8736	1485.4067	65535	64634.3
889.0168	1487.2192	65535	64632
889.16	1489.031	65535	64631.75
889.3032	1490.842	65535	64634.75
889.4464	1492.6522	65535	64634.35
889.5896	1494.4618	65535	64634.8
889.7327	1496.2705	65535	64631.4
889.8759	1498.0785	65535	64633.45
890.019	1499.8858	65535	64633.9
890.1622	1501.6924	65535	64636
890.3053	1503.4981	65535	64636.45
890.4484	1505.3032	65535	64632.35
890.5914	1507.1075	65535	64636.1
890.7345	1508.911	65535	64633.05
890.8776	1510.7138	65535	64634.45
891.0206	1512.5159	65535	64633.65
891.1637	1514.3172	65535	64635.5
891.3067	1516.1178	65535	64636.7
891.4497	1517.9176	65535	64632.75
891.5927	1519.7166	65535	64633.95
891.7357	1521.515	65535	64628.6
891.8786	1523.3126	65535	64633
892.0216	1525.1094	65535	64632.9
892.1645	1526.9055	65535	64635.5
892.3074	1528.7008	65535	64632.65
892.4503	1530.4954	65535	64635
892.5932	1532.2893	65535	64639.35
892.7361	1534.0824	65535	64629.9
892.879	1535.8747	65535	64635.85
893.0218	1537.6663	65535	64635.25
893.1647	1539.4572	65535	64632.45
893.3075	1541.2473	65535	64636.5
893.4503	1543.0367	65535	64636.3
893.5931	1544.8253	65535	64631.3
893.7359	1546.6132	65535	64631.2
893.8787	1548.4003	65535	64628.1
894.0214	1550.1867	65535	64626.2
894.1642	1551.9723	65535	64632.05
894.3069	1553.7572	65535	64633.1
894.4496	1555.5414	65535	64635.9
894.5923	1557.3247	65535	64636.25
894.735	1559.1074	65535	64638.95
894.8777	1560.8893	65535	64638.15
895.0204	1562.6705	65535	64635.95
895.163	1564.4509	65535	64637.1
895.3056	1566.2305	65535	64636.85
895.4482	1568.0094	65535	64638.65
895.5908	1569.7876	65535	64635.85
895.7334	1571.565	65535	64636.9
895.876	1573.3417	65535	64639.05
896.0186	1575.1176	65535	64636.25
896.1611	1576.8928	65535	64638.2
896.3036	1578.6672	65535	64639.3
896.4461	1580.4409	65535	64641.05
896.5886	1582.2138	65535	64635.5
896.7311	1583.986	65535	64638.6
896.8736	1585.7575	65535	64638.2
897.0161	1587.5282	65535	64637.3
897.1585	1589.2981	65535	64638
897.3009	1591.0673	65535	64638.9
897.4433	1592.8358	65535	64639.75
897.5857	1594.6035	65535	64635.6
897.7281	1596.3704	65535	64636.6
897.8705	1598.1366	65535	64639.05
898.0128	1599.9021	65535	64640.4
898.1551	1601.6668	65535	64638.75
898.2975	1603.4308	65535	64639.2
898.4398	1605.194	65535	64634.7
898.5821	1606.9564	65535	64641.2
898.7243	1608.7182	65535	64637.45
898.8666	1610.4791	65535	64639.9
899.0088	1612.2394	65535	64640.95
899.1511	1613.9988	65535	64640.25
899.2933	1615.7576	65535	64639.25
899.4355	1617.5156	65535	64632
899.5776	1619.2728	65535	64637.95
899.7198	1621.0293	65535	64639.95
899.862	1622.785	65535	64635.3
900.0041	1624.54	65535	64637
900.1462	1626.2942	65535	64637.4
900.2883	1628.0477	65535	64635.35
900.4304	1629.8005	65535	64634.7
900.5725	1631.5525	65535	64639.95
900.7145	1633.3037	65535	64640.05
900.8566	1635.0542	65535	64640.15
900.9986	1636.804	65535	64639.4
901.1406	1638.553	65535	64553.15
901.2826	1640.3013	65535	64637.95
901.4245	1642.0488	65535	64639.1
901.5665	1643.7955	65535	64641.15
901.7085	1645.5416	65535	64639.15
901.8504	1647.2868	65535	64640.5
901.9923	1649.0313	65535	64640.9
902.1342	1650.7751	65535	64635.35
902.2761	1652.5181	65535	64638.6
902.4179	1654.2604	65535	64639.75
902.5598	1656.0019	65535	64640.8
902.7016	1657.7427	65535	64640.1
902.8434	1659.4828	65535	64639.15
902.9852	1661.222	65535	64638.6
903.127	1662.9606	65535	64642.3
903.2687	1664.6984	65535	64641.1
903.4105	1666.4354	65535	64637.95
903.5522	1668.1717	65535	64641.5
903.6939	1669.9072	65529.35	64634.1
903.8356	1671.642	65533.55	64638.3
903.9773	1673.3761	65531.2	64637.6
904.119	1675.1094	65529.95	64635.25
904.2606	1676.8419	65506.25	64612.55
904.4022	1678.5737	65521.55	64628.75
904.5439	1680.3048	65513.3	64618.65
904.6855	1682.0351	65492.35	64598.2
904.827	1683.7646	65465.7	64568.85
904.9686	1685.4934	65510.5	64617.1
905.1101	1687.2215	65400.6	64505.15
905.2517	1688.9488	65489.6	64596.25
905.3932	1690.6754	65283.85	64389.45
905.5347	1692.4012	65405.95	64513.5
905.6761	1694.1263	65425.25	64531.1
905.8176	1695.8506	65329.2	64435.35
905.9591	1697.5742	65359.65	64468.35
906.1005	1699.297	65326.7	64432.05
906.2419	1701.0191	65365.85	64472.45
906.3833	1702.7404	65208.9	64314.2
906.5246	1704.461	65145	64249.25
906.666	1706.1808	65286.35	64390.3
906.8073	1707.8999	65218.8	64323.55
906.9487	1709.6182	65179.4	64285.15
907.09	1711.3358	65144.35	64249.4
907.2313	1713.0527	65112.4	64221
907.3725	1714.7688	65137.2	64239.55
907.5138	1716.4841	64883.35	63989.45
907.655	1718.1987	65002.7	64104.9
907.7962	1719.9126	64929.65	64038.8
907.9374	1721.6257	65002.15	64107.2
908.0786	1723.338	65000.65	64105.2
908.2198	1725.0496	64617.8	63724.7
908.3609	1726.7605	64710.8	63817.45
908.502	1728.4706	64537.4	63644.8
908.6431	1730.18	64759.15	63865.6
908.7842	1731.8886	64515.55	63622.55
908.9253	1733.5964	64385.05	63487.8
909.0664	1735.3036	64700.5	63804.5
909.2074	1737.0099	64477.8	63584.3
909.3484	1738.7156	64238	63345.35
909.4894	1740.4204	64167	63272.5
909.6304	1742.1246	64300.95	63407.7
909.7714	1743.8279	64338	63444.3
909.9123	1745.5306	64255.2	63363.35
910.0532	1747.2325	63471.45	62577.8
910.1941	1748.9336	63499.5	62606.55
910.335	1750.634	63759.35	62865.35
910.4759	1752.3336	63980.65	63088.85
910.6168	1754.0325	63411.05	62521.7
910.7576	1755.7307	63965.05	63074.35
910.8984	1757.4281	63190.25	62298.4
911.0392	1759.1247	63775.5	62875.55
911.18	1760.8206	62955.9	62056.45
911.3208	1762.5158	63057.7	62160.55
911.4615	1764.2102	63262.2	62371.4
911.6022	1765.9039	63104.9	62211.55
911.7429	1767.5968	62897.4	62004.35
911.8836	1769.289	62830.35	61937.1
912.0243	1770.9804	62992.1	62098.35
912.1649	1772.6711	62793.15	61897.75
912.3056	1774.361	62632.95	61739.65
912.4462	1776.0502	62680.7	61785.45
912.5868	1777.7386	61954.85	61057.75
912.7274	1779.4263	62369.15	61476.1
912.8679	1781.1132	62323.25	61432.1
913.0084	1782.7994	62224.55	61330.4
913.149	1784.4849	62257.75	61365.5
913.2895	1786.1696	61377	60479.4
913.4299	1787.8535	61934	61043.25
913.5704	1789.5367	62037.55	61145.9
913.7108	1791.2192	61471	60578.35
913.8513	1792.9009	61118.55	60193.55
913.9917	1794.5818	61570.7	60677.25
914.132	1796.2621	61067	60177.3
914.2724	1797.9415	61141.5	60247.65
914.4128	1799.6202	61069.2	60176.1
914.5531	1801.2982	61106.45	60213.7
914.6934	1802.9755	60479.35	59586.75
914.8337	1804.6519	60254.25	59359.6
914.9739	1806.3277	61099.95	60210.55
915.1142	1808.0027	59809.2	58918.35
915.2544	1809.6769	60258.1	59364.45
915.3946	1811.3504	60397.5	59504
915.5348	1813.0231	59370.05	58476.2
915.675	1814.6951	59991.55	59100.6
915.8151	1816.3664	59641.45	58746.75
915.9553	1818.0369	59698.75	58805.25
916.0954	1819.7067	59413.1	58521.1
916.2355	1821.3757	59932.05	59038.65
916.3755	1823.044	59108.05	58215.65
916.5156	1824.7115	58708.45	57815.55
916.6556	1826.3783	58970.85	58079.3
916.7956	1828.0443	58973.3	58082.65
916.9356	1829.7096	58682.35	57789.4
917.0756	1831.3741	58080.45	57186.2
917.2155	1833.0379	58410.75	57517.6
917.3555	1834.701	58372.6	57480.15
917.4954	1836.3633	57816.95	56924.75
917.6353	1838.0248	58169.7	57276.25
917.7751	1839.6856	58016.55	57124.05
917.915	1841.3457	57451.9	56561.4
918.0548	1843.005	58038.7	57146.1
918.1946	1844.6636	57642.15	56751.8
918.3344	1846.3214	56964.65	56073.65
918.4742	1847.9785	57127.6	56235.6
918.6139	1849.6349	57035.5	56142.55
918.7537	1851.2904	57482.65	56579.35
918.8934	1852.9453	56687.5	55794.9
919.0331	1854.5994	56967.7	56073.05
919.1727	1856.2528	56982.2	56085.4
919.3124	1857.9054	56487.25	55594.95
919.452	1859.5572	56219.85	55328.45
919.5916	1861.2083	56427.6	55535.8
919.7312	1862.8587	56907.55	56017.35
919.8708	1864.5084	55586.85	54694.05
920.0103	1866.1572	56140.35	55248.65
920.1498	1867.8054	55438.45	54545.5
920.2893	1869.4528	55843.9	54950.6
920.4288	1871.0994	55228.9	54334.7
920.5683	1872.7453	55228.3	54335.95
920.7077	1874.3905	55404.7	54505.05
920.8471	1876.0349	54842.1	53949.85
920.9865	1877.6786	55219.1	54326.65
921.1259	1879.3215	54764.95	53873.55
921.2653	1880.9637	55226.45	54333.65
921.4046	1882.6051	54715.95	53824.65
921.5439	1884.2458	54423.15	53528.1
921.6832	1885.8858	54110.6	53220
921.8225	1887.525	54338.9	53445.8
921.9617	1889.1634	54133.8	53242.65
922.101	1890.8011	53953.1	53059.2
922.2402	1892.4381	53389.9	52496.85
922.3794	1894.0743	53854.45	52963.75
922.5185	1895.7098	53544	52652.7
922.6577	1897.3446	53214.75	52321.65
922.7968	1898.9786	53295.45	52400.65
922.9359	1900.6118	53009.85	52119.85
923.075	1902.2443	52654.4	51758.7
923.214	1903.8761	52884.25	51991.8
923.3531	1905.5071	52529.05	51635.4
923.4921	1907.1374	51944.95	51055.6
923.6311	1908.7669	52176.25	51286.75
923.77	1910.3957	52344.95	51453.45
923.909	1912.0237	51745.65	50853.4
924.0479	1913.651	51591.85	50699.45
924.1868	1915.2776	51406	50514.65
924.3257	1916.9034	51344	50454.05
924.4646	1918.5285	51133.7	50240.9
924.6034	1920.1528	50945.6	50052.75
924.7422	1921.7764	50865.2	49973.95
924.881	1923.3992	50670.85	49779.85
925.0198	1925.0213	50320.15	49429.75
925.1586	1926.6427	49995.55	49102.8
925.2973	1928.2633	50140.95	49167.4
925.436	1929.8832	49938.3	49045.35
925.5747	1931.5023	49739.3	48848.4
925.7134	1933.1207	49455.55	48565.7
925.852	1934.7383	49483.05	48591.55
925.9906	1936.3552	49234.75	48344.45
926.1292	1937.9714	49155.3	48263.9
926.2678	1939.5868	49056.9	48160.85
926.4064	1941.2015	48673.3	47780.9
926.5449	1942.8154	48429.95	47538.85
926.6834	1944.4286	48314.2	47422.9
926.8219	1946.041	48123.4	47212.3
926.9604	1947.6528	47897.5	47000.05
927.0988	1949.2637	47790	46898.25
927.2372	1950.8739	47593.45	46701.05
927.3756	1952.4834	47610.8	46720.2
927.514	1954.0921	47530.15	46638.8
927.6523	1955.7001	47193.1	46295.75
927.7907	1957.3074	47123.15	46231.7
927.929	1958.9139	46851.2	45959.85
928.0673	1960.5197	46774.15	45881.9
928.2055	1962.1247	46585.45	45696.75
928.3438	1963.729	46320.95	45433.25
928.482	1965.3325	46200.75	45288.1
928.6202	1966.9353	46092.45	45203.45
928.7584	1968.5374	45884.6	44992.5
928.8965	1970.1387	45722	44832.05
929.0346	1971.7393	45633.85	44741.75
929.1727	1973.3392	45470.75	44579.6
929.3108	1974.9383	45249.7	44357.5
929.4489	1976.5366	45052.15	44162.6
929.5869	1978.1342	45028.05	44138
929.7249	1979.7311	44884.15	43992.95
929.8629	1981.3273	44727.85	43836.65
930.0009	1982.9227	44617.75	43728.4
930.1388	1984.5173	44467.55	43578.05
930.2767	1986.1112	44244.95	43355.6
930.4146	1987.7044	44201.6	43311.75
930.5525	1989.2968	43932.3	43040.15
930.6904	1990.8885	43887.3	42993
930.8282	1992.4795	43793.35	42901.75
930.966	1994.0697	43653.4	42762.5
931.1038	1995.6592	43428.6	42538.55
931.2415	1997.2479	43302	42411.1
931.3793	1998.8359	43177.7	42286.6
931.517	2000.4232	42948.6	42058.35
931.6547	2002.0097	42798.1	41910.7
931.7923	2003.5955	42605.15	41714.4
931.93	2005.1805	42585.4	41692.45
932.0676	2006.7648	42439	41550.1
932.2052	2008.3484	42348.65	41456
932.3427	2009.9312	42363.2	41473.65
932.4803	2011.5133	42158.4	41269.1
932.6178	2013.0946	42028.15	41139.4
932.7553	2014.6752	41905.1	41018.65
932.8928	2016.2551	41822.3	40932.8
933.0302	2017.8342	41612	40722.7
933.1676	2019.4126	41455.65	40565.45
933.305	2020.9902	41301.45	40411.7
933.4424	2022.5672	41196.4	40306
933.5798	2024.1433	41112.05	40216.05
933.7171	2025.7188	40921.45	40030.85
933.8544	2027.2935	40834.45	39943.75
933.9917	2028.8674	40648.65	39761.75
934.129	2030.4406	40583.5	39695.6
934.2662	2032.0131	40382.85	39494.6
934.4034	2033.5849	40247.35	39345.8
934.5406	2035.1559	40213.85	39324.35
934.6778	2036.7261	40130.4	39241.7
934.8149	2038.2957	40011.95	39122.7
934.952	2039.8645	39923.8	39034.45
935.0891	2041.4325	39921.35	39028.7
935.2262	2042.9998	39700.35	38810.3
935.3632	2044.5664	39593.55	38701.75
935.5002	2046.1323	39502.45	38613.8
935.6372	2047.6974	39361.25	38472.85
935.7742	2049.2617	39240.95	38352.75
935.9111	2050.8254	39237.95	38345.75
936.048	2052.3883	39119.8	38228.6
936.1849	2053.9504	38979.45	38089.25
936.3218	2055.5118	38856.7	37966.8
936.4586	2057.0725	38654.9	37762.55
936.5955	2058.6325	38548.35	37658.8
936.7323	2060.1917	38453.8	37565.7
936.869	2061.7502	38381.35	37489.1
937.0058	2063.3079	38195.2	37306.75
937.1425	2064.8649	38041.85	37147.85
937.2792	2066.4212	37994.3	37104.15
937.4159	2067.9767	37866.9	36977.85
937.5525	2069.5315	37713.85	36822.35
937.6891	2071.0856	37502.65	36613.15
937.8257	2072.6389	37392.05	36501.1
937.9623	2074.1915	37201	36314.5
938.0989	2075.7433	37026.85	36134.15
938.2354	2077.2945	36958.5	36068
938.3719	2078.8448	36828.1	35939.1
938.5084	2080.3945	36733.2	35844
938.6448	2081.9434	36679.55	35791.8
938.7812	2083.4916	36551.75	35662.15
938.9176	2085.039	36374.3	35482.05
939.054	2086.5857	36382.85	35491.45
939.1903	2088.1317	36256.15	35362.95
939.3267	2089.677	36148.45	35258.4
939.463	2091.2215	36062.8	35171.85
939.5992	2092.7652	35935.2	35043.35
939.7355	2094.3083	35807.25	34916.3
939.8717	2095.8506	35787.1	34897.9
940.0079	2097.3921	35773.8	34885.7
940.1441	2098.933	35624.5	34734.9
940.2802	2100.4731	35487.95	34596.25
940.4163	2102.0124	35435.65	34538.1
940.5524	2103.5511	35342	34451.55
940.6885	2105.089	35261.3	34371.3
940.8245	2106.6261	35197.05	34306.15
940.9606	2108.1626	35067.15	34174.15
941.0965	2109.6983	35025.45	34106.25
941.2325	2111.2332	34858.25	33967.7
941.3684	2112.7675	34743.4	33851.05
941.5044	2114.301	34661.1	33768.9
941.6403	2115.8337	34618.35	33727.3
941.7761	2117.3657	34470.15	33580.3
941.912	2118.897	34437.05	33545.95
942.0478	2120.4276	34323.1	33427.85
942.1835	2121.9575	34153.9	33263.65
942.3193	2123.4866	34138	33232.65
942.455	2125.0149	33997.15	33105.15
942.5907	2126.5426	33817.3	32928.35
942.7264	2128.0695	33719.85	32826.8
942.8621	2129.5956	33641.2	32751.35
942.9977	2131.1211	33617.55	32722.65
943.1333	2132.6458	33486.5	32597.05
943.2689	2134.1698	33396.9	32505.2
943.4044	2135.693	33325.6	32432.65
943.54	2137.2155	33269.45	32376
943.6755	2138.7373	33159.3	32267.35
943.8109	2140.2584	33057.45	32167.5
943.9464	2141.7787	32965.65	32069.95
944.0818	2143.2983	32793.2	31902.85
944.2172	2144.8171	32639.05	31752.15
944.3526	2146.3353	32556.55	31664.6
944.4879	2147.8527	32419.65	31530.6
944.6232	2149.3693	32421.9	31532.1
944.7585	2150.8853	32253.4	31363.05
944.8938	2152.4005	32051.2	31161.05
945.029	2153.9149	32029.55	31137.8
945.1642	2155.4287	31922.45	31032.3
945.2994	2156.9417	31846.85	30953.75
945.4346	2158.454	31740.45	30847.55
945.5697	2159.9655	31675.55	30785.55
945.7048	2161.4764	31596.7	30707.95
945.8399	2162.9865	31513.1	30623.85
945.9749	2164.4958	31466.15	30576.5
946.1099	2166.0045	31311.05	30416.35
946.2449	2167.5124	31314.65	30424.3
946.3799	2169.0195	31173.65	30283.7
946.5148	2170.526	31100.75	30210.1
946.6498	2172.0317	31037.55	30147.2
946.7846	2173.5367	30939.75	30049.2
946.9195	2175.0409	30874.4	29983.85
947.0543	2176.5445	30832.8	29941.45
947.1891	2178.0473	30722.35	29832.25
947.3239	2179.5494	30570	29677.55
947.4587	2181.0507	30417.95	29527.3
947.5934	2182.5513	30387.35	29497.5
947.7281	2184.0512	30314.75	29425.6
947.8628	2185.5504	30156.8	29268.1
947.9974	2187.0488	29972.2	29082.15
948.132	2188.5465	29889.65	28999.8
948.2666	2190.0435	29772.2	28883.3
948.4012	2191.5397	29621.6	28732.95
948.5357	2193.0353	29595.35	28703.65
948.6702	2194.5301	29429.15	28536.05
948.8047	2196.0241	29355.95	28464.75
948.9392	2197.5175	29264.05	28374.1
949.0736	2199.0101	29115.25	28221.6
949.208	2200.502	28979.5	28090.5
949.3424	2201.9931	28860.6	27971.85
949.4767	2203.4835	28788.1	27897.45
949.611	2204.9733	28739.95	27843.3
949.7453	2206.4622	28709.3	27820.55
949.8796	2207.9505	28574.4	27681.15
950.0138	2209.438	28399.85	27510.65
950.148	2210.9248	28369.5	27478.6
950.2822	2212.4109	28252.25	27364.35
950.4164	2213.8962	28106.05	27213.05
950.5505	2215.3809	28092.1	27199.9
950.6846	2216.8648	28031.1	27140.55
950.8186	2218.3479	27908.2	27015.15
950.9527	2219.8304	27778.6	26885.55
951.0867	2221.3121	27705.55	26813.2
951.2207	2222.7931	27593.65	26703.95
951.3546	2224.2733	27489.15	26598
951.4886	2225.7529	27412.15	26521.85
951.6225	2227.2317	27285.6	26393.2
951.7563	2228.7098	27258.7	26369.35
951.8902	2230.1872	27094.5	26205.65
952.024	2231.6638	27087.95	26197.8
952.1578	2233.1397	26950.45	26054.1
952.2916	2234.6149	26875.95	25986.45
952.4253	2236.0894	26781.1	25890.4
952.559	2237.5632	26712.5	25819.7
952.6927	2239.0362	26622.9	25733.15
952.8263	2240.5085	26539.65	25649.65
952.9599	2241.9801	26425.25	25535.85
953.0935	2243.4509	26376.45	25487.2
953.2271	2244.921	26261.7	25370.6
953.3606	2246.3904	26135.2	25243.2
953.4941	2247.8591	26071.65	25182.3
953.6276	2249.3271	25946.65	25058.9
953.7611	2250.7943	25876.6	24987.85
953.8945	2252.2608	25800	24910.8
954.0279	2253.7266	25733.85	24844.85
954.1612	2255.1917	25652.3	24761.5
954.2946	2256.656	25556.1	24665.6
954.4279	2258.1197	25483.4	24593.35
954.5612	2259.5826	25447.9	24557.7
954.6944	2261.0447	25388.2	24497.75
954.8276	2262.5062	25271.95	24379.25
954.9608	2263.9669	25217.9	24325.5
955.094	2265.4269	25104.45	24215.5
955.2271	2266.8862	25061.7	24171.2
955.3602	2268.3448	24975.5	24084.45
955.4933	2269.8026	24914.6	24023.85
955.6264	2271.2598	24859.25	23969.25
955.7594	2272.7162	24728.5	23838.05
955.8924	2274.1719	24677.8	23788.75
956.0253	2275.6268	24620.75	23731.1
956.1583	2277.0811	24530.75	23640.1
956.2912	2278.5346	24461.55	23572.75
956.4241	2279.9874	24437.45	23546.6
956.5569	2281.4395	24367.65	23479.65
956.6897	2282.8908	24244.55	23350.55
956.8225	2284.3414	24246	23356.55
956.9553	2285.7914	24139.05	23248.35
957.088	2287.2406	24043.6	23151.75
957.2207	2288.689	23994.55	23105
957.3534	2290.1368	23890.5	22997.6
957.486	2291.5838	23795.8	22903.4
957.6186	2293.0302	23731.7	22840.85
957.7512	2294.4758	23640	22748.9
957.8838	2295.9206	23573.85	22680.7
958.0163	2297.3648	23497.6	22606.5
958.1488	2298.8082	23484.5	22593.6
958.2813	2300.251	23362.75	22472.3
958.4137	2301.693	23275.9	22384.3
958.5461	2303.1343	23279.95	22387.6
958.6785	2304.5748	23165.2	22275.15
958.8108	2306.0147	23086.1	22196.7
958.9432	2307.4538	23008.35	22116.45
959.0754	2308.8922	22920.15	22033.15
959.2077	2310.3299	22855.15	21965.75
959.3399	2311.7669	22773	21884.3
959.4721	2313.2031	22711.1	21820.85
959.6043	2314.6387	22612.7	21724
959.7365	2316.0735	22529.15	21639.05
959.8686	2317.5076	22507.9	21617.75
960.0006	2318.941	22461.2	21570.95
960.1327	2320.3737	22403.25	21512.35
960.2647	2321.8056	22288.7	21397.05
960.3967	2323.2369	22221.45	21331.95
960.5287	2324.6674	22187.05	21295.5
960.6606	2326.0972	22083.55	21190.4
960.7925	2327.5263	21984	21095.6
960.9244	2328.9547	21918.45	21027.6
961.0562	2330.3823	21854.95	20963.1
961.1881	2331.8092	21787.95	20894.25
961.3198	2333.2355	21733.1	20841.3
961.4516	2334.661	21714.15	20824.2
961.5833	2336.0858	21642.3	20750.25
961.715	2337.5098	21559.45	20669.4
961.8467	2338.9332	21521.35	20631.1
961.9783	2340.3558	21426.4	20533.3
962.1099	2341.7778	21331.7	20441.7
962.2415	2343.199	21317.25	20425.25
962.373	2344.6195	21192	20301.05
962.5045	2346.0393	21175.65	20288.15
962.636	2347.4583	21139.9	20251.05
962.7675	2348.8767	21000.05	20110.05
962.8989	2350.2943	20948.3	20058
963.0303	2351.7113	20914.9	20022.3
963.1617	2353.1275	20823.55	19932.4
963.293	2354.543	20778.5	19878.4
963.4243	2355.9578	20726.8	19836.45
963.5556	2357.3718	20571.25	19682
963.6868	2358.7852	20516.9	19625
963.818	2360.1978	20400.4	19509.3
963.9492	2361.6098	20363.85	19474.8
964.0803	2363.021	20302.6	19411.05
964.2114	2364.4315	20236	19344.8
964.3425	2365.8413	20179.95	19287.85
964.4736	2367.2504	20120.95	19230.95
964.6046	2368.6587	19976.9	19084.95
964.7356	2370.0664	19931.65	19041.9
964.8666	2371.4733	19895.75	19004.5
964.9975	2372.8795	19811.7	18922.4
965.1284	2374.285	19753.75	18863.5
965.2593	2375.6899	19657.35	18769.15
965.3901	2377.0939	19560	18669.05
965.5209	2378.4973	19518.05	18629.6
965.6517	2379.9	19428.1	18537.25
965.7825	2381.3019	19325.35	18434.3
965.9132	2382.7032	19282.35	18391.35
966.0439	2384.1037	19274.55	18387.75
966.1745	2385.5035	19218.85	18330.8
966.3051	2386.9027	19097.7	18209.4
966.4357	2388.3011	19051.3	18158.45
966.5663	2389.6987	18970.1	18081
966.6968	2391.0957	18930	18041.3
966.8273	2392.492	18797	17909.3
966.9578	2393.8876	18685.95	17794.95
967.0882	2395.2824	18639.5	17751.35
967.2186	2396.6765	18561.4	17672.25
967.349	2398.07	18504.95	17616.7
967.4793	2399.4627	18468.4	17578.8
967.6097	2400.8547	18408.6	17518.25
967.7399	2402.246	18366.8	17471.3
967.8702	2403.6366	18246.7	17357.05
968.0004	2405.0265	18134.45	17245.3
968.1306	2406.4156	18047.45	17152.75
968.2607	2407.8041	18009.7	17117
968.3909	2409.1918	17955	17063.1
968.521	2410.5789	17877.5	16986.55
968.651	2411.9652	17793.85	16901.6
968.781	2413.3508	17767.5	16876.9
968.911	2414.7358	17657.35	16766.7
969.041	2416.12	17643.85	16754.25
969.1709	2417.5035	17586.45	16697.2
969.3008	2418.8863	17495.9	16605.2
969.4307	2420.2684	17486.85	16597.8
969.5606	2421.6497	17377.05	16487
969.6904	2423.0304	17258.5	16371.6
969.8201	2424.4104	17237.05	16347.2
969.9499	2425.7896	17137.35	16247.85
970.0796	2427.1682	17105.55	16217.55
970.2093	2428.546	17077.2	16186.55
970.3389	2429.9232	17025.1	16133.95
970.4685	2431.2996	16983.4	16094.15
970.5981	2432.6753	16974.3	16083.45
970.7277	2434.0503	16913.95	16025.4
970.8572	2435.4246	16821.75	15932.55
970.9867	2436.7982	16716.85	15826.9
971.1161	2438.1711	16672.4	15783.1
971.2456	2439.5433	16614.9	15723.45
971.375	2440.9148	16530.85	15634.5
971.5043	2442.2856	16506.55	15615.2
971.6336	2443.6557	16458.75	15566.05
971.7629	2445.025	16376.2	15486.4
971.8922	2446.3937	16346.85	15456.5
972.0214	2447.7617	16261.7	15370.8
972.1506	2449.1289	16259.8	15369.95
972.2798	2450.4955	16203.95	15309.05
972.4089	2451.8613	16141	15253.8
972.538	2453.2265	16114.9	15224.4
972.6671	2454.5909	16058.8	15169.2
972.7961	2455.9546	16006.15	15117.05
972.9251	2457.3177	15949.45	15062.15
973.0541	2458.68	15871.85	14980.55
973.1831	2460.0416	15869	14979.6
973.312	2461.4025	15848.95	14958.65
973.4408	2462.7627	15773.45	14874.6
973.5697	2464.1222	15740.15	14851.2
973.6985	2465.4811	15675.45	14786.8
973.8273	2466.8392	15624.05	14733.1
973.956	2468.1966	15574.25	14681.9
974.0847	2469.5533	15586.6	14694.1
974.2134	2470.9093	15542.75	14653
974.3421	2472.2645	15488.2	14599.25
974.4707	2473.6191	15437.3	14548.15
974.5993	2474.973	15329.15	14439.3
974.7278	2476.3262	15298.5	14405.95
974.8563	2477.6787	15225.6	14336.15
974.9848	2479.0305	15110.9	14221.8
975.1132	2480.3816	15084.15	14193.95
975.2417	2481.7319	15019.3	14128.25
975.37	2483.0816	14966.2	14074.9
975.4984	2484.4306	14936.9	14045.85
975.6267	2485.7789	14878.9	13990.8
975.755	2487.1264	14814	13921.7
975.8833	2488.4733	14718.85	13830.6
976.0115	2489.8195	14691.4	13795.85
976.1397	2491.165	14637.05	13744.55
976.2678	2492.5097	14577.5	13686.95
976.3959	2493.8538	14520.55	13630.8
976.524	2495.1972	14449.25	13559.4
976.6521	2496.5398	14389.65	13500.7
976.7801	2497.8818	14319.85	13427.6
976.9081	2499.2231	14310.4	13421.85
977.036	2500.5637	14259.95	13366.85
977.164	2501.9035	14195.95	13303.6
977.2918	2503.2427	14148	13254.8
977.4197	2504.5812	14142.35	13253.25
977.5475	2505.919	14087.15	13195.6
977.6753	2507.256	14037.25	13147.85
977.8031	2508.5924	14000.6	13111.4
977.9308	2509.9281	13931.4	13035.75
978.0585	2511.2631	13877.65	12988.55
978.1861	2512.5974	13828.1	12938.8
978.3137	2513.9309	13831	12942.25
978.4413	2515.2638	13760.45	12843.7
978.5689	2516.596	13703.05	12814.8
978.6964	2517.9275	13646	12755.7
978.8239	2519.2583	13584.15	12693.2
978.9513	2520.5884	13533.1	12641.2
979.0788	2521.9178	13495.5	12606.2
979.2062	2523.2465	13449.95	12561.4
979.3335	2524.5745	13373.65	12484.7
979.4608	2525.9018	13331.55	12442.8
979.5881	2527.2284	13313.15	12425.25
979.7154	2528.5543	13257.6	12369.5
979.8426	2529.8796	13217.65	12329.15
979.9698	2531.2041	13199.2	12307.2
980.0969	2532.5279	13171.1	12282.9
980.224	2533.851	13137.35	12248.35
980.3511	2535.1735	13093.35	12205.1
980.4781	2536.4952	13046.8	12156.95
980.6052	2537.8163	13056.2	12164.75
980.7321	2539.1366	12993.4	12103.3
980.8591	2540.4562	12956.4	12067.65
980.986	2541.7752	12917.7	12028.2
981.1129	2543.0935	12902.1	12012.2
981.2397	2544.411	12869.7	11977.6
981.3665	2545.7279	12839.2	11948.9
981.4933	2547.0441	12824.85	11936.55
981.62	2548.3596	12801.7	11911.15
981.7467	2549.6744	12719.95	11829.5
981.8734	2550.9885	12664.8	11768.5
982.0001	2552.3019	12637.4	11747.2
982.1267	2553.6146	12631.4	11743.6
982.2532	2554.9266	12552.85	11664.25
982.3798	2556.2379	12548.5	11655.85
982.5063	2557.5485	12530.6	11641.1
982.6327	2558.8585	12441.35	11542.75
982.7592	2560.1677	12459.35	11564.25
982.8856	2561.4762	12422.7	11533.5
983.0119	2562.7841	12410.7	11518.65
983.1383	2564.0913	12367.65	11480.05
983.2646	2565.3977	12336.7	11447
983.3908	2566.7035	12274.3	11386.1
983.517	2568.0086	12297.45	11408.65
983.6432	2569.313	12272.1	11380.35
983.7694	2570.6167	12227.55	11336.7
983.8955	2571.9197	12164.6	11276.7
984.0216	2573.222	12155.45	11262.6
984.1476	2574.5236	12117.25	11226.6
984.2737	2575.8246	12071.75	11179
984.3996	2577.1248	12050.1	11158.2
984.5256	2578.4244	12042.9	11153.15
984.6515	2579.7232	12040.85	11150.85
984.7774	2581.0214	12051.4	11137.1
984.9032	2582.3189	11967.3	11078.9
985.029	2583.6157	11967.9	11076.2
985.1548	2584.9118	11896.65	11007.6
985.2806	2586.2072	11858.35	10970.55
985.4063	2587.5019	11807.35	10918.55
985.5319	2588.7959	11813.55	10923.4
985.6576	2590.0893	11777.75	10885.9
985.7832	2591.3819	11752.6	10864.7
985.9087	2592.6739	11681.5	10793.65
986.0343	2593.9652	11646.4	10756.7
986.1597	2595.2557	11609.05	10720.75
986.2852	2596.5456	11564.85	10673.1
986.4106	2597.8348	11542.3	10653.95
986.536	2599.1234	11468	10578.25
986.6614	2600.4112	11432.05	10542.9
986.7867	2601.6983	11396.25	10500.35
986.912	2602.9848	11336.25	10445.9
987.0372	2604.2705	11329.45	10432.3
987.1624	2605.5556	11318.2	10429.75
987.2876	2606.84	11250.45	10361.55
987.4128	2608.1237	11193.8	10304.4
987.5379	2609.4067	11140.3	10251.4
987.6629	2610.689	11133.5	10233.85
987.788	2611.9707	11075.75	10181.15
987.913	2613.2516	11019.8	10127.95
988.0379	2614.5319	10974.95	10085.05
988.1629	2615.8115	10943.65	10052.6
988.2878	2617.0903	10912.2	10018.15
988.4126	2618.3685	10856.95	9966.65
988.5375	2619.6461	10827.85	9939.8
988.6622	2620.9229	10776.8	9887.85
988.787	2622.199	10732.95	9843.15
988.9117	2623.4745	10716.3	9826.35
989.0364	2624.7493	10680.1	9789.9
989.161	2626.0234	10671.55	9782.15
989.2857	2627.2968	10623.9	9732.6
989.4102	2628.5695	10556.15	9665.85
989.5348	2629.8415	10536.45	9646.95
989.6593	2631.1128	10498.65	9608.05
989.7837	2632.3835	10430.9	9541.3
989.9082	2633.6535	10396.4	9508.4
990.0326	2634.9228	10347	9458.15
990.1569	2636.1914	10322.05	9434.15
990.2812	2637.4593	10288.4	9392.85
990.4055	2638.7265	10250.45	9359.6
990.5298	2639.9931	10218.1	9327.95
990.654	2641.259	10178.9	9287.1
990.7782	2642.5242	10155.85	9266.4
990.9023	2643.7887	10123.15	9233.1
991.0264	2645.0525	10092.65	9203.3
991.1505	2646.3156	10068.25	9178.2
991.2745	2647.5781	10006.85	9119.2
991.3985	2648.8398	9986.25	9098.1
991.5225	2650.1009	9979.1	9054.4
991.6464	2651.3613	9945.55	9055.15
991.7703	2652.6211	9895.8	9006.7
991.8942	2653.8801	9884.2	8996.65
992.018	2655.1385	9847.85	8957
992.1418	2656.3961	9819	8929.05
992.2655	2657.6531	9789.85	8899.8
992.3892	2658.9094	9772.7	8882.85
992.5129	2660.1651	9747.65	8858.75
992.6366	2661.42	9699.5	8810.8
992.7602	2662.6743	9673.15	8782.3
992.8837	2663.9279	9663.95	8775.65
993.0073	2665.1808	9633.3	8743.6
993.1307	2666.433	9588.2	8697.4
993.2542	2667.6846	9554.9	8666.45
993.3776	2668.9354	9530.8	8638.45
993.501	2670.1856	9518.85	8628.8
993.6244	2671.4351	9503.7	8614.9
993.7477	2672.6839	9499.1	8611
993.8709	2673.9321	9443.9	8553.8
993.9942	2675.1795	9404.8	8517.25
994.1174	2676.4263	9369.65	8482.65
994.2405	2677.6724	9333.8	8445.5
994.3637	2678.9179	9313.9	8423.5
994.4868	2680.1626	9293.75	8404.9
994.6098	2681.4067	9261.4	8373.7
994.7328	2682.6501	9242.55	8352.8
994.8558	2683.8928	9204.55	8314.25
994.9788	2685.1348	9183.05	8296.85
995.1017	2686.3761	9118.1	8228.1
995.2245	2687.6168	9085.4	8197.45
995.3474	2688.8568	9084.4	8196.9
995.4702	2690.0961	9055.55	8166.05
995.5929	2691.3348	9015.25	8124.05
995.7156	2692.5727	8997.1	8107.55
995.8383	2693.81	8963.85	8073
995.961	2695.0466	8920.05	8031.25
996.0836	2696.2826	8921.1	8030.75
996.2062	2697.5178	8884.45	7992.5
996.3287	2698.7524	8853.1	7965.05
996.4512	2699.9863	8832.9	7940.85
996.5737	2701.2195	8786.35	7899
996.6961	2702.452	8774.9	7885.9
996.8185	2703.6839	8737.35	7848.35
996.9408	2704.9151	8702.7	7814.15
997.0631	2706.1456	8667.65	7778
997.1854	2707.3755	8656.6	7767.6
997.3077	2708.6046	8641.6	7749.15
997.4299	2709.8331	8611.35	7721.7
997.552	2711.0609	8562.7	7672.4
997.6742	2712.2881	8575.45	7686.6
997.7963	2713.5145	8536.75	7646.7
997.9183	2714.7403	8497.8	7610.6
998.0403	2715.9654	8466.85	7576.7
998.1623	2717.1899	8480.55	7576.05
998.2842	2718.4136	8445.95	7556.9
998.4062	2719.6367	8428.25	7540.05
998.528	2720.8591	8403.55	7509.3
998.6498	2722.0809	8363.9	7472.7
998.7716	2723.3019	8349.9	7457.1
998.8934	2724.5223	8352.65	7461.9
999.0151	2725.7421	8308.15	7417.4
999.1368	2726.9611	8286.25	7394.4
999.2584	2728.1795	8232.95	7339.65
999.38	2729.3972	8201.35	7313.65
999.5016	2730.6142	8175	7280.55
999.6231	2731.8306	8132.1	7242.6
999.7446	2733.0462	8074.1	7184.3
999.8661	2734.2612	8031.35	7137.8
999.9875	2735.4756	8006.9	7115.6
1000.1089	2736.6892	7941.3	7051.1
1000.2302	2737.9022	7901	7012.05
1000.3515	2739.1145	7876.55	6987.65
1000.4728	2740.3262	7835.65	6937.35
1000.594	2741.5372	7809.4	6920.5
1000.7152	2742.7475	7777.45	6886.95
1000.8363	2743.9571	7748.75	6857.15
1000.9575	2745.1661	7698.25	6805.8
1001.0785	2746.3744	7665	6774.7
1001.1996	2747.582	7628.8	6739.75
1001.3206	2748.7889	7623.05	6732.7
1001.4415	2749.9952	7576.15	6688.25
1001.5625	2751.2008	7552	6661.35
1001.6833	2752.4057	7546.1	6654.4
1001.8042	2753.61	7502.9	6612.35
1001.925	2754.8136	7501.55	6611.3
1002.0458	2756.0165	7440	6551.25
1002.1665	2757.2188	7413.2	6524.95
1002.2872	2758.4204	7396.85	6507.6
1002.4078	2759.6213	7367.3	6474.75
1002.5285	2760.8215	7375.4	6481.7
1002.649	2762.0211	7333.4	6442.65
1002.7696	2763.22	7306.95	6412.6
1002.8901	2764.4182	7276	6385.15
1003.0106	2765.6158	7277.95	6391.1
1003.131	2766.8127	7232.7	6342.95
1003.2514	2768.009	7199.7	6309.5
1003.3717	2769.2045	7166.15	6279.05
1003.492	2770.3994	7168.3	6277.05
1003.6123	2771.5936	7136.5	6246.8
1003.7325	2772.7872	7104.05	6216.55
1003.8527	2773.9801	7081.35	6191.7
1003.9729	2775.1723	7078.3	6172.1
1004.093	2776.3639	7048.05	6158.45
1004.2131	2777.5548	6990.55	6102.15
1004.3331	2778.745	6980.4	6090.3
1004.4531	2779.9346	6956.15	6066.95
1004.5731	2781.1235	6950.85	6060.7
1004.693	2782.3117	6933	6042
1004.8129	2783.4992	6894.1	6003.1
1004.9328	2784.6861	6869.9	5980.85
1005.0526	2785.8723	6857.5	5967
1005.1723	2787.0579	6835.6	5945.25
1005.2921	2788.2428	6825.6	5937.6
1005.4118	2789.427	6808.2	5920.25
1005.5314	2790.6106	6768.25	5880.9
1005.651	2791.7935	6762.8	5872.55
1005.7706	2792.9757	6725	5836.55
1005.8902	2794.1573	6722.9	5832.05
1006.0097	2795.3382	6698.95	5810.05
1006.1291	2796.5184	6681.9	5794.95
1006.2485	2797.698	6665.65	5776.15
1006.3679	2798.8769	6670.05	5780.6
1006.4873	2800.0551	6662.8	5774.4
1006.6066	2801.2327	6646.4	5753.55
1006.7258	2802.4096	6648.7	5761.05
1006.8451	2803.5859	6634.5	5746.3
1006.9642	2804.7615	6638.05	5748.15
1007.0834	2805.9364	6619.45	5730.55
1007.2025	2807.1106	6629.6	5741.75
1007.3216	2808.2842	6633.8	5743.9
1007.4406	2809.4572	6642.75	5754.05
1007.5596	2810.6294	6637.4	5747.6
1007.6785	2811.801	6662.1	5774.45
1007.7975	2812.972	6695.65	5805.4
1007.9163	2814.1423	6698.05	5808.7
1008.0352	2815.3119	6735.45	5845.5
1008.154	2816.4808	6753.1	5867.9
1008.2727	2817.6491	6792.05	5904.3
1008.3914	2818.8167	6811.85	5924.8
1008.5101	2819.9837	6826.65	5933.15
1008.6288	2821.15	6857.85	5969.2
1008.7474	2822.3157	6881.95	5995.75
1008.8659	2823.4807	6918.55	6029.7
1008.9844	2824.645	6939.85	6049.15
1009.1029	2825.8086	6971.05	6083.3
1009.2214	2826.9716	7003.6	6115.2
1009.3398	2828.134	7032	6145.9
1009.4581	2829.2957	7054.75	6164.1
1009.5764	2830.4567	7053.9	6165.45
1009.6947	2831.617	7048.15	6159.95
1009.813	2832.7767	7081.45	6195.1
1009.9312	2833.9358	7051.25	6163.2
1010.0493	2835.0941	7031.05	6140
1010.1675	2836.2519	7000.3	6110.6
1010.2855	2837.4089	6971.4	6080.8
1010.4036	2838.5653	6935.25	6048.05
1010.5216	2839.7211	6941.4	6054.15
1010.6396	2840.8761	6921.9	6031.85
1010.7575	2842.0306	6935.85	6049.9
1010.8754	2843.1843	6938.95	6048.4
1010.9932	2844.3374	6972.35	6084.35
1011.111	2845.4899	6990.45	6101.35
1011.2288	2846.6417	7040	6151.85
1011.3465	2847.7928	7090.45	6203.6
1011.4642	2848.9433	7134.35	6245.85
1011.5818	2850.0931	7203.45	6316.5
1011.6995	2851.2422	7248.4	6355.15
1011.817	2852.3907	7308.6	6420.45
1011.9345	2853.5385	7350.25	6459.45
1012.052	2854.6857	7355.05	6454.6
1012.1695	2855.8323	7400	6511.4
1012.2869	2856.9781	7422.6	6535.55
1012.4042	2858.1233	7459.2	6570.65
1012.5216	2859.2679	7483.8	6597.25
1012.6389	2860.4118	7474.15	6584.9
1012.7561	2861.555	7515.15	6622.7
1012.8733	2862.6976	7535.2	6643.05
1012.9905	2863.8395	7557.55	6670.6
1013.1076	2864.9808	7545.2	6658.15
1013.2247	2866.1214	7526.75	6638.95
1013.3417	2867.2614	7538.4	6648.05
1013.4587	2868.4007	7553.8	6665.55
1013.5757	2869.5393	7524.5	6633.5
1013.6926	2870.6773	7522.1	6629.4
1013.8095	2871.8146	7514.5	6623.7
1013.9263	2872.9513	7495.8	6604.4
1014.0431	2874.0874	7463.45	6575.85
1014.1599	2875.2227	7432.9	6543.3
1014.2766	2876.3574	7405.15	6517.7
1014.3933	2877.4915	7374.65	6486.25
1014.51	2878.6249	7314.5	6428.15
1014.6266	2879.7577	7292.35	6400.9
1014.7431	2880.8898	7264.4	6364.75
1014.8596	2882.0212	7216.7	6328.6
1014.9761	2883.152	7195.8	6307.2
1015.0925	2884.2821	7158.6	6272.7
1015.2089	2885.4116	7131.6	6243.55
1015.3253	2886.5405	7095.55	6207.5
1015.4416	2887.6686	7101.25	6208.85
1015.5579	2888.7962	7079.1	6190.35
1015.6741	2889.923	7069.05	6181.25
1015.7903	2891.0493	7057	6170.05
1015.9065	2892.1748	7030.6	6141.55
1016.0226	2893.2997	7040.1	6150.75
1016.1387	2894.424	7027.8	6139.5
1016.2547	2895.5476	7027.35	6140.25
1016.3707	2896.6706	7028.15	6139.4
1016.4866	2897.7929	7029.7	6139.6
1016.6025	2898.9145	7036.95	6148.25
1016.7184	2900.0355	7027.55	6137.75
1016.8342	2901.1559	7045.7	6156.5
1016.95	2902.2756	7084.3	6195.75
1017.0658	2903.3946	7101.75	6213.1
1017.1815	2904.513	7086.15	6195.25
1017.2971	2905.6308	7114.1	6226.95
1017.4127	2906.7479	7101	6211.55
1017.5283	2907.8643	7111.55	6223.05
1017.6439	2908.9801	7122.6	6233.25
1017.7594	2910.0953	7096	6207.55
1017.8748	2911.2098	7080.55	6187.8
1017.9902	2912.3236	7065.05	6168.05
1018.1056	2913.4368	7050.6	6158.45
1018.2209	2914.5494	7001.4	6111.85
1018.3362	2915.6613	6966.15	6071.9
1018.4515	2916.7725	6923.55	6033.35
1018.5667	2917.8831	6893.3	6004.55
1018.6819	2918.9931	6859.1	5971.2
1018.797	2920.1024	6804.5	5915.05
1018.9121	2921.211	6793.75	5905.85
1019.0271	2922.319	6750.65	5861.55
1019.1421	2923.4264	6715.95	5827.5
1019.2571	2924.5331	6675.8	5789.2
1019.372	2925.6391	6656.1	5768.3
1019.4869	2926.7445	6637.25	5751.65
1019.6017	2927.8493	6630.5	5742.6
1019.7165	2928.9534	6621.95	5733.55
1019.8313	2930.0569	6587.6	5695.85
1019.946	2931.1597	6583.95	5692.95
1020.0606	2932.2619	6565.95	5677.45
1020.1753	2933.3634	6545	5657.3
1020.2899	2934.4643	6546.3	5651
1020.4044	2935.5645	6522.85	5628.6
1020.5189	2936.6641	6455	5561.65
1020.6334	2937.763	6407.85	5520.8
1020.7478	2938.8613	6377.2	5488.7
1020.8622	2939.959	6304	5411.8
1020.9765	2941.056	6222.5	5335.35
1021.0908	2942.1523	6143	5254.35
1021.2051	2943.248	6044.55	5155.05
1021.3193	2944.3431	5938.2	5051.15
1021.4334	2945.4375	5844.55	4953.4
1021.5476	2946.5313	5754.4	4867.15
1021.6617	2947.6244	5638.05	4750.65
1021.7757	2948.7169	5531.05	4642.65
1021.8897	2949.8087	5409.25	4522.15
1022.0037	2950.8999	5322.25	4434
1022.1176	2951.9904	5234.7	4347.5
1022.2315	2953.0803	5159.7	4269.55
1022.3453	2954.1696	5096.4	4209.65
1022.4591	2955.2582	5034.1	4146.8
1022.5728	2956.3462	4967.6	4079.5
1022.6865	2957.4335	4928.45	4038.2
1022.8002	2958.5202	4860	3969.85
1022.9138	2959.6062	4837.2	3947.45
1023.0274	2960.6916	4788.75	3900.8
1023.141	2961.7764	4755.05	3866.8
1023.2545	2962.8605	4732.05	3844.4
1023.3679	2963.9439	4701	3813.55
1023.4813	2965.0267	4694.85	3805.05
1023.5947	2966.1089	4685.3	3774.6
1023.708	2967.1905	4656.65	3767.5
1023.8213	2968.2714	4619.6	3733.1
1023.9346	2969.3516	4609.05	3721.95
1024.0478	2970.4312	4616.7	3721.35
1024.1609	2971.5102	4578.2	3690.75
1024.274	2972.5885	4593.2	3705.9
1024.3871	2973.6662	4558.7	3664.7
1024.5002	2974.7432	4554.25	3668.05
1024.6132	2975.8196	4531.2	3642.85
1024.7261	2976.8954	4520.9	3632.6
1024.839	2977.9705	4499.35	3612.9
1024.9519	2979.045	4474.9	3587.1
1025.0647	2980.1188	4440.1	3552.05
1025.1775	2981.192	4406.7	3518.6
1025.2902	2982.2645	4375.8	3486.85
1025.4029	2983.3364	4350.2	3459.75
1025.5156	2984.4077	4298.75	3410.15
1025.6282	2985.4783	4282.6	3388.35
1025.7407	2986.5483	4247.65	3360.4
1025.8532	2987.6177	4212.35	3326.45
1025.9657	2988.6864	4156.3	3269
1026.0782	2989.7545	4126	3238.5
1026.1906	2990.8219	4075.4	3187.95
1026.3029	2991.8887	4038.7	3147.85
1026.4152	2992.9548	4002.45	3113.45
1026.5275	2994.0204	3962.95	3074.1
1026.6397	2995.0852	3922.4	3035.85
1026.7519	2996.1495	3907.35	3017.35
1026.864	2997.2131	3862.2	2973.55
1026.9761	2998.276	3836.5	2950.8
1027.0882	2999.3383	3801.45	2913.45
1027.2002	3000.4	3771.85	2882.85
1027.3122	3001.4611	3748.65	2860.75
1027.4241	3002.5215	3725.3	2836.5
1027.536	3003.5812	3697.65	2811.35
1027.6478	3004.6404	3701	2813.15
1027.7596	3005.6989	3661.4	2770.95
1027.8714	3006.7567	3634.05	2747.05
1027.9831	3007.8139	3642.4	2732
1028.0947	3008.8705	3611.9	2724.2
1028.2064	3009.9264	3603.95	2711.85
1028.3179	3010.9818	3594.15	2707.35
1028.4295	3012.0364	3574.85	2686.7
1028.541	3013.0905	3555.95	2668.05
1028.6524	3014.1439	3546.6	2660.1
1028.7638	3015.1966	3520.2	2633.35
1028.8752	3016.2487	3523.15	2634.7
1028.9865	3017.3002	3507.1	2615.95
1029.0978	3018.3511	3506.2	2619.6
1029.209	3019.4013	3493.6	2607.1
1029.3202	3020.4509	3470.5	2583.05
1029.4314	3021.4998	3485.8	2598.1
1029.5425	3022.5481	3464.7	2577.6
1029.6535	3023.5958	3454.6	2566.95
1029.7645	3024.6428	3453.8	2564.3
1029.8755	3025.6892	3434.05	2546.25
1029.9864	3026.735	3435.6	2546.8
1030.0973	3027.7802	3415.95	2529.1
1030.2082	3028.8247	3402.9	2514.05
1030.319	3029.8685	3389.8	2501.9
1030.4297	3030.9118	3386	2498.15
1030.5404	3031.9544	3384.05	2495.55
1030.6511	3032.9963	3382.3	2492.6
1030.7617	3034.0376	3366.35	2479.85
1030.8723	3035.0783	3369.35	2477.35
1030.9829	3036.1184	3344.75	2454.4
1031.0934	3037.1578	3333.35	2446.6
1031.2038	3038.1966	3359.35	2471.85
1031.3142	3039.2348	3332.3	2444.55
1031.4246	3040.2723	3333	2435.55
1031.5349	3041.3092	3330.75	2443.5
1031.6452	3042.3455	3303.8	2416.15
1031.7554	3043.3811	3305.4	2416.45
1031.8656	3044.4161	3282.9	2394.55
1031.9758	3045.4505	3254.85	2368.75
1032.0859	3046.4842	3275.25	2386
1032.1959	3047.5173	3244.75	2357.6
1032.3059	3048.5498	3238.95	2350.5
1032.4159	3049.5816	3212.85	2325.3
1032.5258	3050.6128	3211.7	2323.15
1032.6357	3051.6434	3204.3	2316.15
1032.7455	3052.6734	3194.4	2305.85
1032.8553	3053.7027	3176.5	2290
1032.9651	3054.7314	3167.9	2281.1
1033.0748	3055.7594	3144.3	2257.5
1033.1845	3056.7868	3138.55	2250.05
1033.2941	3057.8136	3128.9	2240.8
1033.4037	3058.8398	3118.3	2232.45
1033.5132	3059.8653	3089.65	2202.5
1033.6227	3060.8902	3074.25	2187.1
1033.7321	3061.9145	3070.55	2181.85
1033.8415	3062.9381	3070.5	2180.95
1033.9509	3063.9612	3067.65	2164.05
1034.0602	3064.9835	3037.85	2149.95
1034.1694	3066.0053	3013.2	2124
1034.2787	3067.0264	3005.35	2120
1034.3878	3068.0469	3001.9	2113.5
1034.497	3069.0668	3002.05	2111.65
1034.6061	3070.086	2970.3	2083.25
1034.7151	3071.1046	2955.85	2068.05
1034.8241	3072.1226	2942.45	2052.55
1034.9331	3073.1399	2945.7	2057.4
1035.042	3074.1567	2923.35	2034.7
1035.1508	3075.1727	2902.25	2012.9
1035.2597	3076.1882	2883.7	1996.1
1035.3684	3077.203	2856.45	1969.2
1035.4772	3078.2173	2857.75	1969.85
1035.5859	3079.2308	2848.55	1958.35
1035.6945	3080.2438	2824.9	1934.6
1035.8031	3081.2561	2818.4	1930.3
1035.9117	3082.2678	2800.75	1914.1
1036.0202	3083.2789	2794.7	1905.4
1036.1286	3084.2893	2774.45	1886.4
1036.2371	3085.2991	2759.65	1871.15
1036.3454	3086.3083	2758.25	1865.15
1036.4538	3087.3169	2745	1857.05
1036.562	3088.3248	2732.5	1842.2
1036.6703	3089.3321	2725.25	1835.9
1036.7785	3090.3388	2704.65	1817.6
1036.8866	3091.3449	2698.2	1811.95
1036.9948	3092.3503	2688.65	1799.75
1037.1028	3093.3551	2673.05	1786.35
1037.2108	3094.3593	2671.2	1785.45
1037.3188	3095.3629	2653.1	1765.3
1037.4267	3096.3658	2652.55	1763.95
1037.5346	3097.3681	2639.1	1753.2
1037.6425	3098.3698	2627.55	1738.25
1037.7503	3099.3708	2621	1725.6
1037.858	3100.3713	2592.35	1705.1
1037.9657	3101.3711	2590.8	1702.85
1038.0734	3102.3702	2699.35	1676.05
1038.181	3103.3688	2588.85	1700.15
1038.2886	3104.3667	2571.5	1685.35
1038.3961	3105.364	2554.5	1666.6
1038.5036	3106.3607	2549.4	1660.35
1038.611	3107.3568	2538.9	1648
1038.7184	3108.3522	2516.4	1630.55
1038.8257	3109.347	2506.35	1618
1038.933	3110.3412	2512.45	1620.55
1039.0403	3111.3348	2492.1	1605
1039.1475	3112.3277	2487.95	1601.1
1039.2547	3113.32	2473	1586.75
1039.3618	3114.3117	2472.5	1584.35
1039.4689	3115.3028	2466.5	1578.65
1039.5759	3116.2932	2452.55	1564.4
1039.6829	3117.2831	2450.3	1556.9
1039.7898	3118.2723	2435.6	1548.75
1039.8967	3119.2608	2421.65	1533.55
1040.0035	3120.2488	2421.05	1533.55
1040.1103	3121.2361	2405	1515.75
1040.2171	3122.2229	2403.25	1514.9
1040.3238	3123.209	2386.95	1499.05
1040.4305	3124.1944	2377.5	1490.3
1040.5371	3125.1793	2376.5	1489.05
1040.6437	3126.1635	2367.2	1481.65
1040.7502	3127.1471	2362.75	1476.05
1040.8567	3128.1301	2347.7	1460.9
1040.9631	3129.1125	2333.95	1446.4
1041.0695	3130.0942	2342.9	1454.55
1041.1759	3131.0753	2337.5	1442.65
1041.2822	3132.0558	2331.6	1438.9
1041.3884	3133.0357	2317	1428.5
1041.4946	3134.015	2304	1413.6
1041.6008	3134.9936	2308.6	1420.35
1041.7069	3135.9716	2313.2	1404.7
1041.813	3136.949	2285.35	1398.65
1041.919	3137.9258	2289.85	1396.8
1042.025	3138.902	2288.2	1394.45
1042.1309	3139.8775	2275.6	1388.75
1042.2368	3140.8524	2268.75	1381.85
1042.3427	3141.8267	2262.9	1372.85
1042.4485	3142.8004	2252.55	1363.75
1042.5542	3143.7735	2254.55	1358.7
1042.6599	3144.7459	2246.9	1358.65
1042.7656	3145.7178	2238.4	1350.65
1042.8712	3146.689	2233.25	1346.1
1042.9768	3147.6596	2225.05	1336.2
1043.0823	3148.6295	2214.95	1325.65
1043.1878	3149.5989	2201.95	1313.25
1043.2932	3150.5676	2188.5	1301
1043.3986	3151.5357	2194.65	1308.35
1043.5039	3152.5032	2191.4	1302.55
1043.6092	3153.4701	2183.45	1296.45
1043.7145	3154.4364	2173.3	1281.8
1043.8197	3155.402	2164.35	1277.8
1043.9248	3156.367	2159.9	1272.15
1044.03	3157.3315	2193.5	1262.55
1044.135	3158.2952	2143.55	1254.05
1044.24	3159.2584	2135.45	1249.2
1044.345	3160.221	2129.6	1241.65
1044.4499	3161.1829	2113.65	1227.15
1044.5548	3162.1442	2104.4	1215.3
1044.6596	3163.105	2101.3	1214.7
1044.7644	3164.065	2095.2	1206.25
1044.8692	3165.0245	2085.2	1196.2
1044.9739	3165.9834	2084.05	1198.35
1045.0785	3166.9416	2079.6	1192.4
1045.1831	3167.8993	2068.6	1180.85
1045.2877	3168.8563	2058.85	1171.6
1045.3922	3169.8127	2054.05	1168.3
1045.4966	3170.7684	2044.2	1156.2
1045.6011	3171.7236	2044.3	1154.65
1045.7054	3172.6782	2039.05	1151.25
1045.8098	3173.6321	2037.75	1149.5
1045.914	3174.5854	2020.9	1128.6
1046.0183	3175.5381	2020.75	1131.2
1046.1224	3176.4902	2015.95	1129.65
1046.2266	3177.4417	2003.45	1117
1046.3307	3178.3926	1998.15	1111.6
1046.4347	3179.3428	1999	1111.95
1046.5387	3180.2924	1991.5	1102.55
1046.6427	3181.2415	1983.15	1095
1046.7466	3182.1899	1973.35	1084.1
1046.8504	3183.1377	1970.25	1083.05
1046.9542	3184.0848	1963.2	1073.8
1047.058	3185.0314	1952.95	1065.35
1047.1617	3185.9773	1957.15	1069.4
1047.2654	3186.9227	1949.8	1063.45
1047.369	3187.8674	1939.65	1051.25
1047.4726	3188.8115	1932.95	1040.9
1047.5761	3189.755	1928.05	1040.45
1047.6796	3190.6979	1922.1	1033.45
1047.783	3191.6402	1921.15	1035.8
1047.8864	3192.5818	1926.95	1039.8
1047.9898	3193.5229	1940.3	1030.95
1048.0931	3194.4633	1913.6	1025.6
1048.1963	3195.4031	1902.15	1014.6
1048.2995	3196.3423	1902.6	1015.75
1048.4027	3197.2809	1884.05	994.75
1048.5058	3198.2189	1881.2	993.15
1048.6089	3199.1563	1884.25	990.6
1048.7119	3200.0931	1881.4	994.85
1048.8148	3201.0292	1867.9	982.1
1048.9178	3201.9648	1855.4	966.9
1049.0206	3202.8997	1857.1	967.7
1049.1235	3203.834	1851.35	962.5
1049.2262	3204.7677	1851.6	964.25
1049.329	3205.7008	1847	956.05
1049.4317	3206.6333	1826.15	938.3
1049.5343	3207.5652	1833.15	944.05
1049.6369	3208.4964	1833.45	945.8
1049.7394	3209.4271	1819.85	933.65
1049.8419	3210.3571	1821.05	933.55
1049.9444	3211.2865	1818.6	928.55
1050.0468	3212.2154	1811.75	923.6
1050.1491	3213.1436	1815.25	925.4
1050.2514	3214.0712	1807.55	912.75
1050.3537	3214.9982	1801.1	912.8
1050.4559	3215.9246	1789.55	901.85
1050.5581	3216.8503	1784.1	898.2
1050.6602	3217.7755	1785.5	899.1
1050.7623	3218.7001	1774.2	888
1050.8643	3219.624	1774.95	888.5
1050.9663	3220.5473	1765.05	876.2
1051.0682	3221.4701	1763.25	875.9
1051.1701	3222.3922	1766.05	876.55
1051.2719	3223.3137	1755.2	866.5
1051.3737	3224.2346	1749.6	863.05
1051.4754	3225.1549	1751.85	864.8
1051.5771	3226.0746	1745.65	859.6
1051.6788	3226.9937	1735	845.15
1051.7804	3227.9121	1734.25	846.75
1051.8819	3228.83	1723.15	834.95
1051.9834	3229.7473	1717.8	829.15
1052.0849	3230.6639	1725.7	838.6
1052.1863	3231.5799	1726	837.75
1052.2876	3232.4954	1716.7	828.95
1052.3889	3233.4102	1712.2	825.75
1052.4902	3234.3244	1703.3	817.05
1052.5914	3235.238	1702.85	815.55
1052.6926	3236.151	1715.4	804.5
1052.7937	3237.0634	1687.4	800.6
1052.8948	3237.9752	1676.3	789.65
1052.9958	3238.8864	1675.95	787.6
1053.0968	3239.797	1676.85	789.1
1053.1977	3240.7069	1665.45	776.9
1053.2986	3241.6163	1669.2	781.55
1053.3994	3242.5251	1655.55	767.5
1053.5002	3243.4332	1655.15	766.55
1053.6009	3244.3408	1657.7	770.95
1053.7016	3245.2477	1647.2	758.15
1053.8022	3246.154	1637.45	748.65
1053.9028	3247.0598	1637.45	748.2
1054.0034	3247.9649	1626.05	739.45
1054.1039	3248.8694	1619.25	730.6
1054.2043	3249.7733	1617.45	729
1054.3047	3250.6766	1612.8	726.05
1054.4051	3251.5793	1612.35	723.15
1054.5054	3252.4814	1601.55	714.5
1054.6056	3253.3829	1601.35	714.8
1054.7058	3254.2838	1596.7	709.2
1054.806	3255.1841	1594.4	708.6
1054.9061	3256.0838	1591.4	705.1
1055.0061	3256.9829	1577.2	690.8
1055.1062	3257.8814	1576.95	688.2
1055.2061	3258.7792	1571.8	680.9
1055.306	3259.6765	1568.5	680.2
1055.4059	3260.5731	1551.05	664.45
1055.5057	3261.4692	1544.4	656.05
1055.6055	3262.3647	1542.35	654
1055.7052	3263.2595	1532.15	642.55
1055.8049	3264.1538	1513.9	626.7
1055.9045	3265.0474	1515.6	627.1
1056.0041	3265.9404	1510.65	623.95
1056.1036	3266.8329	1488.85	603.5
1056.2031	3267.7247	1492.4	594.8
1056.3025	3268.616	1463.55	576.75
1056.4019	3269.5066	1452.25	564.85
1056.5013	3270.3966	1443.85	553.85
1056.6005	3271.286	1428.65	542.9
