Software Version:	3.9.2.0
Unit SN:	10000200
Spectrometer SN:	6960
Date:	3/6/2024 10:24:18 AM
Data Line Index:	25
Spectral Points:	2048
Integration time (ms):	125
Averages:	20
Delay (ms):	30
Sequence Number:	1
Processing:	dark subtract
Laser Power (mW):	305
Laser Current (mA):	825
Laser Diode Temp (C):	25
Laser Case Temp (C):	25.8
System Temp (C):	25.5
Spectrometer Temp (C):	23
CCD Temp (C):	-0.003
Secondary Temp (C):	20.003
Heatsink Temp (C):	20.965
CCDPCB Temp (C):	34.517
SecondaryPCB Temp (C):	28.092

Wavelength	RamanShift	Raw Counts	Dark Subtracted
787.061	30.1047	1088.45	677.55
787.2016	32.3739	1116.85	707.05
787.3422	34.6426	1150	740.25
787.4828	36.9109	1192.05	777.85
787.6235	39.1787	1245.1	827.75
787.7642	41.4461	1314.3	892.5
787.9049	43.7131	1363.65	940.45
788.0456	45.9796	1422.2	994.95
788.1863	48.2456	1478.85	1046.75
788.3271	50.5112	1549.3	1116.6
788.4679	52.7764	1611.35	1175
788.6087	55.0411	1685.15	1244.15
788.7496	57.3054	1759.15	1313.05
788.8904	59.5692	1843.8	1395.3
789.0313	61.8326	1934.75	1482.55
789.1722	64.0955	2026.15	1571.45
789.3132	66.3579	2141.9	1682.15
789.4541	68.6199	2286.4	1823.35
789.5951	70.8815	2542.5	2075.2
789.7361	73.1426	3043.4	2571
789.8771	75.4032	4371.05	3893.75
790.0181	77.6634	7698.85	7218.1
790.1592	79.9231	16517.1	16030.1
790.3003	82.1824	52505.95	52006.65
790.4414	84.4412	65535	65015.65
790.5825	86.6995	65535	64989.25
790.7237	88.9574	65535	64960.7
790.8648	91.2148	65535	64945.05
791.006	93.4717	65535	64932.5
791.1472	95.7282	65535	64929.6
791.2885	97.9842	65535	64927.3
791.4297	100.2398	65535	64923.35
791.571	102.4949	65535	64918.2
791.7123	104.7495	65535	64916
791.8536	107.0036	65535	64914.3
791.9949	109.2573	65535	64914.4
792.1363	111.5105	65535	64914.15
792.2777	113.7632	65535	64915
792.4191	116.0154	65535	64903.7
792.5605	118.2672	65535	64905.8
792.7019	120.5185	65535	64908.3
792.8434	122.7693	65535	64904.65
792.9849	125.0197	65535	64898.85
793.1264	127.2696	65535	64892.8
793.2679	129.519	65535	64892.8
793.4094	131.7679	65535	64892.15
793.551	134.0163	65535	64886.35
793.6926	136.2642	65535	64883.45
793.8342	138.5117	65535	64875.45
793.9758	140.7587	65535	64878.55
794.1175	143.0052	65535	64880.55
794.2591	145.2512	65535	64876.65
794.4008	147.4967	65535	64873.8
794.5425	149.7417	65535	64872.15
794.6842	151.9863	65535	64867.2
794.826	154.2304	65535	64866.75
794.9677	156.4739	65535	64862.15
795.1095	158.717	65535	64861.8
795.2513	160.9596	65535	64856.85
795.3931	163.2017	65535	64856.85
795.535	165.4433	65535	64854.3
795.6768	167.6844	65535	64853.15
795.8187	169.925	65535	64848.1
795.9606	172.1651	65535	64843.5
796.1025	174.4047	65535	64841.9
796.2445	176.6439	65535	64837.75
796.3864	178.8825	65535	64838
796.5284	181.1206	65535	64835.45
796.6704	183.3582	65535	64826.6
796.8124	185.5954	65535	64828.9
796.9544	187.832	65535	64824.65
797.0965	190.0681	65535	64822.1
797.2386	192.3037	65535	64817.2
797.3806	194.5388	65535	64815.6
797.5228	196.7734	65535	64813.95
797.6649	199.0075	65535	64814.5
797.807	201.2411	65535	64808.25
797.9492	203.4742	65535	64807.25
798.0914	205.7068	65535	64807.4
798.2336	207.9389	65535	64801.7
798.3758	210.1704	65535	64804.1
798.518	212.4015	65535	64808.15
798.6603	214.632	65535	64817.7
798.8025	216.862	65535	64823.55
798.9448	219.0915	65535	64829.85
799.0871	221.3205	65535	64819.65
799.2294	223.549	65535	64825.55
799.3718	225.777	65535	64828.85
799.5141	228.0044	65535	64821.25
799.6565	230.2314	65535	64822.3
799.7989	232.4578	65535	64818.85
799.9413	234.6837	65535	64806.1
800.0837	236.909	65535	64811.1
800.2262	239.1339	65535	64781.25
800.3687	241.3582	65535	64797.35
800.5111	243.582	65535	64764.85
800.6536	245.8053	65535	64775.95
800.7961	248.0281	65535	64786.05
800.9387	250.2503	65535	64778.5
801.0812	252.472	65535	64772.65
801.2238	254.6932	65535	64773.35
801.3664	256.9139	65535	64774.4
801.509	259.134	65535	64776.4
801.6516	261.3536	65535	64775.7
801.7942	263.5727	65535	64773.3
801.9369	265.7912	65535	64773.45
802.0795	268.0092	65535	64767.7
802.2222	270.2267	65535	64769.4
802.3649	272.4436	65535	64770.35
802.5076	274.6601	65535	64759
802.6504	276.8759	65535	64764.45
802.7931	279.0913	65535	64760.55
802.9359	281.3061	65535	64761.5
803.0787	283.5204	65535	64755.75
803.2215	285.7341	65535	64757.9
803.3643	287.9473	65535	64744.15
803.5071	290.16	65535	64751.5
803.6499	292.3721	65535	64759.35
803.7928	294.5837	65535	64755.55
803.9357	296.7947	65535	64757.7
804.0786	299.0052	65535	64754.4
804.2215	301.2152	65535	64749.95
804.3644	303.4246	65535	64757.9
804.5074	305.6334	65535	64753
804.6503	307.8418	65535	64751.7
804.7933	310.0495	65535	64748.8
804.9363	312.2568	65535	64748.5
805.0793	314.4635	65535	64747.8
805.2223	316.6696	65535	64744.9
805.3653	318.8752	65535	64738
805.5084	321.0802	65535	64745.85
805.6514	323.2847	65535	64743.7
805.7945	325.4887	65535	64744.75
805.9376	327.692	65535	64741.7
806.0807	329.8949	65535	64742.5
806.2238	332.0972	65535	64742
806.367	334.2989	65535	64734.95
806.5101	336.5001	65535	64736.35
806.6533	338.7007	65535	64736.45
806.7965	340.9008	65535	64732.7
806.9397	343.1003	65535	64732.8
807.0829	345.2992	65535	64734
807.2261	347.4976	65535	64728.8
807.3693	349.6955	65535	64727
807.5126	351.8927	65535	64723.9
807.6559	354.0895	65535	64715.75
807.7991	356.2856	65535	64723.6
807.9424	358.4812	65535	64723.85
808.0857	360.6763	65535	64716.05
808.2291	362.8707	65535	64719.45
808.3724	365.0646	65535	64719.8
808.5158	367.258	65535	64718.3
808.6591	369.4508	65535	64712.9
808.8025	371.643	65535	64713.2
808.9459	373.8346	65535	64711.3
809.0893	376.0257	65535	64706.95
809.2327	378.2162	65535	64707.9
809.3762	380.4062	65535	64706.95
809.5196	382.5956	65535	64708.1
809.6631	384.7844	65535	64712.05
809.8066	386.9726	65535	64710.7
809.9501	389.1603	65535	64716.55
810.0936	391.3474	65535	64674.6
810.2371	393.5339	65535	64712.4
810.3806	395.7199	65535	64717
810.5241	397.9052	65535	64716.9
810.6677	400.09	65535	64717.7
810.8113	402.2743	65535	64713.8
810.9548	404.4579	65535	64713.6
811.0984	406.641	65535	64711.5
811.2421	408.8235	65535	64711.2
811.3857	411.0054	65535	64708.6
811.5293	413.1868	65535	64706
811.673	415.3675	65535	64706.15
811.8166	417.5477	65535	64703.2
811.9603	419.7273	65535	64699.85
812.104	421.9064	65535	64692.35
812.2477	424.0848	65535	64693.6
812.3914	426.2627	65535	64697.95
812.5351	428.4399	65535	64695.6
812.6788	430.6166	65535	64696.5
812.8226	432.7928	65535	64691.55
812.9663	434.9683	65535	64693.6
813.1101	437.1432	65535	64691.15
813.2539	439.3176	65535	64692.15
813.3977	441.4914	65535	64692.9
813.5415	443.6645	65535	64690.7
813.6853	445.8371	65535	64690.25
813.8291	448.0091	65535	64691.8
813.973	450.1806	65535	64688.5
814.1168	452.3514	65535	64690.9
814.2607	454.5216	65535	64686.15
814.4046	456.6913	65535	64688.05
814.5485	458.8603	65535	64688.05
814.6924	461.0288	65535	64688.4
814.8363	463.1967	65535	64689.95
814.9802	465.3639	65535	64686.4
815.1241	467.5306	65535	64685.45
815.2681	469.6967	65535	64682.5
815.412	471.8622	65535	64686.15
815.556	474.0271	65535	64688.85
815.7	476.1914	65535	64682.3
815.844	478.3551	65535	64683.5
815.988	480.5182	65535	64684.65
816.132	482.6807	65535	64686.1
816.276	484.8426	65535	64684.9
816.4201	487.0039	65535	64684.75
816.5641	489.1647	65535	64682.85
816.7082	491.3248	65535	64682.35
816.8522	493.4843	65535	64681.5
816.9963	495.6432	65535	64682.35
817.1404	497.8015	65535	64675.15
817.2845	499.9592	65535	64681.3
817.4286	502.1163	65535	64677.65
817.5727	504.2728	65535	64676.95
817.7168	506.4287	65535	64680.6
817.861	508.5839	65535	64681.05
818.0051	510.7386	65535	64675.95
818.1493	512.8927	65535	64675.45
818.2935	515.0461	65535	64675.2
818.4377	517.199	65535	64676.65
818.5818	519.3512	65535	64674.65
818.726	521.5029	65535	64669.1
818.8703	523.6539	65535	64671.9
819.0145	525.8043	65535	64674.1
819.1587	527.9541	65535	64670.15
819.303	530.1033	65535	64672.25
819.4472	532.2519	65535	64671.25
819.5915	534.3999	65535	64668.5
819.7357	536.5472	65535	64669.9
819.88	538.694	65535	64669.2
820.0243	540.8401	65535	64671.45
820.1686	542.9856	65535	64665
820.3129	545.1305	65535	64667.95
820.4572	547.2748	65535	64665.9
820.6016	549.4185	65535	64664.95
820.7459	551.5615	65535	64669.7
820.8902	553.704	65535	64665.45
821.0346	555.8458	65535	64663.8
821.1789	557.987	65535	64666.1
821.3233	560.1276	65535	64666.5
821.4677	562.2675	65535	64668.15
821.6121	564.4069	65535	64664.15
821.7565	566.5456	65535	64665.8
821.9009	568.6837	65535	64667.65
822.0453	570.8212	65535	64666.8
822.1897	572.958	65535	64666
822.3342	575.0942	65535	64670.3
822.4786	577.2299	65535	64666.2
822.6231	579.3648	65535	64665.8
822.7675	581.4992	65535	64671.6
822.912	583.6329	65535	64668.75
823.0565	585.766	65535	64667.45
823.201	587.8985	65535	64666.35
823.3454	590.0304	65535	64640.6
823.4899	592.1616	65535	64662.8
823.6345	594.2922	65535	64663.05
823.779	596.4222	65535	64657.9
823.9235	598.5515	65535	64656.35
824.068	600.6802	65535	64663.9
824.2126	602.8083	65535	64660.4
824.3571	604.9358	65535	64660.85
824.5017	607.0626	65535	64659
824.6462	609.1888	65535	64658.7
824.7908	611.3144	65535	64659.15
824.9354	613.4393	65535	64660.45
825.08	615.5636	65535	64657.7
825.2246	617.6873	65535	64658.4
825.3692	619.8103	65535	64657.7
825.5138	621.9327	65535	64654.85
825.6584	624.0544	65535	64656.1
825.803	626.1756	65535	64660.65
825.9477	628.2961	65535	64657.55
826.0923	630.4159	65535	64655.55
826.237	632.5351	65535	64655.5
826.3816	634.6537	65535	64656.15
826.5263	636.7716	65535	64651.75
826.6709	638.8889	65535	64651.8
826.8156	641.0056	65535	64653.8
826.9603	643.1216	65535	64649.4
827.105	645.237	65535	64651.8
827.2497	647.3518	65535	64655.4
827.3944	649.4659	65535	64654
827.5391	651.5793	65535	64652.15
827.6838	653.6922	65535	64655.35
827.8285	655.8043	65535	64654.7
827.9733	657.9159	65535	64654.25
828.118	660.0268	65535	64651.25
828.2627	662.137	65535	64651.65
828.4075	664.2466	65535	64649.15
828.5522	666.3556	65535	64650.6
828.697	668.4639	65535	64648.95
828.8418	670.5716	65535	64649.1
828.9865	672.6786	65535	64649.95
829.1313	674.785	65535	64648.9
829.2761	676.8907	65535	64648.3
829.4209	678.9958	65535	64652.65
829.5657	681.1002	65535	64649.4
829.7105	683.204	65535	64645
829.8553	685.3072	65535	64646.4
830.0001	687.4097	65535	64651.1
830.1449	689.5115	65535	64644.85
830.2898	691.6127	65535	64648.05
830.4346	693.7132	65535	64646.05
830.5794	695.8131	65535	64637.6
830.7243	697.9123	65535	64643.9
830.8691	700.0109	65535	64645.95
831.014	702.1089	65535	64646.4
831.1588	704.2061	65535	64646.75
831.3037	706.3028	65535	64645.7
831.4486	708.3987	65535	64647.1
831.5935	710.4941	65535	64647.75
831.7383	712.5887	65535	64643.75
831.8832	714.6827	65535	64640.25
832.0281	716.7761	65535	64646.3
832.173	718.8688	65535	64645.25
832.3179	720.9608	65535	64640.9
832.4628	723.0522	65535	64642.25
832.6077	725.1429	65535	64640.3
832.7527	727.233	65535	64644.05
832.8976	729.3224	65535	64641.15
833.0425	731.4112	65535	64641.45
833.1874	733.4993	65535	64639.3
833.3324	735.5867	65535	64642.05
833.4773	737.6735	65535	64640.8
833.6222	739.7596	65535	64644
833.7672	741.845	65535	64642.15
833.9122	743.9298	65535	64640.75
834.0571	746.014	65535	64643.85
834.2021	748.0974	65535	64639.05
834.347	750.1802	65535	64639.2
834.492	752.2624	65535	64641.05
834.637	754.3439	65535	64638.95
834.782	756.4247	65535	64632.65
834.9269	758.5048	65535	64642.85
835.0719	760.5843	65535	64641.05
835.2169	762.6631	65535	64641.55
835.3619	764.7413	65535	64640.65
835.5069	766.8188	65535	64640.55
835.6519	768.8956	65535	64634.7
835.7969	770.9718	65535	64640
835.9419	773.0473	65535	64641.55
836.0869	775.1221	65535	64640.95
836.232	777.1962	65535	64641.5
836.377	779.2697	65535	64639
836.522	781.3426	65535	64621.5
836.667	783.4147	65535	64638.25
836.8121	785.4862	65535	64641.9
836.9571	787.557	65535	64637
837.1021	789.6271	65535	64636.75
837.2472	791.6966	65535	64641.2
837.3922	793.7654	65535	64636.2
837.5373	795.8335	65535	64637.4
837.6823	797.901	65535	64644.95
837.8274	799.9678	65535	64637.6
837.9724	802.0339	65535	64638.75
838.1175	804.0993	65535	64629.7
838.2626	806.1641	65535	64636
838.4076	808.2282	65535	64639.85
838.5527	810.2916	65535	64635.05
838.6978	812.3544	65535	64640
838.8428	814.4164	65535	64638.95
838.9879	816.4778	65535	64638.25
839.133	818.5385	65535	64638.35
839.2781	820.5986	65535	64636.15
839.4232	822.658	65535	64636.7
839.5682	824.7166	65535	64638.4
839.7133	826.7747	65535	64637.65
839.8584	828.832	65535	64638.2
840.0035	830.8886	65535	64634.55
840.1486	832.9446	65535	64633.5
840.2937	834.9999	65535	64637.8
840.4388	837.0545	65535	64636.45
840.5839	839.1085	65535	64635.7
840.729	841.1618	65535	64634.1
840.8741	843.2143	65535	64635.75
841.0192	845.2662	65535	64635.35
841.1643	847.3175	65535	64635.7
841.3095	849.368	65535	64638.15
841.4546	851.4179	65535	64639.2
841.5997	853.467	65535	64636.65
841.7448	855.5155	65535	64635
841.8899	857.5633	65535	64636.8
842.0351	859.6105	65535	64634.3
842.1802	861.6569	65535	64638.55
842.3253	863.7027	65535	64632.7
842.4704	865.7478	65535	64634.9
842.6156	867.7922	65535	64636.75
842.7607	869.8359	65535	64632.95
842.9058	871.8789	65535	64634.7
843.0509	873.9212	65535	64606.65
843.1961	875.9629	65535	64636.2
843.3412	878.0039	65535	64635.7
843.4863	880.0441	65535	64637.35
843.6315	882.0837	65535	64635.85
843.7766	884.1226	65535	64632
843.9218	886.1609	65535	64635
844.0669	888.1984	65535	64636.6
844.212	890.2352	65535	64634.4
844.3572	892.2714	65535	64629.25
844.5023	894.3069	65535	64632.05
844.6475	896.3416	65535	64634.1
844.7926	898.3757	65535	64632.65
844.9377	900.4091	65535	64632.1
845.0829	902.4418	65535	64625.15
845.228	904.4739	65535	64630.8
845.3732	906.5052	65535	64634.45
845.5183	908.5358	65535	64633.35
845.6635	910.5658	65535	64633.1
845.8086	912.595	65535	64630.75
845.9538	914.6236	65535	64633.1
846.0989	916.6515	65535	64633.7
846.2441	918.6786	65535	64629.75
846.3892	920.7051	65535	64629.45
846.5344	922.7309	65535	64634.6
846.6795	924.756	65535	64629.8
846.8246	926.7804	65535	64631.4
846.9698	928.8041	65535	64628
847.1149	930.8272	65535	64633.6
847.2601	932.8495	65535	64630.4
847.4052	934.8711	65535	64631.1
847.5504	936.892	65535	64630.45
847.6955	938.9123	65535	64630.05
847.8407	940.9318	65535	64630.05
847.9858	942.9506	65535	64634
848.131	944.9688	65535	64633.05
848.2761	946.9862	65535	64634.4
848.4213	949.003	65535	64632.2
848.5664	951.019	65535	64630.35
848.7115	953.0344	65535	64631.4
848.8567	955.0491	65535	64631.5
849.0018	957.063	65535	64631.3
849.147	959.0763	65535	64633.75
849.2921	961.0888	65535	64631.55
849.4373	963.1007	65535	64632.75
849.5824	965.1119	65535	64633.3
849.7275	967.1223	65535	64636.25
849.8727	969.1321	65535	64634.75
850.0178	971.1412	65535	64636.25
850.1629	973.1495	65535	64636
850.3081	975.1572	65535	64598.9
850.4532	977.1641	65535	64632.25
850.5983	979.1704	65535	64633.8
850.7435	981.1759	65535	64629.3
850.8886	983.1808	65535	64627.25
851.0337	985.1849	65535	64618.3
851.1788	987.1884	65535	64629.6
851.324	989.1911	65535	64629.65
851.4691	991.1932	65535	64629.85
851.6142	993.1945	65535	64632.9
851.7593	995.1951	65535	64632.35
851.9045	997.1951	65535	64624.65
852.0496	999.1943	65535	64632.65
852.1947	1001.1928	65535	64631.95
852.3398	1003.1906	65535	64632.65
852.4849	1005.1877	65535	64628.6
852.63	1007.1841	65535	64631.7
852.7751	1009.1798	65535	64629.6
852.9202	1011.1748	65535	64633.6
853.0653	1013.1691	65535	64632.55
853.2104	1015.1627	65535	64630.55
853.3555	1017.1556	65535	64633.25
853.5006	1019.1477	65535	64632.2
853.6457	1021.1392	65535	64632.7
853.7908	1023.1299	65535	64632.1
853.9359	1025.12	65535	64634.4
854.081	1027.1093	65535	64637.75
854.2261	1029.0979	65535	64636.7
854.3712	1031.0859	65535	64636.5
854.5163	1033.0731	65535	64633.05
854.6613	1035.0596	65535	64636.3
854.8064	1037.0454	65535	64634.05
854.9515	1039.0304	65535	64632.15
855.0965	1041.0148	65535	64631.95
855.2416	1042.9985	65535	64631.9
855.3867	1044.9814	65535	64636
855.5317	1046.9636	65535	64630.3
855.6768	1048.9452	65535	64635.7
855.8219	1050.926	65535	64633.25
855.9669	1052.9061	65535	64631.75
856.112	1054.8855	65535	64634.65
856.257	1056.8642	65535	64633.6
856.4021	1058.8421	65535	64628.65
856.5471	1060.8194	65535	64632.5
856.6921	1062.7959	65535	64633.85
856.8372	1064.7717	65535	64630.85
856.9822	1066.7469	65535	64633.05
857.1272	1068.7213	65535	64631.05
857.2723	1070.695	65535	64632.05
857.4173	1072.6679	65535	64630.8
857.5623	1074.6402	65535	64629.9
857.7073	1076.6117	65535	64625.5
857.8523	1078.5826	65535	64632.35
857.9973	1080.5527	65535	64632
858.1423	1082.5221	65535	64631.4
858.2873	1084.4908	65535	64632.8
858.4323	1086.4587	65535	64632
858.5773	1088.426	65535	64631.75
858.7223	1090.3925	65535	64627.1
858.8673	1092.3584	65535	64630.5
859.0123	1094.3235	65535	64631.3
859.1573	1096.2879	65535	64631.95
859.3022	1098.2515	65535	64633.25
859.4472	1100.2145	65535	64633.8
859.5922	1102.1767	65535	64629.25
859.7371	1104.1382	65535	64629.85
859.8821	1106.099	65535	64631.9
860.027	1108.0591	65535	64632.75
860.172	1110.0185	65535	64631.25
860.3169	1111.9771	65535	64633.65
860.4619	1113.9351	65535	64632.65
860.6068	1115.8923	65535	64631.3
860.7517	1117.8488	65535	64631.4
860.8967	1119.8045	65535	64631.85
861.0416	1121.7596	65535	64630.25
861.1865	1123.7139	65535	64632.95
861.3314	1125.6675	65535	64633.5
861.4763	1127.6204	65535	64631.45
861.6212	1129.5726	65535	64630.25
861.7661	1131.524	65535	64632.4
861.911	1133.4748	65535	64632.3
862.0559	1135.4248	65535	64631.55
862.2008	1137.3741	65535	64634.6
862.3457	1139.3226	65535	64629.8
862.4905	1141.2705	65535	64631.45
862.6354	1143.2176	65535	64626.45
862.7803	1145.164	65535	64629.55
862.9251	1147.1097	65535	64632.1
863.07	1149.0546	65535	64632.05
863.2148	1150.9989	65535	64631.85
863.3597	1152.9424	65535	64634
863.5045	1154.8852	65535	64631.7
863.6493	1156.8272	65535	64632.6
863.7942	1158.7686	65535	64625.55
863.939	1160.7092	65535	64630.35
864.0838	1162.6491	65535	64630
864.2286	1164.5883	65535	64633.75
864.3734	1166.5267	65535	64631.95
864.5182	1168.4644	65535	64632.45
864.663	1170.4014	65535	64626.8
864.8078	1172.3377	65535	64633.35
864.9526	1174.2732	65535	64632.85
865.0974	1176.2081	65535	64633.05
865.2421	1178.1421	65535	64626.9
865.3869	1180.0755	65535	64633.6
865.5317	1182.0082	65535	64632.7
865.6764	1183.9401	65535	64635.35
865.8212	1185.8713	65535	64633.65
865.9659	1187.8017	65535	64635.9
866.1106	1189.7315	65535	64637.2
866.2554	1191.6605	65535	64605.45
866.4001	1193.5888	65535	64633.4
866.5448	1195.5163	65535	64634.45
866.6895	1197.4432	65535	64631.4
866.8342	1199.3693	65535	64635.95
866.9789	1201.2947	65535	64628.5
867.1236	1203.2193	65535	64633.25
867.2683	1205.1432	65535	64632.35
867.413	1207.0664	65535	64632.95
867.5576	1208.9889	65535	64631.15
867.7023	1210.9106	65535	64633.1
867.847	1212.8316	65535	64633.55
867.9916	1214.7519	65535	64621
868.1363	1216.6715	65535	64633.15
868.2809	1218.5903	65535	64633.9
868.4255	1220.5084	65535	64630
868.5701	1222.4257	65535	64632.6
868.7148	1224.3424	65535	64632.35
868.8594	1226.2583	65535	64628.45
869.004	1228.1735	65535	64631.85
869.1486	1230.0879	65535	64631.75
869.2932	1232.0016	65535	64633.05
869.4377	1233.9146	65535	64631.1
869.5823	1235.8269	65535	64635.15
869.7269	1237.7384	65535	64633.6
869.8715	1239.6492	65535	64633.8
870.016	1241.5592	65535	64633.95
870.1606	1243.4686	65535	64634.25
870.3051	1245.3772	65535	64634
870.4496	1247.285	65535	64633.9
870.5941	1249.1922	65535	64631.8
870.7387	1251.0986	65535	64633.6
870.8832	1253.0042	65535	64631.8
871.0277	1254.9092	65535	64631.95
871.1722	1256.8134	65535	64633.65
871.3167	1258.7169	65535	64631
871.4611	1260.6196	65535	64634.8
871.6056	1262.5216	65535	64631.45
871.7501	1264.4229	65535	64634.9
871.8945	1266.3234	65535	64633.2
872.039	1268.2232	65535	64634.65
872.1834	1270.1223	65535	64630.8
872.3278	1272.0207	65535	64630.95
872.4723	1273.9183	65535	64624.7
872.6167	1275.8151	65535	64634.8
872.7611	1277.7113	65535	64633.15
872.9055	1279.6067	65535	64634
873.0499	1281.5014	65535	64631.6
873.1943	1283.3953	65535	64632.85
873.3386	1285.2885	65535	64637.25
873.483	1287.181	65535	64632.35
873.6274	1289.0727	65535	64633.85
873.7717	1290.9637	65535	64632.65
873.9161	1292.854	65535	64633
874.0604	1294.7435	65535	64632.7
874.2047	1296.6323	65535	64633.6
874.349	1298.5204	65535	64630.25
874.4933	1300.4077	65535	64633.95
874.6376	1302.2943	65535	64632.4
874.7819	1304.1802	65535	64635.35
874.9262	1306.0653	65535	64631.7
875.0705	1307.9497	65535	64632.55
875.2147	1309.8333	65535	64634.55
875.359	1311.7162	65535	64633.45
875.5032	1313.5984	65535	64632.1
875.6475	1315.4798	65535	64633.05
875.7917	1317.3605	65535	64618.55
875.9359	1319.2405	65535	64632.4
876.0801	1321.1197	65535	64631.8
876.2243	1322.9982	65535	64629.2
876.3685	1324.876	65535	64634.75
876.5127	1326.753	65535	64633.8
876.6569	1328.6293	65535	64630.2
876.801	1330.5048	65535	64630.9
876.9452	1332.3796	65535	64634.55
877.0893	1334.2537	65535	64609.95
877.2335	1336.127	65535	64635.35
877.3776	1337.9996	65535	64634.55
877.5217	1339.8714	65535	64633.2
877.6658	1341.7426	65535	64591.15
877.8099	1343.6129	65535	64632.45
877.954	1345.4826	65535	64633.95
878.0981	1347.3515	65535	64631.5
878.2422	1349.2196	65535	64630.7
878.3862	1351.087	65535	64632
878.5303	1352.9537	65535	64632.1
878.6743	1354.8197	65535	64634.45
878.8184	1356.6849	65535	64634.2
878.9624	1358.5493	65535	64634.05
879.1064	1360.4131	65535	64634.05
879.2504	1362.276	65535	64633.6
879.3944	1364.1383	65535	64634
879.5384	1365.9998	65535	64627.7
879.6823	1367.8606	65535	64633.55
879.8263	1369.7206	65535	64633.9
879.9702	1371.5799	65535	64634.85
880.1142	1373.4384	65535	64635.1
880.2581	1375.2962	65535	64633.7
880.402	1377.1533	65535	64631.65
880.5459	1379.0096	65535	64631.6
880.6898	1380.8652	65535	64634.75
880.8337	1382.7201	65535	64631.85
880.9776	1384.5742	65535	64635.5
881.1215	1386.4275	65535	64634.75
881.2653	1388.2802	65535	64636.35
881.4092	1390.132	65535	64634.25
881.553	1391.9832	65535	64631.35
881.6968	1393.8336	65535	64633.4
881.8406	1395.6832	65535	64634.1
881.9844	1397.5322	65535	64633.95
882.1282	1399.3803	65535	64629.05
882.272	1401.2278	65535	64631
882.4158	1403.0745	65535	64633.8
882.5595	1404.9204	65535	64635.4
882.7033	1406.7656	65535	64632.85
882.847	1408.6101	65535	64634.05
882.9908	1410.4538	65535	64633.2
883.1345	1412.2968	65535	64634.9
883.2782	1414.139	65535	64634.55
883.4219	1415.9805	65535	64635.4
883.5656	1417.8213	65535	64626.65
883.7092	1419.6613	65535	64637.25
883.8529	1421.5006	65535	64633.6
883.9965	1423.3391	65535	64634
884.1402	1425.1769	65535	64633.7
884.2838	1427.0139	65535	64632.3
884.4274	1428.8502	65535	64631.65
884.571	1430.6858	65535	64635.25
884.7146	1432.5206	65535	64634.45
884.8582	1434.3547	65535	64632.1
885.0018	1436.188	65535	64636.65
885.1453	1438.0206	65535	64635.3
885.2889	1439.8524	65535	64633.1
885.4324	1441.6835	65535	64634.1
885.5759	1443.5139	65535	64630.05
885.7194	1445.3435	65535	64634.5
885.8629	1447.1724	65535	64633.45
886.0064	1449.0005	65535	64632.8
886.1499	1450.8279	65535	64634.5
886.2933	1452.6545	65535	64634.1
886.4368	1454.4804	65535	64638.3
886.5802	1456.3056	65535	64626.6
886.7237	1458.13	65535	64634
886.8671	1459.9536	65535	64635.1
887.0105	1461.7766	65535	64637.45
887.1539	1463.5987	65535	64636.05
887.2972	1465.4202	65535	64633.3
887.4406	1467.2409	65535	64635.75
887.584	1469.0608	65535	64636.25
887.7273	1470.88	65535	64633.3
887.8706	1472.6984	65535	64635.45
888.0139	1474.5161	65535	64632.2
888.1572	1476.3331	65535	64637.75
888.3005	1478.1493	65535	64636.35
888.4438	1479.9648	65535	64636.7
888.5871	1481.7795	65535	64636.35
888.7303	1483.5935	65535	64635.7
888.8736	1485.4067	65535	64635.65
889.0168	1487.2192	65535	64634.4
889.16	1489.031	65535	64632.2
889.3032	1490.842	65535	64635.75
889.4464	1492.6522	65535	64636.1
889.5896	1494.4618	65535	64633.95
889.7327	1496.2705	65535	64635.8
889.8759	1498.0785	65535	64633.35
890.019	1499.8858	65535	64634.25
890.1622	1501.6924	65535	64635.8
890.3053	1503.4981	65535	64637
890.4484	1505.3032	65535	64635.8
890.5914	1507.1075	65535	64636.05
890.7345	1508.911	65535	64634.95
890.8776	1510.7138	65535	64636.85
891.0206	1512.5159	65535	64634.75
891.1637	1514.3172	65535	64636.05
891.3067	1516.1178	65535	64637.2
891.4497	1517.9176	65535	64633.05
891.5927	1519.7166	65535	64636.85
891.7357	1521.515	65535	64629.45
891.8786	1523.3126	65535	64635.35
892.0216	1525.1094	65535	64637.15
892.1645	1526.9055	65535	64636.7
892.3074	1528.7008	65535	64635.3
892.4503	1530.4954	65535	64634.25
892.5932	1532.2893	65535	64640.8
892.7361	1534.0824	65535	64632.3
892.879	1535.8747	65535	64635.2
893.0218	1537.6663	65535	64639.1
893.1647	1539.4572	65535	64633.35
893.3075	1541.2473	65535	64634.75
893.4503	1543.0367	65535	64638.7
893.5931	1544.8253	65535	64633.1
893.7359	1546.6132	65535	64634.5
893.8787	1548.4003	65535	64629.15
894.0214	1550.1867	65535	64627.6
894.1642	1551.9723	65535	64633.6
894.3069	1553.7572	65535	64636.75
894.4496	1555.5414	65535	64636.55
894.5923	1557.3247	65535	64637
894.735	1559.1074	65535	64638.15
894.8777	1560.8893	65535	64640.85
895.0204	1562.6705	65535	64639.9
895.163	1564.4509	65535	64638.65
895.3056	1566.2305	65535	64637.05
895.4482	1568.0094	65535	64638.4
895.5908	1569.7876	65535	64639.1
895.7334	1571.565	65535	64636.7
895.876	1573.3417	65535	64638.3
896.0186	1575.1176	65535	64640.45
896.1611	1576.8928	65535	64639.05
896.3036	1578.6672	65535	64639.8
896.4461	1580.4409	65535	64641.3
896.5886	1582.2138	65535	64637.15
896.7311	1583.986	65535	64638.6
896.8736	1585.7575	65535	64640.4
897.0161	1587.5282	65535	64641.7
897.1585	1589.2981	65535	64639.7
897.3009	1591.0673	65535	64638.9
897.4433	1592.8358	65535	64640.45
897.5857	1594.6035	65535	64637.7
897.7281	1596.3704	65535	64638.2
897.8705	1598.1366	65535	64638.9
898.0128	1599.9021	65535	64640
898.1551	1601.6668	65535	64639.05
898.2975	1603.4308	65535	64639.05
898.4398	1605.194	65535	64633.25
898.5821	1606.9564	65535	64639.95
898.7243	1608.7182	65535	64636.8
898.8666	1610.4791	65535	64640.2
899.0088	1612.2394	65535	64639.55
899.1511	1613.9988	65535	64642.7
899.2933	1615.7576	65535	64640.35
899.4355	1617.5156	65535	64633.8
899.5776	1619.2728	65535	64640.1
899.7198	1621.0293	65535	64639.4
899.862	1622.785	65535	64637.1
900.0041	1624.54	65535	64640.6
900.1462	1626.2942	65535	64639.25
900.2883	1628.0477	65535	64636.35
900.4304	1629.8005	65532.85	64636.1
900.5725	1631.5525	65535	64641.8
900.7145	1633.3037	65532.95	64639.1
900.8566	1635.0542	65530.3	64634.85
900.9986	1636.804	65535	64639.95
901.1406	1638.553	65523.05	64542.4
901.2826	1640.3013	65527.05	64634.4
901.4245	1642.0488	65519.9	64623.1
901.5665	1643.7955	65528.35	64635.55
901.7085	1645.5416	65523.15	64627.85
901.8504	1647.2868	65510.8	64617.8
901.9923	1649.0313	65530.7	64638.85
902.1342	1650.7751	65522.95	64624.55
902.2761	1652.5181	65512.5	64620.55
902.4179	1654.2604	65509.05	64613.75
902.5598	1656.0019	65512.8	64621.4
902.7016	1657.7427	65503.15	64609.65
902.8434	1659.4828	65520.3	64625.75
902.9852	1661.222	65487.95	64594.3
903.127	1662.9606	65525.9	64631.2
903.2687	1664.6984	65483.15	64590.1
903.4105	1666.4354	65512.7	64619.1
903.5522	1668.1717	65460.8	64566.25
903.6939	1669.9072	65393.4	64498.95
903.8356	1671.642	65394.35	64499.5
903.9773	1673.3761	65388	64494.15
904.119	1675.1094	65384.55	64489.55
904.2606	1676.8419	65325.2	64430.65
904.4022	1678.5737	65354.6	64460.3
904.5439	1680.3048	65323.8	64430.9
904.6855	1682.0351	65309.1	64416.3
904.827	1683.7646	65300.6	64403.7
904.9686	1685.4934	65318.85	64425.55
905.1101	1687.2215	65243.25	64349.15
905.2517	1688.9488	65293.5	64401.35
905.3932	1690.6754	65140.25	64249.15
905.5347	1692.4012	65242.45	64350.6
905.6761	1694.1263	65245.35	64351.85
905.8176	1695.8506	65177.3	64281.85
905.9591	1697.5742	65191.35	64298.4
906.1005	1699.297	65177.7	64282.7
906.2419	1701.0191	65192.65	64300
906.3833	1702.7404	65064.9	64172.95
906.5246	1704.461	64976.2	64082.9
906.666	1706.1808	65135.65	64245.05
906.8073	1707.8999	65056.85	64163.25
906.9487	1709.6182	65012.2	64120.65
907.09	1711.3358	64994.5	64099.35
907.2313	1713.0527	64974.2	64083.05
907.3725	1714.7688	64972.7	64073.5
907.5138	1716.4841	64694.05	63799.35
907.655	1718.1987	64816.2	63919.35
907.7962	1719.9126	64751.35	63859.8
907.9374	1721.6257	64844.45	63951.05
908.0786	1723.338	64841.2	63947.85
908.2198	1725.0496	64509	63616.35
908.3609	1726.7605	64568.1	63676.15
908.502	1728.4706	64457.8	63565.2
908.6431	1730.18	64566.3	63671.3
908.7842	1731.8886	64414.05	63522.8
908.9253	1733.5964	64323.15	63425.55
909.0664	1735.3036	64515.55	63619.2
909.2074	1737.0099	64383.3	63493.6
909.3484	1738.7156	64215	63325.3
909.4894	1740.4204	64155.7	63262.15
909.6304	1742.1246	64260.1	63365.65
909.7714	1743.8279	64281.8	63389.8
909.9123	1745.5306	64274.7	63383.35
910.0532	1747.2325	63771.35	62880.25
910.1941	1748.9336	63822.3	62930.8
910.335	1750.634	64000.15	63105.6
910.4759	1752.3336	64111.1	63221.5
910.6168	1754.0325	63737.75	62849.55
910.7576	1755.7307	64062.9	63171.7
910.8984	1757.4281	63578.05	62685.6
911.0392	1759.1247	63946.2	63048.25
911.18	1760.8206	63379.35	62481.9
911.3208	1762.5158	63452.35	62556.65
911.4615	1764.2102	63569	62677.5
911.6022	1765.9039	63488.65	62596.5
911.7429	1767.5968	63341.75	62451.6
911.8836	1769.289	63257.65	62364.85
912.0243	1770.9804	63390	62498.9
912.1649	1772.6711	63222.1	62328.45
912.3056	1774.361	63112.7	62220.8
912.4462	1776.0502	63143.75	62251.8
912.5868	1777.7386	62523.6	61626.6
912.7274	1779.4263	62875.95	61983
912.8679	1781.1132	62899.35	62008.65
913.0084	1782.7994	62749.15	61855.95
913.149	1784.4849	62778.55	61890.7
913.2895	1786.1696	62079.4	61181.65
913.4299	1787.8535	62499	61607.85
913.5704	1789.5367	62613.75	61720.6
913.7108	1791.2192	62141.65	61250.4
913.8513	1792.9009	61858.85	60938.75
913.9917	1794.5818	62250	61358.8
914.132	1796.2621	61827.3	60936.55
914.2724	1797.9415	61877.9	60986.25
914.4128	1799.6202	61816.7	60925.4
914.5531	1801.2982	61857.05	60965.2
914.6934	1802.9755	61436.75	60542.75
914.8337	1804.6519	61271.65	60380.75
914.9739	1806.3277	61897.15	61007.5
915.1142	1808.0027	60868.35	59977.25
915.2544	1809.6769	61245.25	60354.1
915.3946	1811.3504	61345.5	60454.45
915.5348	1813.0231	60542.55	59650.95
915.675	1814.6951	61063.35	60172.2
915.8151	1816.3664	60710.35	59816.25
915.9553	1818.0369	60727.1	59836.9
916.0954	1819.7067	60497.75	59606.2
916.2355	1821.3757	60970.85	60076.85
916.3755	1823.044	60307.2	59416.25
916.5156	1824.7115	59908.6	59016.8
916.6556	1826.3783	60204	59313.25
916.7956	1828.0443	60198.75	59306.8
916.9356	1829.7096	59948.15	59057.8
917.0756	1831.3741	59279.25	58384.6
917.2155	1833.0379	59747.35	58855.55
917.3555	1834.701	59674.2	58782.7
917.4954	1836.3633	59176.5	58282.95
917.6353	1838.0248	59492.85	58599.2
917.7751	1839.6856	59312.85	58422.1
917.915	1841.3457	58813.25	57922.95
918.0548	1843.005	59398.85	58509.95
918.1946	1844.6636	58946	58055.8
918.3344	1846.3214	58180.4	57289.8
918.4742	1847.9785	58434.5	57544.3
918.6139	1849.6349	58330.55	57437.8
918.7537	1851.2904	58911.95	58012.6
918.8934	1852.9453	57957.95	57067
919.0331	1854.5994	58311.8	57416.9
919.1727	1856.2528	58312.15	57417.5
919.3124	1857.9054	57742.25	56849
919.452	1859.5572	57499.95	56611.4
919.5916	1861.2083	57765.7	56874.9
919.7312	1862.8587	58342.95	57451.6
919.8708	1864.5084	56826.1	55935.15
920.0103	1866.1572	57474.15	56583.35
920.1498	1867.8054	56771.9	55878.9
920.2893	1869.4528	57153.4	56260.75
920.4288	1871.0994	56551.4	55659.95
920.5683	1872.7453	56493.85	55602.4
920.7077	1874.3905	56773.7	55874.9
920.8471	1876.0349	56184.35	55293.6
920.9865	1877.6786	56621.35	55728.1
921.1259	1879.3215	56010.85	55120.9
921.2653	1880.9637	56625.75	55732.8
921.4046	1882.6051	56086.15	55195.3
921.5439	1884.2458	55783.6	54889.3
921.6832	1885.8858	55466.65	54576.55
921.8225	1887.525	55645.9	54754.6
921.9617	1889.1634	55468.95	54579
922.101	1890.8011	55196.05	54304.6
922.2402	1892.4381	54586.1	53695.65
922.3794	1894.0743	55233.3	54344.1
922.5185	1895.7098	54848	53957.05
922.6577	1897.3446	54529.95	53640
922.7968	1898.9786	54677.65	53782.85
922.9359	1900.6118	54306.9	53417.4
923.075	1902.2443	53923.95	53032.3
923.214	1903.8761	54301.9	53410.6
923.3531	1905.5071	53913.95	53022.45
923.4921	1907.1374	53161.95	52270.9
923.6311	1908.7669	53471.85	52579.95
923.77	1910.3957	53703.15	52812.95
923.909	1912.0237	53049.55	52158.7
924.0479	1913.651	52805.55	51913.65
924.1868	1915.2776	52669.05	51778.3
924.3257	1916.9034	52564.95	51675.95
924.4646	1918.5285	52367.1	51478.65
924.6034	1920.1528	52356.65	51465.45
924.7422	1921.7764	52177.25	51286.4
924.881	1923.3992	52041.15	51150.8
925.0198	1925.0213	51642.4	50751.25
925.1586	1926.6427	51158.8	50268.8
925.2973	1928.2633	51374.25	50405.5
925.436	1929.8832	51161.6	50268.05
925.5747	1931.5023	51027.2	50136.75
925.7134	1933.1207	50623.6	49732.45
925.852	1934.7383	50789.9	49898.85
925.9906	1936.3552	50407.35	49517.45
926.1292	1937.9714	50416.35	49526.4
926.2678	1939.5868	50290.45	49396.6
926.4064	1941.2015	49868.8	48976.95
926.5449	1942.8154	49572	48681.6
926.6834	1944.4286	49539.15	48647.65
926.8219	1946.041	49479.45	48570.75
926.9604	1947.6528	49253.1	48357.8
927.0988	1949.2637	49057.35	48168.35
927.2372	1950.8739	48844.7	47953.2
927.3756	1952.4834	48812.3	47921.45
927.514	1954.0921	48731.5	47838.9
927.6523	1955.7001	48352.35	47458.8
927.7907	1957.3074	48376.9	47489.1
927.929	1958.9139	48023.3	47135.2
928.0673	1960.5197	48003.25	47112.55
928.2055	1962.1247	47783.95	46893.4
928.3438	1963.729	47555.6	46664.5
928.482	1965.3325	47385.15	46470.55
928.6202	1966.9353	47347.55	46458.8
928.7584	1968.5374	47066.1	46176.4
928.8965	1970.1387	46895.7	46006.5
929.0346	1971.7393	46749.35	45860.1
929.1727	1973.3392	46628.45	45737.25
929.3108	1974.9383	46422.45	45532.95
929.4489	1976.5366	46168.05	45278.65
929.5869	1978.1342	46204.15	45310.45
929.7249	1979.7311	46057.4	45165.55
929.8629	1981.3273	45947.8	45058.1
930.0009	1982.9227	45764.85	44875.9
930.1388	1984.5173	45621.3	44733.1
930.2767	1986.1112	45414.45	44524.95
930.4146	1987.7044	45332.05	44443.6
930.5525	1989.2968	45042.2	44151.1
930.6904	1990.8885	45092.45	44200.2
930.8282	1992.4795	44902.05	44012.15
930.966	1994.0697	44719.6	43832.8
931.1038	1995.6592	44620.6	43732.8
931.2415	1997.2479	44452.85	43564.7
931.3793	1998.8359	44377.8	43491.1
931.517	2000.4232	44141.05	43253.4
931.6547	2002.0097	44041	43155.25
931.7923	2003.5955	43864.7	42975.3
931.93	2005.1805	43772.6	42880.65
932.0676	2006.7648	43646.95	42756.8
932.2052	2008.3484	43518.65	42626.75
932.3427	2009.9312	43521.45	42630.25
932.4803	2011.5133	43297.15	42408.6
932.6178	2013.0946	43137.35	42250.25
932.7553	2014.6752	43068.2	42178.45
932.8928	2016.2551	42941.9	42052.7
933.0302	2017.8342	42743.35	41854.15
933.1676	2019.4126	42524.05	41635.85
933.305	2020.9902	42422.3	41532.9
933.4424	2022.5672	42323.85	41431.9
933.5798	2024.1433	42268.1	41374.05
933.7171	2025.7188	42053.75	41167.1
933.8544	2027.2935	41946.85	41060.45
933.9917	2028.8674	41818.85	40932.2
934.129	2030.4406	41711.6	40822.95
934.2662	2032.0131	41455.1	40567.4
934.4034	2033.5849	41297.35	40399
934.5406	2035.1559	41284.35	40395.25
934.6778	2036.7261	41202.15	40314.25
934.8149	2038.2957	41134.75	40248
934.952	2039.8645	40996.1	40107.5
935.0891	2041.4325	40966.6	40073.8
935.2262	2042.9998	40767.8	39878.15
935.3632	2044.5664	40665.1	39775.05
935.5002	2046.1323	40553.9	39666.6
935.6372	2047.6974	40424.6	39537.5
935.7742	2049.2617	40356.2	39466.25
935.9111	2050.8254	40310.85	39417.5
936.048	2052.3883	40211.65	39322.95
936.1849	2053.9504	40107.15	39217.95
936.3218	2055.5118	39963.4	39075.3
936.4586	2057.0725	39692.95	38800.25
936.5955	2058.6325	39648.1	38759.65
936.7323	2060.1917	39524.05	38634.8
936.869	2061.7502	39467.95	38576.8
937.0058	2063.3079	39244.35	38356.15
937.1425	2064.8649	39159.55	38265.75
937.2792	2066.4212	39038.4	38149.95
937.4159	2067.9767	38891.4	38003.2
937.5525	2069.5315	38673.15	37784.55
937.6891	2071.0856	38545.75	37657.35
937.8257	2072.6389	38443.7	37554.3
937.9623	2074.1915	38264.45	37377.8
938.0989	2075.7433	38058.35	37166.75
938.2354	2077.2945	38001.9	37113.75
938.3719	2078.8448	37875.6	36987.9
938.5084	2080.3945	37755.35	36866.5
938.6448	2081.9434	37703.6	36813.3
938.7812	2083.4916	37583.45	36693.4
938.9176	2085.039	37421.85	36529.65
939.054	2086.5857	37314.15	36424.25
939.1903	2088.1317	37282	36391.45
939.3267	2089.677	37144.2	36255.5
939.463	2091.2215	37068.15	36180.35
939.5992	2092.7652	36949.6	36057.45
939.7355	2094.3083	36813.65	35922.6
939.8717	2095.8506	36812.2	35923.9
940.0079	2097.3921	36722.75	35833.4
940.1441	2098.933	36582.75	35692.8
940.2802	2100.4731	36511.3	35620.75
940.4163	2102.0124	36449.65	35552.1
940.5524	2103.5511	36353.25	35466.15
940.6885	2105.089	36241.9	35355.1
940.8245	2106.6261	36162.7	35274.35
940.9606	2108.1626	36060.3	35169.4
941.0965	2109.6983	36029.15	35109.95
941.2325	2111.2332	35870.05	34979.75
941.3684	2112.7675	35783.8	34893.9
941.5044	2114.301	35655.55	34765.55
941.6403	2115.8337	35660.15	34771.1
941.7761	2117.3657	35487.2	34599.15
941.912	2118.897	35407.45	34516.4
942.0478	2120.4276	35284.65	34388.75
942.1835	2121.9575	35111.9	34222.35
942.3193	2123.4866	35112.5	34209.75
942.455	2125.0149	34985.4	34093.5
942.5907	2126.5426	34786	33896.1
942.7264	2128.0695	34742.65	33849.55
942.8621	2129.5956	34638.35	33752.65
942.9977	2131.1211	34584.7	33691.8
943.1333	2132.6458	34448.75	33559.2
943.2689	2134.1698	34373.65	33483.2
943.4044	2135.693	34265.8	33373.2
943.54	2137.2155	34198.3	33307.2
943.6755	2138.7373	34128	33236.7
943.8109	2140.2584	33965	33074.2
943.9464	2141.7787	33848.75	32955.75
944.0818	2143.2983	33726.55	32838.1
944.2172	2144.8171	33522.3	32634.7
944.3526	2146.3353	33493.4	32604.95
944.4879	2147.8527	33359.4	32470.95
944.6232	2149.3693	33353.8	32464.7
944.7585	2150.8853	33235.4	32345.05
944.8938	2152.4005	33056.5	32166.5
945.029	2153.9149	32989.9	32102.25
945.1642	2155.4287	32863.8	31975.2
945.2994	2156.9417	32831.4	31939.95
945.4346	2158.454	32660.15	31767.1
945.5697	2159.9655	32672.35	31782.65
945.7048	2161.4764	32620.45	31730
945.8399	2162.9865	32471.5	31582.55
945.9749	2164.4958	32411.15	31521.1
946.1099	2166.0045	32241.65	31350.95
946.2449	2167.5124	32211.1	31321.35
946.3799	2169.0195	32086.9	31198.85
946.5148	2170.526	32078.4	31188.5
946.6498	2172.0317	31901.75	31010.65
946.7846	2173.5367	31821.75	30932
946.9195	2175.0409	31736.6	30850.1
947.0543	2176.5445	31723.2	30835.6
947.1891	2178.0473	31573.6	30682.1
947.3239	2179.5494	31394.95	30502.1
947.4587	2181.0507	31341.85	30450.8
947.5934	2182.5513	31276.9	30387.65
947.7281	2184.0512	31117.8	30228.95
947.8628	2185.5504	31028.9	30140.9
947.9974	2187.0488	30863.8	29974.85
948.132	2188.5465	30787.2	29898.4
948.2666	2190.0435	30678.4	29790.1
948.4012	2191.5397	30596.5	29709.45
948.5357	2193.0353	30453.7	29565.25
948.6702	2194.5301	30298.85	29410.25
948.8047	2196.0241	30191	29299.15
948.9392	2197.5175	30153.4	29265.1
949.0736	2199.0101	30071.65	29177.85
949.208	2200.502	29858.8	28969.7
949.3424	2201.9931	29753.7	28867.4
949.4767	2203.4835	29635.75	28746.9
949.611	2204.9733	29618.15	28723.95
949.7453	2206.4622	29561.7	28672.8
949.8796	2207.9505	29424.75	28533.35
950.0138	2209.438	29273.9	28385.35
950.148	2210.9248	29187.3	28296.25
950.2822	2212.4109	29103.3	28215
950.4164	2213.8962	28993.15	28100.75
950.5505	2215.3809	28898.9	28008.8
950.6846	2216.8648	28850.65	27962.6
950.8186	2218.3479	28712.65	27821.65
950.9527	2219.8304	28667.75	27776.95
951.0867	2221.3121	28537.15	27648.95
951.2207	2222.7931	28409.25	27522.4
951.3546	2224.2733	28288.6	27399.8
951.4886	2225.7529	28228.25	27338.95
951.6225	2227.2317	28111.15	27218.65
951.7563	2228.7098	28077.15	27186.45
951.8902	2230.1872	27911.45	27020.95
952.024	2231.6638	27926.6	27037.1
952.1578	2233.1397	27819.75	26924.5
952.2916	2234.6149	27708.95	26819.45
952.4253	2236.0894	27609.85	26721.5
952.559	2237.5632	27558.75	26670.7
952.6927	2239.0362	27421.25	26530.35
952.8263	2240.5085	27317.55	26430.3
952.9599	2241.9801	27237	26348.75
953.0935	2243.4509	27179.5	26287.9
953.2271	2244.921	27044	26155.1
953.3606	2246.3904	26966.4	26075.7
953.4941	2247.8591	26859.3	25971.6
953.6276	2249.3271	26797.4	25909.65
953.7611	2250.7943	26680	25790.15
953.8945	2252.2608	26563	25674.8
954.0279	2253.7266	26546.4	25658.1
954.1612	2255.1917	26402.95	25513
954.2946	2256.656	26307.65	25417.35
954.4279	2258.1197	26234.55	25348.5
954.5612	2259.5826	26199.1	25307.85
954.6944	2261.0447	26086.95	25196.65
954.8276	2262.5062	26010	25118.5
954.9608	2263.9669	25966.3	25073.95
955.094	2265.4269	25954.6	25065.65
955.2271	2266.8862	25821.4	24931.7
955.3602	2268.3448	25762.4	24872.15
955.4933	2269.8026	25723.85	24835.2
955.6264	2271.2598	25624.2	24735.45
955.7594	2272.7162	25509.4	24622.05
955.8924	2274.1719	25429.55	24539.25
956.0253	2275.6268	25364.3	24474.4
956.1583	2277.0811	25312.35	24423.3
956.2912	2278.5346	25231.1	24343.1
956.4241	2279.9874	25174.9	24284.75
956.5569	2281.4395	25142.1	24254.15
956.6897	2282.8908	25025.95	24131.65
956.8225	2284.3414	24987.8	24097.05
956.9553	2285.7914	24868.9	23981.45
957.088	2287.2406	24778.6	23889.85
957.2207	2288.689	24722.5	23832.9
957.3534	2290.1368	24647.7	23758.7
957.486	2291.5838	24521.95	23629.25
957.6186	2293.0302	24454.1	23565.35
957.7512	2294.4758	24336.15	23448.55
957.8838	2295.9206	24217.35	23327
958.0163	2297.3648	24199.15	23309.4
958.1488	2298.8082	24192.35	23304.55
958.2813	2300.251	24110.65	23222.35
958.4137	2301.693	24010.7	23119.85
958.5461	2303.1343	23987.35	23097.55
958.6785	2304.5748	23858.5	22971.45
958.8108	2306.0147	23746	22855.2
958.9432	2307.4538	23698.2	22809
959.0754	2308.8922	23646.4	22759.55
959.2077	2310.3299	23552.8	22664.75
959.3399	2311.7669	23499.4	22611.35
959.4721	2313.2031	23450.8	22561.5
959.6043	2314.6387	23309.75	22419.4
959.7365	2316.0735	23227.8	22336.6
959.8686	2317.5076	23192	22302.25
960.0006	2318.941	23130.7	22239.05
960.1327	2320.3737	23090.65	22203.35
960.2647	2321.8056	23021.95	22131.15
960.3967	2323.2369	22906.3	22014.15
960.5287	2324.6674	22818.05	21928.4
960.6606	2326.0972	22744.15	21853.7
960.7925	2327.5263	22682.3	21794.5
960.9244	2328.9547	22606.65	21716.3
961.0562	2330.3823	22486.8	21595.3
961.1881	2331.8092	22508.35	21615.05
961.3198	2333.2355	22335.3	21446.25
961.4516	2334.661	22355.5	21466.6
961.5833	2336.0858	22325.7	21435.4
961.715	2337.5098	22250.95	21363.2
961.8467	2338.9332	22209.95	21321.35
961.9783	2340.3558	22128.75	21236.5
962.1099	2341.7778	22048.55	21160.45
962.2415	2343.199	21969.55	21078.35
962.373	2344.6195	21857.9	20970.65
962.5045	2346.0393	21810.7	20922.1
962.636	2347.4583	21809	20918.7
962.7675	2348.8767	21689.8	20799.55
962.8989	2350.2943	21618.35	20728.75
963.0303	2351.7113	21606	20715.85
963.1617	2353.1275	21544.25	20656.8
963.293	2354.543	21430.75	20531.7
963.4243	2355.9578	21353.8	20466.05
963.5556	2357.3718	21209.8	20320.9
963.6868	2358.7852	21136.75	20243.85
963.818	2360.1978	21086.15	20196.5
963.9492	2361.6098	21009.7	20120.25
964.0803	2363.021	20972.35	20080.55
964.2114	2364.4315	20894.05	20004.55
964.3425	2365.8413	20865.05	19976.1
964.4736	2367.2504	20764.7	19876.7
964.6046	2368.6587	20693.85	19806.2
964.7356	2370.0664	20590.75	19701.3
964.8666	2371.4733	20547.35	19657.15
964.9975	2372.8795	20459.05	19571.25
965.1284	2374.285	20366.7	19475.95
965.2593	2375.6899	20279.1	19390.7
965.3901	2377.0939	20153.85	19266.05
965.5209	2378.4973	20113.55	19226.45
965.6517	2379.9	20055.4	19166.35
965.7825	2381.3019	20010.85	19121.95
965.9132	2382.7032	19904.7	19017.05
966.0439	2384.1037	19934.75	19047.8
966.1745	2385.5035	19841.75	18953.3
966.3051	2386.9027	19735.9	18847.65
966.4357	2388.3011	19704.3	18812.75
966.5663	2389.6987	19618.05	18730.7
966.6968	2391.0957	19520.1	18631.95
966.8273	2392.492	19435	18547.7
966.9578	2393.8876	19315.25	18426
967.0882	2395.2824	19262.1	18373.4
967.2186	2396.6765	19177	18290.9
967.349	2398.07	19089.15	18202.7
967.4793	2399.4627	19103.5	18213.35
967.6097	2400.8547	19019.85	18131.7
967.7399	2402.246	18974.15	18081.7
967.8702	2403.6366	18828.2	17940.7
968.0004	2405.0265	18770.9	17883.5
968.1306	2406.4156	18706	17813.8
968.2607	2407.8041	18654.45	17762.55
968.3909	2409.1918	18562.1	17669.95
968.521	2410.5789	18445.5	17557.15
968.651	2411.9652	18450.25	17557.9
968.781	2413.3508	18352.75	17465.15
968.911	2414.7358	18281.65	17390.4
969.041	2416.12	18164.45	17276.75
969.1709	2417.5035	18121.3	17234.4
969.3008	2418.8863	18050.7	17161.8
969.4307	2420.2684	18043.4	17154.9
969.5606	2421.6497	17909.25	17020.95
969.6904	2423.0304	17834.3	16944.5
969.8201	2424.4104	17804.15	16912.9
969.9499	2425.7896	17716.5	16825.95
970.0796	2427.1682	17677.7	16788.95
970.2093	2428.546	17658.95	16769.25
970.3389	2429.9232	17574.75	16684.05
970.4685	2431.2996	17546.3	16658.3
970.5981	2432.6753	17503.95	16616.5
970.7277	2434.0503	17424.2	16534.95
970.8572	2435.4246	17363.75	16475.3
970.9867	2436.7982	17304.4	16412.4
971.1161	2438.1711	17256.35	16366
971.2456	2439.5433	17204.35	16314.55
971.375	2440.9148	17121.3	16228.65
971.5043	2442.2856	17040.65	16152.8
971.6336	2443.6557	16990.85	16100.65
971.7629	2445.025	16911.7	16023.35
971.8922	2446.3937	16885.8	15996.45
972.0214	2447.7617	16821.85	15931.15
972.1506	2449.1289	16774.8	15887.55
972.2798	2450.4955	16743.7	15848.45
972.4089	2451.8613	16712.55	15824.75
972.538	2453.2265	16619.1	15732.45
972.6671	2454.5909	16615.05	15725.1
972.7961	2455.9546	16555.2	15666.55
972.9251	2457.3177	16497.6	15608.85
973.0541	2458.68	16445.45	15554.65
973.1831	2460.0416	16421	15532.4
973.312	2461.4025	16381.15	15492.45
973.4408	2462.7627	16327.5	15426.65
973.5697	2464.1222	16268.2	15379.8
973.6985	2465.4811	16213.85	15324.95
973.8273	2466.8392	16155.15	15267.2
973.956	2468.1966	16099.65	15209.95
974.0847	2469.5533	16101.65	15212.65
974.2134	2470.9093	16057.65	15170.4
974.3421	2472.2645	15978.1	15088.35
974.4707	2473.6191	15948.95	15060.2
974.5993	2474.973	15847.7	14959.15
974.7278	2476.3262	15792.6	14903.5
974.8563	2477.6787	15748.3	14860.55
974.9848	2479.0305	15660.8	14773.95
975.1132	2480.3816	15597.75	14708.65
975.2417	2481.7319	15580.45	14691.45
975.37	2483.0816	15487.45	14596.2
975.4984	2484.4306	15419.4	14530.7
975.6267	2485.7789	15386.25	14499.3
975.755	2487.1264	15330	14441.1
975.8833	2488.4733	15256.65	14369.9
976.0115	2489.8195	15193.8	14298.6
976.1397	2491.165	15127.55	14235.85
976.2678	2492.5097	15087.1	14196.2
976.3959	2493.8538	14998.15	14108.85
976.524	2495.1972	14952.7	14063.35
976.6521	2496.5398	14880.45	13989.6
976.7801	2497.8818	14839.5	13949.85
976.9081	2499.2231	14793.9	13903.95
977.036	2500.5637	14751.85	13862.75
977.164	2501.9035	14680.15	13792.25
977.2918	2503.2427	14634.55	13743.8
977.4197	2504.5812	14593.45	13705.2
977.5475	2505.919	14531.1	13640
977.6753	2507.256	14536.85	13648.65
977.8031	2508.5924	14457.35	13568.9
977.9308	2509.9281	14396.4	13501.5
978.0585	2511.2631	14357.6	13469.1
978.1861	2512.5974	14308.7	13420.25
978.3137	2513.9309	14276.1	13385.4
978.4413	2515.2638	14218.9	13303.35
978.5689	2516.596	14167.45	13280
978.6964	2517.9275	14108	13219.05
978.8239	2519.2583	14074	13185.35
978.9513	2520.5884	13981.8	13093.6
979.0788	2521.9178	13956.4	13070.45
979.2062	2523.2465	13852.25	12965.05
979.3335	2524.5745	13826.35	12938.05
979.4608	2525.9018	13765.85	12877.6
979.5881	2527.2284	13754.9	12866.6
979.7154	2528.5543	13733.65	12845.65
979.8426	2529.8796	13671.9	12785.45
979.9698	2531.2041	13614.8	12725.65
980.0969	2532.5279	13601.35	12714.55
980.224	2533.851	13609.65	12720.55
980.3511	2535.1735	13522.2	12634.2
980.4781	2536.4952	13485.2	12597.6
980.6052	2537.8163	13430.05	12540
980.7321	2539.1366	13405.55	12514.9
980.8591	2540.4562	13335.65	12444.15
980.986	2541.7752	13338.65	12451.25
981.1129	2543.0935	13298.05	12408.05
981.2397	2544.411	13283.35	12394.2
981.3665	2545.7279	13286.6	12399.7
981.4933	2547.0441	13253.4	12364.75
981.62	2548.3596	13249.65	12358.95
981.7467	2549.6744	13164.55	12274.8
981.8734	2550.9885	13101.3	12204.75
982.0001	2552.3019	13065.2	12178.15
982.1267	2553.6146	13047.2	12159.25
982.2532	2554.9266	13002.25	12113.3
982.3798	2556.2379	12985.1	12095.5
982.5063	2557.5485	12940.2	12053.6
982.6327	2558.8585	12901.3	12005.8
982.7592	2560.1677	12887.5	11995
982.8856	2561.4762	12848.15	11959.7
983.0119	2562.7841	12839.05	11947.8
983.1383	2564.0913	12792.3	11904.1
983.2646	2565.3977	12756.5	11868.75
983.3908	2566.7035	12705.7	11817
983.517	2568.0086	12710.6	11819.15
983.6432	2569.313	12655.75	11766.6
983.7694	2570.6167	12637.1	11744.95
983.8955	2571.9197	12608.2	11719.75
984.0216	2573.222	12564.35	11670.5
984.1476	2574.5236	12517.6	11628.6
984.2737	2575.8246	12489.8	11597.3
984.3996	2577.1248	12451.1	11560.5
984.5256	2578.4244	12434.25	11547.6
984.6515	2579.7232	12443.35	11556.4
984.7774	2581.0214	12420.75	11507.75
984.9032	2582.3189	12386.05	11500.75
985.029	2583.6157	12359.7	11467.6
985.1548	2584.9118	12329.85	11441.35
985.2806	2586.2072	12266.65	11379.55
985.4063	2587.5019	12229.25	11340.35
985.5319	2588.7959	12210.05	11319.25
985.6576	2590.0893	12190.8	11301.45
985.7832	2591.3819	12155.65	11268.8
985.9087	2592.6739	12106.85	11219.3
986.0343	2593.9652	12075.5	11186.7
986.1597	2595.2557	12031.05	11143.55
986.2852	2596.5456	11962.9	11070.95
986.4106	2597.8348	11919.1	11032.4
986.536	2599.1234	11842.05	10952.75
986.6614	2600.4112	11809	10917.95
986.7867	2601.6983	11776	10883.2
986.912	2602.9848	11725.05	10837.65
987.0372	2604.2705	11673.8	10779.85
987.1624	2605.5556	11680.35	10791.7
987.2876	2606.84	11623.55	10736.95
987.4128	2608.1237	11592.45	10702.6
987.5379	2609.4067	11538.5	10650.1
987.6629	2610.689	11512.35	10615.65
987.788	2611.9707	11477.8	10585.35
987.913	2613.2516	11424.35	10531.2
988.0379	2614.5319	11352.1	10465.75
988.1629	2615.8115	11311.8	10422.7
988.2878	2617.0903	11252.65	10364.55
988.4126	2618.3685	11221.85	10331
988.5375	2619.6461	11196.85	10307.45
988.6622	2620.9229	11166.9	10278.6
988.787	2622.199	11136.95	10248.7
988.9117	2623.4745	11073.1	10183.45
989.0364	2624.7493	11044.4	10156.05
989.161	2626.0234	10997.7	10109.9
989.2857	2627.2968	10981.65	10093.55
989.4102	2628.5695	10955.95	10065.6
989.5348	2629.8415	10870.95	9982
989.6593	2631.1128	10835.95	9946.95
989.7837	2632.3835	10781.3	9894.1
989.9082	2633.6535	10746	9859.9
990.0326	2634.9228	10716.2	9829.45
990.1569	2636.1914	10673.9	9788.2
990.2812	2637.4593	10667.9	9775.1
990.4055	2638.7265	10616.05	9728.25
990.5298	2639.9931	10570.8	9682.8
990.654	2641.259	10545.15	9654.55
990.7782	2642.5242	10481.5	9591.85
990.9023	2643.7887	10461.95	9572.05
991.0264	2645.0525	10443.25	9554.05
991.1505	2646.3156	10407.55	9517.9
991.2745	2647.5781	10377.45	9488.8
991.3985	2648.8398	10306.3	9418.7
991.5225	2650.1009	10292.2	9366.55
991.6464	2651.3613	10262.25	9374.6
991.7703	2652.6211	10203.35	9313.3
991.8942	2653.8801	10193.25	9306.45
992.018	2655.1385	10184.75	9292.5
992.1418	2656.3961	10128.75	9241.3
992.2655	2657.6531	10107.9	9218
992.3892	2658.9094	10100.75	9211.9
992.5129	2660.1651	10048.6	9162.05
992.6366	2661.42	10046.75	9160.2
992.7602	2662.6743	10004.3	9113.7
992.8837	2663.9279	9975.5	9086.8
993.0073	2665.1808	9946.1	9059.15
993.1307	2666.433	9905.35	9016.1
993.2542	2667.6846	9884.25	8997.8
993.3776	2668.9354	9880	8990.95
993.501	2670.1856	9833.1	8944.25
993.6244	2671.4351	9790.85	8900.4
993.7477	2672.6839	9773.65	8882.35
993.8709	2673.9321	9734.15	8846.85
993.9942	2675.1795	9723.1	8833.8
994.1174	2676.4263	9680.9	8792.15
994.2405	2677.6724	9658.65	8771.7
994.3637	2678.9179	9615.2	8727.35
994.4868	2680.1626	9608.05	8720.9
994.6098	2681.4067	9575.95	8687.85
994.7328	2682.6501	9542.65	8654.6
994.8558	2683.8928	9511.05	8623
994.9788	2685.1348	9495.1	8607.95
995.1017	2686.3761	9437.6	8549.55
995.2245	2687.6168	9413.45	8524.5
995.3474	2688.8568	9383.4	8496.95
995.4702	2690.0961	9348.2	8462.9
995.5929	2691.3348	9328.3	8440.45
995.7156	2692.5727	9267.8	8380.65
995.8383	2693.81	9241.2	8351.6
995.961	2695.0466	9232.05	8346.4
996.0836	2696.2826	9198.1	8310.95
996.2062	2697.5178	9204.75	8314.35
996.3287	2698.7524	9161	8271.55
996.4512	2699.9863	9123.15	8233.85
996.5737	2701.2195	9052.75	8166.35
996.6961	2702.452	9046.75	8156.8
996.8185	2703.6839	9036.55	8146.15
996.9408	2704.9151	9006.5	8120.7
997.0631	2706.1456	8955.9	8069.15
997.1854	2707.3755	8926.5	8036.8
997.3077	2708.6046	8922.35	8031.15
997.4299	2709.8331	8888.6	7999.45
997.552	2711.0609	8870.95	7982.95
997.6742	2712.2881	8837.5	7948.9
997.7963	2713.5145	8799.3	7910.45
997.9183	2714.7403	8788.45	7900.3
998.0403	2715.9654	8765.35	7876.35
998.1623	2717.1899	8730.2	7828.5
998.2842	2718.4136	8711.05	7823.5
998.4062	2719.6367	8698	7809.55
998.528	2720.8591	8688.25	7793.65
998.6498	2722.0809	8625.95	7736.4
998.7716	2723.3019	8623.15	7731.35
998.8934	2724.5223	8572.8	7684.45
999.0151	2725.7421	8543.65	7654.4
999.1368	2726.9611	8519.8	7631
999.2584	2728.1795	8528.6	7634.65
999.38	2729.3972	8469.05	7581.9
999.5016	2730.6142	8421.25	7525.65
999.6231	2731.8306	8387.15	7497.25
999.7446	2733.0462	8338.6	7449.15
999.8661	2734.2612	8315.15	7422.75
999.9875	2735.4756	8263.35	7374.2
1000.1089	2736.6892	8213.4	7325.25
1000.2302	2737.9022	8162.05	7274.45
1000.3515	2739.1145	8109.15	7223.3
1000.4728	2740.3262	8088.45	7192.35
1000.594	2741.5372	8017.75	7130.65
1000.7152	2742.7475	7992.85	7104.8
1000.8363	2743.9571	8001.1	7109.55
1000.9575	2745.1661	7965.35	7071.15
1001.0785	2746.3744	7925.15	7036.35
1001.1996	2747.582	7883.1	6994.6
1001.3206	2748.7889	7881.65	6991.8
1001.4415	2749.9952	7848	6961.55
1001.5625	2751.2008	7798.75	6911.5
1001.6833	2752.4057	7807.65	6918
1001.8042	2753.61	7736.6	6847.15
1001.925	2754.8136	7740.1	6851.2
1002.0458	2756.0165	7684.65	6796
1002.1665	2757.2188	7666.25	6778.45
1002.2872	2758.4204	7648.85	6759.95
1002.4078	2759.6213	7617.65	6726.35
1002.5285	2760.8215	7619.15	6725.85
1002.649	2762.0211	7580.5	6690.85
1002.7696	2763.22	7540.15	6649.45
1002.8901	2764.4182	7514.65	6625.45
1003.0106	2765.6158	7502	6614.1
1003.131	2766.8127	7468	6580.5
1003.2514	2768.009	7437.55	6547.9
1003.3717	2769.2045	7421.85	6532.45
1003.492	2770.3994	7411.8	6522
1003.6123	2771.5936	7368	6479.8
1003.7325	2772.7872	7333	6447.6
1003.8527	2773.9801	7300.65	6411.85
1003.9729	2775.1723	7280.9	6376.8
1004.093	2776.3639	7242.35	6353.9
1004.2131	2777.5548	7220.4	6327.6
1004.3331	2778.745	7183.9	6292.85
1004.4531	2779.9346	7178.15	6290.65
1004.5731	2781.1235	7158.55	6269.5
1004.693	2782.3117	7150.45	6263.05
1004.8129	2783.4992	7141.35	6253.45
1004.9328	2784.6861	7102.35	6216.9
1005.0526	2785.8723	7088.95	6200.4
1005.1723	2787.0579	7065	6176.35
1005.2921	2788.2428	7039.5	6149.95
1005.4118	2789.427	7018.9	6129.5
1005.5314	2790.6106	6991.95	6105.25
1005.651	2791.7935	6987.1	6098.8
1005.7706	2792.9757	6933.45	6047.2
1005.8902	2794.1573	6932.55	6043.35
1006.0097	2795.3382	6907.8	6018.65
1006.1291	2796.5184	6885.65	5998.95
1006.2485	2797.698	6877.35	5987.6
1006.3679	2798.8769	6888.2	5999.35
1006.4873	2800.0551	6882.3	5994.1
1006.6066	2801.2327	6857.95	5967.8
1006.7258	2802.4096	6830.25	5944.7
1006.8451	2803.5859	6832.55	5945.05
1006.9642	2804.7615	6820	5931.45
1007.0834	2805.9364	6812.1	5923.9
1007.2025	2807.1106	6801.4	5913.65
1007.3216	2808.2842	6807.85	5920.05
1007.4406	2809.4572	6821.75	5934.25
1007.5596	2810.6294	6821.55	5932.35
1007.6785	2811.801	6842.9	5955.3
1007.7975	2812.972	6848.55	5960.5
1007.9163	2814.1423	6857.8	5970.35
1008.0352	2815.3119	6883.6	5998.1
1008.154	2816.4808	6905.7	6020.15
1008.2727	2817.6491	6954.1	6067.45
1008.3914	2818.8167	6968.4	6081.35
1008.5101	2819.9837	7009.7	6118.6
1008.6288	2821.15	7011.2	6122.8
1008.7474	2822.3157	7053.85	6167.45
1008.8659	2823.4807	7060.6	6173.45
1008.9844	2824.645	7113.15	6223.2
1009.1029	2825.8086	7118.1	6230.45
1009.2214	2826.9716	7150.85	6265.1
1009.3398	2828.134	7181.9	6294.55
1009.4581	2829.2957	7217.15	6329.45
1009.5764	2830.4567	7204.8	6319.25
1009.6947	2831.617	7215.85	6326.7
1009.813	2832.7767	7227.6	6340.45
1009.9312	2833.9358	7189.5	6302.1
1010.0493	2835.0941	7177.6	6286.95
1010.1675	2836.2519	7181.2	6293.6
1010.2855	2837.4089	7135.15	6248.45
1010.4036	2838.5653	7096.35	6209.05
1010.5216	2839.7211	7075.2	6189.8
1010.6396	2840.8761	7071.05	6181.05
1010.7575	2842.0306	7073.7	6186.4
1010.8754	2843.1843	7095	6208.25
1010.9932	2844.3374	7118.4	6233.05
1011.111	2845.4899	7151.15	6262.2
1011.2288	2846.6417	7183.85	6299.3
1011.3465	2847.7928	7212.05	6325.9
1011.4642	2848.9433	7244.05	6358.5
1011.5818	2850.0931	7318.2	6431.85
1011.6995	2851.2422	7359.7	6470.35
1011.817	2852.3907	7418.8	6531.3
1011.9345	2853.5385	7436.75	6547.7
1012.052	2854.6857	7475.8	6578.4
1012.1695	2855.8323	7477.25	6591.6
1012.2869	2856.9781	7529.25	6644
1012.4042	2858.1233	7551.45	6663
1012.5216	2859.2679	7553.95	6666.8
1012.6389	2860.4118	7597.85	6711.6
1012.7561	2861.555	7615.3	6721.8
1012.8733	2862.6976	7646.55	6756.45
1012.9905	2863.8395	7644.3	6757.25
1013.1076	2864.9808	7633.3	6743.95
1013.2247	2866.1214	7636.05	6750.1
1013.3417	2867.2614	7632.3	6746.05
1013.4587	2868.4007	7612.7	6722.65
1013.5757	2869.5393	7611.5	6722.8
1013.6926	2870.6773	7614.15	6721.3
1013.8095	2871.8146	7624.75	6733.4
1013.9263	2872.9513	7610.55	6721.6
1014.0431	2874.0874	7550.3	6663.5
1014.1599	2875.2227	7518.1	6628.7
1014.2766	2876.3574	7477.5	6589.4
1014.3933	2877.4915	7451.3	6563.45
1014.51	2878.6249	7394.15	6508.2
1014.6266	2879.7577	7374.1	6486.35
1014.7431	2880.8898	7322.55	6422.95
1014.8596	2882.0212	7294.35	6407.05
1014.9761	2883.152	7268.55	6382.1
1015.0925	2884.2821	7235.8	6349.65
1015.2089	2885.4116	7202.55	6316.25
1015.3253	2886.5405	7181.65	6294.7
1015.4416	2887.6686	7169.1	6279.3
1015.5579	2888.7962	7164.2	6278.05
1015.6741	2889.923	7137.8	6251.8
1015.7903	2891.0493	7155.55	6268.2
1015.9065	2892.1748	7110.8	6223.85
1016.0226	2893.2997	7096.3	6210.45
1016.1387	2894.424	7115.7	6229.6
1016.2547	2895.5476	7117.1	6230.35
1016.3707	2896.6706	7094.45	6207.7
1016.4866	2897.7929	7091.85	6205.15
1016.6025	2898.9145	7106.3	6217.35
1016.7184	2900.0355	7120.15	6231.05
1016.8342	2901.1559	7131.8	6243.85
1016.95	2902.2756	7128	6241.9
1017.0658	2903.3946	7147.3	6259.25
1017.1815	2904.513	7158.95	6269.85
1017.2971	2905.6308	7174.05	6287.1
1017.4127	2906.7479	7158.25	6271.55
1017.5283	2907.8643	7168.2	6278.85
1017.6439	2908.9801	7170.6	6283.35
1017.7594	2910.0953	7166.3	6279.25
1017.8748	2911.2098	7147.15	6255.85
1017.9902	2912.3236	7114.8	6220
1018.1056	2913.4368	7090.6	6199.4
1018.2209	2914.5494	7051.05	6162.45
1018.3362	2915.6613	7019.9	6126.1
1018.4515	2916.7725	6976.3	6086.85
1018.5667	2917.8831	6935.3	6048.05
1018.6819	2918.9931	6880.2	5989.7
1018.797	2920.1024	6839.75	5951.15
1018.9121	2921.211	6820.35	5932.75
1019.0271	2922.319	6788.2	5900.75
1019.1421	2923.4264	6766.65	5878.55
1019.2571	2924.5331	6723.75	5835.5
1019.372	2925.6391	6709.2	5821.85
1019.4869	2926.7445	6676.8	5789.45
1019.6017	2927.8493	6673.85	5786.55
1019.7165	2928.9534	6652.4	5763.65
1019.8313	2930.0569	6640.5	5750.8
1019.946	2931.1597	6631.5	5742.25
1020.0606	2932.2619	6624.65	5738.4
1020.1753	2933.3634	6607.4	5720.35
1020.2899	2934.4643	6591.85	5696.95
1020.4044	2935.5645	6563.1	5669.4
1020.5189	2936.6641	6530.25	5639.3
1020.6334	2937.763	6483.15	5596.9
1020.7478	2938.8613	6428.05	5541.3
1020.8622	2939.959	6360.1	5466.55
1020.9765	2941.056	6302.75	5417.45
1021.0908	2942.1523	6199.1	5311.9
1021.2051	2943.248	6117.65	5229.5
1021.3193	2944.3431	6035.65	5149.5
1021.4334	2945.4375	5923.5	5035.3
1021.5476	2946.5313	5818.6	4931.55
1021.6617	2947.6244	5724.15	4836.55
1021.7757	2948.7169	5616.5	4727
1021.8897	2949.8087	5510.2	4622.3
1022.0037	2950.8999	5420.55	4531.65
1022.1176	2951.9904	5326.1	4439.6
1022.2315	2953.0803	5250.15	4363.1
1022.3453	2954.1696	5179.6	4291.8
1022.4591	2955.2582	5131.5	4245.15
1022.5728	2956.3462	5067.3	4181.25
1022.6865	2957.4335	5016	4130.15
1022.8002	2958.5202	4968.1	4078.7
1022.9138	2959.6062	4934.05	4046.7
1023.0274	2960.6916	4903.05	4015.5
1023.141	2961.7764	4869.6	3983.05
1023.2545	2962.8605	4846.05	3959.55
1023.3679	2963.9439	4819.65	3931.4
1023.4813	2965.0267	4787.45	3897.8
1023.5947	2966.1089	4770.5	3862.35
1023.708	2967.1905	4729.65	3842.15
1023.8213	2968.2714	4709.5	3823.85
1023.9346	2969.3516	4698.95	3811.2
1024.0478	2970.4312	4703.85	3809.6
1024.1609	2971.5102	4682.25	3794.35
1024.274	2972.5885	4666.5	3780.35
1024.3871	2973.6662	4666	3774.15
1024.5002	2974.7432	4640.9	3754.3
1024.6132	2975.8196	4619.1	3731.9
1024.7261	2976.8954	4595.6	3709.85
1024.839	2977.9705	4587.45	3699.7
1024.9519	2979.045	4558.25	3673.3
1025.0647	2980.1188	4527.25	3641.6
1025.1775	2981.192	4502.15	3615.85
1025.2902	2982.2645	4484.35	3599.15
1025.4029	2983.3364	4438	3549.05
1025.5156	2984.4077	4412.8	3526.15
1025.6282	2985.4783	4367.7	3473.8
1025.7407	2986.5483	4327.45	3440.55
1025.8532	2987.6177	4322.2	3436.5
1025.9657	2988.6864	4250.55	3364.1
1026.0782	2989.7545	4222.65	3335.45
1026.1906	2990.8219	4170.7	3285.25
1026.3029	2991.8887	4135.2	3245.25
1026.4152	2992.9548	4105.55	3216.5
1026.5275	2994.0204	4062.2	3174.15
1026.6397	2995.0852	4013.45	3127.6
1026.7519	2996.1495	3989.9	3102.35
1026.864	2997.2131	3960.35	3074.85
1026.9761	2998.276	3918.65	3031.55
1027.0882	2999.3383	3904.05	3015.95
1027.2002	3000.4	3873.75	2985.6
1027.3122	3001.4611	3845.75	2958.4
1027.4241	3002.5215	3807.95	2921.65
1027.536	3003.5812	3792.2	2905.45
1027.6478	3004.6404	3777.65	2892.45
1027.7596	3005.6989	3751.8	2862
1027.8714	3006.7567	3744	2856.55
1027.9831	3007.8139	3734.65	2825.6
1028.0947	3008.8705	3697.25	2810.4
1028.2064	3009.9264	3683.25	2792.15
1028.3179	3010.9818	3681	2794.35
1028.4295	3012.0364	3664.75	2776.8
1028.541	3013.0905	3642.5	2756.35
1028.6524	3014.1439	3621.05	2734.55
1028.7638	3015.1966	3608.5	2722.45
1028.8752	3016.2487	3604.45	2717.45
1028.9865	3017.3002	3606.45	2715.2
1029.0978	3018.3511	3577.4	2689.75
1029.209	3019.4013	3574.2	2687.3
1029.3202	3020.4509	3573	2687.3
1029.4314	3021.4998	3569.8	2682.85
1029.5425	3022.5481	3547	2660.5
1029.6535	3023.5958	3530.75	2644.15
1029.7645	3024.6428	3524.05	2637.4
1029.8755	3025.6892	3505.65	2619
1029.9864	3026.735	3498.6	2610.65
1030.0973	3027.7802	3496.65	2609.8
1030.2082	3028.8247	3481.65	2595.6
1030.319	3029.8685	3460.4	2573.65
1030.4297	3030.9118	3467.25	2579.5
1030.5404	3031.9544	3455.2	2570.55
1030.6511	3032.9963	3449.5	2562.8
1030.7617	3034.0376	3429.85	2542.75
1030.8723	3035.0783	3446.55	2556.2
1030.9829	3036.1184	3434.8	2546.8
1031.0934	3037.1578	3418.6	2532.85
1031.2038	3038.1966	3421.65	2534.5
1031.3142	3039.2348	3401.25	2514.05
1031.4246	3040.2723	3406.65	2509.7
1031.5349	3041.3092	3389.65	2502.2
1031.6452	3042.3455	3378.4	2491.8
1031.7554	3043.3811	3361.9	2474.75
1031.8656	3044.4161	3333.45	2446.55
1031.9758	3045.4505	3332.25	2446.55
1032.0859	3046.4842	3314.7	2425.9
1032.1959	3047.5173	3308.75	2422.95
1032.3059	3048.5498	3289.55	2403.6
1032.4159	3049.5816	3301.55	2414.15
1032.5258	3050.6128	3281.05	2393.25
1032.6357	3051.6434	3271.75	2383.95
1032.7455	3052.6734	3261.25	2372.7
1032.8553	3053.7027	3245.4	2358.55
1032.9651	3054.7314	3231.15	2344.6
1033.0748	3055.7594	3216.55	2329.1
1033.1845	3056.7868	3209.1	2321.4
1033.2941	3057.8136	3194.8	2309.8
1033.4037	3058.8398	3179.15	2292.2
1033.5132	3059.8653	3174.35	2288.35
1033.6227	3060.8902	3149.3	2261.95
1033.7321	3061.9145	3142.3	2255.6
1033.8415	3062.9381	3128.75	2240.9
1033.9509	3063.9612	3125	2222.45
1034.0602	3064.9835	3116.9	2231.85
1034.1694	3066.0053	3099.1	2209.75
1034.2787	3067.0264	3077.55	2191.8
1034.3878	3068.0469	3070.3	2183
1034.497	3069.0668	3081.1	2191.75
1034.6061	3070.086	3042.15	2155
1034.7151	3071.1046	3027.75	2141.2
1034.8241	3072.1226	3024.45	2136.8
1034.9331	3073.1399	3010.85	2125.6
1035.042	3074.1567	3001.4	2113
1035.1508	3075.1727	2966	2078.2
1035.2597	3076.1882	2953.4	2066.4
1035.3684	3077.203	2937.5	2051.5
1035.4772	3078.2173	2918.7	2031.35
1035.5859	3079.2308	2916.4	2029.25
1035.6945	3080.2438	2915	2026
1035.8031	3081.2561	2888.9	2003.2
1035.9117	3082.2678	2862	1975.6
1036.0202	3083.2789	2864.4	1977.45
1036.1286	3084.2893	2851.8	1964.65
1036.2371	3085.2991	2840.1	1953.9
1036.3454	3086.3083	2825.4	1933.45
1036.4538	3087.3169	2814.3	1926.1
1036.562	3088.3248	2817.05	1928.7
1036.6703	3089.3321	2788.45	1900.5
1036.7785	3090.3388	2780.9	1895.15
1036.8866	3091.3449	2766.9	1881.35
1036.9948	3092.3503	2765.7	1877.55
1037.1028	3093.3551	2755.15	1871.75
1037.2108	3094.3593	2742.55	1856.6
1037.3188	3095.3629	2728.4	1841.95
1037.4267	3096.3658	2709.7	1821.1
1037.5346	3097.3681	2702.25	1813
1037.6425	3098.3698	2706.15	1818.1
1037.7503	3099.3708	2688.5	1794.2
1037.858	3100.3713	2679.85	1796.3
1037.9657	3101.3711	2668.35	1782.25
1038.0734	3102.3702	2773.9	1747.05
1038.181	3103.3688	2674.4	1786.9
1038.2886	3104.3667	2620.8	1733.95
1038.3961	3105.364	2619.85	1732.85
1038.5036	3106.3607	2614.2	1726.45
1038.611	3107.3568	2591.35	1702.15
1038.7184	3108.3522	2591.4	1706.65
1038.8257	3109.347	2576.6	1688.9
1038.933	3110.3412	2587.35	1697.55
1039.0403	3111.3348	2567	1679.8
1039.1475	3112.3277	2551.25	1665.75
1039.2547	3113.32	2538.3	1652.1
1039.3618	3114.3117	2540.35	1653.55
1039.4689	3115.3028	2531.8	1646.25
1039.5759	3116.2932	2508	1618.6
1039.6829	3117.2831	2502.6	1611.25
1039.7898	3118.2723	2480.15	1593.5
1039.8967	3119.2608	2484.65	1597.75
1040.0035	3120.2488	2469.05	1583.25
1040.1103	3121.2361	2459.25	1571.4
1040.2171	3122.2229	2452.25	1566.35
1040.3238	3123.209	2443	1554.75
1040.4305	3124.1944	2458.7	1571.45
1040.5371	3125.1793	2430.5	1542.2
1040.6437	3126.1635	2417.65	1531.8
1040.7502	3127.1471	2414.15	1527.45
1040.8567	3128.1301	2409.35	1524.6
1040.9631	3129.1125	2394.35	1508.8
1041.0695	3130.0942	2396.65	1512.25
1041.1759	3131.0753	2395.5	1498.1
1041.2822	3132.0558	2391.9	1501
1041.3884	3133.0357	2373.25	1484.7
1041.4946	3134.015	2368.9	1480.25
1041.6008	3134.9936	2353.2	1464.65
1041.7069	3135.9716	2363.3	1456.2
1041.813	3136.949	2351.55	1462.6
1041.919	3137.9258	2340.45	1446.95
1042.025	3138.902	2336.75	1443.9
1042.1309	3139.8775	2328	1441.9
1042.2368	3140.8524	2319.75	1434.3
1042.3427	3141.8267	2312.05	1423.65
1042.4485	3142.8004	2310.65	1423.45
1042.5542	3143.7735	2305.4	1413.1
1042.6599	3144.7459	2305.15	1416.9
1042.7656	3145.7178	2295.5	1406.25
1042.8712	3146.689	2288.25	1404.05
1042.9768	3147.6596	2267.8	1381.05
1043.0823	3148.6295	2272.25	1383.7
1043.1878	3149.5989	2258.5	1371.85
1043.2932	3150.5676	2245.85	1363.2
1043.3986	3151.5357	2241.85	1356.35
1043.5039	3152.5032	2241.6	1356.4
1043.6092	3153.4701	2222.6	1334.8
1043.7145	3154.4364	2219.95	1328.85
1043.8197	3155.402	2213.4	1326.1
1043.9248	3156.367	2203.35	1315.65
1044.03	3157.3315	2236.05	1306.65
1044.135	3158.2952	2189.45	1303.3
1044.24	3159.2584	2195.35	1309
1044.345	3160.221	2180.5	1295.35
1044.4499	3161.1829	2172.3	1284.15
1044.5548	3162.1442	2162.65	1275.9
1044.6596	3163.105	2155.65	1268
1044.7644	3164.065	2146.8	1259.4
1044.8692	3165.0245	2138.45	1250.05
1044.9739	3165.9834	2127.1	1241.2
1045.0785	3166.9416	2128.3	1241.75
1045.1831	3167.8993	2116.2	1229.5
1045.2877	3168.8563	2115.1	1229.35
1045.3922	3169.8127	2095.15	1208.1
1045.4966	3170.7684	2098.8	1212.85
1045.6011	3171.7236	2095.35	1207.2
1045.7054	3172.6782	2080.5	1194.7
1045.8098	3173.6321	2076.6	1190.15
1045.914	3174.5854	2083.25	1191.05
1046.0183	3175.5381	2072.9	1186.7
1046.1224	3176.4902	2061.35	1174.1
1046.2266	3177.4417	2058.95	1173.8
1046.3307	3178.3926	2038.5	1152.5
1046.4347	3179.3428	2037.75	1152.25
1046.5387	3180.2924	2031.1	1143.25
1046.6427	3181.2415	2021	1134.95
1046.7466	3182.1899	2026.9	1139.3
1046.8504	3183.1377	2013.75	1127.8
1046.9542	3184.0848	2010.5	1120.25
1047.058	3185.0314	1997.85	1108.9
1047.1617	3185.9773	1999.75	1111.25
1047.2654	3186.9227	1990.5	1101.95
1047.369	3187.8674	1987.65	1102.65
1047.4726	3188.8115	1977.65	1088.85
1047.5761	3189.755	1974.7	1088.25
1047.6796	3190.6979	1963.15	1077.25
1047.783	3191.6402	1952.85	1065.75
1047.8864	3192.5818	1948.3	1060.85
1047.9898	3193.5229	1963.6	1053.7
1048.0931	3194.4633	1945.3	1057.65
1048.1963	3195.4031	1935.55	1045.45
1048.2995	3196.3423	1944.25	1057.25
1048.4027	3197.2809	1929.55	1042.45
1048.5058	3198.2189	1930.55	1044.25
1048.6089	3199.1563	1925.25	1033.35
1048.7119	3200.0931	1913.15	1028.6
1048.8148	3201.0292	1903.65	1018.75
1048.9178	3201.9648	1900.3	1013.1
1049.0206	3202.8997	1895.95	1005.15
1049.1235	3203.834	1890.05	1003.05
1049.2262	3204.7677	1894.85	1007.6
1049.329	3205.7008	1885.65	997.7
1049.4317	3206.6333	1879.6	995.3
1049.5343	3207.5652	1880.45	992.2
1049.6369	3208.4964	1869.1	982.4
1049.7394	3209.4271	1868.55	982.5
1049.8419	3210.3571	1854.95	968.9
1049.9444	3211.2865	1849.2	960.4
1050.0468	3212.2154	1848.35	961.55
1050.1491	3213.1436	1845.8	956.75
1050.2514	3214.0712	1846.3	954.05
1050.3537	3214.9982	1837.2	951
1050.4559	3215.9246	1830.9	944.55
1050.5581	3216.8503	1819.35	934.9
1050.6602	3217.7755	1820.55	934.1
1050.7623	3218.7001	1820.3	934.4
1050.8643	3219.624	1815.4	926.5
1050.9663	3220.5473	1807.5	920.3
1051.0682	3221.4701	1800.9	913.3
1051.1701	3222.3922	1789.7	902.3
1051.2719	3223.3137	1785.7	900
1051.3737	3224.2346	1780.75	893.95
1051.4754	3225.1549	1771.65	885.75
1051.5771	3226.0746	1778.55	893
1051.6788	3226.9937	1766.5	878.2
1051.7804	3227.9121	1766.9	880.9
1051.8819	3228.83	1761.8	875.95
1051.9834	3229.7473	1754.65	868.75
1052.0849	3230.6639	1750.35	865.15
1052.1863	3231.5799	1744.25	857.5
1052.2876	3232.4954	1754.95	866.8
1052.3889	3233.4102	1745.9	860.85
1052.4902	3234.3244	1730.85	842.1
1052.5914	3235.238	1724.85	839.25
1052.6926	3236.151	1734.6	825.45
1052.7937	3237.0634	1720.6	835.05
1052.8948	3237.9752	1713.4	827.25
1052.9958	3238.8864	1708.4	821.3
1053.0968	3239.797	1700.25	812.85
1053.1977	3240.7069	1697.45	810.85
1053.2986	3241.6163	1690.65	802.9
1053.3994	3242.5251	1686.45	800.2
1053.5002	3243.4332	1680.3	793.3
1053.6009	3244.3408	1674.75	788.3
1053.7016	3245.2477	1671.75	786.1
1053.8022	3246.154	1668.25	782.25
1053.9028	3247.0598	1661.85	774.75
1054.0034	3247.9649	1663.1	773.85
1054.1039	3248.8694	1654.15	767.3
1054.2043	3249.7733	1654.6	767.55
1054.3047	3250.6766	1653.05	768.65
1054.4051	3251.5793	1636.5	749.55
1054.5054	3252.4814	1634.05	748.5
1054.6056	3253.3829	1631.4	743.25
1054.7058	3254.2838	1623.4	737.25
1054.806	3255.1841	1627.95	743.25
1054.9061	3256.0838	1626.5	740.65
1055.0061	3256.9829	1610.7	725.6
1055.1062	3257.8814	1606.2	717.15
1055.2061	3258.7792	1599.05	711.2
1055.306	3259.6765	1589.3	702.7
1055.4059	3260.5731	1579.1	694.05
1055.5057	3261.4692	1574.65	688.25
1055.6055	3262.3647	1565.35	678.6
1055.7052	3263.2595	1553.2	667.05
1055.8049	3264.1538	1550.9	664.95
1055.9045	3265.0474	1545.9	659.4
1056.0041	3265.9404	1523.85	639.2
1056.1036	3266.8329	1516.1	632.3
1056.2031	3267.7247	1515.05	618.25
1056.3025	3268.616	1494.7	608.4
1056.4019	3269.5066	1475	588.9
1056.5013	3270.3966	1463.7	574.75
1056.6005	3271.286	1441.1	556.75
