Software Version:	3.9.2.0
Unit SN:	10000200
Spectrometer SN:	6960
Date:	3/6/2024 9:45:21 AM
Data Line Index:	25
Spectral Points:	2048
Integration time (ms):	125
Averages:	20
Delay (ms):	30
Sequence Number:	1
Processing:	dark subtract
Laser Power (mW):	300
Laser Current (mA):	824
Laser Diode Temp (C):	25.1
Laser Case Temp (C):	24.1
System Temp (C):	23.9
Spectrometer Temp (C):	21.5
CCD Temp (C):	-0.032
Secondary Temp (C):	20.011
Heatsink Temp (C):	17.997
CCDPCB Temp (C):	30.738
SecondaryPCB Temp (C):	25.469

Wavelength	RamanShift	Raw Counts	Dark Subtracted
787.061	30.1047	456.75	49.4
787.2016	32.3739	458.45	54
787.3422	34.6426	461.15	55.75
787.4828	36.9109	465.9	57.05
787.6235	39.1787	471.95	58.75
787.7642	41.4461	481.4	63.25
787.9049	43.7131	488.85	68.2
788.0456	45.9796	494.9	72.6
788.1863	48.2456	501.5	73.9
788.3271	50.5112	513.45	83.35
788.4679	52.7764	518.65	84.7
788.6087	55.0411	529	91.3
788.7496	57.3054	538.6	96.7
788.8904	59.5692	546.55	103
789.0313	61.8326	554.95	108.4
789.1722	64.0955	566.3	116.7
789.3132	66.3579	583.4	130.15
789.4541	68.6199	598.25	141.5
789.5951	70.8815	623	160.15
789.7361	73.1426	681.6	215.85
789.8771	75.4032	819.05	350.3
790.0181	77.6634	1157.95	687.25
790.1592	79.9231	1982.7	1507.75
790.3003	82.1824	3695.6	3214.85
790.4414	84.4412	6701.95	6210.9
790.5825	86.6995	10736.85	10238
790.7237	88.9574	14748.7	14238.4
790.8648	91.2148	17689.15	17171.35
791.006	93.4717	19267.3	18746.4
791.1472	95.7282	19977.7	19454.95
791.2885	97.9842	20350.35	19826.2
791.4297	100.2398	20474	19948.05
791.571	102.4949	20545.7	20014.55
791.7123	104.7495	20576.4	20041
791.8536	107.0036	20549.8	20014.85
791.9949	109.2573	20563.9	20028.85
792.1363	111.5105	20569.6	20032.7
792.2777	113.7632	20565.4	20026.95
792.4191	116.0154	20619.95	20070.05
792.5605	118.2672	20686.1	20141.55
792.7019	120.5185	20694.25	20151.8
792.8434	122.7693	20715	20167.5
792.9849	125.0197	20722.25	20168.7
793.1264	127.2696	20721.3	20163.05
793.2679	129.519	20857.6	20294.9
793.4094	131.7679	20894.9	20331.7
793.551	134.0163	20915	20349.4
793.6926	136.2642	20961.85	20392.2
793.8342	138.5117	21020.95	20450.6
793.9758	140.7587	21007.65	20437
794.1175	143.0052	21018.5	20441.7
794.2591	145.2512	21008.3	20433.75
794.4008	147.4967	20975.2	20399.25
794.5425	149.7417	20968.85	20387.7
794.6842	151.9863	20948.6	20360.3
794.826	154.2304	20997.05	20408.95
794.9677	156.4739	20962.9	20368.45
795.1095	158.717	20998	20403.6
795.2513	160.9596	21021.05	20419.85
795.3931	163.2017	21053.15	20454.75
795.535	165.4433	21039.85	20436.55
795.6768	167.6844	21048.25	20442.9
795.8187	169.925	21077.95	20470.2
795.9606	172.1651	21011.8	20399.65
796.1025	174.4047	21019.35	20405.55
796.2445	176.6439	21037.35	20418.2
796.3864	178.8825	21047.75	20427.55
796.5284	181.1206	21091.5	20469.05
796.6704	183.3582	21086.15	20457.35
796.8124	185.5954	21104.95	20478.55
796.9544	187.832	21137.6	20502.5
797.0965	190.0681	21158.15	20522.5
797.2386	192.3037	21202.95	20564.1
797.3806	194.5388	21237.2	20594.95
797.5228	196.7734	21279.75	20638
797.6649	199.0075	21359	20716.95
797.807	201.2411	21483.05	20839.85
797.9492	203.4742	21509.8	20862.65
798.0914	205.7068	21585.5	20929.75
798.2336	207.9389	21624.8	20972
798.3758	210.1704	21652.75	21010.85
798.518	212.4015	21611.15	20977.15
798.6603	214.632	21683.75	21055.7
798.8025	216.862	21705.3	21073.65
798.9448	219.0915	21704.95	21070.65
799.0871	221.3205	21757.85	21123.6
799.2294	223.549	21830.95	21198.6
799.3718	225.777	21812.5	21181.4
799.5141	228.0044	21857.2	21215.45
799.6565	230.2314	21942.9	21301.4
799.7989	232.4578	21902.6	21255.65
799.9413	234.6837	21942.65	21285.55
800.0837	236.909	21992.8	21334.75
800.2262	239.1339	22049.65	21367.9
800.3687	241.3582	22067.85	21402.05
800.5111	243.582	22013.6	21318.95
800.6536	245.8053	22079.7	21394.9
800.7961	248.0281	22079.55	21401.8
800.9387	250.2503	22086.05	21402.2
801.0812	252.472	22103.4	21421.75
801.2238	254.6932	22185.15	21502
801.3664	256.9139	22139.9	21454.3
801.509	259.134	22166.3	21476.15
801.6516	261.3536	22143.95	21458.5
801.7942	263.5727	22261.65	21573.05
801.9369	265.7912	22219.55	21529.1
802.0795	268.0092	22249.55	21559.9
802.2222	270.2267	22300.25	21611.2
802.3649	272.4436	22325.35	21632.85
802.5076	274.6601	22328.35	21624.95
802.6504	276.8759	22363.35	21664.15
802.7931	279.0913	22389.8	21695.65
802.9359	281.3061	22397.7	21698.25
803.0787	283.5204	22449.25	21746.15
803.2215	285.7341	22495.35	21786.7
803.3643	287.9473	22528	21812.3
803.5071	290.16	22534.8	21824.9
803.6499	292.3721	22481.65	21778.6
803.7928	294.5837	22462.65	21759.75
803.9357	296.7947	22440.4	21733.65
804.0786	299.0052	22418	21712.2
804.2215	301.2152	22374.75	21666.6
804.3644	303.4246	22443.35	21737.65
804.5074	305.6334	22399.3	21691.25
804.6503	307.8418	22401.6	21691.1
804.7933	310.0495	22379.95	21667.2
804.9363	312.2568	22316.5	21604.5
805.0793	314.4635	22274.75	21560
805.2223	316.6696	22205.75	21486.65
805.3653	318.8752	22136.7	21410.3
805.5084	321.0802	22144.65	21426.1
805.6514	323.2847	22140.05	21419.1
805.7945	325.4887	22079.35	21358.35
805.9376	327.692	22100.35	21377.65
806.0807	329.8949	22155.25	21432.45
806.2238	332.0972	22166.25	21441.15
806.367	334.2989	22186.05	21456.25
806.5101	336.5001	22163.9	21433.3
806.6533	338.7007	22159.15	21431.15
806.7965	340.9008	22178.7	21445.85
806.9397	343.1003	22147.55	21410.85
807.0829	345.2992	22101.65	21369.9
807.2261	347.4976	22099.5	21362.25
807.3693	349.6955	22096	21353.8
807.5126	351.8927	22102.7	21360.05
807.6559	354.0895	22060.3	21307.05
807.7991	356.2856	22069.25	21325.95
807.9424	358.4812	21991.45	21247.5
808.0857	360.6763	22080.05	21333.1
808.2291	362.8707	22030.4	21280.7
808.3724	365.0646	22048.8	21298.25
808.5158	367.258	22020.2	21268.25
808.6591	369.4508	22011.4	21256.15
808.8025	371.643	22024.9	21272.25
808.9459	373.8346	21933.4	21174
809.0893	376.0257	21965.95	21206.65
809.2327	378.2162	21951.2	21190.4
809.3762	380.4062	21929	21167.9
809.5196	382.5956	21906.95	21147.2
809.6631	384.7844	21875.8	21122.5
809.8066	386.9726	21761.45	21011.85
809.9501	389.1603	21756.85	21005.7
810.0936	391.3474	21749.2	20958.2
810.2371	393.5339	21686.3	20932.75
810.3806	395.7199	21666.55	20911.95
810.5241	397.9052	21707.6	20955.1
810.6677	400.09	21680.05	20925
810.8113	402.2743	21698.1	20941.85
810.9548	404.4579	21701	20944.8
811.0984	406.641	21746.05	20986.7
811.2421	408.8235	21727.85	20967.05
811.3857	411.0054	21793.3	21032.65
811.5293	413.1868	21928.15	21161.15
811.673	415.3675	21931.55	21161
811.8166	417.5477	21893	21122.65
811.9603	419.7273	21816.65	21041.05
812.104	421.9064	21658.8	20876.85
812.2477	424.0848	21611.4	20837.5
812.3914	426.2627	21529.5	20756.2
812.5351	428.4399	21509.4	20735.5
812.6788	430.6166	21443	20664.05
812.8226	432.7928	21358.7	20576.9
812.9663	434.9683	21240.6	20461.25
813.1101	437.1432	21242.2	20462.35
813.2539	439.3176	21149.2	20367.15
813.3977	441.4914	21087.7	20306.95
813.5415	443.6645	21072.6	20290.5
813.6853	445.8371	21000.15	20218.2
813.8291	448.0091	20902	20121
813.973	450.1806	20897.95	20114.9
814.1168	452.3514	20809.25	20022.5
814.2607	454.5216	20845.7	20053.25
814.4046	456.6913	20700.35	19914.15
814.5485	458.8603	20724.6	19940.1
814.6924	461.0288	20738.4	19954.05
814.8363	463.1967	20702.95	19916.45
814.9802	465.3639	20711.7	19924.7
815.1241	467.5306	20663.8	19875.2
815.2681	469.6967	20586.5	19797.7
815.412	471.8622	20527.55	19740.5
815.556	474.0271	20524.3	19735.05
815.7	476.1914	20540.1	19747
815.844	478.3551	20534.15	19744.45
815.988	480.5182	20579.65	19787.55
816.132	482.6807	20542.5	19750.1
816.276	484.8426	20608.35	19819.15
816.4201	487.0039	20603.15	19813.15
816.5641	489.1647	20592.85	19798
816.7082	491.3248	20637.95	19844.9
816.8522	493.4843	20630.1	19836.7
816.9963	495.6432	20578.05	19782.75
817.1404	497.8015	20552.4	19754.45
817.2845	499.9592	20577.2	19777.2
817.4286	502.1163	20498.1	19701.15
817.5727	504.2728	20433	19632.75
817.7168	506.4287	20422.95	19625.2
817.861	508.5839	20378.05	19579.3
818.0051	510.7386	20353.65	19555.1
818.1493	512.8927	20378.25	19574.95
818.2935	515.0461	20401.5	19598.6
818.4377	517.199	20412.85	19608.5
818.5818	519.3512	20393.15	19588.6
818.726	521.5029	20402.9	19591.45
818.8703	523.6539	20415.4	19610.35
819.0145	525.8043	20400.2	19593.25
819.1587	527.9541	20366.9	19558.9
819.303	530.1033	20317.8	19509.5
819.4472	532.2519	20258.1	19449.8
819.5915	534.3999	20185.9	19375.85
819.7357	536.5472	20150.9	19342.8
819.88	538.694	20181.8	19373.3
820.0243	540.8401	20163.1	19354.6
820.1686	542.9856	20219.05	19406.3
820.3129	545.1305	20159.15	19345.8
820.4572	547.2748	20177.5	19363.85
820.6016	549.4185	20151.45	19336.5
820.7459	551.5615	20109.4	19297.05
820.8902	553.704	20143.9	19330.7
821.0346	555.8458	20087.25	19273.95
821.1789	557.987	20116.7	19304.7
821.3233	560.1276	20097.9	19282
821.4677	562.2675	20147.5	19334.65
821.6121	564.4069	20122.4	19307.65
821.7565	566.5456	20082.25	19267.6
821.9009	568.6837	20088.6	19275.35
822.0453	570.8212	20008.95	19193.35
822.1897	572.958	19927.45	19110.15
822.3342	575.0942	19863	19047.65
822.4786	577.2299	19797.65	18981.15
822.6231	579.3648	19762.15	18947.15
822.7675	581.4992	19625.85	18809.4
822.912	583.6329	19561.5	18748.35
823.0565	585.766	19584.8	18766.95
823.201	587.8985	19547.15	18732.8
823.3454	590.0304	19540.8	18709.95
823.4899	592.1616	19490	18667.5
823.6345	594.2922	19466.7	18645
823.779	596.4222	19405.6	18582.15
823.9235	598.5515	19299	18474.9
824.068	600.6802	19295.2	18471.85
824.2126	602.8083	19134.5	18310.2
824.3571	604.9358	19168.75	18343.35
824.5017	607.0626	19070.65	18242.8
824.6462	609.1888	19052.25	18226.5
824.7908	611.3144	19095.1	18269.4
824.9354	613.4393	19056.6	18229.4
825.08	615.5636	19071.7	18244.85
825.2246	617.6873	19105.15	18277.95
825.3692	619.8103	19086.3	18257.8
825.5138	621.9327	19048.65	18219.1
825.6584	624.0544	19064.95	18237.4
825.803	626.1756	18978.05	18150.7
825.9477	628.2961	18938.35	18110.65
826.0923	630.4159	18898.65	18067.1
826.237	632.5351	18872.25	18042.3
826.3816	634.6537	18847.85	18018.15
826.5263	636.7716	18828.3	17995.65
826.6709	638.8889	18829.2	17997.05
826.8156	641.0056	18837.95	18004.65
826.9603	643.1216	18798.55	17966.6
827.105	645.237	18842	18005.55
827.2497	647.3518	18779.45	17947.25
827.3944	649.4659	18748.8	17917.25
827.5391	651.5793	18730.65	17896.3
827.6838	653.6922	18670.85	17841.65
827.8285	655.8043	18665.75	17833.8
827.9733	657.9159	18674.8	17841.75
828.118	660.0268	18547.9	17711.05
828.2627	662.137	18537.7	17702.75
828.4075	664.2466	18535.1	17697.7
828.5522	666.3556	18528	17690.05
828.697	668.4639	18468.75	17629.85
828.8418	670.5716	18466.3	17629.05
828.9865	672.6786	18458	17618.9
829.1313	674.785	18398.7	17558.5
829.2761	676.8907	18328.1	17489.75
829.4209	678.9958	18336.25	17497.85
829.5657	681.1002	18293.85	17454.85
829.7105	683.204	18242.75	17399.4
829.8553	685.3072	18239.1	17397.75
830.0001	687.4097	18207.65	17367.6
830.1449	689.5115	18204.65	17360.3
830.2898	691.6127	18201.95	17362.5
830.4346	693.7132	18127.1	17284.95
830.5794	695.8131	18164.35	17299.7
830.7243	697.9123	18127.35	17283.1
830.8691	700.0109	18128.85	17285.5
831.014	702.1089	18121.3	17280.45
831.1588	704.2061	18089.6	17246.2
831.3037	706.3028	18099.15	17253.5
831.4486	708.3987	18102.1	17258.7
831.5935	710.4941	18067.65	17222.95
831.7383	712.5887	18048.85	17204.95
831.8832	714.6827	18013.05	17166.6
832.0281	716.7761	18027.25	17181.55
832.173	718.8688	18015.85	17170.65
832.3179	720.9608	17970.55	17120.45
832.4628	723.0522	17969.6	17116.75
832.6077	725.1429	17933.65	17087.2
832.7527	727.233	17963.35	17115.45
832.8976	729.3224	17994.75	17148.55
833.0425	731.4112	17961.65	17112.35
833.1874	733.4993	17924.05	17073.5
833.3324	735.5867	17852.65	17001.75
833.4773	737.6735	17816.7	16967.55
833.6222	739.7596	17752	16900.85
833.7672	741.845	17702.95	16852.05
833.9122	743.9298	17622.5	16772.1
834.0571	746.014	17628.1	16778.85
834.2021	748.0974	17620.8	16766.85
834.347	750.1802	17573.9	16720.75
834.492	752.2624	17538.4	16687.1
834.637	754.3439	17478.3	16624
834.782	756.4247	17427.05	16564.3
834.9269	758.5048	17356.8	16504.45
835.0719	760.5843	17344.2	16490.1
835.2169	762.6631	17281.4	16427.3
835.3619	764.7413	17285	16434.85
835.5069	766.8188	17324.55	16472.55
835.6519	768.8956	17289.85	16434.75
835.7969	770.9718	17359.95	16505
835.9419	773.0473	17264.4	16411.65
836.0869	775.1221	17203.95	16348.5
836.232	777.1962	17164.6	16311.9
836.377	779.2697	17160.2	16303.95
836.522	781.3426	17179.35	16307.7
836.667	783.4147	17143.2	16288.55
836.8121	785.4862	17150.65	16296.2
836.9571	787.557	17078.7	16224.55
837.1021	789.6271	16978.95	16122.05
837.2472	791.6966	16901.05	16043.75
837.3922	793.7654	16802.25	15943.85
837.5373	795.8335	16756.5	15901.5
837.6823	797.901	16727	15872.45
837.8274	799.9678	16727.85	15870.05
837.9724	802.0339	16654.85	15799.25
838.1175	804.0993	16680	15811.65
838.2626	806.1641	16595.8	15737.65
838.4076	808.2282	16554.8	15699.3
838.5527	810.2916	16563.05	15701.15
838.6978	812.3544	16530.5	15673.45
838.8428	814.4164	16457.6	15600.5
838.9879	816.4778	16516.7	15655.95
839.133	818.5385	16436.2	15580.1
839.2781	820.5986	16460.45	15603
839.4232	822.658	16453.6	15592.95
839.5682	824.7166	16424.05	15564.35
839.7133	826.7747	16527.8	15670.65
839.8584	828.832	16504.7	15644
840.0035	830.8886	16476.75	15614.65
840.1486	832.9446	16487.3	15624.35
840.2937	834.9999	16432.25	15573.25
840.4388	837.0545	16387.85	15524.85
840.5839	839.1085	16346.85	15485.2
840.729	841.1618	16266.95	15403.65
840.8741	843.2143	16184.4	15323.05
841.0192	845.2662	16139.25	15278.7
841.1643	847.3175	16112.05	15251.95
841.3095	849.368	16077.5	15215.7
841.4546	851.4179	16056.85	15195.2
841.5997	853.467	15971.2	15109.2
841.7448	855.5155	15978.3	15116.65
841.8899	857.5633	15943.65	15081.35
842.0351	859.6105	15883.45	15022.9
842.1802	861.6569	15867.15	15005.85
842.3253	863.7027	15830.95	14965.55
842.4704	865.7478	15828.55	14965.9
842.6156	867.7922	15841.15	14976.8
842.7607	869.8359	15779.5	14914.55
842.9058	871.8789	15748.15	14883.4
843.0509	873.9212	15743.4	14848.65
843.1961	875.9629	15694.4	14827.65
843.3412	878.0039	15706.1	14841.3
843.4863	880.0441	15668.25	14805.35
843.6315	882.0837	15708.35	14845.4
843.7766	884.1226	15669.6	14805.15
843.9218	886.1609	15693.7	14831.5
844.0669	888.1984	15731.25	14866.05
844.212	890.2352	15746.9	14884.05
844.3572	892.2714	15727.95	14858.7
844.5023	894.3069	15730.6	14863.6
844.6475	896.3416	15597.9	14731.25
844.7926	898.3757	15574.6	14706
844.9377	900.4091	15548.2	14681.05
845.0829	902.4418	15516	14643.95
845.228	904.4739	15500.1	14630.6
845.3732	906.5052	15514.5	14648.25
845.5183	908.5358	15434.9	14567.55
845.6635	910.5658	15441	14573.6
845.8086	912.595	15399.6	14535.65
845.9538	914.6236	15312.1	14443.35
846.0989	916.6515	15318.7	14452.85
846.2441	918.6786	15250.15	14379.7
846.3892	920.7051	15217.3	14347.55
846.5344	922.7309	15230.25	14361.6
846.6795	924.756	15151.05	14283.85
846.8246	926.7804	15163.2	14291.3
846.9698	928.8041	15061.25	14191.85
847.1149	930.8272	15098.15	14230.1
847.2601	932.8495	15021.8	14151.5
847.4052	934.8711	15027.5	14158
847.5504	936.892	14965.75	14095.25
847.6955	938.9123	14941.3	14070.3
847.8407	940.9318	14882.9	14013.5
847.9858	942.9506	14842.2	13971.6
848.131	944.9688	14787.2	13915.2
848.2761	946.9862	14793.5	13924.65
848.4213	949.003	14692.4	13821.6
848.5664	951.019	14672.8	13802.45
848.7115	953.0344	14624.55	13754.2
848.8567	955.0491	14561.7	13690.35
849.0018	957.063	14554.35	13683.2
849.147	959.0763	14606	13738.1
849.2921	961.0888	14553.05	13679.75
849.4373	963.1007	14540.35	13667.55
849.5824	965.1119	14535.4	13664.65
849.7275	967.1223	14473.4	13603.8
849.8727	969.1321	14490.45	13621.3
850.0178	971.1412	14466.1	13595.1
850.1629	973.1495	14397.55	13526.5
850.3081	975.1572	14412.65	13494.25
850.4532	977.1641	14423.85	13553.45
850.5983	979.1704	14335.85	13462.65
850.7435	981.1759	14286.6	13410.15
850.8886	983.1808	14294.95	13420.25
851.0337	985.1849	14239.1	13356.1
851.1788	987.1884	14221.1	13347.2
851.324	989.1911	14183.35	13307.75
851.4691	991.1932	14145.2	13272.9
851.6142	993.1945	14138.8	13263.6
851.7593	995.1951	14055.3	13184.35
851.9045	997.1951	14015.15	13136.05
852.0496	999.1943	13953	13080.4
852.1947	1001.1928	13940.45	13064.95
852.3398	1003.1906	13877.95	13004.65
852.4849	1005.1877	13862.35	12988.65
852.63	1007.1841	13822.9	12949.35
852.7751	1009.1798	13797.25	12925.15
852.9202	1011.1748	13729.1	12857.45
853.0653	1013.1691	13690.45	12813.9
853.2104	1015.1627	13645.8	12771.05
853.3555	1017.1556	13549.55	12675.75
853.5006	1019.1477	13515.75	12641.35
853.6457	1021.1392	13406.5	12532.85
853.7908	1023.1299	13390.65	12517.95
853.9359	1025.12	13342.35	12471.3
854.081	1027.1093	13294.95	12426.8
854.2261	1029.0979	13246.85	12379.75
854.3712	1031.0859	13233.75	12361.85
854.5163	1033.0731	13178.1	12303.5
854.6613	1035.0596	13152	12279.15
854.8064	1037.0454	13089.3	12212.8
854.9515	1039.0304	13065.95	12190.15
855.0965	1041.0148	12989.95	12114.95
855.2416	1042.9985	12953.75	12077.65
855.3867	1044.9814	12926.35	12055.4
855.5317	1046.9636	12892.5	12016.9
855.6768	1048.9452	12832.5	11958.65
855.8219	1050.926	12833.35	11960.9
855.9669	1052.9061	12790.3	11914.3
856.112	1054.8855	12770.85	11894.95
856.257	1056.8642	12739.95	11865.1
856.4021	1058.8421	12715.4	11834.55
856.5471	1060.8194	12706.65	11829.4
856.6921	1062.7959	12653.2	11778.45
856.8372	1064.7717	12627.75	11750.4
856.9822	1066.7469	12606.15	11728.4
857.1272	1068.7213	12613.75	11734.25
857.2723	1070.695	12598.8	11722.75
857.4173	1072.6679	12542.2	11666.6
857.5623	1074.6402	12554.8	11677.25
857.7073	1076.6117	12537	11655.1
857.8523	1078.5826	12494.25	11618.15
857.9973	1080.5527	12483.75	11604.35
858.1423	1082.5221	12413.75	11537.9
858.2873	1084.4908	12384.3	11506.55
858.4323	1086.4587	12320.4	11442.75
858.5773	1088.426	12312.45	11434.35
858.7223	1090.3925	12231.7	11351.95
858.8673	1092.3584	12265.3	11388.95
859.0123	1094.3235	12193.55	11317.8
859.1573	1096.2879	12207.45	11328.8
859.3022	1098.2515	12194.2	11316.95
859.4472	1100.2145	12202.65	11325.75
859.5922	1102.1767	12162.5	11283.15
859.7371	1104.1382	12165.4	11288.5
859.8821	1106.099	12155.9	11278.5
860.027	1108.0591	12149.7	11272.95
860.172	1110.0185	12170.95	11289.3
860.3169	1111.9771	12124.65	11246
860.4619	1113.9351	12137.1	11258.95
860.6068	1115.8923	12136.85	11258.95
860.7517	1117.8488	12124.65	11244.7
860.8967	1119.8045	12046.05	11168.55
861.0416	1121.7596	11997.15	11121.05
861.1865	1123.7139	11908.45	11029.95
861.3314	1125.6675	11845.25	10969.9
861.4763	1127.6204	11858.55	10981.75
861.6212	1129.5726	11796.3	10914.1
861.7661	1131.524	11776.2	10898.3
861.911	1133.4748	11764.15	10885.9
862.0559	1135.4248	11690.15	10809.6
862.2008	1137.3741	11649.15	10769.65
862.3457	1139.3226	11594.5	10713.05
862.4905	1141.2705	11585.55	10708.15
862.6354	1143.2176	11548.6	10663.95
862.7803	1145.164	11520.8	10639.1
862.9251	1147.1097	11513.85	10633.25
863.07	1149.0546	11510.85	10628.7
863.2148	1150.9989	11487.05	10606.45
863.3597	1152.9424	11480.15	10601.25
863.5045	1154.8852	11423.8	10543.35
863.6493	1156.8272	11426.5	10549.65
863.7942	1158.7686	11397.75	10508.8
863.939	1160.7092	11373.4	10492.25
864.0838	1162.6491	11330.85	10450.25
864.2286	1164.5883	11332.9	10455
864.3734	1166.5267	11316.15	10436
864.5182	1168.4644	11316.8	10437.15
864.663	1170.4014	11286.65	10399.65
864.8078	1172.3377	11312.55	10435.3
864.9526	1174.2732	11330.35	10449.35
865.0974	1176.2081	11368.45	10488.7
865.2421	1178.1421	11409.95	10527
865.3869	1180.0755	11468.65	10589.4
865.5317	1182.0082	11470.25	10589.55
865.6764	1183.9401	11444.9	10563.65
865.8212	1185.8713	11370.5	10492.45
865.9659	1187.8017	11268.45	10389.05
866.1106	1189.7315	11197.85	10320.85
866.2554	1191.6605	11083.35	10206.35
866.4001	1193.5888	11047.2	10169.55
866.5448	1195.5163	10990.35	10114
866.6895	1197.4432	10933.5	10051.7
866.8342	1199.3693	10920.75	10040.35
866.9789	1201.2947	10852.75	9970
867.1236	1203.2193	10801.1	9921.1
867.2683	1205.1432	10793.65	9910.8
867.413	1207.0664	10783.55	9904.4
867.5576	1208.9889	10752.15	9868.05
867.7023	1210.9106	10696.4	9816.45
867.847	1212.8316	10632.65	9754.1
867.9916	1214.7519	10643.95	9753.25
868.1363	1216.6715	10587.2	9705.8
868.2809	1218.5903	10594.25	9714
868.4255	1220.5084	10589.15	9709.75
868.5701	1222.4257	10577.65	9695.3
868.7148	1224.3424	10552.2	9673.2
868.8594	1226.2583	10535.25	9649
869.004	1228.1735	10517.75	9636.7
869.1486	1230.0879	10505.55	9622.4
869.2932	1232.0016	10499.95	9619.95
869.4377	1233.9146	10486.2	9601
869.5823	1235.8269	10483.8	9603.25
869.7269	1237.7384	10476.15	9596.25
869.8715	1239.6492	10444.2	9561
870.016	1241.5592	10451	9568.8
870.1606	1243.4686	10435.8	9553.15
870.3051	1245.3772	10453.75	9572.25
870.4496	1247.285	10474.15	9592.55
870.5941	1249.1922	10499.5	9618.05
870.7387	1251.0986	10531.8	9651.2
870.8832	1253.0042	10533.75	9652.5
871.0277	1254.9092	10569.85	9686.9
871.1722	1256.8134	10604.95	9724.95
871.3167	1258.7169	10631.55	9746.6
871.4611	1260.6196	10635.45	9756.55
871.6056	1262.5216	10636.05	9752.9
871.7501	1264.4229	10605.95	9725.6
871.8945	1266.3234	10572.85	9689.75
872.039	1268.2232	10532.5	9649.5
872.1834	1270.1223	10500.35	9617.8
872.3278	1272.0207	10459.25	9576.1
872.4723	1273.9183	10430.65	9539.65
872.6167	1275.8151	10417.4	9537.75
872.7611	1277.7113	10401.6	9516.25
872.9055	1279.6067	10455.7	9572.95
873.0499	1281.5014	10513.8	9628.6
873.1943	1283.3953	10596.55	9714.45
873.3386	1285.2885	10698.95	9818
873.483	1287.181	10757.4	9874.35
873.6274	1289.0727	10822.4	9940.4
873.7717	1290.9637	10733.05	9850.05
873.9161	1292.854	10715.35	9832.35
874.0604	1294.7435	10644.45	9762.25
874.2047	1296.6323	10532.55	9649.85
874.349	1298.5204	10469.1	9585.25
874.4933	1300.4077	10412.95	9529.4
874.6376	1302.2943	10378.95	9495.75
874.7819	1304.1802	10353.3	9471.3
874.9262	1306.0653	10333.5	9449.15
875.0705	1307.9497	10291.75	9409.35
875.2147	1309.8333	10261.25	9379.75
875.359	1311.7162	10226.55	9342.95
875.5032	1313.5984	10203.25	9319.05
875.6475	1315.4798	10186.05	9290.9
875.7917	1317.3605	10159.4	9263.4
875.9359	1319.2405	10160.4	9276.8
876.0801	1321.1197	10134.45	9248.95
876.2243	1322.9982	10065.9	9179.2
876.3685	1324.876	10006.7	9124.1
876.5127	1326.753	9938.75	9055.15
876.6569	1328.6293	9912.3	9028.6
876.801	1330.5048	9857.45	8972.65
876.9452	1332.3796	9777.95	8895.4
877.0893	1334.2537	9740.5	8832.4
877.2335	1336.127	9703.25	8821.2
877.3776	1337.9996	9639.45	8757.85
877.5217	1339.8714	9634.3	8751.7
877.6658	1341.7426	9636.5	8709.1
877.8099	1343.6129	9597.5	8713.85
877.954	1345.4826	9548.55	8663.65
878.0981	1347.3515	9538.15	8651.4
878.2422	1349.2196	9521.2	8638
878.3862	1351.087	9510.25	8627.4
878.5303	1352.9537	9486.75	8602.75
878.6743	1354.8197	9503.85	8619.85
878.8184	1356.6849	9508.15	8623.1
878.9624	1358.5493	9467.95	8584.65
879.1064	1360.4131	9493.3	8610.95
879.2504	1362.276	9474.65	8591.2
879.3944	1364.1383	9463.2	8578.6
879.5384	1365.9998	9488.4	8599.65
879.6823	1367.8606	9430.75	8546.45
879.8263	1369.7206	9409.4	8522.75
879.9702	1371.5799	9384.35	8499.35
880.1142	1373.4384	9361.2	8476.1
880.2581	1375.2962	9317.65	8432.75
880.402	1377.1533	9256.85	8372.15
880.5459	1379.0096	9203.05	8319.7
880.6898	1380.8652	9156.75	8272.8
880.8337	1382.7201	9133.65	8250.15
880.9776	1384.5742	9068.7	8186.1
881.1215	1386.4275	9032.45	8147.8
881.2653	1388.2802	8996.5	8112.6
881.4092	1390.132	8974.45	8090.9
881.553	1391.9832	8942.2	8056.65
881.6968	1393.8336	8864.4	7982
881.8406	1395.6832	8857.05	7969.45
881.9844	1397.5322	8824.35	7941.3
882.1282	1399.3803	8809.05	7920.3
882.272	1401.2278	8756.7	7872.6
882.4158	1403.0745	8746.75	7862.5
882.5595	1404.9204	8702.35	7818.4
882.7033	1406.7656	8709.75	7826.5
882.847	1408.6101	8658.15	7772.45
882.9908	1410.4538	8628.55	7742.25
883.1345	1412.2968	8585.35	7700.05
883.2782	1414.139	8554.35	7668.8
883.4219	1415.9805	8558.25	7677.6
883.5656	1417.8213	8543.35	7638.8
883.7092	1419.6613	8523.75	7639.1
883.8529	1421.5006	8541.2	7656.55
883.9965	1423.3391	8532.85	7649.2
884.1402	1425.1769	8539.1	7653
884.2838	1427.0139	8548.5	7662
884.4274	1428.8502	8557.6	7674.15
884.571	1430.6858	8611	7725.75
884.7146	1432.5206	8605.85	7722.15
884.8582	1434.3547	8584.25	7700.8
885.0018	1436.188	8571.7	7687.5
885.1453	1438.0206	8530.75	7646.6
885.2889	1439.8524	8499.15	7615
885.4324	1441.6835	8498.1	7612.15
885.5759	1443.5139	8472.4	7582.65
885.7194	1445.3435	8459.95	7574.25
885.8629	1447.1724	8467.9	7585.4
886.0064	1449.0005	8445.95	7565.8
886.1499	1450.8279	8403.95	7518.6
886.2933	1452.6545	8389	7504.9
886.4368	1454.4804	8383.45	7499.1
886.5802	1456.3056	8367.1	7476.8
886.7237	1458.13	8350.6	7466.7
886.8671	1459.9536	8326.8	7440.55
887.0105	1461.7766	8306.75	7423.5
887.1539	1463.5987	8254.85	7366.9
887.2972	1465.4202	8214.45	7332
887.4406	1467.2409	8169.15	7283.1
887.584	1469.0608	8145.95	7262.65
887.7273	1470.88	8090.1	7204.35
887.8706	1472.6984	8078.1	7194.95
888.0139	1474.5161	8056	7168.7
888.1572	1476.3331	8011.35	7127
888.3005	1478.1493	8005.9	7122.6
888.4438	1479.9648	7987.7	7103.8
888.5871	1481.7795	7957.05	7072.8
888.7303	1483.5935	7953.2	7067.2
888.8736	1485.4067	7927.2	7043.15
889.0168	1487.2192	7939.2	7054.1
889.16	1489.031	7926.9	7040.3
889.3032	1490.842	7881.05	6996.8
889.4464	1492.6522	7895.3	7009.65
889.5896	1494.4618	7869.8	6985.9
889.7327	1496.2705	7862.2	6976.7
889.8759	1498.0785	7825.7	6940.8
890.019	1499.8858	7818.45	6933.15
890.1622	1501.6924	7774.55	6891.25
890.3053	1503.4981	7763.15	6878.9
890.4484	1505.3032	7734.6	6851.6
890.5914	1507.1075	7727.4	6841.65
890.7345	1508.911	7711.95	6828.95
890.8776	1510.7138	7668.95	6783.05
891.0206	1512.5159	7660.65	6775.45
891.1637	1514.3172	7633.85	6750.9
891.3067	1516.1178	7592.35	6711.45
891.4497	1517.9176	7612.45	6725.55
891.5927	1519.7166	7565.7	6683.35
891.7357	1521.515	7540.35	6648.6
891.8786	1523.3126	7523.3	6640.75
892.0216	1525.1094	7477.75	6590.3
892.1645	1526.9055	7462.7	6579.1
892.3074	1528.7008	7415.2	6531.2
892.4503	1530.4954	7388.25	6500.7
892.5932	1532.2893	7366.7	6484.95
892.7361	1534.0824	7343.25	6457.45
892.879	1535.8747	7355.9	6471.9
893.0218	1537.6663	7306.2	6422.6
893.1647	1539.4572	7272	6385.85
893.3075	1541.2473	7261.55	6376.65
893.4503	1543.0367	7236	6351.35
893.5931	1544.8253	7200.7	6311.4
893.7359	1546.6132	7200	6314.35
893.8787	1548.4003	7174.65	6280.75
894.0214	1550.1867	7157	6263.85
894.1642	1551.9723	7151.8	6264.1
894.3069	1553.7572	7110	6224.05
894.4496	1555.5414	7095.7	6211.15
894.5923	1557.3247	7104.5	6219.05
894.735	1559.1074	7092.25	6211.3
894.8777	1560.8893	7091.95	6209.65
895.0204	1562.6705	7092.6	6207.8
895.163	1564.4509	7077.4	6196.65
895.3056	1566.2305	7065.15	6181.8
895.4482	1568.0094	7080.55	6200.3
895.5908	1569.7876	7070.15	6188.05
895.7334	1571.565	7058.7	6177.25
895.876	1573.3417	7029.75	6148.35
896.0186	1575.1176	6994.05	6110.85
896.1611	1576.8928	6966.2	6084.15
896.3036	1578.6672	6964.55	6082.5
896.4461	1580.4409	6980	6100.95
896.5886	1582.2138	6966.85	6084.15
896.7311	1583.986	6947.8	6064.2
896.8736	1585.7575	6978	6096.1
897.0161	1587.5282	6955.5	6075.3
897.1585	1589.2981	6977.05	6096.9
897.3009	1591.0673	6957.4	6075
897.4433	1592.8358	6936.15	6056.2
897.5857	1594.6035	6935.65	6051.7
897.7281	1596.3704	6886.9	6004.15
897.8705	1598.1366	6866.8	5985.1
898.0128	1599.9021	6831.85	5951.55
898.1551	1601.6668	6771.8	5887.05
898.2975	1603.4308	6743.5	5860.4
898.4398	1605.194	6731.8	5843.7
898.5821	1606.9564	6733.2	5854.4
898.7243	1608.7182	6763.7	5878.4
898.8666	1610.4791	6780.25	5900.95
899.0088	1612.2394	6804	5923.9
899.1511	1613.9988	6851.25	5970.35
899.2933	1615.7576	6888.9	6007.85
899.4355	1617.5156	6878.2	5988.55
899.5776	1619.2728	6855.25	5972.8
899.7198	1621.0293	6766.55	5884.9
899.862	1622.785	6718.6	5835.05
900.0041	1624.54	6592.4	5707.8
900.1462	1626.2942	6511.15	5629.7
900.2883	1628.0477	6398.4	5513.6
900.4304	1629.8005	6346.85	5460.25
900.5725	1631.5525	6289.5	5408.45
900.7145	1633.3037	6249.25	5367.9
900.8566	1635.0542	6199.9	5317.2
900.9986	1636.804	6155.4	5274.55
901.1406	1638.553	6193.05	5224.05
901.2826	1640.3013	6079.8	5200.3
901.4245	1642.0488	6060.2	5176.65
901.5665	1643.7955	6023.1	5141.95
901.7085	1645.5416	6011.3	5128.4
901.8504	1647.2868	5968	5087.15
901.9923	1649.0313	5943.75	5063.05
902.1342	1650.7751	5941.25	5058.1
902.2761	1652.5181	5925.3	5043.6
902.4179	1654.2604	5884.4	5002.7
902.5598	1656.0019	5874.45	4995.85
902.7016	1657.7427	5856.4	4975.1
902.8434	1659.4828	5872.05	4991.5
902.9852	1661.222	5878.9	4995.65
903.127	1662.9606	5865.9	4983.05
903.2687	1664.6984	5879.9	4996.55
903.4105	1666.4354	5862.4	4979.15
903.5522	1668.1717	5826.5	4943.05
903.6939	1669.9072	5786.9	4904.75
903.8356	1671.642	5738.4	4853.2
903.9773	1673.3761	5696.75	4818.25
904.119	1675.1094	5651.35	4771.1
904.2606	1676.8419	5620.75	4739.2
904.4022	1678.5737	5584.35	4700.65
904.5439	1680.3048	5555.65	4673.4
904.6855	1682.0351	5524.05	4642.8
904.827	1683.7646	5503.8	4619.05
904.9686	1685.4934	5473.25	4591.3
905.1101	1687.2215	5457.25	4575.8
905.2517	1688.9488	5435.6	4554.05
905.3932	1690.6754	5395.15	4513.95
905.5347	1692.4012	5396.75	4513
905.6761	1694.1263	5353.4	4469.55
905.8176	1695.8506	5349.2	4468.5
905.9591	1697.5742	5323.35	4443.35
906.1005	1699.297	5324.8	4442.75
906.2419	1701.0191	5288.9	4407.2
906.3833	1702.7404	5269.25	4388.35
906.5246	1704.461	5231.3	4347.95
906.666	1706.1808	5213	4330
906.8073	1707.8999	5204.3	4323.55
906.9487	1709.6182	5199.7	4318.15
907.09	1711.3358	5182.3	4301.65
907.2313	1713.0527	5160.65	4280.7
907.3725	1714.7688	5136.9	4250.75
907.5138	1716.4841	5133.15	4249.8
907.655	1718.1987	5126	4241.05
907.7962	1719.9126	5105.45	4225.35
907.9374	1721.6257	5075.7	4191.6
908.0786	1723.338	5076.8	4196.45
908.2198	1725.0496	5064.1	4183.4
908.3609	1726.7605	5052.1	4170.6
908.502	1728.4706	5053	4169.85
908.6431	1730.18	5026.9	4142.8
908.7842	1731.8886	5020.8	4142.05
908.9253	1733.5964	5013.35	4127.85
909.0664	1735.3036	5012.35	4129.35
909.2074	1737.0099	4997.9	4114.5
909.3484	1738.7156	4974.75	4096.25
909.4894	1740.4204	4971.55	4087.4
909.6304	1742.1246	4987.5	4104.85
909.7714	1743.8279	4959.95	4078.4
909.9123	1745.5306	4952.3	4071.65
910.0532	1747.2325	4955.5	4074.6
910.1941	1748.9336	4931.7	4052.05
910.335	1750.634	4927.45	4043.75
910.4759	1752.3336	4915.7	4034.5
910.6168	1754.0325	4923.05	4042.45
910.7576	1755.7307	4901.1	4022.65
910.8984	1757.4281	4912.05	4030.1
911.0392	1759.1247	4910.1	4021.15
911.18	1760.8206	4895.15	4008.3
911.3208	1762.5158	4903.7	4018.9
911.4615	1764.2102	4862.1	3982.45
911.6022	1765.9039	4866.2	3985.3
911.7429	1767.5968	4847.35	3967.05
911.8836	1769.289	4847	3965.2
912.0243	1770.9804	4841.15	3959.7
912.1649	1772.6711	4823.05	3941.2
912.3056	1774.361	4801.9	3918.95
912.4462	1776.0502	4805.75	3924.25
912.5868	1777.7386	4799.4	3913.35
912.7274	1779.4263	4778.85	3897
912.8679	1781.1132	4785.75	3904.4
913.0084	1782.7994	4755.2	3870.95
913.149	1784.4849	4754.6	3875.35
913.2895	1786.1696	4748.2	3849.2
913.4299	1787.8535	4742.15	3863.85
913.5704	1789.5367	4723.85	3841.95
913.7108	1791.2192	4711.85	3832.4
913.8513	1792.9009	4719.2	3807.2
913.9917	1794.5818	4697.9	3814.65
914.132	1796.2621	4686.4	3805.4
914.2724	1797.9415	4664.75	3781.95
914.4128	1799.6202	4653.9	3771.25
914.5531	1801.2982	4657.2	3776.2
914.6934	1802.9755	4649	3766.25
914.8337	1804.6519	4643.35	3761.8
914.9739	1806.3277	4618.8	3737.7
915.1142	1808.0027	4593.15	3713.9
915.2544	1809.6769	4601.8	3721.4
915.3946	1811.3504	4603.9	3722
915.5348	1813.0231	4586.15	3702.85
915.675	1814.6951	4584.85	3704.65
915.8151	1816.3664	4574.7	3692.7
915.9553	1818.0369	4570.95	3691.9
916.0954	1819.7067	4538.4	3656.95
916.2355	1821.3757	4543.65	3659.6
916.3755	1823.044	4535.25	3654.05
916.5156	1824.7115	4525.75	3643.35
916.6556	1826.3783	4517.8	3634.95
916.7956	1828.0443	4503.35	3624.8
916.9356	1829.7096	4502.15	3618.55
917.0756	1831.3741	4495.35	3612.35
917.2155	1833.0379	4463.25	3582.55
917.3555	1834.701	4473.5	3588.55
917.4954	1836.3633	4463.05	3581.5
917.6353	1838.0248	4447.35	3564.45
917.7751	1839.6856	4442.45	3560.25
917.915	1841.3457	4436.1	3557.6
918.0548	1843.005	4425.95	3544.85
918.1946	1844.6636	4412	3531.9
918.3344	1846.3214	4403.55	3520.45
918.4742	1847.9785	4404.2	3524.85
918.6139	1849.6349	4379.2	3497.65
918.7537	1851.2904	4393.7	3504
918.8934	1852.9453	4379.2	3497.15
919.0331	1854.5994	4368.6	3485.25
919.1727	1856.2528	4364.1	3475.95
919.3124	1857.9054	4360.95	3478.25
919.452	1859.5572	4347.75	3465.95
919.5916	1861.2083	4343.6	3459.2
919.7312	1862.8587	4331.35	3451.45
919.8708	1864.5084	4333.55	3452.45
920.0103	1866.1572	4311.25	3429.25
920.1498	1867.8054	4309.65	3427.9
920.2893	1869.4528	4295.25	3412.45
920.4288	1871.0994	4288.8	3406.8
920.5683	1872.7453	4294.85	3411.55
920.7077	1874.3905	4271	3382.9
920.8471	1876.0349	4261.3	3379.7
920.9865	1877.6786	4261.7	3378.9
921.1259	1879.3215	4258.5	3375.4
921.2653	1880.9637	4250.05	3367.6
921.4046	1882.6051	4235.05	3354.05
921.5439	1884.2458	4234.25	3352.2
921.6832	1885.8858	4211	3330.6
921.8225	1887.525	4208.75	3326.85
921.9617	1889.1634	4197.45	3313.5
922.101	1890.8011	4182.35	3300.45
922.2402	1892.4381	4183.85	3300.65
922.3794	1894.0743	4183.15	3302.45
922.5185	1895.7098	4162.3	3280.7
922.6577	1897.3446	4152.05	3269.9
922.7968	1898.9786	4164.85	3279.3
922.9359	1900.6118	4143.9	3261.55
923.075	1902.2443	4128.9	3246
923.214	1903.8761	4137.05	3257.15
923.3531	1905.5071	4121	3236.6
923.4921	1907.1374	4109.2	3228.4
923.6311	1908.7669	4075.1	3194.2
923.77	1910.3957	4077.95	3197.65
923.909	1912.0237	4070.85	3189.65
924.0479	1913.651	4063.25	3181.8
924.1868	1915.2776	4047.55	3167.45
924.3257	1916.9034	4051.3	3172.9
924.4646	1918.5285	4033.2	3152.75
924.6034	1920.1528	4028.15	3147
924.7422	1921.7764	4009.95	3127.6
924.881	1923.3992	3996.8	3115.3
925.0198	1925.0213	3973.15	3091.9
925.1586	1926.6427	3979.25	3097
925.2973	1928.2633	4140.8	3042.4
925.436	1929.8832	3994.45	3108.05
925.5747	1931.5023	3941.2	3061.4
925.7134	1933.1207	3947.35	3064.7
925.852	1934.7383	3934.25	3052.05
925.9906	1936.3552	3928.3	3047.15
926.1292	1937.9714	3916.45	3033.5
926.2678	1939.5868	3907.65	3022.7
926.4064	1941.2015	3906.45	3024.7
926.5449	1942.8154	3881.65	3000
926.6834	1944.4286	3860.45	2980.15
926.8219	1946.041	3876.15	2971.35
926.9604	1947.6528	3855.35	2969.15
927.0988	1949.2637	3851.15	2971.1
927.2372	1950.8739	3831	2950.05
927.3756	1952.4834	3836.35	2954.45
927.514	1954.0921	3828.5	2946.15
927.6523	1955.7001	3817.95	2933.3
927.7907	1957.3074	3796.8	2916.7
927.929	1958.9139	3788.9	2908.3
928.0673	1960.5197	3782.6	2899.5
928.2055	1962.1247	3782.55	2901.9
928.3438	1963.729	3785.15	2903.85
928.482	1965.3325	3779.05	2876.15
928.6202	1966.9353	3763.75	2885.95
928.7584	1968.5374	3747.15	2866.25
928.8965	1970.1387	3740.6	2857.8
929.0346	1971.7393	3733.75	2852.7
929.1727	1973.3392	3719.05	2838.3
929.3108	1974.9383	3714.9	2835.95
929.4489	1976.5366	3697.35	2817.6
929.5869	1978.1342	3698.4	2817.6
929.7249	1979.7311	3699.75	2819.5
929.8629	1981.3273	3671.05	2790.45
930.0009	1982.9227	3675.1	2793.6
930.1388	1984.5173	3648.3	2768.05
930.2767	1986.1112	3651.15	2772.85
930.4146	1987.7044	3645.8	2766.5
930.5525	1989.2968	3622.15	2743
930.6904	1990.8885	3633.85	2749
930.8282	1992.4795	3641.9	2761.35
930.966	1994.0697	3628.3	2749.5
931.1038	1995.6592	3624.25	2743.9
931.2415	1997.2479	3625.1	2744.45
931.3793	1998.8359	3607.45	2726.8
931.517	2000.4232	3592.1	2712.65
931.6547	2002.0097	3572.6	2693.75
931.7923	2003.5955	3573.15	2693.15
931.93	2005.1805	3581.65	2701.9
932.0676	2006.7648	3561.35	2683.4
932.2052	2008.3484	3553.45	2672.7
932.3427	2009.9312	3555.2	2675.8
932.4803	2011.5133	3549.75	2671.2
932.6178	2013.0946	3544.5	2665.5
932.7553	2014.6752	3537.2	2660.7
932.8928	2016.2551	3531.35	2653.25
933.0302	2017.8342	3527.05	2648.15
933.1676	2019.4126	3510.1	2631.85
933.305	2020.9902	3505.9	2630.75
933.4424	2022.5672	3506.6	2625.35
933.5798	2024.1433	3510.3	2626
933.7171	2025.7188	3502.8	2625.45
933.8544	2027.2935	3497.65	2619.45
933.9917	2028.8674	3494.85	2617.4
934.129	2030.4406	3483	2605.8
934.2662	2032.0131	3462.7	2585.3
934.4034	2033.5849	3451.3	2566.35
934.5406	2035.1559	3443.8	2565.95
934.6778	2036.7261	3458.25	2579.05
934.8149	2038.2957	3457.05	2578.45
934.952	2039.8645	3437.55	2558.25
935.0891	2041.4325	3457.15	2572.35
935.2262	2042.9998	3441.95	2561.55
935.3632	2044.5664	3448.2	2567.7
935.5002	2046.1323	3419.95	2541.85
935.6372	2047.6974	3420.8	2541.55
935.7742	2049.2617	3410.9	2532.05
935.9111	2050.8254	3426.75	2543.5
936.048	2052.3883	3422.2	2543.4
936.1849	2053.9504	3401.75	2523.75
936.3218	2055.5118	3396	2514.65
936.4586	2057.0725	3392.7	2510.65
936.5955	2058.6325	3401.85	2522.2
936.7323	2060.1917	3400.1	2522.75
936.869	2061.7502	3385.45	2503.45
937.0058	2063.3079	3373.1	2494.45
937.1425	2064.8649	3350.8	2469.4
937.2792	2066.4212	3355.1	2476.55
937.4159	2067.9767	3353.35	2475.8
937.5525	2069.5315	3349.25	2470.65
937.6891	2071.0856	3349.65	2469.9
937.8257	2072.6389	3341.1	2460.75
937.9623	2074.1915	3329.5	2451.4
938.0989	2075.7433	3324	2442.75
938.2354	2077.2945	3318.95	2440.25
938.3719	2078.8448	3309.75	2431.15
938.5084	2080.3945	3303.95	2426.65
938.6448	2081.9434	3311.6	2433.65
938.7812	2083.4916	3310.9	2431.4
938.9176	2085.039	3302.4	2419
939.054	2086.5857	3288.35	2407.4
939.1903	2088.1317	3293.55	2413.45
939.3267	2089.677	3294.35	2415.8
939.463	2091.2215	3284.15	2403.15
939.5992	2092.7652	3281.2	2400.4
939.7355	2094.3083	3272.4	2393
939.8717	2095.8506	3268.7	2389.25
940.0079	2097.3921	3282.3	2402.05
940.1441	2098.933	3257.45	2377.5
940.2802	2100.4731	3253.75	2373.35
940.4163	2102.0124	3266.5	2370.1
940.5524	2103.5511	3259.5	2379.75
940.6885	2105.089	3255.25	2376.65
940.8245	2106.6261	3249.2	2368.2
940.9606	2108.1626	3237	2355.75
941.0965	2109.6983	3264.05	2356.25
941.2325	2111.2332	3229.1	2349.15
941.3684	2112.7675	3224.25	2343.15
941.5044	2114.301	3217.6	2337.1
941.6403	2115.8337	3232.6	2352.6
941.7761	2117.3657	3216.8	2337.3
941.912	2118.897	3225	2343.85
942.0478	2120.4276	3206.4	2321.5
942.1835	2121.9575	3202.8	2324.25
942.3193	2123.4866	3204.6	2321.3
942.455	2125.0149	3206.75	2325.2
942.5907	2126.5426	3190.8	2310.9
942.7264	2128.0695	3185.75	2302.15
942.8621	2129.5956	3187.3	2309.65
942.9977	2131.1211	3180.2	2296.1
943.1333	2132.6458	3169.8	2290.5
943.2689	2134.1698	3167.35	2286.95
943.4044	2135.693	3167	2286.35
943.54	2137.2155	3166.25	2285.9
943.6755	2138.7373	3154.1	2273.4
943.8109	2140.2584	3153.25	2274.2
943.9464	2141.7787	3142.85	2258.8
944.0818	2143.2983	3134.95	2258.75
944.2172	2144.8171	3127.15	2250.2
944.3526	2146.3353	3117.75	2238.45
944.4879	2147.8527	3102.65	2226.05
944.6232	2149.3693	3108.95	2229.1
944.7585	2150.8853	3100.15	2219.7
944.8938	2152.4005	3084.45	2202.4
945.029	2153.9149	3100.05	2220.15
945.1642	2155.4287	3092.85	2214.05
945.2994	2156.9417	3094.05	2211.7
945.4346	2158.454	3083.2	2201.1
945.5697	2159.9655	3079.7	2201.15
945.7048	2161.4764	3072.75	2192.95
945.8399	2162.9865	3058.5	2178.3
945.9749	2164.4958	3056.45	2175.9
946.1099	2166.0045	3062.3	2179.95
946.2449	2167.5124	3050.65	2172.3
946.3799	2169.0195	3043.1	2164.3
946.5148	2170.526	3037.95	2157.35
946.6498	2172.0317	3054.8	2175.15
946.7846	2173.5367	3041.1	2162.7
946.9195	2175.0409	3038.5	2160.15
947.0543	2176.5445	3023.15	2143.9
947.1891	2178.0473	3033.55	2154.95
947.3239	2179.5494	3023.7	2140.3
947.4587	2181.0507	3016.9	2139.15
947.5934	2182.5513	3004.95	2125.35
947.7281	2184.0512	2983.4	2103.25
947.8628	2185.5504	2986.9	2106.65
947.9974	2187.0488	2984.35	2105.1
948.132	2188.5465	2971.2	2090.95
948.2666	2190.0435	2969.5	2090.3
948.4012	2191.5397	2951.6	2074.5
948.5357	2193.0353	2964.9	2087.05
948.6702	2194.5301	2943.5	2063.8
948.8047	2196.0241	2924.35	2044.7
948.9392	2197.5175	2941.55	2059.6
949.0736	2199.0101	2929.85	2046.65
949.208	2200.502	2925.5	2046.45
949.3424	2201.9931	2923.15	2043.05
949.4767	2203.4835	2912.85	2032.6
949.611	2204.9733	2913.45	2028.85
949.7453	2206.4622	2908.1	2030.05
949.8796	2207.9505	2890	2007.5
950.0138	2209.438	2869.6	1991.2
950.148	2210.9248	2887.95	2008.3
950.2822	2212.4109	2875.5	1998.85
950.4164	2213.8962	2877.5	1995.75
950.5505	2215.3809	2864.75	1985.8
950.6846	2216.8648	2858.05	1976.55
950.8186	2218.3479	2853.6	1968.75
950.9527	2219.8304	2856.25	1972.95
951.0867	2221.3121	2839	1956.9
951.2207	2222.7931	2835.1	1955
951.3546	2224.2733	2820.45	1939.9
951.4886	2225.7529	2819.2	1939.5
951.6225	2227.2317	2811.7	1927.75
951.7563	2228.7098	2816.45	1938.85
951.8902	2230.1872	2807.35	1928.65
952.024	2231.6638	2800.1	1920.85
952.1578	2233.1397	2797.3	1911.6
952.2916	2234.6149	2792.55	1914.55
952.4253	2236.0894	2769.65	1889.6
952.559	2237.5632	2783.1	1893.7
952.6927	2239.0362	2771	1890.95
952.8263	2240.5085	2755.6	1875.4
952.9599	2241.9801	2747.25	1865.95
953.0935	2243.4509	2755.55	1875.15
953.2271	2244.921	2737.1	1857.75
953.3606	2246.3904	2737.9	1854.7
953.4941	2247.8591	2734.25	1854.7
953.6276	2249.3271	2734.9	1856.6
953.7611	2250.7943	2721.4	1839.15
953.8945	2252.2608	2703.55	1824.2
954.0279	2253.7266	2715.25	1836.15
954.1612	2255.1917	2701.6	1821.8
954.2946	2256.656	2696.85	1816.7
954.4279	2258.1197	2696.6	1818.75
954.5612	2259.5826	2697.1	1818.05
954.6944	2261.0447	2679.95	1799.15
954.8276	2262.5062	2676.35	1795.5
954.9608	2263.9669	2685.95	1804.85
955.094	2265.4269	2672.7	1790.85
955.2271	2266.8862	2660.35	1780.6
955.3602	2268.3448	2651.55	1772.6
955.4933	2269.8026	2659.8	1780.7
955.6264	2271.2598	2649.55	1770.35
955.7594	2272.7162	2647.75	1770.8
955.8924	2274.1719	2645.25	1765.9
956.0253	2275.6268	2633.15	1753.5
956.1583	2277.0811	2621.95	1742.75
956.2912	2278.5346	2631.55	1753.7
956.4241	2279.9874	2609.8	1731.55
956.5569	2281.4395	2634.05	1754.3
956.6897	2282.8908	2621.95	1736.9
956.8225	2284.3414	2614.15	1734.55
956.9553	2285.7914	2598	1719.6
957.088	2287.2406	2593.7	1710.95
957.2207	2288.689	2594.45	1715.3
957.3534	2290.1368	2594	1714.6
957.486	2291.5838	2577.8	1694.85
957.6186	2293.0302	2570.2	1688.6
957.7512	2294.4758	2564.6	1684.35
957.8838	2295.9206	2564.65	1682.05
958.0163	2297.3648	2564.4	1684.7
958.1488	2298.8082	2555.45	1675.55
958.2813	2300.251	2550	1669.25
958.4137	2301.693	2550.3	1667.2
958.5461	2303.1343	2542.8	1662.65
958.6785	2304.5748	2546.3	1666.5
958.8108	2306.0147	2528.1	1647.2
958.9432	2307.4538	2518.05	1636.5
959.0754	2308.8922	2527.8	1649
959.2077	2310.3299	2519.85	1638.95
959.3399	2311.7669	2512.9	1633.8
959.4721	2313.2031	2493.65	1614.85
959.6043	2314.6387	2504.95	1625.15
959.7365	2316.0735	2495.15	1614.45
959.8686	2317.5076	2482.85	1601.4
960.0006	2318.941	2483.45	1606.2
960.1327	2320.3737	2486.05	1603.65
960.2647	2321.8056	2481.35	1599.05
960.3967	2323.2369	2474.7	1594.25
960.5287	2324.6674	2475.25	1593.65
960.6606	2326.0972	2469.05	1590.1
960.7925	2327.5263	2459.45	1579
960.9244	2328.9547	2446.6	1566.7
961.0562	2330.3823	2448.1	1567.9
961.1881	2331.8092	2445.85	1561.5
961.3198	2333.2355	2440.2	1559.35
961.4516	2334.661	2435.35	1554.85
961.5833	2336.0858	2448.45	1566.9
961.715	2337.5098	2433.05	1554.4
961.8467	2338.9332	2432.6	1550.9
961.9783	2340.3558	2406.15	1523.6
962.1099	2341.7778	2416.05	1534.55
962.2415	2343.199	2411.7	1529.3
962.373	2344.6195	2399.6	1520.35
962.5045	2346.0393	2386.15	1507.9
962.636	2347.4583	2382	1501.2
962.7675	2348.8767	2391.35	1510.7
962.8989	2350.2943	2386.05	1505.5
963.0303	2351.7113	2378.05	1496.25
963.1617	2353.1275	2379.55	1498.2
963.293	2354.543	2386.1	1495.8
963.4243	2355.9578	2377.25	1498
963.5556	2357.3718	2354.2	1475.5
963.6868	2358.7852	2344.15	1460.5
963.818	2360.1978	2339.9	1461.25
963.9492	2361.6098	2332.8	1453.05
964.0803	2363.021	2326.55	1442.1
964.2114	2364.4315	2325.45	1447.7
964.3425	2365.8413	2324.5	1442.5
964.4736	2367.2504	2311.6	1433.4
964.6046	2368.6587	2305.15	1424.75
964.7356	2370.0664	2295.15	1415.55
964.8666	2371.4733	2306.15	1425.7
964.9975	2372.8795	2295.65	1415.1
965.1284	2374.285	2284.2	1404.85
965.2593	2375.6899	2277.2	1398.35
965.3901	2377.0939	2271.75	1390.7
965.5209	2378.4973	2275.65	1398.05
965.6517	2379.9	2257.3	1374.55
965.7825	2381.3019	2258.55	1377.85
965.9132	2382.7032	2250.4	1371.3
966.0439	2384.1037	2255.2	1376.25
966.1745	2385.5035	2243.1	1363.45
966.3051	2386.9027	2246.1	1367.1
966.4357	2388.3011	2229.7	1344.55
966.5663	2389.6987	2230.7	1351.55
966.6968	2391.0957	2217.05	1336.5
966.8273	2392.492	2216.85	1337.25
966.9578	2393.8876	2204.2	1324.6
967.0882	2395.2824	2203.7	1322.35
967.2186	2396.6765	2204.2	1324.3
967.349	2398.07	2183.8	1303.4
967.4793	2399.4627	2186.7	1305.4
967.6097	2400.8547	2178.4	1296.55
967.7399	2402.246	2176.45	1288.75
967.8702	2403.6366	2172.25	1292.45
968.0004	2405.0265	2159.5	1280
968.1306	2406.4156	2162	1276.9
968.2607	2407.8041	2154.2	1271.6
968.3909	2409.1918	2141.35	1258.25
968.521	2410.5789	2142.6	1261.6
968.651	2411.9652	2141.35	1259
968.781	2413.3508	2138.85	1257.25
968.911	2414.7358	2133.1	1253.85
969.041	2416.12	2124.2	1243.8
969.1709	2417.5035	2120.15	1240.2
969.3008	2418.8863	2115.5	1231.45
969.4307	2420.2684	2099.9	1217.25
969.5606	2421.6497	2107.45	1225.15
969.6904	2423.0304	2088.45	1209.35
969.8201	2424.4104	2096.3	1213.55
969.9499	2425.7896	2095.75	1214.55
970.0796	2427.1682	2079.15	1196.7
970.2093	2428.546	2083.1	1202.05
970.3389	2429.9232	2074.7	1192.55
970.4685	2431.2996	2070.45	1191.75
970.5981	2432.6753	2077.9	1197.25
970.7277	2434.0503	2068.45	1186.1
970.8572	2435.4246	2061.15	1181.8
970.9867	2436.7982	2063.4	1179.7
971.1161	2438.1711	2058.2	1178
971.2456	2439.5433	2048	1164.3
971.375	2440.9148	2049.3	1162.8
971.5043	2442.2856	2048.55	1168.2
971.6336	2443.6557	2034.4	1152.65
971.7629	2445.025	2030.1	1150.05
971.8922	2446.3937	2028.75	1145.85
972.0214	2447.7617	2025.05	1141.9
972.1506	2449.1289	2025.2	1145.35
972.2798	2450.4955	2021.6	1136.15
972.4089	2451.8613	2014.8	1136.75
972.538	2453.2265	2021.55	1141.75
972.6671	2454.5909	2012.15	1130.3
972.7961	2455.9546	2006.15	1127.55
972.9251	2457.3177	2001.4	1122.95
973.0541	2458.68	1999.7	1118.3
973.1831	2460.0416	1991.7	1110.5
973.312	2461.4025	2005.4	1125.35
973.4408	2462.7627	2009.9	1116.95
973.5697	2464.1222	1988.3	1109.25
973.6985	2465.4811	1981.55	1099.2
973.8273	2466.8392	1976.9	1096.05
973.956	2468.1966	1979.8	1097.9
974.0847	2469.5533	1977.55	1094.65
974.2134	2470.9093	1975.9	1094.8
974.3421	2472.2645	1981.3	1098.6
974.4707	2473.6191	1961.6	1082.05
974.5993	2474.973	1953.85	1071.75
974.7278	2476.3262	1949.45	1067.25
974.8563	2477.6787	1951.85	1073.3
974.9848	2479.0305	1935.85	1055.6
975.1132	2480.3816	1943.95	1063.1
975.2417	2481.7319	1941.15	1060.2
975.37	2483.0816	1928.15	1047.05
975.4984	2484.4306	1927	1044.95
975.6267	2485.7789	1935.2	1055.15
975.755	2487.1264	1922.5	1040.95
975.8833	2488.4733	1917.9	1039.35
976.0115	2489.8195	1911.15	1023.35
976.1397	2491.165	1911.8	1027.9
976.2678	2492.5097	1904.05	1023.55
976.3959	2493.8538	1905.1	1025.55
976.524	2495.1972	1889	1010
976.6521	2496.5398	1884.35	1003.9
976.7801	2497.8818	1890.45	1007.95
976.9081	2499.2231	1883.95	1000.75
977.036	2500.5637	1882.9	1001.95
977.164	2501.9035	1874.7	992.05
977.2918	2503.2427	1873.9	988.3
977.4197	2504.5812	1866.8	985.3
977.5475	2505.919	1872.4	989.05
977.6753	2507.256	1867.1	986.9
977.8031	2508.5924	1862.3	981.45
977.9308	2509.9281	1864.85	977.25
978.0585	2511.2631	1856.1	974.55
978.1861	2512.5974	1845.6	963.45
978.3137	2513.9309	1846.9	966.1
978.4413	2515.2638	1865.15	951.5
978.5689	2516.596	1849	969.35
978.6964	2517.9275	1836.45	956.05
978.8239	2519.2583	1831.25	949.15
978.9513	2520.5884	1827.35	946.45
979.0788	2521.9178	1820.35	939.3
979.2062	2523.2465	1813.3	934.75
979.3335	2524.5745	1810.75	930.4
979.4608	2525.9018	1806	924.9
979.5881	2527.2284	1809.2	929.7
979.7154	2528.5543	1812	932.15
979.8426	2529.8796	1795.55	914.95
979.9698	2531.2041	1807.7	929.2
980.0969	2532.5279	1804.5	924.4
980.224	2533.851	1796.05	914.5
980.3511	2535.1735	1798.8	918.05
980.4781	2536.4952	1787.75	906.05
980.6052	2537.8163	1791.6	911
980.7321	2539.1366	1780.6	901.1
980.8591	2540.4562	1783.8	901.4
980.986	2541.7752	1782.7	903
981.1129	2543.0935	1777.6	896
981.2397	2544.411	1774.1	893.35
981.3665	2545.7279	1769.05	889
981.4933	2547.0441	1771.85	891.55
981.62	2548.3596	1770.25	887.75
981.7467	2549.6744	1767.15	886.85
981.8734	2550.9885	1769.45	880.35
982.0001	2552.3019	1748.85	869.95
982.1267	2553.6146	1769.55	887.3
982.2532	2554.9266	1741.35	861.4
982.3798	2556.2379	1759.25	875.15
982.5063	2557.5485	1741.9	863.85
982.6327	2558.8585	1751.9	864
982.7592	2560.1677	1745.85	860.25
982.8856	2561.4762	1734.6	855.05
983.0119	2562.7841	1734.7	848.75
983.1383	2564.0913	1733.5	854.9
983.2646	2565.3977	1742.05	860.8
983.3908	2566.7035	1726.45	847.8
983.517	2568.0086	1727.3	842.95
983.6432	2569.313	1722.05	840.35
983.7694	2570.6167	1726.65	843.3
983.8955	2571.9197	1731.65	849.8
984.0216	2573.222	1720.2	836.15
984.1476	2574.5236	1725	843.3
984.2737	2575.8246	1704.7	821.45
984.3996	2577.1248	1717.15	834.9
984.5256	2578.4244	1714.75	833.7
984.6515	2579.7232	1707.05	824.6
984.7774	2581.0214	1729.8	824.45
984.9032	2582.3189	1712	833.35
985.029	2583.6157	1709.35	823.55
985.1548	2584.9118	1697.3	815.95
985.2806	2586.2072	1694.1	812.3
985.4063	2587.5019	1690.8	811.7
985.5319	2588.7959	1689.05	808.1
985.6576	2590.0893	1695.55	814.2
985.7832	2591.3819	1684.45	803.3
985.9087	2592.6739	1684.3	804.2
986.0343	2593.9652	1679.45	799.35
986.1597	2595.2557	1676.95	796.75
986.2852	2596.5456	1667.45	784.35
986.4106	2597.8348	1659.15	780.9
986.536	2599.1234	1655.1	775.55
986.6614	2600.4112	1660.3	780.6
986.7867	2601.6983	1661	776.7
986.912	2602.9848	1659.9	779.85
987.0372	2604.2705	1649.45	760.75
987.1624	2605.5556	1653.2	770.7
987.2876	2606.84	1648.4	768.6
987.4128	2608.1237	1644.7	762.15
987.5379	2609.4067	1630.7	750.3
987.6629	2610.689	1635.75	747
987.788	2611.9707	1638	754.6
987.913	2613.2516	1626.5	740.85
988.0379	2614.5319	1621.2	741.45
988.1629	2615.8115	1619.5	737.35
988.2878	2617.0903	1616	734.85
988.4126	2618.3685	1618.95	739.45
988.5375	2619.6461	1609.5	729.35
988.6622	2620.9229	1601.75	722.65
988.787	2622.199	1601.75	719.5
988.9117	2623.4745	1605.9	725.05
989.0364	2624.7493	1598.05	715.1
989.161	2626.0234	1591.8	711.55
989.2857	2627.2968	1596.3	713.8
989.4102	2628.5695	1595.7	713.25
989.5348	2629.8415	1586.5	708.15
989.6593	2631.1128	1580.65	698.25
989.7837	2632.3835	1573.8	695.45
989.9082	2633.6535	1570	690.05
990.0326	2634.9228	1569.7	690.2
990.1569	2636.1914	1562.9	684.15
990.2812	2637.4593	1571.25	681.85
990.4055	2638.7265	1564.3	683.6
990.5298	2639.9931	1562.15	681.1
990.654	2641.259	1564.55	683.65
990.7782	2642.5242	1553.05	671.45
990.9023	2643.7887	1555.3	673.55
991.0264	2645.0525	1546.8	665.85
991.1505	2646.3156	1551.2	670.5
991.2745	2647.5781	1550.2	673.2
991.3985	2648.8398	1541	659.1
991.5225	2650.1009	1543.9	656.25
991.6464	2651.3613	1543.45	664.25
991.7703	2652.6211	1534	652.7
991.8942	2653.8801	1534.05	653.15
992.018	2655.1385	1537.45	653.55
992.1418	2656.3961	1532.2	650.95
992.2655	2657.6531	1527.2	645.85
992.3892	2658.9094	1518.45	638.35
992.5129	2660.1651	1528.55	648.7
992.6366	2661.42	1514.2	635.15
992.7602	2662.6743	1524.7	641.65
992.8837	2663.9279	1516.9	636.25
993.0073	2665.1808	1521.2	640.25
993.1307	2666.433	1504.1	624.35
993.2542	2667.6846	1506.65	626.85
993.3776	2668.9354	1511.6	630.1
993.501	2670.1856	1503.7	621.15
993.6244	2671.4351	1503.2	623.05
993.7477	2672.6839	1501.85	620
993.8709	2673.9321	1494.75	614.2
993.9942	2675.1795	1498.8	620.2
994.1174	2676.4263	1491.55	610.25
994.2405	2677.6724	1493	612.65
994.3637	2678.9179	1493.75	612.5
994.4868	2680.1626	1480.25	601.6
994.6098	2681.4067	1487.6	605.85
994.7328	2682.6501	1478.55	598.15
994.8558	2683.8928	1482.35	602.5
994.9788	2685.1348	1478	597.55
995.1017	2686.3761	1476.95	598.7
995.2245	2687.6168	1471.1	591
995.3474	2688.8568	1467.3	586.5
995.4702	2690.0961	1465.75	587.25
995.5929	2691.3348	1469.7	589.8
995.7156	2692.5727	1469.65	589
995.8383	2693.81	1466.25	586.6
995.961	2695.0466	1465.5	587.4
996.0836	2696.2826	1454.8	571.95
996.2062	2697.5178	1471.25	571.55
996.3287	2698.7524	1455.25	574.95
996.4512	2699.9863	1453.75	572.55
996.5737	2701.2195	1439.65	559.3
996.6961	2702.452	1447.05	563.75
996.8185	2703.6839	1442	561.2
996.9408	2704.9151	1438.7	559.7
997.0631	2706.1456	1436.05	555.85
997.1854	2707.3755	1440.65	560.7
997.3077	2708.6046	1441.15	559.4
997.4299	2709.8331	1439.6	558.6
997.552	2711.0609	1437.15	558.25
997.6742	2712.2881	1432.3	553.25
997.7963	2713.5145	1423.8	540.9
997.9183	2714.7403	1433.7	552.7
998.0403	2715.9654	1421.5	540.95
998.1623	2717.1899	1434.65	539.75
998.2842	2718.4136	1419.25	541.15
998.4062	2719.6367	1420.05	540.2
998.528	2720.8591	1414.3	526.4
998.6498	2722.0809	1412.3	533.1
998.7716	2723.3019	1415.35	531.3
998.8934	2724.5223	1411.95	530.85
999.0151	2725.7421	1417.45	535.55
999.1368	2726.9611	1407.1	524.1
999.2584	2728.1795	1406.15	522.2
999.38	2729.3972	1396.25	516.75
999.5016	2730.6142	1414.35	520.7
999.6231	2731.8306	1393.65	512.9
999.7446	2733.0462	1388.2	504.05
999.8661	2734.2612	1393.85	508.9
999.9875	2735.4756	1389	505.6
1000.1089	2736.6892	1385.4	504.9
1000.2302	2737.9022	1378.4	499.4
1000.3515	2739.1145	1375.55	495.95
1000.4728	2740.3262	1381.95	496.5
1000.594	2741.5372	1373.25	491.75
1000.7152	2742.7475	1363.7	482.95
1000.8363	2743.9571	1361.45	481.85
1000.9575	2745.1661	1373.5	489.95
1001.0785	2746.3744	1363.8	483.6
1001.1996	2747.582	1366.1	486.55
1001.3206	2748.7889	1363.5	483
1001.4415	2749.9952	1349.15	468
1001.5625	2751.2008	1350.65	471.35
1001.6833	2752.4057	1355.65	472.65
1001.8042	2753.61	1347.8	466.65
1001.925	2754.8136	1356.4	475.45
1002.0458	2756.0165	1350.6	471.85
1002.1665	2757.2188	1342.95	465.25
1002.2872	2758.4204	1348.6	466.8
1002.4078	2759.6213	1340.85	458.75
1002.5285	2760.8215	1341.3	459
1002.649	2762.0211	1335.1	453.55
1002.7696	2763.22	1333.85	451.45
1002.8901	2764.4182	1335.6	454.15
1003.0106	2765.6158	1335.2	454.8
1003.131	2766.8127	1331.5	451.9
1003.2514	2768.009	1325.9	446.55
1003.3717	2769.2045	1332.9	451.95
1003.492	2770.3994	1327.05	445.5
1003.6123	2771.5936	1323.6	442.65
1003.7325	2772.7872	1311.8	433.85
1003.8527	2773.9801	1317	435.4
1003.9729	2775.1723	1331.75	433.3
1004.093	2776.3639	1309.85	431.7
1004.2131	2777.5548	1309.25	426.7
1004.3331	2778.745	1310.75	430.1
1004.4531	2779.9346	1304.8	425.55
1004.5731	2781.1235	1306.55	424.7
1004.693	2782.3117	1302.95	425.1
1004.8129	2783.4992	1298.65	419.1
1004.9328	2784.6861	1299.95	420.2
1005.0526	2785.8723	1298.85	418.05
1005.1723	2787.0579	1297	414.9
1005.2921	2788.2428	1298.05	419.15
1005.4118	2789.427	1293.1	415.05
1005.5314	2790.6106	1292.85	412.95
1005.651	2791.7935	1292.85	412
1005.7706	2792.9757	1290	411.2
1005.8902	2794.1573	1292.15	411.2
1006.0097	2795.3382	1286.2	407.25
1006.1291	2796.5184	1281.5	403.6
1006.2485	2797.698	1284.9	402.8
1006.3679	2798.8769	1279.45	398.2
1006.4873	2800.0551	1278.1	399.65
1006.6066	2801.2327	1277.9	394.65
1006.7258	2802.4096	1276.7	398.85
1006.8451	2803.5859	1271.95	392.55
1006.9642	2804.7615	1269.15	387.5
1007.0834	2805.9364	1267.3	388.2
1007.2025	2807.1106	1267	388.6
1007.3216	2808.2842	1269.25	389.4
1007.4406	2809.4572	1264.65	385.7
1007.5596	2810.6294	1266.55	384.5
1007.6785	2811.801	1265.65	387.55
1007.7975	2812.972	1267.45	389.5
1007.9163	2814.1423	1265.15	385.8
1008.0352	2815.3119	1264.35	383.3
1008.154	2816.4808	1263.8	384.4
1008.2727	2817.6491	1272	392.85
1008.3914	2818.8167	1267.65	388.05
1008.5101	2819.9837	1278	393.2
1008.6288	2821.15	1272.95	391.65
1008.7474	2822.3157	1272.45	392.5
1008.8659	2823.4807	1276.1	398.85
1008.9844	2824.645	1281.9	401.1
1009.1029	2825.8086	1286.75	408.35
1009.2214	2826.9716	1294.1	416.8
1009.3398	2828.134	1293.15	412.7
1009.4581	2829.2957	1294.2	415.45
1009.5764	2830.4567	1300.75	424.25
1009.6947	2831.617	1303	423.05
1009.813	2832.7767	1299.8	420.1
1009.9312	2833.9358	1299.65	420.15
1010.0493	2835.0941	1301	419.35
1010.1675	2836.2519	1298.5	420.6
1010.2855	2837.4089	1293.35	411.85
1010.4036	2838.5653	1292	414.6
1010.5216	2839.7211	1286.05	408
1010.6396	2840.8761	1289.15	407.8
1010.7575	2842.0306	1274.95	398.8
1010.8754	2843.1843	1277.25	397.85
1010.9932	2844.3374	1279.2	401.4
1011.111	2845.4899	1278.15	397.9
1011.2288	2846.6417	1282.95	404
1011.3465	2847.7928	1278.05	399.2
1011.4642	2848.9433	1279.9	401.65
1011.5818	2850.0931	1276.85	399.7
1011.6995	2851.2422	1277.85	397.65
1011.817	2852.3907	1280.05	401.9
1011.9345	2853.5385	1282.3	400.5
1012.052	2854.6857	1286.8	398.15
1012.1695	2855.8323	1275.15	396
1012.2869	2856.9781	1274.9	394.55
1012.4042	2858.1233	1279.3	400.55
1012.5216	2859.2679	1284.7	404.75
1012.6389	2860.4118	1288.55	407.9
1012.7561	2861.555	1285.3	402.9
1012.8733	2862.6976	1287.85	407.45
1012.9905	2863.8395	1284.3	404.2
1013.1076	2864.9808	1280.9	402.5
1013.2247	2866.1214	1282.8	404.85
1013.3417	2867.2614	1288.5	408.45
1013.4587	2868.4007	1284.95	405.55
1013.5757	2869.5393	1290.75	411.65
1013.6926	2870.6773	1294.3	413.5
1013.8095	2871.8146	1288.45	405.15
1013.9263	2872.9513	1285.05	402.65
1014.0431	2874.0874	1280.45	401.3
1014.1599	2875.2227	1276.35	396.15
1014.2766	2876.3574	1281.2	402.55
1014.3933	2877.4915	1281.6	404.1
1014.51	2878.6249	1283.8	406.45
1014.6266	2879.7577	1288.05	407.1
1014.7431	2880.8898	1283.95	394.3
1014.8596	2882.0212	1281.1	404.8
1014.9761	2883.152	1282.5	402.6
1015.0925	2884.2821	1283.6	405.1
1015.2089	2885.4116	1280.55	402.35
1015.3253	2886.5405	1283.8	403.65
1015.4416	2887.6686	1287.95	406.75
1015.5579	2888.7962	1274.35	396.45
1015.6741	2889.923	1276.15	398
1015.7903	2891.0493	1282.2	404.15
1015.9065	2892.1748	1275.35	395.2
1016.0226	2893.2997	1272.45	391.5
1016.1387	2894.424	1273.45	394.6
1016.2547	2895.5476	1274.65	396.35
1016.3707	2896.6706	1272.05	395.4
1016.4866	2897.7929	1266.6	384.75
1016.6025	2898.9145	1271.9	393.65
1016.7184	2900.0355	1269.7	390.2
1016.8342	2901.1559	1269.5	388.8
1016.95	2902.2756	1261.1	383.55
1017.0658	2903.3946	1264.45	385.15
1017.1815	2904.513	1261.85	381.25
1017.2971	2905.6308	1261.55	383.55
1017.4127	2906.7479	1261.85	381.6
1017.5283	2907.8643	1261.55	383.5
1017.6439	2908.9801	1263.35	382.4
1017.7594	2910.0953	1253.55	375.15
1017.8748	2911.2098	1258.3	373.9
1017.9902	2912.3236	1261.35	373.55
1018.1056	2913.4368	1254.6	372.6
1018.2209	2914.5494	1249.5	369.15
1018.3362	2915.6613	1252.9	367.75
1018.4515	2916.7725	1245.65	363.7
1018.5667	2917.8831	1242.6	362.2
1018.6819	2918.9931	1243.75	362.65
1018.797	2920.1024	1232.3	351.85
1018.9121	2921.211	1235.4	356.05
1019.0271	2922.319	1229.8	350.75
1019.1421	2923.4264	1230.9	352.2
1019.2571	2924.5331	1229.85	351.7
1019.372	2925.6391	1228.4	348.45
1019.4869	2926.7445	1229.7	352.15
1019.6017	2927.8493	1225.05	344.6
1019.7165	2928.9534	1222.85	344.5
1019.8313	2930.0569	1219.7	338.75
1019.946	2931.1597	1224.45	342.55
1020.0606	2932.2619	1224.95	344
1020.1753	2933.3634	1229.2	350.75
1020.2899	2934.4643	1239.45	353.95
1020.4044	2935.5645	1234.95	351.45
1020.5189	2936.6641	1224.5	341.25
1020.6334	2937.763	1217.6	339.5
1020.7478	2938.8613	1224.5	343.65
1020.8622	2939.959	1224.95	339.6
1020.9765	2941.056	1216.7	339.5
1021.0908	2942.1523	1214	333.7
1021.2051	2943.248	1208.15	326.95
1021.3193	2944.3431	1201.3	323.3
1021.4334	2945.4375	1195.65	315.8
1021.5476	2946.5313	1181.8	302.8
1021.6617	2947.6244	1184.6	304
1021.7757	2948.7169	1173.7	294.1
1021.8897	2949.8087	1171.35	292.85
1022.0037	2950.8999	1156.35	276.5
1022.1176	2951.9904	1164.2	286.6
1022.2315	2953.0803	1154.25	274.1
1022.3453	2954.1696	1149.25	269.1
1022.4591	2955.2582	1144.65	266.15
1022.5728	2956.3462	1146.45	265.9
1022.6865	2957.4335	1145.55	266.75
1022.8002	2958.5202	1142.9	263.65
1022.9138	2959.6062	1140	262.55
1023.0274	2960.6916	1136.7	259.35
1023.141	2961.7764	1134.55	253.5
1023.2545	2962.8605	1134	255
1023.3679	2963.9439	1137.6	259.15
1023.4813	2965.0267	1134.1	254.2
1023.5947	2966.1089	1153	250.8
1023.708	2967.1905	1129.25	251.15
1023.8213	2968.2714	1135.25	256.65
1023.9346	2969.3516	1128.25	248.9
1024.0478	2970.4312	1132.05	243.65
1024.1609	2971.5102	1127	251.5
1024.274	2972.5885	1122.8	243.55
1024.3871	2973.6662	1127	243.7
1024.5002	2974.7432	1120.7	245.35
1024.6132	2975.8196	1120.3	239.95
1024.7261	2976.8954	1120.1	244.4
1024.839	2977.9705	1118.45	238.85
1024.9519	2979.045	1119.7	241.85
1025.0647	2980.1188	1116.4	240.8
1025.1775	2981.192	1114.45	236.3
1025.2902	2982.2645	1117.2	237.85
1025.4029	2983.3364	1116.3	238.15
1025.5156	2984.4077	1109.5	231.6
1025.6282	2985.4783	1116.25	230.2
1025.7407	2986.5483	1104	225.4
1025.8532	2987.6177	1100.85	223.3
1025.9657	2988.6864	1106.2	226.5
1026.0782	2989.7545	1099.45	216.9
1026.1906	2990.8219	1093.75	216
1026.3029	2991.8887	1094.75	213.1
1026.4152	2992.9548	1092.75	215.55
1026.5275	2994.0204	1084.15	205.8
1026.6397	2995.0852	1085.8	207.3
1026.7519	2996.1495	1084.9	204.85
1026.864	2997.2131	1080.35	204.05
1026.9761	2998.276	1082.3	202.25
1027.0882	2999.3383	1077.2	198.35
1027.2002	3000.4	1077.1	198.7
1027.3122	3001.4611	1069.85	193.6
1027.4241	3002.5215	1070.4	190.7
1027.536	3003.5812	1068.65	192.3
1027.6478	3004.6404	1069.15	190.15
1027.7596	3005.6989	1070.8	189.5
1027.8714	3006.7567	1065.95	187.4
1027.9831	3007.8139	1084.5	182.05
1028.0947	3008.8705	1063.85	185.8
1028.2064	3009.9264	1063.8	180.9
1028.3179	3010.9818	1059.05	179.65
1028.4295	3012.0364	1059.15	179.35
1028.541	3013.0905	1058.85	179.25
1028.6524	3014.1439	1061.45	182.2
1028.7638	3015.1966	1055.2	175.85
1028.8752	3016.2487	1056.3	176.55
1028.9865	3017.3002	1058.9	174.75
1029.0978	3018.3511	1055.65	176.9
1029.209	3019.4013	1053.4	174.65
1029.3202	3020.4509	1055.25	177.15
1029.4314	3021.4998	1054.35	175
1029.5425	3022.5481	1055.25	177.6
1029.6535	3023.5958	1052.15	172.55
1029.7645	3024.6428	1050.6	172.7
1029.8755	3025.6892	1045.9	167.8
1029.9864	3026.735	1045.5	166.7
1030.0973	3027.7802	1048.95	170.85
1030.2082	3028.8247	1045.35	166.05
1030.319	3029.8685	1040.6	160.7
1030.4297	3030.9118	1041.9	163.85
1030.5404	3031.9544	1041.6	164.65
1030.6511	3032.9963	1046.2	168.45
1030.7617	3034.0376	1041.05	162.45
1030.8723	3035.0783	1044.1	163.15
1030.9829	3036.1184	1042.95	162.15
1031.0934	3037.1578	1037.1	158.55
1031.2038	3038.1966	1036.85	158.8
1031.3142	3039.2348	1036.35	156.4
1031.4246	3040.2723	1050.8	164.5
1031.5349	3041.3092	1038.75	161.25
1031.6452	3042.3455	1036	156.7
1031.7554	3043.3811	1031.7	153.85
1031.8656	3044.4161	1037.65	157.5
1031.9758	3045.4505	1033.8	156.85
1032.0859	3046.4842	1038.4	158.75
1032.1959	3047.5173	1033.9	155.55
1032.3059	3048.5498	1035.55	158.65
1032.4159	3049.5816	1033.65	154.75
1032.5258	3050.6128	1034.35	154.6
1032.6357	3051.6434	1037.3	156.7
1032.7455	3052.6734	1034.15	153.6
1032.8553	3053.7027	1033.15	156.25
1032.9651	3054.7314	1029.9	151.15
1033.0748	3055.7594	1028.55	150.9
1033.1845	3056.7868	1032.7	152.6
1033.2941	3057.8136	1026.85	148.85
1033.4037	3058.8398	1030.7	155.1
1033.5132	3059.8653	1030.1	150.65
1033.6227	3060.8902	1025.7	147.45
1033.7321	3061.9145	1027.7	149.7
1033.8415	3062.9381	1026.75	147.95
1033.9509	3063.9612	1047	153.1
1034.0602	3064.9835	1030.4	152.4
1034.1694	3066.0053	1027.5	146.05
1034.2787	3067.0264	1026	149
1034.3878	3068.0469	1028.1	147.2
1034.497	3069.0668	1030.8	149.55
1034.6061	3070.086	1022	144.5
1034.7151	3071.1046	1023.3	146.35
1034.8241	3072.1226	1022.6	144.4
1034.9331	3073.1399	1025.25	148.25
1035.042	3074.1567	1022.55	142.35
1035.1508	3075.1727	1022.85	142.3
1035.2597	3076.1882	1016	137.35
1035.3684	3077.203	1019.55	139.8
1035.4772	3078.2173	1017.8	135.3
1035.5859	3079.2308	1016.7	135.55
1035.6945	3080.2438	1017.2	135.3
1035.8031	3081.2561	1010.7	134
1035.9117	3082.2678	1012.25	133.25
1036.0202	3083.2789	1010.9	132.9
1036.1286	3084.2893	1012.2	134.75
1036.2371	3085.2991	1009.5	130.75
1036.3454	3086.3083	1012	130.95
1036.4538	3087.3169	1010.35	129.85
1036.562	3088.3248	1010.2	130.75
1036.6703	3089.3321	1012.65	130.9
1036.7785	3090.3388	1005.1	128.2
1036.8866	3091.3449	1007.9	130.45
1036.9948	3092.3503	1010.15	129.8
1037.1028	3093.3551	1004.55	126.45
1037.2108	3094.3593	1006.8	129.5
1037.3188	3095.3629	1002.15	124.65
1037.4267	3096.3658	1004.85	124.55
1037.5346	3097.3681	998.35	119.7
1037.6425	3098.3698	1006.8	126.75
1037.7503	3099.3708	1012.35	127.15
1037.858	3100.3713	998.9	121.45
1037.9657	3101.3711	999.1	117.9
1038.0734	3102.3702	1134	118.95
1038.181	3103.3688	1001.6	122.1
1038.2886	3104.3667	996.9	119.25
1038.3961	3105.364	994.5	115.15
1038.5036	3106.3607	997.55	116.95
1038.611	3107.3568	997.35	116.2
1038.7184	3108.3522	998.5	123
1038.8257	3109.347	993.65	114.05
1038.933	3110.3412	999.35	117
1039.0403	3111.3348	994.35	117.35
1039.1475	3112.3277	988.95	112
1039.2547	3113.32	991.6	112.6
1039.3618	3114.3117	988.95	107.95
1039.4689	3115.3028	992.25	115.3
1039.5759	3116.2932	991.55	112.1
1039.6829	3117.2831	996.65	112.75
1039.7898	3118.2723	985.9	109.65
1039.8967	3119.2608	986.7	108.05
1040.0035	3120.2488	988.6	111.05
1040.1103	3121.2361	987.9	108.8
1040.2171	3122.2229	982.7	104.75
1040.3238	3123.209	983.6	104.05
1040.4305	3124.1944	984.1	105.1
1040.5371	3125.1793	985.8	105.7
1040.6437	3126.1635	983.55	106.4
1040.7502	3127.1471	983.1	104.75
1040.8567	3128.1301	982.9	103.9
1040.9631	3129.1125	980.4	101.65
1041.0695	3130.0942	983.2	105.2
1041.1759	3131.0753	988.75	102
1041.2822	3132.0558	983.4	102.35
1041.3884	3133.0357	979.45	100.85
1041.4946	3134.015	978.1	99.95
1041.6008	3134.9936	979.15	100.55
1041.7069	3135.9716	1001.7	101.8
1041.813	3136.949	978.45	101.55
1041.919	3137.9258	982.4	98.45
1042.025	3138.902	981.6	98.3
1042.1309	3139.8775	973.75	96.35
1042.2368	3140.8524	978.6	100.9
1042.3427	3141.8267	979	99.15
1042.4485	3142.8004	974.15	97.15
1042.5542	3143.7735	981.4	97.95
1042.6599	3144.7459	978.3	96.95
1042.7656	3145.7178	977.4	97.25
1042.8712	3146.689	969	90.8
1042.9768	3147.6596	976.55	99.15
1043.0823	3148.6295	976.8	97.45
1043.1878	3149.5989	974.1	95.9
1043.2932	3150.5676	971.5	95.65
1043.3986	3151.5357	966.8	89.2
1043.5039	3152.5032	970.2	92.7
1043.6092	3153.4701	970.85	94.25
1043.7145	3154.4364	970.1	90.2
1043.8197	3155.402	965.65	89.05
1043.9248	3156.367	967.9	88.45
1044.03	3157.3315	1005.65	90.25
1044.135	3158.2952	971.1	92.7
1044.24	3159.2584	965.6	85.75
1044.345	3160.221	966.4	86.8
1044.4499	3161.1829	962.65	82.3
1044.5548	3162.1442	964.4	88.8
1044.6596	3163.105	965.45	86.5
1044.7644	3164.065	967.15	88.5
1044.8692	3165.0245	967.95	85.1
1044.9739	3165.9834	962.25	84.65
1045.0785	3166.9416	961.4	83.45
1045.1831	3167.8993	964.15	86.75
1045.2877	3168.8563	964.5	85.9
1045.3922	3169.8127	958.45	81.2
1045.4966	3170.7684	960.35	79.65
1045.6011	3171.7236	962.8	85.05
1045.7054	3172.6782	962.8	84.65
1045.8098	3173.6321	958.65	79.75
1045.914	3174.5854	962.45	81.4
1046.0183	3175.5381	959.6	82.4
1046.1224	3176.4902	957.1	79
1046.2266	3177.4417	955.1	77.7
1046.3307	3178.3926	960.65	82.7
1046.4347	3179.3428	957.35	79.6
1046.5387	3180.2924	957.45	79.45
1046.6427	3181.2415	958.55	79.3
1046.7466	3182.1899	956.25	77.6
1046.8504	3183.1377	954.8	75.15
1046.9542	3184.0848	957.65	76.65
1047.058	3185.0314	954.1	75.6
1047.1617	3185.9773	955.15	78
1047.2654	3186.9227	955.3	76.4
1047.369	3187.8674	953.8	74.95
1047.4726	3188.8115	955.1	74.1
1047.5761	3189.755	950.75	71.55
1047.6796	3190.6979	952.55	74.35
1047.783	3191.6402	951.65	75.45
1047.8864	3192.5818	951.9	74.8
1047.9898	3193.5229	955.45	71.3
1048.0931	3194.4633	950.2	72.05
1048.1963	3195.4031	952.5	73.35
1048.2995	3196.3423	948.15	70.6
1048.4027	3197.2809	950.45	72.35
1048.5058	3198.2189	948.15	70.5
1048.6089	3199.1563	964.3	68.05
1048.7119	3200.0931	947.45	70.7
1048.8148	3201.0292	946.65	68.85
1048.9178	3201.9648	949.15	71.45
1049.0206	3202.8997	947.3	65.35
1049.1235	3203.834	948.5	71.55
1049.2262	3204.7677	946.05	68.6
1049.329	3205.7008	950.55	71.15
1049.4317	3206.6333	944.6	65.95
1049.5343	3207.5652	946.95	68.3
1049.6369	3208.4964	943.6	65.85
1049.7394	3209.4271	941.5	64.25
1049.8419	3210.3571	943.55	64.1
1049.9444	3211.2865	944.85	65.15
1050.0468	3212.2154	943.5	64.35
1050.1491	3213.1436	944.65	62.9
1050.2514	3214.0712	950.8	67.7
1050.3537	3214.9982	942.9	66.85
1050.4559	3215.9246	944.05	66.65
1050.5581	3216.8503	942.45	65.25
1050.6602	3217.7755	942.9	62.5
1050.7623	3218.7001	942.2	65.4
1050.8643	3219.624	943.75	67
1050.9663	3220.5473	939.9	60.3
1051.0682	3221.4701	942.7	63.05
1051.1701	3222.3922	940.6	59.1
1051.2719	3223.3137	938.55	61.7
1051.3737	3224.2346	941.9	64.45
1051.4754	3225.1549	937.15	59.15
1051.5771	3226.0746	937.3	59.7
1051.6788	3226.9937	940.55	62.75
1051.7804	3227.9121	937.7	58.85
1051.8819	3228.83	937.95	60.05
1051.9834	3229.7473	936.65	59.2
1052.0849	3230.6639	937.75	59.3
1052.1863	3231.5799	936.5	57
1052.2876	3232.4954	935.5	56.4
1052.3889	3233.4102	937	58.95
1052.4902	3234.3244	936.5	58.6
1052.5914	3235.238	937.8	59.45
1052.6926	3236.151	957.25	54.65
1052.7937	3237.0634	935.35	59.65
1052.8948	3237.9752	933.85	56.55
1052.9958	3238.8864	934.65	57.9
1053.0968	3239.797	930.9	52.5
1053.1977	3240.7069	931.55	51.55
1053.2986	3241.6163	935.55	54.75
1053.3994	3242.5251	932.65	56.3
1053.5002	3243.4332	934.45	55.9
1053.6009	3244.3408	930.8	54.65
1053.7016	3245.2477	932.75	55.35
1053.8022	3246.154	931.6	52.55
1053.9028	3247.0598	932.15	54.2
1054.0034	3247.9649	932.2	53.35
1054.1039	3248.8694	931.4	51.8
1054.2043	3249.7733	929.85	53.1
1054.3047	3250.6766	930.15	51.75
1054.4051	3251.5793	930.3	50.95
1054.5054	3252.4814	928.7	51.4
1054.6056	3253.3829	927.9	47.9
1054.7058	3254.2838	930.4	52.45
1054.806	3255.1841	928.6	50.1
1054.9061	3256.0838	925.95	51.4
1055.0061	3256.9829	926.1	48.6
1055.1062	3257.8814	930.7	49.45
1055.2061	3258.7792	930.45	49.6
1055.306	3259.6765	925.3	44.5
1055.4059	3260.5731	925.5	47.95
1055.5057	3261.4692	926.25	47.65
1055.6055	3262.3647	923.05	45.4
1055.7052	3263.2595	925.25	48.45
1055.8049	3264.1538	919.4	40.05
1055.9045	3265.0474	923.25	45.55
1056.0041	3265.9404	920.75	42.75
1056.1036	3266.8329	919.9	42.95
1056.2031	3267.7247	932.55	45.25
1056.3025	3268.616	919.1	42.5
1056.4019	3269.5066	917.5	38.15
1056.5013	3270.3966	922.3	42.5
1056.6005	3271.286	914.5	37.8
