Software Version:	3.9.2.0
Unit SN:	10000200
Spectrometer SN:	6960
Date:	3/6/2024 11:04:01 AM
Data Line Index:	25
Spectral Points:	2048
Integration time (ms):	125
Averages:	20
Delay (ms):	30
Sequence Number:	1
Processing:	dark subtract
Laser Power (mW):	305
Laser Current (mA):	821
Laser Diode Temp (C):	25
Laser Case Temp (C):	28.3
System Temp (C):	28.2
Spectrometer Temp (C):	25.7
CCD Temp (C):	0.004
Secondary Temp (C):	20.013
Heatsink Temp (C):	24.043
CCDPCB Temp (C):	37.363
SecondaryPCB Temp (C):	34.795

Wavelength	RamanShift	Raw Counts	Dark Subtracted
787.061	30.1047	1071.8	656.8
787.2016	32.3739	1095.6	681.5
787.3422	34.6426	1130.6	715.85
787.4828	36.9109	1179.25	762.7
787.6235	39.1787	1236.75	817.3
787.7642	41.4461	1288.55	864.95
787.9049	43.7131	1345.7	919.05
788.0456	45.9796	1409.85	978.3
788.1863	48.2456	1465.95	1030.9
788.3271	50.5112	1545.8	1108.05
788.4679	52.7764	1597.25	1158.1
788.6087	55.0411	1667	1223.5
788.7496	57.3054	1759.75	1309.25
788.8904	59.5692	1841.45	1389.4
789.0313	61.8326	1930.3	1474.4
789.1722	64.0955	2031.35	1571.3
789.3132	66.3579	2139.7	1675.1
789.4541	68.6199	2284.35	1815.6
789.5951	70.8815	2510.25	2040.05
789.7361	73.1426	2985.8	2511.45
789.8771	75.4032	4151	3670.65
790.0181	77.6634	7145.25	6659.85
790.1592	79.9231	14734.75	14244.2
790.3003	82.1824	47007.25	46507.35
790.4414	84.4412	65535	65016.8
790.5825	86.6995	65535	64996.7
790.7237	88.9574	65535	64977
790.8648	91.2148	65535	64961.9
791.006	93.4717	65535	64946.8
791.1472	95.7282	65535	64944.95
791.2885	97.9842	65535	64941.05
791.4297	100.2398	65535	64938.3
791.571	102.4949	65535	64936.15
791.7123	104.7495	65535	64930.3
791.8536	107.0036	65535	64930.15
791.9949	109.2573	65535	64931.95
792.1363	111.5105	65535	64931.7
792.2777	113.7632	65535	64927.7
792.4191	116.0154	65535	64917.45
792.5605	118.2672	65535	64925.25
792.7019	120.5185	65535	64922.2
792.8434	122.7693	65535	64922.3
792.9849	125.0197	65535	64918.65
793.1264	127.2696	65535	64915.8
793.2679	129.519	65535	64907.2
793.4094	131.7679	65535	64910.05
793.551	134.0163	65535	64902.55
793.6926	136.2642	65535	64902.35
793.8342	138.5117	65535	64890.7
793.9758	140.7587	65535	64895.4
794.1175	143.0052	65535	64894.2
794.2591	145.2512	65535	64895.5
794.4008	147.4967	65535	64893.1
794.5425	149.7417	65535	64889.4
794.6842	151.9863	65535	64887.6
794.826	154.2304	65535	64879.45
794.9677	156.4739	65535	64878.8
795.1095	158.717	65535	64877.6
795.2513	160.9596	65535	64872.7
795.3931	163.2017	65535	64869.95
795.535	165.4433	65535	64867.1
795.6768	167.6844	65535	64867.7
795.8187	169.925	65535	64863
795.9606	172.1651	65535	64859.85
796.1025	174.4047	65535	64855.85
796.2445	176.6439	65535	64855.45
796.3864	178.8825	65535	64852.3
796.5284	181.1206	65535	64848.85
796.6704	183.3582	65535	64846.75
796.8124	185.5954	65535	64842.95
796.9544	187.832	65535	64841.15
797.0965	190.0681	65535	64842.45
797.2386	192.3037	65535	64838.45
797.3806	194.5388	65535	64833.75
797.5228	196.7734	65535	64829.65
797.6649	199.0075	65535	64826.25
797.807	201.2411	65535	64825.2
797.9492	203.4742	65535	64823.75
798.0914	205.7068	65535	64824.9
798.2336	207.9389	65535	64820.5
798.3758	210.1704	65535	64816.45
798.518	212.4015	65535	64815.75
798.6603	214.632	65535	64822.95
798.8025	216.862	65535	64830.25
798.9448	219.0915	65535	64839.3
799.0871	221.3205	65535	64833.85
799.2294	223.549	65535	64838.9
799.3718	225.777	65535	64837.95
799.5141	228.0044	65535	64834.65
799.6565	230.2314	65535	64839.45
799.7989	232.4578	65535	64835.8
799.9413	234.6837	65535	64825.7
800.0837	236.909	65535	64827
800.2262	239.1339	65535	64801.7
800.3687	241.3582	65535	64814.9
800.5111	243.582	65535	64780.7
800.6536	245.8053	65535	64797.75
800.7961	248.0281	65535	64803.75
800.9387	250.2503	65535	64796.85
801.0812	252.472	65535	64791
801.2238	254.6932	65535	64792.75
801.3664	256.9139	65535	64793.6
801.509	259.134	65535	64788.4
801.6516	261.3536	65535	64788.3
801.7942	263.5727	65535	64785.5
801.9369	265.7912	65535	64789.15
802.0795	268.0092	65535	64786.9
802.2222	270.2267	65535	64786
802.3649	272.4436	65535	64785
802.5076	274.6601	65535	64776.35
802.6504	276.8759	65535	64780.3
802.7931	279.0913	65535	64778.25
802.9359	281.3061	65535	64778.1
803.0787	283.5204	65535	64776.05
803.2215	285.7341	65535	64770.8
803.3643	287.9473	65535	64757.55
803.5071	290.16	65535	64763.8
803.6499	292.3721	65535	64771.8
803.7928	294.5837	65535	64770.5
803.9357	296.7947	65535	64770.1
804.0786	299.0052	65535	64767
804.2215	301.2152	65535	64764.45
804.3644	303.4246	65535	64769.5
804.5074	305.6334	65535	64768.85
804.6503	307.8418	65535	64767.85
804.7933	310.0495	65535	64765.5
804.9363	312.2568	65535	64767.7
805.0793	314.4635	65535	64761.2
805.2223	316.6696	65535	64763.6
805.3653	318.8752	65535	64753.15
805.5084	321.0802	65535	64761.5
805.6514	323.2847	65535	64757.6
805.7945	325.4887	65535	64758.2
805.9376	327.692	65535	64758.55
806.0807	329.8949	65535	64754.9
806.2238	332.0972	65535	64753.9
806.367	334.2989	65535	64753.3
806.5101	336.5001	65535	64749.2
806.6533	338.7007	65535	64748.2
806.7965	340.9008	65535	64750.45
806.9397	343.1003	65535	64747.55
807.0829	345.2992	65535	64745.75
807.2261	347.4976	65535	64743.35
807.3693	349.6955	65535	64740
807.5126	351.8927	65535	64742.2
807.6559	354.0895	65535	64730.25
807.7991	356.2856	65535	64738.25
807.9424	358.4812	65535	64739.45
808.0857	360.6763	65535	64737.9
808.2291	362.8707	65535	64736.9
808.3724	365.0646	65535	64734.3
808.5158	367.258	65535	64730.55
808.6591	369.4508	65535	64728.95
808.8025	371.643	65535	64726.75
808.9459	373.8346	65535	64727.4
809.0893	376.0257	65535	64722.5
809.2327	378.2162	65535	64722.65
809.3762	380.4062	65535	64722.85
809.5196	382.5956	65535	64722.7
809.6631	384.7844	65535	64723.1
809.8066	386.9726	65535	64724
809.9501	389.1603	65535	64724.8
810.0936	391.3474	65535	64694.2
810.2371	393.5339	65535	64724.65
810.3806	395.7199	65535	64728.85
810.5241	397.9052	65535	64730.6
810.6677	400.09	65535	64731.1
810.8113	402.2743	65535	64730.65
810.9548	404.4579	65535	64731.55
811.0984	406.641	65535	64727.9
811.2421	408.8235	65535	64727.4
811.3857	411.0054	65535	64724.35
811.5293	413.1868	65535	64721.4
811.673	415.3675	65535	64720.05
811.8166	417.5477	65535	64721
811.9603	419.7273	65535	64717.3
812.104	421.9064	65535	64710.45
812.2477	424.0848	65535	64712.65
812.3914	426.2627	65535	64713.65
812.5351	428.4399	65535	64711.15
812.6788	430.6166	65535	64705.1
812.8226	432.7928	65535	64706.85
812.9663	434.9683	65535	64705.5
813.1101	437.1432	65535	64703.15
813.2539	439.3176	65535	64702.25
813.3977	441.4914	65535	64702.7
813.5415	443.6645	65535	64702.95
813.6853	445.8371	65535	64705.8
813.8291	448.0091	65535	64703.95
813.973	450.1806	65535	64702.85
814.1168	452.3514	65535	64700.9
814.2607	454.5216	65535	64693.8
814.4046	456.6913	65535	64702.85
814.5485	458.8603	65535	64701.45
814.6924	461.0288	65535	64701.5
814.8363	463.1967	65535	64702.3
814.9802	465.3639	65535	64700.95
815.1241	467.5306	65535	64698.25
815.2681	469.6967	65535	64698.3
815.412	471.8622	65535	64698.6
815.556	474.0271	65535	64698.95
815.7	476.1914	65535	64693.35
815.844	478.3551	65535	64696.6
815.988	480.5182	65535	64695.9
816.132	482.6807	65535	64697.6
816.276	484.8426	65535	64697.55
816.4201	487.0039	65535	64695.95
816.5641	489.1647	65535	64696.1
816.7082	491.3248	65535	64694.1
816.8522	493.4843	65535	64692.2
816.9963	495.6432	65535	64696.8
817.1404	497.8015	65535	64687.7
817.2845	499.9592	65535	64691.6
817.4286	502.1163	65535	64690.9
817.5727	504.2728	65535	64689.05
817.7168	506.4287	65535	64690.85
817.861	508.5839	65535	64690.2
818.0051	510.7386	65535	64690.2
818.1493	512.8927	65535	64686.35
818.2935	515.0461	65535	64686.95
818.4377	517.199	65535	64685.65
818.5818	519.3512	65535	64687.45
818.726	521.5029	65535	64677.95
818.8703	523.6539	65535	64685.75
819.0145	525.8043	65535	64686.45
819.1587	527.9541	65535	64681.55
819.303	530.1033	65535	64681.6
819.4472	532.2519	65535	64685.2
819.5915	534.3999	65535	64682.05
819.7357	536.5472	65535	64681.45
819.88	538.694	65535	64681.7
820.0243	540.8401	65535	64681.7
820.1686	542.9856	65535	64681.15
820.3129	545.1305	65535	64678.35
820.4572	547.2748	65535	64677.15
820.6016	549.4185	65535	64676.3
820.7459	551.5615	65535	64679.05
820.8902	553.704	65535	64677.55
821.0346	555.8458	65535	64678.75
821.1789	557.987	65535	64678.55
821.3233	560.1276	65535	64675.25
821.4677	562.2675	65535	64678.55
821.6121	564.4069	65535	64680.1
821.7565	566.5456	65535	64679.45
821.9009	568.6837	65535	64677.95
822.0453	570.8212	65535	64679.5
822.1897	572.958	65535	64677.35
822.3342	575.0942	65535	64678.1
822.4786	577.2299	65535	64677.7
822.6231	579.3648	65535	64679.4
822.7675	581.4992	65535	64677.35
822.912	583.6329	65535	64679.75
823.0565	585.766	65535	64674.15
823.201	587.8985	65535	64680.15
823.3454	590.0304	65535	64664.65
823.4899	592.1616	65535	64671.6
823.6345	594.2922	65535	64674.1
823.779	596.4222	65535	64672.8
823.9235	598.5515	65535	64669.45
824.068	600.6802	65535	64674.35
824.2126	602.8083	65535	64673
824.3571	604.9358	65535	64669.3
824.5017	607.0626	65535	64671.7
824.6462	609.1888	65535	64670.95
824.7908	611.3144	65535	64667.1
824.9354	613.4393	65535	64670.25
825.08	615.5636	65535	64669.2
825.2246	617.6873	65535	64672
825.3692	619.8103	65535	64669.8
825.5138	621.9327	65535	64665.85
825.6584	624.0544	65535	64669.15
825.803	626.1756	65535	64669.75
825.9477	628.2961	65535	64668.45
826.0923	630.4159	65535	64667.6
826.237	632.5351	65535	64668.9
826.3816	634.6537	65535	64667.8
826.5263	636.7716	65535	64665.9
826.6709	638.8889	65535	64661.95
826.8156	641.0056	65535	64664.95
826.9603	643.1216	65535	64665.45
827.105	645.237	65535	64661.9
827.2497	647.3518	65535	64665.3
827.3944	649.4659	65535	64663.75
827.5391	651.5793	65535	64664.85
827.6838	653.6922	65535	64665.3
827.8285	655.8043	65535	64664.55
827.9733	657.9159	65535	64663.55
828.118	660.0268	65535	64661.2
828.2627	662.137	65535	64661.7
828.4075	664.2466	65535	64662.3
828.5522	666.3556	65535	64661.75
828.697	668.4639	65535	64659.45
828.8418	670.5716	65535	64661.05
828.9865	672.6786	65535	64660.35
829.1313	674.785	65535	64657.65
829.2761	676.8907	65535	64659.1
829.4209	678.9958	65535	64660.5
829.5657	681.1002	65535	64658.95
829.7105	683.204	65535	64655.5
829.8553	685.3072	65535	64658.8
830.0001	687.4097	65535	64658.65
830.1449	689.5115	65535	64656.2
830.2898	691.6127	65535	64660
830.4346	693.7132	65535	64656.35
830.5794	695.8131	65535	64650.65
830.7243	697.9123	65535	64656.95
830.8691	700.0109	65535	64656.05
831.014	702.1089	65535	64657.5
831.1588	704.2061	65535	64657.35
831.3037	706.3028	65535	64657.8
831.4486	708.3987	65535	64657.05
831.5935	710.4941	65535	64655.9
831.7383	712.5887	65535	64656.7
831.8832	714.6827	65535	64652.35
832.0281	716.7761	65535	64655.65
832.173	718.8688	65535	64655.2
832.3179	720.9608	65535	64652.2
832.4628	723.0522	65535	64650.7
832.6077	725.1429	65535	64654.7
832.7527	727.233	65535	64654.4
832.8976	729.3224	65535	64653.85
833.0425	731.4112	65535	64650.65
833.1874	733.4993	65535	64652.65
833.3324	735.5867	65535	64650.9
833.4773	737.6735	65535	64650.5
833.6222	739.7596	65535	64653.05
833.7672	741.845	65535	64648.25
833.9122	743.9298	65535	64650.4
834.0571	746.014	65535	64652.75
834.2021	748.0974	65535	64648.45
834.347	750.1802	65535	64652.75
834.492	752.2624	65535	64651.3
834.637	754.3439	65535	64650.8
834.782	756.4247	65535	64641.85
834.9269	758.5048	65535	64654.5
835.0719	760.5843	65535	64647.9
835.2169	762.6631	65535	64651.2
835.3619	764.7413	65535	64650.8
835.5069	766.8188	65535	64650.05
835.6519	768.8956	65535	64648.75
835.7969	770.9718	65535	64651
835.9419	773.0473	65535	64651.1
836.0869	775.1221	65535	64651.8
836.232	777.1962	65535	64649.1
836.377	779.2697	65535	64650.3
836.522	781.3426	65535	64630.3
836.667	783.4147	65535	64651.8
836.8121	785.4862	65535	64653.15
836.9571	787.557	65535	64649.9
837.1021	789.6271	65535	64650.55
837.2472	791.6966	65535	64650.4
837.3922	793.7654	65535	64649.55
837.5373	795.8335	65535	64649.65
837.6823	797.901	65535	64649.1
837.8274	799.9678	65535	64647.9
837.9724	802.0339	65535	64650.2
838.1175	804.0993	65535	64637.5
838.2626	806.1641	65535	64647.55
838.4076	808.2282	65535	64649.1
838.5527	810.2916	65535	64644.3
838.6978	812.3544	65535	64650.4
838.8428	814.4164	65535	64647.95
838.9879	816.4778	65535	64646.55
839.133	818.5385	65535	64648.35
839.2781	820.5986	65535	64645.7
839.4232	822.658	65535	64644.3
839.5682	824.7166	65535	64647.25
839.7133	826.7747	65535	64644.95
839.8584	828.832	65535	64647.9
840.0035	830.8886	65535	64646
840.1486	832.9446	65535	64644.2
840.2937	834.9999	65535	64646.95
840.4388	837.0545	65535	64643.25
840.5839	839.1085	65535	64646.55
840.729	841.1618	65535	64644.15
840.8741	843.2143	65535	64644.2
841.0192	845.2662	65535	64645.35
841.1643	847.3175	65535	64645.55
841.3095	849.368	65535	64646.05
841.4546	851.4179	65535	64643.75
841.5997	853.467	65535	64645.7
841.7448	855.5155	65535	64645.05
841.8899	857.5633	65535	64648.2
842.0351	859.6105	65535	64646.05
842.1802	861.6569	65535	64646.6
842.3253	863.7027	65535	64644.25
842.4704	865.7478	65535	64644.05
842.6156	867.7922	65535	64643.25
842.7607	869.8359	65535	64644.2
842.9058	871.8789	65535	64642.45
843.0509	873.9212	65535	64613.1
843.1961	875.9629	65535	64641.45
843.3412	878.0039	65535	64644.7
843.4863	880.0441	65535	64644.3
843.6315	882.0837	65535	64646.05
843.7766	884.1226	65535	64643.9
843.9218	886.1609	65535	64647.6
844.0669	888.1984	65535	64643.35
844.212	890.2352	65535	64643.3
844.3572	892.2714	65535	64640.15
844.5023	894.3069	65535	64643
844.6475	896.3416	65535	64643.65
844.7926	898.3757	65535	64642.65
844.9377	900.4091	65535	64642.15
845.0829	902.4418	65535	64637.15
845.228	904.4739	65535	64637.5
845.3732	906.5052	65535	64642.85
845.5183	908.5358	65535	64643.5
845.6635	910.5658	65535	64645.05
845.8086	912.595	65535	64642.55
845.9538	914.6236	65535	64643.05
846.0989	916.6515	65535	64641.45
846.2441	918.6786	65535	64640.45
846.3892	920.7051	65535	64636.1
846.5344	922.7309	65535	64640.5
846.6795	924.756	65535	64641.15
846.8246	926.7804	65535	64642.5
846.9698	928.8041	65535	64636.85
847.1149	930.8272	65535	64641.95
847.2601	932.8495	65535	64640.55
847.4052	934.8711	65535	64640.9
847.5504	936.892	65535	64641.9
847.6955	938.9123	65535	64640
847.8407	940.9318	65535	64638.55
847.9858	942.9506	65535	64639.85
848.131	944.9688	65535	64641.4
848.2761	946.9862	65535	64640.45
848.4213	949.003	65535	64644.15
848.5664	951.019	65535	64640.95
848.7115	953.0344	65535	64642.25
848.8567	955.0491	65535	64640.95
849.0018	957.063	65535	64643
849.147	959.0763	65535	64643.1
849.2921	961.0888	65535	64639.2
849.4373	963.1007	65535	64639.25
849.5824	965.1119	65535	64641.35
849.7275	967.1223	65535	64639.15
849.8727	969.1321	65535	64641.5
850.0178	971.1412	65535	64640.2
850.1629	973.1495	65535	64642.4
850.3081	975.1572	65535	64606.7
850.4532	977.1641	65535	64639.25
850.5983	979.1704	65535	64638.55
850.7435	981.1759	65535	64637.4
850.8886	983.1808	65535	64640.15
851.0337	985.1849	65535	64628.5
851.1788	987.1884	65535	64636.3
851.324	989.1911	65535	64638.65
851.4691	991.1932	65535	64638.75
851.6142	993.1945	65535	64640.55
851.7593	995.1951	65535	64639.65
851.9045	997.1951	65535	64635.45
852.0496	999.1943	65535	64642.35
852.1947	1001.1928	65535	64639.3
852.3398	1003.1906	65535	64638.15
852.4849	1005.1877	65535	64638.85
852.63	1007.1841	65535	64641.65
852.7751	1009.1798	65535	64639.9
852.9202	1011.1748	65535	64639.65
853.0653	1013.1691	65535	64639
853.2104	1015.1627	65535	64638.5
853.3555	1017.1556	65535	64639.55
853.5006	1019.1477	65535	64636.95
853.6457	1021.1392	65535	64640.95
853.7908	1023.1299	65535	64638.95
853.9359	1025.12	65535	64640.75
854.081	1027.1093	65535	64642.4
854.2261	1029.0979	65535	64643
854.3712	1031.0859	65535	64641.35
854.5163	1033.0731	65535	64639.45
854.6613	1035.0596	65535	64641.1
854.8064	1037.0454	65535	64638.05
854.9515	1039.0304	65535	64638.95
855.0965	1041.0148	65535	64639.7
855.2416	1042.9985	65535	64639.1
855.3867	1044.9814	65535	64643.1
855.5317	1046.9636	65535	64638.35
855.6768	1048.9452	65535	64641.65
855.8219	1050.926	65535	64642.45
855.9669	1052.9061	65535	64640.65
856.112	1054.8855	65535	64638.65
856.257	1056.8642	65535	64639.6
856.4021	1058.8421	65535	64634.75
856.5471	1060.8194	65535	64639
856.6921	1062.7959	65535	64637.55
856.8372	1064.7717	65535	64638.55
856.9822	1066.7469	65535	64641
857.1272	1068.7213	65535	64635.95
857.2723	1070.695	65535	64637.8
857.4173	1072.6679	65535	64639.4
857.5623	1074.6402	65535	64637.5
857.7073	1076.6117	65535	64634.65
857.8523	1078.5826	65535	64636.95
857.9973	1080.5527	65535	64635.85
858.1423	1082.5221	65535	64636.55
858.2873	1084.4908	65535	64639.9
858.4323	1086.4587	65535	64636.45
858.5773	1088.426	65535	64638.75
858.7223	1090.3925	65535	64633.6
858.8673	1092.3584	65535	64637.4
859.0123	1094.3235	65535	64639.55
859.1573	1096.2879	65535	64637
859.3022	1098.2515	65535	64637.45
859.4472	1100.2145	65535	64638.45
859.5922	1102.1767	65535	64637.65
859.7371	1104.1382	65535	64638
859.8821	1106.099	65535	64635.45
860.027	1108.0591	65535	64638.8
860.172	1110.0185	65535	64635.65
860.3169	1111.9771	65535	64638.95
860.4619	1113.9351	65535	64637.4
860.6068	1115.8923	65535	64638.85
860.7517	1117.8488	65535	64637.7
860.8967	1119.8045	65535	64639.3
861.0416	1121.7596	65535	64636.2
861.1865	1123.7139	65535	64639.1
861.3314	1125.6675	65535	64637.95
861.4763	1127.6204	65535	64639.7
861.6212	1129.5726	65535	64636.2
861.7661	1131.524	65535	64640.65
861.911	1133.4748	65535	64637.95
862.0559	1135.4248	65535	64637.5
862.2008	1137.3741	65535	64639.25
862.3457	1139.3226	65535	64635.1
862.4905	1141.2705	65535	64638.05
862.6354	1143.2176	65535	64634.25
862.7803	1145.164	65535	64636.2
862.9251	1147.1097	65535	64638.3
863.07	1149.0546	65535	64636.6
863.2148	1150.9989	65535	64638.2
863.3597	1152.9424	65535	64636.75
863.5045	1154.8852	65535	64637.3
863.6493	1156.8272	65535	64638.8
863.7942	1158.7686	65535	64632.75
863.939	1160.7092	65535	64639.1
864.0838	1162.6491	65535	64638.15
864.2286	1164.5883	65535	64636
864.3734	1166.5267	65535	64639.05
864.5182	1168.4644	65535	64637.15
864.663	1170.4014	65535	64634
864.8078	1172.3377	65535	64636.4
864.9526	1174.2732	65535	64638.8
865.0974	1176.2081	65535	64637.3
865.2421	1178.1421	65535	64634.85
865.3869	1180.0755	65535	64640.25
865.5317	1182.0082	65535	64637.85
865.6764	1183.9401	65535	64634.8
865.8212	1185.8713	65535	64639.65
865.9659	1187.8017	65535	64637.85
866.1106	1189.7315	65535	64638.35
866.2554	1191.6605	65535	64611.9
866.4001	1193.5888	65535	64637.7
866.5448	1195.5163	65535	64638.55
866.6895	1197.4432	65535	64637
866.8342	1199.3693	65535	64637.1
866.9789	1201.2947	65535	64633.8
867.1236	1203.2193	65535	64637
867.2683	1205.1432	65535	64635.25
867.413	1207.0664	65535	64641.35
867.5576	1208.9889	65535	64635.95
867.7023	1210.9106	65535	64639.5
867.847	1212.8316	65535	64638.6
867.9916	1214.7519	65535	64629.2
868.1363	1216.6715	65535	64639.15
868.2809	1218.5903	65535	64637.85
868.4255	1220.5084	65535	64640.2
868.5701	1222.4257	65535	64638.7
868.7148	1224.3424	65535	64638.35
868.8594	1226.2583	65535	64634.45
869.004	1228.1735	65535	64635.35
869.1486	1230.0879	65535	64636.65
869.2932	1232.0016	65535	64637.7
869.4377	1233.9146	65535	64637.05
869.5823	1235.8269	65535	64637.6
869.7269	1237.7384	65535	64638.25
869.8715	1239.6492	65535	64638.9
870.016	1241.5592	65535	64635.15
870.1606	1243.4686	65535	64636.8
870.3051	1245.3772	65535	64638.05
870.4496	1247.285	65535	64637.85
870.5941	1249.1922	65535	64637.5
870.7387	1251.0986	65535	64639.35
870.8832	1253.0042	65535	64639.45
871.0277	1254.9092	65535	64637.65
871.1722	1256.8134	65535	64638.05
871.3167	1258.7169	65535	64636.3
871.4611	1260.6196	65535	64640.35
871.6056	1262.5216	65535	64635.8
871.7501	1264.4229	65535	64639.6
871.8945	1266.3234	65535	64637.45
872.039	1268.2232	65535	64637.95
872.1834	1270.1223	65535	64638.8
872.3278	1272.0207	65535	64636.85
872.4723	1273.9183	65535	64630
872.6167	1275.8151	65535	64639.45
872.7611	1277.7113	65535	64634.4
872.9055	1279.6067	65535	64637.6
873.0499	1281.5014	65535	64634.8
873.1943	1283.3953	65535	64635.55
873.3386	1285.2885	65535	64640.45
873.483	1287.181	65535	64636.8
873.6274	1289.0727	65535	64640.75
873.7717	1290.9637	65535	64635.3
873.9161	1292.854	65535	64638.75
874.0604	1294.7435	65535	64638
874.2047	1296.6323	65535	64636.6
874.349	1298.5204	65535	64632.25
874.4933	1300.4077	65535	64636.3
874.6376	1302.2943	65535	64638.8
874.7819	1304.1802	65535	64640.35
874.9262	1306.0653	65535	64635.8
875.0705	1307.9497	65535	64638.3
875.2147	1309.8333	65535	64638.2
875.359	1311.7162	65535	64637.8
875.5032	1313.5984	65535	64635.8
875.6475	1315.4798	65535	64625.4
875.7917	1317.3605	65535	64620.55
875.9359	1319.2405	65535	64636
876.0801	1321.1197	65535	64636.6
876.2243	1322.9982	65535	64633.85
876.3685	1324.876	65535	64636.95
876.5127	1326.753	65535	64636.55
876.6569	1328.6293	65535	64635.2
876.801	1330.5048	65535	64633.1
876.9452	1332.3796	65535	64637.95
877.0893	1334.2537	65535	64614.15
877.2335	1336.127	65535	64637.5
877.3776	1337.9996	65535	64637.25
877.5217	1339.8714	65535	64636.15
877.6658	1341.7426	65535	64596.1
877.8099	1343.6129	65535	64634.25
877.954	1345.4826	65535	64636.55
878.0981	1347.3515	65535	64635
878.2422	1349.2196	65535	64636.25
878.3862	1351.087	65535	64638.05
878.5303	1352.9537	65535	64636.55
878.6743	1354.8197	65535	64635.7
878.8184	1356.6849	65535	64637.5
878.9624	1358.5493	65535	64635.85
879.1064	1360.4131	65535	64637.65
879.2504	1362.276	65535	64638.45
879.3944	1364.1383	65535	64638.8
879.5384	1365.9998	65535	64633.65
879.6823	1367.8606	65535	64637.15
879.8263	1369.7206	65535	64639.1
879.9702	1371.5799	65535	64637.15
880.1142	1373.4384	65535	64635.3
880.2581	1375.2962	65535	64635.5
880.402	1377.1533	65535	64636.9
880.5459	1379.0096	65535	64637.95
880.6898	1380.8652	65535	64636.4
880.8337	1382.7201	65535	64634.45
880.9776	1384.5742	65535	64635.45
881.1215	1386.4275	65535	64636.55
881.2653	1388.2802	65535	64638.2
881.4092	1390.132	65535	64638.7
881.553	1391.9832	65535	64635.1
881.6968	1393.8336	65535	64638.1
881.8406	1395.6832	65535	64634.9
881.9844	1397.5322	65535	64638.45
882.1282	1399.3803	65535	64631.85
882.272	1401.2278	65535	64636.4
882.4158	1403.0745	65535	64638.55
882.5595	1404.9204	65535	64640.25
882.7033	1406.7656	65535	64637.2
882.847	1408.6101	65535	64636.75
882.9908	1410.4538	65535	64636.9
883.1345	1412.2968	65535	64635.4
883.2782	1414.139	65535	64634.2
883.4219	1415.9805	65535	64635.8
883.5656	1417.8213	65535	64632.75
883.7092	1419.6613	65535	64639.7
883.8529	1421.5006	65535	64638.9
883.9965	1423.3391	65535	64637.95
884.1402	1425.1769	65535	64637
884.2838	1427.0139	65535	64636.05
884.4274	1428.8502	65535	64636.25
884.571	1430.6858	65535	64641.6
884.7146	1432.5206	65535	64635.6
884.8582	1434.3547	65535	64637.95
885.0018	1436.188	65535	64638.3
885.1453	1438.0206	65535	64637.05
885.2889	1439.8524	65535	64637.3
885.4324	1441.6835	65535	64637.35
885.5759	1443.5139	65535	64633.25
885.7194	1445.3435	65535	64636.65
885.8629	1447.1724	65535	64636.4
886.0064	1449.0005	65535	64636.2
886.1499	1450.8279	65535	64636.9
886.2933	1452.6545	65535	64637.1
886.4368	1454.4804	65535	64637.4
886.5802	1456.3056	65535	64630.85
886.7237	1458.13	65535	64638.65
886.8671	1459.9536	65535	64637.45
887.0105	1461.7766	65535	64636.9
887.1539	1463.5987	65535	64634.6
887.2972	1465.4202	65535	64636.8
887.4406	1467.2409	65535	64637.75
887.584	1469.0608	65535	64638.6
887.7273	1470.88	65535	64636.75
887.8706	1472.6984	65535	64636.45
888.0139	1474.5161	65535	64635.8
888.1572	1476.3331	65535	64638.1
888.3005	1478.1493	65535	64636.85
888.4438	1479.9648	65535	64638.25
888.5871	1481.7795	65535	64639
888.7303	1483.5935	65535	64638.85
888.8736	1485.4067	65533.4	64637.4
889.0168	1487.2192	65535	64637.85
889.16	1489.031	65525.2	64626.8
889.3032	1490.842	65533.6	64637.95
889.4464	1492.6522	65533.85	64635.75
889.5896	1494.4618	65524.95	64627.6
889.7327	1496.2705	65530.6	64634.1
889.8759	1498.0785	65490.4	64592.85
890.019	1499.8858	65522.45	64623.7
890.1622	1501.6924	65533.2	64635.7
890.3053	1503.4981	65514.1	64618.8
890.4484	1505.3032	65519.2	64622.3
890.5914	1507.1075	65480.3	64583.25
890.7345	1508.911	65483.65	64587.05
890.8776	1510.7138	65486.95	64590
891.0206	1512.5159	65512.35	64618.35
891.1637	1514.3172	65360.5	64462.9
891.3067	1516.1178	65409.25	64513.3
891.4497	1517.9176	65472.85	64571.65
891.5927	1519.7166	65402	64505.4
891.7357	1521.515	65376.95	64473.8
891.8786	1523.3126	65181.95	64283.75
892.0216	1525.1094	65381.55	64482.35
892.1645	1526.9055	65275.05	64380.2
892.3074	1528.7008	65296.15	64400.35
892.4503	1530.4954	64993.15	64088.55
892.5932	1532.2893	65271.2	64376.3
892.7361	1534.0824	64931.3	64028.75
892.879	1535.8747	64622.25	63725.45
893.0218	1537.6663	65273.8	64376.6
893.1647	1539.4572	63913.05	63013.2
893.3075	1541.2473	64585.75	63687.35
893.4503	1543.0367	64448.4	63552.05
893.5931	1544.8253	64263.95	63364.35
893.7359	1546.6132	64388.2	63489.15
893.8787	1548.4003	63912.6	63008.25
894.0214	1550.1867	63835.75	62931.25
894.1642	1551.9723	63657.8	62755.8
894.3069	1553.7572	63700.5	62804.25
894.4496	1555.5414	64002.8	63108.05
894.5923	1557.3247	62374.15	61477.1
894.735	1559.1074	63661.95	62766.85
894.8777	1560.8893	63014.9	62117.45
895.0204	1562.6705	63294.95	62399.5
895.163	1564.4509	62305.95	61409.85
895.3056	1566.2305	62716.5	61821
895.4482	1568.0094	63317.15	62422.5
895.5908	1569.7876	62803.3	61906.6
895.7334	1571.565	62184.65	61289.95
895.876	1573.3417	62593.05	61699.15
896.0186	1575.1176	62363.7	61465.6
896.1611	1576.8928	62048.2	61152.45
896.3036	1578.6672	61451.7	60559.6
896.4461	1580.4409	61728.55	60835.75
896.5886	1582.2138	60938.95	60039.2
896.7311	1583.986	61091.45	60197.75
896.8736	1585.7575	60402.3	59507.65
897.0161	1587.5282	60473.6	59581.05
897.1585	1589.2981	60539.2	59645.6
897.3009	1591.0673	59807.95	58912.05
897.4433	1592.8358	59423.4	58528.45
897.5857	1594.6035	59833.35	58938.25
897.7281	1596.3704	59821.65	58926.45
897.8705	1598.1366	59042.75	58147.7
898.0128	1599.9021	58595.65	57701.85
898.1551	1601.6668	59080.05	58180.35
898.2975	1603.4308	58790.8	57894
898.4398	1605.194	59030.8	58130.3
898.5821	1606.9564	57953.95	57061.2
898.7243	1608.7182	58532.45	57636.85
898.8666	1610.4791	58000.45	57107.4
899.0088	1612.2394	58345.35	57451.95
899.1511	1613.9988	57939.95	57046.75
899.2933	1615.7576	58518.4	57623.7
899.4355	1617.5156	58423.35	57524.75
899.5776	1619.2728	59143.9	58248.4
899.7198	1621.0293	58197.85	57304.5
899.862	1622.785	58214.05	57317.2
900.0041	1624.54	58474.5	57574.15
900.1462	1626.2942	57991.3	57095.45
900.2883	1628.0477	56934.2	56035.5
900.4304	1629.8005	56430.05	55534.65
900.5725	1631.5525	56670.95	55778.4
900.7145	1633.3037	55791.3	54897.95
900.8566	1635.0542	55759.3	54867.3
900.9986	1636.804	55775.25	54878.95
901.1406	1638.553	55212.85	54203.9
901.2826	1640.3013	55116.5	54219.55
901.4245	1642.0488	54631.9	53738.3
901.5665	1643.7955	54846.45	53952.75
901.7085	1645.5416	54541.8	53648.3
901.8504	1647.2868	54287.45	53393.15
901.9923	1649.0313	54545.5	53653.95
902.1342	1650.7751	54321.95	53425.55
902.2761	1652.5181	54151.7	53257.7
902.4179	1654.2604	54223.6	53329.85
902.5598	1656.0019	54627.3	53734.15
902.7016	1657.7427	54490.4	53597.45
902.8434	1659.4828	54956.9	54061.5
902.9852	1661.222	54855.45	53958.25
903.127	1662.9606	54904.65	54010.55
903.2687	1664.6984	54437.55	53542.8
903.4105	1666.4354	54282.3	53387.25
903.5522	1668.1717	53409.85	52515
903.6939	1669.9072	52808.35	51913.2
903.8356	1671.642	52342.7	51445.65
903.9773	1673.3761	51971.75	51079.45
904.119	1675.1094	51629.1	50735.75
904.2606	1676.8419	51218.9	50324.45
904.4022	1678.5737	50934.9	50041.3
904.5439	1680.3048	50598.2	49703.25
904.6855	1682.0351	50301.3	49407.15
904.827	1683.7646	50068.3	49171.9
904.9686	1685.4934	50025	49130.55
905.1101	1687.2215	49542.9	48648.1
905.2517	1688.9488	49441.5	48545.3
905.3932	1690.6754	48962.05	48070.2
905.5347	1692.4012	48991.5	48100.55
905.6761	1694.1263	48734	47842.7
905.8176	1695.8506	48606.3	47713.8
905.9591	1697.5742	48431.25	47538.25
906.1005	1699.297	48216.3	47322.3
906.2419	1701.0191	47941.9	47048.9
906.3833	1702.7404	47734.3	46842.95
906.5246	1704.461	47475.95	46583.15
906.666	1706.1808	47250.2	46354.15
906.8073	1707.8999	47163.05	46267.8
906.9487	1709.6182	46996.15	46103.85
907.09	1711.3358	46869.45	45976.55
907.2313	1713.0527	46702.85	45811.55
907.3725	1714.7688	46411.2	45512.15
907.5138	1716.4841	46184.45	45287.75
907.655	1718.1987	46176.4	45278.4
907.7962	1719.9126	45999.3	45106.35
907.9374	1721.6257	45846.4	44950.5
908.0786	1723.338	45773.95	44879.25
908.2198	1725.0496	45402.75	44508.9
908.3609	1726.7605	45338.95	44445.65
908.502	1728.4706	45120.45	44225.85
908.6431	1730.18	44869.45	43976.25
908.7842	1731.8886	44747.2	43854.4
908.9253	1733.5964	44593.5	43680.25
909.0664	1735.3036	44510.05	43615.2
909.2074	1737.0099	44367.25	43475.35
909.3484	1738.7156	44283.6	43392.15
909.4894	1740.4204	43951.7	43055.85
909.6304	1742.1246	43902.5	43009.85
909.7714	1743.8279	43778.2	42885.2
909.9123	1745.5306	43728.75	42835.9
910.0532	1747.2325	43519.5	42625.4
910.1941	1748.9336	43383.6	42490.9
910.335	1750.634	43211.55	42317.3
910.4759	1752.3336	43073.8	42181.25
910.6168	1754.0325	43014.7	42125.4
910.7576	1755.7307	42860.85	41969.35
910.8984	1757.4281	42811.9	41923.75
911.0392	1759.1247	42728.6	41829.05
911.18	1760.8206	42537.2	41640
911.3208	1762.5158	42504.55	41607.7
911.4615	1764.2102	42264.3	41374.25
911.6022	1765.9039	42133.5	41241.25
911.7429	1767.5968	42019.55	41127.2
911.8836	1769.289	41873	40980.15
912.0243	1770.9804	41816.5	40924.55
912.1649	1772.6711	41695.5	40803.3
912.3056	1774.361	41563.7	40670.35
912.4462	1776.0502	41508.4	40616.1
912.5868	1777.7386	41328.4	40431.2
912.7274	1779.4263	41228.65	40334.75
912.8679	1781.1132	41156.7	40264.1
913.0084	1782.7994	40944.95	40050.85
913.149	1784.4849	40871.65	39980.5
913.2895	1786.1696	40711.45	39812.65
913.4299	1787.8535	40653.65	39763.2
913.5704	1789.5367	40482.2	39588.3
913.7108	1791.2192	40422.75	39530.75
913.8513	1792.9009	40256.4	39335.4
913.9917	1794.5818	40078.25	39184.15
914.132	1796.2621	40042.75	39151.95
914.2724	1797.9415	39897.3	39005.25
914.4128	1799.6202	39740.9	38850.75
914.5531	1801.2982	39660.65	38768.3
914.6934	1802.9755	39592.45	38697.85
914.8337	1804.6519	39483.9	38590.85
914.9739	1806.3277	39246.3	38352.4
915.1142	1808.0027	39113.15	38220.55
915.2544	1809.6769	39064.8	38172.55
915.3946	1811.3504	38946.9	38052.5
915.5348	1813.0231	38851.65	37957.95
915.675	1814.6951	38757.9	37866.55
915.8151	1816.3664	38791.45	37897.05
915.9553	1818.0369	38610.65	37717.55
916.0954	1819.7067	38466.35	37575.25
916.2355	1821.3757	38397.2	37505.05
916.3755	1823.044	38293.05	37399.75
916.5156	1824.7115	38174.9	37282.8
916.6556	1826.3783	37970.9	37079.35
916.7956	1828.0443	37892.65	37001.8
916.9356	1829.7096	37775.5	36882.35
917.0756	1831.3741	37697.8	36802
917.2155	1833.0379	37597.45	36704.2
917.3555	1834.701	37470.75	36576.4
917.4954	1836.3633	37381.85	36487.55
917.6353	1838.0248	37295.05	36400.85
917.7751	1839.6856	37166.95	36274.75
917.915	1841.3457	37157.35	36265.9
918.0548	1843.005	36995.7	36104.55
918.1946	1844.6636	36967.05	36073.15
918.3344	1846.3214	36805.8	35913.05
918.4742	1847.9785	36739.9	35847.05
918.6139	1849.6349	36625.15	35731.2
918.7537	1851.2904	36479.8	35578.15
918.8934	1852.9453	36402.65	35510.2
919.0331	1854.5994	36260.55	35366.6
919.1727	1856.2528	36316	35421.85
919.3124	1857.9054	36162.8	35269.9
919.452	1859.5572	36135.85	35243.65
919.5916	1861.2083	35937.95	35045.25
919.7312	1862.8587	35937.4	35046.1
919.8708	1864.5084	35803.4	34911
920.0103	1866.1572	35689.65	34799.4
920.1498	1867.8054	35489.7	34598.6
920.2893	1869.4528	35513.75	34621.95
920.4288	1871.0994	35369.25	34478.05
920.5683	1872.7453	35282	34388.65
920.7077	1874.3905	35204.8	34304.6
920.8471	1876.0349	35070.45	34176.55
920.9865	1877.6786	35025.5	34130.8
921.1259	1879.3215	34968.9	34078.4
921.2653	1880.9637	34853.6	33961.75
921.4046	1882.6051	34820.55	33929.55
921.5439	1884.2458	34736.9	33841.9
921.6832	1885.8858	34549.75	33657.35
921.8225	1887.525	34462.35	33569.25
921.9617	1889.1634	34275.8	33383.9
922.101	1890.8011	34176.65	33284.3
922.2402	1892.4381	34088.5	33196.75
922.3794	1894.0743	34058.65	33166.8
922.5185	1895.7098	33994.2	33100.25
922.6577	1897.3446	33873.8	32982.05
922.7968	1898.9786	33747.4	32849.8
922.9359	1900.6118	33674	32782.65
923.075	1902.2443	33434.45	32539.65
923.214	1903.8761	33381.1	32489.3
923.3531	1905.5071	33158.75	32265.3
923.4921	1907.1374	33104	32213.25
923.6311	1908.7669	33002.65	32110.75
923.77	1910.3957	32965.15	32073.35
923.909	1912.0237	32767.05	31876.05
924.0479	1913.651	32698.4	31804.6
924.1868	1915.2776	32594.4	31704.2
924.3257	1916.9034	32458.7	31568.1
924.4646	1918.5285	32272.75	31383.45
924.6034	1920.1528	32124.15	31230.35
924.7422	1921.7764	32095.8	31204.4
924.881	1923.3992	32009.5	31117.15
925.0198	1925.0213	31775.2	30885.05
925.1586	1926.6427	31642.35	30753.25
925.2973	1928.2633	31655.95	30656.55
925.436	1929.8832	31424.1	30529.05
925.5747	1931.5023	31286.45	30395.4
925.7134	1933.1207	31177.95	30285.9
925.852	1934.7383	31141.4	30250.7
925.9906	1936.3552	31009.3	30117.9
926.1292	1937.9714	30929.25	30037.35
926.2678	1939.5868	30786.2	29893
926.4064	1941.2015	30602.45	29710.15
926.5449	1942.8154	30455.65	29564.55
926.6834	1944.4286	30349.1	29456.3
926.8219	1946.041	30222.7	29311.6
926.9604	1947.6528	30002.85	29106.05
927.0988	1949.2637	29942.55	29050.25
927.2372	1950.8739	29811.65	28918.8
927.3756	1952.4834	29792.4	28900.65
927.514	1954.0921	29756.95	28863.25
927.6523	1955.7001	29586	28690.2
927.7907	1957.3074	29508	28616.05
927.929	1958.9139	29409.85	28519
928.0673	1960.5197	29293.2	28398.7
928.2055	1962.1247	29145.8	28252.25
928.3438	1963.729	28996.3	28103.3
928.482	1965.3325	28887.75	27974.45
928.6202	1966.9353	28777.75	27888.45
928.7584	1968.5374	28731.35	27836.7
928.8965	1970.1387	28613.65	27721.85
929.0346	1971.7393	28458.95	27567.4
929.1727	1973.3392	28403.65	27511.75
929.3108	1974.9383	28299.95	27409.05
929.4489	1976.5366	28146.75	27255.4
929.5869	1978.1342	28107.05	27213.15
929.7249	1979.7311	28001.6	27109.65
929.8629	1981.3273	27912.05	27018.3
930.0009	1982.9227	27825.1	26933.05
930.1388	1984.5173	27701.35	26809.65
930.2767	1986.1112	27590.05	26699.3
930.4146	1987.7044	27529.95	26639.35
930.5525	1989.2968	27397.95	26507.75
930.6904	1990.8885	27365.3	26471.25
930.8282	1992.4795	27281.45	26389.05
930.966	1994.0697	27110.1	26218.05
931.1038	1995.6592	27038	26147.75
931.2415	1997.2479	26930.2	26037.4
931.3793	1998.8359	26833.6	25943.2
931.517	2000.4232	26741.3	25851.4
931.6547	2002.0097	26626.65	25735.8
931.7923	2003.5955	26507.9	25614.55
931.93	2005.1805	26458	25564.4
932.0676	2006.7648	26398.85	25508.75
932.2052	2008.3484	26271.6	25380.7
932.3427	2009.9312	26318.25	25424.8
932.4803	2011.5133	26170.4	25281.6
932.6178	2013.0946	26099.1	25206
932.7553	2014.6752	25999.5	25108.4
932.8928	2016.2551	25934.95	25043.1
933.0302	2017.8342	25806.55	24914.5
933.1676	2019.4126	25672	24781.9
933.305	2020.9902	25594.05	24703.45
933.4424	2022.5672	25561.1	24666.95
933.5798	2024.1433	25503.65	24608.45
933.7171	2025.7188	25370.5	24480.3
933.8544	2027.2935	25281.6	24390.15
933.9917	2028.8674	25186.85	24295
934.129	2030.4406	25109.8	24220.45
934.2662	2032.0131	24950.45	24059.55
934.4034	2033.5849	24905.55	24007.35
934.5406	2035.1559	24863.5	23973.3
934.6778	2036.7261	24787	23894.25
934.8149	2038.2957	24690.4	23800.15
934.952	2039.8645	24679.65	23790.85
935.0891	2041.4325	24668.3	23773.1
935.2262	2042.9998	24492.25	23602.3
935.3632	2044.5664	24456.05	23562.4
935.5002	2046.1323	24358.75	23466.5
935.6372	2047.6974	24249.45	23359.25
935.7742	2049.2617	24205.7	23315.05
935.9111	2050.8254	24159.4	23246.6
936.048	2052.3883	24097.55	23205.05
936.1849	2053.9504	24031.1	23138.15
936.3218	2055.5118	23926	23036.35
936.4586	2057.0725	23778.9	22883.15
936.5955	2058.6325	23759	22866.6
936.7323	2060.1917	23687	22797.2
936.869	2061.7502	23604.75	22712.4
937.0058	2063.3079	23523.3	22631.55
937.1425	2064.8649	23482.35	22589
937.2792	2066.4212	23383.3	22490.5
937.4159	2067.9767	23328.5	22437.2
937.5525	2069.5315	23192.5	22301.6
937.6891	2071.0856	23072.25	22181.2
937.8257	2072.6389	22982.5	22089.2
937.9623	2074.1915	22898.35	22008.75
938.0989	2075.7433	22750.1	21859.1
938.2354	2077.2945	22696.2	21807.25
938.3719	2078.8448	22654.95	21764.85
938.5084	2080.3945	22544	21651.4
938.6448	2081.9434	22536.05	21643.85
938.7812	2083.4916	22430.95	21540.65
938.9176	2085.039	22325.6	21431.3
939.054	2086.5857	22250.15	21357.35
939.1903	2088.1317	22240.75	21348.75
939.3267	2089.677	22200.45	21308.75
939.463	2091.2215	22069.3	21176.25
939.5992	2092.7652	22017.9	21126.85
939.7355	2094.3083	21942.05	21049.6
939.8717	2095.8506	21929.55	21040.05
940.0079	2097.3921	21882.85	20992.65
940.1441	2098.933	21783.2	20892.55
940.2802	2100.4731	21711.5	20819.8
940.4163	2102.0124	21700.8	20801.35
940.5524	2103.5511	21642.35	20749.2
940.6885	2105.089	21595.6	20704.7
940.8245	2106.6261	21477.65	20586.15
940.9606	2108.1626	21425.25	20533.35
941.0965	2109.6983	21391.65	20472.75
941.2325	2111.2332	21318.2	20424.4
941.3684	2112.7675	21251.8	20357.65
941.5044	2114.301	21153.05	20259.75
941.6403	2115.8337	21155.5	20264.45
941.7761	2117.3657	21082.05	20189.9
941.912	2118.897	21034.9	20142.25
942.0478	2120.4276	20932.7	20036.25
942.1835	2121.9575	20837.4	19946.5
942.3193	2123.4866	20887.15	19983.45
942.455	2125.0149	20770.25	19876.15
942.5907	2126.5426	20666.05	19774.2
942.7264	2128.0695	20605.05	19711.45
942.8621	2129.5956	20523.25	19631.8
942.9977	2131.1211	20482.05	19584.8
943.1333	2132.6458	20445.2	19553.65
943.2689	2134.1698	20381.4	19490.95
943.4044	2135.693	20318.8	19424.45
943.54	2137.2155	20276.45	19381.85
943.6755	2138.7373	20184.35	19292.75
943.8109	2140.2584	20135.45	19243.25
943.9464	2141.7787	20070.15	19171.9
944.0818	2143.2983	19954.4	19062.7
944.2172	2144.8171	19868.5	18979.55
944.3526	2146.3353	19805	18912.15
944.4879	2147.8527	19740.5	18851
944.6232	2149.3693	19737.35	18843.95
944.7585	2150.8853	19635.85	18742.85
944.8938	2152.4005	19517.45	18624.9
945.029	2153.9149	19501.55	18610.45
945.1642	2155.4287	19406.15	18514.55
945.2994	2156.9417	19408.65	18516.1
945.4346	2158.454	19309.8	18415.1
945.5697	2159.9655	19263.05	18372.45
945.7048	2161.4764	19289.5	18396.85
945.8399	2162.9865	19187.3	18297.65
945.9749	2164.4958	19106	18215.3
946.1099	2166.0045	19033.65	18139.8
946.2449	2167.5124	19020.55	18129.45
946.3799	2169.0195	18894.9	18003.4
946.5148	2170.526	18910.85	18018.15
946.6498	2172.0317	18837.75	17945.65
946.7846	2173.5367	18818.45	17926.1
946.9195	2175.0409	18719.4	17829.65
947.0543	2176.5445	18706.4	17815
947.1891	2178.0473	18618.05	17724.7
947.3239	2179.5494	18532.75	17636.9
947.4587	2181.0507	18456.9	17565.75
947.5934	2182.5513	18394.1	17502.65
947.7281	2184.0512	18367.75	17476.85
947.8628	2185.5504	18328.8	17436
947.9974	2187.0488	18220.2	17327.8
948.132	2188.5465	18121.65	17229.45
948.2666	2190.0435	18057.9	17166.2
948.4012	2191.5397	17998.4	17107.55
948.5357	2193.0353	17933.85	17041.3
948.6702	2194.5301	17820.5	16930.35
948.8047	2196.0241	17789.7	16897.25
948.9392	2197.5175	17706.25	16815.85
949.0736	2199.0101	17638.9	16743.15
949.208	2200.502	17559.8	16669
949.3424	2201.9931	17485.55	16593.75
949.4767	2203.4835	17420.1	16526.55
949.611	2204.9733	17386	16489.55
949.7453	2206.4622	17365.35	16473.55
949.8796	2207.9505	17267.7	16373.5
950.0138	2209.438	17202	16310.35
950.148	2210.9248	17148.35	16257.1
950.2822	2212.4109	17078.85	16188.6
950.4164	2213.8962	17005.9	16112.1
950.5505	2215.3809	16950.9	16057.8
950.6846	2216.8648	16902	16010.05
950.8186	2218.3479	16847.4	15949.5
950.9527	2219.8304	16783.45	15888.85
951.0867	2221.3121	16709.55	15816.75
951.2207	2222.7931	16663.2	15771.25
951.3546	2224.2733	16618.55	15728.95
951.4886	2225.7529	16561.65	15669.1
951.6225	2227.2317	16482.95	15590.55
951.7563	2228.7098	16445.55	15553.85
951.8902	2230.1872	16369.35	15476.55
952.024	2231.6638	16350.35	15457.65
952.1578	2233.1397	16255.2	15357
952.2916	2234.6149	16198.2	15306.7
952.4253	2236.0894	16169.3	15277.75
952.559	2237.5632	16134.25	15232.9
952.6927	2239.0362	16066.45	15175.9
952.8263	2240.5085	15998.1	15108.1
952.9599	2241.9801	15895.95	15003.1
953.0935	2243.4509	15899.45	15008.4
953.2271	2244.921	15824.9	14933.4
953.3606	2246.3904	15766.45	14872.85
953.4941	2247.8591	15708.1	14817.2
953.6276	2249.3271	15659.9	14769.6
953.7611	2250.7943	15600.8	14708.85
953.8945	2252.2608	15556.25	14664.85
954.0279	2253.7266	15516.2	14622.85
954.1612	2255.1917	15442.45	14551.95
954.2946	2256.656	15370.55	14477.85
954.4279	2258.1197	15371.45	14480.95
954.5612	2259.5826	15321.75	14428.4
954.6944	2261.0447	15268.65	14374.9
954.8276	2262.5062	15181.5	14287
954.9608	2263.9669	15171.5	14277.8
955.094	2265.4269	15122.6	14230.7
955.2271	2266.8862	15047.75	14156.3
955.3602	2268.3448	15026.8	14133.35
955.4933	2269.8026	14987.1	14095.2
955.6264	2271.2598	14935.2	14043.7
955.7594	2272.7162	14867.75	13977.35
955.8924	2274.1719	14834.2	13941.8
956.0253	2275.6268	14763.15	13869.95
956.1583	2277.0811	14754.9	13862.25
956.2912	2278.5346	14708.65	13818.15
956.4241	2279.9874	14648.75	13756.85
956.5569	2281.4395	14634.15	13745.1
956.6897	2282.8908	14530.6	13633.6
956.8225	2284.3414	14536.3	13644.05
956.9553	2285.7914	14495.15	13603.45
957.088	2287.2406	14433.3	13538.25
957.2207	2288.689	14396.3	13506.25
957.3534	2290.1368	14360.15	13465.05
957.486	2291.5838	14291.65	13396.6
957.6186	2293.0302	14262.9	13369.05
957.7512	2294.4758	14168.85	13278.05
957.8838	2295.9206	14116	13221.8
958.0163	2297.3648	14076.35	13183.3
958.1488	2298.8082	14066.25	13173.15
958.2813	2300.251	14019.25	13125.65
958.4137	2301.693	13951.2	13057.45
958.5461	2303.1343	13955.9	13065.35
958.6785	2304.5748	13886.3	12996.3
958.8108	2306.0147	13828.35	12936.3
958.9432	2307.4538	13776.35	12881.25
959.0754	2308.8922	13739.3	12849.2
959.2077	2310.3299	13684.1	12792.3
959.3399	2311.7669	13625.55	12733.6
959.4721	2313.2031	13619.85	12728
959.6043	2314.6387	13566.2	12672.2
959.7365	2316.0735	13532.25	12640.6
959.8686	2317.5076	13474.25	12582.45
960.0006	2318.941	13433.45	12541.75
960.1327	2320.3737	13408.35	12516.7
960.2647	2321.8056	13351.95	12457.5
960.3967	2323.2369	13307.05	12412.55
960.5287	2324.6674	13275.85	12381.5
960.6606	2326.0972	13227.85	12333.75
960.7925	2327.5263	13144.25	12254.15
960.9244	2328.9547	13103.65	12212.95
961.0562	2330.3823	13073.3	12181
961.1881	2331.8092	13072.65	12179.6
961.3198	2333.2355	12993.7	12098.8
961.4516	2334.661	12989.55	12096.15
961.5833	2336.0858	12935.8	12043
961.715	2337.5098	12924.55	12032.7
961.8467	2338.9332	12859.9	11966
961.9783	2340.3558	12808.45	11913.3
962.1099	2341.7778	12757.05	11863.7
962.2415	2343.199	12710.05	11818.8
962.373	2344.6195	12672.2	11780.25
962.5045	2346.0393	12656.95	11765.9
962.636	2347.4583	12665.9	11772.05
962.7675	2348.8767	12587.75	11693.7
962.8989	2350.2943	12521.7	11628.85
963.0303	2351.7113	12497.35	11604.55
963.1617	2353.1275	12448.25	11554.8
963.293	2354.543	12419.15	11503.1
963.4243	2355.9578	12382.95	11491.75
963.5556	2357.3718	12286.7	11396.6
963.6868	2358.7852	12252.15	11357.95
963.818	2360.1978	12173.2	11281.25
963.9492	2361.6098	12187.4	11294.8
964.0803	2363.021	12135.35	11240.35
964.2114	2364.4315	12083.85	11192.5
964.3425	2365.8413	12063.9	11169.45
964.4736	2367.2504	11995.95	11104.7
964.6046	2368.6587	11935.4	11043.5
964.7356	2370.0664	11857.4	10964.8
964.8666	2371.4733	11824.25	10933.55
964.9975	2372.8795	11833.65	10941.95
965.1284	2374.285	11742.95	10851.95
965.2593	2375.6899	11674.65	10782.3
965.3901	2377.0939	11647.8	10757
965.5209	2378.4973	11620.9	10729.75
965.6517	2379.9	11599.35	10708.15
965.7825	2381.3019	11541.55	10650.05
965.9132	2382.7032	11487.25	10597.75
966.0439	2384.1037	11451	10561.35
966.1745	2385.5035	11394.9	10503.25
966.3051	2386.9027	11347.05	10456.4
966.4357	2388.3011	11349.55	10455
966.5663	2389.6987	11299.7	10407.6
966.6968	2391.0957	11262.15	10373.7
966.8273	2392.492	11194.05	10303.9
966.9578	2393.8876	11135.15	10243.25
967.0882	2395.2824	11089.05	10201.7
967.2186	2396.6765	11044	10152.9
967.349	2398.07	10979.45	10089
967.4793	2399.4627	10951.45	10060.2
967.6097	2400.8547	10930.55	10038.85
967.7399	2402.246	10897.2	10000.5
967.8702	2403.6366	10849	9957.9
968.0004	2405.0265	10805.35	9915.65
968.1306	2406.4156	10758.3	9864.1
968.2607	2407.8041	10712.75	9819.95
968.3909	2409.1918	10693.95	9801.25
968.521	2410.5789	10638.55	9748.95
968.651	2411.9652	10593.7	9700.4
968.781	2413.3508	10576.25	9684.85
968.911	2414.7358	10510.7	9617.3
969.041	2416.12	10462.65	9573.25
969.1709	2417.5035	10428.25	9539.05
969.3008	2418.8863	10397.3	9505.15
969.4307	2420.2684	10383.5	9493.75
969.5606	2421.6497	10330.95	9439.85
969.6904	2423.0304	10268.95	9377.55
969.8201	2424.4104	10253.65	9362
969.9499	2425.7896	10199	9300.3
970.0796	2427.1682	10172.8	9282.8
970.2093	2428.546	10144.55	9251.7
970.3389	2429.9232	10103.1	9210.4
970.4685	2431.2996	10068.2	9176.4
970.5981	2432.6753	10078.75	9186.05
970.7277	2434.0503	10034.7	9144.55
970.8572	2435.4246	9994.05	9103.85
970.9867	2436.7982	9940	9044.8
971.1161	2438.1711	9934.3	9044.8
971.2456	2439.5433	9885.5	8993.05
971.375	2440.9148	9852.2	8958.85
971.5043	2442.2856	9798.55	8909.15
971.6336	2443.6557	9776.05	8882.9
971.7629	2445.025	9751.1	8860.75
971.8922	2446.3937	9715.05	8822.95
972.0214	2447.7617	9692.6	8802
972.1506	2449.1289	9669.1	8778.1
972.2798	2450.4955	9624.5	8730.65
972.4089	2451.8613	9589.85	8702.15
972.538	2453.2265	9580.35	8687.8
972.6671	2454.5909	9533.35	8640.95
972.7961	2455.9546	9503.5	8613.65
972.9251	2457.3177	9483.25	8592.15
973.0541	2458.68	9443.25	8550.25
973.1831	2460.0416	9444.5	8550.35
973.312	2461.4025	9422.05	8528.3
973.4408	2462.7627	9394.5	8493.15
973.5697	2464.1222	9367.85	8476.95
973.6985	2465.4811	9318	8425.75
973.8273	2466.8392	9284.15	8392.2
973.956	2468.1966	9254.85	8360.9
974.0847	2469.5533	9256	8362.55
974.2134	2470.9093	9245.35	8352.8
974.3421	2472.2645	9194.15	8303.25
974.4707	2473.6191	9165.65	8274.6
974.5993	2474.973	9128.3	8236.9
974.7278	2476.3262	9104.05	8210.2
974.8563	2477.6787	9038	8145.3
974.9848	2479.0305	8996.6	8105.5
975.1132	2480.3816	8971.4	8078.65
975.2417	2481.7319	8948.2	8055.9
975.37	2483.0816	8931.8	8038.8
975.4984	2484.4306	8883.2	7989.3
975.6267	2485.7789	8872.15	7982.5
975.755	2487.1264	8810.85	7917.8
975.8833	2488.4733	8775.85	7884.4
976.0115	2489.8195	8764.9	7867.05
976.1397	2491.165	8738.6	7842.85
976.2678	2492.5097	8690.5	7796.9
976.3959	2493.8538	8622.95	7731.45
976.524	2495.1972	8596.55	7704
976.6521	2496.5398	8561.3	7669.3
976.7801	2497.8818	8529.3	7638.9
976.9081	2499.2231	8525.95	7633.3
977.036	2500.5637	8479.1	7584.1
977.164	2501.9035	8453.35	7561.15
977.2918	2503.2427	8431.45	7535.6
977.4197	2504.5812	8402.1	7510.2
977.5475	2505.919	8396.35	7503.35
977.6753	2507.256	8348.55	7457.8
977.8031	2508.5924	8319.25	7427.5
977.9308	2509.9281	8277.4	7381.2
978.0585	2511.2631	8263.55	7372.1
978.1861	2512.5974	8252.4	7361.15
978.3137	2513.9309	8210.45	7319.65
978.4413	2515.2638	8198.45	7275.45
978.5689	2516.596	8139.25	7248.35
978.6964	2517.9275	8124.6	7229.6
978.8239	2519.2583	8086.35	7193.05
978.9513	2520.5884	8045.35	7152.05
979.0788	2521.9178	8049.15	7156.55
979.2062	2523.2465	7970.2	7080.75
979.3335	2524.5745	7967.8	7077.85
979.4608	2525.9018	7936.05	7045.3
979.5881	2527.2284	7923.05	7032.7
979.7154	2528.5543	7904.3	7014.65
979.8426	2529.8796	7869.8	6977.25
979.9698	2531.2041	7835.75	6943.25
980.0969	2532.5279	7822.1	6931.8
980.224	2533.851	7805.3	6914.05
980.3511	2535.1735	7778.55	6886.95
980.4781	2536.4952	7760.2	6867.6
980.6052	2537.8163	7747.2	6853.8
980.7321	2539.1366	7724.6	6832.5
980.8591	2540.4562	7706.3	6814.95
980.986	2541.7752	7694.9	6804.4
981.1129	2543.0935	7680.55	6791.2
981.2397	2544.411	7670.65	6778.1
981.3665	2545.7279	7618.35	6727.55
981.4933	2547.0441	7602.35	6709.05
981.62	2548.3596	7616.65	6722.4
981.7467	2549.6744	7591.7	6701.4
981.8734	2550.9885	7566.4	6672.6
982.0001	2552.3019	7534.1	6642.15
982.1267	2553.6146	7529.8	6638.4
982.2532	2554.9266	7505.35	6612.95
982.3798	2556.2379	7479.2	6585
982.5063	2557.5485	7452.2	6563.25
982.6327	2558.8585	7433	6533.8
982.7592	2560.1677	7405.35	6508
982.8856	2561.4762	7396.55	6503.8
983.0119	2562.7841	7396.95	6501.4
983.1383	2564.0913	7341.4	6451.6
983.2646	2565.3977	7362	6470.75
983.3908	2566.7035	7307.4	6415.8
983.517	2568.0086	7305.55	6412.2
983.6432	2569.313	7308.1	6415.75
983.7694	2570.6167	7288.4	6394.95
983.8955	2571.9197	7263.35	6371
984.0216	2573.222	7250.05	6355.35
984.1476	2574.5236	7230.95	6338.2
984.2737	2575.8246	7195.25	6301.8
984.3996	2577.1248	7181	6287.35
984.5256	2578.4244	7157.4	6266.3
984.6515	2579.7232	7155.75	6263.55
984.7774	2581.0214	7152.7	6236
984.9032	2582.3189	7128.4	6237.05
985.029	2583.6157	7129.1	6232.3
985.1548	2584.9118	7109.75	6217.6
985.2806	2586.2072	7076.8	6186.2
985.4063	2587.5019	7053.7	6162.3
985.5319	2588.7959	7043.3	6151.25
985.6576	2590.0893	7026.65	6133.85
985.7832	2591.3819	7001.85	6110.3
985.9087	2592.6739	6979.6	6088.95
986.0343	2593.9652	6960.05	6067.15
986.1597	2595.2557	6950.4	6060.3
986.2852	2596.5456	6925.3	6032.45
986.4106	2597.8348	6879.65	5988.35
986.536	2599.1234	6857.25	5966.1
986.6614	2600.4112	6856.8	5964.55
986.7867	2601.6983	6822.3	5926.5
986.912	2602.9848	6804.65	5912.95
987.0372	2604.2705	6772.35	5873.6
987.1624	2605.5556	6768.75	5877
987.2876	2606.84	6742.7	5853.8
987.4128	2608.1237	6712.9	5819.35
987.5379	2609.4067	6690.45	5799.15
987.6629	2610.689	6665.3	5766
987.788	2611.9707	6641.45	5746.35
987.913	2613.2516	6615	5719.65
988.0379	2614.5319	6599.5	5707.75
988.1629	2615.8115	6570.2	5677.1
988.2878	2617.0903	6524.8	5630.35
988.4126	2618.3685	6507.8	5615.3
988.5375	2619.6461	6489	5600.15
988.6622	2620.9229	6452.9	5561.45
988.787	2622.199	6482.7	5590.85
988.9117	2623.4745	6455.1	5561.6
989.0364	2624.7493	6421.7	5528.95
989.161	2626.0234	6378.75	5488.55
989.2857	2627.2968	6389.65	5496.8
989.4102	2628.5695	6363.25	5469.9
989.5348	2629.8415	6322.95	5431.65
989.6593	2631.1128	6276.8	5383.85
989.7837	2632.3835	6261.35	5370
989.9082	2633.6535	6238.4	5347.25
990.0326	2634.9228	6208.75	5319.75
990.1569	2636.1914	6218.45	5327.05
990.2812	2637.4593	6202.5	5304.65
990.4055	2638.7265	6174.1	5282.05
990.5298	2639.9931	6162.8	5271.8
990.654	2641.259	6137.6	5243.65
990.7782	2642.5242	6126.4	5234.9
990.9023	2643.7887	6095.65	5205.2
991.0264	2645.0525	6085.05	5193.2
991.1505	2646.3156	6054.95	5164.25
991.2745	2647.5781	6029.6	5140.3
991.3985	2648.8398	5992.95	5102.25
991.5225	2650.1009	6010.65	5109.35
991.6464	2651.3613	5980.05	5088.4
991.7703	2652.6211	5953.95	5059.8
991.8942	2653.8801	5935.9	5044.9
992.018	2655.1385	5904.05	5011.9
992.1418	2656.3961	5907	5015.2
992.2655	2657.6531	5893.8	5002
992.3892	2658.9094	5875.75	4984.1
992.5129	2660.1651	5860.95	4969.6
992.6366	2661.42	5862.8	4971.3
992.7602	2662.6743	5850.2	4956.6
992.8837	2663.9279	5828.8	4937.25
993.0073	2665.1808	5818.75	4924.4
993.1307	2666.433	5785.25	4893.55
993.2542	2667.6846	5774.25	4884.15
993.3776	2668.9354	5758.8	4863.2
993.501	2670.1856	5749.85	4858.3
993.6244	2671.4351	5738.4	4846.8
993.7477	2672.6839	5738.55	4846.75
993.8709	2673.9321	5704.05	4812.05
993.9942	2675.1795	5688.85	4797.25
994.1174	2676.4263	5659.85	4768.45
994.2405	2677.6724	5661.8	4770.9
994.3637	2678.9179	5648.75	4756.45
994.4868	2680.1626	5638.3	4749.25
994.6098	2681.4067	5611.55	4719.7
994.7328	2682.6501	5604.35	4712.15
994.8558	2683.8928	5572.3	4681.55
994.9788	2685.1348	5545.8	4652.5
995.1017	2686.3761	5530.2	4641
995.2245	2687.6168	5522.9	4630.5
995.3474	2688.8568	5497.7	4604.7
995.4702	2690.0961	5463	4570.35
995.5929	2691.3348	5471.3	4579.45
995.7156	2692.5727	5454	4563.7
995.8383	2693.81	5446.25	4554.8
995.961	2695.0466	5407.8	4517.1
996.0836	2696.2826	5405.5	4513.05
996.2062	2697.5178	5405.35	4511.3
996.3287	2698.7524	5359.95	4468.1
996.4512	2699.9863	5362.95	4467.85
996.5737	2701.2195	5339.55	4448.1
996.6961	2702.452	5315.8	4422.45
996.8185	2703.6839	5327.7	4434.9
996.9408	2704.9151	5305.9	4415.5
997.0631	2706.1456	5297.85	4405.4
997.1854	2707.3755	5270	4379.15
997.3077	2708.6046	5283.25	4387.5
997.4299	2709.8331	5241.4	4349.75
997.552	2711.0609	5236.55	4344.7
997.6742	2712.2881	5231.6	4337.3
997.7963	2713.5145	5226.65	4332.05
997.9183	2714.7403	5227.7	4336.45
998.0403	2715.9654	5212.85	4320.6
998.1623	2717.1899	5209.5	4303.15
998.2842	2718.4136	5192	4302.4
998.4062	2719.6367	5166.5	4274.1
998.528	2720.8591	5185.05	4287.05
998.6498	2722.0809	5176.2	4283.7
998.7716	2723.3019	5162.8	4266.8
998.8934	2724.5223	5161.05	4265.3
999.0151	2725.7421	5156	4262.95
999.1368	2726.9611	5142	4248.15
999.2584	2728.1795	5124.75	4227.8
999.38	2729.3972	5086.9	4192.85
999.5016	2730.6142	5073.55	4174.4
999.6231	2731.8306	5031.45	4138.65
999.7446	2733.0462	5005.75	4111.95
999.8661	2734.2612	5003.7	4106
999.9875	2735.4756	4940.55	4047.9
1000.1089	2736.6892	4913.55	4023.5
1000.2302	2737.9022	4870.1	3978.55
1000.3515	2739.1145	4842.8	3951.2
1000.4728	2740.3262	4833.3	3937.55
1000.594	2741.5372	4789.15	3899.25
1000.7152	2742.7475	4781.75	3889.5
1000.8363	2743.9571	4767.75	3874.75
1000.9575	2745.1661	4735.8	3838.5
1001.0785	2746.3744	4718.6	3824.4
1001.1996	2747.582	4686.2	3794.65
1001.3206	2748.7889	4663.2	3769.4
1001.4415	2749.9952	4650.4	3759.3
1001.5625	2751.2008	4649.25	3758.05
1001.6833	2752.4057	4629.55	3736.2
1001.8042	2753.61	4595.45	3703.4
1001.925	2754.8136	4599.2	3704.55
1002.0458	2756.0165	4565.55	3674.6
1002.1665	2757.2188	4553.8	3663
1002.2872	2758.4204	4554.05	3662.25
1002.4078	2759.6213	4535.4	3639.55
1002.5285	2760.8215	4531.8	3636.2
1002.649	2762.0211	4515.8	3621.3
1002.7696	2763.22	4499.9	3604.55
1002.8901	2764.4182	4475.8	3582
1003.0106	2765.6158	4456.3	3564.85
1003.131	2766.8127	4442.8	3552.2
1003.2514	2768.009	4412.65	3521.05
1003.3717	2769.2045	4413.6	3520.65
1003.492	2770.3994	4400.9	3507.75
1003.6123	2771.5936	4404.6	3511.25
1003.7325	2772.7872	4385.75	3494.4
1003.8527	2773.9801	4355.3	3460.35
1003.9729	2775.1723	4356.4	3446.5
1004.093	2776.3639	4333.65	3442.5
1004.2131	2777.5548	4321.35	3427.2
1004.3331	2778.745	4312.15	3421.5
1004.4531	2779.9346	4305.45	3414.75
1004.5731	2781.1235	4291.65	3399.15
1004.693	2782.3117	4271	3380.4
1004.8129	2783.4992	4278.15	3383.2
1004.9328	2784.6861	4265.8	3373.75
1005.0526	2785.8723	4257.75	3363.9
1005.1723	2787.0579	4249.6	3358.95
1005.2921	2788.2428	4245.15	3352.3
1005.4118	2789.427	4243.25	3352
1005.5314	2790.6106	4235.35	3344.85
1005.651	2791.7935	4227.25	3334.75
1005.7706	2792.9757	4218.75	3327.1
1005.8902	2794.1573	4222.95	3328.25
1006.0097	2795.3382	4221.6	3328.5
1006.1291	2796.5184	4230.75	3341.4
1006.2485	2797.698	4243.15	3348.9
1006.3679	2798.8769	4226.65	3336.05
1006.4873	2800.0551	4237.95	3346.05
1006.6066	2801.2327	4251.25	3356.9
1006.7258	2802.4096	4240.25	3349.7
1006.8451	2803.5859	4241	3348.85
1006.9642	2804.7615	4270.1	3375.35
1007.0834	2805.9364	4278.8	3388.3
1007.2025	2807.1106	4282.6	3390.9
1007.3216	2808.2842	4305.9	3414.7
1007.4406	2809.4572	4335.2	3442.3
1007.5596	2810.6294	4347.45	3454.45
1007.6785	2811.801	4391.6	3501.4
1007.7975	2812.972	4414.8	3524.3
1007.9163	2814.1423	4449.8	3558.25
1008.0352	2815.3119	4487.65	3595
1008.154	2816.4808	4521.8	3631
1008.2727	2817.6491	4562.05	3669.45
1008.3914	2818.8167	4604.75	3714.35
1008.5101	2819.9837	4648.1	3750.5
1008.6288	2821.15	4678.2	3784.5
1008.7474	2822.3157	4712	3820.85
1008.8659	2823.4807	4752.65	3861.95
1008.9844	2824.645	4780.85	3888.95
1009.1029	2825.8086	4822.1	3930.75
1009.2214	2826.9716	4859.85	3970.25
1009.3398	2828.134	4885.1	3995.35
1009.4581	2829.2957	4925.4	4032.3
1009.5764	2830.4567	4925.85	4034.8
1009.6947	2831.617	4938.65	4045.9
1009.813	2832.7767	4955.05	4061.9
1009.9312	2833.9358	4946	4053.85
1010.0493	2835.0941	4931.75	4040.65
1010.1675	2836.2519	4903.9	4011.3
1010.2855	2837.4089	4895.6	4003.6
1010.4036	2838.5653	4865.3	3974.35
1010.5216	2839.7211	4863.8	3972.75
1010.6396	2840.8761	4883.95	3991.9
1010.7575	2842.0306	4875.55	3984.95
1010.8754	2843.1843	4908.25	4018.05
1010.9932	2844.3374	4966.45	4075.55
1011.111	2845.4899	4998	4105.1
1011.2288	2846.6417	5077.1	4185.35
1011.3465	2847.7928	5144.95	4255.1
1011.4642	2848.9433	5215	4323.1
1011.5818	2850.0931	5274.2	4382.65
1011.6995	2851.2422	5369.65	4476.15
1011.817	2852.3907	5425.75	4533
1011.9345	2853.5385	5487.9	4596.15
1012.052	2854.6857	5556.6	4638.1
1012.1695	2855.8323	5582	4690.65
1012.2869	2856.9781	5609.65	4719.15
1012.4042	2858.1233	5658.6	4767.2
1012.5216	2859.2679	5681.45	4790.1
1012.6389	2860.4118	5727.85	4834.45
1012.7561	2861.555	5756.75	4861.4
1012.8733	2862.6976	5777.1	4881.95
1012.9905	2863.8395	5799.2	4909.6
1013.1076	2864.9808	5794.75	4903.5
1013.2247	2866.1214	5805.5	4913
1013.3417	2867.2614	5815.3	4923.75
1013.4587	2868.4007	5823.6	4931.6
1013.5757	2869.5393	5816.4	4920.65
1013.6926	2870.6773	5833.55	4939.75
1013.8095	2871.8146	5833.8	4937.55
1013.9263	2872.9513	5829.2	4935.4
1014.0431	2874.0874	5792.55	4901.15
1014.1599	2875.2227	5798.65	4906.65
1014.2766	2876.3574	5762.3	4870.2
1014.3933	2877.4915	5736.55	4845.2
1014.51	2878.6249	5701.8	4811.25
1014.6266	2879.7577	5671.65	4779.8
1014.7431	2880.8898	5658.85	4759.15
1014.8596	2882.0212	5621.75	4731.3
1014.9761	2883.152	5590.35	4699.8
1015.0925	2884.2821	5563.3	4673.5
1015.2089	2885.4116	5528.8	4638.15
1015.3253	2886.5405	5528.95	4637
1015.4416	2887.6686	5551.55	4656.35
1015.5579	2888.7962	5530.95	4640.25
1015.6741	2889.923	5520.1	4629.2
1015.7903	2891.0493	5519.8	4629.1
1015.9065	2892.1748	5539.45	4647.5
1016.0226	2893.2997	5528.25	4636
1016.1387	2894.424	5541.65	4650.35
1016.2547	2895.5476	5533.4	4641.6
1016.3707	2896.6706	5577.65	4686.2
1016.4866	2897.7929	5594.8	4703.1
1016.6025	2898.9145	5608.05	4716.55
1016.7184	2900.0355	5616.95	4723.95
1016.8342	2901.1559	5639.55	4748.4
1016.95	2902.2756	5670.85	4780.75
1017.0658	2903.3946	5714.05	4823.35
1017.1815	2904.513	5708.4	4813.2
1017.2971	2905.6308	5724.7	4834.55
1017.4127	2906.7479	5747.85	4856.2
1017.5283	2907.8643	5781.95	4888.3
1017.6439	2908.9801	5774.8	4884.15
1017.7594	2910.0953	5759.8	4869.15
1017.8748	2911.2098	5738.95	4845.55
1017.9902	2912.3236	5740.4	4840.4
1018.1056	2913.4368	5726.85	4829.8
1018.2209	2914.5494	5695.4	4802.8
1018.3362	2915.6613	5661.95	4764.85
1018.4515	2916.7725	5626.95	4733.45
1018.5667	2917.8831	5611.9	4718.8
1018.6819	2918.9931	5569.2	4675.05
1018.797	2920.1024	5528.35	4636.25
1018.9121	2921.211	5481.25	4591.55
1019.0271	2922.319	5472.25	4581.15
1019.1421	2923.4264	5449.85	4559.5
1019.2571	2924.5331	5431.05	4539.55
1019.372	2925.6391	5410.45	4519.9
1019.4869	2926.7445	5397.05	4506.5
1019.6017	2927.8493	5378.15	4486.3
1019.7165	2928.9534	5353	4462.05
1019.8313	2930.0569	5355.45	4461.15
1019.946	2931.1597	5346.05	4453.1
1020.0606	2932.2619	5324.05	4432.15
1020.1753	2933.3634	5314.9	4423.8
1020.2899	2934.4643	5293.75	4395.9
1020.4044	2935.5645	5258.25	4361.15
1020.5189	2936.6641	5220.8	4323.65
1020.6334	2937.763	5181.1	4291.15
1020.7478	2938.8613	5119.3	4227.2
1020.8622	2939.959	5042.25	4144.6
1020.9765	2941.056	4950.2	4059.4
1021.0908	2942.1523	4871	3977.35
1021.2051	2943.248	4768.25	3877.75
1021.3193	2944.3431	4651.6	3760.95
1021.4334	2945.4375	4563.1	3670.8
1021.5476	2946.5313	4454.75	3564.75
1021.6617	2947.6244	4345.45	3453.45
1021.7757	2948.7169	4243.2	3351.45
1021.8897	2949.8087	4148.2	3255
1022.0037	2950.8999	4023.75	3133
1022.1176	2951.9904	3927.4	3036.5
1022.2315	2953.0803	3853.7	2960.8
1022.3453	2954.1696	3777.05	2885.95
1022.4591	2955.2582	3725.15	2834.7
1022.5728	2956.3462	3657.25	2764.65
1022.6865	2957.4335	3627.9	2736
1022.8002	2958.5202	3578.5	2684.55
1022.9138	2959.6062	3545.65	2654.1
1023.0274	2960.6916	3534.7	2644.6
1023.141	2961.7764	3496.5	2603.9
1023.2545	2962.8605	3463.8	2572.1
1023.3679	2963.9439	3444.8	2554.3
1023.4813	2965.0267	3418.1	2525.4
1023.5947	2966.1089	3440.85	2527.1
1023.708	2967.1905	3401.75	2510.55
1023.8213	2968.2714	3398.25	2508.5
1023.9346	2969.3516	3397.05	2506.05
1024.0478	2970.4312	3384.95	2486.65
1024.1609	2971.5102	3380.05	2490
1024.274	2972.5885	3370.65	2478.65
1024.3871	2973.6662	3370.15	2472.5
1024.5002	2974.7432	3346.4	2455.6
1024.6132	2975.8196	3333.7	2443.2
1024.7261	2976.8954	3322.25	2432
1024.839	2977.9705	3290.75	2399.5
1024.9519	2979.045	3282.7	2392.4
1025.0647	2980.1188	3252.05	2362.35
1025.1775	2981.192	3242.15	2354.55
1025.2902	2982.2645	3195.25	2304.95
1025.4029	2983.3364	3180.25	2287.4
1025.5156	2984.4077	3131.35	2240.55
1025.6282	2985.4783	3110.85	2212.9
1025.7407	2986.5483	3062.85	2171.85
1025.8532	2987.6177	3028.15	2137.25
1025.9657	2988.6864	2995.3	2103.45
1026.0782	2989.7545	2952.95	2061.75
1026.1906	2990.8219	2916.45	2026.7
1026.3029	2991.8887	2884.15	1991.6
1026.4152	2992.9548	2842.25	1949.8
1026.5275	2994.0204	2806.2	1914.95
1026.6397	2995.0852	2783.7	1895.35
1026.7519	2996.1495	2737.5	1846.1
1026.864	2997.2131	2700	1807.9
1026.9761	2998.276	2690.1	1796.15
1027.0882	2999.3383	2677.8	1786.2
1027.2002	3000.4	2633.6	1742.3
1027.3122	3001.4611	2628.2	1737.2
1027.4241	3002.5215	2607.15	1715.85
1027.536	3003.5812	2582.95	1692.85
1027.6478	3004.6404	2570.75	1679.25
1027.7596	3005.6989	2558.7	1666.25
1027.8714	3006.7567	2536.7	1646.15
1027.9831	3007.8139	2547.05	1635.15
1028.0947	3008.8705	2516	1623.2
1028.2064	3009.9264	2523.05	1616.9
1028.3179	3010.9818	2495.2	1604.5
1028.4295	3012.0364	2500.7	1609.8
1028.541	3013.0905	2477	1585.3
1028.6524	3014.1439	2466.2	1576.55
1028.7638	3015.1966	2472.95	1584.55
1028.8752	3016.2487	2470.6	1578.35
1028.9865	3017.3002	2469.45	1571.45
1029.0978	3018.3511	2462.35	1570.5
1029.209	3019.4013	2450.9	1559.15
1029.3202	3020.4509	2452	1560.55
1029.4314	3021.4998	2442.8	1551.25
1029.5425	3022.5481	2430.05	1538.85
1029.6535	3023.5958	2426.9	1536.2
1029.7645	3024.6428	2430.4	1537.3
1029.8755	3025.6892	2418.85	1527.1
1029.9864	3026.735	2428.75	1537.65
1030.0973	3027.7802	2419.35	1529.75
1030.2082	3028.8247	2409.9	1519.8
1030.319	3029.8685	2405.55	1514.9
1030.4297	3030.9118	2413.25	1522.8
1030.5404	3031.9544	2418.05	1529.05
1030.6511	3032.9963	2419.95	1528.85
1030.7617	3034.0376	2410.5	1519.85
1030.8723	3035.0783	2411.4	1517.6
1030.9829	3036.1184	2410.4	1517.1
1031.0934	3037.1578	2416.4	1525.65
1031.2038	3038.1966	2410.2	1518.85
1031.3142	3039.2348	2399.1	1510.2
1031.4246	3040.2723	2389.9	1490.8
1031.5349	3041.3092	2386.65	1495.25
1031.6452	3042.3455	2379.55	1488.2
1031.7554	3043.3811	2373.4	1480.45
1031.8656	3044.4161	2371.2	1481.05
1031.9758	3045.4505	2360	1468.15
1032.0859	3046.4842	2353.95	1464.05
1032.1959	3047.5173	2335.25	1443.65
1032.3059	3048.5498	2332.8	1441.5
1032.4159	3049.5816	2319.55	1428.45
1032.5258	3050.6128	2309.05	1415.9
1032.6357	3051.6434	2299	1407.45
1032.7455	3052.6734	2282.55	1387.8
1032.8553	3053.7027	2274.55	1383.55
1032.9651	3054.7314	2268.8	1377.75
1033.0748	3055.7594	2260.4	1369.95
1033.1845	3056.7868	2248	1355.9
1033.2941	3057.8136	2234.45	1344
1033.4037	3058.8398	2224.3	1335.35
1033.5132	3059.8653	2215.95	1324.7
1033.6227	3060.8902	2208	1317.45
1033.7321	3061.9145	2200.85	1310.05
1033.8415	3062.9381	2204.7	1313.9
1033.9509	3063.9612	2188.75	1283.3
1034.0602	3064.9835	2177.3	1285.2
1034.1694	3066.0053	2162.25	1270.75
1034.2787	3067.0264	2143.4	1253.75
1034.3878	3068.0469	2137.4	1246.25
1034.497	3069.0668	2133.7	1241.5
1034.6061	3070.086	2113.7	1223.7
1034.7151	3071.1046	2110.85	1220.2
1034.8241	3072.1226	2103.25	1212.1
1034.9331	3073.1399	2091.1	1200.65
1035.042	3074.1567	2069.8	1179.2
1035.1508	3075.1727	2050.15	1155.5
1035.2597	3076.1882	2046.5	1153.35
1035.3684	3077.203	2025	1135.85
1035.4772	3078.2173	2031.9	1139.35
1035.5859	3079.2308	2011.2	1116.65
1035.6945	3080.2438	1995.35	1102.6
1035.8031	3081.2561	1989.5	1098.85
1035.9117	3082.2678	1974.8	1083.6
1036.0202	3083.2789	1963.65	1072.55
1036.1286	3084.2893	1951.9	1062.75
1036.2371	3085.2991	1941.65	1049.3
1036.3454	3086.3083	1944.6	1049.7
1036.4538	3087.3169	1928.75	1035.65
1036.562	3088.3248	1926.1	1035.35
1036.6703	3089.3321	1909.45	1018.3
1036.7785	3090.3388	1905	1016.55
1036.8866	3091.3449	1901.5	1013.8
1036.9948	3092.3503	1884.75	992.7
1037.1028	3093.3551	1876.45	987.8
1037.2108	3094.3593	1883.45	993.6
1037.3188	3095.3629	1869.55	980.95
1037.4267	3096.3658	1863.7	970.75
1037.5346	3097.3681	1855.45	963.25
1037.6425	3098.3698	1844.95	952.15
1037.7503	3099.3708	1844.3	946.1
1037.858	3100.3713	1833.35	943.4
1037.9657	3101.3711	1829.1	938.5
1038.0734	3102.3702	1933.2	928.9
1038.181	3103.3688	1830.8	939.15
1038.2886	3104.3667	1805.85	915.85
1038.3961	3105.364	1796.8	907.35
1038.5036	3106.3607	1805.35	914.25
1038.611	3107.3568	1788.7	896.35
1038.7184	3108.3522	1785.65	896.45
1038.8257	3109.347	1783	891.65
1038.933	3110.3412	1787	892.6
1039.0403	3111.3348	1763.95	871.6
1039.1475	3112.3277	1763.35	873.25
1039.2547	3113.32	1755.1	865.7
1039.3618	3114.3117	1751.05	859.2
1039.4689	3115.3028	1737.45	845.95
1039.5759	3116.2932	1752.05	857.5
1039.6829	3117.2831	1740.65	842.9
1039.7898	3118.2723	1733.8	842.5
1039.8967	3119.2608	1724.45	834.7
1040.0035	3120.2488	1725.1	835
1040.1103	3121.2361	1714	823.35
1040.2171	3122.2229	1715.85	825.8
1040.3238	3123.209	1717.25	825.15
1040.4305	3124.1944	1704.25	816.05
1040.5371	3125.1793	1699.45	808
1040.6437	3126.1635	1698.95	808.55
1040.7502	3127.1471	1694.65	804.1
1040.8567	3128.1301	1688.3	799.5
1040.9631	3129.1125	1684.6	794.1
1041.0695	3130.0942	1682.35	790.1
1041.1759	3131.0753	1678.5	778.4
1041.2822	3132.0558	1675.7	783
1041.3884	3133.0357	1670.3	779.05
1041.4946	3134.015	1666.1	775.65
1041.6008	3134.9936	1664.6	774.65
1041.7069	3135.9716	1670.4	759.75
1041.813	3136.949	1653.9	764.4
1041.919	3137.9258	1653.45	756.9
1042.025	3138.902	1650.35	755.5
1042.1309	3139.8775	1640.1	748.45
1042.2368	3140.8524	1629.85	738.7
1042.3427	3141.8267	1633.1	741.65
1042.4485	3142.8004	1627.45	736.05
1042.5542	3143.7735	1633.35	736.6
1042.6599	3144.7459	1627.45	735.35
1042.7656	3145.7178	1628	736.5
1042.8712	3146.689	1608.5	720
1042.9768	3147.6596	1612.5	720.75
1043.0823	3148.6295	1608.25	715.95
1043.1878	3149.5989	1600.45	708.15
1043.2932	3150.5676	1600	708.75
1043.3986	3151.5357	1593	703.75
1043.5039	3152.5032	1585.5	694.25
1043.6092	3153.4701	1584.4	694.1
1043.7145	3154.4364	1584.5	692.85
1043.8197	3155.402	1582.9	692.55
1043.9248	3156.367	1563.1	671.4
1044.03	3157.3315	1603.4	674.25
1044.135	3158.2952	1567.7	677.55
1044.24	3159.2584	1565.05	675.25
1044.345	3160.221	1551.95	660.45
1044.4499	3161.1829	1560.7	670.95
1044.5548	3162.1442	1547.25	657.65
1044.6596	3163.105	1546.65	656.15
1044.7644	3164.065	1544.15	654.45
1044.8692	3165.0245	1541.6	647.3
1044.9739	3165.9834	1525.75	636.85
1045.0785	3166.9416	1529.8	638.45
1045.1831	3167.8993	1526.65	636.95
1045.2877	3168.8563	1520.35	629.6
1045.3922	3169.8127	1521.55	630.5
1045.4966	3170.7684	1508.8	617.85
1045.6011	3171.7236	1513.1	621.9
1045.7054	3172.6782	1505.8	616.6
1045.8098	3173.6321	1512.8	622.35
1045.914	3174.5854	1506.75	609.95
1046.0183	3175.5381	1495.8	605.75
1046.1224	3176.4902	1496.6	606.15
1046.2266	3177.4417	1489.5	598.4
1046.3307	3178.3926	1485.85	596.8
1046.4347	3179.3428	1487.3	596.85
1046.5387	3180.2924	1483.8	594.05
1046.6427	3181.2415	1474.85	585.2
1046.7466	3182.1899	1470.1	576.05
1046.8504	3183.1377	1464.7	576.85
1046.9542	3184.0848	1468.1	572.6
1047.058	3185.0314	1477.2	584.8
1047.1617	3185.9773	1458.45	567.35
1047.2654	3186.9227	1468.4	577.85
1047.369	3187.8674	1455.4	566.45
1047.4726	3188.8115	1455.85	563.4
1047.5761	3189.755	1446.35	555.65
1047.6796	3190.6979	1449	557.65
1047.783	3191.6402	1444	554.55
1047.8864	3192.5818	1450.65	559.9
1047.9898	3193.5229	1465.8	551.7
1048.0931	3194.4633	1441.1	550.65
1048.1963	3195.4031	1439.5	548.65
1048.2995	3196.3423	1430.25	540.7
1048.4027	3197.2809	1428.95	540
1048.5058	3198.2189	1427.9	537
1048.6089	3199.1563	1437.55	533
1048.7119	3200.0931	1420	530.2
1048.8148	3201.0292	1415.35	525.45
1048.9178	3201.9648	1410.45	522.2
1049.0206	3202.8997	1413.25	520.55
1049.1235	3203.834	1410.45	519.45
1049.2262	3204.7677	1408.1	518.65
1049.329	3205.7008	1403.45	510.35
1049.4317	3206.6333	1405.4	516.6
1049.5343	3207.5652	1403.75	511.4
1049.6369	3208.4964	1396.5	505.2
1049.7394	3209.4271	1394.7	505.1
1049.8419	3210.3571	1387.3	498.8
1049.9444	3211.2865	1388.95	498.35
1050.0468	3212.2154	1382.55	492.55
1050.1491	3213.1436	1384	491.25
1050.2514	3214.0712	1392.35	495.4
1050.3537	3214.9982	1374.25	481.75
1050.4559	3215.9246	1377.05	486
1050.5581	3216.8503	1369.25	480.55
1050.6602	3217.7755	1370.5	479.25
1050.7623	3218.7001	1373	481.95
1050.8643	3219.624	1370.7	480.75
1050.9663	3220.5473	1371.5	480.4
1051.0682	3221.4701	1358.65	465.4
1051.1701	3222.3922	1359.9	467.75
1051.2719	3223.3137	1362.15	471.65
1051.3737	3224.2346	1355.4	464.9
1051.4754	3225.1549	1351.75	463.15
1051.5771	3226.0746	1354.95	466.35
1051.6788	3226.9937	1345.25	453.4
1051.7804	3227.9121	1348.45	458.75
1051.8819	3228.83	1336.6	444.5
1051.9834	3229.7473	1342.95	451.5
1052.0849	3230.6639	1342.1	451.5
1052.1863	3231.5799	1332.1	441.7
1052.2876	3232.4954	1326.75	435.15
1052.3889	3233.4102	1329.85	440.65
1052.4902	3234.3244	1323.75	434.3
1052.5914	3235.238	1329.35	441.45
1052.6926	3236.151	1340.35	426.65
1052.7937	3237.0634	1311.95	420.95
1052.8948	3237.9752	1323.9	434.65
1052.9958	3238.8864	1316.35	427.55
1053.0968	3239.797	1312.6	423.8
1053.1977	3240.7069	1304.7	413.7
1053.2986	3241.6163	1308.4	416.85
1053.3994	3242.5251	1303.15	414.25
1053.5002	3243.4332	1296.1	406.6
1053.6009	3244.3408	1298.1	410.2
1053.7016	3245.2477	1296.45	406.3
1053.8022	3246.154	1295.85	404.45
1053.9028	3247.0598	1297.15	408.25
1054.0034	3247.9649	1287	396
1054.1039	3248.8694	1291.45	400.9
1054.2043	3249.7733	1286.6	398.3
1054.3047	3250.6766	1284.05	393.15
1054.4051	3251.5793	1282.05	391.8
1054.5054	3252.4814	1274.6	385.9
1054.6056	3253.3829	1278.3	388.4
1054.7058	3254.2838	1274.9	384.9
1054.806	3255.1841	1268.65	379
1054.9061	3256.0838	1263.55	375.05
1055.0061	3256.9829	1261	372.55
1055.1062	3257.8814	1260	367.25
1055.2061	3258.7792	1259.85	367.65
1055.306	3259.6765	1253.7	363.15
1055.4059	3260.5731	1250.9	360.95
1055.5057	3261.4692	1241.95	352.15
1055.6055	3262.3647	1246.25	353.45
1055.7052	3263.2595	1231.05	342.05
1055.8049	3264.1538	1227.3	338.35
1055.9045	3265.0474	1227.05	335.9
1056.0041	3265.9404	1222.55	333.55
1056.1036	3266.8329	1219.95	330.15
1056.2031	3267.7247	1220.15	320.8
1056.3025	3268.616	1196.2	306.75
1056.4019	3269.5066	1196.5	307.25
1056.5013	3270.3966	1188	295.75
1056.6005	3271.286	1174.95	283.45
