Software Version:	3.9.2.0
Unit SN:	10000200
Spectrometer SN:	6960
Date:	3/6/2024 9:31:58 AM
Data Line Index:	25
Spectral Points:	2048
Integration time (ms):	125
Averages:	20
Delay (ms):	30
Sequence Number:	1
Processing:	dark subtract
Laser Power (mW):	300
Laser Current (mA):	823
Laser Diode Temp (C):	25.1
Laser Case Temp (C):	23.6
System Temp (C):	23.4
Spectrometer Temp (C):	20.9
CCD Temp (C):	-0.008
Secondary Temp (C):	20.007
Heatsink Temp (C):	17.649
CCDPCB Temp (C):	30.171
SecondaryPCB Temp (C):	25.347

Wavelength	RamanShift	Raw Counts	Dark Subtracted
787.061	30.1047	525.3	117.45
787.2016	32.3739	527.85	122.45
787.3422	34.6426	535.6	129.55
787.4828	36.9109	546.85	138.5
787.6235	39.1787	559.75	148.6
787.7642	41.4461	569.95	152.7
787.9049	43.7131	583.65	164.05
788.0456	45.9796	597.15	176.45
788.1863	48.2456	606.5	181.75
788.3271	50.5112	622.2	191.95
788.4679	52.7764	636.95	205.35
788.6087	55.0411	651.2	212.3
788.7496	57.3054	671.9	231.6
788.8904	59.5692	686.6	242.25
789.0313	61.8326	701.05	253.9
789.1722	64.0955	727.3	277.65
789.3132	66.3579	750.45	295.9
789.4541	68.6199	785.65	327.35
789.5951	70.8815	841.5	379.75
789.7361	73.1426	955.2	487.05
789.8771	75.4032	1255	785.35
790.0181	77.6634	1996.6	1526.75
790.1592	79.9231	3755.15	3280.25
790.3003	82.1824	7632.95	7153.3
790.4414	84.4412	14505.6	14013.15
790.5825	86.6995	23819.05	23319.35
790.7237	88.9574	32672.15	32163.65
790.8648	91.2148	39032.75	38519.55
791.006	93.4717	42220.4	41702.75
791.1472	95.7282	43652.5	43133.5
791.2885	97.9842	44306.5	43784.4
791.4297	100.2398	44698.3	44172.95
791.571	102.4949	44472.7	43944.55
791.7123	104.7495	44858.75	44326
791.8536	107.0036	44556.4	44023.75
791.9949	109.2573	45188.5	44656.45
792.1363	111.5105	44655.7	44120.3
792.2777	113.7632	45144.55	44607.75
792.4191	116.0154	45204	44656.95
792.5605	118.2672	45555.3	45014.6
792.7019	120.5185	45534.2	44991.95
792.8434	122.7693	45573.6	45027.6
792.9849	125.0197	45452.95	44901.95
793.1264	127.2696	45976.65	45424.2
793.2679	129.519	46197.35	45640.35
793.4094	131.7679	46581.4	46024.1
793.551	134.0163	45566	45004.6
793.6926	136.2642	46086.4	45521.8
793.8342	138.5117	46713.3	46142.95
793.9758	140.7587	46563.85	45994.95
794.1175	143.0052	46715.55	46143.7
794.2591	145.2512	46242.35	45667.95
794.4008	147.4967	46822.85	46247.4
794.5425	149.7417	46594.2	46014.9
794.6842	151.9863	46760.1	46176.3
794.826	154.2304	46187.85	45602.7
794.9677	156.4739	46653.2	46061.25
795.1095	158.717	46906.3	46317.65
795.2513	160.9596	46827.95	46232.8
795.3931	163.2017	46357.45	45762.55
795.535	165.4433	46965.35	46366.5
795.6768	167.6844	46715.45	46113.7
795.8187	169.925	47035.1	46428.9
795.9606	172.1651	46918.25	46309.8
796.1025	174.4047	46680.1	46067.05
796.2445	176.6439	46910.8	46295.25
796.3864	178.8825	47025.95	46409.85
796.5284	181.1206	47232.25	46610.35
796.6704	183.3582	47324.85	46700.3
796.8124	185.5954	46869.5	46243.4
796.9544	187.832	47218.9	46588.5
797.0965	190.0681	47058.05	46423.55
797.2386	192.3037	47550.55	46913.6
797.3806	194.5388	48095.45	47457
797.5228	196.7734	47024.2	46383.6
797.6649	199.0075	47900.05	47258.3
797.807	201.2411	47841.65	47199.8
797.9492	203.4742	48273.15	47628
798.0914	205.7068	48376.9	47725.7
798.2336	207.9389	48398.95	47747.45
798.3758	210.1704	48346.5	47700.65
798.518	212.4015	48935.25	48303.4
798.6603	214.632	48087.4	47459.9
798.8025	216.862	48749.7	48124.15
798.9448	219.0915	48888.7	48257.5
799.0871	221.3205	48513	47883.15
799.2294	223.549	49044.7	48418.9
799.3718	225.777	49119.9	48493.2
799.5141	228.0044	49154	48518.55
799.6565	230.2314	49217.65	48580.5
799.7989	232.4578	49156.15	48513.35
799.9413	234.6837	49181	48532.25
800.0837	236.909	50114.95	49463.55
800.2262	239.1339	48962.85	48283.6
800.3687	241.3582	49482.1	48819.6
800.5111	243.582	49462.5	48769.1
800.6536	245.8053	49677.4	48999.5
800.7961	248.0281	49673.4	48999.2
800.9387	250.2503	49877.3	49201.5
801.0812	252.472	49657.1	48978.7
801.2238	254.6932	49778.4	49098.9
801.3664	256.9139	49707.8	49029.15
801.509	259.134	50564.55	49877.8
801.6516	261.3536	49355.8	48674.7
801.7942	263.5727	50271.5	49588.15
801.9369	265.7912	49901.8	49220.5
802.0795	268.0092	50028.75	49344.9
802.2222	270.2267	50042.6	49356.55
802.3649	272.4436	49885.9	49197.15
802.5076	274.6601	50202.6	49505.3
802.6504	276.8759	50274	49580.35
802.7931	279.0913	50401.35	49705.95
802.9359	281.3061	50193.7	49497
803.0787	283.5204	50467.3	49768.75
803.2215	285.7341	50362.6	49659.45
803.3643	287.9473	50912.75	50200
803.5071	290.16	50418	49713.65
803.6499	292.3721	51071.45	50372.6
803.7928	294.5837	50188.5	49487.65
803.9357	296.7947	50038.7	49337.1
804.0786	299.0052	50509.55	49807.1
804.2215	301.2152	50191.6	49487.2
804.3644	303.4246	50713.7	50010.75
804.5074	305.6334	50631.1	49925.9
804.6503	307.8418	50121.25	49413
804.7933	310.0495	50427.35	49719.2
804.9363	312.2568	50229.65	49522.05
805.0793	314.4635	50149.35	49437.8
805.2223	316.6696	50225.7	49513.15
805.3653	318.8752	50578.3	49854.35
805.5084	321.0802	49618.2	48900.6
805.6514	323.2847	49962.7	49245.15
805.7945	325.4887	50036.2	49317.15
805.9376	327.692	49758.55	49039.75
806.0807	329.8949	50121.95	49403.15
806.2238	332.0972	49988.25	49264.9
806.367	334.2989	50185.9	49458.9
806.5101	336.5001	50513.45	49786.4
806.6533	338.7007	49932.4	49206.25
806.7965	340.9008	50136.1	49408.85
806.9397	343.1003	50145.15	49416.15
807.0829	345.2992	50436.05	49707.45
807.2261	347.4976	50025.4	49293.9
807.3693	349.6955	50142.75	49407.65
807.5126	351.8927	50005.75	49271.65
807.6559	354.0895	50160.05	49412.95
807.7991	356.2856	50099.05	49360.55
807.9424	358.4812	50395.9	49656.7
808.0857	360.6763	50043.5	49300.1
808.2291	362.8707	50075.6	49330.5
808.3724	365.0646	50043.5	49297.75
808.5158	367.258	50058.85	49310.5
808.6591	369.4508	49849.9	49096.1
808.8025	371.643	50102.1	49351.75
808.9459	373.8346	49932.55	49181.3
809.0893	376.0257	49874.7	49118.5
809.2327	378.2162	49779.45	49024.3
809.3762	380.4062	49620.4	48864.85
809.5196	382.5956	49636.75	48881.3
809.6631	384.7844	49778.6	49030.45
809.8066	386.9726	49694.05	48945.8
809.9501	389.1603	49793.85	49048.15
810.0936	391.3474	49341.6	48545.7
810.2371	393.5339	49713.8	48965.8
810.3806	395.7199	49200	48451.05
810.5241	397.9052	49248.35	48497.1
810.6677	400.09	49380.05	48628.65
810.8113	402.2743	49420.7	48667.85
810.9548	404.4579	49399.35	48645.5
811.0984	406.641	49305.2	48550.8
811.2421	408.8235	49546.3	48789.8
811.3857	411.0054	49442.2	48684.8
811.5293	413.1868	49486.5	48724
811.673	415.3675	49448.7	48681.2
811.8166	417.5477	49557.6	48791.55
811.9603	419.7273	49404.45	48636.2
812.104	421.9064	49250.7	48471.6
812.2477	424.0848	49197.45	48428.5
812.3914	426.2627	49213.6	48440.5
812.5351	428.4399	48872.6	48100.05
812.6788	430.6166	48696.85	47922.85
812.8226	432.7928	48814.95	48037.45
812.9663	434.9683	48517.75	47739.85
813.1101	437.1432	48525	47744.4
813.2539	439.3176	48496.7	47717.15
813.3977	441.4914	48151.45	47371.75
813.5415	443.6645	48201.55	47421.2
813.6853	445.8371	48100.2	47321.3
813.8291	448.0091	47808	47031
813.973	450.1806	47787.6	47006.95
814.1168	452.3514	47588.15	46804.95
814.2607	454.5216	47649.6	46857.65
814.4046	456.6913	47445.45	46659.15
814.5485	458.8603	47532.1	46746.45
814.6924	461.0288	47488.85	46704.6
814.8363	463.1967	47413.2	46629.1
814.9802	465.3639	47479.8	46694.95
815.1241	467.5306	47235	46450
815.2681	469.6967	47208.85	46423.2
815.412	471.8622	47095.1	46310.1
815.556	474.0271	47079.4	46291.65
815.7	476.1914	47029.3	46240.5
815.844	478.3551	46993.85	46208
815.988	480.5182	47165.5	46377.6
816.132	482.6807	47032.6	46245.05
816.276	484.8426	47083.3	46293.85
816.4201	487.0039	47253.1	46465.2
816.5641	489.1647	47254	46461.7
816.7082	491.3248	47235.2	46444.15
816.8522	493.4843	47260.4	46471.25
816.9963	495.6432	47171.7	46379.4
817.1404	497.8015	46954.4	46158.4
817.2845	499.9592	47119.55	46326.75
817.4286	502.1163	47064.2	46267.4
817.5727	504.2728	46874.95	46077.7
817.7168	506.4287	46944.6	46149.25
817.861	508.5839	46770.9	45974.55
818.0051	510.7386	46774.05	45977.85
818.1493	512.8927	46833.6	46027.25
818.2935	515.0461	46790.4	45987.7
818.4377	517.199	46740.8	45939.85
818.5818	519.3512	46771.65	45969.6
818.726	521.5029	46716.2	45907.2
818.8703	523.6539	46782.55	45978.7
819.0145	525.8043	46672.25	45869
819.1587	527.9541	46605.2	45798.85
819.303	530.1033	46538.05	45731.65
819.4472	532.2519	46370.45	45564.9
819.5915	534.3999	46442	45634.5
819.7357	536.5472	46377.7	45570.8
819.88	538.694	46309.65	45503.1
820.0243	540.8401	46387.35	45580.45
820.1686	542.9856	46426.35	45613.5
820.3129	545.1305	46334.85	45522.1
820.4572	547.2748	46328.25	45519.05
820.6016	549.4185	46304.6	45490.85
820.7459	551.5615	46208	45397.6
820.8902	553.704	46246.75	45435.8
821.0346	555.8458	46126.25	45316.8
821.1789	557.987	46135.25	45323.95
821.3233	560.1276	46059.35	45246.65
821.4677	562.2675	46143.2	45330.6
821.6121	564.4069	46099.4	45287.95
821.7565	566.5456	46075	45264.1
821.9009	568.6837	46025.3	45213.6
822.0453	570.8212	45851.5	45042.7
822.1897	572.958	45713.9	44899.2
822.3342	575.0942	45571	44759.3
822.4786	577.2299	45450.05	44636.75
822.6231	579.3648	45298.85	44486.2
822.7675	581.4992	45129.45	44316.8
822.912	583.6329	45018.55	44204.35
823.0565	585.766	44963.5	44150.8
823.201	587.8985	44924.75	44110.6
823.3454	590.0304	44795.25	43967.3
823.4899	592.1616	44720.4	43897.95
823.6345	594.2922	44645.8	43826.8
823.779	596.4222	44522.75	43702.5
823.9235	598.5515	44412.45	43590.4
824.068	600.6802	44355.8	43535.2
824.2126	602.8083	44162.6	43341.9
824.3571	604.9358	44118.45	43297.95
824.5017	607.0626	43959.4	43136.8
824.6462	609.1888	43928.45	43104.65
824.7908	611.3144	43931.95	43106.65
824.9354	613.4393	43839.95	43017.2
825.08	615.5636	43774.45	42948.3
825.2246	617.6873	43828.8	43004.75
825.3692	619.8103	43969.5	43143.95
825.5138	621.9327	43725.55	42897.15
825.6584	624.0544	43729.25	42904.6
825.803	626.1756	43680.25	42854.05
825.9477	628.2961	43588.25	42760.4
826.0923	630.4159	43423.05	42596.8
826.237	632.5351	43483.95	42657.35
826.3816	634.6537	43344.6	42517
826.5263	636.7716	43314.55	42483
826.6709	638.8889	43285.35	42454.45
826.8156	641.0056	43338.95	42508.35
826.9603	643.1216	43254.9	42420.85
827.105	645.237	43335.35	42503.45
827.2497	647.3518	43191.4	42362.85
827.3944	649.4659	43220.5	42391.05
827.5391	651.5793	43078.45	42249.7
827.6838	653.6922	42988.95	42159.8
827.8285	655.8043	42900.35	42068.35
827.9733	657.9159	42926.55	42095.75
828.118	660.0268	42757.45	41920.55
828.2627	662.137	42675.3	41841.7
828.4075	664.2466	42690.35	41852.4
828.5522	666.3556	42615.6	41779.65
828.697	668.4639	42462.1	41625.1
828.8418	670.5716	42538.85	41706.7
828.9865	672.6786	42540.35	41704.9
829.1313	674.785	42386.15	41548.5
829.2761	676.8907	42191.45	41357.1
829.4209	678.9958	42190.15	41355.25
829.5657	681.1002	42040.05	41201.35
829.7105	683.204	42019.6	41177.35
829.8553	685.3072	41995.15	41157.3
830.0001	687.4097	41909.7	41071.25
830.1449	689.5115	41897.45	41058.95
830.2898	691.6127	41858.35	41019.95
830.4346	693.7132	41753.35	40915
830.5794	695.8131	41810.15	40951.65
830.7243	697.9123	41788.15	40945.8
830.8691	700.0109	41717.45	40878.05
831.014	702.1089	41659.5	40819.6
831.1588	704.2061	41567.2	40727.5
831.3037	706.3028	41603.3	40759.05
831.4486	708.3987	41553.45	40711.5
831.5935	710.4941	41446.85	40603.25
831.7383	712.5887	41448.85	40606.75
831.8832	714.6827	41422	40575.5
832.0281	716.7761	41380.5	40537.65
832.173	718.8688	41376.7	40531.6
832.3179	720.9608	41282.25	40434.1
832.4628	723.0522	41253.7	40404.8
832.6077	725.1429	41196.7	40350.15
832.7527	727.233	41133.45	40288.5
832.8976	729.3224	41206.55	40359.85
833.0425	731.4112	41101.9	40254.5
833.1874	733.4993	41046.6	40197.65
833.3324	735.5867	40907	40059.95
833.4773	737.6735	40828.55	39979.7
833.6222	739.7596	40663.15	39813.85
833.7672	741.845	40627.7	39782.1
833.9122	743.9298	40517.85	39667.2
834.0571	746.014	40407.7	39562.1
834.2021	748.0974	40376.6	39525.9
834.347	750.1802	40276	39425.8
834.492	752.2624	40138	39289.65
834.637	754.3439	39955.1	39103.9
834.782	756.4247	39855.4	38996.4
834.9269	758.5048	39746.3	38897.35
835.0719	760.5843	39706.7	38857.05
835.2169	762.6631	39594.8	38745.5
835.3619	764.7413	39543.85	38692.95
835.5069	766.8188	39584.1	38730.7
835.6519	768.8956	39506.1	38652.2
835.7969	770.9718	39568.55	38718.85
835.9419	773.0473	39357.4	38505.75
836.0869	775.1221	39329.45	38477.85
836.232	777.1962	39132.55	38278
836.377	779.2697	39128.45	38272.2
836.522	781.3426	39054.55	38181.75
836.667	783.4147	39031.35	38177.25
836.8121	785.4862	39010.4	38157.1
836.9571	787.557	38828.15	37973.85
837.1021	789.6271	38701.75	37847.7
837.2472	791.6966	38546.65	37693.7
837.3922	793.7654	38366.95	37513.2
837.5373	795.8335	38336.65	37484.35
837.6823	797.901	38226.05	37370.95
837.8274	799.9678	38164.6	37309.4
837.9724	802.0339	38111	37256.5
838.1175	804.0993	38104.15	37239.4
838.2626	806.1641	37932.5	37076.7
838.4076	808.2282	37844.7	36991.5
838.5527	810.2916	37812.1	36953.4
838.6978	812.3544	37748.4	36894.4
838.8428	814.4164	37655.05	36801.75
838.9879	816.4778	37704.3	36848.6
839.133	818.5385	37564	36708.6
839.2781	820.5986	37581.4	36725.85
839.4232	822.658	37600.35	36742.85
839.5682	824.7166	37530.6	36674.2
839.7133	826.7747	37611.75	36757.25
839.8584	828.832	37570.5	36713.3
840.0035	830.8886	37421.3	36561.95
840.1486	832.9446	37412.1	36553.75
840.2937	834.9999	37333.2	36477.1
840.4388	837.0545	37208.65	36345.65
840.5839	839.1085	37122.6	36264.75
840.729	841.1618	37017.55	36156.7
840.8741	843.2143	36878.15	36020.35
841.0192	845.2662	36734.45	35874.55
841.1643	847.3175	36713.5	35856.9
841.3095	849.368	36575.8	35714.7
841.4546	851.4179	36551.65	35691.8
841.5997	853.467	36423.15	35565.35
841.7448	855.5155	36409.1	35548.05
841.8899	857.5633	36352.25	35493.05
842.0351	859.6105	36222.55	35364.75
842.1802	861.6569	36181.25	35323.6
842.3253	863.7027	36083.75	35220.55
842.4704	865.7478	36052.5	35191.45
842.6156	867.7922	36017.45	35155.8
842.7607	869.8359	35904.75	35042.05
842.9058	871.8789	35833	34970.25
843.0509	873.9212	35846.8	34955.2
843.1961	875.9629	35700.75	34839.2
843.3412	878.0039	35706	34843.45
843.4863	880.0441	35698.05	34838.3
843.6315	882.0837	35683.7	34818.4
843.7766	884.1226	35653.2	34789.05
843.9218	886.1609	35640.15	34779.35
844.0669	888.1984	35673	34810.75
844.212	890.2352	35714.05	34853.2
844.3572	892.2714	35633.7	34766.85
844.5023	894.3069	35546.6	34682.7
844.6475	896.3416	35403.8	34538.9
844.7926	898.3757	35372.6	34507.7
844.9377	900.4091	35250.85	34388.1
845.0829	902.4418	35202.45	34335
845.228	904.4739	35127.65	34260.5
845.3732	906.5052	35045.7	34179.85
845.5183	908.5358	34987.45	34121.85
845.6635	910.5658	34872.15	34006.1
845.8086	912.595	34791.35	33927.3
845.9538	914.6236	34695	33830.5
846.0989	916.6515	34659.1	33794.5
846.2441	918.6786	34581.2	33716.8
846.3892	920.7051	34561.6	33695.95
846.5344	922.7309	34552.15	33685.85
846.6795	924.756	34386.05	33519.5
846.8246	926.7804	34375.5	33506.65
846.9698	928.8041	34137	33271.3
847.1149	930.8272	34113	33246.6
847.2601	932.8495	33994.85	33125.7
847.4052	934.8711	34010.15	33142.65
847.5504	936.892	33814.85	32945.45
847.6955	938.9123	33726.65	32859.8
847.8407	940.9318	33722.65	32856.2
847.9858	942.9506	33591.55	32723.55
848.131	944.9688	33451.75	32582
848.2761	946.9862	33387.15	32518.1
848.4213	949.003	33225	32355.25
848.5664	951.019	33092.25	32224.2
848.7115	953.0344	33000.8	32132.25
848.8567	955.0491	32965.75	32096.1
849.0018	957.063	32901.05	32033.3
849.147	959.0763	32966.7	32101.4
849.2921	961.0888	32811.15	31941.85
849.4373	963.1007	32776.7	31909.1
849.5824	965.1119	32774.3	31907.65
849.7275	967.1223	32708.4	31841
849.8727	969.1321	32646.8	31780.7
850.0178	971.1412	32594.2	31726.35
850.1629	973.1495	32495.85	31626.9
850.3081	975.1572	32491.75	31577.15
850.4532	977.1641	32445.1	31574.25
850.5983	979.1704	32271.2	31400.1
850.7435	981.1759	32200.55	31327.5
850.8886	983.1808	32206.55	31336.8
851.0337	985.1849	32117.35	31240.35
851.1788	987.1884	32002.25	31130
851.324	989.1911	31931.2	31058.7
851.4691	991.1932	31851.65	30981.7
851.6142	993.1945	31760.05	30890.05
851.7593	995.1951	31609.3	30736.8
851.9045	997.1951	31578.7	30701.5
852.0496	999.1943	31428.25	30558.35
852.1947	1001.1928	31330.1	30459.3
852.3398	1003.1906	31178.25	30307.15
852.4849	1005.1877	31139.15	30267.8
852.63	1007.1841	31077.65	30206.05
852.7751	1009.1798	30958.65	30086.35
852.9202	1011.1748	30824.75	29953.85
853.0653	1013.1691	30733.3	29862.15
853.2104	1015.1627	30605.05	29733.25
853.3555	1017.1556	30402.25	29530.8
853.5006	1019.1477	30326.8	29453.5
853.6457	1021.1392	30100.45	29230
853.7908	1023.1299	30045.85	29175.15
853.9359	1025.12	29923.75	29051.75
854.081	1027.1093	29785.55	28915.2
854.2261	1029.0979	29774.05	28906.6
854.3712	1031.0859	29636.4	28763.3
854.5163	1033.0731	29543.35	28671.9
854.6613	1035.0596	29422.75	28553.15
854.8064	1037.0454	29258	28386.75
854.9515	1039.0304	29287.65	28413.7
855.0965	1041.0148	29097.85	28223.5
855.2416	1042.9985	28992.5	28119.45
855.3867	1044.9814	28990.3	28118
855.5317	1046.9636	28847.85	27973.9
855.6768	1048.9452	28747.85	27877.1
855.8219	1050.926	28706.55	27834.35
855.9669	1052.9061	28620.45	27748.95
856.112	1054.8855	28571.1	27697.45
856.257	1056.8642	28524.2	27651.75
856.4021	1058.8421	28471.75	27594.85
856.5471	1060.8194	28391.6	27514.9
856.6921	1062.7959	28312.25	27438.8
856.8372	1064.7717	28241	27366
856.9822	1066.7469	28161.75	27287.45
857.1272	1068.7213	28143.55	27266.85
857.2723	1070.695	28142.5	27271
857.4173	1072.6679	27971	27097.25
857.5623	1074.6402	27998.7	27125.75
857.7073	1076.6117	27977.65	27098.35
857.8523	1078.5826	27935.7	27061.5
857.9973	1080.5527	27810.9	26934.35
858.1423	1082.5221	27708.5	26832.7
858.2873	1084.4908	27634.95	26760.8
858.4323	1086.4587	27544.85	26669.25
858.5773	1088.426	27510.2	26634.85
858.7223	1090.3925	27367.15	26485.05
858.8673	1092.3584	27333.8	26461.15
859.0123	1094.3235	27199.75	26326.85
859.1573	1096.2879	27158.3	26283.65
859.3022	1098.2515	27149.3	26274.1
859.4472	1100.2145	27105.95	26230.95
859.5922	1102.1767	27054.75	26175.2
859.7371	1104.1382	26997.6	26122.45
859.8821	1106.099	26965.05	26088.65
860.027	1108.0591	26932.35	26056.2
860.172	1110.0185	26893.4	26014.6
860.3169	1111.9771	26931.75	26057.8
860.4619	1113.9351	26825.1	25949.3
860.6068	1115.8923	26815.35	25941.05
860.7517	1117.8488	26781.65	25903.75
860.8967	1119.8045	26636.8	25763.8
861.0416	1121.7596	26551.6	25674.8
861.1865	1123.7139	26353.85	25479.4
861.3314	1125.6675	26271.55	25395.6
861.4763	1127.6204	26290.55	25415.5
861.6212	1129.5726	26214.6	25336.9
861.7661	1131.524	26203	25326.15
861.911	1133.4748	26095.65	25219.05
862.0559	1135.4248	25961.8	25083.95
862.2008	1137.3741	25861.25	24983.35
862.3457	1139.3226	25739.95	24864.5
862.4905	1141.2705	25811.6	24934.9
862.6354	1143.2176	25629.7	24747.55
862.7803	1145.164	25635.15	24756.65
862.9251	1147.1097	25561.95	24683.6
863.07	1149.0546	25550.95	24673.05
863.2148	1150.9989	25536.95	24659.7
863.3597	1152.9424	25485.75	24608.65
863.5045	1154.8852	25379.45	24499.95
863.6493	1156.8272	25355.1	24479.35
863.7942	1158.7686	25363.7	24478.9
863.939	1160.7092	25279.6	24401.2
864.0838	1162.6491	25178.25	24298.75
864.2286	1164.5883	25168.7	24290.8
864.3734	1166.5267	25091.15	24211.6
864.5182	1168.4644	25108.65	24231.55
864.663	1170.4014	25052.85	24168.35
864.8078	1172.3377	25116.8	24242.9
864.9526	1174.2732	25091.35	24214.7
865.0974	1176.2081	25103.8	24228.9
865.2421	1178.1421	25170.8	24288.2
865.3869	1180.0755	25221.1	24344.4
865.5317	1182.0082	25190.55	24313.55
865.6764	1183.9401	25134.3	24255.95
865.8212	1185.8713	25026.35	24148.8
865.9659	1187.8017	24903.95	24025.75
866.1106	1189.7315	24720.25	23844
866.2554	1191.6605	24516.2	23639.6
866.4001	1193.5888	24399.1	23521.3
866.5448	1195.5163	24346.2	23468.65
866.6895	1197.4432	24234.9	23355.75
866.8342	1199.3693	24167.9	23290.25
866.9789	1201.2947	24027.65	23146.65
867.1236	1203.2193	23985.1	23105.65
867.2683	1205.1432	23940.65	23061.75
867.413	1207.0664	23847.15	22966.65
867.5576	1208.9889	23804	22921.4
867.7023	1210.9106	23659.2	22781.35
867.847	1212.8316	23580.95	22704
867.9916	1214.7519	23569.6	22681.2
868.1363	1216.6715	23509.25	22630.4
868.2809	1218.5903	23483.1	22603.55
868.4255	1220.5084	23434.55	22556.4
868.5701	1222.4257	23399.25	22518.1
868.7148	1224.3424	23280.55	22402.45
868.8594	1226.2583	23267.45	22383.45
869.004	1228.1735	23229.05	22349.3
869.1486	1230.0879	23119.25	22238.1
869.2932	1232.0016	23080.05	22200
869.4377	1233.9146	23090.35	22208.5
869.5823	1235.8269	23016.75	22137.9
869.7269	1237.7384	23009	22129.35
869.8715	1239.6492	22941.35	22063.95
870.016	1241.5592	22907.8	22024.8
870.1606	1243.4686	22833.35	21954.1
870.3051	1245.3772	22882.6	22002.75
870.4496	1247.285	22885.75	22007.05
870.5941	1249.1922	22866.7	21988.45
870.7387	1251.0986	22907.35	22026.9
870.8832	1253.0042	22873.7	21994.65
871.0277	1254.9092	22952.45	22070.75
871.1722	1256.8134	22972.9	22094.2
871.3167	1258.7169	23059.8	22179.05
871.4611	1260.6196	22985.8	22107.15
871.6056	1262.5216	23025.2	22144.65
871.7501	1264.4229	22943.8	22064.7
871.8945	1266.3234	22956.8	22075.75
872.039	1268.2232	22819.7	21938.05
872.1834	1270.1223	22728.1	21846.95
872.3278	1272.0207	22681.05	21798.85
872.4723	1273.9183	22609.45	21724.25
872.6167	1275.8151	22594.2	21714.4
872.7611	1277.7113	22580.1	21699.15
872.9055	1279.6067	22582.85	21701.4
873.0499	1281.5014	22668.7	21784.75
873.1943	1283.3953	22773.1	21889.65
873.3386	1285.2885	22908.25	22028.95
873.483	1287.181	23034.1	22153.4
873.6274	1289.0727	23131.25	22252.15
873.7717	1290.9637	23020.85	22140.05
873.9161	1292.854	22912.55	22031.45
874.0604	1294.7435	22715.2	21832.95
874.2047	1296.6323	22614.75	21734.1
874.349	1298.5204	22511.05	21627
874.4933	1300.4077	22399.1	21516.35
874.6376	1302.2943	22357.8	21476.05
874.7819	1304.1802	22269.65	21386.7
874.9262	1306.0653	22229.8	21346.3
875.0705	1307.9497	22174.4	21293.95
875.2147	1309.8333	22113.4	21231.6
875.359	1311.7162	22039.15	21159.6
875.5032	1313.5984	21969.6	21087.85
875.6475	1315.4798	21928.75	21046.25
875.7917	1317.3605	21872.6	20987.05
875.9359	1319.2405	21883.85	21000.65
876.0801	1321.1197	21841.2	20958.05
876.2243	1322.9982	21770.05	20883.55
876.3685	1324.876	21762.2	20881.7
876.5127	1326.753	21663.3	20781.7
876.6569	1328.6293	21533.15	20650.1
876.801	1330.5048	21483.4	20599.2
876.9452	1332.3796	21286.15	20406.05
877.0893	1334.2537	21268.95	20363.35
877.2335	1336.127	21143.75	20262.4
877.3776	1337.9996	21088.4	20206.1
877.5217	1339.8714	21073.45	20193.65
877.6658	1341.7426	21050.05	20124.75
877.8099	1343.6129	20970.4	20088.95
877.954	1345.4826	20884.8	20002.4
878.0981	1347.3515	20911.75	20026.4
878.2422	1349.2196	20832.4	19950.7
878.3862	1351.087	20836.05	19953.8
878.5303	1352.9537	20770.95	19886.95
878.6743	1354.8197	20774.1	19892.15
878.8184	1356.6849	20756.9	19876.1
878.9624	1358.5493	20700.15	19819.65
879.1064	1360.4131	20690.4	19809.45
879.2504	1362.276	20678.85	19797.95
879.3944	1364.1383	20677.4	19796
879.5384	1365.9998	20608.9	19721.95
879.6823	1367.8606	20544.2	19659.9
879.8263	1369.7206	20502.05	19620.6
879.9702	1371.5799	20460.05	19575.25
880.1142	1373.4384	20429.65	19546.9
880.2581	1375.2962	20383.45	19498.1
880.402	1377.1533	20239.05	19356.1
880.5459	1379.0096	20135.8	19251.55
880.6898	1380.8652	20070.45	19188.3
880.8337	1382.7201	19997.8	19115.35
880.9776	1384.5742	19865.85	18984.5
881.1215	1386.4275	19733.75	18847.6
881.2653	1388.2802	19663.3	18779.8
881.4092	1390.132	19627.9	18747
881.553	1391.9832	19617.75	18735.75
881.6968	1393.8336	19496.6	18613.1
881.8406	1395.6832	19434.65	18551.05
881.9844	1397.5322	19340.55	18458.75
882.1282	1399.3803	19282.05	18394.05
882.272	1401.2278	19206.3	18323.65
882.4158	1403.0745	19145.6	18262.5
882.5595	1404.9204	19045.15	18161.9
882.7033	1406.7656	19032.95	18149.95
882.847	1408.6101	18969.95	18086.95
882.9908	1410.4538	18915.85	18031.95
883.1345	1412.2968	18821.05	17939.45
883.2782	1414.139	18781.05	17898.6
883.4219	1415.9805	18781.35	17899
883.5656	1417.8213	18679.6	17777.1
883.7092	1419.6613	18586.2	17704.6
883.8529	1421.5006	18606.95	17723.6
883.9965	1423.3391	18585.05	17702.75
884.1402	1425.1769	18538.35	17655.95
884.2838	1427.0139	18587.75	17704.95
884.4274	1428.8502	18592.8	17708.35
884.571	1430.6858	18658.5	17777
884.7146	1432.5206	18580.2	17696.1
884.8582	1434.3547	18585.85	17701.6
885.0018	1436.188	18519.55	17634.6
885.1453	1438.0206	18519.35	17637.8
885.2889	1439.8524	18418.7	17536
885.4324	1441.6835	18423.55	17539.7
885.5759	1443.5139	18356.55	17468.65
885.7194	1445.3435	18318.3	17434.4
885.8629	1447.1724	18321.75	17438.05
886.0064	1449.0005	18239.85	17358.05
886.1499	1450.8279	18210.1	17324.25
886.2933	1452.6545	18225.05	17340.85
886.4368	1454.4804	18166.9	17283.85
886.5802	1456.3056	18131.6	17240.35
886.7237	1458.13	18093.45	17211.1
886.8671	1459.9536	18055.95	17168.75
887.0105	1461.7766	18020.75	17138.3
887.1539	1463.5987	17925.1	17039.2
887.2972	1465.4202	17865.8	16985.25
887.4406	1467.2409	17772.35	16887.9
887.584	1469.0608	17768.25	16885.2
887.7273	1470.88	17683.85	16801.15
887.8706	1472.6984	17630.55	16747.75
888.0139	1474.5161	17540.3	16653.55
888.1572	1476.3331	17505.2	16622.4
888.3005	1478.1493	17481.2	16597.85
888.4438	1479.9648	17427.35	16545.3
888.5871	1481.7795	17414.35	16531.6
888.7303	1483.5935	17388.55	16505.2
888.8736	1485.4067	17330.65	16447
889.0168	1487.2192	17336.8	16453
889.16	1489.031	17313.95	16428.5
889.3032	1490.842	17267.8	16384.4
889.4464	1492.6522	17235.8	16353.05
889.5896	1494.4618	17193	16308.3
889.7327	1496.2705	17152.45	16268.7
889.8759	1498.0785	17082.35	16199
890.019	1499.8858	17052.2	16167.55
890.1622	1501.6924	17024.6	16139.9
890.3053	1503.4981	16963.5	16078.85
890.4484	1505.3032	16944.65	16059.4
890.5914	1507.1075	16888.4	16004.1
890.7345	1508.911	16852.1	15969.4
890.8776	1510.7138	16817.25	15931.75
891.0206	1512.5159	16785.85	15903.25
891.1637	1514.3172	16706.15	15823.4
891.3067	1516.1178	16635.85	15755.55
891.4497	1517.9176	16646.6	15760.25
891.5927	1519.7166	16581.6	15697.15
891.7357	1521.515	16523.8	15634.05
891.8786	1523.3126	16465.45	15583.75
892.0216	1525.1094	16437.85	15553
892.1645	1526.9055	16373.2	15489.9
892.3074	1528.7008	16261.3	15377.95
892.4503	1530.4954	16166.3	15281.85
892.5932	1532.2893	16173.95	15291.9
892.7361	1534.0824	16101.95	15215.75
892.879	1535.8747	16051.55	15168.9
893.0218	1537.6663	16003.95	15120.3
893.1647	1539.4572	15924.8	15042
893.3075	1541.2473	15927.05	15042.1
893.4503	1543.0367	15845.25	14963.75
893.5931	1544.8253	15794.45	14905.35
893.7359	1546.6132	15742.3	14857.75
893.8787	1548.4003	15696.25	14802.25
894.0214	1550.1867	15660.5	14769.9
894.1642	1551.9723	15640.45	14753.75
894.3069	1553.7572	15582	14696.65
894.4496	1555.5414	15564.35	14680.5
894.5923	1557.3247	15525.75	14642
894.735	1559.1074	15496.45	14614.25
894.8777	1560.8893	15475.15	14591.8
895.0204	1562.6705	15447.6	14567.3
895.163	1564.4509	15430.3	14548
895.3056	1566.2305	15397.8	14515.9
895.4482	1568.0094	15435.4	14554
895.5908	1569.7876	15366.8	14483.9
895.7334	1571.565	15337.85	14455.65
895.876	1573.3417	15324.9	14443.45
896.0186	1575.1176	15259.55	14377.85
896.1611	1576.8928	15244.75	14359.45
896.3036	1578.6672	15166.4	14284.9
896.4461	1580.4409	15129.65	14248.7
896.5886	1582.2138	15100.95	14214.9
896.7311	1583.986	15110.95	14229.4
896.8736	1585.7575	15120.4	14239.35
897.0161	1587.5282	15094.25	14212
897.1585	1589.2981	15098.3	14217.55
897.3009	1591.0673	15049.9	14168.35
897.4433	1592.8358	15018.8	14137.4
897.5857	1594.6035	14994.85	14109.45
897.7281	1596.3704	14899.4	14015.45
897.8705	1598.1366	14847.95	13968.65
898.0128	1599.9021	14767.55	13885.25
898.1551	1601.6668	14679.05	13795.1
898.2975	1603.4308	14621.65	13738.1
898.4398	1605.194	14582.25	13695.75
898.5821	1606.9564	14565.3	13684.85
898.7243	1608.7182	14533	13647.45
898.8666	1610.4791	14532.25	13649.95
899.0088	1612.2394	14596.75	13717.45
899.1511	1613.9988	14610.35	13726.75
899.2933	1615.7576	14699.25	13817.85
899.4355	1617.5156	14696.35	13809.35
899.5776	1619.2728	14678.65	13797.5
899.7198	1621.0293	14587.2	13707.05
899.862	1622.785	14418.25	13530.95
900.0041	1624.54	14250.55	13366.5
900.1462	1626.2942	14106.1	13222.95
900.2883	1628.0477	13927.5	13043.5
900.4304	1629.8005	13819.15	12932.4
900.5725	1631.5525	13735.9	12854.75
900.7145	1633.3037	13650.45	12768.4
900.8566	1635.0542	13578.85	12697.05
900.9986	1636.804	13498.4	12614.95
901.1406	1638.553	13520.5	12548.6
901.2826	1640.3013	13402.15	12521.55
901.4245	1642.0488	13290.5	12407.6
901.5665	1643.7955	13283.85	12402.85
901.7085	1645.5416	13197.75	12314.15
901.8504	1647.2868	13155.75	12274
901.9923	1649.0313	13105.25	12221.85
902.1342	1650.7751	13078.4	12192.8
902.2761	1652.5181	13039.45	12156.85
902.4179	1654.2604	12967.25	12085.85
902.5598	1656.0019	12931.9	12051
902.7016	1657.7427	12897.8	12015.95
902.8434	1659.4828	12920.75	12039.1
902.9852	1661.222	12888.05	12005.1
903.127	1662.9606	12858.6	11976.4
903.2687	1664.6984	12849.85	11967.2
903.4105	1666.4354	12861.65	11976.9
903.5522	1668.1717	12825.85	11941.8
903.6939	1669.9072	12726.95	11845.05
903.8356	1671.642	12666	11781.3
903.9773	1673.3761	12598.65	11715.9
904.119	1675.1094	12502.05	11618.9
904.2606	1676.8419	12422.7	11541.45
904.4022	1678.5737	12340.4	11458.7
904.5439	1680.3048	12314.6	11432.2
904.6855	1682.0351	12240.45	11358.3
904.827	1683.7646	12193.55	11307.75
904.9686	1685.4934	12152.5	11270.3
905.1101	1687.2215	12096.8	11215.05
905.2517	1688.9488	12030.4	11147.55
905.3932	1690.6754	11975.95	11095.1
905.5347	1692.4012	11957	11075.55
905.6761	1694.1263	11901.95	11020.2
905.8176	1695.8506	11855.35	10971.95
905.9591	1697.5742	11796.25	10915.7
906.1005	1699.297	11782.55	10898.7
906.2419	1701.0191	11693.3	10810.7
906.3833	1702.7404	11644.1	10762.75
906.5246	1704.461	11576.5	10692.2
906.666	1706.1808	11569.2	10687.45
906.8073	1707.8999	11515.95	10634.65
906.9487	1709.6182	11493.75	10613.05
907.09	1711.3358	11472.5	10590.55
907.2313	1713.0527	11436.9	10555.9
907.3725	1714.7688	11377.15	10491.3
907.5138	1716.4841	11346.05	10461.8
907.655	1718.1987	11331.05	10444.25
907.7962	1719.9126	11288.7	10408.65
907.9374	1721.6257	11245.2	10361.5
908.0786	1723.338	11245.3	10362.6
908.2198	1725.0496	11176.05	10292.05
908.3609	1726.7605	11182.2	10298.35
908.502	1728.4706	11130.7	10247.9
908.6431	1730.18	11094.6	10212.1
908.7842	1731.8886	11070.3	10188.8
908.9253	1733.5964	11041.4	10139.05
909.0664	1735.3036	11018.2	10133.95
909.2074	1737.0099	11006	10125.3
909.3484	1738.7156	10980.35	10100
909.4894	1740.4204	10958.35	10074.75
909.6304	1742.1246	10919.4	10036.4
909.7714	1743.8279	10913.55	10032.35
909.9123	1745.5306	10897.75	10014.9
910.0532	1747.2325	10859.8	9977.05
910.1941	1748.9336	10842.8	9961.25
910.335	1750.634	10820.2	9938.6
910.4759	1752.3336	10783.15	9901.3
910.6168	1754.0325	10756.05	9875.15
910.7576	1755.7307	10745.3	9863
910.8984	1757.4281	10749.15	9865.3
911.0392	1759.1247	10746	9853.85
911.18	1760.8206	10708.1	9820.45
911.3208	1762.5158	10703.95	9815.6
911.4615	1764.2102	10641.6	9761.6
911.6022	1765.9039	10598.85	9714.95
911.7429	1767.5968	10598.6	9717.15
911.8836	1769.289	10572.7	9688.6
912.0243	1770.9804	10534.8	9652.85
912.1649	1772.6711	10539.2	9655.1
912.3056	1774.361	10489.4	9606.5
912.4462	1776.0502	10478.1	9596.1
912.5868	1777.7386	10469.5	9583.3
912.7274	1779.4263	10448.45	9565.2
912.8679	1781.1132	10439.15	9556.15
913.0084	1782.7994	10398.45	9516.35
913.149	1784.4849	10380.05	9496.6
913.2895	1786.1696	10355.1	9456
913.4299	1787.8535	10306.4	9424.4
913.5704	1789.5367	10282.25	9401.1
913.7108	1791.2192	10276.2	9395.2
913.8513	1792.9009	10242.8	9343.35
913.9917	1794.5818	10202.7	9318.55
914.132	1796.2621	10181.2	9299.1
914.2724	1797.9415	10149.45	9265.6
914.4128	1799.6202	10121.15	9237.3
914.5531	1801.2982	10104.25	9222.15
914.6934	1802.9755	10064.35	9180.3
914.8337	1804.6519	10070.05	9187.5
914.9739	1806.3277	10030.25	9148.25
915.1142	1808.0027	9963.25	9082.7
915.2544	1809.6769	9982.35	9101.55
915.3946	1811.3504	9941	9058.35
915.5348	1813.0231	9919.45	9036.9
915.675	1814.6951	9909.55	9028.05
915.8151	1816.3664	9907.05	9024.6
915.9553	1818.0369	9872.8	8989.95
916.0954	1819.7067	9857.3	8976.7
916.2355	1821.3757	9845	8958.8
916.3755	1823.044	9819.05	8939.15
916.5156	1824.7115	9771.15	8887.05
916.6556	1826.3783	9739.95	8858.15
916.7956	1828.0443	9721	8840.8
916.9356	1829.7096	9700.5	8817.4
917.0756	1831.3741	9697.45	8812.75
917.2155	1833.0379	9672.6	8790.2
917.3555	1834.701	9646.25	8761.7
917.4954	1836.3633	9632.2	8750.6
917.6353	1838.0248	9612.15	8728.15
917.7751	1839.6856	9590.6	8710.5
917.915	1841.3457	9563.6	8682.2
918.0548	1843.005	9553.8	8672.1
918.1946	1844.6636	9529.15	8647.55
918.3344	1846.3214	9511.55	8628.7
918.4742	1847.9785	9481.75	8601.65
918.6139	1849.6349	9463.75	8579.4
918.7537	1851.2904	9452.05	8559.8
918.8934	1852.9453	9412.6	8529.2
919.0331	1854.5994	9372.35	8488.9
919.1727	1856.2528	9377.85	8492.4
919.3124	1857.9054	9337.8	8454.6
919.452	1859.5572	9356.95	8474.1
919.5916	1861.2083	9322.4	8440.8
919.7312	1862.8587	9331.8	8448.4
919.8708	1864.5084	9297.3	8413.15
920.0103	1866.1572	9253.5	8372.3
920.1498	1867.8054	9222.45	8339.8
920.2893	1869.4528	9206.15	8322.35
920.4288	1871.0994	9165.7	8283.85
920.5683	1872.7453	9179.7	8297.7
920.7077	1874.3905	9143.5	8255.15
920.8471	1876.0349	9124.95	8242.5
920.9865	1877.6786	9122.55	8239.6
921.1259	1879.3215	9115.15	8234.7
921.2653	1880.9637	9086.05	8202.6
921.4046	1882.6051	9077.5	8195.65
921.5439	1884.2458	9037.15	8151.8
921.6832	1885.8858	9023.55	8140.6
921.8225	1887.525	8997.65	8113.15
921.9617	1889.1634	8963.15	8079.9
922.101	1890.8011	8932	8048.3
922.2402	1892.4381	8934.55	8053.9
922.3794	1894.0743	8929.95	8047.6
922.5185	1895.7098	8893.4	8011.6
922.6577	1897.3446	8879.05	7995.3
922.7968	1898.9786	8858.75	7974.15
922.9359	1900.6118	8850.1	7969.35
923.075	1902.2443	8791.8	7906.5
923.214	1903.8761	8786.85	7905
923.3531	1905.5071	8749.4	7864.45
923.4921	1907.1374	8720.25	7837.35
923.6311	1908.7669	8708.15	7825.85
923.77	1910.3957	8690.55	7807.95
923.909	1912.0237	8633.15	7751.45
924.0479	1913.651	8649.55	7767.75
924.1868	1915.2776	8629.85	7750.05
924.3257	1916.9034	8578.1	7698.95
924.4646	1918.5285	8519.7	7638.05
924.6034	1920.1528	8512.9	7630.75
924.7422	1921.7764	8515.45	7633.65
924.881	1923.3992	8464.4	7581.05
925.0198	1925.0213	8411.55	7530
925.1586	1926.6427	8386.6	7504.2
925.2973	1928.2633	8545.65	7460.9
925.436	1929.8832	8401.55	7516.05
925.5747	1931.5023	8325	7442.95
925.7134	1933.1207	8308.05	7426.8
925.852	1934.7383	8295.1	7412.4
925.9906	1936.3552	8273.7	7391.65
926.1292	1937.9714	8244.75	7362.8
926.2678	1939.5868	8222.5	7339.05
926.4064	1941.2015	8183.05	7298.5
926.5449	1942.8154	8147.55	7263.15
926.6834	1944.4286	8121.2	7238.65
926.8219	1946.041	8111.4	7205.25
926.9604	1947.6528	8067.95	7180.9
927.0988	1949.2637	8042.95	7161
927.2372	1950.8739	8024.05	7140.55
927.3756	1952.4834	8016.25	7134.35
927.514	1954.0921	8002.35	7119.75
927.6523	1955.7001	7979.75	7092.8
927.7907	1957.3074	7947.05	7064.5
927.929	1958.9139	7920.55	7039.45
928.0673	1960.5197	7927.55	7046.35
928.2055	1962.1247	7868.4	6987.15
928.3438	1963.729	7833.6	6954.65
928.482	1965.3325	7857.15	6954.4
928.6202	1966.9353	7809.65	6930.65
928.7584	1968.5374	7792.55	6909.35
928.8965	1970.1387	7747.65	6865.4
929.0346	1971.7393	7743.25	6859.65
929.1727	1973.3392	7718.8	6836.25
929.3108	1974.9383	7696.6	6816.1
929.4489	1976.5366	7654.15	6772.1
929.5869	1978.1342	7652.55	6769.2
929.7249	1979.7311	7633.5	6751.6
929.8629	1981.3273	7608.35	6726.85
930.0009	1982.9227	7595.9	6715.05
930.1388	1984.5173	7564.05	6683.25
930.2767	1986.1112	7536.1	6653.6
930.4146	1987.7044	7556.45	6677.35
930.5525	1989.2968	7512.7	6630.75
930.6904	1990.8885	7487.8	6602.5
930.8282	1992.4795	7493.7	6613.15
930.966	1994.0697	7462.65	6581.05
931.1038	1995.6592	7433.65	6552.95
931.2415	1997.2479	7417	6535
931.3793	1998.8359	7417	6535.75
931.517	2000.4232	7362.65	6482.6
931.6547	2002.0097	7377.35	6498.75
931.7923	2003.5955	7315.7	6433.1
931.93	2005.1805	7336.45	6453.75
932.0676	2006.7648	7301.3	6421.55
932.2052	2008.3484	7303.75	6424.1
932.3427	2009.9312	7295	6410.85
932.4803	2011.5133	7274.25	6396.9
932.6178	2013.0946	7257.25	6376
932.7553	2014.6752	7227.35	6347.2
932.8928	2016.2551	7216.55	6334.1
933.0302	2017.8342	7184.8	6304.65
933.1676	2019.4126	7182.85	6303
933.305	2020.9902	7133.9	6255.4
933.4424	2022.5672	7143.7	6262.05
933.5798	2024.1433	7153.55	6267.9
933.7171	2025.7188	7107.6	6230
933.8544	2027.2935	7086.6	6204.55
933.9917	2028.8674	7068.05	6189.35
934.129	2030.4406	7056.2	6176.45
934.2662	2032.0131	7022.1	6143.9
934.4034	2033.5849	6986.65	6098.4
934.5406	2035.1559	6980.15	6099.8
934.6778	2036.7261	7004.9	6125.25
934.8149	2038.2957	6944.65	6062.9
934.952	2039.8645	6934.85	6054.3
935.0891	2041.4325	6963.7	6080.55
935.2262	2042.9998	6920.5	6040.6
935.3632	2044.5664	6922.25	6041.75
935.5002	2046.1323	6890	6009.6
935.6372	2047.6974	6873.35	5992.6
935.7742	2049.2617	6878.25	5998.45
935.9111	2050.8254	6881	5977.1
936.048	2052.3883	6870.35	5989.85
936.1849	2053.9504	6826.75	5945
936.3218	2055.5118	6818.6	5937.55
936.4586	2057.0725	6799.55	5914.7
936.5955	2058.6325	6775.2	5896.05
936.7323	2060.1917	6771.75	5891.5
936.869	2061.7502	6776.15	5896.05
937.0058	2063.3079	6759.05	5878.8
937.1425	2064.8649	6731.2	5848.15
937.2792	2066.4212	6722.1	5840.6
937.4159	2067.9767	6715.95	5837.1
937.5525	2069.5315	6684.7	5804.7
937.6891	2071.0856	6666.35	5785.25
937.8257	2072.6389	6640.95	5759.75
937.9623	2074.1915	6605.6	5724.95
938.0989	2075.7433	6575.55	5693.85
938.2354	2077.2945	6565.25	5685.7
938.3719	2078.8448	6569.95	5689.65
938.5084	2080.3945	6557.4	5674.65
938.6448	2081.9434	6553.8	5674.55
938.7812	2083.4916	6534.4	5652.1
938.9176	2085.039	6522.15	5641.2
939.054	2086.5857	6500.3	5618.4
939.1903	2088.1317	6493.2	5614.9
939.3267	2089.677	6479.45	5598.95
939.463	2091.2215	6459.5	5579.75
939.5992	2092.7652	6454.9	5571.15
939.7355	2094.3083	6427	5547
939.8717	2095.8506	6430.55	5550.85
940.0079	2097.3921	6426.45	5545.3
940.1441	2098.933	6402.7	5521.35
940.2802	2100.4731	6388.05	5509.8
940.4163	2102.0124	6408.2	5509.75
940.5524	2103.5511	6374.45	5495.8
940.6885	2105.089	6376.4	5494.6
940.8245	2106.6261	6371.45	5491.3
940.9606	2108.1626	6338.05	5456.15
941.0965	2109.6983	6362.85	5454.8
941.2325	2111.2332	6326.2	5443.95
941.3684	2112.7675	6315.3	5433.4
941.5044	2114.301	6309.5	5427.8
941.6403	2115.8337	6292.75	5410.5
941.7761	2117.3657	6264.15	5384.3
941.912	2118.897	6255.9	5373.25
942.0478	2120.4276	6257.75	5371.9
942.1835	2121.9575	6244.75	5364.3
942.3193	2123.4866	6235.45	5352.3
942.455	2125.0149	6226.95	5345.35
942.5907	2126.5426	6207.85	5326.35
942.7264	2128.0695	6184.5	5297.75
942.8621	2129.5956	6172.85	5295
942.9977	2131.1211	6164.85	5279.75
943.1333	2132.6458	6150.95	5270.8
943.2689	2134.1698	6161.15	5281.4
943.4044	2135.693	6122.35	5240.05
943.54	2137.2155	6113.4	5232.15
943.6755	2138.7373	6101.8	5221.35
943.8109	2140.2584	6080.4	5199.25
943.9464	2141.7787	6065.1	5177.55
944.0818	2143.2983	6033.15	5154.5
944.2172	2144.8171	6009.55	5129.95
944.3526	2146.3353	6014.55	5132.8
944.4879	2147.8527	6012.7	5133.3
944.6232	2149.3693	5977.3	5096.5
944.7585	2150.8853	5971.75	5088.65
944.8938	2152.4005	5959.95	5077.35
945.029	2153.9149	5940.2	5057.75
945.1642	2155.4287	5932.9	5053.1
945.2994	2156.9417	5943.45	5060.75
945.4346	2158.454	5927.8	5044.45
945.5697	2159.9655	5892.55	5013.8
945.7048	2161.4764	5880.7	5001.7
945.8399	2162.9865	5853.75	4972.2
945.9749	2164.4958	5858.15	4977.15
946.1099	2166.0045	5839.9	4955.8
946.2449	2167.5124	5836.85	4957.45
946.3799	2169.0195	5812.4	4932.75
946.5148	2170.526	5811.15	4930.05
946.6498	2172.0317	5799.9	4917.75
946.7846	2173.5367	5789.55	4908.35
946.9195	2175.0409	5764.15	4884.8
947.0543	2176.5445	5764	4884.2
947.1891	2178.0473	5741.85	4861.25
947.3239	2179.5494	5719.65	4834.25
947.4587	2181.0507	5696.3	4816.65
947.5934	2182.5513	5690.25	4811.8
947.7281	2184.0512	5673.65	4793.75
947.8628	2185.5504	5655	4771.5
947.9974	2187.0488	5629.5	4748.6
948.132	2188.5465	5628.6	4747.9
948.2666	2190.0435	5592.45	4712.6
948.4012	2191.5397	5593.6	4713.2
948.5357	2193.0353	5584.1	4702.7
948.6702	2194.5301	5576.8	4691.95
948.8047	2196.0241	5528.45	4648
948.9392	2197.5175	5537.65	4658.05
949.0736	2199.0101	5525.2	4640.05
949.208	2200.502	5490.1	4611.75
949.3424	2201.9931	5480.35	4599.85
949.4767	2203.4835	5452.15	4572.7
949.611	2204.9733	5466.2	4580
949.7453	2206.4622	5453.65	4574.2
949.8796	2207.9505	5417.35	4533.75
950.0138	2209.438	5377.2	4498.3
950.148	2210.9248	5389.7	4506.25
950.2822	2212.4109	5374.8	4494
950.4164	2213.8962	5349.1	4466.7
950.5505	2215.3809	5349.55	4466.85
950.6846	2216.8648	5334.75	4454
950.8186	2218.3479	5323	4437.6
950.9527	2219.8304	5296.3	4411.85
951.0867	2221.3121	5284.1	4403.45
951.2207	2222.7931	5277.9	4398.35
951.3546	2224.2733	5246	4363.2
951.4886	2225.7529	5223.35	4342.35
951.6225	2227.2317	5227.2	4343.4
951.7563	2228.7098	5209	4330.5
951.8902	2230.1872	5196.85	4318.25
952.024	2231.6638	5163.7	4283.5
952.1578	2233.1397	5178.85	4291.8
952.2916	2234.6149	5164.7	4285.05
952.4253	2236.0894	5151.95	4272.25
952.559	2237.5632	5134.05	4250.75
952.6927	2239.0362	5121.65	4240.4
952.8263	2240.5085	5091	4209.8
952.9599	2241.9801	5081.25	4199.4
953.0935	2243.4509	5061.85	4181.95
953.2271	2244.921	5064.75	4182.6
953.3606	2246.3904	5038.05	4155.1
953.4941	2247.8591	5035.45	4155.1
953.6276	2249.3271	5008.5	4128.65
953.7611	2250.7943	4999.6	4117.75
953.8945	2252.2608	4979.85	4099.15
954.0279	2253.7266	4971.6	4090.65
954.1612	2255.1917	4961.05	4080.15
954.2946	2256.656	4956.15	4073.15
954.4279	2258.1197	4946	4066.3
954.5612	2259.5826	4910.7	4029
954.6944	2261.0447	4911.7	4028.2
954.8276	2262.5062	4899.4	4017.25
954.9608	2263.9669	4899	4015
955.094	2265.4269	4873.5	3993.9
955.2271	2266.8862	4859.25	3978.95
955.3602	2268.3448	4851.25	3968.95
955.4933	2269.8026	4851.7	3971.55
955.6264	2271.2598	4833.35	3952.05
955.7594	2272.7162	4816.55	3936.75
955.8924	2274.1719	4816	3934.65
956.0253	2275.6268	4793.85	3913.75
956.1583	2277.0811	4791.65	3909.95
956.2912	2278.5346	4779.5	3901.25
956.4241	2279.9874	4772.95	3891.4
956.5569	2281.4395	4765.95	3886.95
956.6897	2282.8908	4746.4	3860.75
956.8225	2284.3414	4736.05	3852.7
956.9553	2285.7914	4730.8	3850.75
957.088	2287.2406	4697.45	3815.1
957.2207	2288.689	4700.7	3820.25
957.3534	2290.1368	4692.25	3810.7
957.486	2291.5838	4668.75	3786.85
957.6186	2293.0302	4665.3	3785.15
957.7512	2294.4758	4639.3	3758.9
957.8838	2295.9206	4636.85	3754.3
958.0163	2297.3648	4608.55	3728.35
958.1488	2298.8082	4618.95	3735.35
958.2813	2300.251	4594.25	3715.1
958.4137	2301.693	4586.4	3703.45
958.5461	2303.1343	4600.75	3720.2
958.6785	2304.5748	4560.4	3678.75
958.8108	2306.0147	4549.75	3667.95
958.9432	2307.4538	4541.6	3659.45
959.0754	2308.8922	4530.15	3650.45
959.2077	2310.3299	4520.95	3641.1
959.3399	2311.7669	4510.2	3629.5
959.4721	2313.2031	4478.1	3597.6
959.6043	2314.6387	4483.8	3603.3
959.7365	2316.0735	4464.35	3583.7
959.8686	2317.5076	4470.7	3588.65
960.0006	2318.941	4456.3	3574.9
960.1327	2320.3737	4446.6	3563.35
960.2647	2321.8056	4428.35	3545.75
960.3967	2323.2369	4420.35	3538
960.5287	2324.6674	4418	3535.45
960.6606	2326.0972	4414.75	3533.7
960.7925	2327.5263	4406.35	3526.1
960.9244	2328.9547	4390.65	3508.6
961.0562	2330.3823	4352.05	3471.1
961.1881	2331.8092	4369.6	3486.15
961.3198	2333.2355	4328.15	3445.95
961.4516	2334.661	4324.25	3443.5
961.5833	2336.0858	4316.9	3434.8
961.715	2337.5098	4325.35	3444.7
961.8467	2338.9332	4303.05	3421.2
961.9783	2340.3558	4289.65	3405.6
962.1099	2341.7778	4282.5	3401.75
962.2415	2343.199	4262.65	3380.75
962.373	2344.6195	4261	3378.85
962.5045	2346.0393	4233.1	3353.4
962.636	2347.4583	4226.1	3342.7
962.7675	2348.8767	4215.65	3333.95
962.8989	2350.2943	4218.8	3335.9
963.0303	2351.7113	4191.25	3307.75
963.1617	2353.1275	4185.95	3304.15
963.293	2354.543	4186.25	3296.95
963.4243	2355.9578	4179.8	3297.95
963.5556	2357.3718	4158.1	3275.55
963.6868	2358.7852	4133.1	3248.6
963.818	2360.1978	4130.55	3247.6
963.9492	2361.6098	4118.8	3237.7
964.0803	2363.021	4095.5	3209
964.2114	2364.4315	4095.85	3212.7
964.3425	2365.8413	4082.55	3195.25
964.4736	2367.2504	4063.6	3182.4
964.6046	2368.6587	4047.1	3166.5
964.7356	2370.0664	4049.85	3168.75
964.8666	2371.4733	4038.4	3156.45
964.9975	2372.8795	4025.2	3143.1
965.1284	2374.285	4014.1	3131.6
965.2593	2375.6899	3997.5	3117.1
965.3901	2377.0939	3976.1	3096.6
965.5209	2378.4973	3960.05	3080.25
965.6517	2379.9	3943.8	3063.15
965.7825	2381.3019	3935.1	3053.05
965.9132	2382.7032	3933.3	3051.1
966.0439	2384.1037	3928.9	3049.2
966.1745	2385.5035	3908.3	3027.8
966.3051	2386.9027	3897.5	3017.65
966.4357	2388.3011	3900.25	3017.1
966.5663	2389.6987	3885.4	3004.05
966.6968	2391.0957	3879.9	2998.2
966.8273	2392.492	3859.4	2977.45
966.9578	2393.8876	3853.95	2974.1
967.0882	2395.2824	3839.95	2959.6
967.2186	2396.6765	3827.6	2947.8
967.349	2398.07	3788.35	2907.4
967.4793	2399.4627	3795.65	2913.6
967.6097	2400.8547	3779.6	2897.2
967.7399	2402.246	3776.15	2888.4
967.8702	2403.6366	3760.5	2879.1
968.0004	2405.0265	3745.85	2862.8
968.1306	2406.4156	3743.15	2857.5
968.2607	2407.8041	3733.7	2849.45
968.3909	2409.1918	3696.7	2812.9
968.521	2410.5789	3691.3	2809.25
968.651	2411.9652	3677.35	2790.65
968.781	2413.3508	3684.1	2801.05
968.911	2414.7358	3656	2773.6
969.041	2416.12	3662.15	2781
969.1709	2417.5035	3648.1	2767.35
969.3008	2418.8863	3626.15	2744.25
969.4307	2420.2684	3643.5	2761.25
969.5606	2421.6497	3616.05	2734.9
969.6904	2423.0304	3586.1	2703.55
969.8201	2424.4104	3580.75	2699.15
969.9499	2425.7896	3577.75	2691.45
970.0796	2427.1682	3573.75	2692.4
970.2093	2428.546	3555.2	2671.65
970.3389	2429.9232	3538.95	2654.8
970.4685	2431.2996	3541.45	2660.3
970.5981	2432.6753	3530.85	2650.05
970.7277	2434.0503	3521.65	2638
970.8572	2435.4246	3510.85	2631.05
970.9867	2436.7982	3503.75	2619.15
971.1161	2438.1711	3477.65	2598
971.2456	2439.5433	3484.6	2599.4
971.375	2440.9148	3481.2	2592.2
971.5043	2442.2856	3466.15	2584
971.6336	2443.6557	3473	2589.35
971.7629	2445.025	3445.8	2565
971.8922	2446.3937	3433.1	2547.35
972.0214	2447.7617	3436.75	2555
972.1506	2449.1289	3412.8	2533.2
972.2798	2450.4955	3415.05	2529.7
972.4089	2451.8613	3400.5	2519.5
972.538	2453.2265	3390.15	2506.9
972.6671	2454.5909	3394.8	2513
972.7961	2455.9546	3380.7	2500.9
972.9251	2457.3177	3355.3	2473.2
973.0541	2458.68	3362.85	2481
973.1831	2460.0416	3358.2	2477.15
973.312	2461.4025	3352.7	2470.15
973.4408	2462.7627	3355.45	2462.4
973.5697	2464.1222	3336.45	2456.45
973.6985	2465.4811	3321	2437.75
973.8273	2466.8392	3296.6	2415.85
973.956	2468.1966	3314.3	2428.5
974.0847	2469.5533	3308	2425.7
974.2134	2470.9093	3301.3	2418.2
974.3421	2472.2645	3291.85	2408.25
974.4707	2473.6191	3283.65	2404.05
974.5993	2474.973	3277.35	2394.85
974.7278	2476.3262	3259.4	2376.3
974.8563	2477.6787	3249.75	2370
974.9848	2479.0305	3231.6	2350.4
975.1132	2480.3816	3231.1	2349.1
975.2417	2481.7319	3220.5	2339.25
975.37	2483.0816	3207.05	2323.75
975.4984	2484.4306	3197.85	2316.05
975.6267	2485.7789	3196.45	2316.2
975.755	2487.1264	3180.1	2297.85
975.8833	2488.4733	3165.35	2283.95
976.0115	2489.8195	3172.4	2282.65
976.1397	2491.165	3154.25	2270.5
976.2678	2492.5097	3145.6	2263.75
976.3959	2493.8538	3133.3	2252.85
976.524	2495.1972	3119.55	2237.9
976.6521	2496.5398	3119.05	2237.15
976.7801	2497.8818	3109.35	2225.5
976.9081	2499.2231	3107.5	2225.6
977.036	2500.5637	3093.8	2212.35
977.164	2501.9035	3074.25	2192.45
977.2918	2503.2427	3080.9	2196.5
977.4197	2504.5812	3066.35	2184
977.5475	2505.919	3058.7	2176.8
977.6753	2507.256	3055.45	2172.5
977.8031	2508.5924	3044.75	2165.3
977.9308	2509.9281	3050.55	2164.45
978.0585	2511.2631	3031.55	2150.25
978.1861	2512.5974	3022.3	2142
978.3137	2513.9309	3008.75	2128.75
978.4413	2515.2638	3040.15	2129.35
978.5689	2516.596	3009.05	2127.15
978.6964	2517.9275	2980.6	2098.05
978.8239	2519.2583	2977	2092.8
978.9513	2520.5884	2976.8	2093.35
979.0788	2521.9178	2964.1	2081.9
979.2062	2523.2465	2957.05	2076.55
979.3335	2524.5745	2941.9	2060.55
979.4608	2525.9018	2938.3	2057.05
979.5881	2527.2284	2926.85	2047.4
979.7154	2528.5543	2929	2047.85
979.8426	2529.8796	2913.25	2031.6
979.9698	2531.2041	2909.8	2028.35
980.0969	2532.5279	2900.35	2020.85
980.224	2533.851	2901.4	2018.8
980.3511	2535.1735	2892.05	2011.5
980.4781	2536.4952	2885.35	2004.5
980.6052	2537.8163	2879	1996
980.7321	2539.1366	2872.2	1991
980.8591	2540.4562	2876.35	1994.25
980.986	2541.7752	2859.2	1978.65
981.1129	2543.0935	2849.5	1968.2
981.2397	2544.411	2853.5	1971.7
981.3665	2545.7279	2853.35	1970.6
981.4933	2547.0441	2841.25	1960.3
981.62	2548.3596	2842.85	1958.35
981.7467	2549.6744	2834.65	1951.4
981.8734	2550.9885	2832.8	1943.95
982.0001	2552.3019	2817.1	1936.9
982.1267	2553.6146	2803.7	1921.6
982.2532	2554.9266	2802.3	1920.6
982.3798	2556.2379	2789.4	1908.25
982.5063	2557.5485	2779.95	1899.4
982.6327	2558.8585	2794.55	1906.15
982.7592	2560.1677	2778.35	1892.75
982.8856	2561.4762	2780.85	1899.1
983.0119	2562.7841	2785.15	1900.25
983.1383	2564.0913	2776.75	1896.45
983.2646	2565.3977	2753.85	1872.05
983.3908	2566.7035	2761.1	1880.45
983.517	2568.0086	2753.9	1869.55
983.6432	2569.313	2760.1	1877.45
983.7694	2570.6167	2751.75	1866.55
983.8955	2571.9197	2737.5	1857
984.0216	2573.222	2733.45	1849.8
984.1476	2574.5236	2735.95	1854.4
984.2737	2575.8246	2726.9	1842.7
984.3996	2577.1248	2719.1	1834.55
984.5256	2578.4244	2711	1831.2
984.6515	2579.7232	2712.9	1831.3
984.7774	2581.0214	2732.8	1826.55
984.9032	2582.3189	2704.9	1825.55
985.029	2583.6157	2702.6	1816.9
985.1548	2584.9118	2692.15	1810.9
985.2806	2586.2072	2678.95	1796.95
985.4063	2587.5019	2670.9	1790.3
985.5319	2588.7959	2673.1	1792.1
985.6576	2590.0893	2664.2	1782.1
985.7832	2591.3819	2651.55	1772.1
985.9087	2592.6739	2633.85	1752.55
986.0343	2593.9652	2652.8	1767.6
986.1597	2595.2557	2631.3	1749.15
986.2852	2596.5456	2634.3	1749.9
986.4106	2597.8348	2614.55	1733.05
986.536	2599.1234	2603.05	1722.35
986.6614	2600.4112	2603.55	1723
986.7867	2601.6983	2599.4	1715.2
986.912	2602.9848	2599.35	1717.9
987.0372	2604.2705	2599.75	1711.7
987.1624	2605.5556	2583.2	1701.75
987.2876	2606.84	2567.45	1688.65
987.4128	2608.1237	2559	1675.05
987.5379	2609.4067	2551.35	1669.85
987.6629	2610.689	2551.5	1660.7
987.788	2611.9707	2536.05	1650.35
987.913	2613.2516	2540.3	1654.5
988.0379	2614.5319	2512.45	1632.2
988.1629	2615.8115	2528	1644.4
988.2878	2617.0903	2510.25	1628.1
988.4126	2618.3685	2500.45	1619.55
988.5375	2619.6461	2491.85	1610.65
988.6622	2620.9229	2486.2	1604.75
988.787	2622.199	2494.8	1612.85
988.9117	2623.4745	2478.05	1596.15
989.0364	2624.7493	2472.8	1591.75
989.161	2626.0234	2467.8	1588.05
989.2857	2627.2968	2461.7	1579.2
989.4102	2628.5695	2451.25	1569.4
989.5348	2629.8415	2445.75	1564.4
989.6593	2631.1128	2423.55	1539.7
989.7837	2632.3835	2421.95	1540.65
989.9082	2633.6535	2421.9	1538.7
990.0326	2634.9228	2407.1	1526.25
990.1569	2636.1914	2409.1	1527.7
990.2812	2637.4593	2417.15	1528.65
990.4055	2638.7265	2398.75	1516.95
990.5298	2639.9931	2399.35	1517.8
990.654	2641.259	2383.45	1500.4
990.7782	2642.5242	2363.45	1481.8
990.9023	2643.7887	2373.1	1492.2
991.0264	2645.0525	2373.9	1492.7
991.1505	2646.3156	2358.3	1475.9
991.2745	2647.5781	2354.9	1475.7
991.3985	2648.8398	2342.9	1462.05
991.5225	2650.1009	2347.65	1456.9
991.6464	2651.3613	2339	1457.75
991.7703	2652.6211	2333.1	1450.65
991.8942	2653.8801	2325.7	1444.65
992.018	2655.1385	2320.6	1435.2
992.1418	2656.3961	2322.3	1440.4
992.2655	2657.6531	2328.3	1447.35
992.3892	2658.9094	2304.2	1420.35
992.5129	2660.1651	2306.5	1427.45
992.6366	2661.42	2295.9	1415.8
992.7602	2662.6743	2299.3	1418.2
992.8837	2663.9279	2282.85	1402.15
993.0073	2665.1808	2281.55	1399.1
993.1307	2666.433	2276.7	1393.6
993.2542	2667.6846	2279.15	1397.55
993.3776	2668.9354	2274.95	1388.5
993.501	2670.1856	2265.35	1382.3
993.6244	2671.4351	2266.35	1386.7
993.7477	2672.6839	2263.4	1379
993.8709	2673.9321	2240.25	1360.45
993.9942	2675.1795	2253.5	1371.25
994.1174	2676.4263	2236.05	1356.15
994.2405	2677.6724	2238.35	1358
994.3637	2678.9179	2238.15	1357.05
994.4868	2680.1626	2225.4	1345.85
994.6098	2681.4067	2225.75	1343.95
994.7328	2682.6501	2208.5	1327.95
994.8558	2683.8928	2212.35	1330.3
994.9788	2685.1348	2205.2	1326.15
995.1017	2686.3761	2200.5	1320.4
995.2245	2687.6168	2206.5	1324.95
995.3474	2688.8568	2190.85	1309.45
995.4702	2690.0961	2186.9	1308.25
995.5929	2691.3348	2177.3	1296.55
995.7156	2692.5727	2177.95	1298.05
995.8383	2693.81	2165.5	1282.4
995.961	2695.0466	2162.7	1282.75
996.0836	2696.2826	2154.4	1270.7
996.2062	2697.5178	2156.8	1271.85
996.3287	2698.7524	2146.8	1267.05
996.4512	2699.9863	2148.95	1266.1
996.5737	2701.2195	2143.9	1263.8
996.6961	2702.452	2137.2	1254.95
996.8185	2703.6839	2133.65	1249.5
996.9408	2704.9151	2124.55	1245.55
997.0631	2706.1456	2125	1245.15
997.1854	2707.3755	2114.45	1234.1
997.3077	2708.6046	2110.15	1224.7
997.4299	2709.8331	2110.35	1230.2
997.552	2711.0609	2104.6	1223.25
997.6742	2712.2881	2092.85	1212.95
997.7963	2713.5145	2097.45	1213.25
997.9183	2714.7403	2094.35	1214.35
998.0403	2715.9654	2089.75	1206.35
998.1623	2717.1899	2085.75	1190.15
998.2842	2718.4136	2075.45	1193.65
998.4062	2719.6367	2079.95	1196.65
998.528	2720.8591	2077	1189.65
998.6498	2722.0809	2049.55	1168.75
998.7716	2723.3019	2057.5	1174.75
998.8934	2724.5223	2048.15	1164.55
999.0151	2725.7421	2035.75	1151.75
999.1368	2726.9611	2041.75	1158
999.2584	2728.1795	2041.45	1155.5
999.38	2729.3972	2023.45	1143.45
999.5016	2730.6142	2031.4	1137.25
999.6231	2731.8306	2018.2	1136.7
999.7446	2733.0462	2006.9	1125.85
999.8661	2734.2612	2012.95	1127.3
999.9875	2735.4756	1996.5	1115
1000.1089	2736.6892	1990.35	1107.15
1000.2302	2737.9022	1981.95	1102.3
1000.3515	2739.1145	1980.1	1098.55
1000.4728	2740.3262	1986.05	1095.9
1000.594	2741.5372	1972.25	1093.35
1000.7152	2742.7475	1962.6	1082.45
1000.8363	2743.9571	1962.4	1079.4
1000.9575	2745.1661	1958.8	1072.45
1001.0785	2746.3744	1946.5	1064.7
1001.1996	2747.582	1955	1075.2
1001.3206	2748.7889	1944.5	1061.65
1001.4415	2749.9952	1933.6	1054.15
1001.5625	2751.2008	1939.8	1058.9
1001.6833	2752.4057	1933.45	1050.5
1001.8042	2753.61	1927.9	1047.15
1001.925	2754.8136	1934.25	1052.8
1002.0458	2756.0165	1914.3	1034.1
1002.1665	2757.2188	1912.3	1032.15
1002.2872	2758.4204	1904.5	1024.1
1002.4078	2759.6213	1899.35	1015.35
1002.5285	2760.8215	1912.35	1025.65
1002.649	2762.0211	1895.3	1014.95
1002.7696	2763.22	1894.4	1009.9
1002.8901	2764.4182	1892.6	1010.3
1003.0106	2765.6158	1884.4	1003.3
1003.131	2766.8127	1884.3	1002.35
1003.2514	2768.009	1872.05	990.3
1003.3717	2769.2045	1873.25	992.8
1003.492	2770.3994	1872.65	990.6
1003.6123	2771.5936	1866.3	985
1003.7325	2772.7872	1853.8	974.3
1003.8527	2773.9801	1856.2	971.35
1003.9729	2775.1723	1861.6	964.05
1004.093	2776.3639	1848.7	968.2
1004.2131	2777.5548	1838.65	956.7
1004.3331	2778.745	1838.35	955.2
1004.4531	2779.9346	1834.1	952.9
1004.5731	2781.1235	1833.15	951.4
1004.693	2782.3117	1824.45	942.25
1004.8129	2783.4992	1823.85	943.5
1004.9328	2784.6861	1817.4	937.4
1005.0526	2785.8723	1813.85	931.15
1005.1723	2787.0579	1810.6	930.6
1005.2921	2788.2428	1798.25	918.05
1005.4118	2789.427	1795.2	915.5
1005.5314	2790.6106	1790.25	909.55
1005.651	2791.7935	1793.85	911.85
1005.7706	2792.9757	1785.15	905.45
1005.8902	2794.1573	1781.6	898.05
1006.0097	2795.3382	1784.9	903.5
1006.1291	2796.5184	1779.3	898.7
1006.2485	2797.698	1773.4	891
1006.3679	2798.8769	1763.35	880.6
1006.4873	2800.0551	1756.7	874.75
1006.6066	2801.2327	1760.85	876.35
1006.7258	2802.4096	1754.3	874.4
1006.8451	2803.5859	1743.15	861.25
1006.9642	2804.7615	1739.55	859.35
1007.0834	2805.9364	1745.5	865.7
1007.2025	2807.1106	1737.8	857.95
1007.3216	2808.2842	1736.2	855.45
1007.4406	2809.4572	1734.1	853.1
1007.5596	2810.6294	1741	859.55
1007.6785	2811.801	1733	853
1007.7975	2812.972	1726.9	845.85
1007.9163	2814.1423	1732.25	849.45
1008.0352	2815.3119	1724.4	843.1
1008.154	2816.4808	1725.1	847.7
1008.2727	2817.6491	1735.8	850.15
1008.3914	2818.8167	1726.15	846.9
1008.5101	2819.9837	1730.65	843.4
1008.6288	2821.15	1730.4	849.9
1008.7474	2822.3157	1736.2	855.65
1008.8659	2823.4807	1735.95	856
1008.9844	2824.645	1750.65	870.5
1009.1029	2825.8086	1746.4	866.25
1009.2214	2826.9716	1752.05	872.35
1009.3398	2828.134	1758.7	878.6
1009.4581	2829.2957	1769.55	889.85
1009.5764	2830.4567	1759.55	879.45
1009.6947	2831.617	1766.8	885.55
1009.813	2832.7767	1762.6	882.15
1009.9312	2833.9358	1760.6	881.55
1010.0493	2835.0941	1767.95	886.4
1010.1675	2836.2519	1757.35	877.05
1010.2855	2837.4089	1753.3	870.85
1010.4036	2838.5653	1734.3	853.55
1010.5216	2839.7211	1734.7	854.9
1010.6396	2840.8761	1730	845.4
1010.7575	2842.0306	1726.6	846.65
1010.8754	2843.1843	1725.1	846.8
1010.9932	2844.3374	1720.4	840.2
1011.111	2845.4899	1732.6	850.45
1011.2288	2846.6417	1727.95	847.8
1011.3465	2847.7928	1724.65	845.05
1011.4642	2848.9433	1719.1	838.95
1011.5818	2850.0931	1715.15	833.4
1011.6995	2851.2422	1714.3	832.8
1011.817	2852.3907	1723.1	843.35
1011.9345	2853.5385	1721.45	839.2
1012.052	2854.6857	1715.45	827.3
1012.1695	2855.8323	1722.6	843.65
1012.2869	2856.9781	1711	830.1
1012.4042	2858.1233	1716.05	835.35
1012.5216	2859.2679	1707.4	826.45
1012.6389	2860.4118	1713.65	832.2
1012.7561	2861.555	1724.2	840.85
1012.8733	2862.6976	1714.9	832.55
1012.9905	2863.8395	1726.25	845.55
1013.1076	2864.9808	1710.35	830.55
1013.2247	2866.1214	1712.5	833.2
1013.3417	2867.2614	1706.3	826.8
1013.4587	2868.4007	1708	826.45
1013.5757	2869.5393	1707.5	824.5
1013.6926	2870.6773	1712	827.7
1013.8095	2871.8146	1709.4	826.1
1013.9263	2872.9513	1709.55	825.7
1014.0431	2874.0874	1700.7	819.85
1014.1599	2875.2227	1697.8	817.55
1014.2766	2876.3574	1699.9	820.1
1014.3933	2877.4915	1694.05	811.8
1014.51	2878.6249	1697.15	817.75
1014.6266	2879.7577	1700.9	817.4
1014.7431	2880.8898	1697.55	806.8
1014.8596	2882.0212	1692.45	813.75
1014.9761	2883.152	1692.65	812.75
1015.0925	2884.2821	1680.3	800.55
1015.2089	2885.4116	1689.85	809.3
1015.3253	2886.5405	1681.8	801.8
1015.4416	2887.6686	1696.4	811.25
1015.5579	2888.7962	1681.3	803.4
1015.6741	2889.923	1676.2	796.1
1015.7903	2891.0493	1680.9	801.05
1015.9065	2892.1748	1669.6	787.75
1016.0226	2893.2997	1670.45	788.2
1016.1387	2894.424	1666.9	788.2
1016.2547	2895.5476	1668.6	787.45
1016.3707	2896.6706	1658.9	778.45
1016.4866	2897.7929	1664.2	783.2
1016.6025	2898.9145	1657.75	777.65
1016.7184	2900.0355	1649.25	767.2
1016.8342	2901.1559	1657	775.9
1016.95	2902.2756	1644.85	765.05
1017.0658	2903.3946	1640.15	759.15
1017.1815	2904.513	1638.35	755.05
1017.2971	2905.6308	1643.4	763.3
1017.4127	2906.7479	1635.65	753.45
1017.5283	2907.8643	1631.4	750.35
1017.6439	2908.9801	1624.8	743.6
1017.7594	2910.0953	1628.15	749.4
1017.8748	2911.2098	1631.65	748.1
1017.9902	2912.3236	1626.35	738.35
1018.1056	2913.4368	1624.55	742.8
1018.2209	2914.5494	1624.9	744.4
1018.3362	2915.6613	1619.5	732.65
1018.4515	2916.7725	1605.5	723.3
1018.5667	2917.8831	1605.4	723.55
1018.6819	2918.9931	1594.1	708.9
1018.797	2920.1024	1590.1	707.35
1018.9121	2921.211	1587.1	707.45
1019.0271	2922.319	1586.15	705.25
1019.1421	2923.4264	1579.85	700.4
1019.2571	2924.5331	1570.1	689.65
1019.372	2925.6391	1582.9	703.85
1019.4869	2926.7445	1570.45	690.1
1019.6017	2927.8493	1560.55	678.2
1019.7165	2928.9534	1568.7	687.4
1019.8313	2930.0569	1576.85	692
1019.946	2931.1597	1570.35	687.25
1020.0606	2932.2619	1564.85	684.1
1020.1753	2933.3634	1560.25	680.75
1020.2899	2934.4643	1575.1	688.1
1020.4044	2935.5645	1565.4	677.25
1020.5189	2936.6641	1573.95	689.95
1020.6334	2937.763	1557.3	678.6
1020.7478	2938.8613	1564.35	684.2
1020.8622	2939.959	1565.05	679.05
1020.9765	2941.056	1548.15	669.5
1021.0908	2942.1523	1545.4	663.2
1021.2051	2943.248	1533.8	651.4
1021.3193	2944.3431	1514.2	634.25
1021.4334	2945.4375	1515.2	634.3
1021.5476	2946.5313	1497.5	616.8
1021.6617	2947.6244	1493.75	613.65
1021.7757	2948.7169	1491.2	609.3
1021.8897	2949.8087	1472.7	592.7
1022.0037	2950.8999	1466.1	585.35
1022.1176	2951.9904	1458.95	579.9
1022.2315	2953.0803	1458.85	575.85
1022.3453	2954.1696	1438.85	559.15
1022.4591	2955.2582	1436.6	554.95
1022.5728	2956.3462	1438.5	557.7
1022.6865	2957.4335	1426.25	545.25
1022.8002	2958.5202	1425.95	544
1022.9138	2959.6062	1419.8	539.55
1023.0274	2960.6916	1422	542.25
1023.141	2961.7764	1414.7	532.6
1023.2545	2962.8605	1411.25	529.9
1023.3679	2963.9439	1412.05	531.8
1023.4813	2965.0267	1411.4	529.6
1023.5947	2966.1089	1429.1	523.5
1023.708	2967.1905	1405.9	526.05
1023.8213	2968.2714	1401.3	521.7
1023.9346	2969.3516	1402.1	522.95
1024.0478	2970.4312	1408.9	520.5
1024.1609	2971.5102	1393.35	514.85
1024.274	2972.5885	1390.6	508.95
1024.3871	2973.6662	1398.6	511.85
1024.5002	2974.7432	1389.5	508.65
1024.6132	2975.8196	1389.95	510
1024.7261	2976.8954	1382.7	503.35
1024.839	2977.9705	1380.2	498.5
1024.9519	2979.045	1383.55	504.3
1025.0647	2980.1188	1379	499
1025.1775	2981.192	1373.6	495.2
1025.2902	2982.2645	1374.65	492.4
1025.4029	2983.3364	1372.2	491.15
1025.5156	2984.4077	1361.65	483.45
1025.6282	2985.4783	1369.5	484.5
1025.7407	2986.5483	1360.1	480.55
1025.8532	2987.6177	1351.6	471
1025.9657	2988.6864	1346.3	465.75
1026.0782	2989.7545	1346.3	464.85
1026.1906	2990.8219	1337.95	457.45
1026.3029	2991.8887	1335.4	453.4
1026.4152	2992.9548	1334.25	453.35
1026.5275	2994.0204	1331.05	450.75
1026.6397	2995.0852	1325.25	446.7
1026.7519	2996.1495	1321.7	439.95
1026.864	2997.2131	1320.55	441.55
1026.9761	2998.276	1308.4	427.2
1027.0882	2999.3383	1309.85	428.3
1027.2002	3000.4	1305.6	424.25
1027.3122	3001.4611	1304	422.75
1027.4241	3002.5215	1299.85	419.55
1027.536	3003.5812	1299.5	420.05
1027.6478	3004.6404	1294.3	413.65
1027.7596	3005.6989	1293.7	413.25
1027.8714	3006.7567	1290.05	410
1027.9831	3007.8139	1308.3	404.95
1028.0947	3008.8705	1281.55	402.35
1028.2064	3009.9264	1286.55	403.05
1028.3179	3010.9818	1276.4	396.95
1028.4295	3012.0364	1275.75	395.4
1028.541	3013.0905	1276.9	396.05
1028.6524	3014.1439	1266.9	387.6
1028.7638	3015.1966	1265.45	386.65
1028.8752	3016.2487	1272.25	392.4
1028.9865	3017.3002	1276.7	389
1029.0978	3018.3511	1269.15	391.35
1029.209	3019.4013	1266.6	388.5
1029.3202	3020.4509	1262.6	384.15
1029.4314	3021.4998	1258.7	377.3
1029.5425	3022.5481	1256.35	376.6
1029.6535	3023.5958	1257.35	376.55
1029.7645	3024.6428	1252.55	371.75
1029.8755	3025.6892	1257.65	378.25
1029.9864	3026.735	1250.35	370.1
1030.0973	3027.7802	1246.55	366.55
1030.2082	3028.8247	1244.9	364.9
1030.319	3029.8685	1244.65	365.6
1030.4297	3030.9118	1241.8	359.2
1030.5404	3031.9544	1238.95	359.9
1030.6511	3032.9963	1240.45	360.6
1030.7617	3034.0376	1234.4	353.55
1030.8723	3035.0783	1241.6	359.4
1030.9829	3036.1184	1242.1	359.85
1031.0934	3037.1578	1236.1	357.55
1031.2038	3038.1966	1231.65	349.25
1031.3142	3039.2348	1233.95	356
1031.4246	3040.2723	1237.25	349.2
1031.5349	3041.3092	1227.2	349.85
1031.6452	3042.3455	1227.45	346.4
1031.7554	3043.3811	1228.65	347.7
1031.8656	3044.4161	1225.5	343.9
1031.9758	3045.4505	1221.3	341.25
1032.0859	3046.4842	1222.65	342.85
1032.1959	3047.5173	1218	338.85
1032.3059	3048.5498	1221	340.15
1032.4159	3049.5816	1219.1	340.95
1032.5258	3050.6128	1224.5	343.45
1032.6357	3051.6434	1221.85	340.4
1032.7455	3052.6734	1215.3	334.3
1032.8553	3053.7027	1218.35	337.55
1032.9651	3054.7314	1211.05	329.55
1033.0748	3055.7594	1211.75	332.6
1033.1845	3056.7868	1211.45	329.5
1033.2941	3057.8136	1206.7	325.8
1033.4037	3058.8398	1209.65	330.3
1033.5132	3059.8653	1201.7	322.7
1033.6227	3060.8902	1201.35	322.45
1033.7321	3061.9145	1203.35	325.45
1033.8415	3062.9381	1197.8	316.55
1033.9509	3063.9612	1219.85	325.05
1034.0602	3064.9835	1197.9	317.1
1034.1694	3066.0053	1203.2	323.2
1034.2787	3067.0264	1194.35	315.1
1034.3878	3068.0469	1198.4	316.55
1034.497	3069.0668	1195.35	311.65
1034.6061	3070.086	1198.15	319.1
1034.7151	3071.1046	1188.3	309.5
1034.8241	3072.1226	1197.2	315.3
1034.9331	3073.1399	1187.65	307.5
1035.042	3074.1567	1185.3	306.15
1035.1508	3075.1727	1193.15	312.85
1035.2597	3076.1882	1183.9	302.35
1035.3684	3077.203	1187.5	309.95
1035.4772	3078.2173	1175.75	293.25
1035.5859	3079.2308	1185.55	302.3
1035.6945	3080.2438	1185	302.15
1035.8031	3081.2561	1174.25	295.65
1035.9117	3082.2678	1170.05	290.35
1036.0202	3083.2789	1179.1	299.55
1036.1286	3084.2893	1173.1	295.35
1036.2371	3085.2991	1170.9	290.15
1036.3454	3086.3083	1174.5	289.6
1036.4538	3087.3169	1171.55	290.85
1036.562	3088.3248	1167.8	286.5
1036.6703	3089.3321	1171.9	290
1036.7785	3090.3388	1158.6	280.7
1036.8866	3091.3449	1158.7	279.55
1036.9948	3092.3503	1158.8	275.85
1037.1028	3093.3551	1160.4	281.75
1037.2108	3094.3593	1157.5	279.8
1037.3188	3095.3629	1155.85	277.4
1037.4267	3096.3658	1156.8	277.65
1037.5346	3097.3681	1156.9	276.1
1037.6425	3098.3698	1151.1	270.05
1037.7503	3099.3708	1155.5	270.1
1037.858	3100.3713	1147.5	270.5
1037.9657	3101.3711	1149.2	268.05
1038.0734	3102.3702	1278	264
1038.181	3103.3688	1146.35	263.7
1038.2886	3104.3667	1138.75	259.6
1038.3961	3105.364	1141.1	261.6
1038.5036	3106.3607	1146.15	263.85
1038.611	3107.3568	1135.35	254.75
1038.7184	3108.3522	1137.05	258.2
1038.8257	3109.347	1128.8	245.5
1038.933	3110.3412	1140.2	257.8
1039.0403	3111.3348	1132.85	252.4
1039.1475	3112.3277	1129.75	249.65
1039.2547	3113.32	1128.3	249.35
1039.3618	3114.3117	1125.3	244.3
1039.4689	3115.3028	1123.5	244.65
1039.5759	3116.2932	1127.5	247.9
1039.6829	3117.2831	1127.15	241.25
1039.7898	3118.2723	1124.8	245.1
1039.8967	3119.2608	1121	240.7
1040.0035	3120.2488	1117.95	237.65
1040.1103	3121.2361	1119.25	237.85
1040.2171	3122.2229	1120.35	239.7
1040.3238	3123.209	1115.1	235.05
1040.4305	3124.1944	1115.6	236.75
1040.5371	3125.1793	1115.15	232.6
1040.6437	3126.1635	1109.15	229.65
1040.7502	3127.1471	1102.1	221.3
1040.8567	3128.1301	1107.1	227.35
1040.9631	3129.1125	1106.6	225.2
1041.0695	3130.0942	1102.3	222.7
1041.1759	3131.0753	1112.15	223.55
1041.2822	3132.0558	1112.2	230.05
1041.3884	3133.0357	1103.75	222.75
1041.4946	3134.015	1106.5	227.75
1041.6008	3134.9936	1104.05	224.45
1041.7069	3135.9716	1116	213.7
1041.813	3136.949	1097.2	217.8
1041.919	3137.9258	1103.2	215.55
1042.025	3138.902	1102	218
1042.1309	3139.8775	1094.45	216.2
1042.2368	3140.8524	1092.85	212.85
1042.3427	3141.8267	1096	214.85
1042.4485	3142.8004	1095.15	214.8
1042.5542	3143.7735	1097.25	211.15
1042.6599	3144.7459	1095.3	214.6
1042.7656	3145.7178	1093	212.1
1042.8712	3146.689	1089.75	210.9
1042.9768	3147.6596	1088.4	206.4
1043.0823	3148.6295	1091.15	211.75
1043.1878	3149.5989	1081.9	200.85
1043.2932	3150.5676	1079.8	200.8
1043.3986	3151.5357	1081.05	202.55
1043.5039	3152.5032	1084.95	206.6
1043.6092	3153.4701	1077.55	197.5
1043.7145	3154.4364	1081.45	199.4
1043.8197	3155.402	1076.75	196.75
1043.9248	3156.367	1083.2	203.1
1044.03	3157.3315	1111.25	192.9
1044.135	3158.2952	1071.65	189.05
1044.24	3159.2584	1077.15	196.3
1044.345	3160.221	1072.7	192.15
1044.4499	3161.1829	1072.5	191.2
1044.5548	3162.1442	1069.9	191.05
1044.6596	3163.105	1072.65	191.05
1044.7644	3164.065	1070.55	191.95
1044.8692	3165.0245	1068.1	184.55
1044.9739	3165.9834	1065.15	186.35
1045.0785	3166.9416	1066.65	186.65
1045.1831	3167.8993	1065.35	185.3
1045.2877	3168.8563	1067.75	188.45
1045.3922	3169.8127	1063.65	183.55
1045.4966	3170.7684	1062.7	181.85
1045.6011	3171.7236	1058.2	177.4
1045.7054	3172.6782	1060.75	180.3
1045.8098	3173.6321	1056.65	176.9
1045.914	3174.5854	1063.75	180.05
1046.0183	3175.5381	1056.6	176.4
1046.1224	3176.4902	1053.25	174.75
1046.2266	3177.4417	1052.75	171.65
1046.3307	3178.3926	1054.85	174.85
1046.4347	3179.3428	1053.3	173.2
1046.5387	3180.2924	1054.7	176.05
1046.6427	3181.2415	1052.15	171.1
1046.7466	3182.1899	1055.1	176
1046.8504	3183.1377	1047.25	169.55
1046.9542	3184.0848	1052.15	168.15
1047.058	3185.0314	1047.45	167.5
1047.1617	3185.9773	1046.6	168.15
1047.2654	3186.9227	1047.55	168.3
1047.369	3187.8674	1040.75	160.4
1047.4726	3188.8115	1048.6	164.1
1047.5761	3189.755	1042.8	164.8
1047.6796	3190.6979	1046.2	168.25
1047.783	3191.6402	1040.45	160.75
1047.8864	3192.5818	1038	158.3
1047.9898	3193.5229	1046.5	160.5
1048.0931	3194.4633	1046.15	166.6
1048.1963	3195.4031	1037.65	156.85
1048.2995	3196.3423	1037.05	158
1048.4027	3197.2809	1037.7	157.1
1048.5058	3198.2189	1037.05	156.45
1048.6089	3199.1563	1045.9	158.65
1048.7119	3200.0931	1030.45	152.5
1048.8148	3201.0292	1032.8	152.2
1048.9178	3201.9648	1031.55	153.25
1049.0206	3202.8997	1035.2	150.5
1049.1235	3203.834	1034.1	155.8
1049.2262	3204.7677	1027.1	147.1
1049.329	3205.7008	1030.45	149.15
1049.4317	3206.6333	1024.8	146.75
1049.5343	3207.5652	1031.8	150.1
1049.6369	3208.4964	1026.75	147.25
1049.7394	3209.4271	1025.6	145.4
1049.8419	3210.3571	1023.45	142.85
1049.9444	3211.2865	1027.6	145.6
1050.0468	3212.2154	1025.25	145.7
1050.1491	3213.1436	1027.2	144.05
1050.2514	3214.0712	1030.35	144.85
1050.3537	3214.9982	1024.9	147.1
1050.4559	3215.9246	1021.1	139.4
1050.5581	3216.8503	1017.9	140.05
1050.6602	3217.7755	1022.25	140.4
1050.7623	3218.7001	1021.3	141.55
1050.8643	3219.624	1018.2	138.9
1050.9663	3220.5473	1018.55	136.55
1051.0682	3221.4701	1015.05	134.5
1051.1701	3222.3922	1020.35	137.1
1051.2719	3223.3137	1013.35	133.75
1051.3737	3224.2346	1015.25	134.9
1051.4754	3225.1549	1017.15	137.1
1051.5771	3226.0746	1012.65	132.7
1051.6788	3226.9937	1014.75	134.7
1051.7804	3227.9121	1015.1	135.65
1051.8819	3228.83	1011.1	131.85
1051.9834	3229.7473	1010.15	130.7
1052.0849	3230.6639	1011.7	130.75
1052.1863	3231.5799	1010.4	129.95
1052.2876	3232.4954	1011.25	131.7
1052.3889	3233.4102	1006.95	128.9
1052.4902	3234.3244	1006.9	123
1052.5914	3235.238	1004.9	126.75
1052.6926	3236.151	1027.2	122.95
1052.7937	3237.0634	1007.65	130.6
1052.8948	3237.9752	1002.05	120.05
1052.9958	3238.8864	1004.95	124.75
1053.0968	3239.797	1002.7	123.1
1053.1977	3240.7069	1006.35	126.55
1053.2986	3241.6163	1001.65	122.35
1053.3994	3242.5251	998.15	119.2
1053.5002	3243.4332	996.9	118.9
1053.6009	3244.3408	998	115.95
1053.7016	3245.2477	993.35	113.4
1053.8022	3246.154	998.9	119.1
1053.9028	3247.0598	998	117.95
1054.0034	3247.9649	993.2	115.3
1054.1039	3248.8694	994.15	113.95
1054.2043	3249.7733	995	115.3
1054.3047	3250.6766	993.95	115.15
1054.4051	3251.5793	995.75	115.2
1054.5054	3252.4814	992.3	113.1
1054.6056	3253.3829	987.4	108.35
1054.7058	3254.2838	992.1	111.85
1054.806	3255.1841	990.85	111.9
1054.9061	3256.0838	988.4	109
1055.0061	3256.9829	988.65	111.95
1055.1062	3257.8814	989.1	108.9
1055.2061	3258.7792	991	110.45
1055.306	3259.6765	987.3	107.05
1055.4059	3260.5731	984.45	104.95
1055.5057	3261.4692	983.75	103.45
1055.6055	3262.3647	981.75	101.7
1055.7052	3263.2595	981.6	101.4
1055.8049	3264.1538	979.2	99
1055.9045	3265.0474	980.8	101.35
1056.0041	3265.9404	976.55	97.8
1056.1036	3266.8329	971.3	93.15
1056.2031	3267.7247	982.45	91.7
1056.3025	3268.616	970	91.5
1056.4019	3269.5066	965	85.7
1056.5013	3270.3966	966.55	86.45
1056.6005	3271.286	959.2	80.2
