Software Version:	3.9.2.0
Unit SN:	10000200
Spectrometer SN:	6960
Date:	3/6/2024 10:56:55 AM
Data Line Index:	25
Spectral Points:	2048
Integration time (ms):	125
Averages:	20
Delay (ms):	30
Sequence Number:	1
Processing:	dark subtract
Laser Power (mW):	300
Laser Current (mA):	822
Laser Diode Temp (C):	25.1
Laser Case Temp (C):	27.9
System Temp (C):	27.8
Spectrometer Temp (C):	25.3
CCD Temp (C):	0.004
Secondary Temp (C):	20.011
Heatsink Temp (C):	23.534
CCDPCB Temp (C):	37.174
SecondaryPCB Temp (C):	34.673

Wavelength	RamanShift	Raw Counts	Dark Subtracted
787.061	30.1047	1087.5	671.5
787.2016	32.3739	1118.7	706.25
787.3422	34.6426	1157.2	743.6
787.4828	36.9109	1213.2	797.1
787.6235	39.1787	1265.6	845.25
787.7642	41.4461	1332.05	908.4
787.9049	43.7131	1386.9	960.55
788.0456	45.9796	1450	1019.75
788.1863	48.2456	1516.45	1081.3
788.3271	50.5112	1586.35	1148.2
788.4679	52.7764	1650.95	1210.9
788.6087	55.0411	1721.05	1275.4
788.7496	57.3054	1813.1	1361.95
788.8904	59.5692	1892.3	1441.05
789.0313	61.8326	1989.9	1535.7
789.1722	64.0955	2098.05	1639.5
789.3132	66.3579	2215.1	1749.9
789.4541	68.6199	2364.55	1897.2
789.5951	70.8815	2607.85	2138
789.7361	73.1426	3091.75	2618.55
789.8771	75.4032	4319.9	3839.4
790.0181	77.6634	7442.95	6957.75
790.1592	79.9231	15442	14950.7
790.3003	82.1824	50197.65	49697.2
790.4414	84.4412	65535	65018.95
790.5825	86.6995	65535	64996.15
790.7237	88.9574	65535	64976.6
790.8648	91.2148	65535	64958.1
791.006	93.4717	65535	64944.75
791.1472	95.7282	65535	64942.75
791.2885	97.9842	65535	64935.8
791.4297	100.2398	65535	64938.6
791.571	102.4949	65535	64936.2
791.7123	104.7495	65535	64930
791.8536	107.0036	65535	64926.15
791.9949	109.2573	65535	64928.35
792.1363	111.5105	65535	64930.25
792.2777	113.7632	65535	64923.35
792.4191	116.0154	65535	64916.15
792.5605	118.2672	65535	64921.85
792.7019	120.5185	65535	64917.4
792.8434	122.7693	65535	64918.3
792.9849	125.0197	65535	64913.7
793.1264	127.2696	65535	64911.75
793.2679	129.519	65535	64908.3
793.4094	131.7679	65535	64907.9
793.551	134.0163	65535	64900.4
793.6926	136.2642	65535	64899.85
793.8342	138.5117	65535	64889.7
793.9758	140.7587	65535	64891.6
794.1175	143.0052	65535	64890.5
794.2591	145.2512	65535	64891.2
794.4008	147.4967	65535	64891
794.5425	149.7417	65535	64886.25
794.6842	151.9863	65535	64882.9
794.826	154.2304	65535	64878.8
794.9677	156.4739	65535	64876.6
795.1095	158.717	65535	64876.5
795.2513	160.9596	65535	64869.75
795.3931	163.2017	65535	64865.95
795.535	165.4433	65535	64868.1
795.6768	167.6844	65535	64865.55
795.8187	169.925	65535	64861.2
795.9606	172.1651	65535	64858.7
796.1025	174.4047	65535	64853.35
796.2445	176.6439	65535	64854.7
796.3864	178.8825	65535	64850.6
796.5284	181.1206	65535	64846.9
796.6704	183.3582	65535	64842.9
796.8124	185.5954	65535	64842.5
796.9544	187.832	65535	64836.75
797.0965	190.0681	65535	64837.8
797.2386	192.3037	65535	64834.7
797.3806	194.5388	65535	64831.6
797.5228	196.7734	65535	64828.05
797.6649	199.0075	65535	64826.2
797.807	201.2411	65535	64821.15
797.9492	203.4742	65535	64825.05
798.0914	205.7068	65535	64821.85
798.2336	207.9389	65535	64818.85
798.3758	210.1704	65535	64814.8
798.518	212.4015	65535	64811.15
798.6603	214.632	65535	64819.35
798.8025	216.862	65535	64832.4
798.9448	219.0915	65535	64833.6
799.0871	221.3205	65535	64831
799.2294	223.549	65535	64835.45
799.3718	225.777	65535	64837.5
799.5141	228.0044	65535	64835.5
799.6565	230.2314	65535	64834.15
799.7989	232.4578	65535	64832.35
799.9413	234.6837	65535	64822.55
800.0837	236.909	65535	64823.5
800.2262	239.1339	65535	64796.9
800.3687	241.3582	65535	64811.15
800.5111	243.582	65535	64783.85
800.6536	245.8053	65535	64794.75
800.7961	248.0281	65535	64797.3
800.9387	250.2503	65535	64794.65
801.0812	252.472	65535	64789.7
801.2238	254.6932	65535	64788.4
801.3664	256.9139	65535	64786.85
801.509	259.134	65535	64786.05
801.6516	261.3536	65535	64786.9
801.7942	263.5727	65535	64782.8
801.9369	265.7912	65535	64786.5
802.0795	268.0092	65535	64786.4
802.2222	270.2267	65535	64780.95
802.3649	272.4436	65535	64778.7
802.5076	274.6601	65535	64775.9
802.6504	276.8759	65535	64774.45
802.7931	279.0913	65535	64775.55
802.9359	281.3061	65535	64774.95
803.0787	283.5204	65535	64775.95
803.2215	285.7341	65535	64768.8
803.3643	287.9473	65535	64756.45
803.5071	290.16	65535	64760.55
803.6499	292.3721	65535	64768.35
803.7928	294.5837	65535	64771.5
803.9357	296.7947	65535	64766.65
804.0786	299.0052	65535	64768.65
804.2215	301.2152	65535	64762.15
804.3644	303.4246	65535	64766.2
804.5074	305.6334	65535	64768.55
804.6503	307.8418	65535	64763.9
804.7933	310.0495	65535	64765.1
804.9363	312.2568	65535	64761.8
805.0793	314.4635	65535	64760.55
805.2223	316.6696	65535	64761.9
805.3653	318.8752	65535	64752.45
805.5084	321.0802	65535	64760.35
805.6514	323.2847	65535	64755.95
805.7945	325.4887	65535	64758.9
805.9376	327.692	65535	64757.3
806.0807	329.8949	65535	64754.7
806.2238	332.0972	65535	64751.15
806.367	334.2989	65535	64749.6
806.5101	336.5001	65535	64748.95
806.6533	338.7007	65535	64747.9
806.7965	340.9008	65535	64746.45
806.9397	343.1003	65535	64741.6
807.0829	345.2992	65535	64743.65
807.2261	347.4976	65535	64741.85
807.3693	349.6955	65535	64741.9
807.5126	351.8927	65535	64735.25
807.6559	354.0895	65535	64728.35
807.7991	356.2856	65535	64734.5
807.9424	358.4812	65535	64739.05
808.0857	360.6763	65535	64733.85
808.2291	362.8707	65535	64734.5
808.3724	365.0646	65535	64732.6
808.5158	367.258	65535	64728.95
808.6591	369.4508	65535	64726.9
808.8025	371.643	65535	64726.3
808.9459	373.8346	65535	64725.6
809.0893	376.0257	65535	64719.05
809.2327	378.2162	65535	64718.7
809.3762	380.4062	65535	64719.5
809.5196	382.5956	65535	64715.2
809.6631	384.7844	65535	64717.55
809.8066	386.9726	65535	64717.75
809.9501	389.1603	65535	64717.75
810.0936	391.3474	65535	64675.25
810.2371	393.5339	65535	64722.45
810.3806	395.7199	65535	64726.35
810.5241	397.9052	65535	64728.4
810.6677	400.09	65535	64727.4
810.8113	402.2743	65535	64727.05
810.9548	404.4579	65535	64725.65
811.0984	406.641	65535	64727.35
811.2421	408.8235	65535	64725.7
811.3857	411.0054	65535	64724.5
811.5293	413.1868	65535	64721.75
811.673	415.3675	65535	64719.8
811.8166	417.5477	65535	64717.45
811.9603	419.7273	65535	64714.25
812.104	421.9064	65535	64707.75
812.2477	424.0848	65535	64711.05
812.3914	426.2627	65535	64710.45
812.5351	428.4399	65535	64707.2
812.6788	430.6166	65535	64705.15
812.8226	432.7928	65535	64708
812.9663	434.9683	65535	64705.15
813.1101	437.1432	65535	64703.7
813.2539	439.3176	65535	64702
813.3977	441.4914	65535	64705.05
813.5415	443.6645	65535	64699.7
813.6853	445.8371	65535	64700.4
813.8291	448.0091	65535	64703.1
813.973	450.1806	65535	64703.6
814.1168	452.3514	65535	64699.05
814.2607	454.5216	65535	64691.95
814.4046	456.6913	65535	64695.45
814.5485	458.8603	65535	64699.7
814.6924	461.0288	65535	64701.1
814.8363	463.1967	65535	64700.8
814.9802	465.3639	65535	64698.65
815.1241	467.5306	65535	64696.9
815.2681	469.6967	65535	64696.95
815.412	471.8622	65535	64698.3
815.556	474.0271	65535	64696.2
815.7	476.1914	65535	64695.05
815.844	478.3551	65535	64691.85
815.988	480.5182	65535	64693.85
816.132	482.6807	65535	64694.2
816.276	484.8426	65535	64694.1
816.4201	487.0039	65535	64695.75
816.5641	489.1647	65535	64689.35
816.7082	491.3248	65535	64687.1
816.8522	493.4843	65535	64692.7
816.9963	495.6432	65535	64691.35
817.1404	497.8015	65535	64688
817.2845	499.9592	65535	64690.25
817.4286	502.1163	65535	64691.75
817.5727	504.2728	65535	64687.5
817.7168	506.4287	65535	64688.4
817.861	508.5839	65535	64690.1
818.0051	510.7386	65535	64687.7
818.1493	512.8927	65535	64683.85
818.2935	515.0461	65535	64684.3
818.4377	517.199	65535	64684.45
818.5818	519.3512	65535	64682.25
818.726	521.5029	65535	64680.75
818.8703	523.6539	65535	64684.35
819.0145	525.8043	65535	64683
819.1587	527.9541	65535	64678.1
819.303	530.1033	65535	64681
819.4472	532.2519	65535	64684.45
819.5915	534.3999	65535	64680.4
819.7357	536.5472	65535	64677.75
819.88	538.694	65535	64680.65
820.0243	540.8401	65535	64676.35
820.1686	542.9856	65535	64676.4
820.3129	545.1305	65535	64675.9
820.4572	547.2748	65535	64672.85
820.6016	549.4185	65535	64674.45
820.7459	551.5615	65535	64674.95
820.8902	553.704	65535	64676.05
821.0346	555.8458	65535	64677.75
821.1789	557.987	65535	64677.5
821.3233	560.1276	65535	64674.85
821.4677	562.2675	65535	64675.2
821.6121	564.4069	65535	64675.85
821.7565	566.5456	65535	64677.7
821.9009	568.6837	65535	64674.3
822.0453	570.8212	65535	64679.05
822.1897	572.958	65535	64673.55
822.3342	575.0942	65535	64677.1
822.4786	577.2299	65535	64676.15
822.6231	579.3648	65535	64673.1
822.7675	581.4992	65535	64676
822.912	583.6329	65535	64674.85
823.0565	585.766	65535	64675.85
823.201	587.8985	65535	64678.2
823.3454	590.0304	65535	64650.3
823.4899	592.1616	65535	64669
823.6345	594.2922	65535	64671.25
823.779	596.4222	65535	64668.85
823.9235	598.5515	65535	64670.85
824.068	600.6802	65535	64671.25
824.2126	602.8083	65535	64668.75
824.3571	604.9358	65535	64668.95
824.5017	607.0626	65535	64668.45
824.6462	609.1888	65535	64666.6
824.7908	611.3144	65535	64665.1
824.9354	613.4393	65535	64669.95
825.08	615.5636	65535	64664.95
825.2246	617.6873	65535	64669.55
825.3692	619.8103	65535	64666.5
825.5138	621.9327	65535	64665
825.6584	624.0544	65535	64671.05
825.803	626.1756	65535	64669
825.9477	628.2961	65535	64666.3
826.0923	630.4159	65535	64667.45
826.237	632.5351	65535	64666.85
826.3816	634.6537	65535	64666
826.5263	636.7716	65535	64667.15
826.6709	638.8889	65535	64664.7
826.8156	641.0056	65535	64661.65
826.9603	643.1216	65535	64663.1
827.105	645.237	65535	64658.5
827.2497	647.3518	65535	64663.05
827.3944	649.4659	65535	64664.25
827.5391	651.5793	65535	64662.4
827.6838	653.6922	65535	64665.65
827.8285	655.8043	65535	64661.95
827.9733	657.9159	65535	64663.65
828.118	660.0268	65535	64658.3
828.2627	662.137	65535	64661.35
828.4075	664.2466	65535	64658.5
828.5522	666.3556	65535	64660.4
828.697	668.4639	65535	64657.4
828.8418	670.5716	65535	64657.4
828.9865	672.6786	65535	64658.1
829.1313	674.785	65535	64657.75
829.2761	676.8907	65535	64657.95
829.4209	678.9958	65535	64660.25
829.5657	681.1002	65535	64656.1
829.7105	683.204	65535	64654.95
829.8553	685.3072	65535	64657.9
830.0001	687.4097	65535	64657.45
830.1449	689.5115	65535	64651.75
830.2898	691.6127	65535	64656.15
830.4346	693.7132	65535	64657.5
830.5794	695.8131	65535	64645.65
830.7243	697.9123	65535	64653.25
830.8691	700.0109	65535	64653.55
831.014	702.1089	65535	64655.55
831.1588	704.2061	65535	64657.6
831.3037	706.3028	65535	64654.35
831.4486	708.3987	65535	64652.3
831.5935	710.4941	65535	64655.15
831.7383	712.5887	65535	64655.7
831.8832	714.6827	65535	64648.45
832.0281	716.7761	65535	64651.55
832.173	718.8688	65535	64652.15
832.3179	720.9608	65535	64651.5
832.4628	723.0522	65535	64650.1
832.6077	725.1429	65535	64656.95
832.7527	727.233	65535	64653.3
832.8976	729.3224	65535	64651.7
833.0425	731.4112	65535	64649.95
833.1874	733.4993	65535	64650.45
833.3324	735.5867	65535	64651.25
833.4773	737.6735	65535	64648.75
833.6222	739.7596	65535	64651.75
833.7672	741.845	65535	64648.65
833.9122	743.9298	65535	64648.55
834.0571	746.014	65535	64650.1
834.2021	748.0974	65535	64646.95
834.347	750.1802	65535	64647.1
834.492	752.2624	65535	64649.7
834.637	754.3439	65535	64648.75
834.782	756.4247	65535	64641.55
834.9269	758.5048	65535	64651.2
835.0719	760.5843	65535	64647.4
835.2169	762.6631	65535	64649.1
835.3619	764.7413	65535	64649.95
835.5069	766.8188	65535	64645.65
835.6519	768.8956	65535	64647.2
835.7969	770.9718	65535	64649.1
835.9419	773.0473	65535	64651.15
836.0869	775.1221	65535	64647.2
836.232	777.1962	65535	64648.05
836.377	779.2697	65535	64648.8
836.522	781.3426	65535	64627.6
836.667	783.4147	65535	64645.7
836.8121	785.4862	65535	64649.65
836.9571	787.557	65535	64647.85
837.1021	789.6271	65535	64646.05
837.2472	791.6966	65535	64645.25
837.3922	793.7654	65535	64645.45
837.5373	795.8335	65535	64647.8
837.6823	797.901	65535	64648.2
837.8274	799.9678	65535	64646.25
837.9724	802.0339	65535	64651.6
838.1175	804.0993	65535	64639.55
838.2626	806.1641	65535	64644.35
838.4076	808.2282	65535	64646.2
838.5527	810.2916	65535	64644.6
838.6978	812.3544	65535	64647.15
838.8428	814.4164	65535	64646.65
838.9879	816.4778	65535	64642.35
839.133	818.5385	65535	64643.2
839.2781	820.5986	65535	64644.6
839.4232	822.658	65535	64646.25
839.5682	824.7166	65535	64647.45
839.7133	826.7747	65535	64646.05
839.8584	828.832	65535	64645.7
840.0035	830.8886	65535	64642.9
840.1486	832.9446	65535	64644.35
840.2937	834.9999	65535	64646.3
840.4388	837.0545	65535	64642.8
840.5839	839.1085	65535	64644.65
840.729	841.1618	65535	64640.45
840.8741	843.2143	65535	64644.7
841.0192	845.2662	65535	64642.65
841.1643	847.3175	65535	64645.85
841.3095	849.368	65535	64643.15
841.4546	851.4179	65535	64645.35
841.5997	853.467	65535	64646.55
841.7448	855.5155	65535	64645.7
841.8899	857.5633	65535	64643.85
842.0351	859.6105	65535	64642.95
842.1802	861.6569	65535	64642.65
842.3253	863.7027	65535	64642.4
842.4704	865.7478	65535	64641.95
842.6156	867.7922	65535	64645.85
842.7607	869.8359	65535	64644.7
842.9058	871.8789	65535	64642.45
843.0509	873.9212	65535	64607.75
843.1961	875.9629	65535	64643.25
843.3412	878.0039	65535	64642
843.4863	880.0441	65535	64643.05
843.6315	882.0837	65535	64642.95
843.7766	884.1226	65535	64639.95
843.9218	886.1609	65535	64643.45
844.0669	888.1984	65535	64641.4
844.212	890.2352	65535	64644.2
844.3572	892.2714	65535	64638.45
844.5023	894.3069	65535	64639.75
844.6475	896.3416	65535	64639.9
844.7926	898.3757	65535	64642.05
844.9377	900.4091	65535	64640.8
845.0829	902.4418	65535	64637.4
845.228	904.4739	65535	64639.7
845.3732	906.5052	65535	64637.9
845.5183	908.5358	65535	64639.5
845.6635	910.5658	65535	64639
845.8086	912.595	65535	64640.5
845.9538	914.6236	65535	64641.1
846.0989	916.6515	65535	64638.65
846.2441	918.6786	65535	64640.75
846.3892	920.7051	65535	64639.9
846.5344	922.7309	65535	64642.15
846.6795	924.756	65535	64637.6
846.8246	926.7804	65535	64636.3
846.9698	928.8041	65535	64636.2
847.1149	930.8272	65535	64639.1
847.2601	932.8495	65535	64634.9
847.4052	934.8711	65535	64638.95
847.5504	936.892	65535	64639.55
847.6955	938.9123	65535	64638.15
847.8407	940.9318	65535	64636.8
847.9858	942.9506	65535	64639.25
848.131	944.9688	65535	64638.85
848.2761	946.9862	65535	64637.7
848.4213	949.003	65535	64636.2
848.5664	951.019	65535	64638.1
848.7115	953.0344	65535	64636.45
848.8567	955.0491	65535	64639.7
849.0018	957.063	65535	64638.65
849.147	959.0763	65535	64637.1
849.2921	961.0888	65535	64637.15
849.4373	963.1007	65535	64638.35
849.5824	965.1119	65535	64641.75
849.7275	967.1223	65535	64640.25
849.8727	969.1321	65535	64642.1
850.0178	971.1412	65535	64639.85
850.1629	973.1495	65535	64637.55
850.3081	975.1572	65535	64605.65
850.4532	977.1641	65535	64639.05
850.5983	979.1704	65535	64635.9
850.7435	981.1759	65535	64635.55
850.8886	983.1808	65535	64635.65
851.0337	985.1849	65535	64626.7
851.1788	987.1884	65535	64635.65
851.324	989.1911	65535	64635.3
851.4691	991.1932	65535	64637.75
851.6142	993.1945	65535	64638.35
851.7593	995.1951	65535	64638.45
851.9045	997.1951	65535	64633.55
852.0496	999.1943	65535	64637.95
852.1947	1001.1928	65535	64637.45
852.3398	1003.1906	65535	64637.85
852.4849	1005.1877	65535	64638.05
852.63	1007.1841	65535	64636.8
852.7751	1009.1798	65535	64641.95
852.9202	1011.1748	65535	64638.6
853.0653	1013.1691	65535	64639.15
853.2104	1015.1627	65535	64638.55
853.3555	1017.1556	65535	64639.15
853.5006	1019.1477	65535	64637.35
853.6457	1021.1392	65535	64640.15
853.7908	1023.1299	65535	64639.15
853.9359	1025.12	65535	64638.45
854.081	1027.1093	65535	64642.3
854.2261	1029.0979	65535	64641.5
854.3712	1031.0859	65535	64639
854.5163	1033.0731	65535	64638.2
854.6613	1035.0596	65535	64640.75
854.8064	1037.0454	65535	64639.35
854.9515	1039.0304	65535	64638.25
855.0965	1041.0148	65535	64638.8
855.2416	1042.9985	65535	64638.1
855.3867	1044.9814	65535	64639
855.5317	1046.9636	65535	64637.65
855.6768	1048.9452	65535	64638.1
855.8219	1050.926	65535	64638.85
855.9669	1052.9061	65535	64639.75
856.112	1054.8855	65535	64636.85
856.257	1056.8642	65535	64637.35
856.4021	1058.8421	65535	64633.85
856.5471	1060.8194	65535	64637.9
856.6921	1062.7959	65535	64637.45
856.8372	1064.7717	65535	64634.6
856.9822	1066.7469	65535	64636.15
857.1272	1068.7213	65535	64634.85
857.2723	1070.695	65535	64638.75
857.4173	1072.6679	65535	64638.95
857.5623	1074.6402	65535	64636.8
857.7073	1076.6117	65535	64632.25
857.8523	1078.5826	65535	64636.05
857.9973	1080.5527	65535	64633.25
858.1423	1082.5221	65535	64637.8
858.2873	1084.4908	65535	64637.7
858.4323	1086.4587	65535	64638.35
858.5773	1088.426	65535	64637.4
858.7223	1090.3925	65535	64633.6
858.8673	1092.3584	65535	64639.05
859.0123	1094.3235	65535	64636.9
859.1573	1096.2879	65535	64635.05
859.3022	1098.2515	65535	64636.35
859.4472	1100.2145	65535	64635.95
859.5922	1102.1767	65535	64634.6
859.7371	1104.1382	65535	64636
859.8821	1106.099	65535	64635.4
860.027	1108.0591	65535	64636.95
860.172	1110.0185	65535	64636.5
860.3169	1111.9771	65535	64640.3
860.4619	1113.9351	65535	64636.05
860.6068	1115.8923	65535	64637.3
860.7517	1117.8488	65535	64637.5
860.8967	1119.8045	65535	64636.1
861.0416	1121.7596	65535	64636.4
861.1865	1123.7139	65535	64637.7
861.3314	1125.6675	65535	64639.05
861.4763	1127.6204	65535	64637.6
861.6212	1129.5726	65535	64635.2
861.7661	1131.524	65535	64636.4
861.911	1133.4748	65535	64636.1
862.0559	1135.4248	65535	64634.55
862.2008	1137.3741	65535	64638.9
862.3457	1139.3226	65535	64635.2
862.4905	1141.2705	65535	64636.2
862.6354	1143.2176	65535	64631.05
862.7803	1145.164	65535	64635.1
862.9251	1147.1097	65535	64636
863.07	1149.0546	65535	64635.5
863.2148	1150.9989	65535	64635.9
863.3597	1152.9424	65535	64635.7
863.5045	1154.8852	65535	64635.5
863.6493	1156.8272	65535	64639.7
863.7942	1158.7686	65535	64630.3
863.939	1160.7092	65535	64635.95
864.0838	1162.6491	65535	64635.2
864.2286	1164.5883	65535	64636.3
864.3734	1166.5267	65535	64636
864.5182	1168.4644	65535	64634.55
864.663	1170.4014	65535	64632.25
864.8078	1172.3377	65535	64634
864.9526	1174.2732	65535	64637.75
865.0974	1176.2081	65535	64636.1
865.2421	1178.1421	65535	64633
865.3869	1180.0755	65535	64636
865.5317	1182.0082	65535	64637.95
865.6764	1183.9401	65535	64636.6
865.8212	1185.8713	65535	64638.25
865.9659	1187.8017	65535	64634.2
866.1106	1189.7315	65535	64638.65
866.2554	1191.6605	65535	64611.1
866.4001	1193.5888	65535	64635.7
866.5448	1195.5163	65535	64640.15
866.6895	1197.4432	65535	64635
866.8342	1199.3693	65535	64636.3
866.9789	1201.2947	65535	64632.75
867.1236	1203.2193	65535	64637.1
867.2683	1205.1432	65535	64640.3
867.413	1207.0664	65535	64634.7
867.5576	1208.9889	65535	64635.3
867.7023	1210.9106	65535	64638.65
867.847	1212.8316	65535	64638
867.9916	1214.7519	65535	64628.45
868.1363	1216.6715	65535	64636.95
868.2809	1218.5903	65535	64637.05
868.4255	1220.5084	65535	64637.85
868.5701	1222.4257	65535	64638
868.7148	1224.3424	65535	64640.15
868.8594	1226.2583	65535	64631.4
869.004	1228.1735	65535	64635.8
869.1486	1230.0879	65535	64637.25
869.2932	1232.0016	65535	64638.5
869.4377	1233.9146	65535	64634.5
869.5823	1235.8269	65535	64637.6
869.7269	1237.7384	65535	64636.65
869.8715	1239.6492	65535	64639.1
870.016	1241.5592	65535	64635.75
870.1606	1243.4686	65535	64637.6
870.3051	1245.3772	65535	64636.5
870.4496	1247.285	65535	64635.7
870.5941	1249.1922	65535	64636.1
870.7387	1251.0986	65535	64638.35
870.8832	1253.0042	65535	64637.3
871.0277	1254.9092	65535	64636.6
871.1722	1256.8134	65535	64637.35
871.3167	1258.7169	65535	64635.95
871.4611	1260.6196	65535	64638.55
871.6056	1262.5216	65535	64634.3
871.7501	1264.4229	65535	64639.1
871.8945	1266.3234	65535	64636.85
872.039	1268.2232	65535	64635.5
872.1834	1270.1223	65535	64635.2
872.3278	1272.0207	65535	64636.9
872.4723	1273.9183	65535	64631.25
872.6167	1275.8151	65535	64635.6
872.7611	1277.7113	65535	64635.65
872.9055	1279.6067	65535	64638
873.0499	1281.5014	65535	64634.15
873.1943	1283.3953	65535	64635.15
873.3386	1285.2885	65535	64635.5
873.483	1287.181	65535	64635.75
873.6274	1289.0727	65535	64637.2
873.7717	1290.9637	65535	64638.6
873.9161	1292.854	65535	64637.65
874.0604	1294.7435	65535	64633.4
874.2047	1296.6323	65535	64634.8
874.349	1298.5204	65535	64633.8
874.4933	1300.4077	65535	64635
874.6376	1302.2943	65535	64640.05
874.7819	1304.1802	65535	64637.1
874.9262	1306.0653	65535	64634.2
875.0705	1307.9497	65535	64635.05
875.2147	1309.8333	65535	64637.9
875.359	1311.7162	65535	64637.25
875.5032	1313.5984	65535	64633.35
875.6475	1315.4798	65535	64629.05
875.7917	1317.3605	65535	64618.6
875.9359	1319.2405	65535	64634.85
876.0801	1321.1197	65535	64635.15
876.2243	1322.9982	65535	64631.8
876.3685	1324.876	65535	64637.7
876.5127	1326.753	65535	64636.1
876.6569	1328.6293	65535	64632.4
876.801	1330.5048	65535	64633.4
876.9452	1332.3796	65535	64636.35
877.0893	1334.2537	65535	64608.7
877.2335	1336.127	65535	64635.5
877.3776	1337.9996	65535	64637.4
877.5217	1339.8714	65535	64637.05
877.6658	1341.7426	65535	64592.3
877.8099	1343.6129	65535	64633.6
877.954	1345.4826	65535	64636.85
878.0981	1347.3515	65535	64635.1
878.2422	1349.2196	65535	64636.3
878.3862	1351.087	65535	64635.55
878.5303	1352.9537	65535	64635.4
878.6743	1354.8197	65535	64636.65
878.8184	1356.6849	65535	64634.4
878.9624	1358.5493	65535	64636.1
879.1064	1360.4131	65535	64638.25
879.2504	1362.276	65535	64638
879.3944	1364.1383	65535	64636.5
879.5384	1365.9998	65535	64629
879.6823	1367.8606	65535	64634.9
879.8263	1369.7206	65535	64635.5
879.9702	1371.5799	65535	64633.9
880.1142	1373.4384	65535	64638.45
880.2581	1375.2962	65535	64637.45
880.402	1377.1533	65535	64636.1
880.5459	1379.0096	65535	64636.4
880.6898	1380.8652	65535	64637
880.8337	1382.7201	65535	64635.4
880.9776	1384.5742	65535	64636.35
881.1215	1386.4275	65535	64633.8
881.2653	1388.2802	65535	64636.35
881.4092	1390.132	65535	64634.5
881.553	1391.9832	65535	64634.6
881.6968	1393.8336	65535	64635.15
881.8406	1395.6832	65535	64633.7
881.9844	1397.5322	65535	64636.2
882.1282	1399.3803	65535	64630.65
882.272	1401.2278	65535	64635.55
882.4158	1403.0745	65535	64635.45
882.5595	1404.9204	65535	64637.3
882.7033	1406.7656	65535	64636.85
882.847	1408.6101	65535	64635.4
882.9908	1410.4538	65535	64635.7
883.1345	1412.2968	65535	64634.7
883.2782	1414.139	65535	64636.9
883.4219	1415.9805	65535	64637.3
883.5656	1417.8213	65535	64628.3
883.7092	1419.6613	65535	64636.95
883.8529	1421.5006	65535	64636.3
883.9965	1423.3391	65535	64636.05
884.1402	1425.1769	65535	64636.3
884.2838	1427.0139	65535	64634
884.4274	1428.8502	65535	64634.4
884.571	1430.6858	65535	64637.7
884.7146	1432.5206	65535	64636.15
884.8582	1434.3547	65535	64636.5
885.0018	1436.188	65535	64637.65
885.1453	1438.0206	65535	64635.95
885.2889	1439.8524	65535	64636.35
885.4324	1441.6835	65535	64636.2
885.5759	1443.5139	65535	64634.15
885.7194	1445.3435	65535	64636.05
885.8629	1447.1724	65535	64637.85
886.0064	1449.0005	65535	64639.5
886.1499	1450.8279	65535	64636.65
886.2933	1452.6545	65535	64634.9
886.4368	1454.4804	65535	64637.25
886.5802	1456.3056	65535	64630.05
886.7237	1458.13	65535	64638.1
886.8671	1459.9536	65535	64637.9
887.0105	1461.7766	65535	64635.7
887.1539	1463.5987	65535	64633.55
887.2972	1465.4202	65535	64636.6
887.4406	1467.2409	65535	64637
887.584	1469.0608	65535	64637.95
887.7273	1470.88	65535	64637
887.8706	1472.6984	65535	64635.4
888.0139	1474.5161	65535	64633.8
888.1572	1476.3331	65535	64639.2
888.3005	1478.1493	65535	64637.5
888.4438	1479.9648	65535	64638.8
888.5871	1481.7795	65535	64635.95
888.7303	1483.5935	65535	64638.5
888.8736	1485.4067	65535	64637.75
889.0168	1487.2192	65535	64636.25
889.16	1489.031	65535	64633.3
889.3032	1490.842	65535	64638.2
889.4464	1492.6522	65535	64636.7
889.5896	1494.4618	65535	64635.25
889.7327	1496.2705	65535	64636.6
889.8759	1498.0785	65535	64635.75
890.019	1499.8858	65535	64636.65
890.1622	1501.6924	65535	64637.25
890.3053	1503.4981	65535	64637.7
890.4484	1505.3032	65535	64637.35
890.5914	1507.1075	65535	64634.95
890.7345	1508.911	65535	64636.7
890.8776	1510.7138	65535	64635.05
891.0206	1512.5159	65535	64637.8
891.1637	1514.3172	65535	64637.1
891.3067	1516.1178	65535	64641.25
891.4497	1517.9176	65535	64635.25
891.5927	1519.7166	65535	64635.35
891.7357	1521.515	65534.2	64633.6
891.8786	1523.3126	65522.65	64624.25
892.0216	1525.1094	65535	64635.5
892.1645	1526.9055	65528.65	64632.4
892.3074	1528.7008	65530.15	64633.95
892.4503	1530.4954	65511.5	64607.7
892.5932	1532.2893	65528.85	64633.15
892.7361	1534.0824	65500.35	64598.3
892.879	1535.8747	65457.85	64560.25
893.0218	1537.6663	65528.35	64631.25
893.1647	1539.4572	65400.35	64501.55
893.3075	1541.2473	65442.85	64543.1
893.4503	1543.0367	65436.05	64540.55
893.5931	1544.8253	65430.1	64530.2
893.7359	1546.6132	65434.5	64533.15
893.8787	1548.4003	65374.55	64466.15
894.0214	1550.1867	65345.3	64437.95
894.1642	1551.9723	65317.55	64415.3
894.3069	1553.7572	65332.35	64434
894.4496	1555.5414	65395.15	64497.25
894.5923	1557.3247	64735.6	63837.35
894.735	1559.1074	65336.55	64440.6
894.8777	1560.8893	65169.6	64274.3
895.0204	1562.6705	65259.1	64364.45
895.163	1564.4509	64823.2	63926.85
895.3056	1566.2305	65055.65	64160
895.4482	1568.0094	65268.15	64372.2
895.5908	1569.7876	65117.35	64219.95
895.7334	1571.565	64785.6	63888.3
895.876	1573.3417	64982.95	64086.5
896.0186	1575.1176	64878.6	63983.75
896.1611	1576.8928	64632.75	63736.6
896.3036	1578.6672	64169.1	63274.15
896.4461	1580.4409	64481.25	63586.95
896.5886	1582.2138	63678.05	62782.05
896.7311	1583.986	64013.35	63116.25
896.8736	1585.7575	63241.95	62347
897.0161	1587.5282	63386.3	62491.9
897.1585	1589.2981	63372.75	62478.45
897.3009	1591.0673	62611.3	61715
897.4433	1592.8358	62150.65	61257
897.5857	1594.6035	62723.8	61827.45
897.7281	1596.3704	62810.4	61913.1
897.8705	1598.1366	61774.2	60877.65
898.0128	1599.9021	61183.4	60287.2
898.1551	1601.6668	61978.7	61083.1
898.2975	1603.4308	61583.6	60686.4
898.4398	1605.194	61736.25	60833.95
898.5821	1606.9564	60542	59649
898.7243	1608.7182	61174.25	60275.65
898.8666	1610.4791	60620.75	59724.1
899.0088	1612.2394	61185.9	60292
899.1511	1613.9988	60525.7	59629.7
899.2933	1615.7576	61203.2	60308.1
899.4355	1617.5156	61097.3	60197.7
899.5776	1619.2728	62032.75	61138.05
899.7198	1621.0293	60767.65	59873.25
899.862	1622.785	60773.85	59877.65
900.0041	1624.54	61233.15	60337.65
900.1462	1626.2942	60598.75	59700.15
900.2883	1628.0477	59471.35	58573
900.4304	1629.8005	58866.05	57969.5
900.5725	1631.5525	59421.6	58526.85
900.7145	1633.3037	58277.35	57383.1
900.8566	1635.0542	58267.5	57373.9
900.9986	1636.804	58463.9	57566.8
901.1406	1638.553	57641.2	56640.45
901.2826	1640.3013	57811.75	56914.75
901.4245	1642.0488	57200.4	56302.9
901.5665	1643.7955	57459.2	56565.9
901.7085	1645.5416	57043.05	56148.4
901.8504	1647.2868	56721.85	55828
901.9923	1649.0313	57204.85	56309.9
902.1342	1650.7751	56895.5	55997.15
902.2761	1652.5181	56558.15	55664
902.4179	1654.2604	56657.1	55762.8
902.5598	1656.0019	57197.35	56304.7
902.7016	1657.7427	56986.75	56092.95
902.8434	1659.4828	57465.7	56570.15
902.9852	1661.222	57229.8	56337.7
903.127	1662.9606	57444.7	56549.75
903.2687	1664.6984	56907.6	56014.15
903.4105	1666.4354	56810.5	55914.35
903.5522	1668.1717	55817.45	54921.9
903.6939	1669.9072	55120.85	54228.85
903.8356	1671.642	54716.15	53822.1
903.9773	1673.3761	54403.45	53509.7
904.119	1675.1094	54026.4	53132.25
904.2606	1676.8419	53557.8	52664.6
904.4022	1678.5737	53358.3	52464.2
904.5439	1680.3048	52976.5	52080.05
904.6855	1682.0351	52716.4	51823.45
904.827	1683.7646	52398.7	51501.85
904.9686	1685.4934	52356.3	51462.3
905.1101	1687.2215	51720.25	50825.85
905.2517	1688.9488	51859.9	50964.35
905.3932	1690.6754	51078.15	50186.25
905.5347	1692.4012	51255.8	50363.25
905.6761	1694.1263	51089.05	50194.4
905.8176	1695.8506	50874.15	49981.25
905.9591	1697.5742	50712.35	49818.85
906.1005	1699.297	50500.9	49606.75
906.2419	1701.0191	50187.3	49294.95
906.3833	1702.7404	49967.1	49074.6
906.5246	1704.461	49673.95	48779.45
906.666	1706.1808	49546.9	48653.75
906.8073	1707.8999	49445.55	48551.25
906.9487	1709.6182	49266.1	48371.8
907.09	1711.3358	49030.45	48137
907.2313	1713.0527	48859.35	47968.2
907.3725	1714.7688	48714.35	47816.7
907.5138	1716.4841	48374.4	47480.55
907.655	1718.1987	48337.35	47439.55
907.7962	1719.9126	48170.6	47275.95
907.9374	1721.6257	48003	47108.9
908.0786	1723.338	47909.75	47015.15
908.2198	1725.0496	47517.6	46621.45
908.3609	1726.7605	47446.4	46552.25
908.502	1728.4706	47317.1	46421.9
908.6431	1730.18	47021.05	46128.8
908.7842	1731.8886	46923.35	46027.85
908.9253	1733.5964	46753.15	45841.3
909.0664	1735.3036	46634.55	45740.35
909.2074	1737.0099	46484.5	45591.7
909.3484	1738.7156	46315.45	45424.25
909.4894	1740.4204	46069	45173.6
909.6304	1742.1246	46016.2	45122.9
909.7714	1743.8279	45847.25	44954.85
909.9123	1745.5306	45761.35	44868.3
910.0532	1747.2325	45557.95	44666.6
910.1941	1748.9336	45406.8	44513.7
910.335	1750.634	45221.1	44327.3
910.4759	1752.3336	45171.25	44277.55
910.6168	1754.0325	45000.1	44107.85
910.7576	1755.7307	44857.65	43965.5
910.8984	1757.4281	44814.3	43922.2
911.0392	1759.1247	44755.5	43853.75
911.18	1760.8206	44575.9	43678.95
911.3208	1762.5158	44470.2	43571.25
911.4615	1764.2102	44286.4	43395.25
911.6022	1765.9039	44133.2	43240.55
911.7429	1767.5968	43998.55	43106.9
911.8836	1769.289	43845.35	42953.3
912.0243	1770.9804	43716.35	42824.45
912.1649	1772.6711	43664.45	42771.4
912.3056	1774.361	43493.95	42600.25
912.4462	1776.0502	43426.2	42531.5
912.5868	1777.7386	43334.5	42440
912.7274	1779.4263	43125.3	42230.35
912.8679	1781.1132	43065.85	42172.55
913.0084	1782.7994	42890.3	41996
913.149	1784.4849	42801.45	41908.9
913.2895	1786.1696	42645.5	41749.2
913.4299	1787.8535	42516.75	41624.8
913.5704	1789.5367	42427.5	41535.15
913.7108	1791.2192	42286.5	41393.65
913.8513	1792.9009	42086.05	41161.75
913.9917	1794.5818	41997.25	41103.25
914.132	1796.2621	41883.15	40992.25
914.2724	1797.9415	41783.95	40890.55
914.4128	1799.6202	41596.65	40704.85
914.5531	1801.2982	41525.05	40633.1
914.6934	1802.9755	41408.8	40515.6
914.8337	1804.6519	41334.4	40442.05
914.9739	1806.3277	41117.1	40226.35
915.1142	1808.0027	40891.6	40000.4
915.2544	1809.6769	40921.35	40028.5
915.3946	1811.3504	40767.85	39873.5
915.5348	1813.0231	40636.45	39744.2
915.675	1814.6951	40576.15	39684.35
915.8151	1816.3664	40535.15	39639.3
915.9553	1818.0369	40396.85	39504.7
916.0954	1819.7067	40255.4	39363.3
916.2355	1821.3757	40125.95	39232.65
916.3755	1823.044	40057.6	39163.95
916.5156	1824.7115	39951.8	39059.5
916.6556	1826.3783	39722.55	38829.35
916.7956	1828.0443	39598.1	38706.4
916.9356	1829.7096	39525.85	38631.7
917.0756	1831.3741	39458.5	38562.85
917.2155	1833.0379	39360	38467.3
917.3555	1834.701	39213.15	38318.9
917.4954	1836.3633	39102.85	38209.3
917.6353	1838.0248	39013.15	38118.75
917.7751	1839.6856	38903.15	38011.7
917.915	1841.3457	38837.6	37947.2
918.0548	1843.005	38718.25	37829.15
918.1946	1844.6636	38613.8	37721.7
918.3344	1846.3214	38473.4	37581.45
918.4742	1847.9785	38446.25	37553.25
918.6139	1849.6349	38290.4	37397.2
918.7537	1851.2904	38198.55	37295.85
918.8934	1852.9453	38068.95	37175.4
919.0331	1854.5994	37921	37024.85
919.1727	1856.2528	38028.65	37130.85
919.3124	1857.9054	37823.65	36932.1
919.452	1859.5572	37787.8	36895.4
919.5916	1861.2083	37607.4	36713.25
919.7312	1862.8587	37600	36709.5
919.8708	1864.5084	37466.75	36572.45
920.0103	1866.1572	37319.8	36428.25
920.1498	1867.8054	37214.9	36320.8
920.2893	1869.4528	37148.15	36254.85
920.4288	1871.0994	36968.3	36076.4
920.5683	1872.7453	36919.05	36025.15
920.7077	1874.3905	36837.15	35940.5
920.8471	1876.0349	36660.5	35767.7
920.9865	1877.6786	36657.9	35763.75
921.1259	1879.3215	36576.05	35683.15
921.2653	1880.9637	36448.95	35555.4
921.4046	1882.6051	36401.4	35509.65
921.5439	1884.2458	36302.25	35410.3
921.6832	1885.8858	36118.85	35225.8
921.8225	1887.525	36079.8	35187.65
921.9617	1889.1634	35840.65	34946.55
922.101	1890.8011	35790.05	34899.05
922.2402	1892.4381	35695.35	34804.45
922.3794	1894.0743	35659.3	34766.15
922.5185	1895.7098	35510.85	34621.85
922.6577	1897.3446	35402.35	34510.3
922.7968	1898.9786	35280.9	34385.35
922.9359	1900.6118	35222.15	34330.95
923.075	1902.2443	35051.7	34157.1
923.214	1903.8761	34952.95	34059.85
923.3531	1905.5071	34735.7	33840.1
923.4921	1907.1374	34608.3	33713.45
923.6311	1908.7669	34599.7	33706.65
923.77	1910.3957	34488.5	33595.6
923.909	1912.0237	34288.3	33398.35
924.0479	1913.651	34168.6	33276.55
924.1868	1915.2776	34044.3	33152.65
924.3257	1916.9034	33963.65	33075
924.4646	1918.5285	33716.15	32823.25
924.6034	1920.1528	33593.2	32702.2
924.7422	1921.7764	33602	32710.05
924.881	1923.3992	33417.4	32524.6
925.0198	1925.0213	33161.9	32270.1
925.1586	1926.6427	33085.7	32193.9
925.2973	1928.2633	33073.7	32073.65
925.436	1929.8832	32895.35	32000.55
925.5747	1931.5023	32691.45	31799.1
925.7134	1933.1207	32599.95	31708.95
925.852	1934.7383	32574.65	31682.4
925.9906	1936.3552	32429.4	31537.1
926.1292	1937.9714	32305.25	31413.4
926.2678	1939.5868	32184.7	31290.5
926.4064	1941.2015	31995.9	31100.75
926.5449	1942.8154	31887	30994.6
926.6834	1944.4286	31760.05	30869.5
926.8219	1946.041	31614.6	30702.65
926.9604	1947.6528	31418.8	30520.4
927.0988	1949.2637	31338.4	30448.25
927.2372	1950.8739	31203.45	30309.65
927.3756	1952.4834	31171.7	30279.1
927.514	1954.0921	31026.05	30132.4
927.6523	1955.7001	30945	30047.65
927.7907	1957.3074	30860.8	29971.25
927.929	1958.9139	30688.3	29797
928.0673	1960.5197	30642.85	29750.25
928.2055	1962.1247	30435.55	29545.4
928.3438	1963.729	30316.4	29426.5
928.482	1965.3325	30166.1	29251.35
928.6202	1966.9353	30078.25	29187.55
928.7584	1968.5374	29948.2	29056
928.8965	1970.1387	29883.85	28992.1
929.0346	1971.7393	29750.45	28858.75
929.1727	1973.3392	29699.35	28808.35
929.3108	1974.9383	29547.15	28656.25
929.4489	1976.5366	29419.1	28527.9
929.5869	1978.1342	29339.15	28447.55
929.7249	1979.7311	29318.2	28426.35
929.8629	1981.3273	29166.95	28275.5
930.0009	1982.9227	29081.3	28189.3
930.1388	1984.5173	28964.8	28073.7
930.2767	1986.1112	28787.25	27894.25
930.4146	1987.7044	28719.95	27828.5
930.5525	1989.2968	28636.25	27743.6
930.6904	1990.8885	28611.4	27716.9
930.8282	1992.4795	28538.5	27643.5
930.966	1994.0697	28367.55	27475.55
931.1038	1995.6592	28261.95	27369.4
931.2415	1997.2479	28107.45	27216.15
931.3793	1998.8359	28054.55	27162.95
931.517	2000.4232	27904.95	27012.3
931.6547	2002.0097	27787.3	26897.1
931.7923	2003.5955	27665.95	26771.55
931.93	2005.1805	27660.3	26766.3
932.0676	2006.7648	27571.6	26681.6
932.2052	2008.3484	27497.1	26603.45
932.3427	2009.9312	27488.4	26596.1
932.4803	2011.5133	27338.75	26448.85
932.6178	2013.0946	27234.65	26343.9
932.7553	2014.6752	27168.9	26279.45
932.8928	2016.2551	27073.6	26182.25
933.0302	2017.8342	26965	26074.05
933.1676	2019.4126	26866.15	25975.3
933.305	2020.9902	26737.1	25845.7
933.4424	2022.5672	26685.9	25795.25
933.5798	2024.1433	26634.55	25738.15
933.7171	2025.7188	26505	25616
933.8544	2027.2935	26422.55	25530.3
933.9917	2028.8674	26293.45	25403.55
934.129	2030.4406	26241.45	25350.55
934.2662	2032.0131	26091.05	25199.75
934.4034	2033.5849	26001.35	25103.85
934.5406	2035.1559	25959	25068.25
934.6778	2036.7261	25858	24967.1
934.8149	2038.2957	25798.95	24908.85
934.952	2039.8645	25749.85	24858.45
935.0891	2041.4325	25738.8	24844.7
935.2262	2042.9998	25592.9	24701.35
935.3632	2044.5664	25525.05	24632.9
935.5002	2046.1323	25467.05	24577.15
935.6372	2047.6974	25343.95	24452.6
935.7742	2049.2617	25272.95	24379.85
935.9111	2050.8254	25226.7	24314.6
936.048	2052.3883	25188.45	24296.15
936.1849	2053.9504	25047.45	24156.65
936.3218	2055.5118	24962.8	24070.6
936.4586	2057.0725	24850.75	23954.8
936.5955	2058.6325	24837.4	23945.55
936.7323	2060.1917	24723.55	23833.3
936.869	2061.7502	24686.7	23791.05
937.0058	2063.3079	24580.1	23689.3
937.1425	2064.8649	24458.85	23564.45
937.2792	2066.4212	24395.5	23503.75
937.4159	2067.9767	24341.35	23451.1
937.5525	2069.5315	24215.3	23324.25
937.6891	2071.0856	24103.7	23213.2
937.8257	2072.6389	24014.25	23123.35
937.9623	2074.1915	23859.45	22968.95
938.0989	2075.7433	23763.45	22871.95
938.2354	2077.2945	23681.6	22792.05
938.3719	2078.8448	23655.9	22764.55
938.5084	2080.3945	23537	22645.95
938.6448	2081.9434	23550.4	22659.1
938.7812	2083.4916	23443.3	22552.2
938.9176	2085.039	23357.6	22464.05
939.054	2086.5857	23250.4	22356.95
939.1903	2088.1317	23191.5	22298.1
939.3267	2089.677	23143.65	22251.65
939.463	2091.2215	23053.85	22161.9
939.5992	2092.7652	22995	22100.65
939.7355	2094.3083	22932.55	22040.55
939.8717	2095.8506	22891.95	22001.3
940.0079	2097.3921	22873.55	21983.05
940.1441	2098.933	22767.95	21876.05
940.2802	2100.4731	22718.2	21829
940.4163	2102.0124	22699	21800.45
940.5524	2103.5511	22587.35	21695.15
940.6885	2105.089	22524.85	21633.95
940.8245	2106.6261	22414.05	21521.75
940.9606	2108.1626	22392.75	21499.1
941.0965	2109.6983	22359.9	21441
941.2325	2111.2332	22245.4	21353.6
941.3684	2112.7675	22160.9	21268.45
941.5044	2114.301	22114.3	21220.15
941.6403	2115.8337	22077.75	21186.3
941.7761	2117.3657	21980.05	21088.5
941.912	2118.897	21964.35	21073.05
942.0478	2120.4276	21852.9	20955.85
942.1835	2121.9575	21751.85	20860.65
942.3193	2123.4866	21748.55	20844.1
942.455	2125.0149	21675.6	20781.95
942.5907	2126.5426	21541.95	20650.65
942.7264	2128.0695	21502.15	20610.5
942.8621	2129.5956	21450.4	20559.6
942.9977	2131.1211	21387.15	20491.7
943.1333	2132.6458	21336.75	20444.55
943.2689	2134.1698	21271.85	20379.3
943.4044	2135.693	21206.2	20311.65
943.54	2137.2155	21124.7	20230.45
943.6755	2138.7373	21114.25	20221.1
943.8109	2140.2584	21006.15	20115.15
943.9464	2141.7787	20927.75	20029
944.0818	2143.2983	20823.55	19932.55
944.2172	2144.8171	20712.05	19820.8
944.3526	2146.3353	20650.25	19757.05
944.4879	2147.8527	20585.4	19696.1
944.6232	2149.3693	20555.65	19663.85
944.7585	2150.8853	20490.25	19597.9
944.8938	2152.4005	20358.55	19465.05
945.029	2153.9149	20304.25	19411.3
945.1642	2155.4287	20258.35	19366.7
945.2994	2156.9417	20197.6	19303.55
945.4346	2158.454	20136.05	19242.15
945.5697	2159.9655	20100.8	19208.95
945.7048	2161.4764	20037.8	19144
945.8399	2162.9865	19978.75	19087.1
945.9749	2164.4958	19924.2	19031.25
946.1099	2166.0045	19824	18928.35
946.2449	2167.5124	19801.95	18909.45
946.3799	2169.0195	19747.6	18857.65
946.5148	2170.526	19718.1	18824.6
946.6498	2172.0317	19666.5	18774.5
946.7846	2173.5367	19580.4	18686.75
946.9195	2175.0409	19545.7	18655
947.0543	2176.5445	19515.45	18626.2
947.1891	2178.0473	19392.85	18502.7
947.3239	2179.5494	19324.6	18429.95
947.4587	2181.0507	19250.8	18358.85
947.5934	2182.5513	19200.1	18309.4
947.7281	2184.0512	19170.2	18279.85
947.8628	2185.5504	19077.3	18187.4
947.9974	2187.0488	18933.8	18042.4
948.132	2188.5465	18856.95	17965.75
948.2666	2190.0435	18800.3	17908.2
948.4012	2191.5397	18731.3	17841.05
948.5357	2193.0353	18717.05	17824.6
948.6702	2194.5301	18578	17684.85
948.8047	2196.0241	18527	17636.6
948.9392	2197.5175	18482.1	17591
949.0736	2199.0101	18413.45	17518.3
949.208	2200.502	18309.4	17418.5
949.3424	2201.9931	18232.45	17338.9
949.4767	2203.4835	18204.45	17311.6
949.611	2204.9733	18143.05	17243.95
949.7453	2206.4622	18106.15	17213.9
949.8796	2207.9505	17984.9	17089.4
950.0138	2209.438	17893.55	17003.25
950.148	2210.9248	17829.25	16936.9
950.2822	2212.4109	17765.2	16874.2
950.4164	2213.8962	17737.9	16844.05
950.5505	2215.3809	17717.1	16824.25
950.6846	2216.8648	17674.65	16780.9
950.8186	2218.3479	17561.35	16665.7
950.9527	2219.8304	17520.8	16627.85
951.0867	2221.3121	17450.05	16556.35
951.2207	2222.7931	17401.05	16511.7
951.3546	2224.2733	17303	16409.95
951.4886	2225.7529	17256.85	16364.4
951.6225	2227.2317	17165.1	16269.55
951.7563	2228.7098	17163.45	16272.1
951.8902	2230.1872	17047.75	16156.1
952.024	2231.6638	17026	16133.9
952.1578	2233.1397	16948.55	16050.7
952.2916	2234.6149	16925.55	16034.6
952.4253	2236.0894	16834.55	15942.85
952.559	2237.5632	16819.95	15920.25
952.6927	2239.0362	16724.05	15830.95
952.8263	2240.5085	16631.4	15739.25
952.9599	2241.9801	16616.4	15724.25
953.0935	2243.4509	16573.25	15681.9
953.2271	2244.921	16490.1	15597.9
953.3606	2246.3904	16431.2	15537.35
953.4941	2247.8591	16351.55	15460.35
953.6276	2249.3271	16345	15456.1
953.7611	2250.7943	16247	15353.35
953.8945	2252.2608	16165.8	15273.45
954.0279	2253.7266	16183.8	15291.45
954.1612	2255.1917	16077.1	15184.6
954.2946	2256.656	16013.5	15121.85
954.4279	2258.1197	15971.2	15079.45
954.5612	2259.5826	15929.65	15035.65
954.6944	2261.0447	15914.75	15021.6
954.8276	2262.5062	15875.45	14981.8
954.9608	2263.9669	15833.45	14939.45
955.094	2265.4269	15789.5	14898.75
955.2271	2266.8862	15697.3	14803.75
955.3602	2268.3448	15668.25	14774.3
955.4933	2269.8026	15635.7	14743.65
955.6264	2271.2598	15547.1	14654.85
955.7594	2272.7162	15497.55	14605.9
955.8924	2274.1719	15464.95	14575
956.0253	2275.6268	15426	14533.75
956.1583	2277.0811	15380.3	14488.45
956.2912	2278.5346	15336.2	14444.05
956.4241	2279.9874	15280.05	14389.35
956.5569	2281.4395	15282.05	14389.95
956.6897	2282.8908	15166.2	14268.95
956.8225	2284.3414	15137.15	14243.05
956.9553	2285.7914	15089.2	14197.05
957.088	2287.2406	14995.5	14101.85
957.2207	2288.689	15002.75	14110.35
957.3534	2290.1368	14927.1	14033.95
957.486	2291.5838	14871.2	13976.95
957.6186	2293.0302	14854.95	13960.35
957.7512	2294.4758	14760.15	13867
957.8838	2295.9206	14725.95	13830.8
958.0163	2297.3648	14663.45	13771.05
958.1488	2298.8082	14660.65	13766.75
958.2813	2300.251	14603.3	13710.4
958.4137	2301.693	14569.8	13675.45
958.5461	2303.1343	14543.15	13651.2
958.6785	2304.5748	14473.45	13582.8
958.8108	2306.0147	14390.5	13497.7
958.9432	2307.4538	14389.55	13495.15
959.0754	2308.8922	14314.55	13423.6
959.2077	2310.3299	14277.8	13384.7
959.3399	2311.7669	14231.55	13339.05
959.4721	2313.2031	14204.8	13314.45
959.6043	2314.6387	14148.4	13256.9
959.7365	2316.0735	14043.05	13151.5
959.8686	2317.5076	14041.6	13149.8
960.0006	2318.941	13998.85	13107.5
960.1327	2320.3737	13944.05	13049.6
960.2647	2321.8056	13898.05	13002.85
960.3967	2323.2369	13831.15	12939.3
960.5287	2324.6674	13824.25	12931.5
960.6606	2326.0972	13761.45	12868.4
960.7925	2327.5263	13703.65	12811.65
960.9244	2328.9547	13671.55	12780
961.0562	2330.3823	13618.7	12725.2
961.1881	2331.8092	13596.25	12701.65
961.3198	2333.2355	13539.75	12646.65
961.4516	2334.661	13535.75	12643.9
961.5833	2336.0858	13472.95	12579.8
961.715	2337.5098	13431.4	12539.05
961.8467	2338.9332	13417.1	12523.5
961.9783	2340.3558	13354.3	12459.1
962.1099	2341.7778	13303.55	12412.95
962.2415	2343.199	13246.75	12352.2
962.373	2344.6195	13201.4	12309.4
962.5045	2346.0393	13152.05	12260.1
962.636	2347.4583	13160.25	12267.4
962.7675	2348.8767	13095.65	12202.8
962.8989	2350.2943	13064.7	12171
963.0303	2351.7113	13039.8	12145.15
963.1617	2353.1275	12994.2	12101.35
963.293	2354.543	12924.65	12008.6
963.4243	2355.9578	12881.45	11987.9
963.5556	2357.3718	12787.2	11895.25
963.6868	2358.7852	12733.65	11838.75
963.818	2360.1978	12697.5	11805.45
963.9492	2361.6098	12687.9	11796.45
964.0803	2363.021	12627.45	11732.5
964.2114	2364.4315	12586.7	11695.05
964.3425	2365.8413	12549.1	11652.3
964.4736	2367.2504	12487.5	11596.2
964.6046	2368.6587	12417.6	11526.3
964.7356	2370.0664	12389.6	11497.75
964.8666	2371.4733	12330.65	11438.3
964.9975	2372.8795	12293.05	11402.8
965.1284	2374.285	12234.5	11343.95
965.2593	2375.6899	12171.2	11279.15
965.3901	2377.0939	12130.2	11237.75
965.5209	2378.4973	12068.45	11174.9
965.6517	2379.9	12045.95	11153.45
965.7825	2381.3019	11990.35	11098.95
965.9132	2382.7032	11976.1	11085.4
966.0439	2384.1037	11925.35	11035.65
966.1745	2385.5035	11888.9	10999.8
966.3051	2386.9027	11831.7	10940.3
966.4357	2388.3011	11794.1	10900.1
966.5663	2389.6987	11772.9	10882.7
966.6968	2391.0957	11708.1	10816.7
966.8273	2392.492	11626.7	10736.55
966.9578	2393.8876	11597.8	10705.6
967.0882	2395.2824	11554	10664.1
967.2186	2396.6765	11503	10612.7
967.349	2398.07	11436.85	10546.65
967.4793	2399.4627	11413.1	10521.9
967.6097	2400.8547	11373.65	10481.5
967.7399	2402.246	11313.9	10417.85
967.8702	2403.6366	11255.4	10363.2
968.0004	2405.0265	11219.1	10328.2
968.1306	2406.4156	11199.45	10303.6
968.2607	2407.8041	11129.5	10235.1
968.3909	2409.1918	11089.95	10196.15
968.521	2410.5789	11050.8	10158.95
968.651	2411.9652	11014.85	10120.65
968.781	2413.3508	10960.4	10070.4
968.911	2414.7358	10911.5	10019.45
969.041	2416.12	10901.9	10011.05
969.1709	2417.5035	10883.9	9991.3
969.3008	2418.8863	10831.55	9939.35
969.4307	2420.2684	10780	9888.2
969.5606	2421.6497	10722.7	9831.5
969.6904	2423.0304	10654.75	9764.2
969.8201	2424.4104	10645.5	9752.8
969.9499	2425.7896	10615.2	9719.15
970.0796	2427.1682	10586.15	9694.35
970.2093	2428.546	10575.1	9682.45
970.3389	2429.9232	10506.35	9613.75
970.4685	2431.2996	10498.4	9607.65
970.5981	2432.6753	10468.3	9578.05
970.7277	2434.0503	10424.6	9533.2
970.8572	2435.4246	10357.4	9467.5
970.9867	2436.7982	10319.5	9426.45
971.1161	2438.1711	10301.6	9411.35
971.2456	2439.5433	10271.05	9377.75
971.375	2440.9148	10211.95	9318.45
971.5043	2442.2856	10189.65	9297.05
971.6336	2443.6557	10181.5	9288.8
971.7629	2445.025	10126.05	9235.3
971.8922	2446.3937	10106.4	9215.15
972.0214	2447.7617	10069.2	9179.7
972.1506	2449.1289	10049.8	9158.95
972.2798	2450.4955	10031.4	9137.05
972.4089	2451.8613	9983.25	9092.45
972.538	2453.2265	9933.7	9042.15
972.6671	2454.5909	9911.9	9019.15
972.7961	2455.9546	9908.45	9018.3
972.9251	2457.3177	9842.85	8951.15
973.0541	2458.68	9820.35	8927.3
973.1831	2460.0416	9816	8924.45
973.312	2461.4025	9809	8916.25
973.4408	2462.7627	9758.25	8856.6
973.5697	2464.1222	9735.9	8845.45
973.6985	2465.4811	9699.1	8806.4
973.8273	2466.8392	9665.85	8770.55
973.956	2468.1966	9644.25	8748.3
974.0847	2469.5533	9604.8	8711.65
974.2134	2470.9093	9587.2	8693.9
974.3421	2472.2645	9554.15	8659.95
974.4707	2473.6191	9516.65	8625.4
974.5993	2474.973	9472.85	8581.65
974.7278	2476.3262	9452.65	8560
974.8563	2477.6787	9431.2	8540.45
974.9848	2479.0305	9372.25	8479.65
975.1132	2480.3816	9315.85	8421.95
975.2417	2481.7319	9297.6	8405.75
975.37	2483.0816	9255.55	8360.4
975.4984	2484.4306	9233.15	8339.9
975.6267	2485.7789	9187.7	8295.55
975.755	2487.1264	9136.75	8245.75
975.8833	2488.4733	9090.6	8199.5
976.0115	2489.8195	9093.4	8194.55
976.1397	2491.165	9053.15	8156.65
976.2678	2492.5097	9029.15	8134.8
976.3959	2493.8538	8963.75	8071.85
976.524	2495.1972	8941.55	8048.65
976.6521	2496.5398	8903.05	8010.2
976.7801	2497.8818	8885.5	7990.4
976.9081	2499.2231	8831.3	7940.9
977.036	2500.5637	8799.05	7905.05
977.164	2501.9035	8771	7879.8
977.2918	2503.2427	8755.25	7859.7
977.4197	2504.5812	8720.35	7829.8
977.5475	2505.919	8724.95	7832.25
977.6753	2507.256	8669.9	7776.8
977.8031	2508.5924	8642.9	7751.75
977.9308	2509.9281	8583.55	7686.3
978.0585	2511.2631	8582.05	7689.15
978.1861	2512.5974	8544.2	7651.5
978.3137	2513.9309	8517.25	7627.15
978.4413	2515.2638	8509.85	7581.35
978.5689	2516.596	8469.45	7578.1
978.6964	2517.9275	8427	7536.45
978.8239	2519.2583	8391.6	7500.2
978.9513	2520.5884	8361.6	7468.4
979.0788	2521.9178	8329.2	7435.6
979.2062	2523.2465	8316.75	7424.95
979.3335	2524.5745	8296.25	7404.25
979.4608	2525.9018	8227.7	7333.8
979.5881	2527.2284	8223.9	7334.7
979.7154	2528.5543	8200.75	7309.95
979.8426	2529.8796	8150	7260.9
979.9698	2531.2041	8159.95	7268.4
980.0969	2532.5279	8140.5	7250
980.224	2533.851	8117.9	7225.1
980.3511	2535.1735	8093.6	7201.2
980.4781	2536.4952	8089.2	7197.9
980.6052	2537.8163	8039.4	7147.25
980.7321	2539.1366	8021.55	7130.85
980.8591	2540.4562	8007.7	7114.8
980.986	2541.7752	7976.9	7083.8
981.1129	2543.0935	7957.6	7066.45
981.2397	2544.411	7949.05	7055.1
981.3665	2545.7279	7926.95	7034.65
981.4933	2547.0441	7888.6	6996.55
981.62	2548.3596	7904.15	7008.55
981.7467	2549.6744	7859	6967
981.8734	2550.9885	7840.6	6948.05
982.0001	2552.3019	7800.2	6907.5
982.1267	2553.6146	7781.55	6889.35
982.2532	2554.9266	7785.45	6893.15
982.3798	2556.2379	7739.7	6847.35
982.5063	2557.5485	7725.7	6835.75
982.6327	2558.8585	7712.6	6811.6
982.7592	2560.1677	7703.7	6807.7
982.8856	2561.4762	7677.25	6785.05
983.0119	2562.7841	7689.6	6795.4
983.1383	2564.0913	7646.6	6756.15
983.2646	2565.3977	7620.6	6729.95
983.3908	2566.7035	7583.05	6691.65
983.517	2568.0086	7578.65	6685.6
983.6432	2569.313	7571.05	6678.45
983.7694	2570.6167	7563.35	6667.25
983.8955	2571.9197	7513.1	6623.5
984.0216	2573.222	7507.45	6613.15
984.1476	2574.5236	7487.1	6594.2
984.2737	2575.8246	7464.5	6570.5
984.3996	2577.1248	7474	6580.4
984.5256	2578.4244	7444.35	6552.1
984.6515	2579.7232	7443.8	6551.8
984.7774	2581.0214	7436.25	6507.15
984.9032	2582.3189	7414.8	6523.4
985.029	2583.6157	7383.15	6486.95
985.1548	2584.9118	7362.7	6470.6
985.2806	2586.2072	7330.95	6439.4
985.4063	2587.5019	7306.85	6415.55
985.5319	2588.7959	7296.6	6404.4
985.6576	2590.0893	7257.1	6365.25
985.7832	2591.3819	7272.55	6382.45
985.9087	2592.6739	7227.3	6336.7
986.0343	2593.9652	7229.05	6335.65
986.1597	2595.2557	7190.9	6297.2
986.2852	2596.5456	7174.05	6280.6
986.4106	2597.8348	7133.15	6243.5
986.536	2599.1234	7120.15	6230.75
986.6614	2600.4112	7095	6204.2
986.7867	2601.6983	7058	6161.85
986.912	2602.9848	7043.9	6152.95
987.0372	2604.2705	7032.45	6131.8
987.1624	2605.5556	7008.05	6116.85
987.2876	2606.84	6973.35	6082.6
987.4128	2608.1237	6938	6045.25
987.5379	2609.4067	6927.85	6035.8
987.6629	2610.689	6893.1	5992.5
987.788	2611.9707	6891.9	5996.5
987.913	2613.2516	6873.05	5976.8
988.0379	2614.5319	6815.75	5923.4
988.1629	2615.8115	6784	5891.15
988.2878	2617.0903	6776.55	5884.6
988.4126	2618.3685	6731.15	5838.1
988.5375	2619.6461	6734.45	5842.5
988.6622	2620.9229	6716	5822.15
988.787	2622.199	6696.2	5805.1
988.9117	2623.4745	6674.15	5782.05
989.0364	2624.7493	6644.45	5751.05
989.161	2626.0234	6615.9	5725.7
989.2857	2627.2968	6606.95	5714.6
989.4102	2628.5695	6565.05	5671
989.5348	2629.8415	6554.1	5662.55
989.6593	2631.1128	6514.7	5620.2
989.7837	2632.3835	6479.9	5590.2
989.9082	2633.6535	6448.55	5554.9
990.0326	2634.9228	6433.4	5543.4
990.1569	2636.1914	6420.5	5528.3
990.2812	2637.4593	6410.5	5512.5
990.4055	2638.7265	6389.4	5495.35
990.5298	2639.9931	6371.3	5479.7
990.654	2641.259	6351.5	5459.4
990.7782	2642.5242	6334.9	5441.75
990.9023	2643.7887	6314.45	5422.65
991.0264	2645.0525	6293.1	5401.4
991.1505	2646.3156	6261.45	5366.4
991.2745	2647.5781	6253.2	5362.2
991.3985	2648.8398	6232.55	5340.55
991.5225	2650.1009	6195.7	5296
991.6464	2651.3613	6189.6	5300.7
991.7703	2652.6211	6165.3	5272.5
991.8942	2653.8801	6160.05	5271.5
992.018	2655.1385	6133.8	5239.65
992.1418	2656.3961	6129.7	5237.3
992.2655	2657.6531	6121.05	5229.3
992.3892	2658.9094	6084.85	5192.25
992.5129	2660.1651	6063.15	5171.25
992.6366	2661.42	6051.45	5160.05
992.7602	2662.6743	6033.4	5140.15
992.8837	2663.9279	6033.2	5141.7
993.0073	2665.1808	6010.6	5118.85
993.1307	2666.433	5985.1	5092.85
993.2542	2667.6846	5959.75	5066.95
993.3776	2668.9354	5981.4	5085
993.501	2670.1856	5951.25	5058.75
993.6244	2671.4351	5940.75	5048.1
993.7477	2672.6839	5920.95	5027.7
993.8709	2673.9321	5896.1	5004.6
993.9942	2675.1795	5889.75	4998.25
994.1174	2676.4263	5880.9	4989.15
994.2405	2677.6724	5862.4	4971.25
994.3637	2678.9179	5831.15	4937.65
994.4868	2680.1626	5829.5	4936.65
994.6098	2681.4067	5808.35	4915.4
994.7328	2682.6501	5806.75	4915.5
994.8558	2683.8928	5776.1	4882.85
994.9788	2685.1348	5749.05	4857.45
995.1017	2686.3761	5712.35	4821.45
995.2245	2687.6168	5692.4	4801.05
995.3474	2688.8568	5691.65	4800.85
995.4702	2690.0961	5658.5	4766.75
995.5929	2691.3348	5649.35	4757.15
995.7156	2692.5727	5639.25	4747.85
995.8383	2693.81	5617.9	4727.35
995.961	2695.0466	5594.1	4703.9
996.0836	2696.2826	5583.1	4689.4
996.2062	2697.5178	5568.05	4674.1
996.3287	2698.7524	5542.1	4648.95
996.4512	2699.9863	5546.2	4651.7
996.5737	2701.2195	5514.35	4620.4
996.6961	2702.452	5496.15	4604.75
996.8185	2703.6839	5501.2	4607.75
996.9408	2704.9151	5471.5	4579.8
997.0631	2706.1456	5447.6	4554.7
997.1854	2707.3755	5448.55	4556
997.3077	2708.6046	5433.6	4538.45
997.4299	2709.8331	5428.8	4536.05
997.552	2711.0609	5397.65	4506
997.6742	2712.2881	5425.1	4533
997.7963	2713.5145	5405.3	4512.05
997.9183	2714.7403	5409.95	4518.75
998.0403	2715.9654	5385.25	4491.6
998.1623	2717.1899	5387.9	4483.25
998.2842	2718.4136	5373.25	4481.35
998.4062	2719.6367	5368.55	4478.3
998.528	2720.8591	5360.65	4461.3
998.6498	2722.0809	5334.6	4439.75
998.7716	2723.3019	5336.9	4441.8
998.8934	2724.5223	5322.65	4430.85
999.0151	2725.7421	5313	4421.2
999.1368	2726.9611	5303.6	4410.2
999.2584	2728.1795	5277.3	4381.4
999.38	2729.3972	5261.2	4369.1
999.5016	2730.6142	5247.4	4346.7
999.6231	2731.8306	5196.2	4302.6
999.7446	2733.0462	5168.85	4275.85
999.8661	2734.2612	5144.25	4247.4
999.9875	2735.4756	5113.25	4218.7
1000.1089	2736.6892	5073.35	4180.9
1000.2302	2737.9022	5034.15	4142.85
1000.3515	2739.1145	5014.05	4123.95
1000.4728	2740.3262	4997.9	4100.1
1000.594	2741.5372	4957	4066.4
1000.7152	2742.7475	4920.7	4028.8
1000.8363	2743.9571	4915.55	4021.9
1000.9575	2745.1661	4900.25	4005.5
1001.0785	2746.3744	4870.1	3977.15
1001.1996	2747.582	4848	3957.1
1001.3206	2748.7889	4827.1	3933.6
1001.4415	2749.9952	4814.3	3923.45
1001.5625	2751.2008	4796.9	3904.2
1001.6833	2752.4057	4783.55	3889.25
1001.8042	2753.61	4755	3860.05
1001.925	2754.8136	4730.3	3836.5
1002.0458	2756.0165	4715.35	3822.35
1002.1665	2757.2188	4695.1	3805.4
1002.2872	2758.4204	4695.8	3804
1002.4078	2759.6213	4667.45	3771.75
1002.5285	2760.8215	4678.05	3782
1002.649	2762.0211	4647.25	3753.5
1002.7696	2763.22	4626.4	3731.75
1002.8901	2764.4182	4625.3	3731.65
1003.0106	2765.6158	4602.75	3709.55
1003.131	2766.8127	4595.3	3704.15
1003.2514	2768.009	4579.2	3686.9
1003.3717	2769.2045	4568.1	3673.9
1003.492	2770.3994	4538.95	3644.95
1003.6123	2771.5936	4528.25	3633.85
1003.7325	2772.7872	4521.65	3630.7
1003.8527	2773.9801	4482.1	3589.6
1003.9729	2775.1723	4475.75	3569.85
1004.093	2776.3639	4460.3	3568.35
1004.2131	2777.5548	4461.85	3567.7
1004.3331	2778.745	4445.8	3553.15
1004.4531	2779.9346	4430.85	3538.25
1004.5731	2781.1235	4422.15	3529.4
1004.693	2782.3117	4431.6	3538.8
1004.8129	2783.4992	4404.25	3511.45
1004.9328	2784.6861	4385.6	3495.1
1005.0526	2785.8723	4409.7	3516.45
1005.1723	2787.0579	4390.2	3499.25
1005.2921	2788.2428	4378.45	3483.6
1005.4118	2789.427	4388.4	3497.25
1005.5314	2790.6106	4361.3	3471.5
1005.651	2791.7935	4366.55	3472.65
1005.7706	2792.9757	4364.65	3474.25
1005.8902	2794.1573	4364.1	3469.5
1006.0097	2795.3382	4352.55	3459.35
1006.1291	2796.5184	4336.15	3446.95
1006.2485	2797.698	4358.45	3465.15
1006.3679	2798.8769	4372.7	3480.35
1006.4873	2800.0551	4354.85	3461.65
1006.6066	2801.2327	4370	3474.4
1006.7258	2802.4096	4380.95	3490.75
1006.8451	2803.5859	4372.6	3480.3
1006.9642	2804.7615	4371.3	3480.95
1007.0834	2805.9364	4387.15	3496.35
1007.2025	2807.1106	4422.85	3532
1007.3216	2808.2842	4427.5	3536.45
1007.4406	2809.4572	4459.25	3566.8
1007.5596	2810.6294	4467.3	3574.4
1007.6785	2811.801	4497.3	3607.7
1007.7975	2812.972	4538.65	3647.35
1007.9163	2814.1423	4564.25	3672.9
1008.0352	2815.3119	4613	3719.3
1008.154	2816.4808	4635	3743.9
1008.2727	2817.6491	4688.25	3795.3
1008.3914	2818.8167	4701.8	3812
1008.5101	2819.9837	4743.4	3847.8
1008.6288	2821.15	4783.35	3891.65
1008.7474	2822.3157	4821.65	3933.25
1008.8659	2823.4807	4849.8	3959.7
1008.9844	2824.645	4892.1	4001.35
1009.1029	2825.8086	4928.65	4040.05
1009.2214	2826.9716	4959.7	4068.2
1009.3398	2828.134	4987.85	4095.4
1009.4581	2829.2957	5018.9	4127.4
1009.5764	2830.4567	5040.35	4149.55
1009.6947	2831.617	5052.05	4161.15
1009.813	2832.7767	5060.35	4166.95
1009.9312	2833.9358	5039.95	4150.95
1010.0493	2835.0941	5030.75	4138.35
1010.1675	2836.2519	5019.6	4128.35
1010.2855	2837.4089	5000.85	4109.85
1010.4036	2838.5653	4970.8	4079.95
1010.5216	2839.7211	4979.15	4090.75
1010.6396	2840.8761	4970.05	4076.1
1010.7575	2842.0306	4984.5	4094.3
1010.8754	2843.1843	5001.05	4109.2
1010.9932	2844.3374	5055.6	4166.4
1011.111	2845.4899	5089.75	4197.75
1011.2288	2846.6417	5167.1	4276.4
1011.3465	2847.7928	5256.75	4366
1011.4642	2848.9433	5306.7	4416.55
1011.5818	2850.0931	5373.15	4481.65
1011.6995	2851.2422	5455.45	4561.25
1011.817	2852.3907	5532.8	4639.95
1011.9345	2853.5385	5584.75	4690.6
1012.052	2854.6857	5649.05	4733.85
1012.1695	2855.8323	5668.75	4777.8
1012.2869	2856.9781	5689.25	4797.45
1012.4042	2858.1233	5753.3	4860.5
1012.5216	2859.2679	5776.05	4885.15
1012.6389	2860.4118	5810.05	4920.3
1012.7561	2861.555	5840.95	4945.2
1012.8733	2862.6976	5884.4	4989.4
1012.9905	2863.8395	5885.25	4993.95
1013.1076	2864.9808	5909	5016.75
1013.2247	2866.1214	5904.2	5013.4
1013.3417	2867.2614	5909.8	5018.3
1013.4587	2868.4007	5909.8	5016.65
1013.5757	2869.5393	5916.15	5023.15
1013.6926	2870.6773	5925.1	5030.5
1013.8095	2871.8146	5925.25	5029.65
1013.9263	2872.9513	5907.3	5014.3
1014.0431	2874.0874	5889.7	4999.4
1014.1599	2875.2227	5868.2	4976.7
1014.2766	2876.3574	5832.35	4941.45
1014.3933	2877.4915	5829.75	4936.45
1014.51	2878.6249	5784.15	4893.2
1014.6266	2879.7577	5738.95	4845.75
1014.7431	2880.8898	5733.5	4833.3
1014.8596	2882.0212	5695.45	4804.85
1014.9761	2883.152	5676.9	4786
1015.0925	2884.2821	5650.55	4761.1
1015.2089	2885.4116	5630.45	4739.75
1015.3253	2886.5405	5617.05	4725.35
1015.4416	2887.6686	5612.95	4717.5
1015.5579	2888.7962	5611.95	4720.5
1015.6741	2889.923	5606.45	4717.25
1015.7903	2891.0493	5601.3	4713.5
1015.9065	2892.1748	5607.85	4717.05
1016.0226	2893.2997	5601.2	4710.15
1016.1387	2894.424	5629.05	4738.35
1016.2547	2895.5476	5635.8	4744.3
1016.3707	2896.6706	5637.6	4746.8
1016.4866	2897.7929	5659.1	4767.3
1016.6025	2898.9145	5683.95	4792.2
1016.7184	2900.0355	5711.7	4820.4
1016.8342	2901.1559	5744.15	4852.95
1016.95	2902.2756	5748.9	4853
1017.0658	2903.3946	5787.75	4896.5
1017.1815	2904.513	5788.6	4894.6
1017.2971	2905.6308	5825.45	4933.95
1017.4127	2906.7479	5838.6	4946.55
1017.5283	2907.8643	5846.45	4953.65
1017.6439	2908.9801	5840.6	4948.6
1017.7594	2910.0953	5849.25	4957.25
1017.8748	2911.2098	5824.25	4929.6
1017.9902	2912.3236	5805.6	4907.15
1018.1056	2913.4368	5803.65	4908.45
1018.2209	2914.5494	5760.85	4868.25
1018.3362	2915.6613	5733.6	4837.15
1018.4515	2916.7725	5721.55	4827.05
1018.5667	2917.8831	5694.9	4804.7
1018.6819	2918.9931	5645.6	4751.35
1018.797	2920.1024	5590.85	4697.9
1018.9121	2921.211	5570.1	4680.25
1019.0271	2922.319	5554.1	4662.05
1019.1421	2923.4264	5512.55	4623.45
1019.2571	2924.5331	5511.75	4621.5
1019.372	2925.6391	5469.8	4578.05
1019.4869	2926.7445	5462.85	4571.7
1019.6017	2927.8493	5445.9	4553.6
1019.7165	2928.9534	5442.9	4552.6
1019.8313	2930.0569	5410	4515.9
1019.946	2931.1597	5404.9	4513
1020.0606	2932.2619	5376.8	4487.45
1020.1753	2933.3634	5366.2	4475.9
1020.2899	2934.4643	5352.5	4456.9
1020.4044	2935.5645	5322.9	4424.4
1020.5189	2936.6641	5274	4379.15
1020.6334	2937.763	5206.2	4316.45
1020.7478	2938.8613	5165.55	4272.6
1020.8622	2939.959	5114.9	4218.3
1020.9765	2941.056	5028.45	4137.5
1021.0908	2942.1523	4931.35	4037.3
1021.2051	2943.248	4837.9	3945.75
1021.3193	2944.3431	4741.55	3850.8
1021.4334	2945.4375	4621.9	3732
1021.5476	2946.5313	4510.9	3619.9
1021.6617	2947.6244	4386.55	3495.45
1021.7757	2948.7169	4294.15	3403.7
1021.8897	2949.8087	4181.95	3289.3
1022.0037	2950.8999	4093.45	3201.35
1022.1176	2951.9904	4006.3	3115.7
1022.2315	2953.0803	3928.85	3035.95
1022.3453	2954.1696	3853.25	2962.95
1022.4591	2955.2582	3802.25	2913.25
1022.5728	2956.3462	3722.95	2831.45
1022.6865	2957.4335	3694.35	2802.7
1022.8002	2958.5202	3649.95	2754.9
1022.9138	2959.6062	3611.4	2722.15
1023.0274	2960.6916	3587.95	2697.75
1023.141	2961.7764	3565.95	2672.85
1023.2545	2962.8605	3531.25	2639.6
1023.3679	2963.9439	3511.2	2620.45
1023.4813	2965.0267	3488.7	2597.65
1023.5947	2966.1089	3475.9	2563.95
1023.708	2967.1905	3458.75	2568.35
1023.8213	2968.2714	3453.55	2563.4
1023.9346	2969.3516	3433.2	2542.5
1024.0478	2970.4312	3424.2	2522.75
1024.1609	2971.5102	3437.9	2544.6
1024.274	2972.5885	3434.9	2543.35
1024.3871	2973.6662	3425.3	2531.35
1024.5002	2974.7432	3404.9	2514.25
1024.6132	2975.8196	3398.85	2507.55
1024.7261	2976.8954	3370.7	2480.95
1024.839	2977.9705	3356.05	2463.85
1024.9519	2979.045	3343.4	2451.6
1025.0647	2980.1188	3310.7	2420.1
1025.1775	2981.192	3271.85	2380.85
1025.2902	2982.2645	3262.15	2371.05
1025.4029	2983.3364	3227.05	2335.25
1025.5156	2984.4077	3194.4	2304.3
1025.6282	2985.4783	3165.1	2267.35
1025.7407	2986.5483	3117.35	2226.15
1025.8532	2987.6177	3086.65	2198.2
1025.9657	2988.6864	3051.9	2160.65
1026.0782	2989.7545	3005.2	2113.5
1026.1906	2990.8219	2978.4	2089.35
1026.3029	2991.8887	2931.15	2038.5
1026.4152	2992.9548	2901.15	2009.1
1026.5275	2994.0204	2863.8	1974.15
1026.6397	2995.0852	2832.35	1942.55
1026.7519	2996.1495	2799.85	1906.5
1026.864	2997.2131	2771.5	1880.75
1026.9761	2998.276	2739.15	1847.4
1027.0882	2999.3383	2710.95	1818.35
1027.2002	3000.4	2692.45	1800.8
1027.3122	3001.4611	2679.8	1787.25
1027.4241	3002.5215	2669.2	1779
1027.536	3003.5812	2645	1754.8
1027.6478	3004.6404	2613.9	1722.95
1027.7596	3005.6989	2617.65	1723.1
1027.8714	3006.7567	2589.55	1697.4
1027.9831	3007.8139	2604.5	1691.4
1028.0947	3008.8705	2570.95	1678.5
1028.2064	3009.9264	2572.8	1677.7
1028.3179	3010.9818	2553.6	1662.1
1028.4295	3012.0364	2539.55	1649.2
1028.541	3013.0905	2536.4	1644.85
1028.6524	3014.1439	2534.4	1643.45
1028.7638	3015.1966	2520.8	1630.6
1028.8752	3016.2487	2504.8	1612.5
1028.9865	3017.3002	2514.25	1617
1029.0978	3018.3511	2512.25	1619.4
1029.209	3019.4013	2510.1	1619.2
1029.3202	3020.4509	2498.65	1607.75
1029.4314	3021.4998	2499.3	1608.9
1029.5425	3022.5481	2490.85	1600.4
1029.6535	3023.5958	2477.55	1584.8
1029.7645	3024.6428	2476.15	1582.75
1029.8755	3025.6892	2475.6	1586.15
1029.9864	3026.735	2479.95	1590.35
1030.0973	3027.7802	2465.85	1576.35
1030.2082	3028.8247	2460.1	1568.95
1030.319	3029.8685	2449.55	1558.2
1030.4297	3030.9118	2461.2	1570.3
1030.5404	3031.9544	2465.2	1573.85
1030.6511	3032.9963	2463.3	1572.65
1030.7617	3034.0376	2454.85	1563.85
1030.8723	3035.0783	2463.35	1570.35
1030.9829	3036.1184	2456.2	1564.15
1031.0934	3037.1578	2456.5	1565.55
1031.2038	3038.1966	2461.35	1569.8
1031.3142	3039.2348	2447	1556.3
1031.4246	3040.2723	2455.3	1555.5
1031.5349	3041.3092	2439.05	1548.45
1031.6452	3042.3455	2427.55	1535
1031.7554	3043.3811	2427.5	1537.4
1031.8656	3044.4161	2426.55	1532.8
1031.9758	3045.4505	2405.45	1515.35
1032.0859	3046.4842	2393.2	1501.1
1032.1959	3047.5173	2384.55	1494.85
1032.3059	3048.5498	2363.9	1471.05
1032.4159	3049.5816	2357.05	1468.55
1032.5258	3050.6128	2361.3	1469.7
1032.6357	3051.6434	2354.15	1461.95
1032.7455	3052.6734	2339.65	1447.3
1032.8553	3053.7027	2321.15	1431.75
1032.9651	3054.7314	2303.75	1413
1033.0748	3055.7594	2299.8	1410.3
1033.1845	3056.7868	2305.35	1414.35
1033.2941	3057.8136	2283.45	1393
1033.4037	3058.8398	2270.45	1381.55
1033.5132	3059.8653	2259.2	1368.55
1033.6227	3060.8902	2243	1351.35
1033.7321	3061.9145	2247.6	1357
1033.8415	3062.9381	2235.05	1344.05
1033.9509	3063.9612	2237.3	1331.75
1034.0602	3064.9835	2213.5	1322.65
1034.1694	3066.0053	2213.75	1320.95
1034.2787	3067.0264	2200.4	1308.65
1034.3878	3068.0469	2177.25	1284.5
1034.497	3069.0668	2172.75	1280.55
1034.6061	3070.086	2150.6	1260.9
1034.7151	3071.1046	2141.85	1251.85
1034.8241	3072.1226	2136	1243.6
1034.9331	3073.1399	2122.8	1231.7
1035.042	3074.1567	2111.9	1221.25
1035.1508	3075.1727	2104.25	1211.25
1035.2597	3076.1882	2075.15	1184.95
1035.3684	3077.203	2077.2	1188
1035.4772	3078.2173	2062.35	1169.1
1035.5859	3079.2308	2060	1165.05
1035.6945	3080.2438	2040.6	1145.65
1035.8031	3081.2561	2028.25	1139.15
1035.9117	3082.2678	2016.55	1127.2
1036.0202	3083.2789	2008.1	1117.2
1036.1286	3084.2893	1999.6	1109
1036.2371	3085.2991	1987.45	1095.9
1036.3454	3086.3083	1969.8	1073.25
1036.4538	3087.3169	1963.9	1072.35
1036.562	3088.3248	1955.4	1064.1
1036.6703	3089.3321	1951.05	1058.6
1036.7785	3090.3388	1944.55	1054.05
1036.8866	3091.3449	1932.05	1041.35
1036.9948	3092.3503	1927.1	1034.55
1037.1028	3093.3551	1911.3	1020.8
1037.2108	3094.3593	1912.1	1021.25
1037.3188	3095.3629	1899.55	1009.7
1037.4267	3096.3658	1899.15	1008.1
1037.5346	3097.3681	1880.15	990.75
1037.6425	3098.3698	1886.25	992.65
1037.7503	3099.3708	1876.2	979.95
1037.858	3100.3713	1863.1	973.35
1037.9657	3101.3711	1857.35	967.5
1038.0734	3102.3702	1951.6	947.65
1038.181	3103.3688	1856.4	963.55
1038.2886	3104.3667	1853.55	963.6
1038.3961	3105.364	1838.25	948
1038.5036	3106.3607	1830.8	938.55
1038.611	3107.3568	1823.35	931.45
1038.7184	3108.3522	1814.45	926.1
1038.8257	3109.347	1819.35	928.15
1038.933	3110.3412	1814.55	918.5
1039.0403	3111.3348	1800.85	910.05
1039.1475	3112.3277	1793.55	904.6
1039.2547	3113.32	1790.75	901.55
1039.3618	3114.3117	1786.9	897
1039.4689	3115.3028	1779.5	888.5
1039.5759	3116.2932	1774.45	880.15
1039.6829	3117.2831	1777.5	883.2
1039.7898	3118.2723	1766.85	876.65
1039.8967	3119.2608	1760.4	872.65
1040.0035	3120.2488	1761.25	871.45
1040.1103	3121.2361	1747.1	857
1040.2171	3122.2229	1749.5	857.85
1040.3238	3123.209	1742	851.15
1040.4305	3124.1944	1737.05	845.9
1040.5371	3125.1793	1731.2	840.35
1040.6437	3126.1635	1718.85	827.65
1040.7502	3127.1471	1721.85	833.25
1040.8567	3128.1301	1707.95	816.95
1040.9631	3129.1125	1716.55	826.65
1041.0695	3130.0942	1707.85	816.3
1041.1759	3131.0753	1714.3	816.1
1041.2822	3132.0558	1708.75	816.8
1041.3884	3133.0357	1700.95	808.8
1041.4946	3134.015	1691.5	800.85
1041.6008	3134.9936	1694.35	803.75
1041.7069	3135.9716	1701.15	790.3
1041.813	3136.949	1680	789.95
1041.919	3137.9258	1692.55	798.25
1042.025	3138.902	1672.55	777.35
1042.1309	3139.8775	1677.25	787.85
1042.2368	3140.8524	1665.75	775.75
1042.3427	3141.8267	1670.65	779.1
1042.4485	3142.8004	1665.9	774.05
1042.5542	3143.7735	1660.9	763.85
1042.6599	3144.7459	1651.95	759.4
1042.7656	3145.7178	1651.4	760.55
1042.8712	3146.689	1638.75	750.9
1042.9768	3147.6596	1642.15	751.05
1043.0823	3148.6295	1634.55	744.4
1043.1878	3149.5989	1629.4	740.35
1043.2932	3150.5676	1630.15	740.7
1043.3986	3151.5357	1620.15	731.05
1043.5039	3152.5032	1623.6	735.4
1043.6092	3153.4701	1615.55	725.9
1043.7145	3154.4364	1610.55	717.95
1043.8197	3155.402	1609.45	718.65
1043.9248	3156.367	1603.6	711.85
1044.03	3157.3315	1641.7	706.65
1044.135	3158.2952	1587.95	696.9
1044.24	3159.2584	1586.75	696.5
1044.345	3160.221	1589.25	699.45
1044.4499	3161.1829	1587.55	698.1
1044.5548	3162.1442	1576.2	684.55
1044.6596	3163.105	1570.8	680.85
1044.7644	3164.065	1567.75	677.1
1044.8692	3165.0245	1566.4	671.8
1044.9739	3165.9834	1555.2	668.9
1045.0785	3166.9416	1555.55	666.85
1045.1831	3167.8993	1552	661.3
1045.2877	3168.8563	1542.8	652.9
1045.3922	3169.8127	1542.5	652.85
1045.4966	3170.7684	1545.15	656.4
1045.6011	3171.7236	1535	643.85
1045.7054	3172.6782	1539.85	648.35
1045.8098	3173.6321	1537.95	646.6
1045.914	3174.5854	1534.4	641
1046.0183	3175.5381	1529.65	639.6
1046.1224	3176.4902	1520.7	629.85
1046.2266	3177.4417	1513.85	622.05
1046.3307	3178.3926	1517.1	628.6
1046.4347	3179.3428	1510.9	620.2
1046.5387	3180.2924	1502.85	614.25
1046.6427	3181.2415	1498.45	609.25
1046.7466	3182.1899	1501.25	608.1
1046.8504	3183.1377	1499.15	607.8
1046.9542	3184.0848	1495.8	603
1047.058	3185.0314	1491.8	600.4
1047.1617	3185.9773	1485.6	596.1
1047.2654	3186.9227	1480.75	590.25
1047.369	3187.8674	1484.45	595.05
1047.4726	3188.8115	1477.55	583.6
1047.5761	3189.755	1471.5	581.8
1047.6796	3190.6979	1468.2	577.35
1047.783	3191.6402	1461.85	572.85
1047.8864	3192.5818	1461	570.45
1047.9898	3193.5229	1485.6	571.65
1048.0931	3194.4633	1464.95	574.35
1048.1963	3195.4031	1462.7	573.1
1048.2995	3196.3423	1448.1	560.2
1048.4027	3197.2809	1449.2	559.7
1048.5058	3198.2189	1456.6	567.95
1048.6089	3199.1563	1452.85	554.9
1048.7119	3200.0931	1444.8	555.35
1048.8148	3201.0292	1440.45	552.05
1048.9178	3201.9648	1434.7	545.75
1049.0206	3202.8997	1436.95	543.2
1049.1235	3203.834	1423.55	532.45
1049.2262	3204.7677	1425.95	537.8
1049.329	3205.7008	1428.4	536.15
1049.4317	3206.6333	1422.85	533.85
1049.5343	3207.5652	1418.7	526.4
1049.6369	3208.4964	1420.85	529.55
1049.7394	3209.4271	1414.35	527.3
1049.8419	3210.3571	1414.7	525.95
1049.9444	3211.2865	1414.5	523.95
1050.0468	3212.2154	1409.9	519.5
1050.1491	3213.1436	1405.2	512.1
1050.2514	3214.0712	1411.25	515.15
1050.3537	3214.9982	1397.4	507.45
1050.4559	3215.9246	1393.15	502.55
1050.5581	3216.8503	1391.25	502.75
1050.6602	3217.7755	1389.95	500.05
1050.7623	3218.7001	1389.9	499.05
1050.8643	3219.624	1392.9	501.8
1050.9663	3220.5473	1388.3	498.8
1051.0682	3221.4701	1387.15	496.55
1051.1701	3222.3922	1379.95	487.05
1051.2719	3223.3137	1375.1	486.3
1051.3737	3224.2346	1378.65	487.85
1051.4754	3225.1549	1360.8	471.65
1051.5771	3226.0746	1364	474.95
1051.6788	3226.9937	1364.75	473.8
1051.7804	3227.9121	1360.15	473.2
1051.8819	3228.83	1357.5	466.95
1051.9834	3229.7473	1355.05	463.75
1052.0849	3230.6639	1358.3	469
1052.1863	3231.5799	1347	456.45
1052.2876	3232.4954	1352.7	463.6
1052.3889	3233.4102	1348.9	458.2
1052.4902	3234.3244	1346.1	455.35
1052.5914	3235.238	1343.4	454.95
1052.6926	3236.151	1366.15	455.75
1052.7937	3237.0634	1334.7	445
1052.8948	3237.9752	1330.1	441.5
1052.9958	3238.8864	1330.9	440.35
1053.0968	3239.797	1331.55	442.35
1053.1977	3240.7069	1329.35	438.7
1053.2986	3241.6163	1329.1	437.6
1053.3994	3242.5251	1323.15	432.7
1053.5002	3243.4332	1317.7	428.65
1053.6009	3244.3408	1318.6	428.85
1053.7016	3245.2477	1314.2	425.8
1053.8022	3246.154	1311.6	421.55
1053.9028	3247.0598	1312.15	422.5
1054.0034	3247.9649	1302.45	413
1054.1039	3248.8694	1305.45	416.05
1054.2043	3249.7733	1295.55	404.75
1054.3047	3250.6766	1300	410.85
1054.4051	3251.5793	1296.75	406.15
1054.5054	3252.4814	1288.5	398.9
1054.6056	3253.3829	1287.25	399.65
1054.7058	3254.2838	1289	398.6
1054.806	3255.1841	1285.8	396.2
1054.9061	3256.0838	1286.85	397.3
1055.0061	3256.9829	1275.3	387.45
1055.1062	3257.8814	1276.4	384.05
1055.2061	3258.7792	1271.9	379.4
1055.306	3259.6765	1265.65	374.9
1055.4059	3260.5731	1261	372.05
1055.5057	3261.4692	1261.8	371.85
1055.6055	3262.3647	1252.55	361.45
1055.7052	3263.2595	1247.2	357.7
1055.8049	3264.1538	1248.9	359.15
1055.9045	3265.0474	1241.65	350.05
1056.0041	3265.9404	1235.1	344
1056.1036	3266.8329	1228.25	341.25
1056.2031	3267.7247	1234.95	336.6
1056.3025	3268.616	1219.3	331.25
1056.4019	3269.5066	1206.25	315.15
1056.5013	3270.3966	1204.2	313.15
1056.6005	3271.286	1190.8	302.4
