Software Version:	3.9.2.0
Unit SN:	10000200
Spectrometer SN:	6960
Date:	3/6/2024 9:28:31 AM
Data Line Index:	25
Spectral Points:	2048
Integration time (ms):	125
Averages:	20
Delay (ms):	30
Sequence Number:	1
Processing:	dark subtract
Laser Power (mW):	300
Laser Current (mA):	820
Laser Diode Temp (C):	25.1
Laser Case Temp (C):	23.3
System Temp (C):	23
Spectrometer Temp (C):	20.7
CCD Temp (C):	-0.068
Secondary Temp (C):	20.013
Heatsink Temp (C):	17.601
CCDPCB Temp (C):	29.826
SecondaryPCB Temp (C):	25.291

Wavelength	RamanShift	Raw Counts	Dark Subtracted
787.061	30.1047	538.6	128.55
787.2016	32.3739	538.8	132.75
787.3422	34.6426	548	140.95
787.4828	36.9109	554.25	144.2
787.6235	39.1787	567.3	155.6
787.7642	41.4461	584.5	168.25
787.9049	43.7131	593.9	172.05
788.0456	45.9796	610.7	187.15
788.1863	48.2456	626.3	198.65
788.3271	50.5112	638.5	206
788.4679	52.7764	652.5	219.6
788.6087	55.0411	671.45	235.7
788.7496	57.3054	690.3	247.25
788.8904	59.5692	705.6	262.15
789.0313	61.8326	725.3	280.95
789.1722	64.0955	748.1	298.85
789.3132	66.3579	774.85	321.4
789.4541	68.6199	806.3	349.75
789.5951	70.8815	865.9	403.4
789.7361	73.1426	998.65	533.95
789.8771	75.4032	1315.85	846.05
790.0181	77.6634	2095.4	1621.75
790.1592	79.9231	3999.95	3525.4
790.3003	82.1824	8135.5	7656.8
790.4414	84.4412	15522.9	15035.9
790.5825	86.6995	25437.95	24947.05
790.7237	88.9574	34890.45	34388.55
790.8648	91.2148	41873.95	41367.3
791.006	93.4717	45109.65	44595.5
791.1472	95.7282	46511.6	45996.95
791.2885	97.9842	47146.15	46630.55
791.4297	100.2398	47580.85	47063.6
791.571	102.4949	47229.8	46707.9
791.7123	104.7495	47785.9	47262.5
791.8536	107.0036	47394.3	46867.95
791.9949	109.2573	48217.3	47694.2
792.1363	111.5105	47455.9	46929
792.2777	113.7632	48177.65	47648.7
792.4191	116.0154	48280.15	47739.95
792.5605	118.2672	48676.8	48144.2
792.7019	120.5185	48669.15	48133.2
792.8434	122.7693	48714.4	48175.1
792.9849	125.0197	48361.9	47818.75
793.1264	127.2696	49289.35	48741.5
793.2679	129.519	49348.65	48800.55
793.4094	131.7679	49806.85	49256.25
793.551	134.0163	48503.3	47947.55
793.6926	136.2642	49116.5	48557.75
793.8342	138.5117	50097.9	49535.4
793.9758	140.7587	49768.05	49208.1
794.1175	143.0052	49928.1	49364.7
794.2591	145.2512	49262.85	48697.2
794.4008	147.4967	50181.45	49612.9
794.5425	149.7417	49843.15	49272
794.6842	151.9863	50012.1	49436.45
794.826	154.2304	49232.85	48656.35
794.9677	156.4739	50014.5	49428.95
795.1095	158.717	50338.45	49756.85
795.2513	160.9596	50123.9	49533.45
795.3931	163.2017	49489.95	48898.85
795.535	165.4433	50349.45	49757.9
795.6768	167.6844	49985.4	49391.15
795.8187	169.925	50396	49798.6
795.9606	172.1651	50227.15	49624.5
796.1025	174.4047	50088.55	49482.75
796.2445	176.6439	50365.2	49758.75
796.3864	178.8825	50423.45	49815.7
796.5284	181.1206	50745.7	50132.15
796.6704	183.3582	50835.35	50218.8
796.8124	185.5954	50341.1	49721.3
796.9544	187.832	50673.7	50053
797.0965	190.0681	50324.45	49697.25
797.2386	192.3037	51148.25	50518.85
797.3806	194.5388	51923.1	51290
797.5228	196.7734	50222.3	49589.55
797.6649	199.0075	51662.05	51026.05
797.807	201.2411	51292.5	50659.75
797.9492	203.4742	52112.35	51472.7
798.0914	205.7068	52018.5	51375.45
798.2336	207.9389	51942.35	51299.85
798.3758	210.1704	51799.55	51166.2
798.518	212.4015	52612.7	51988.25
798.6603	214.632	51547.25	50928.5
798.8025	216.862	52495.7	51875.75
798.9448	219.0915	52430.8	51807.45
799.0871	221.3205	52072.75	51445.95
799.2294	223.549	52831.35	52211.55
799.3718	225.777	52804.5	52182.9
799.5141	228.0044	53025.95	52396.9
799.6565	230.2314	52831.25	52198.15
799.7989	232.4578	52767.35	52129.45
799.9413	234.6837	52826.85	52180.8
800.0837	236.909	54301.2	53652.75
800.2262	239.1339	52449.95	51782.35
800.3687	241.3582	53185.25	52530.2
800.5111	243.582	53232.05	52545.1
800.6536	245.8053	53405.2	52734.75
800.7961	248.0281	53373.6	52705.15
800.9387	250.2503	53770	53097.9
801.0812	252.472	53265.15	52590.7
801.2238	254.6932	53470.4	52798.5
801.3664	256.9139	53365.35	52690.6
801.509	259.134	54692.65	54012.1
801.6516	261.3536	53078.15	52401.3
801.7942	263.5727	54165.35	53486.5
801.9369	265.7912	53576.6	52899.75
802.0795	268.0092	53799.15	53121.75
802.2222	270.2267	53924.5	53244.5
802.3649	272.4436	53462.15	52780.25
802.5076	274.6601	54017.8	53323.6
802.6504	276.8759	54329.5	53640.8
802.7931	279.0913	54200.95	53512.5
802.9359	281.3061	54063.05	53372.8
803.0787	283.5204	54350.5	53658.95
803.2215	285.7341	54178.45	53482.75
803.3643	287.9473	54968.6	54263.9
803.5071	290.16	54281.1	53581.9
803.6499	292.3721	54858.05	54163.65
803.7928	294.5837	53949.2	53255.95
803.9357	296.7947	53645.7	52951.6
804.0786	299.0052	54574.45	53879.15
804.2215	301.2152	54029.85	53331.65
804.3644	303.4246	54848.6	54152.1
804.5074	305.6334	54798.85	54104.8
804.6503	307.8418	53898.35	53197.3
804.7933	310.0495	54312.6	53608.6
804.9363	312.2568	54075.5	53373.25
805.0793	314.4635	54095.75	53389.75
805.2223	316.6696	54357.15	53650.95
805.3653	318.8752	54818.8	54099.95
805.5084	321.0802	53397.55	52689.6
805.6514	323.2847	53870.65	53158.4
805.7945	325.4887	54010.65	53297.9
805.9376	327.692	53626.45	52913.1
806.0807	329.8949	54079.75	53365.85
806.2238	332.0972	53784.85	53068.1
806.367	334.2989	54090.65	53371.5
806.5101	336.5001	54735.7	54015.65
806.6533	338.7007	53652.85	52933.3
806.7965	340.9008	54110.45	53386.9
806.9397	343.1003	54132.9	53409.25
807.0829	345.2992	54595.05	53870.85
807.2261	347.4976	54023	53298.25
807.3693	349.6955	54205.05	53474.7
807.5126	351.8927	53848.35	53115.85
807.6559	354.0895	54357.65	53613.65
807.7991	356.2856	54174.65	53441.55
807.9424	358.4812	54639.75	53905.25
808.0857	360.6763	54005.15	53267.95
808.2291	362.8707	54303.45	53564.3
808.3724	365.0646	54048.2	53305.6
808.5158	367.258	54071.15	53327.95
808.6591	369.4508	53689	52940.25
808.8025	371.643	54254.25	53509.45
808.9459	373.8346	54045.6	53298.4
809.0893	376.0257	54023.3	53274.2
809.2327	378.2162	53850.35	53103.7
809.3762	380.4062	53426.6	52681.15
809.5196	382.5956	53612.75	52867.95
809.6631	384.7844	53754.2	53017.65
809.8066	386.9726	53844.1	53102.5
809.9501	389.1603	54007.1	53268.05
810.0936	391.3474	53318.65	52529.2
810.2371	393.5339	53909.35	53163.1
810.3806	395.7199	53091.6	52349.45
810.5241	397.9052	53223.3	52476.95
810.6677	400.09	53444.45	52697.4
810.8113	402.2743	53611.85	52863.15
810.9548	404.4579	53389.9	52642.15
811.0984	406.641	53207.1	52453.8
811.2421	408.8235	53597.15	52843.35
811.3857	411.0054	53471.1	52715.4
811.5293	413.1868	53459.5	52701.3
811.673	415.3675	53451.65	52690.1
811.8166	417.5477	53528.1	52765.3
811.9603	419.7273	53415.45	52650.05
812.104	421.9064	53177.35	52407.45
812.2477	424.0848	53329	52564.1
812.3914	426.2627	53451.8	52689.2
812.5351	428.4399	52758	51989.9
812.6788	430.6166	52490.45	51720.45
812.8226	432.7928	52966.1	52193
812.9663	434.9683	52484	51713.15
813.1101	437.1432	52536.55	51763.35
813.2539	439.3176	52820.25	52049.1
813.3977	441.4914	52142.85	51370.1
813.5415	443.6645	52195.1	51418.6
813.6853	445.8371	52187.75	51413.7
813.8291	448.0091	51803.35	51029.85
813.973	450.1806	51679.8	50906.3
814.1168	452.3514	51622.2	50843.55
814.2607	454.5216	51465.05	50678.65
814.4046	456.6913	51440.65	50661.55
814.5485	458.8603	51550.35	50772.35
814.6924	461.0288	51297.3	50520.7
814.8363	463.1967	51556.65	50779.95
814.9802	465.3639	51598.05	50819.1
815.1241	467.5306	50968.3	50187.4
815.2681	469.6967	51102.55	50320.75
815.412	471.8622	51109.4	50330.5
815.556	474.0271	51016.75	50237.05
815.7	476.1914	51011.65	50228.45
815.844	478.3551	50981.6	50198.45
815.988	480.5182	51284.25	50500.25
816.132	482.6807	50869.95	50085.6
816.276	484.8426	50990.7	50206.15
816.4201	487.0039	51358.3	50573.15
816.5641	489.1647	51259.75	50472.35
816.7082	491.3248	50922.45	50135.8
816.8522	493.4843	51294.35	50506.4
816.9963	495.6432	51229.9	50441.8
817.1404	497.8015	50741	49948.1
817.2845	499.9592	50983.4	50192.95
817.4286	502.1163	50954.55	50164.1
817.5727	504.2728	50837.1	50043.85
817.7168	506.4287	50949.15	50158.65
817.861	508.5839	50621.75	49832.1
818.0051	510.7386	50711.75	49921
818.1493	512.8927	50806.15	50004.5
818.2935	515.0461	50681.55	49887.8
818.4377	517.199	50864.2	50068.95
818.5818	519.3512	50768.4	49972.8
818.726	521.5029	50590.8	49788.95
818.8703	523.6539	50701.75	49900.25
819.0145	525.8043	50379.25	49580.5
819.1587	527.9541	50575.25	49775.35
819.303	530.1033	50423.7	49622.5
819.4472	532.2519	50245.4	49446.45
819.5915	534.3999	50333.4	49530.05
819.7357	536.5472	50464.9	49660.7
819.88	538.694	50029.35	49228.8
820.0243	540.8401	50301.1	49500.15
820.1686	542.9856	50232.35	49429.95
820.3129	545.1305	50215.85	49411.65
820.4572	547.2748	50151.9	49346.6
820.6016	549.4185	50199.05	49395.25
820.7459	551.5615	50230.95	49425.65
820.8902	553.704	50155.15	49349.8
821.0346	555.8458	49920.25	49117.7
821.1789	557.987	50026.5	49220.4
821.3233	560.1276	50063.85	49257.2
821.4677	562.2675	49977.9	49172.2
821.6121	564.4069	49935.8	49130
821.7565	566.5456	49966.2	49157.15
821.9009	568.6837	49779.45	48970.85
822.0453	570.8212	49737.4	48928.65
822.1897	572.958	49432.95	48621.2
822.3342	575.0942	49465.3	48655.65
822.4786	577.2299	49254.15	48445.9
822.6231	579.3648	49158.6	48348.1
822.7675	581.4992	48850.95	48040
822.912	583.6329	48775.4	47964.85
823.0565	585.766	48676.65	47866.35
823.201	587.8985	48688.45	47876.35
823.3454	590.0304	48426.75	47592.2
823.4899	592.1616	48501	47682.85
823.6345	594.2922	48373.35	47557.8
823.779	596.4222	48218.7	47403.9
823.9235	598.5515	48138.25	47321.75
824.068	600.6802	48019.95	47204.15
824.2126	602.8083	47750	46934.9
824.3571	604.9358	47760.6	46943.85
824.5017	607.0626	47711.3	46896.25
824.6462	609.1888	47505.1	46687.05
824.7908	611.3144	47600.6	46782
824.9354	613.4393	47427.2	46608.4
825.08	615.5636	47425.05	46605.1
825.2246	617.6873	47431.05	46612
825.3692	619.8103	47463.4	46639.5
825.5138	621.9327	47375.75	46553.05
825.6584	624.0544	47376.35	46556.85
825.803	626.1756	47289.25	46469.05
825.9477	628.2961	47215.2	46395.2
826.0923	630.4159	47085.5	46265.5
826.237	632.5351	47080.1	46257.55
826.3816	634.6537	47067.55	46243.25
826.5263	636.7716	46914.75	46087.25
826.6709	638.8889	46896.7	46070.05
826.8156	641.0056	46887.2	46062.95
826.9603	643.1216	46812.8	45985.85
827.105	645.237	46963.65	46137.15
827.2497	647.3518	46716.9	45891.6
827.3944	649.4659	46733.1	45907.35
827.5391	651.5793	46684.3	45857.15
827.6838	653.6922	46558.75	45731.85
827.8285	655.8043	46475.4	45648.8
827.9733	657.9159	46546.1	45718.4
828.118	660.0268	46304.85	45475.75
828.2627	662.137	46233.55	45404.6
828.4075	664.2466	46250.2	45418.6
828.5522	666.3556	46154.15	45323.65
828.697	668.4639	46058.2	45227.6
828.8418	670.5716	46087.3	45256.35
828.9865	672.6786	46093.5	45260.85
829.1313	674.785	45815	44981.45
829.2761	676.8907	45718	44887.6
829.4209	678.9958	45737.05	44904.6
829.5657	681.1002	45593.05	44760.45
829.7105	683.204	45539.95	44702.75
829.8553	685.3072	45474.9	44640.05
830.0001	687.4097	45360.15	44526.25
830.1449	689.5115	45332.05	44498.45
830.2898	691.6127	45380.85	44547.4
830.4346	693.7132	45198.95	44363.6
830.5794	695.8131	45300.8	44449.4
830.7243	697.9123	45291.85	44454.75
830.8691	700.0109	45178.8	44342.2
831.014	702.1089	45097.15	44260.35
831.1588	704.2061	44994.3	44157.3
831.3037	706.3028	45003.2	44164.6
831.4486	708.3987	45013.95	44177.2
831.5935	710.4941	44930.1	44090.8
831.7383	712.5887	44880.8	44041.35
831.8832	714.6827	44868.45	44027.05
832.0281	716.7761	44787.85	43946.1
832.173	718.8688	44769.55	43928.6
832.3179	720.9608	44649.55	43805.25
832.4628	723.0522	44691.8	43846.8
832.6077	725.1429	44553.15	43713.15
832.7527	727.233	44552.45	43709.95
832.8976	729.3224	44567.35	43725.1
833.0425	731.4112	44369.3	43527.35
833.1874	733.4993	44322.55	43478.2
833.3324	735.5867	44192.3	43348.6
833.4773	737.6735	44096.95	43252.15
833.6222	739.7596	44003.05	43158.55
833.7672	741.845	43957.85	43113.65
833.9122	743.9298	43864.8	43019.2
834.0571	746.014	43707	42863.3
834.2021	748.0974	43708.05	42861.95
834.347	750.1802	43520.5	42676.25
834.492	752.2624	43397.35	42552.55
834.637	754.3439	43232.5	42385.65
834.782	756.4247	43104.05	42248.9
834.9269	758.5048	42986.9	42141.25
835.0719	760.5843	42948.2	42100.75
835.2169	762.6631	42783.1	41936.05
835.3619	764.7413	42733.35	41888.15
835.5069	766.8188	42744.4	41897.25
835.6519	768.8956	42606.35	41757.7
835.7969	770.9718	42651.25	41804.9
835.9419	773.0473	42443.7	41597.7
836.0869	775.1221	42405.35	41558.5
836.232	777.1962	42257.55	41408.8
836.377	779.2697	42290.05	41440.1
836.522	781.3426	42184.1	41321.55
836.667	783.4147	42115.3	41266
836.8121	785.4862	42077.95	41230.75
836.9571	787.557	41898.9	41048.85
837.1021	789.6271	41789.6	40940.1
837.2472	791.6966	41665.45	40815.4
837.3922	793.7654	41491	40640.45
837.5373	795.8335	41427.35	40576.55
837.6823	797.901	41296.3	40445.7
837.8274	799.9678	41191.3	40337.7
837.9724	802.0339	41182	40331.35
838.1175	804.0993	41127.35	40267.8
838.2626	806.1641	41011.55	40159.9
838.4076	808.2282	40890.35	40039.8
838.5527	810.2916	40883.75	40031.7
838.6978	812.3544	40756.4	39905.85
838.8428	814.4164	40703.5	39854.05
838.9879	816.4778	40791.4	39938
839.133	818.5385	40622.35	39769.9
839.2781	820.5986	40635.7	39782.7
839.4232	822.658	40591.5	39737.2
839.5682	824.7166	40448.75	39596.95
839.7133	826.7747	40579.1	39725.6
839.8584	828.832	40519.75	39666.95
840.0035	830.8886	40360.2	39505.2
840.1486	832.9446	40345	39491.55
840.2937	834.9999	40243.35	39391.95
840.4388	837.0545	40148.8	39292.55
840.5839	839.1085	40120.1	39262.7
840.729	841.1618	39973.75	39115.35
840.8741	843.2143	39811.95	38954.9
841.0192	845.2662	39641.85	38787.05
841.1643	847.3175	39621.1	38767.2
841.3095	849.368	39505.8	38648.15
841.4546	851.4179	39485.85	38632.3
841.5997	853.467	39275.25	38421.5
841.7448	855.5155	39240.45	38382.7
841.8899	857.5633	39149.25	38292.65
842.0351	859.6105	39095.1	38239
842.1802	861.6569	39041.4	38186.05
842.3253	863.7027	38945.15	38085.6
842.4704	865.7478	38973.2	38116.05
842.6156	867.7922	38915.8	38058.2
842.7607	869.8359	38787.05	37928.4
842.9058	871.8789	38708.7	37850.5
843.0509	873.9212	38690.3	37801.4
843.1961	875.9629	38499.1	37642
843.3412	878.0039	38551.2	37691.55
843.4863	880.0441	38495.9	37638.4
843.6315	882.0837	38505.6	37644.95
843.7766	884.1226	38459.2	37599.7
843.9218	886.1609	38417.1	37558.4
844.0669	888.1984	38421.8	37563.1
844.212	890.2352	38434.25	37575.65
844.3572	892.2714	38368.2	37506.6
844.5023	894.3069	38339.75	37479.55
844.6475	896.3416	38107.95	37248.6
844.7926	898.3757	38063.55	37203.45
844.9377	900.4091	38051.25	37189.9
845.0829	902.4418	37910.25	37044.25
845.228	904.4739	37829.5	36967.1
845.3732	906.5052	37827.8	36967.15
845.5183	908.5358	37723.95	36863.75
845.6635	910.5658	37632	36766.9
845.8086	912.595	37581.4	36719
845.9538	914.6236	37440.65	36580.3
846.0989	916.6515	37362.45	36499.3
846.2441	918.6786	37251.6	36388.85
846.3892	920.7051	37239.4	36374.85
846.5344	922.7309	37226.4	36363
846.6795	924.756	37033.8	36170.3
846.8246	926.7804	37085.1	36220.35
846.9698	928.8041	36798.35	35935
847.1149	930.8272	36793.95	35929.75
847.2601	932.8495	36597.6	35734
847.4052	934.8711	36620.55	35757.85
847.5504	936.892	36429.35	35565.65
847.6955	938.9123	36371.5	35505.55
847.8407	940.9318	36321.45	35456.9
847.9858	942.9506	36194.9	35327.8
848.131	944.9688	36055.55	35192.4
848.2761	946.9862	35950.05	35084.4
848.4213	949.003	35789.25	34923.4
848.5664	951.019	35756	34891.95
848.7115	953.0344	35624.3	34757.45
848.8567	955.0491	35528.15	34661.65
849.0018	957.063	35483.2	34616.95
849.147	959.0763	35532.65	34668.25
849.2921	961.0888	35430.7	34561.85
849.4373	963.1007	35391.35	34526.45
849.5824	965.1119	35311.35	34446.8
849.7275	967.1223	35270.95	34404.75
849.8727	969.1321	35201.75	34337.15
850.0178	971.1412	35155.85	34292.05
850.1629	973.1495	35015.7	34149.5
850.3081	975.1572	34939.9	34027.3
850.4532	977.1641	34973.9	34109.3
850.5983	979.1704	34783.25	33917.4
850.7435	981.1759	34747.75	33877.4
850.8886	983.1808	34721.2	33854.15
851.0337	985.1849	34606.9	33735.7
851.1788	987.1884	34476	33607.1
851.324	989.1911	34440.35	33570.45
851.4691	991.1932	34355.35	33485.3
851.6142	993.1945	34202.05	33334.15
851.7593	995.1951	34044.2	33177.45
851.9045	997.1951	33999.25	33126.05
852.0496	999.1943	33808	32939.5
852.1947	1001.1928	33697.2	32829.1
852.3398	1003.1906	33605.95	32738.75
852.4849	1005.1877	33562.95	32694.25
852.63	1007.1841	33457.9	32589.3
852.7751	1009.1798	33307.25	32438.05
852.9202	1011.1748	33204.25	32336.65
853.0653	1013.1691	33133.55	32265
853.2104	1015.1627	32974.95	32104.7
853.3555	1017.1556	32689.8	31822.1
853.5006	1019.1477	32637.35	31768.85
853.6457	1021.1392	32463.1	31594.55
853.7908	1023.1299	32341.1	31473.3
853.9359	1025.12	32186.45	31314.8
854.081	1027.1093	32109.2	31244.65
854.2261	1029.0979	32003.95	31136
854.3712	1031.0859	31918.6	31049
854.5163	1033.0731	31828.65	30958.85
854.6613	1035.0596	31708.8	30840.85
854.8064	1037.0454	31552.05	30684.6
854.9515	1039.0304	31502.35	30631.5
855.0965	1041.0148	31352.95	30484.8
855.2416	1042.9985	31211.45	30339.7
855.3867	1044.9814	31232.65	30364.85
855.5317	1046.9636	31070.3	30196.75
855.6768	1048.9452	30989.15	30120
855.8219	1050.926	30934.4	30067.1
855.9669	1052.9061	30868.55	29998.4
856.112	1054.8855	30750.7	29881.2
856.257	1056.8642	30722.1	29851.3
856.4021	1058.8421	30704.2	29828.9
856.5471	1060.8194	30583.95	29712.6
856.6921	1062.7959	30564.65	29693.25
856.8372	1064.7717	30490.85	29619.25
856.9822	1066.7469	30389.3	29516.9
857.1272	1068.7213	30326.8	29454.95
857.2723	1070.695	30298.1	29426.95
857.4173	1072.6679	30132.05	29258.5
857.5623	1074.6402	30145.3	29272.35
857.7073	1076.6117	30105.65	29229.4
857.8523	1078.5826	30121.15	29246.9
857.9973	1080.5527	29960.1	29086
858.1423	1082.5221	29844.1	28972.85
858.2873	1084.4908	29758.4	28887.55
858.4323	1086.4587	29685.4	28812
858.5773	1088.426	29613.1	28738.8
858.7223	1090.3925	29458	28580.55
858.8673	1092.3584	29419.65	28548.25
859.0123	1094.3235	29342.3	28469.75
859.1573	1096.2879	29244.55	28371.65
859.3022	1098.2515	29197.35	28324.35
859.4472	1100.2145	29282.85	28409.6
859.5922	1102.1767	29159	28285.55
859.7371	1104.1382	29126.6	28254
859.8821	1106.099	29095.9	28221.05
860.027	1108.0591	28971.65	28098.55
860.172	1110.0185	28982.2	28107.3
860.3169	1111.9771	29020.2	28145.3
860.4619	1113.9351	28891.4	28017.5
860.6068	1115.8923	28838.55	27964.3
860.7517	1117.8488	28777.55	27900.95
860.8967	1119.8045	28685.55	27811.15
861.0416	1121.7596	28569.25	27695
861.1865	1123.7139	28371.4	27497.45
861.3314	1125.6675	28263.1	27389.95
861.4763	1127.6204	28309.45	27436.35
861.6212	1129.5726	28184.2	27309.05
861.7661	1131.524	28165.65	27289
861.911	1133.4748	28171.5	27298.2
862.0559	1135.4248	27956.5	27078.95
862.2008	1137.3741	27865.8	26992.05
862.3457	1139.3226	27735.7	26861.25
862.4905	1141.2705	27820	26946.8
862.6354	1143.2176	27626.35	26745.05
862.7803	1145.164	27602.3	26727.7
862.9251	1147.1097	27567.35	26692.25
863.07	1149.0546	27589	26713.65
863.2148	1150.9989	27536.15	26661.4
863.3597	1152.9424	27455.25	26581.1
863.5045	1154.8852	27362.6	26487.45
863.6493	1156.8272	27340.25	26466.2
863.7942	1158.7686	27356.3	26473.05
863.939	1160.7092	27202.15	26325.05
864.0838	1162.6491	27129.75	26252.45
864.2286	1164.5883	27163	26288.6
864.3734	1166.5267	27107.5	26229.95
864.5182	1168.4644	27074.4	26200
864.663	1170.4014	27023.2	26143
864.8078	1172.3377	27070.4	26196.65
864.9526	1174.2732	27010.75	26136.7
865.0974	1176.2081	27045.1	26170.15
865.2421	1178.1421	27082.85	26202.55
865.3869	1180.0755	27147.7	26270.95
865.5317	1182.0082	27108.65	26233.95
865.6764	1183.9401	27064.75	26187.65
865.8212	1185.8713	26945.9	26070.45
865.9659	1187.8017	26803.65	25927.35
866.1106	1189.7315	26724.4	25851.85
866.2554	1191.6605	26455.35	25578.5
866.4001	1193.5888	26360.4	25485.2
866.5448	1195.5163	26288.75	25413.25
866.6895	1197.4432	26178.3	25301.3
866.8342	1199.3693	26076.45	25200.4
866.9789	1201.2947	25953.65	25073.65
867.1236	1203.2193	25857.8	24981.05
867.2683	1205.1432	25822.85	24947.6
867.413	1207.0664	25778.85	24902.35
867.5576	1208.9889	25722.6	24839.9
867.7023	1210.9106	25590.8	24715.9
867.847	1212.8316	25478.7	24602.8
867.9916	1214.7519	25442.2	24556.55
868.1363	1216.6715	25347.95	24472.4
868.2809	1218.5903	25353.7	24476.5
868.4255	1220.5084	25292.2	24411.65
868.5701	1222.4257	25313.7	24436.3
868.7148	1224.3424	25163.95	24288.4
868.8594	1226.2583	25098.6	24215.45
869.004	1228.1735	25032	24151.15
869.1486	1230.0879	25009.15	24131.1
869.2932	1232.0016	24926.35	24049.7
869.4377	1233.9146	24906.05	24026.35
869.5823	1235.8269	24851.8	23975.15
869.7269	1237.7384	24868.25	23990.9
869.8715	1239.6492	24740.45	23863.9
870.016	1241.5592	24693.75	23815.7
870.1606	1243.4686	24645.75	23767.45
870.3051	1245.3772	24694.15	23817.15
870.4496	1247.285	24662.25	23784.3
870.5941	1249.1922	24653	23773.95
870.7387	1251.0986	24677.8	23802.2
870.8832	1253.0042	24606.55	23727.35
871.0277	1254.9092	24675.45	23798.65
871.1722	1256.8134	24670	23793.9
871.3167	1258.7169	24754	23874.75
871.4611	1260.6196	24729.75	23852.35
871.6056	1262.5216	24785.95	23906.4
871.7501	1264.4229	24713.5	23835.2
871.8945	1266.3234	24700.95	23821.35
872.039	1268.2232	24606.8	23727.7
872.1834	1270.1223	24500.9	23621.95
872.3278	1272.0207	24402.95	23524.25
872.4723	1273.9183	24365.85	23479.1
872.6167	1275.8151	24319.75	23441.15
872.7611	1277.7113	24284.9	23404.85
872.9055	1279.6067	24278.2	23402.05
873.0499	1281.5014	24335.4	23453.4
873.1943	1283.3953	24457.75	23578.55
873.3386	1285.2885	24623.6	23745.95
873.483	1287.181	24746.05	23864.6
873.6274	1289.0727	24816.6	23938.6
873.7717	1290.9637	24689.15	23807.05
873.9161	1292.854	24605.2	23725.8
874.0604	1294.7435	24403.3	23523.25
874.2047	1296.6323	24295.5	23417.35
874.349	1298.5204	24182.7	23300.65
874.4933	1300.4077	24067.95	23187.45
874.6376	1302.2943	24005.3	23126
874.7819	1304.1802	23988.35	23109.05
874.9262	1306.0653	23920.75	23039.2
875.0705	1307.9497	23840.6	22961.95
875.2147	1309.8333	23791.3	22914.3
875.359	1311.7162	23754.75	22876.4
875.5032	1313.5984	23733.35	22851.45
875.6475	1315.4798	23624.75	22735.9
875.7917	1317.3605	23557.25	22675.35
875.9359	1319.2405	23605.3	22722.7
876.0801	1321.1197	23535.7	22653.95
876.2243	1322.9982	23500.45	22616.45
876.3685	1324.876	23468.4	22587.2
876.5127	1326.753	23334.25	22455.55
876.6569	1328.6293	23307.5	22428.25
876.801	1330.5048	23215	22333.5
876.9452	1332.3796	23033.8	22157.05
877.0893	1334.2537	23008	22104.2
877.2335	1336.127	22917.4	22038.25
877.3776	1337.9996	22826.45	21947.05
877.5217	1339.8714	22787.6	21910.7
877.6658	1341.7426	22743.15	21818.75
877.8099	1343.6129	22686.65	21805.6
877.954	1345.4826	22614.7	21733.9
878.0981	1347.3515	22629.35	21748.35
878.2422	1349.2196	22561.6	21683.1
878.3862	1351.087	22564.2	21685.65
878.5303	1352.9537	22506.45	21627.05
878.6743	1354.8197	22453.9	21573.95
878.8184	1356.6849	22477.45	21597.05
878.9624	1358.5493	22402.55	21522.25
879.1064	1360.4131	22367.35	21488.2
879.2504	1362.276	22318.55	21440.05
879.3944	1364.1383	22381.05	21499.4
879.5384	1365.9998	22314.25	21425.85
879.6823	1367.8606	22259.85	21379.85
879.8263	1369.7206	22209.3	21327.3
879.9702	1371.5799	22165.4	21284.7
880.1142	1373.4384	22109.45	21227.25
880.2581	1375.2962	22105.5	21225.05
880.402	1377.1533	21896.15	21015.6
880.5459	1379.0096	21794.95	20913
880.6898	1380.8652	21751.75	20871.85
880.8337	1382.7201	21646.25	20766.25
880.9776	1384.5742	21535.2	20654.9
881.1215	1386.4275	21447.2	20564.65
881.2653	1388.2802	21334.6	20453.9
881.4092	1390.132	21259.8	20378.1
881.553	1391.9832	21275.15	20393.25
881.6968	1393.8336	21163.95	20282.3
881.8406	1395.6832	21107.85	20228.65
881.9844	1397.5322	21018.45	20137.2
882.1282	1399.3803	20980.95	20094.2
882.272	1401.2278	20857.45	19976.3
882.4158	1403.0745	20815.7	19933.3
882.5595	1404.9204	20690.75	19812.55
882.7033	1406.7656	20679.35	19799.35
882.847	1408.6101	20570.3	19689.6
882.9908	1410.4538	20503.3	19620.9
883.1345	1412.2968	20447.45	19564.15
883.2782	1414.139	20355.55	19475.35
883.4219	1415.9805	20373.5	19491.85
883.5656	1417.8213	20282.45	19380.6
883.7092	1419.6613	20255.75	19376.25
883.8529	1421.5006	20229.35	19347.3
883.9965	1423.3391	20180.2	19300.3
884.1402	1425.1769	20143.15	19259.7
884.2838	1427.0139	20170.35	19287.7
884.4274	1428.8502	20217.95	19336.55
884.571	1430.6858	20212.6	19330.7
884.7146	1432.5206	20144.4	19262.15
884.8582	1434.3547	20125.75	19243.8
885.0018	1436.188	20104.3	19225.05
885.1453	1438.0206	20082.55	19199.5
885.2889	1439.8524	19997	19115.05
885.4324	1441.6835	19930.85	19045.75
885.5759	1443.5139	19900.7	19016.9
885.7194	1445.3435	19866.65	18987.45
885.8629	1447.1724	19879.55	18997.55
886.0064	1449.0005	19838.4	18955.25
886.1499	1450.8279	19815.85	18932.2
886.2933	1452.6545	19765.7	18883.7
886.4368	1454.4804	19769.55	18888.85
886.5802	1456.3056	19697.6	18807.95
886.7237	1458.13	19679.7	18798.05
886.8671	1459.9536	19641.35	18759.75
887.0105	1461.7766	19544.4	18664.5
887.1539	1463.5987	19488.15	18604
887.2972	1465.4202	19416.2	18534.15
887.4406	1467.2409	19337.55	18455.65
887.584	1469.0608	19318	18436.9
887.7273	1470.88	19215.2	18331.8
887.8706	1472.6984	19159	18277.65
888.0139	1474.5161	19068.05	18182.95
888.1572	1476.3331	19037.25	18157.85
888.3005	1478.1493	19032.65	18151.1
888.4438	1479.9648	18996.15	18116.15
888.5871	1481.7795	18958.45	18076.45
888.7303	1483.5935	18936	18056.15
888.8736	1485.4067	18870.15	17989.2
889.0168	1487.2192	18858.9	17977.05
889.16	1489.031	18865.1	17982.45
889.3032	1490.842	18804.9	17923.3
889.4464	1492.6522	18797.4	17917.05
889.5896	1494.4618	18727	17843.7
889.7327	1496.2705	18714.65	17830.5
889.8759	1498.0785	18686.3	17804.3
890.019	1499.8858	18603	17721.8
890.1622	1501.6924	18545.65	17665.45
890.3053	1503.4981	18544.45	17663.1
890.4484	1505.3032	18495	17614.6
890.5914	1507.1075	18435.85	17554.25
890.7345	1508.911	18410.45	17527.05
890.8776	1510.7138	18354.25	17471.65
891.0206	1512.5159	18313.5	17432.4
891.1637	1514.3172	18281.75	17397
891.3067	1516.1178	18148.2	17267.4
891.4497	1517.9176	18154.2	17269.15
891.5927	1519.7166	18093.8	17210.75
891.7357	1521.515	18050.3	17162.85
891.8786	1523.3126	18005.8	17122.65
892.0216	1525.1094	17938.15	17055.45
892.1645	1526.9055	17851.45	16970.55
892.3074	1528.7008	17814.25	16932.5
892.4503	1530.4954	17708.8	16822
892.5932	1532.2893	17680.75	16800.2
892.7361	1534.0824	17586.6	16699.5
892.879	1535.8747	17580.95	16697.95
893.0218	1537.6663	17499.1	16615.15
893.1647	1539.4572	17425.75	16543.1
893.3075	1541.2473	17397.1	16514.65
893.4503	1543.0367	17338.05	16457.9
893.5931	1544.8253	17259.4	16373.55
893.7359	1546.6132	17230.4	16344.8
893.8787	1548.4003	17178.95	16287.15
894.0214	1550.1867	17132.4	16241.5
894.1642	1551.9723	17081.15	16193.7
894.3069	1553.7572	17054.75	16172
894.4496	1555.5414	17030.6	16146.15
894.5923	1557.3247	16998.15	16117.55
894.735	1559.1074	16964.85	16082.3
894.8777	1560.8893	16936.2	16053.8
895.0204	1562.6705	16869.7	15989.9
895.163	1564.4509	16855.95	15974.15
895.3056	1566.2305	16813.85	15933.45
895.4482	1568.0094	16835.6	15956
895.5908	1569.7876	16818.8	15938.95
895.7334	1571.565	16727.1	15845.75
895.876	1573.3417	16731.05	15850.75
896.0186	1575.1176	16700.85	15818.6
896.1611	1576.8928	16653.25	15771.85
896.3036	1578.6672	16596.45	15716.45
896.4461	1580.4409	16553.55	15673.25
896.5886	1582.2138	16555.05	15669.95
896.7311	1583.986	16493.95	15611.75
896.8736	1585.7575	16532.1	15652.5
897.0161	1587.5282	16528.65	15648.55
897.1585	1589.2981	16510.55	15631.7
897.3009	1591.0673	16449.7	15567.4
897.4433	1592.8358	16402.35	15522.1
897.5857	1594.6035	16361.15	15477.9
897.7281	1596.3704	16269.75	15386.1
897.8705	1598.1366	16194.15	15313.9
898.0128	1599.9021	16135	15252.9
898.1551	1601.6668	16014.45	15132
898.2975	1603.4308	15955	15072.1
898.4398	1605.194	15915.5	15029.4
898.5821	1606.9564	15880.35	15000.1
898.7243	1608.7182	15915.15	15030.35
898.8666	1610.4791	15919	15037.45
899.0088	1612.2394	15926.75	15047.75
899.1511	1613.9988	15945.9	15064.2
899.2933	1615.7576	16004.75	15124.65
899.4355	1617.5156	16035.2	15148.6
899.5776	1619.2728	15996.4	15117.45
899.7198	1621.0293	15892.2	15012.1
899.862	1622.785	15742.75	14858.65
900.0041	1624.54	15572.65	14687.4
900.1462	1626.2942	15436.9	14554.25
900.2883	1628.0477	15273.6	14389.55
900.4304	1629.8005	15145.55	14259.7
900.5725	1631.5525	15047.35	14165.65
900.7145	1633.3037	14975.55	14096.85
900.8566	1635.0542	14907.4	14026.05
900.9986	1636.804	14831.45	13950.35
901.1406	1638.553	14839.4	13869.3
901.2826	1640.3013	14708.6	13826.45
901.4245	1642.0488	14644.85	13762.65
901.5665	1643.7955	14599.55	13720.55
901.7085	1645.5416	14526.6	13644.05
901.8504	1647.2868	14489	13609.35
901.9923	1649.0313	14417.6	13535.65
902.1342	1650.7751	14389.55	13505.55
902.2761	1652.5181	14360.5	13480.6
902.4179	1654.2604	14290.8	13408.3
902.5598	1656.0019	14268.1	13387.15
902.7016	1657.7427	14257.95	13376.1
902.8434	1659.4828	14230.3	13350.7
902.9852	1661.222	14207.2	13324.35
903.127	1662.9606	14163.25	13281.4
903.2687	1664.6984	14152.1	13272.2
903.4105	1666.4354	14172.45	13289.15
903.5522	1668.1717	14096.55	13214.2
903.6939	1669.9072	13987.1	13106.2
903.8356	1671.642	13963.9	13079.8
903.9773	1673.3761	13898.55	13020.65
904.119	1675.1094	13822.3	12938.35
904.2606	1676.8419	13715.45	12833.95
904.4022	1678.5737	13662.5	12782.3
904.5439	1680.3048	13618.6	12735.7
904.6855	1682.0351	13526.7	12646.7
904.827	1683.7646	13461.65	12577.25
904.9686	1685.4934	13403.4	12523.3
905.1101	1687.2215	13357.6	12475
905.2517	1688.9488	13279.2	12399.45
905.3932	1690.6754	13222.5	12341.3
905.5347	1692.4012	13202.3	12321.2
905.6761	1694.1263	13191.15	12310.6
905.8176	1695.8506	13123.75	12240.9
905.9591	1697.5742	13090.4	12208
906.1005	1699.297	12986.85	12105.3
906.2419	1701.0191	12955.5	12075.45
906.3833	1702.7404	12922.4	12041.3
906.5246	1704.461	12838.95	11957.4
906.666	1706.1808	12804.4	11923.55
906.8073	1707.8999	12769.75	11888.1
906.9487	1709.6182	12701.65	11820.4
907.09	1711.3358	12671	11789.7
907.2313	1713.0527	12631.95	11752.6
907.3725	1714.7688	12594.8	11706.55
907.5138	1716.4841	12520.8	11638
907.655	1718.1987	12518.2	11631.85
907.7962	1719.9126	12487.15	11606.95
907.9374	1721.6257	12433	11548.95
908.0786	1723.338	12441.75	11558.6
908.2198	1725.0496	12343.9	11461.5
908.3609	1726.7605	12346.15	11465.8
908.502	1728.4706	12319.75	11438.4
908.6431	1730.18	12267.1	11385.1
908.7842	1731.8886	12235.95	11354.4
908.9253	1733.5964	12226.15	11321.05
909.0664	1735.3036	12194.8	11311.4
909.2074	1737.0099	12143.15	11260.85
909.3484	1738.7156	12145.2	11263.8
909.4894	1740.4204	12113.95	11229.05
909.6304	1742.1246	12090.1	11207.5
909.7714	1743.8279	12049.1	11168.55
909.9123	1745.5306	12038.65	11155.1
910.0532	1747.2325	12018.25	11138.25
910.1941	1748.9336	12002.3	11119.7
910.335	1750.634	11923.3	11039.25
910.4759	1752.3336	11900.4	11021.55
910.6168	1754.0325	11896.15	11015.7
910.7576	1755.7307	11870.9	10991.05
910.8984	1757.4281	11884.3	11002.95
911.0392	1759.1247	11864.3	10974.55
911.18	1760.8206	11836.1	10948.8
911.3208	1762.5158	11803.5	10917.25
911.4615	1764.2102	11738.9	10858.55
911.6022	1765.9039	11741.7	10859.75
911.7429	1767.5968	11715.15	10835
911.8836	1769.289	11692.05	10811.8
912.0243	1770.9804	11640.35	10760.75
912.1649	1772.6711	11653.95	10772.35
912.3056	1774.361	11596.65	10714.25
912.4462	1776.0502	11588.85	10708.65
912.5868	1777.7386	11541.1	10655.45
912.7274	1779.4263	11493.45	10608.9
912.8679	1781.1132	11517	10637.1
913.0084	1782.7994	11475.9	10593.3
913.149	1784.4849	11468.6	10589.1
913.2895	1786.1696	11444.6	10542.95
913.4299	1787.8535	11398.75	10517.85
913.5704	1789.5367	11355.9	10474.55
913.7108	1791.2192	11318.35	10437.2
913.8513	1792.9009	11295	10397.05
913.9917	1794.5818	11288.65	10409.05
914.132	1796.2621	11250.15	10369.2
914.2724	1797.9415	11234.7	10351.6
914.4128	1799.6202	11180.4	10298.15
914.5531	1801.2982	11172.05	10287.85
914.6934	1802.9755	11122.25	10240.55
914.8337	1804.6519	11125.55	10242
914.9739	1806.3277	11043.35	10162.85
915.1142	1808.0027	11033.75	10154.6
915.2544	1809.6769	11011.3	10129.8
915.3946	1811.3504	10990.65	10109.05
915.5348	1813.0231	10959.15	10077.25
915.675	1814.6951	10934.65	10054.3
915.8151	1816.3664	10923.2	10040.25
915.9553	1818.0369	10899.5	10019.15
916.0954	1819.7067	10885.35	10005
916.2355	1821.3757	10860.2	9975.95
916.3755	1823.044	10826.65	9944.65
916.5156	1824.7115	10799.5	9915.4
916.6556	1826.3783	10736.15	9855.65
916.7956	1828.0443	10749.1	9867.1
916.9356	1829.7096	10721.5	9839.6
917.0756	1831.3741	10719.65	9835.2
917.2155	1833.0379	10687.55	9808.2
917.3555	1834.701	10653.9	9768.9
917.4954	1836.3633	10635.35	9752.45
917.6353	1838.0248	10582.2	9698.35
917.7751	1839.6856	10594.85	9712.3
917.915	1841.3457	10554.5	9673.25
918.0548	1843.005	10539.4	9658.05
918.1946	1844.6636	10518.45	9638.35
918.3344	1846.3214	10494.65	9613.35
918.4742	1847.9785	10465.95	9586
918.6139	1849.6349	10434.05	9550.65
918.7537	1851.2904	10426.8	9536.15
918.8934	1852.9453	10387	9507.05
919.0331	1854.5994	10372.55	9487.25
919.1727	1856.2528	10349.65	9463.2
919.3124	1857.9054	10336.45	9454.05
919.452	1859.5572	10309.05	9428.55
919.5916	1861.2083	10303.3	9420.65
919.7312	1862.8587	10277.7	9396.5
919.8708	1864.5084	10280.35	9397.9
920.0103	1866.1572	10222.4	9342.95
920.1498	1867.8054	10187.6	9305.4
920.2893	1869.4528	10174	9291.9
920.4288	1871.0994	10118.9	9237.4
920.5683	1872.7453	10113.4	9230.75
920.7077	1874.3905	10115.1	9228.9
920.8471	1876.0349	10101.05	9218.35
920.9865	1877.6786	10084.7	9202.15
921.1259	1879.3215	10055.95	9174.75
921.2653	1880.9637	10018.15	9135.05
921.4046	1882.6051	9990.15	9109.3
921.5439	1884.2458	9971.7	9088.8
921.6832	1885.8858	9933	9051.65
921.8225	1887.525	9955	9072
921.9617	1889.1634	9893.35	9011.1
922.101	1890.8011	9878.8	8998.05
922.2402	1892.4381	9827.5	8944.7
922.3794	1894.0743	9837.1	8955.9
922.5185	1895.7098	9833.15	8951.6
922.6577	1897.3446	9803.95	8921
922.7968	1898.9786	9790.05	8904.4
922.9359	1900.6118	9766.05	8885.3
923.075	1902.2443	9722.05	8837.15
923.214	1903.8761	9703.25	8823.25
923.3531	1905.5071	9642.9	8759.5
923.4921	1907.1374	9633.65	8752.55
923.6311	1908.7669	9584.4	8700.75
923.77	1910.3957	9579.95	8698.8
923.909	1912.0237	9557.6	8675.3
924.0479	1913.651	9514.15	8629.75
924.1868	1915.2776	9495.7	8614.45
924.3257	1916.9034	9464.35	8583.9
924.4646	1918.5285	9429.7	8550.3
924.6034	1920.1528	9373.4	8490
924.7422	1921.7764	9357.3	8476.35
924.881	1923.3992	9326.55	8444.7
925.0198	1925.0213	9279.6	8398.4
925.1586	1926.6427	9251.5	8370.65
925.2973	1928.2633	9413.15	8321.65
925.436	1929.8832	9282.7	8397.25
925.5747	1931.5023	9187.45	8305.95
925.7134	1933.1207	9154.85	8272
925.852	1934.7383	9126.05	8243.7
925.9906	1936.3552	9092.35	8213
926.1292	1937.9714	9074.75	8191.35
926.2678	1939.5868	9059.75	8176.7
926.4064	1941.2015	9009.6	8129.7
926.5449	1942.8154	8976	8094.5
926.6834	1944.4286	8943.25	8061.6
926.8219	1946.041	8948.5	8043.8
926.9604	1947.6528	8896.85	8009.5
927.0988	1949.2637	8858.4	7977.9
927.2372	1950.8739	8823.25	7940.1
927.3756	1952.4834	8813.65	7932.85
927.514	1954.0921	8812.05	7928.95
927.6523	1955.7001	8773.95	7886.8
927.7907	1957.3074	8748.2	7866.65
927.929	1958.9139	8705.9	7825.55
928.0673	1960.5197	8720	7837.4
928.2055	1962.1247	8651.45	7769.05
928.3438	1963.729	8622.9	7741.9
928.482	1965.3325	8606.25	7703.9
928.6202	1966.9353	8572.8	7693.5
928.7584	1968.5374	8561.75	7679.1
928.8965	1970.1387	8544.05	7661.7
929.0346	1971.7393	8499	7618.65
929.1727	1973.3392	8472.65	7589.8
929.3108	1974.9383	8460.15	7577.6
929.4489	1976.5366	8422.05	7540.35
929.5869	1978.1342	8433.85	7552.75
929.7249	1979.7311	8391.8	7508.9
929.8629	1981.3273	8380.8	7499.3
930.0009	1982.9227	8355.5	7472.9
930.1388	1984.5173	8325.1	7445.1
930.2767	1986.1112	8266.1	7385.25
930.4146	1987.7044	8294.45	7414.5
930.5525	1989.2968	8250.65	7368.1
930.6904	1990.8885	8251.7	7370.65
930.8282	1992.4795	8226.65	7342.5
930.966	1994.0697	8206.95	7324.5
931.1038	1995.6592	8176.55	7295.15
931.2415	1997.2479	8150.6	7269.05
931.3793	1998.8359	8136.65	7256.3
931.517	2000.4232	8092.05	7212.55
931.6547	2002.0097	8072.8	7192.7
931.7923	2003.5955	8063	7182.75
931.93	2005.1805	8035.65	7154.75
932.0676	2006.7648	8017.2	7135.6
932.2052	2008.3484	8013.8	7133.15
932.3427	2009.9312	7994.4	7112.85
932.4803	2011.5133	7953.6	7073.15
932.6178	2013.0946	7928	7048.7
932.7553	2014.6752	7924.45	7044.3
932.8928	2016.2551	7906.75	7025.4
933.0302	2017.8342	7865.4	6984.6
933.1676	2019.4126	7843.55	6964
933.305	2020.9902	7798.15	6919.3
933.4424	2022.5672	7808.95	6925.7
933.5798	2024.1433	7808.9	6925.2
933.7171	2025.7188	7781.1	6902.7
933.8544	2027.2935	7757.1	6875.65
933.9917	2028.8674	7726.05	6845.25
934.129	2030.4406	7715.6	6836.95
934.2662	2032.0131	7681	6802.8
934.4034	2033.5849	7668.25	6784.2
934.5406	2035.1559	7657.85	6776.9
934.6778	2036.7261	7635	6755.85
934.8149	2038.2957	7617.05	6737.6
934.952	2039.8645	7598.95	6720.3
935.0891	2041.4325	7604.7	6720.6
935.2262	2042.9998	7578.45	6698.4
935.3632	2044.5664	7572.35	6690.15
935.5002	2046.1323	7552.9	6674.25
935.6372	2047.6974	7529.95	6650.4
935.7742	2049.2617	7511.4	6632.15
935.9111	2050.8254	7514.1	6615.3
936.048	2052.3883	7517.25	6637.6
936.1849	2053.9504	7495.15	6615.2
936.3218	2055.5118	7448	6567.6
936.4586	2057.0725	7420.65	6535.2
936.5955	2058.6325	7412.4	6532.5
936.7323	2060.1917	7404.65	6523.8
936.869	2061.7502	7383.3	6501.55
937.0058	2063.3079	7346	6465.5
937.1425	2064.8649	7334.95	6449.95
937.2792	2066.4212	7333.4	6452.75
937.4159	2067.9767	7309.5	6430.05
937.5525	2069.5315	7268.3	6388.7
937.6891	2071.0856	7255.25	6374.85
937.8257	2072.6389	7241.15	6360.6
937.9623	2074.1915	7239.55	6361.65
938.0989	2075.7433	7199.95	6317.15
938.2354	2077.2945	7178.2	6298.9
938.3719	2078.8448	7162.55	6282.25
938.5084	2080.3945	7135.45	6254.5
938.6448	2081.9434	7150.8	6270.5
938.7812	2083.4916	7112.55	6232.15
938.9176	2085.039	7105.35	6222.05
939.054	2086.5857	7074.2	6194
939.1903	2088.1317	7081.65	6202.05
939.3267	2089.677	7044.5	6162.8
939.463	2091.2215	7028.95	6149.35
939.5992	2092.7652	7033.95	6150.9
939.7355	2094.3083	7008	6127.8
939.8717	2095.8506	7016.95	6135.85
940.0079	2097.3921	7016.8	6134.7
940.1441	2098.933	6985.95	6105.2
940.2802	2100.4731	6960.4	6078.3
940.4163	2102.0124	6971.15	6074.65
940.5524	2103.5511	6955.05	6075.1
940.6885	2105.089	6930.2	6048.7
940.8245	2106.6261	6930.2	6051.3
940.9606	2108.1626	6916.25	6035.1
941.0965	2109.6983	6939.6	6029.95
941.2325	2111.2332	6893.6	6012.05
941.3684	2112.7675	6869.15	5987.25
941.5044	2114.301	6849.25	5968.4
941.6403	2115.8337	6846.9	5965.85
941.7761	2117.3657	6834.75	5955.4
941.912	2118.897	6808.65	5928.7
942.0478	2120.4276	6792.45	5907.55
942.1835	2121.9575	6768.15	5885.8
942.3193	2123.4866	6763.15	5880.5
942.455	2125.0149	6749.65	5866.45
942.5907	2126.5426	6722.25	5841.8
942.7264	2128.0695	6717.15	5832
942.8621	2129.5956	6690.15	5811.8
942.9977	2131.1211	6678.1	5791.25
943.1333	2132.6458	6664.65	5785.65
943.2689	2134.1698	6640.15	5757.95
943.4044	2135.693	6650.15	5766.55
943.54	2137.2155	6640.8	5758
943.6755	2138.7373	6618.35	5736.7
943.8109	2140.2584	6608.05	5726.4
943.9464	2141.7787	6605.2	5719.75
944.0818	2143.2983	6556.9	5678.05
944.2172	2144.8171	6518	5639.15
944.3526	2146.3353	6518.4	5635.9
944.4879	2147.8527	6497.75	5616.7
944.6232	2149.3693	6480.4	5598.95
944.7585	2150.8853	6470.05	5589.55
944.8938	2152.4005	6440.7	5559.1
945.029	2153.9149	6434.15	5554.35
945.1642	2155.4287	6425.5	5543.9
945.2994	2156.9417	6428.15	5547.9
945.4346	2158.454	6404.2	5522.6
945.5697	2159.9655	6383.7	5504.5
945.7048	2161.4764	6391.95	5511.55
945.8399	2162.9865	6357.5	5478
945.9749	2164.4958	6331.3	5449.3
946.1099	2166.0045	6318.65	5433.55
946.2449	2167.5124	6304.65	5424.65
946.3799	2169.0195	6293.4	5412.4
946.5148	2170.526	6276.25	5395.5
946.6498	2172.0317	6269.55	5389.8
946.7846	2173.5367	6257.9	5374.75
946.9195	2175.0409	6253.35	5374.55
947.0543	2176.5445	6240.95	5361.3
947.1891	2178.0473	6211.85	5329.75
947.3239	2179.5494	6203.3	5319.9
947.4587	2181.0507	6180.15	5299.05
947.5934	2182.5513	6158.9	5278.2
947.7281	2184.0512	6138.75	5256.4
947.8628	2185.5504	6135.65	5255.25
947.9974	2187.0488	6112.45	5231.65
948.132	2188.5465	6089.7	5210.95
948.2666	2190.0435	6086.85	5208.25
948.4012	2191.5397	6044.55	5163.45
948.5357	2193.0353	6028.95	5150.05
948.6702	2194.5301	5988.3	5106.2
948.8047	2196.0241	5993.35	5112.15
948.9392	2197.5175	5956.6	5075.9
949.0736	2199.0101	5939.85	5056.65
949.208	2200.502	5929.1	5051.3
949.3424	2201.9931	5911.85	5030.75
949.4767	2203.4835	5887.25	5004.7
949.611	2204.9733	5883.35	4995.95
949.7453	2206.4622	5857.9	4979.35
949.8796	2207.9505	5857.5	4973.45
950.0138	2209.438	5835.35	4957.8
950.148	2210.9248	5811.1	4928.05
950.2822	2212.4109	5820.45	4942.1
950.4164	2213.8962	5789.55	4906.9
950.5505	2215.3809	5779.7	4897.2
950.6846	2216.8648	5758.4	4878.55
950.8186	2218.3479	5730.95	4846.6
950.9527	2219.8304	5707.85	4826.35
951.0867	2221.3121	5721.1	4839.95
951.2207	2222.7931	5686.2	4806.2
951.3546	2224.2733	5670.05	4788.7
951.4886	2225.7529	5652.05	4771.25
951.6225	2227.2317	5632.2	4748.55
951.7563	2228.7098	5628.1	4747.8
951.8902	2230.1872	5595.95	4714.75
952.024	2231.6638	5599.75	4721
952.1578	2233.1397	5574.85	4689.55
952.2916	2234.6149	5579.7	4701.6
952.4253	2236.0894	5543.15	4659.5
952.559	2237.5632	5549.05	4667.25
952.6927	2239.0362	5515.4	4634.9
952.8263	2240.5085	5503.5	4622.85
952.9599	2241.9801	5481.75	4602.15
953.0935	2243.4509	5463	4582.5
953.2271	2244.921	5469.6	4589.5
953.3606	2246.3904	5446.15	4562.9
953.4941	2247.8591	5408.25	4530.3
953.6276	2249.3271	5386.5	4507.4
953.7611	2250.7943	5378.85	4497.5
953.8945	2252.2608	5386.65	4507.35
954.0279	2253.7266	5361.1	4480.3
954.1612	2255.1917	5338.7	4457.8
954.2946	2256.656	5321.25	4439.9
954.4279	2258.1197	5310.3	4430.7
954.5612	2259.5826	5295.85	4412.65
954.6944	2261.0447	5288.9	4408.35
954.8276	2262.5062	5262.05	4382.15
954.9608	2263.9669	5263.35	4383.5
955.094	2265.4269	5251.15	4369.85
955.2271	2266.8862	5229.4	4348.2
955.3602	2268.3448	5234.2	4351.9
955.4933	2269.8026	5230.35	4348.65
955.6264	2271.2598	5195.9	4315.5
955.7594	2272.7162	5166.15	4286.2
955.8924	2274.1719	5176.25	4295.5
956.0253	2275.6268	5143.5	4263.1
956.1583	2277.0811	5168.95	4286.1
956.2912	2278.5346	5154.55	4276.3
956.4241	2279.9874	5122	4242
956.5569	2281.4395	5120.55	4238.45
956.6897	2282.8908	5106.65	4222.35
956.8225	2284.3414	5089.7	4208.65
956.9553	2285.7914	5080.7	4202.75
957.088	2287.2406	5069	4187.45
957.2207	2288.689	5061.25	4179.5
957.3534	2290.1368	5027.8	4144.5
957.486	2291.5838	5040.25	4158.55
957.6186	2293.0302	5006.9	4126.6
957.7512	2294.4758	4991.8	4111.2
957.8838	2295.9206	4967.5	4083.7
958.0163	2297.3648	4952.95	4073.4
958.1488	2298.8082	4954.75	4074.1
958.2813	2300.251	4946.8	4067.5
958.4137	2301.693	4932.65	4048.95
958.5461	2303.1343	4925.65	4044.8
958.6785	2304.5748	4916.9	4035.25
958.8108	2306.0147	4893.3	4011.9
958.9432	2307.4538	4886.75	4005.65
959.0754	2308.8922	4872.4	3994
959.2077	2310.3299	4861.7	3980.8
959.3399	2311.7669	4824.8	3943.6
959.4721	2313.2031	4831.7	3953.05
959.6043	2314.6387	4820	3939.75
959.7365	2316.0735	4795.4	3917.15
959.8686	2317.5076	4778.4	3897.5
960.0006	2318.941	4774.45	3893.2
960.1327	2320.3737	4766.45	3886.15
960.2647	2321.8056	4760.25	3874.2
960.3967	2323.2369	4737.85	3858.75
960.5287	2324.6674	4738	3855.45
960.6606	2326.0972	4716.5	3832.7
960.7925	2327.5263	4704.1	3823.65
960.9244	2328.9547	4688.1	3807.95
961.0562	2330.3823	4681.85	3802.75
961.1881	2331.8092	4678.6	3793.35
961.3198	2333.2355	4648.3	3768
961.4516	2334.661	4637.7	3755.2
961.5833	2336.0858	4615.95	3733.2
961.715	2337.5098	4610.6	3731.55
961.8467	2338.9332	4614.3	3733.7
961.9783	2340.3558	4598.65	3713.6
962.1099	2341.7778	4575.85	3694.6
962.2415	2343.199	4545.95	3664.5
962.373	2344.6195	4545	3664.9
962.5045	2346.0393	4553.65	3673.15
962.636	2347.4583	4548.3	3670.8
962.7675	2348.8767	4527.2	3643.35
962.8989	2350.2943	4517.65	3636.8
963.0303	2351.7113	4498.15	3615.5
963.1617	2353.1275	4487.75	3607.1
963.293	2354.543	4498.85	3609.95
963.4243	2355.9578	4478.8	3596.7
963.5556	2357.3718	4441.45	3562
963.6868	2358.7852	4441.25	3557.4
963.818	2360.1978	4437.55	3555.6
963.9492	2361.6098	4415.85	3535.25
964.0803	2363.021	4407.3	3524.15
964.2114	2364.4315	4396.5	3516.6
964.3425	2365.8413	4379.4	3493.85
964.4736	2367.2504	4378.15	3498.65
964.6046	2368.6587	4343.3	3460.35
964.7356	2370.0664	4322.75	3442.05
964.8666	2371.4733	4317.45	3434.6
964.9975	2372.8795	4305.55	3426.15
965.1284	2374.285	4290.1	3410.55
965.2593	2375.6899	4275.25	3394.05
965.3901	2377.0939	4253.9	3376.3
965.5209	2378.4973	4257.85	3374.35
965.6517	2379.9	4246.35	3363.65
965.7825	2381.3019	4226.65	3346.3
965.9132	2382.7032	4219.25	3338.4
966.0439	2384.1037	4206.8	3329.1
966.1745	2385.5035	4195.05	3312.3
966.3051	2386.9027	4169.45	3289.6
966.4357	2388.3011	4163.3	3277.4
966.5663	2389.6987	4163.7	3281.5
966.6968	2391.0957	4157.5	3275.45
966.8273	2392.492	4133.05	3252.6
966.9578	2393.8876	4108.4	3225.3
967.0882	2395.2824	4102.75	3223.8
967.2186	2396.6765	4094.85	3215.75
967.349	2398.07	4088.5	3209.7
967.4793	2399.4627	4076.3	3192.3
967.6097	2400.8547	4049.45	3166.95
967.7399	2402.246	4065	3178.25
967.8702	2403.6366	4030.6	3149
968.0004	2405.0265	4008.4	3125.4
968.1306	2406.4156	4000.55	3113.5
968.2607	2407.8041	3978.35	3093.05
968.3909	2409.1918	3970.3	3085.4
968.521	2410.5789	3973.05	3090.45
968.651	2411.9652	3960.55	3074.9
968.781	2413.3508	3947.75	3066.45
968.911	2414.7358	3926.95	3044.65
969.041	2416.12	3916	3034.2
969.1709	2417.5035	3910.15	3029.25
969.3008	2418.8863	3892.15	3009.8
969.4307	2420.2684	3880.7	2998.65
969.5606	2421.6497	3869.55	2986.6
969.6904	2423.0304	3837.35	2956.65
969.8201	2424.4104	3839.05	2956.35
969.9499	2425.7896	3829.95	2948.65
970.0796	2427.1682	3807.75	2925.65
970.2093	2428.546	3806.6	2924.8
970.3389	2429.9232	3791.15	2908.15
970.4685	2431.2996	3779.8	2897.45
970.5981	2432.6753	3788.05	2907.2
970.7277	2434.0503	3757.4	2875.45
970.8572	2435.4246	3750.4	2868.85
970.9867	2436.7982	3754.5	2871.15
971.1161	2438.1711	3732.8	2853.75
971.2456	2439.5433	3719.45	2835.05
971.375	2440.9148	3713.15	2828.05
971.5043	2442.2856	3689.45	2808.55
971.6336	2443.6557	3691.35	2808.7
971.7629	2445.025	3679.95	2798.6
971.8922	2446.3937	3677.25	2794.6
972.0214	2447.7617	3656.05	2775.2
972.1506	2449.1289	3675.65	2795.35
972.2798	2450.4955	3645.45	2759.15
972.4089	2451.8613	3643.1	2762.55
972.538	2453.2265	3639.65	2758.9
972.6671	2454.5909	3616.9	2734.8
972.7961	2455.9546	3612.7	2730.55
972.9251	2457.3177	3597.6	2717.55
973.0541	2458.68	3597.7	2714.2
973.1831	2460.0416	3575.3	2693.8
973.312	2461.4025	3583.3	2701.85
973.4408	2462.7627	3594.85	2700.85
973.5697	2464.1222	3575.6	2694.5
973.6985	2465.4811	3565	2682.3
973.8273	2466.8392	3547.3	2665.3
973.956	2468.1966	3539.1	2656.3
974.0847	2469.5533	3543.75	2661.55
974.2134	2470.9093	3509.9	2628.05
974.3421	2472.2645	3509.9	2629.35
974.4707	2473.6191	3506.5	2625.2
974.5993	2474.973	3493.9	2615.5
974.7278	2476.3262	3486.8	2602.85
974.8563	2477.6787	3466.15	2585.95
974.9848	2479.0305	3447.5	2567.95
975.1132	2480.3816	3438.8	2554.95
975.2417	2481.7319	3438.75	2555.95
975.37	2483.0816	3433.6	2550.3
975.4984	2484.4306	3415.45	2532.8
975.6267	2485.7789	3399.75	2519.35
975.755	2487.1264	3387.85	2504.3
975.8833	2488.4733	3387.65	2507.25
976.0115	2489.8195	3389.3	2500.15
976.1397	2491.165	3355.55	2473
976.2678	2492.5097	3356.75	2473.9
976.3959	2493.8538	3348.4	2467.25
976.524	2495.1972	3328.1	2446.25
976.6521	2496.5398	3316.65	2435.05
976.7801	2497.8818	3320.05	2436.2
976.9081	2499.2231	3308.1	2427.3
977.036	2500.5637	3293.65	2411.3
977.164	2501.9035	3281.9	2399.55
977.2918	2503.2427	3280.8	2395.3
977.4197	2504.5812	3280.8	2399.45
977.5475	2505.919	3262.35	2376.55
977.6753	2507.256	3259.4	2378.9
977.8031	2508.5924	3238.6	2358.15
977.9308	2509.9281	3239.6	2349.85
978.0585	2511.2631	3224	2343.2
978.1861	2512.5974	3216.1	2333.95
978.3137	2513.9309	3211.85	2331.7
978.4413	2515.2638	3229.75	2321.85
978.5689	2516.596	3182.6	2300.6
978.6964	2517.9275	3169.75	2284.1
978.8239	2519.2583	3173.4	2291.35
978.9513	2520.5884	3164.85	2280.5
979.0788	2521.9178	3145.95	2265.1
979.2062	2523.2465	3145.2	2264.05
979.3335	2524.5745	3141.65	2259.7
979.4608	2525.9018	3137	2257.8
979.5881	2527.2284	3126.25	2243.8
979.7154	2528.5543	3108.05	2228.95
979.8426	2529.8796	3105.55	2225
979.9698	2531.2041	3110.35	2230.45
980.0969	2532.5279	3092.85	2212.5
980.224	2533.851	3092.2	2212.65
980.3511	2535.1735	3067.15	2184.85
980.4781	2536.4952	3055.25	2174.95
980.6052	2537.8163	3062.6	2178.9
980.7321	2539.1366	3051.05	2170.15
980.8591	2540.4562	3052.1	2168.8
980.986	2541.7752	3041.75	2161.45
981.1129	2543.0935	3029.85	2147.65
981.2397	2544.411	3030.45	2148.65
981.3665	2545.7279	3013.55	2132.85
981.4933	2547.0441	3027.3	2145.95
981.62	2548.3596	3014.65	2131.05
981.7467	2549.6744	3008.85	2127.95
981.8734	2550.9885	2990.9	2100.7
982.0001	2552.3019	2993.25	2114.35
982.1267	2553.6146	2980.55	2099.1
982.2532	2554.9266	2981.2	2099.35
982.3798	2556.2379	2975.85	2094.2
982.5063	2557.5485	2959	2078.3
982.6327	2558.8585	2969.3	2078.3
982.7592	2560.1677	2955.9	2071.75
982.8856	2561.4762	2951.15	2067.7
983.0119	2562.7841	2954.75	2071.65
983.1383	2564.0913	2932.7	2051.3
983.2646	2565.3977	2928.8	2049.85
983.3908	2566.7035	2924.85	2042.3
983.517	2568.0086	2929.2	2046.55
983.6432	2569.313	2925.75	2042.7
983.7694	2570.6167	2924.9	2040.3
983.8955	2571.9197	2911.9	2029.85
984.0216	2573.222	2906.55	2021.05
984.1476	2574.5236	2899.3	2016.85
984.2737	2575.8246	2880.7	1997.75
984.3996	2577.1248	2885.25	2001.8
984.5256	2578.4244	2874.9	1994.7
984.6515	2579.7232	2873.95	1991.95
984.7774	2581.0214	2893	1986.2
984.9032	2582.3189	2864.15	1982.6
985.029	2583.6157	2860.05	1974.6
985.1548	2584.9118	2837.3	1957.9
985.2806	2586.2072	2835.7	1955.2
985.4063	2587.5019	2836.75	1957.1
985.5319	2588.7959	2831.8	1948.8
985.6576	2590.0893	2828.95	1947.1
985.7832	2591.3819	2817.95	1937.8
985.9087	2592.6739	2810.9	1930.7
986.0343	2593.9652	2793.2	1910.15
986.1597	2595.2557	2792.85	1912.75
986.2852	2596.5456	2786.65	1903.6
986.4106	2597.8348	2774.8	1893
986.536	2599.1234	2764.8	1884.7
986.6614	2600.4112	2766.6	1883.05
986.7867	2601.6983	2760.9	1875.65
986.912	2602.9848	2750.6	1869.95
987.0372	2604.2705	2748.55	1860.25
987.1624	2605.5556	2731	1847.8
987.2876	2606.84	2721.95	1840.65
987.4128	2608.1237	2721.9	1839.75
987.5379	2609.4067	2712.35	1832.65
987.6629	2610.689	2696.15	1804.6
987.788	2611.9707	2685.1	1803.2
987.913	2613.2516	2681.75	1796.7
988.0379	2614.5319	2676.75	1795.8
988.1629	2615.8115	2665.8	1782.55
988.2878	2617.0903	2656.4	1774.45
988.4126	2618.3685	2659.35	1777.6
988.5375	2619.6461	2635.95	1755.55
988.6622	2620.9229	2633.95	1752.9
988.787	2622.199	2636.7	1756.35
988.9117	2623.4745	2624.95	1743.55
989.0364	2624.7493	2624.8	1744.85
989.161	2626.0234	2617.6	1736.15
989.2857	2627.2968	2601.2	1720.25
989.4102	2628.5695	2598.7	1716.95
989.5348	2629.8415	2579.75	1697.65
989.6593	2631.1128	2563.2	1680.7
989.7837	2632.3835	2564.3	1682.75
989.9082	2633.6535	2561.6	1679.3
990.0326	2634.9228	2559.25	1678
990.1569	2636.1914	2557.1	1677.05
990.2812	2637.4593	2547.25	1658.45
990.4055	2638.7265	2533.9	1650.75
990.5298	2639.9931	2522.35	1641.7
990.654	2641.259	2530.7	1646.9
990.7782	2642.5242	2519.45	1636.85
990.9023	2643.7887	2517.3	1635.5
991.0264	2645.0525	2510.25	1627.8
991.1505	2646.3156	2500	1617.2
991.2745	2647.5781	2487.5	1607.75
991.3985	2648.8398	2483.2	1604.4
991.5225	2650.1009	2514.4	1594.15
991.6464	2651.3613	2478.25	1596.4
991.7703	2652.6211	2473.8	1593.1
991.8942	2653.8801	2456.65	1576.7
992.018	2655.1385	2459.6	1574.8
992.1418	2656.3961	2440.8	1559.85
992.2655	2657.6531	2445	1563
992.3892	2658.9094	2441.3	1558.7
992.5129	2660.1651	2433.1	1553.4
992.6366	2661.42	2427.2	1546.1
992.7602	2662.6743	2437.15	1554.25
992.8837	2663.9279	2425.7	1545.05
993.0073	2665.1808	2413.35	1531.95
993.1307	2666.433	2415.55	1532.6
993.2542	2667.6846	2402	1521.5
993.3776	2668.9354	2407.95	1524.6
993.501	2670.1856	2389.95	1508.2
993.6244	2671.4351	2379.6	1499.75
993.7477	2672.6839	2379.4	1497.1
993.8709	2673.9321	2375.4	1497.1
993.9942	2675.1795	2376.45	1496.35
994.1174	2676.4263	2362.85	1482.3
994.2405	2677.6724	2358.7	1479
994.3637	2678.9179	2358.7	1476.75
994.4868	2680.1626	2340.55	1460.95
994.6098	2681.4067	2357.5	1476.55
994.7328	2682.6501	2343.45	1463
994.8558	2683.8928	2334.95	1454.1
994.9788	2685.1348	2318.3	1437.4
995.1017	2686.3761	2312.65	1431.8
995.2245	2687.6168	2305.75	1424
995.3474	2688.8568	2307.15	1425.55
995.4702	2690.0961	2288.25	1410
995.5929	2691.3348	2297.6	1418.6
995.7156	2692.5727	2302.8	1419.8
995.8383	2693.81	2290.35	1409.6
995.961	2695.0466	2276.05	1397.4
996.0836	2696.2826	2284.85	1400.8
996.2062	2697.5178	2290	1390.05
996.3287	2698.7524	2274.15	1394
996.4512	2699.9863	2266.1	1383
996.5737	2701.2195	2247.3	1368.3
996.6961	2702.452	2246.95	1362.3
996.8185	2703.6839	2247.7	1365.4
996.9408	2704.9151	2245.65	1367.3
997.0631	2706.1456	2232.15	1348.4
997.1854	2707.3755	2233.2	1351.65
997.3077	2708.6046	2214.75	1330.5
997.4299	2709.8331	2218.65	1337.25
997.552	2711.0609	2219.05	1338.05
997.6742	2712.2881	2206.15	1323.5
997.7963	2713.5145	2205.7	1322.5
997.9183	2714.7403	2193.25	1316.15
998.0403	2715.9654	2192.85	1310.6
998.1623	2717.1899	2191.9	1299
998.2842	2718.4136	2177.6	1298
998.4062	2719.6367	2186	1304.1
998.528	2720.8591	2181.9	1295.85
998.6498	2722.0809	2160	1277.75
998.7716	2723.3019	2171.15	1284.3
998.8934	2724.5223	2150.65	1268.85
999.0151	2725.7421	2150.55	1266.8
999.1368	2726.9611	2149.7	1266.95
999.2584	2728.1795	2144.25	1259.8
999.38	2729.3972	2127.85	1249.35
999.5016	2730.6142	2149.15	1256.4
999.6231	2731.8306	2122.6	1240.1
999.7446	2733.0462	2121.75	1238.1
999.8661	2734.2612	2104.45	1218.35
999.9875	2735.4756	2096.95	1214.65
1000.1089	2736.6892	2095.05	1211.95
1000.2302	2737.9022	2074.7	1194.55
1000.3515	2739.1145	2084.75	1203.95
1000.4728	2740.3262	2084.85	1194.8
1000.594	2741.5372	2070.7	1191
1000.7152	2742.7475	2062.85	1182.8
1000.8363	2743.9571	2076.05	1193.85
1000.9575	2745.1661	2062.1	1178.5
1001.0785	2746.3744	2057	1176.8
1001.1996	2747.582	2048.95	1168.25
1001.3206	2748.7889	2043.6	1160.4
1001.4415	2749.9952	2038.75	1157.55
1001.5625	2751.2008	2041.9	1159.8
1001.6833	2752.4057	2033.35	1149.3
1001.8042	2753.61	2027.95	1148.05
1001.925	2754.8136	2019.3	1137.55
1002.0458	2756.0165	2013.95	1133.5
1002.1665	2757.2188	2008.25	1127.95
1002.2872	2758.4204	2008.45	1128.15
1002.4078	2759.6213	1991.4	1108.9
1002.5285	2760.8215	2004.8	1119.95
1002.649	2762.0211	2000.8	1116.4
1002.7696	2763.22	1985.55	1101.05
1002.8901	2764.4182	1985.15	1101.35
1003.0106	2765.6158	1977.95	1097.15
1003.131	2766.8127	1969.6	1089.65
1003.2514	2768.009	1974.65	1093.15
1003.3717	2769.2045	1967.05	1087.05
1003.492	2770.3994	1966.35	1083.55
1003.6123	2771.5936	1962.6	1082.3
1003.7325	2772.7872	1946.75	1066.75
1003.8527	2773.9801	1944.95	1063.35
1003.9729	2775.1723	1960.2	1065.05
1004.093	2776.3639	1938.05	1058.1
1004.2131	2777.5548	1924.9	1041.4
1004.3331	2778.745	1927.1	1043.3
1004.4531	2779.9346	1916.5	1036.35
1004.5731	2781.1235	1924.85	1044.15
1004.693	2782.3117	1909.65	1028.05
1004.8129	2783.4992	1910.85	1031.4
1004.9328	2784.6861	1902.75	1021.85
1005.0526	2785.8723	1902.2	1019.35
1005.1723	2787.0579	1903.7	1022.8
1005.2921	2788.2428	1898	1016.75
1005.4118	2789.427	1885.55	1004.6
1005.5314	2790.6106	1881.9	1001.7
1005.651	2791.7935	1876.75	995.8
1005.7706	2792.9757	1865.3	985.65
1005.8902	2794.1573	1868.75	987.7
1006.0097	2795.3382	1873.65	991.9
1006.1291	2796.5184	1860.5	981.7
1006.2485	2797.698	1849.8	967.45
1006.3679	2798.8769	1853.45	973.8
1006.4873	2800.0551	1847.55	966.55
1006.6066	2801.2327	1843.15	960.2
1006.7258	2802.4096	1835.7	956.6
1006.8451	2803.5859	1832.95	950.1
1006.9642	2804.7615	1835.9	956.45
1007.0834	2805.9364	1819.45	938.7
1007.2025	2807.1106	1826	944.8
1007.3216	2808.2842	1821.25	940.95
1007.4406	2809.4572	1813.75	931.6
1007.5596	2810.6294	1820.45	939.4
1007.6785	2811.801	1812.55	932.35
1007.7975	2812.972	1805.75	924.3
1007.9163	2814.1423	1811.85	933.55
1008.0352	2815.3119	1812.8	929.6
1008.154	2816.4808	1804.8	924.8
1008.2727	2817.6491	1804.85	923.15
1008.3914	2818.8167	1800.2	920.35
1008.5101	2819.9837	1807.65	922.7
1008.6288	2821.15	1809.4	929.35
1008.7474	2822.3157	1799.85	920.25
1008.8659	2823.4807	1813.2	932.2
1008.9844	2824.645	1816.75	935.05
1009.1029	2825.8086	1818.55	939.4
1009.2214	2826.9716	1821.3	940.65
1009.3398	2828.134	1832.35	952.6
1009.4581	2829.2957	1830	948.3
1009.5764	2830.4567	1832	951.7
1009.6947	2831.617	1836.25	956.2
1009.813	2832.7767	1834.3	954.25
1009.9312	2833.9358	1839.4	957.75
1010.0493	2835.0941	1830.8	946.65
1010.1675	2836.2519	1826.25	946.4
1010.2855	2837.4089	1818.8	938.6
1010.4036	2838.5653	1817.5	937.95
1010.5216	2839.7211	1807.45	929.3
1010.6396	2840.8761	1796.85	915.55
1010.7575	2842.0306	1797.6	916.7
1010.8754	2843.1843	1793.15	912.7
1010.9932	2844.3374	1789.5	909.05
1011.111	2845.4899	1786.5	905.85
1011.2288	2846.6417	1797.85	917.9
1011.3465	2847.7928	1783.75	903.5
1011.4642	2848.9433	1788.25	908.75
1011.5818	2850.0931	1794.85	914.2
1011.6995	2851.2422	1793.4	911.1
1011.817	2852.3907	1796.4	915.75
1011.9345	2853.5385	1786.25	902.15
1012.052	2854.6857	1777.5	887.35
1012.1695	2855.8323	1780.05	901
1012.2869	2856.9781	1775.45	894.5
1012.4042	2858.1233	1774.45	895.2
1012.5216	2859.2679	1775.15	894.95
1012.6389	2860.4118	1779.05	899.95
1012.7561	2861.555	1775.15	887.25
1012.8733	2862.6976	1772	891.85
1012.9905	2863.8395	1765.45	884.85
1013.1076	2864.9808	1777.55	896.4
1013.2247	2866.1214	1767	889.1
1013.3417	2867.2614	1762.75	882.15
1013.4587	2868.4007	1770.6	887.35
1013.5757	2869.5393	1765.35	884.45
1013.6926	2870.6773	1767.25	881.05
1013.8095	2871.8146	1761.5	879.8
1013.9263	2872.9513	1766.95	883.75
1014.0431	2874.0874	1756.8	874.45
1014.1599	2875.2227	1754.7	875.1
1014.2766	2876.3574	1758.8	879.45
1014.3933	2877.4915	1752.45	872.85
1014.51	2878.6249	1757	878.15
1014.6266	2879.7577	1755.55	872.7
1014.7431	2880.8898	1750	860
1014.8596	2882.0212	1741.4	861.95
1014.9761	2883.152	1743.6	860.35
1015.0925	2884.2821	1744.85	864.65
1015.2089	2885.4116	1742.25	860
1015.3253	2886.5405	1742.85	863
1015.4416	2887.6686	1742.8	859.85
1015.5579	2888.7962	1739.55	862.5
1015.6741	2889.923	1728.7	849.45
1015.7903	2891.0493	1726.45	846.75
1015.9065	2892.1748	1725.55	845.9
1016.0226	2893.2997	1718.8	838.05
1016.1387	2894.424	1713.45	833.75
1016.2547	2895.5476	1709.95	831.1
1016.3707	2896.6706	1710.7	830.7
1016.4866	2897.7929	1712.5	830.8
1016.6025	2898.9145	1709	830.6
1016.7184	2900.0355	1705.85	824.5
1016.8342	2901.1559	1691.35	811.9
1016.95	2902.2756	1697.4	816.3
1017.0658	2903.3946	1687.85	808.55
1017.1815	2904.513	1677.75	792.9
1017.2971	2905.6308	1681	802.15
1017.4127	2906.7479	1676.85	796.45
1017.5283	2907.8643	1685.05	805.7
1017.6439	2908.9801	1671.6	789.35
1017.7594	2910.0953	1669.1	788.6
1017.8748	2911.2098	1671.6	785.85
1017.9902	2912.3236	1670.75	780.45
1018.1056	2913.4368	1657.35	774.8
1018.2209	2914.5494	1667	787.1
1018.3362	2915.6613	1655.45	769.15
1018.4515	2916.7725	1654.65	770.9
1018.5667	2917.8831	1641	758.6
1018.6819	2918.9931	1646.45	762.7
1018.797	2920.1024	1628.35	744.65
1018.9121	2921.211	1633.45	753.55
1019.0271	2922.319	1622.2	740.95
1019.1421	2923.4264	1619.05	740
1019.2571	2924.5331	1617.7	739.55
1019.372	2925.6391	1619.9	740.5
1019.4869	2926.7445	1616.45	738.5
1019.6017	2927.8493	1610.75	730.5
1019.7165	2928.9534	1612.35	733.1
1019.8313	2930.0569	1613.45	728.65
1019.946	2931.1597	1604.35	722.5
1020.0606	2932.2619	1606.9	725.95
1020.1753	2933.3634	1609.25	728.4
1020.2899	2934.4643	1617.6	730.3
1020.4044	2935.5645	1609.7	723.35
1020.5189	2936.6641	1606.7	722.25
1020.6334	2937.763	1593.25	715.9
1020.7478	2938.8613	1602	720.65
1020.8622	2939.959	1601.85	716.1
1020.9765	2941.056	1591.1	713.25
1021.0908	2942.1523	1581.05	695.8
1021.2051	2943.248	1568.95	688.55
1021.3193	2944.3431	1558.25	676.65
1021.4334	2945.4375	1550.5	670.05
1021.5476	2946.5313	1538.75	660.5
1021.6617	2947.6244	1530.75	649.2
1021.7757	2948.7169	1525.1	645.2
1021.8897	2949.8087	1520.85	639.45
1022.0037	2950.8999	1502.9	623.6
1022.1176	2951.9904	1495.95	615.25
1022.2315	2953.0803	1491.1	610.2
1022.3453	2954.1696	1481.4	600.7
1022.4591	2955.2582	1484.4	604.1
1022.5728	2956.3462	1471.95	592.1
1022.6865	2957.4335	1473.6	592.75
1022.8002	2958.5202	1466.65	583.65
1022.9138	2959.6062	1458.65	577.6
1023.0274	2960.6916	1460.35	580.3
1023.141	2961.7764	1464.05	583.15
1023.2545	2962.8605	1457.3	576.8
1023.3679	2963.9439	1456.8	576.95
1023.4813	2965.0267	1459.75	578.2
1023.5947	2966.1089	1472.25	568.6
1023.708	2967.1905	1441.75	563.35
1023.8213	2968.2714	1443.45	564.9
1023.9346	2969.3516	1438	560.05
1024.0478	2970.4312	1448.85	558.9
1024.1609	2971.5102	1431.7	551.85
1024.274	2972.5885	1435.1	554.55
1024.3871	2973.6662	1434.65	552.05
1024.5002	2974.7432	1425.5	544.9
1024.6132	2975.8196	1422.35	543.1
1024.7261	2976.8954	1426.4	546.25
1024.839	2977.9705	1417	536.5
1024.9519	2979.045	1418.55	538.35
1025.0647	2980.1188	1415.5	535.1
1025.1775	2981.192	1411.15	533.7
1025.2902	2982.2645	1412.2	529.55
1025.4029	2983.3364	1402.9	520.6
1025.5156	2984.4077	1401.5	521.55
1025.6282	2985.4783	1405.8	518.9
1025.7407	2986.5483	1391.55	513.4
1025.8532	2987.6177	1384.15	504.1
1025.9657	2988.6864	1386.9	504.2
1026.0782	2989.7545	1380.75	501.55
1026.1906	2990.8219	1387.35	508.7
1026.3029	2991.8887	1379.15	495.45
1026.4152	2992.9548	1373.25	492.95
1026.5275	2994.0204	1364.95	484.4
1026.6397	2995.0852	1362.6	482.85
1026.7519	2996.1495	1356.9	475.1
1026.864	2997.2131	1352.3	474.4
1026.9761	2998.276	1349.45	470.2
1027.0882	2999.3383	1345.55	464.35
1027.2002	3000.4	1341.1	459.4
1027.3122	3001.4611	1336.6	456.2
1027.4241	3002.5215	1336.25	455.7
1027.536	3003.5812	1333.1	454.5
1027.6478	3004.6404	1333.6	454.45
1027.7596	3005.6989	1333	450.75
1027.8714	3006.7567	1326.5	446.75
1027.9831	3007.8139	1344.3	442.45
1028.0947	3008.8705	1323.2	443.25
1028.2064	3009.9264	1321.25	437.85
1028.3179	3010.9818	1315.65	433.9
1028.4295	3012.0364	1311.65	431.65
1028.541	3013.0905	1313.2	431.2
1028.6524	3014.1439	1307.65	427.9
1028.7638	3015.1966	1303.35	423.6
1028.8752	3016.2487	1309.75	429.9
1028.9865	3017.3002	1309.25	423.8
1029.0978	3018.3511	1300.85	421.6
1029.209	3019.4013	1290.6	411.05
1029.3202	3020.4509	1300.55	421.35
1029.4314	3021.4998	1292.65	410.4
1029.5425	3022.5481	1291.7	412.95
1029.6535	3023.5958	1292.55	411.15
1029.7645	3024.6428	1291.7	410.9
1029.8755	3025.6892	1287.3	406.35
1029.9864	3026.735	1284.05	403
1030.0973	3027.7802	1281.55	402.7
1030.2082	3028.8247	1280.3	402.3
1030.319	3029.8685	1276	394.5
1030.4297	3030.9118	1280.25	398.15
1030.5404	3031.9544	1273.8	393
1030.6511	3032.9963	1270.25	389.15
1030.7617	3034.0376	1274.55	395.05
1030.8723	3035.0783	1278.3	394.3
1030.9829	3036.1184	1270.25	390.3
1031.0934	3037.1578	1273.2	393.05
1031.2038	3038.1966	1270.05	389.2
1031.3142	3039.2348	1260.5	380.4
1031.4246	3040.2723	1266.95	379.55
1031.5349	3041.3092	1256.75	377.8
1031.6452	3042.3455	1257.1	378.9
1031.7554	3043.3811	1258.9	376
1031.8656	3044.4161	1248	366.2
1031.9758	3045.4505	1256.15	379.3
1032.0859	3046.4842	1250.65	368.55
1032.1959	3047.5173	1247.9	369.2
1032.3059	3048.5498	1247	366.35
1032.4159	3049.5816	1246.15	367.05
1032.5258	3050.6128	1255.45	373.75
1032.6357	3051.6434	1251.85	370.4
1032.7455	3052.6734	1246.1	364.45
1032.8553	3053.7027	1241.35	361.2
1032.9651	3054.7314	1242.85	364.25
1033.0748	3055.7594	1246.15	365.75
1033.1845	3056.7868	1247.15	366.75
1033.2941	3057.8136	1244.7	363.7
1033.4037	3058.8398	1231.65	350.75
1033.5132	3059.8653	1231.8	352.9
1033.6227	3060.8902	1235.35	354.95
1033.7321	3061.9145	1230.8	352.45
1033.8415	3062.9381	1236	356.7
1033.9509	3063.9612	1248.25	352.25
1034.0602	3064.9835	1226.1	346.15
1034.1694	3066.0053	1233.1	349.2
1034.2787	3067.0264	1222.8	345.05
1034.3878	3068.0469	1228.65	347
1034.497	3069.0668	1229.45	345.45
1034.6061	3070.086	1225.3	349.4
1034.7151	3071.1046	1222.95	343.15
1034.8241	3072.1226	1223	343.05
1034.9331	3073.1399	1222.05	341.5
1035.042	3074.1567	1220.3	339.9
1035.1508	3075.1727	1224.55	341.5
1035.2597	3076.1882	1210.8	330.75
1035.3684	3077.203	1206.25	326.3
1035.4772	3078.2173	1211.8	330.9
1035.5859	3079.2308	1212.95	328.8
1035.6945	3080.2438	1208.95	327.35
1035.8031	3081.2561	1205.3	327.05
1035.9117	3082.2678	1201.85	323
1036.0202	3083.2789	1204.2	324.55
1036.1286	3084.2893	1205.75	325.2
1036.2371	3085.2991	1200.2	319.7
1036.3454	3086.3083	1191.7	306.25
1036.4538	3087.3169	1201.6	320.4
1036.562	3088.3248	1195.05	313.75
1036.6703	3089.3321	1194.75	313.8
1036.7785	3090.3388	1189.75	311.65
1036.8866	3091.3449	1190.55	309.65
1036.9948	3092.3503	1195.2	316
1037.1028	3093.3551	1179.8	299
1037.2108	3094.3593	1183.95	303.1
1037.3188	3095.3629	1184.45	303.7
1037.4267	3096.3658	1180.8	298.9
1037.5346	3097.3681	1180.15	299.55
1037.6425	3098.3698	1176.95	295.35
1037.7503	3099.3708	1181.05	295.6
1037.858	3100.3713	1177.4	297.6
1037.9657	3101.3711	1172.2	290.5
1038.0734	3102.3702	1305.85	287.8
1038.181	3103.3688	1166.95	283.75
1038.2886	3104.3667	1167.9	288.05
1038.3961	3105.364	1166.7	287.35
1038.5036	3106.3607	1155.3	272.8
1038.611	3107.3568	1160.9	280.9
1038.7184	3108.3522	1156.25	276.25
1038.8257	3109.347	1159.3	279.55
1038.933	3110.3412	1160.95	278.4
1039.0403	3111.3348	1150.3	271.2
1039.1475	3112.3277	1153.6	274.15
1039.2547	3113.32	1151.1	272.4
1039.3618	3114.3117	1149.95	268.7
1039.4689	3115.3028	1152	271.25
1039.5759	3116.2932	1149.75	267.25
1039.6829	3117.2831	1148.5	264.45
1039.7898	3118.2723	1141	262.55
1039.8967	3119.2608	1141.55	262.9
1040.0035	3120.2488	1141.45	262.4
1040.1103	3121.2361	1140.15	260.4
1040.2171	3122.2229	1138.3	259
1040.3238	3123.209	1140.75	258.85
1040.4305	3124.1944	1138.35	258.85
1040.5371	3125.1793	1137.85	254.6
1040.6437	3126.1635	1131.55	251.35
1040.7502	3127.1471	1134.45	255.5
1040.8567	3128.1301	1131.3	253.7
1040.9631	3129.1125	1132.1	250.7
1041.0695	3130.0942	1126.4	246.05
1041.1759	3131.0753	1136.15	249.6
1041.2822	3132.0558	1129.7	248.3
1041.3884	3133.0357	1129.3	249.3
1041.4946	3134.015	1129.15	247.55
1041.6008	3134.9936	1129.45	247.6
1041.7069	3135.9716	1142.9	240.95
1041.813	3136.949	1118	238.6
1041.919	3137.9258	1121.9	237.5
1042.025	3138.902	1124.65	237.8
1042.1309	3139.8775	1120.3	241.95
1042.2368	3140.8524	1116.45	235.65
1042.3427	3141.8267	1114.1	232.35
1042.4485	3142.8004	1113.45	236
1042.5542	3143.7735	1116.5	229.75
1042.6599	3144.7459	1116.95	235.35
1042.7656	3145.7178	1111.4	229.85
1042.8712	3146.689	1109.8	231.4
1042.9768	3147.6596	1113.3	230.4
1043.0823	3148.6295	1107.4	227.45
1043.1878	3149.5989	1106.75	227.8
1043.2932	3150.5676	1099.2	220.35
1043.3986	3151.5357	1101.15	219.75
1043.5039	3152.5032	1098.75	218.1
1043.6092	3153.4701	1103	222.3
1043.7145	3154.4364	1105.95	224.35
1043.8197	3155.402	1099.5	221.8
1043.9248	3156.367	1095.7	214.15
1044.03	3157.3315	1136.3	218.35
1044.135	3158.2952	1096.75	216.8
1044.24	3159.2584	1094.25	214.5
1044.345	3160.221	1091.75	211.5
1044.4499	3161.1829	1094.25	212.6
1044.5548	3162.1442	1091.3	209.2
1044.6596	3163.105	1089.45	208.6
1044.7644	3164.065	1083.95	204.15
1044.8692	3165.0245	1090.6	209.1
1044.9739	3165.9834	1085.9	206.85
1045.0785	3166.9416	1085.2	204.75
1045.1831	3167.8993	1084	204.95
1045.2877	3168.8563	1084.6	204
1045.3922	3169.8127	1085.05	204.7
1045.4966	3170.7684	1078.75	199.35
1045.6011	3171.7236	1078.25	199.1
1045.7054	3172.6782	1082.35	201.85
1045.8098	3173.6321	1077.4	195.65
1045.914	3174.5854	1082.2	197.75
1046.0183	3175.5381	1077.85	196.65
1046.1224	3176.4902	1075.45	196.25
1046.2266	3177.4417	1070.1	190.45
1046.3307	3178.3926	1070.7	191.75
1046.4347	3179.3428	1074.75	196.55
1046.5387	3180.2924	1067.45	187.7
1046.6427	3181.2415	1070.65	190.95
1046.7466	3182.1899	1067.2	185.05
1046.8504	3183.1377	1061.35	181.05
1046.9542	3184.0848	1069.55	185.9
1047.058	3185.0314	1060.8	179.25
1047.1617	3185.9773	1058.35	177.55
1047.2654	3186.9227	1057.1	177.2
1047.369	3187.8674	1063.2	182.5
1047.4726	3188.8115	1061.6	179
1047.5761	3189.755	1058.55	179
1047.6796	3190.6979	1058.2	178.7
1047.783	3191.6402	1057.5	179.25
1047.8864	3192.5818	1056.45	175.75
1047.9898	3193.5229	1060.65	175.15
1048.0931	3194.4633	1056.35	177.6
1048.1963	3195.4031	1055.8	174.35
1048.2995	3196.3423	1053.25	173.8
1048.4027	3197.2809	1053.15	172.1
1048.5058	3198.2189	1051.95	171.4
1048.6089	3199.1563	1058.05	169.85
1048.7119	3200.0931	1049.75	170.05
1048.8148	3201.0292	1049.45	169.95
1048.9178	3201.9648	1046.75	166.9
1049.0206	3202.8997	1051.25	167.65
1049.1235	3203.834	1047.05	168.2
1049.2262	3204.7677	1041.8	161.85
1049.329	3205.7008	1039.3	157.75
1049.4317	3206.6333	1041.2	163.05
1049.5343	3207.5652	1042.75	162.15
1049.6369	3208.4964	1038.85	157.95
1049.7394	3209.4271	1042.5	163.05
1049.8419	3210.3571	1040.95	160.8
1049.9444	3211.2865	1039.45	158.7
1050.0468	3212.2154	1043.1	163.15
1050.1491	3213.1436	1043.5	159.25
1050.2514	3214.0712	1046.65	161.85
1050.3537	3214.9982	1040.2	160.55
1050.4559	3215.9246	1036.85	156.65
1050.5581	3216.8503	1034.05	155.75
1050.6602	3217.7755	1034.5	153.7
1050.7623	3218.7001	1033.2	152.45
1050.8643	3219.624	1028	148.8
1050.9663	3220.5473	1028.45	150.85
1051.0682	3221.4701	1029.95	152.1
1051.1701	3222.3922	1031.8	149.05
1051.2719	3223.3137	1029.75	149.75
1051.3737	3224.2346	1032.05	152.05
1051.4754	3225.1549	1030.75	151.35
1051.5771	3226.0746	1029.25	148.8
1051.6788	3226.9937	1028.8	145.9
1051.7804	3227.9121	1024.6	146
1051.8819	3228.83	1022.9	144.4
1051.9834	3229.7473	1024.3	144
1052.0849	3230.6639	1023.45	143.5
1052.1863	3231.5799	1022.65	141.65
1052.2876	3232.4954	1019.95	138.4
1052.3889	3233.4102	1019.5	142.4
1052.4902	3234.3244	1023.45	142.5
1052.5914	3235.238	1019.15	142.05
1052.6926	3236.151	1040.75	136.75
1052.7937	3237.0634	1016.25	137.7
1052.8948	3237.9752	1017.8	139.6
1052.9958	3238.8864	1016.3	135.25
1053.0968	3239.797	1012.15	132.7
1053.1977	3240.7069	1014	133.3
1053.2986	3241.6163	1013.75	132.65
1053.3994	3242.5251	1014.75	136.1
1053.5002	3243.4332	1009.2	131.6
1053.6009	3244.3408	1014.7	134.55
1053.7016	3245.2477	1011.2	132.05
1053.8022	3246.154	1013.55	130.3
1053.9028	3247.0598	1011	130.3
1054.0034	3247.9649	1010.1	128.75
1054.1039	3248.8694	1007.6	128.3
1054.2043	3249.7733	1005.35	125
1054.3047	3250.6766	1004.95	125.3
1054.4051	3251.5793	1005.8	125.35
1054.5054	3252.4814	1002.8	122.25
1054.6056	3253.3829	1004.9	124.4
1054.7058	3254.2838	994.95	116.4
1054.806	3255.1841	1003.75	124.2
1054.9061	3256.0838	1002.9	122.15
1055.0061	3256.9829	999.3	120.95
1055.1062	3257.8814	998.65	116.1
1055.2061	3258.7792	1001.6	120.85
1055.306	3259.6765	998.2	117.3
1055.4059	3260.5731	992.4	113.7
1055.5057	3261.4692	996.6	116.45
1055.6055	3262.3647	994.3	111.9
1055.7052	3263.2595	990.95	111.6
1055.8049	3264.1538	988	108
1055.9045	3265.0474	987.25	107.9
1056.0041	3265.9404	985.7	107.35
1056.1036	3266.8329	980.4	101.5
1056.2031	3267.7247	991.55	100.15
1056.3025	3268.616	980.4	101.85
1056.4019	3269.5066	977.9	96.5
1056.5013	3270.3966	975.35	94.15
1056.6005	3271.286	968.9	90.4
