Software Version:	3.9.2.0
Unit SN:	10000200
Spectrometer SN:	6960
Date:	3/6/2024 11:06:54 AM
Data Line Index:	25
Spectral Points:	2048
Integration time (ms):	125
Averages:	20
Delay (ms):	30
Sequence Number:	1
Processing:	dark subtract
Laser Power (mW):	300
Laser Current (mA):	821
Laser Diode Temp (C):	25.1
Laser Case Temp (C):	28.5
System Temp (C):	28.3
Spectrometer Temp (C):	25.8
CCD Temp (C):	0.005
Secondary Temp (C):	20.006
Heatsink Temp (C):	24.175
CCDPCB Temp (C):	37.641
SecondaryPCB Temp (C):	35.162

Wavelength	RamanShift	Raw Counts	Dark Subtracted
787.061	30.1047	1054.2	640.55
787.2016	32.3739	1084.8	670.55
787.3422	34.6426	1124.65	710.1
787.4828	36.9109	1158.35	742.85
787.6235	39.1787	1227.25	807.35
787.7642	41.4461	1279.6	855.45
787.9049	43.7131	1330.75	903.25
788.0456	45.9796	1394.1	961.95
788.1863	48.2456	1459.4	1024.1
788.3271	50.5112	1522.3	1081.45
788.4679	52.7764	1592.15	1150.45
788.6087	55.0411	1652.7	1207.65
788.7496	57.3054	1728.95	1277.45
788.8904	59.5692	1812.6	1358.45
789.0313	61.8326	1899.05	1443.05
789.1722	64.0955	1998.3	1538.45
789.3132	66.3579	2113.3	1647.1
789.4541	68.6199	2262.6	1795.35
789.5951	70.8815	2482.35	2012.35
789.7361	73.1426	2937	2462.35
789.8771	75.4032	4074.5	3596.35
790.0181	77.6634	7014.3	6529
790.1592	79.9231	14465.55	13974.55
790.3003	82.1824	45849.8	45349.7
790.4414	84.4412	65535	65018.85
790.5825	86.6995	65535	64997.7
790.7237	88.9574	65535	64979.5
790.8648	91.2148	65535	64959.7
791.006	93.4717	65535	64950.75
791.1472	95.7282	65535	64946.95
791.2885	97.9842	65535	64942.85
791.4297	100.2398	65535	64937.65
791.571	102.4949	65535	64936.7
791.7123	104.7495	65535	64935.55
791.8536	107.0036	65535	64931.05
791.9949	109.2573	65535	64933.2
792.1363	111.5105	65535	64928
792.2777	113.7632	65535	64927.95
792.4191	116.0154	65535	64915.55
792.5605	118.2672	65535	64924.2
792.7019	120.5185	65535	64921.85
792.8434	122.7693	65535	64919.8
792.9849	125.0197	65535	64911.7
793.1264	127.2696	65535	64914.5
793.2679	129.519	65535	64909.9
793.4094	131.7679	65535	64906.8
793.551	134.0163	65535	64905.05
793.6926	136.2642	65535	64900.5
793.8342	138.5117	65535	64889.75
793.9758	140.7587	65535	64898.15
794.1175	143.0052	65535	64895.15
794.2591	145.2512	65535	64896.25
794.4008	147.4967	65535	64894.05
794.5425	149.7417	65535	64889.8
794.6842	151.9863	65535	64888.75
794.826	154.2304	65535	64885.4
794.9677	156.4739	65535	64878.9
795.1095	158.717	65535	64876.1
795.2513	160.9596	65535	64874.95
795.3931	163.2017	65535	64871.5
795.535	165.4433	65535	64868.65
795.6768	167.6844	65535	64868.4
795.8187	169.925	65535	64866.15
795.9606	172.1651	65535	64865.35
796.1025	174.4047	65535	64859.25
796.2445	176.6439	65535	64858.5
796.3864	178.8825	65535	64849.15
796.5284	181.1206	65535	64851.4
796.6704	183.3582	65535	64846.8
796.8124	185.5954	65535	64845.5
796.9544	187.832	65535	64843.2
797.0965	190.0681	65535	64839.35
797.2386	192.3037	65535	64835.15
797.3806	194.5388	65535	64828.75
797.5228	196.7734	65535	64831.1
797.6649	199.0075	65535	64825.75
797.807	201.2411	65535	64826.9
797.9492	203.4742	65535	64826.65
798.0914	205.7068	65535	64825.65
798.2336	207.9389	65535	64820.95
798.3758	210.1704	65535	64820.8
798.518	212.4015	65535	64814.8
798.6603	214.632	65535	64818.45
798.8025	216.862	65535	64827.25
798.9448	219.0915	65535	64834.2
799.0871	221.3205	65535	64834.25
799.2294	223.549	65535	64840.5
799.3718	225.777	65535	64839.25
799.5141	228.0044	65535	64835.5
799.6565	230.2314	65535	64838.5
799.7989	232.4578	65535	64835.55
799.9413	234.6837	65535	64826
800.0837	236.909	65535	64827
800.2262	239.1339	65535	64800.55
800.3687	241.3582	65535	64817.85
800.5111	243.582	65535	64785.4
800.6536	245.8053	65535	64797.4
800.7961	248.0281	65535	64804
800.9387	250.2503	65535	64797.75
801.0812	252.472	65535	64793.7
801.2238	254.6932	65535	64790.3
801.3664	256.9139	65535	64787.9
801.509	259.134	65535	64791.45
801.6516	261.3536	65535	64789.05
801.7942	263.5727	65535	64785.3
801.9369	265.7912	65535	64784.9
802.0795	268.0092	65535	64784.9
802.2222	270.2267	65535	64783.95
802.3649	272.4436	65535	64782.85
802.5076	274.6601	65535	64776.1
802.6504	276.8759	65535	64781.7
802.7931	279.0913	65535	64777.15
802.9359	281.3061	65535	64777.8
803.0787	283.5204	65535	64773.85
803.2215	285.7341	65535	64773.15
803.3643	287.9473	65535	64757.45
803.5071	290.16	65535	64764.55
803.6499	292.3721	65535	64772.2
803.7928	294.5837	65535	64768.4
803.9357	296.7947	65535	64772.3
804.0786	299.0052	65535	64767.1
804.2215	301.2152	65535	64767.3
804.3644	303.4246	65535	64772.65
804.5074	305.6334	65535	64769.8
804.6503	307.8418	65535	64766.3
804.7933	310.0495	65535	64761.9
804.9363	312.2568	65535	64764.1
805.0793	314.4635	65535	64768.35
805.2223	316.6696	65535	64760.2
805.3653	318.8752	65535	64754.55
805.5084	321.0802	65535	64761.4
805.6514	323.2847	65535	64760.95
805.7945	325.4887	65535	64763
805.9376	327.692	65535	64760.7
806.0807	329.8949	65535	64757.6
806.2238	332.0972	65535	64758.2
806.367	334.2989	65535	64752.15
806.5101	336.5001	65535	64751.75
806.6533	338.7007	65535	64751.65
806.7965	340.9008	65535	64749.6
806.9397	343.1003	65535	64749.6
807.0829	345.2992	65535	64746.45
807.2261	347.4976	65535	64745.55
807.3693	349.6955	65535	64740.15
807.5126	351.8927	65535	64741.1
807.6559	354.0895	65535	64731.3
807.7991	356.2856	65535	64739.9
807.9424	358.4812	65535	64743.85
808.0857	360.6763	65535	64738.6
808.2291	362.8707	65535	64736.4
808.3724	365.0646	65535	64736.3
808.5158	367.258	65535	64732.1
808.6591	369.4508	65535	64731.55
808.8025	371.643	65535	64730.4
808.9459	373.8346	65535	64726.75
809.0893	376.0257	65535	64725.1
809.2327	378.2162	65535	64725.8
809.3762	380.4062	65535	64723.95
809.5196	382.5956	65535	64720.05
809.6631	384.7844	65535	64724.9
809.8066	386.9726	65535	64719.65
809.9501	389.1603	65535	64724.85
810.0936	391.3474	65535	64691.4
810.2371	393.5339	65535	64721.45
810.3806	395.7199	65535	64728.45
810.5241	397.9052	65535	64728.25
810.6677	400.09	65535	64727.7
810.8113	402.2743	65535	64730.45
810.9548	404.4579	65535	64728.7
811.0984	406.641	65535	64730.15
811.2421	408.8235	65535	64728.05
811.3857	411.0054	65535	64727.65
811.5293	413.1868	65535	64725.05
811.673	415.3675	65535	64723.25
811.8166	417.5477	65535	64722.15
811.9603	419.7273	65535	64717.75
812.104	421.9064	65535	64711.1
812.2477	424.0848	65535	64714.3
812.3914	426.2627	65535	64713.65
812.5351	428.4399	65535	64713.2
812.6788	430.6166	65535	64708.65
812.8226	432.7928	65535	64707.4
812.9663	434.9683	65535	64708.75
813.1101	437.1432	65535	64704.6
813.2539	439.3176	65535	64703.95
813.3977	441.4914	65535	64705.45
813.5415	443.6645	65535	64705.1
813.6853	445.8371	65535	64706.7
813.8291	448.0091	65535	64704.95
813.973	450.1806	65535	64705.15
814.1168	452.3514	65535	64704.3
814.2607	454.5216	65535	64694.5
814.4046	456.6913	65535	64698.75
814.5485	458.8603	65535	64701.15
814.6924	461.0288	65535	64700.2
814.8363	463.1967	65535	64703.1
814.9802	465.3639	65535	64701.25
815.1241	467.5306	65535	64701.95
815.2681	469.6967	65535	64700.75
815.412	471.8622	65535	64701.35
815.556	474.0271	65535	64700.4
815.7	476.1914	65535	64695.3
815.844	478.3551	65535	64699.5
815.988	480.5182	65535	64696.6
816.132	482.6807	65535	64696.85
816.276	484.8426	65535	64700.1
816.4201	487.0039	65535	64697.75
816.5641	489.1647	65535	64696.2
816.7082	491.3248	65535	64694
816.8522	493.4843	65535	64694.6
816.9963	495.6432	65535	64697.3
817.1404	497.8015	65535	64689
817.2845	499.9592	65535	64693
817.4286	502.1163	65535	64692.35
817.5727	504.2728	65535	64691.4
817.7168	506.4287	65535	64694.65
817.861	508.5839	65535	64689.9
818.0051	510.7386	65535	64692
818.1493	512.8927	65535	64686.6
818.2935	515.0461	65535	64689.75
818.4377	517.199	65535	64691.5
818.5818	519.3512	65535	64691.7
818.726	521.5029	65535	64682.1
818.8703	523.6539	65535	64684.7
819.0145	525.8043	65535	64682.5
819.1587	527.9541	65535	64683.55
819.303	530.1033	65535	64684.8
819.4472	532.2519	65535	64682.7
819.5915	534.3999	65535	64681.4
819.7357	536.5472	65535	64683.6
819.88	538.694	65535	64685.25
820.0243	540.8401	65535	64681.45
820.1686	542.9856	65535	64679.9
820.3129	545.1305	65535	64681.95
820.4572	547.2748	65535	64677.85
820.6016	549.4185	65535	64677.6
820.7459	551.5615	65535	64679.9
820.8902	553.704	65535	64678
821.0346	555.8458	65535	64680.5
821.1789	557.987	65535	64678.9
821.3233	560.1276	65535	64678.15
821.4677	562.2675	65535	64678.4
821.6121	564.4069	65535	64677.5
821.7565	566.5456	65535	64680.65
821.9009	568.6837	65535	64679.75
822.0453	570.8212	65535	64679.1
822.1897	572.958	65535	64676.25
822.3342	575.0942	65535	64678.9
822.4786	577.2299	65535	64677.55
822.6231	579.3648	65535	64679.25
822.7675	581.4992	65535	64680.5
822.912	583.6329	65535	64680.25
823.0565	585.766	65535	64683.35
823.201	587.8985	65535	64677.65
823.3454	590.0304	65535	64662.1
823.4899	592.1616	65535	64674.8
823.6345	594.2922	65535	64675.6
823.779	596.4222	65535	64675.45
823.9235	598.5515	65535	64672.6
824.068	600.6802	65535	64674.45
824.2126	602.8083	65535	64674.8
824.3571	604.9358	65535	64670.5
824.5017	607.0626	65535	64672.8
824.6462	609.1888	65535	64669.5
824.7908	611.3144	65535	64672
824.9354	613.4393	65535	64670.95
825.08	615.5636	65535	64668.3
825.2246	617.6873	65535	64670.95
825.3692	619.8103	65535	64667.85
825.5138	621.9327	65535	64667.25
825.6584	624.0544	65535	64669.75
825.803	626.1756	65535	64670.8
825.9477	628.2961	65535	64671.55
826.0923	630.4159	65535	64668.1
826.237	632.5351	65535	64669.8
826.3816	634.6537	65535	64669.5
826.5263	636.7716	65535	64667
826.6709	638.8889	65535	64667.3
826.8156	641.0056	65535	64665.55
826.9603	643.1216	65535	64665.3
827.105	645.237	65535	64662.4
827.2497	647.3518	65535	64668.2
827.3944	649.4659	65535	64667.35
827.5391	651.5793	65535	64665.1
827.6838	653.6922	65535	64669.3
827.8285	655.8043	65535	64666.35
827.9733	657.9159	65535	64664.95
828.118	660.0268	65535	64664.75
828.2627	662.137	65535	64666.65
828.4075	664.2466	65535	64662.65
828.5522	666.3556	65535	64664.15
828.697	668.4639	65535	64661.55
828.8418	670.5716	65535	64664.55
828.9865	672.6786	65535	64662.05
829.1313	674.785	65535	64660.5
829.2761	676.8907	65535	64660.55
829.4209	678.9958	65535	64666.2
829.5657	681.1002	65535	64660.1
829.7105	683.204	65535	64656.25
829.8553	685.3072	65535	64661.35
830.0001	687.4097	65535	64658.8
830.1449	689.5115	65535	64656.75
830.2898	691.6127	65535	64662.2
830.4346	693.7132	65535	64659.1
830.5794	695.8131	65535	64651.85
830.7243	697.9123	65535	64659.3
830.8691	700.0109	65535	64658.45
831.014	702.1089	65535	64659.05
831.1588	704.2061	65535	64658.55
831.3037	706.3028	65535	64656.65
831.4486	708.3987	65535	64659.55
831.5935	710.4941	65535	64659.05
831.7383	712.5887	65535	64656.25
831.8832	714.6827	65535	64652.15
832.0281	716.7761	65535	64656.85
832.173	718.8688	65535	64658.15
832.3179	720.9608	65535	64651.55
832.4628	723.0522	65535	64653.2
832.6077	725.1429	65535	64659.05
832.7527	727.233	65535	64656.35
832.8976	729.3224	65535	64656.15
833.0425	731.4112	65535	64653.15
833.1874	733.4993	65535	64652.3
833.3324	735.5867	65535	64653.3
833.4773	737.6735	65535	64654.5
833.6222	739.7596	65535	64652.85
833.7672	741.845	65535	64654.3
833.9122	743.9298	65535	64654.35
834.0571	746.014	65535	64655.45
834.2021	748.0974	65535	64648.85
834.347	750.1802	65535	64651.25
834.492	752.2624	65535	64654.7
834.637	754.3439	65535	64652.75
834.782	756.4247	65535	64644.35
834.9269	758.5048	65535	64654.95
835.0719	760.5843	65535	64652.45
835.2169	762.6631	65535	64652.95
835.3619	764.7413	65535	64654.1
835.5069	766.8188	65535	64652.55
835.6519	768.8956	65535	64651.55
835.7969	770.9718	65535	64651.05
835.9419	773.0473	65535	64653.15
836.0869	775.1221	65535	64650.9
836.232	777.1962	65535	64651.45
836.377	779.2697	65535	64645.95
836.522	781.3426	65535	64631.65
836.667	783.4147	65535	64651.8
836.8121	785.4862	65535	64649.8
836.9571	787.557	65535	64653.6
837.1021	789.6271	65535	64650.35
837.2472	791.6966	65535	64651.95
837.3922	793.7654	65535	64649.9
837.5373	795.8335	65535	64651.25
837.6823	797.901	65535	64652.8
837.8274	799.9678	65535	64648.6
837.9724	802.0339	65535	64651.3
838.1175	804.0993	65535	64641.05
838.2626	806.1641	65535	64647.45
838.4076	808.2282	65535	64651.45
838.5527	810.2916	65535	64648.05
838.6978	812.3544	65535	64652.25
838.8428	814.4164	65535	64651.95
838.9879	816.4778	65535	64648.4
839.133	818.5385	65535	64649.9
839.2781	820.5986	65535	64650.8
839.4232	822.658	65535	64649.5
839.5682	824.7166	65535	64648.7
839.7133	826.7747	65535	64650.15
839.8584	828.832	65535	64648.1
840.0035	830.8886	65535	64647
840.1486	832.9446	65535	64647
840.2937	834.9999	65535	64649.85
840.4388	837.0545	65535	64645.35
840.5839	839.1085	65535	64648.55
840.729	841.1618	65535	64640.65
840.8741	843.2143	65535	64647.1
841.0192	845.2662	65535	64648.95
841.1643	847.3175	65535	64648.8
841.3095	849.368	65535	64646.8
841.4546	851.4179	65535	64649.5
841.5997	853.467	65535	64645.4
841.7448	855.5155	65535	64645.55
841.8899	857.5633	65535	64651
842.0351	859.6105	65535	64647.05
842.1802	861.6569	65535	64648.05
842.3253	863.7027	65535	64647.4
842.4704	865.7478	65535	64645.45
842.6156	867.7922	65535	64648.75
842.7607	869.8359	65535	64646.2
842.9058	871.8789	65535	64645.2
843.0509	873.9212	65535	64616.05
843.1961	875.9629	65535	64647.2
843.3412	878.0039	65535	64646.4
843.4863	880.0441	65535	64645.3
843.6315	882.0837	65535	64643.15
843.7766	884.1226	65535	64644.55
843.9218	886.1609	65535	64646.2
844.0669	888.1984	65535	64642.7
844.212	890.2352	65535	64645.9
844.3572	892.2714	65535	64641.75
844.5023	894.3069	65535	64644.8
844.6475	896.3416	65535	64642.2
844.7926	898.3757	65535	64642.9
844.9377	900.4091	65535	64641.85
845.0829	902.4418	65535	64642.2
845.228	904.4739	65535	64640.8
845.3732	906.5052	65535	64642.9
845.5183	908.5358	65535	64646.35
845.6635	910.5658	65535	64641.6
845.8086	912.595	65535	64645.45
845.9538	914.6236	65535	64645.45
846.0989	916.6515	65535	64644.55
846.2441	918.6786	65535	64641.6
846.3892	920.7051	65535	64640.6
846.5344	922.7309	65535	64644.05
846.6795	924.756	65535	64643.05
846.8246	926.7804	65535	64641.6
846.9698	928.8041	65535	64640.65
847.1149	930.8272	65535	64643.55
847.2601	932.8495	65535	64641.55
847.4052	934.8711	65535	64643.15
847.5504	936.892	65535	64642.2
847.6955	938.9123	65535	64641.8
847.8407	940.9318	65535	64642.35
847.9858	942.9506	65535	64639.75
848.131	944.9688	65535	64641.8
848.2761	946.9862	65535	64641.7
848.4213	949.003	65535	64646.3
848.5664	951.019	65535	64642.4
848.7115	953.0344	65535	64641.1
848.8567	955.0491	65535	64641.9
849.0018	957.063	65535	64642.1
849.147	959.0763	65535	64641.45
849.2921	961.0888	65535	64639.7
849.4373	963.1007	65535	64640.85
849.5824	965.1119	65535	64643.15
849.7275	967.1223	65535	64644.75
849.8727	969.1321	65535	64642.6
850.0178	971.1412	65535	64644.25
850.1629	973.1495	65535	64643.4
850.3081	975.1572	65535	64607.4
850.4532	977.1641	65535	64642.6
850.5983	979.1704	65535	64640.7
850.7435	981.1759	65535	64639.8
850.8886	983.1808	65535	64643.2
851.0337	985.1849	65535	64631.6
851.1788	987.1884	65535	64637.3
851.324	989.1911	65535	64638.55
851.4691	991.1932	65535	64642.05
851.6142	993.1945	65535	64641.8
851.7593	995.1951	65535	64640.55
851.9045	997.1951	65535	64634.75
852.0496	999.1943	65535	64642.1
852.1947	1001.1928	65535	64640.95
852.3398	1003.1906	65535	64641.05
852.4849	1005.1877	65535	64642.05
852.63	1007.1841	65535	64643.15
852.7751	1009.1798	65535	64642.1
852.9202	1011.1748	65535	64642
853.0653	1013.1691	65535	64642.95
853.2104	1015.1627	65535	64640.25
853.3555	1017.1556	65535	64640
853.5006	1019.1477	65535	64639.15
853.6457	1021.1392	65535	64643.1
853.7908	1023.1299	65535	64641.8
853.9359	1025.12	65535	64638.55
854.081	1027.1093	65535	64644
854.2261	1029.0979	65535	64644.45
854.3712	1031.0859	65535	64640.85
854.5163	1033.0731	65535	64640.5
854.6613	1035.0596	65535	64641.35
854.8064	1037.0454	65535	64641.75
854.9515	1039.0304	65535	64640.55
855.0965	1041.0148	65535	64640.9
855.2416	1042.9985	65535	64638.05
855.3867	1044.9814	65535	64641.9
855.5317	1046.9636	65535	64640.05
855.6768	1048.9452	65535	64645.6
855.8219	1050.926	65535	64643.6
855.9669	1052.9061	65535	64642.6
856.112	1054.8855	65535	64640.95
856.257	1056.8642	65535	64641.2
856.4021	1058.8421	65535	64635.85
856.5471	1060.8194	65535	64640.45
856.6921	1062.7959	65535	64641.45
856.8372	1064.7717	65535	64639.55
856.9822	1066.7469	65535	64638.95
857.1272	1068.7213	65535	64640.3
857.2723	1070.695	65535	64640.75
857.4173	1072.6679	65535	64639.45
857.5623	1074.6402	65535	64641.65
857.7073	1076.6117	65535	64637.25
857.8523	1078.5826	65535	64640
857.9973	1080.5527	65535	64637.35
858.1423	1082.5221	65535	64638.9
858.2873	1084.4908	65535	64641.2
858.4323	1086.4587	65535	64639.15
858.5773	1088.426	65535	64642.55
858.7223	1090.3925	65535	64634.05
858.8673	1092.3584	65535	64639.25
859.0123	1094.3235	65535	64640.4
859.1573	1096.2879	65535	64638.65
859.3022	1098.2515	65535	64641.1
859.4472	1100.2145	65535	64642.85
859.5922	1102.1767	65535	64636.6
859.7371	1104.1382	65535	64638.4
859.8821	1106.099	65535	64639.5
860.027	1108.0591	65535	64642.8
860.172	1110.0185	65535	64635.9
860.3169	1111.9771	65535	64642.85
860.4619	1113.9351	65535	64639.75
860.6068	1115.8923	65535	64640.75
860.7517	1117.8488	65535	64639
860.8967	1119.8045	65535	64640
861.0416	1121.7596	65535	64639
861.1865	1123.7139	65535	64639.45
861.3314	1125.6675	65535	64640.25
861.4763	1127.6204	65535	64640.2
861.6212	1129.5726	65535	64636.95
861.7661	1131.524	65535	64641.05
861.911	1133.4748	65535	64640.05
862.0559	1135.4248	65535	64637.25
862.2008	1137.3741	65535	64639.3
862.3457	1139.3226	65535	64639.5
862.4905	1141.2705	65535	64636.7
862.6354	1143.2176	65535	64632.55
862.7803	1145.164	65535	64637.4
862.9251	1147.1097	65535	64641.8
863.07	1149.0546	65535	64638.9
863.2148	1150.9989	65535	64639.3
863.3597	1152.9424	65535	64637.75
863.5045	1154.8852	65535	64638.95
863.6493	1156.8272	65535	64642.25
863.7942	1158.7686	65535	64633.45
863.939	1160.7092	65535	64638.85
864.0838	1162.6491	65535	64640.95
864.2286	1164.5883	65535	64639.45
864.3734	1166.5267	65535	64637.5
864.5182	1168.4644	65535	64640.8
864.663	1170.4014	65535	64633.05
864.8078	1172.3377	65535	64640.25
864.9526	1174.2732	65535	64640.8
865.0974	1176.2081	65535	64640.15
865.2421	1178.1421	65535	64638.6
865.3869	1180.0755	65535	64641.05
865.5317	1182.0082	65535	64641
865.6764	1183.9401	65535	64637.25
865.8212	1185.8713	65535	64640.4
865.9659	1187.8017	65535	64639.65
866.1106	1189.7315	65535	64641.7
866.2554	1191.6605	65535	64611.3
866.4001	1193.5888	65535	64639.15
866.5448	1195.5163	65535	64639.6
866.6895	1197.4432	65535	64639.9
866.8342	1199.3693	65535	64637
866.9789	1201.2947	65535	64637.55
867.1236	1203.2193	65535	64639.65
867.2683	1205.1432	65535	64639.2
867.413	1207.0664	65535	64637.65
867.5576	1208.9889	65535	64636.1
867.7023	1210.9106	65535	64637.65
867.847	1212.8316	65535	64641.1
867.9916	1214.7519	65535	64629.55
868.1363	1216.6715	65535	64640.4
868.2809	1218.5903	65535	64641.45
868.4255	1220.5084	65535	64639.95
868.5701	1222.4257	65535	64638.9
868.7148	1224.3424	65535	64640.5
868.8594	1226.2583	65535	64639.3
869.004	1228.1735	65535	64637.1
869.1486	1230.0879	65535	64636.95
869.2932	1232.0016	65535	64641.7
869.4377	1233.9146	65535	64638.75
869.5823	1235.8269	65535	64640.75
869.7269	1237.7384	65535	64639.2
869.8715	1239.6492	65535	64640.25
870.016	1241.5592	65535	64637.25
870.1606	1243.4686	65535	64637.4
870.3051	1245.3772	65535	64640.8
870.4496	1247.285	65535	64639.25
870.5941	1249.1922	65535	64639.9
870.7387	1251.0986	65535	64642.55
870.8832	1253.0042	65535	64638.9
871.0277	1254.9092	65535	64642.75
871.1722	1256.8134	65535	64643.4
871.3167	1258.7169	65535	64637.2
871.4611	1260.6196	65535	64640.65
871.6056	1262.5216	65535	64638.75
871.7501	1264.4229	65535	64641.9
871.8945	1266.3234	65535	64640.7
872.039	1268.2232	65535	64638.15
872.1834	1270.1223	65535	64637.75
872.3278	1272.0207	65535	64639.5
872.4723	1273.9183	65535	64636
872.6167	1275.8151	65535	64638.1
872.7611	1277.7113	65535	64640.1
872.9055	1279.6067	65535	64640.1
873.0499	1281.5014	65535	64638.15
873.1943	1283.3953	65535	64635.65
873.3386	1285.2885	65535	64640.7
873.483	1287.181	65535	64637.95
873.6274	1289.0727	65535	64640.7
873.7717	1290.9637	65535	64638.5
873.9161	1292.854	65535	64640.7
874.0604	1294.7435	65535	64639.2
874.2047	1296.6323	65535	64641.1
874.349	1298.5204	65535	64636.25
874.4933	1300.4077	65535	64637.85
874.6376	1302.2943	65535	64637.7
874.7819	1304.1802	65535	64642.9
874.9262	1306.0653	65535	64637.95
875.0705	1307.9497	65535	64638.5
875.2147	1309.8333	65535	64640.35
875.359	1311.7162	65535	64638.95
875.5032	1313.5984	65535	64637.15
875.6475	1315.4798	65535	64629
875.7917	1317.3605	65535	64626.4
875.9359	1319.2405	65535	64634.95
876.0801	1321.1197	65535	64639.1
876.2243	1322.9982	65535	64633.45
876.3685	1324.876	65535	64638.15
876.5127	1326.753	65535	64640.4
876.6569	1328.6293	65535	64640.25
876.801	1330.5048	65535	64637.45
876.9452	1332.3796	65535	64640.2
877.0893	1334.2537	65535	64612.6
877.2335	1336.127	65535	64638.35
877.3776	1337.9996	65535	64639.35
877.5217	1339.8714	65535	64638.75
877.6658	1341.7426	65535	64594.5
877.8099	1343.6129	65535	64638.2
877.954	1345.4826	65535	64637.5
878.0981	1347.3515	65535	64634.9
878.2422	1349.2196	65535	64637.45
878.3862	1351.087	65535	64641
878.5303	1352.9537	65535	64638.7
878.6743	1354.8197	65535	64639.2
878.8184	1356.6849	65535	64637.6
878.9624	1358.5493	65535	64637.9
879.1064	1360.4131	65535	64638.65
879.2504	1362.276	65535	64639.1
879.3944	1364.1383	65535	64640.35
879.5384	1365.9998	65535	64634.75
879.6823	1367.8606	65535	64638.2
879.8263	1369.7206	65535	64639.55
879.9702	1371.5799	65535	64637.15
880.1142	1373.4384	65535	64640.25
880.2581	1375.2962	65535	64638.65
880.402	1377.1533	65535	64639.85
880.5459	1379.0096	65535	64640.9
880.6898	1380.8652	65535	64639.7
880.8337	1382.7201	65535	64639.35
880.9776	1384.5742	65535	64637.1
881.1215	1386.4275	65535	64638
881.2653	1388.2802	65535	64639.7
881.4092	1390.132	65535	64639.55
881.553	1391.9832	65535	64638.5
881.6968	1393.8336	65535	64639
881.8406	1395.6832	65535	64637.65
881.9844	1397.5322	65535	64638.5
882.1282	1399.3803	65535	64634.05
882.272	1401.2278	65535	64635
882.4158	1403.0745	65535	64637.6
882.5595	1404.9204	65535	64641.3
882.7033	1406.7656	65535	64639
882.847	1408.6101	65535	64638.05
882.9908	1410.4538	65535	64637.45
883.1345	1412.2968	65535	64637.05
883.2782	1414.139	65535	64638.05
883.4219	1415.9805	65535	64639.75
883.5656	1417.8213	65535	64632.2
883.7092	1419.6613	65535	64639.8
883.8529	1421.5006	65535	64637.4
883.9965	1423.3391	65535	64637.55
884.1402	1425.1769	65535	64637.85
884.2838	1427.0139	65535	64639.8
884.4274	1428.8502	65535	64636.75
884.571	1430.6858	65535	64637
884.7146	1432.5206	65535	64637.85
884.8582	1434.3547	65535	64638.6
885.0018	1436.188	65535	64638.8
885.1453	1438.0206	65535	64637.65
885.2889	1439.8524	65535	64639.85
885.4324	1441.6835	65535	64638.75
885.5759	1443.5139	65535	64635.7
885.7194	1445.3435	65535	64637.7
885.8629	1447.1724	65535	64639.3
886.0064	1449.0005	65535	64638.4
886.1499	1450.8279	65535	64637.85
886.2933	1452.6545	65535	64638.65
886.4368	1454.4804	65535	64638.6
886.5802	1456.3056	65535	64633.55
886.7237	1458.13	65535	64639.95
886.8671	1459.9536	65535	64639.3
887.0105	1461.7766	65535	64638.05
887.1539	1463.5987	65535	64640.25
887.2972	1465.4202	65535	64640.85
887.4406	1467.2409	65535	64639.35
887.584	1469.0608	65535	64638.65
887.7273	1470.88	65535	64638.8
887.8706	1472.6984	65535	64635.35
888.0139	1474.5161	65535	64636.45
888.1572	1476.3331	65535	64640.9
888.3005	1478.1493	65535	64637.95
888.4438	1479.9648	65535	64641.15
888.5871	1481.7795	65535	64639.75
888.7303	1483.5935	65535	64637.15
888.8736	1485.4067	65535	64637.05
889.0168	1487.2192	65535	64639
889.16	1489.031	65535	64636.75
889.3032	1490.842	65535	64638.95
889.4464	1492.6522	65535	64639.85
889.5896	1494.4618	65532.05	64635.35
889.7327	1496.2705	65535	64639.3
889.8759	1498.0785	65494.45	64600.9
890.019	1499.8858	65528.55	64632
890.1622	1501.6924	65535	64638.45
890.3053	1503.4981	65521.85	64625.3
890.4484	1505.3032	65529.25	64634.25
890.5914	1507.1075	65516.45	64620.9
890.7345	1508.911	65517.7	64622.6
890.8776	1510.7138	65505.6	64609.95
891.0206	1512.5159	65520.6	64623.45
891.1637	1514.3172	65392.35	64497.75
891.3067	1516.1178	65440.6	64546.1
891.4497	1517.9176	65498.2	64599.3
891.5927	1519.7166	65442.2	64547.4
891.7357	1521.515	65405.45	64504.15
891.8786	1523.3126	65191.3	64296
892.0216	1525.1094	65408.5	64510.45
892.1645	1526.9055	65292.15	64397.85
892.3074	1528.7008	65300.35	64404.05
892.4503	1530.4954	64990	64088.5
892.5932	1532.2893	65304.05	64410.9
892.7361	1534.0824	64922.15	64022.95
892.879	1535.8747	64576.45	63681.6
893.0218	1537.6663	65318	64422.45
893.1647	1539.4572	63779.35	62882.75
893.3075	1541.2473	64497.55	63602.6
893.4503	1543.0367	64283.4	63388.8
893.5931	1544.8253	64103.1	63202.2
893.7359	1546.6132	64320.05	63422.45
893.8787	1548.4003	63791.8	62886.6
894.0214	1550.1867	63626.3	62722.7
894.1642	1551.9723	63420.15	62522.35
894.3069	1553.7572	63515.1	62620.8
894.4496	1555.5414	63872.85	62976.75
894.5923	1557.3247	61942.75	61046.75
894.735	1559.1074	63415.9	62522.2
894.8777	1560.8893	62633.6	61739.45
895.0204	1562.6705	63040	62144.4
895.163	1564.4509	61883.65	60988.85
895.3056	1566.2305	62375.05	61482.95
895.4482	1568.0094	63140.15	62247.4
895.5908	1569.7876	62498.95	61603.85
895.7334	1571.565	61766.7	60872.25
895.876	1573.3417	62206.95	61313.25
896.0186	1575.1176	62014.6	61120
896.1611	1576.8928	61653.6	60760.2
896.3036	1578.6672	61045.7	60151.45
896.4461	1580.4409	61301.6	60409.35
896.5886	1582.2138	60466.3	59569.6
896.7311	1583.986	60636.05	59741.5
896.8736	1585.7575	59910.65	59016.3
897.0161	1587.5282	59972.15	59080.7
897.1585	1589.2981	60090.35	59196.7
897.3009	1591.0673	59334.2	58441.65
897.4433	1592.8358	58986.4	58092.7
897.5857	1594.6035	59336.5	58440.95
897.7281	1596.3704	59323.5	58430.6
897.8705	1598.1366	58523.9	57628.25
898.0128	1599.9021	58050.35	57156.45
898.1551	1601.6668	58583.55	57687.4
898.2975	1603.4308	58209.45	57313.65
898.4398	1605.194	58511.5	57613.5
898.5821	1606.9564	57439.9	56547.2
898.7243	1608.7182	58016.85	57121.35
898.8666	1610.4791	57511	56618.3
899.0088	1612.2394	57854.45	56962.45
899.1511	1613.9988	57513.45	56620.6
899.2933	1615.7576	58043.5	57149.85
899.4355	1617.5156	57975.05	57076.4
899.5776	1619.2728	58635.75	57740.35
899.7198	1621.0293	57725.9	56834.5
899.862	1622.785	57700.95	56805.2
900.0041	1624.54	57959.85	57065.65
900.1462	1626.2942	57472.65	56578.45
900.2883	1628.0477	56464.6	55568.25
900.4304	1629.8005	55997.65	55100.3
900.5725	1631.5525	56231.55	55340.25
900.7145	1633.3037	55367.95	54474.25
900.8566	1635.0542	55277.2	54386.65
900.9986	1636.804	55227.7	54334.2
901.1406	1638.553	54781.85	53771.5
901.2826	1640.3013	54704.4	53811.05
901.4245	1642.0488	54237.65	53343.6
901.5665	1643.7955	54352	53459.75
901.7085	1645.5416	54024.35	53132.75
901.8504	1647.2868	53817.05	52923.5
901.9923	1649.0313	54085.2	53193.95
902.1342	1650.7751	53904.75	53009.95
902.2761	1652.5181	53670.45	52779
902.4179	1654.2604	53715.05	52821.85
902.5598	1656.0019	54186.75	53293.8
902.7016	1657.7427	54088.45	53197.75
902.8434	1659.4828	54507.35	53617.2
902.9852	1661.222	54411.6	53518.85
903.127	1662.9606	54428.75	53535.25
903.2687	1664.6984	54047.6	53154.75
903.4105	1666.4354	53811.7	52918.4
903.5522	1668.1717	52991.4	52099.05
903.6939	1669.9072	52386.05	51494.2
903.8356	1671.642	51925.35	51029.2
903.9773	1673.3761	51527.75	50635.05
904.119	1675.1094	51163.1	50270.5
904.2606	1676.8419	50881.35	49989.3
904.4022	1678.5737	50484.1	49593.3
904.5439	1680.3048	50230.25	49339.5
904.6855	1682.0351	49932.1	49040.2
904.827	1683.7646	49634.3	48738.8
904.9686	1685.4934	49519.45	48626.8
905.1101	1687.2215	49148.3	48255.65
905.2517	1688.9488	49058.25	48169
905.3932	1690.6754	48531	47639.1
905.5347	1692.4012	48542.65	47651.55
905.6761	1694.1263	48353.85	47461.7
905.8176	1695.8506	48205.3	47311.6
905.9591	1697.5742	48103.5	47211.25
906.1005	1699.297	47818.75	46927.25
906.2419	1701.0191	47542.75	46650.2
906.3833	1702.7404	47346.35	46455.65
906.5246	1704.461	47048.75	46153.75
906.666	1706.1808	46882.45	45989.2
906.8073	1707.8999	46834.85	45941.55
906.9487	1709.6182	46608.1	45713.6
907.09	1711.3358	46532	45640.7
907.2313	1713.0527	46363.85	45473.2
907.3725	1714.7688	46154.8	45259.1
907.5138	1716.4841	45913.6	45018.15
907.655	1718.1987	45831.75	44935.4
907.7962	1719.9126	45652.7	44761.15
907.9374	1721.6257	45471.4	44577.2
908.0786	1723.338	45388	44495.4
908.2198	1725.0496	45035.05	44141.95
908.3609	1726.7605	44989.95	44098.1
908.502	1728.4706	44754.2	43863.4
908.6431	1730.18	44540.2	43646.9
908.7842	1731.8886	44450.15	43561
908.9253	1733.5964	44343.65	43431.45
909.0664	1735.3036	44197.1	43302.95
909.2074	1737.0099	44086.5	43195
909.3484	1738.7156	43950.45	43059.65
909.4894	1740.4204	43686.05	42791.1
909.6304	1742.1246	43599.55	42706.05
909.7714	1743.8279	43451.35	42559.85
909.9123	1745.5306	43393.35	42503.6
910.0532	1747.2325	43250.3	42358.75
910.1941	1748.9336	43017.65	42126.35
910.335	1750.634	42875.55	41983.25
910.4759	1752.3336	42794.55	41903
910.6168	1754.0325	42694.6	41804
910.7576	1755.7307	42538.95	41647.25
910.8984	1757.4281	42514.4	41623.3
911.0392	1759.1247	42409.75	41509.45
911.18	1760.8206	42323.55	41425.3
911.3208	1762.5158	42214.25	41321.35
911.4615	1764.2102	41966.6	41075.85
911.6022	1765.9039	41807.3	40918.65
911.7429	1767.5968	41701.2	40810.05
911.8836	1769.289	41595.25	40703.8
912.0243	1770.9804	41467.7	40576.05
912.1649	1772.6711	41425.85	40534.35
912.3056	1774.361	41305.2	40412.9
912.4462	1776.0502	41207.55	40315.9
912.5868	1777.7386	41077.4	40181.55
912.7274	1779.4263	40923.55	40031
912.8679	1781.1132	40880.7	39989.5
913.0084	1782.7994	40724.2	39833.35
913.149	1784.4849	40619.45	39727.65
913.2895	1786.1696	40489.35	39592.1
913.4299	1787.8535	40422.25	39531.65
913.5704	1789.5367	40196.85	39303.65
913.7108	1791.2192	40142.55	39253.6
913.8513	1792.9009	39982.65	39062.7
913.9917	1794.5818	39902.8	39011.1
914.132	1796.2621	39756.7	38868.1
914.2724	1797.9415	39669.65	38778.7
914.4128	1799.6202	39526.35	38634.3
914.5531	1801.2982	39412.85	38522.9
914.6934	1802.9755	39366.65	38474.05
914.8337	1804.6519	39260.25	38368.4
914.9739	1806.3277	38996.1	38104.9
915.1142	1808.0027	38835.7	37944.25
915.2544	1809.6769	38838.6	37947.1
915.3946	1811.3504	38671.1	37778.3
915.5348	1813.0231	38564.2	37671.5
915.675	1814.6951	38513.35	37622.65
915.8151	1816.3664	38450.8	37556.6
915.9553	1818.0369	38324.05	37433.65
916.0954	1819.7067	38210.65	37318.2
916.2355	1821.3757	38076.1	37183.95
916.3755	1823.044	38013.05	37121.65
916.5156	1824.7115	37943.45	37053.05
916.6556	1826.3783	37752.15	36862.1
916.7956	1828.0443	37685.3	36794.25
916.9356	1829.7096	37538.45	36645.7
917.0756	1831.3741	37559.95	36664.9
917.2155	1833.0379	37368.15	36475.75
917.3555	1834.701	37234.45	36342.3
917.4954	1836.3633	37147.35	36255
917.6353	1838.0248	36998.25	36106
917.7751	1839.6856	36971.4	36079.45
917.915	1841.3457	36887.35	35996.25
918.0548	1843.005	36784.55	35895.15
918.1946	1844.6636	36681.25	35790.95
918.3344	1846.3214	36543.35	35653.05
918.4742	1847.9785	36505.15	35613.85
918.6139	1849.6349	36419.9	35527.25
918.7537	1851.2904	36329.1	35429.05
918.8934	1852.9453	36199.85	35307.7
919.0331	1854.5994	36126.9	35232.35
919.1727	1856.2528	36071.75	35174.7
919.3124	1857.9054	35929.85	35039.05
919.452	1859.5572	35886.75	34996.45
919.5916	1861.2083	35791	34897.8
919.7312	1862.8587	35754.9	34865.55
919.8708	1864.5084	35611.75	34719.1
920.0103	1866.1572	35471.55	34580.8
920.1498	1867.8054	35348.55	34455.75
920.2893	1869.4528	35265.3	34372.7
920.4288	1871.0994	35141.6	34251.7
920.5683	1872.7453	35064.8	34173.65
920.7077	1874.3905	35010.75	34111.35
920.8471	1876.0349	34861.35	33968.6
920.9865	1877.6786	34811.85	33918.7
921.1259	1879.3215	34827.7	33936.45
921.2653	1880.9637	34687.6	33794.45
921.4046	1882.6051	34542.75	33652.75
921.5439	1884.2458	34429.45	33537.8
921.6832	1885.8858	34344.25	33453.35
921.8225	1887.525	34244.55	33352.05
921.9617	1889.1634	34110	33219.95
922.101	1890.8011	33933.2	33040.7
922.2402	1892.4381	33868.6	32976.4
922.3794	1894.0743	33841.25	32950.45
922.5185	1895.7098	33802.55	32912.9
922.6577	1897.3446	33673.55	32780.7
922.7968	1898.9786	33507.5	32611.35
922.9359	1900.6118	33470.55	32579.9
923.075	1902.2443	33278.65	32383.85
923.214	1903.8761	33168.3	32275.7
923.3531	1905.5071	33043.95	32151.7
923.4921	1907.1374	32905.4	32013.4
923.6311	1908.7669	32868.4	31977.5
923.77	1910.3957	32803.9	31913.4
923.909	1912.0237	32549.55	31656.9
924.0479	1913.651	32503.15	31610.5
924.1868	1915.2776	32409.95	31520.45
924.3257	1916.9034	32304.95	31414
924.4646	1918.5285	32127.2	31239
924.6034	1920.1528	31975.5	31083.6
924.7422	1921.7764	31902.95	31012.3
924.881	1923.3992	31784.85	30895.35
925.0198	1925.0213	31571.15	30680.35
925.1586	1926.6427	31469.2	30579.4
925.2973	1928.2633	31479.2	30476
925.436	1929.8832	31275.6	30382.25
925.5747	1931.5023	31150.65	30260.85
925.7134	1933.1207	31062.5	30170.85
925.852	1934.7383	30987.9	30097.55
925.9906	1936.3552	30792.6	29902.35
926.1292	1937.9714	30773.3	29883.05
926.2678	1939.5868	30594.45	29700.95
926.4064	1941.2015	30480.9	29590.3
926.5449	1942.8154	30328.95	29437.5
926.6834	1944.4286	30199.15	29308.4
926.8219	1946.041	30103.85	29196.15
926.9604	1947.6528	29914.65	29017.5
927.0988	1949.2637	29827.95	28938.6
927.2372	1950.8739	29725.95	28833.3
927.3756	1952.4834	29661.65	28769.95
927.514	1954.0921	29596.75	28705.75
927.6523	1955.7001	29467.35	28573.85
927.7907	1957.3074	29393.4	28502.3
927.929	1958.9139	29238.65	28347.95
928.0673	1960.5197	29154.4	28260.95
928.2055	1962.1247	28970.7	28080.55
928.3438	1963.729	28816.8	27926.55
928.482	1965.3325	28774.9	27861.55
928.6202	1966.9353	28669.25	27779.45
928.7584	1968.5374	28557.25	27666.6
928.8965	1970.1387	28405.9	27515.05
929.0346	1971.7393	28339.8	27447.55
929.1727	1973.3392	28236.05	27345.95
929.3108	1974.9383	28091.4	27200.05
929.4489	1976.5366	27995.4	27104.65
929.5869	1978.1342	27959.15	27068.75
929.7249	1979.7311	27891.35	26999.9
929.8629	1981.3273	27759.35	26866.2
930.0009	1982.9227	27656.95	26762.9
930.1388	1984.5173	27534.65	26644.85
930.2767	1986.1112	27416.15	26526.35
930.4146	1987.7044	27357.4	26467.05
930.5525	1989.2968	27292.9	26402.35
930.6904	1990.8885	27195.7	26301.45
930.8282	1992.4795	27132.55	26241.05
930.966	1994.0697	27021.4	26129.7
931.1038	1995.6592	26931.45	26041.8
931.2415	1997.2479	26831.45	25941.7
931.3793	1998.8359	26723.75	25832.45
931.517	2000.4232	26558.5	25667.8
931.6547	2002.0097	26485	25596
931.7923	2003.5955	26367.3	25477
931.93	2005.1805	26403.25	25511.35
932.0676	2006.7648	26253.95	25364.6
932.2052	2008.3484	26183.7	25292.1
932.3427	2009.9312	26188.45	25295.7
932.4803	2011.5133	26031.25	25142.15
932.6178	2013.0946	25933.8	25042
932.7553	2014.6752	25872.85	24985.5
932.8928	2016.2551	25802.4	24911.05
933.0302	2017.8342	25730.45	24838.3
933.1676	2019.4126	25603.15	24714.45
933.305	2020.9902	25501.45	24611.7
933.4424	2022.5672	25426.1	24535.05
933.5798	2024.1433	25354.8	24456.2
933.7171	2025.7188	25299.05	24409.45
933.8544	2027.2935	25190.05	24300.3
933.9917	2028.8674	25050.75	24160.7
934.129	2030.4406	25000.45	24112.2
934.2662	2032.0131	24921.3	24032.55
934.4034	2033.5849	24804.85	23905.7
934.5406	2035.1559	24760.95	23872.2
934.6778	2036.7261	24713.7	23823.4
934.8149	2038.2957	24593.6	23703.85
934.952	2039.8645	24562.95	23672.75
935.0891	2041.4325	24554.25	23661.4
935.2262	2042.9998	24411.25	23521
935.3632	2044.5664	24367.8	23474.35
935.5002	2046.1323	24261.65	23371.8
935.6372	2047.6974	24190.9	23300.95
935.7742	2049.2617	24102.5	23211.75
935.9111	2050.8254	24075.55	23163.65
936.048	2052.3883	24060.65	23169.05
936.1849	2053.9504	23927.7	23035.95
936.3218	2055.5118	23834.4	22942.95
936.4586	2057.0725	23734.1	22841.25
936.5955	2058.6325	23652.4	22762.05
936.7323	2060.1917	23581.15	22689.15
936.869	2061.7502	23511.15	22618.4
937.0058	2063.3079	23410.35	22520.1
937.1425	2064.8649	23357.15	22461.5
937.2792	2066.4212	23255.45	22365.35
937.4159	2067.9767	23191.45	22300.65
937.5525	2069.5315	23129.8	22240.05
937.6891	2071.0856	23010	22118.6
937.8257	2072.6389	22923.85	22032.6
937.9623	2074.1915	22780.2	21893.65
938.0989	2075.7433	22693.45	21802.45
938.2354	2077.2945	22633.4	21742.9
938.3719	2078.8448	22535.75	21645.6
938.5084	2080.3945	22473.1	21583.1
938.6448	2081.9434	22464.5	21573.85
938.7812	2083.4916	22367.15	21477.1
938.9176	2085.039	22277.45	21384.7
939.054	2086.5857	22201.8	21308.85
939.1903	2088.1317	22108.55	21219.75
939.3267	2089.677	22079.25	21188.55
939.463	2091.2215	22028.1	21136.9
939.5992	2092.7652	21961.15	21067.15
939.7355	2094.3083	21874.85	20982
939.8717	2095.8506	21817.6	20929.55
940.0079	2097.3921	21804.8	20915.45
940.1441	2098.933	21697.95	20807.4
940.2802	2100.4731	21670.5	20780.5
940.4163	2102.0124	21660.6	20764.6
940.5524	2103.5511	21587.9	20696
940.6885	2105.089	21530.7	20640.95
940.8245	2106.6261	21421.2	20531.35
940.9606	2108.1626	21408.45	20516.35
941.0965	2109.6983	21363.25	20444.35
941.2325	2111.2332	21277.2	20385.75
941.3684	2112.7675	21190.45	20299.65
941.5044	2114.301	21157.4	20265.3
941.6403	2115.8337	21099	20206.55
941.7761	2117.3657	21014.05	20125.45
941.912	2118.897	20976.95	20086.15
942.0478	2120.4276	20894.95	19999.3
942.1835	2121.9575	20791.05	19900.05
942.3193	2123.4866	20795.8	19893.35
942.455	2125.0149	20724.15	19830.6
942.5907	2126.5426	20592.65	19700.8
942.7264	2128.0695	20566.5	19670.6
942.8621	2129.5956	20476.85	19586.5
942.9977	2131.1211	20462.15	19566.4
943.1333	2132.6458	20359.95	19471.35
943.2689	2134.1698	20298.85	19408.75
943.4044	2135.693	20253.85	19361.8
943.54	2137.2155	20230.75	19339.05
943.6755	2138.7373	20168.45	19278.1
943.8109	2140.2584	20058.7	19169.2
943.9464	2141.7787	20016.5	19119.05
944.0818	2143.2983	19897.7	19007.25
944.2172	2144.8171	19798.9	18909.45
944.3526	2146.3353	19746.9	18853.35
944.4879	2147.8527	19644	18755
944.6232	2149.3693	19628.15	18736.6
944.7585	2150.8853	19572.95	18682.5
944.8938	2152.4005	19465.85	18576.65
945.029	2153.9149	19466.4	18575.95
945.1642	2155.4287	19402.4	18512.9
945.2994	2156.9417	19341.85	18451.2
945.4346	2158.454	19266.25	18373.45
945.5697	2159.9655	19210.8	18320.7
945.7048	2161.4764	19190.1	18297.3
945.8399	2162.9865	19141.8	18250.45
945.9749	2164.4958	19067.65	18175.95
946.1099	2166.0045	18944.15	18049.8
946.2449	2167.5124	18965	18074.95
946.3799	2169.0195	18872.65	17982.9
946.5148	2170.526	18873.3	17982.05
946.6498	2172.0317	18786.5	17895.6
946.7846	2173.5367	18714.45	17821.2
946.9195	2175.0409	18675.65	17785.55
947.0543	2176.5445	18665.2	17776.45
947.1891	2178.0473	18589.15	17698
947.3239	2179.5494	18463.75	17569.2
947.4587	2181.0507	18431.05	17540.5
947.5934	2182.5513	18303.8	17414.2
947.7281	2184.0512	18298.6	17407.75
947.8628	2185.5504	18226.65	17336.6
947.9974	2187.0488	18141.15	17251.5
948.132	2188.5465	18106	17214.2
948.2666	2190.0435	18000.75	17108.8
948.4012	2191.5397	17972.55	17082.55
948.5357	2193.0353	17899.35	17006.85
948.6702	2194.5301	17785.7	16895.4
948.8047	2196.0241	17753.2	16860.45
948.9392	2197.5175	17697.45	16806.75
949.0736	2199.0101	17619.75	16726
949.208	2200.502	17536.85	16648.5
949.3424	2201.9931	17450.3	16558.9
949.4767	2203.4835	17378.05	16487.85
949.611	2204.9733	17362.05	16463.8
949.7453	2206.4622	17304	16413.55
949.8796	2207.9505	17238.05	16344.3
950.0138	2209.438	17138.95	16251
950.148	2210.9248	17073.7	16182.9
950.2822	2212.4109	17038.6	16147.3
950.4164	2213.8962	16971.4	16078.85
950.5505	2215.3809	16954.1	16062.2
950.6846	2216.8648	16878.9	15990.5
950.8186	2218.3479	16809.8	15915.65
950.9527	2219.8304	16739.1	15845.25
951.0867	2221.3121	16686.4	15793.15
951.2207	2222.7931	16629.05	15737.75
951.3546	2224.2733	16568.9	15677.35
951.4886	2225.7529	16508.55	15614.8
951.6225	2227.2317	16444.8	15551.45
951.7563	2228.7098	16441.25	15550.65
951.8902	2230.1872	16326.85	15435.5
952.024	2231.6638	16307.45	15416.25
952.1578	2233.1397	16252.65	15356.3
952.2916	2234.6149	16223.45	15330.75
952.4253	2236.0894	16136.15	15243.65
952.559	2237.5632	16102.6	15203.65
952.6927	2239.0362	16004.75	15114.6
952.8263	2240.5085	15976.8	15086.25
952.9599	2241.9801	15957.1	15065.65
953.0935	2243.4509	15874.65	14985.9
953.2271	2244.921	15796.1	14903.45
953.3606	2246.3904	15716.5	14822.7
953.4941	2247.8591	15678.35	14787.05
953.6276	2249.3271	15625.55	14733.8
953.7611	2250.7943	15565.15	14673.25
953.8945	2252.2608	15511.1	14620.25
954.0279	2253.7266	15480.85	14591.1
954.1612	2255.1917	15440.55	14550.4
954.2946	2256.656	15351	14460.15
954.4279	2258.1197	15304.45	14413.35
954.5612	2259.5826	15267.25	14376.1
954.6944	2261.0447	15221.65	14329.05
954.8276	2262.5062	15163.65	14271.05
954.9608	2263.9669	15129	14238.35
955.094	2265.4269	15104.3	14214.35
955.2271	2266.8862	15034.2	14143.75
955.3602	2268.3448	14998	14106.5
955.4933	2269.8026	14968.1	14075.6
955.6264	2271.2598	14920.8	14028.7
955.7594	2272.7162	14866.95	13976
955.8924	2274.1719	14820.95	13927.85
956.0253	2275.6268	14765.25	13874.75
956.1583	2277.0811	14725	13835.1
956.2912	2278.5346	14678.9	13787.55
956.4241	2279.9874	14628.4	13738.55
956.5569	2281.4395	14608.65	13717.85
956.6897	2282.8908	14539.7	13644.4
956.8225	2284.3414	14516.9	13623.85
956.9553	2285.7914	14445.05	13553.25
957.088	2287.2406	14396.35	13504.35
957.2207	2288.689	14377.8	13487.4
957.3534	2290.1368	14362.7	13469.5
957.486	2291.5838	14284.95	13392.2
957.6186	2293.0302	14253.8	13361.55
957.7512	2294.4758	14166.65	13276.25
957.8838	2295.9206	14117.35	13223.2
958.0163	2297.3648	14078.9	13186.15
958.1488	2298.8082	14062	13170.1
958.2813	2300.251	13988.75	13099.15
958.4137	2301.693	13935.8	13041.85
958.5461	2303.1343	13934.1	13043.3
958.6785	2304.5748	13871.55	12982.55
958.8108	2306.0147	13793.65	12900
958.9432	2307.4538	13778.8	12885.05
959.0754	2308.8922	13754.15	12863.75
959.2077	2310.3299	13698.05	12807.55
959.3399	2311.7669	13660.65	12770.2
959.4721	2313.2031	13593.6	12701.9
959.6043	2314.6387	13530.75	12640.75
959.7365	2316.0735	13490.3	12600.3
959.8686	2317.5076	13462.9	12573.65
960.0006	2318.941	13425.05	12534.25
960.1327	2320.3737	13375.3	12485.55
960.2647	2321.8056	13331.85	12437.95
960.3967	2323.2369	13288.6	12396.75
960.5287	2324.6674	13236	12341.8
960.6606	2326.0972	13196.85	12303.35
960.7925	2327.5263	13168.45	12276.85
960.9244	2328.9547	13100.8	12211
961.0562	2330.3823	13077.95	12186.2
961.1881	2331.8092	13064.6	12172.05
961.3198	2333.2355	12994.7	12101.9
961.4516	2334.661	12976.8	12084.25
961.5833	2336.0858	12943.3	12050.25
961.715	2337.5098	12902.2	12013.05
961.8467	2338.9332	12860.95	11970.05
961.9783	2340.3558	12808.75	11913.75
962.1099	2341.7778	12782.1	11891.9
962.2415	2343.199	12695.4	11802.35
962.373	2344.6195	12654.65	11763.1
962.5045	2346.0393	12623.6	11733.6
962.636	2347.4583	12618.2	11726.2
962.7675	2348.8767	12562.05	11669.55
962.8989	2350.2943	12525.15	11634.15
963.0303	2351.7113	12501.75	11608.7
963.1617	2353.1275	12469.8	11577.8
963.293	2354.543	12438.95	11523.6
963.4243	2355.9578	12364.8	11473.15
963.5556	2357.3718	12272.55	11380.4
963.6868	2358.7852	12248.9	11355.2
963.818	2360.1978	12178.65	11287.05
963.9492	2361.6098	12163.8	11272.05
964.0803	2363.021	12111.45	11219.35
964.2114	2364.4315	12091.65	11201.45
964.3425	2365.8413	12016.5	11126.25
964.4736	2367.2504	11996.8	11106.6
964.6046	2368.6587	11934.8	11043.85
964.7356	2370.0664	11869.65	10978.7
964.8666	2371.4733	11859.75	10968.3
964.9975	2372.8795	11825.25	10932.25
965.1284	2374.285	11780.65	10890
965.2593	2375.6899	11717.65	10827.75
965.3901	2377.0939	11650.85	10760.9
965.5209	2378.4973	11578.6	10687.7
965.6517	2379.9	11538.8	10646.8
965.7825	2381.3019	11516.6	10624.9
965.9132	2382.7032	11493.85	10603.95
966.0439	2384.1037	11426.5	10540.5
966.1745	2385.5035	11394.45	10502.95
966.3051	2386.9027	11355.3	10466.45
966.4357	2388.3011	11322.2	10429.2
966.5663	2389.6987	11285.3	10394
966.6968	2391.0957	11250.95	10361.35
966.8273	2392.492	11193.65	10304.4
966.9578	2393.8876	11151.85	10261.3
967.0882	2395.2824	11099.35	10208.85
967.2186	2396.6765	11061.15	10172.8
967.349	2398.07	11006.15	10117.9
967.4793	2399.4627	10985.4	10094.1
967.6097	2400.8547	10951.6	10062.55
967.7399	2402.246	10902.85	10005.4
967.8702	2403.6366	10856.9	9965.55
968.0004	2405.0265	10785.75	9893.8
968.1306	2406.4156	10767.35	9871.45
968.2607	2407.8041	10708.15	9815.05
968.3909	2409.1918	10680.35	9788.9
968.521	2410.5789	10632.2	9741.4
968.651	2411.9652	10596.5	9704.2
968.781	2413.3508	10578.85	9687.95
968.911	2414.7358	10508.05	9616.9
969.041	2416.12	10446.2	9555.8
969.1709	2417.5035	10430.8	9540.6
969.3008	2418.8863	10379.7	9488.05
969.4307	2420.2684	10376.6	9485.95
969.5606	2421.6497	10325.4	9433.9
969.6904	2423.0304	10256.6	9365.85
969.8201	2424.4104	10260.25	9369.95
969.9499	2425.7896	10185.05	9293.05
970.0796	2427.1682	10184.6	9293.95
970.2093	2428.546	10150.9	9258.75
970.3389	2429.9232	10132.05	9238.1
970.4685	2431.2996	10090.45	9199.85
970.5981	2432.6753	10056.75	9164.05
970.7277	2434.0503	10053.9	9163.75
970.8572	2435.4246	9989.25	9101
970.9867	2436.7982	9964.9	9072.65
971.1161	2438.1711	9929.3	9040.7
971.2456	2439.5433	9880.6	8990
971.375	2440.9148	9858.4	8967.15
971.5043	2442.2856	9785.3	8895.15
971.6336	2443.6557	9783.2	8889.15
971.7629	2445.025	9747.7	8858.8
971.8922	2446.3937	9728.3	8836.4
972.0214	2447.7617	9693.65	8801.3
972.1506	2449.1289	9647	8756.7
972.2798	2450.4955	9640.75	8744.9
972.4089	2451.8613	9611.25	8720.7
972.538	2453.2265	9599.25	8709.8
972.6671	2454.5909	9557.6	8664.65
972.7961	2455.9546	9516.1	8627.1
972.9251	2457.3177	9470.65	8580.35
973.0541	2458.68	9457.65	8566.25
973.1831	2460.0416	9432.2	8542.45
973.312	2461.4025	9418.85	8526.55
973.4408	2462.7627	9406.65	8504.1
973.5697	2464.1222	9361.25	8471.4
973.6985	2465.4811	9337.15	8446.8
973.8273	2466.8392	9300.45	8408.85
973.956	2468.1966	9266.85	8373.75
974.0847	2469.5533	9281.5	8387
974.2134	2470.9093	9219.7	8326.5
974.3421	2472.2645	9211.2	8320.25
974.4707	2473.6191	9150.75	8260.05
974.5993	2474.973	9117.1	8225.35
974.7278	2476.3262	9101.95	8210.65
974.8563	2477.6787	9071.9	8181.15
974.9848	2479.0305	9029.15	8137.8
975.1132	2480.3816	9000.05	8107.6
975.2417	2481.7319	8948.55	8058.8
975.37	2483.0816	8932.5	8040.2
975.4984	2484.4306	8896.95	8006.3
975.6267	2485.7789	8845.2	7954.8
975.755	2487.1264	8828.15	7936.15
975.8833	2488.4733	8779.15	7888.65
976.0115	2489.8195	8739.25	7842.05
976.1397	2491.165	8733.7	7840.2
976.2678	2492.5097	8715.35	7824
976.3959	2493.8538	8659.75	7769.85
976.524	2495.1972	8621.2	7730.8
976.6521	2496.5398	8575.4	7682.85
976.7801	2497.8818	8572.15	7679.25
976.9081	2499.2231	8514.1	7623.75
977.036	2500.5637	8480.15	7587.8
977.164	2501.9035	8474.3	7582.9
977.2918	2503.2427	8433.6	7539.1
977.4197	2504.5812	8401.6	7512.35
977.5475	2505.919	8395.6	7502.85
977.6753	2507.256	8376.5	7484.7
977.8031	2508.5924	8333.05	7444.3
977.9308	2509.9281	8296.4	7399.15
978.0585	2511.2631	8254.75	7364
978.1861	2512.5974	8232.25	7340.85
978.3137	2513.9309	8213.25	7320.8
978.4413	2515.2638	8220.15	7294.75
978.5689	2516.596	8159.95	7270.3
978.6964	2517.9275	8138.15	7246.3
978.8239	2519.2583	8075.2	7181
978.9513	2520.5884	8050.65	7156.65
979.0788	2521.9178	8041.15	7150.5
979.2062	2523.2465	8015.2	7123.25
979.3335	2524.5745	7960.25	7068.4
979.4608	2525.9018	7929.8	7038.4
979.5881	2527.2284	7906.5	7016.6
979.7154	2528.5543	7929.85	7042.1
979.8426	2529.8796	7900.35	7012.15
979.9698	2531.2041	7871.3	6979.6
980.0969	2532.5279	7852.5	6961.45
980.224	2533.851	7835.45	6946.85
980.3511	2535.1735	7796.7	6904.2
980.4781	2536.4952	7777.35	6886.7
980.6052	2537.8163	7772.15	6879.3
980.7321	2539.1366	7725.45	6833.55
980.8591	2540.4562	7713.85	6823.8
980.986	2541.7752	7701.15	6810.85
981.1129	2543.0935	7676.3	6784.85
981.2397	2544.411	7666.8	6775.55
981.3665	2545.7279	7637.15	6747.25
981.4933	2547.0441	7615.15	6723
981.62	2548.3596	7636.55	6742.1
981.7467	2549.6744	7604.45	6714.4
981.8734	2550.9885	7555.6	6662.9
982.0001	2552.3019	7538.85	6649.3
982.1267	2553.6146	7521.6	6632.45
982.2532	2554.9266	7482.65	6589.9
982.3798	2556.2379	7499.4	6606.25
982.5063	2557.5485	7468.6	6579.3
982.6327	2558.8585	7432.4	6531.55
982.7592	2560.1677	7421.8	6528.05
982.8856	2561.4762	7403.85	6510.9
983.0119	2562.7841	7386.65	6492.45
983.1383	2564.0913	7364.4	6474.15
983.2646	2565.3977	7351	6460.65
983.3908	2566.7035	7329.4	6437.2
983.517	2568.0086	7316.5	6425.4
983.6432	2569.313	7301.8	6410.25
983.7694	2570.6167	7300.6	6403.85
983.8955	2571.9197	7240.45	6349.55
984.0216	2573.222	7244.35	6349.25
984.1476	2574.5236	7224.5	6332.25
984.2737	2575.8246	7202.3	6309.6
984.3996	2577.1248	7191.6	6298
984.5256	2578.4244	7176.75	6286
984.6515	2579.7232	7180.8	6288.25
984.7774	2581.0214	7201.65	6286.4
984.9032	2582.3189	7132.6	6241.55
985.029	2583.6157	7132.6	6235.95
985.1548	2584.9118	7096.75	6203.75
985.2806	2586.2072	7089.15	6198.85
985.4063	2587.5019	7046.75	6156.05
985.5319	2588.7959	7017.45	6127.65
985.6576	2590.0893	7045.25	6153.5
985.7832	2591.3819	7018.5	6129.65
985.9087	2592.6739	6976.25	6085.55
986.0343	2593.9652	6973.15	6080.9
986.1597	2595.2557	6934.7	6044.25
986.2852	2596.5456	6934.1	6040.35
986.4106	2597.8348	6910.6	6020.5
986.536	2599.1234	6867.55	5977.1
986.6614	2600.4112	6867.6	5976.25
986.7867	2601.6983	6854.5	5961.65
986.912	2602.9848	6796.45	5905.5
987.0372	2604.2705	6771.75	5875.35
987.1624	2605.5556	6751.35	5861.15
987.2876	2606.84	6748.5	5856.4
987.4128	2608.1237	6703.95	5811.3
987.5379	2609.4067	6686.5	5796.75
987.6629	2610.689	6672.55	5772.85
987.788	2611.9707	6628.1	5733.9
987.913	2613.2516	6624.75	5730.75
988.0379	2614.5319	6592.2	5700.05
988.1629	2615.8115	6566.65	5673.95
988.2878	2617.0903	6550.45	5657.9
988.4126	2618.3685	6513	5620.95
988.5375	2619.6461	6500.15	5608.85
988.6622	2620.9229	6487.3	5597.65
988.787	2622.199	6463.9	5572.15
988.9117	2623.4745	6449.4	5558.65
989.0364	2624.7493	6447.9	5555.55
989.161	2626.0234	6413.45	5521.75
989.2857	2627.2968	6375.3	5483.5
989.4102	2628.5695	6343.8	5451.2
989.5348	2629.8415	6314.1	5422.85
989.6593	2631.1128	6289.7	5396.45
989.7837	2632.3835	6268.95	5378.55
989.9082	2633.6535	6258.1	5367.95
990.0326	2634.9228	6238.75	5349.25
990.1569	2636.1914	6229.45	5338.7
990.2812	2637.4593	6202.75	5307.2
990.4055	2638.7265	6183.45	5291
990.5298	2639.9931	6145	5254.5
990.654	2641.259	6134.35	5243.8
990.7782	2642.5242	6119.5	5227.95
990.9023	2643.7887	6103.15	5212
991.0264	2645.0525	6089.9	5198.45
991.1505	2646.3156	6059.5	5167.8
991.2745	2647.5781	6040.4	5149.85
991.3985	2648.8398	6023.45	5134.9
991.5225	2650.1009	6006.95	5106.15
991.6464	2651.3613	5980.05	5089.8
991.7703	2652.6211	5979.85	5089.55
991.8942	2653.8801	5949.15	5060.55
992.018	2655.1385	5939.05	5045.45
992.1418	2656.3961	5924.65	5033.05
992.2655	2657.6531	5910.45	5019.15
992.3892	2658.9094	5898.95	5008.2
992.5129	2660.1651	5886.8	4996.35
992.6366	2661.42	5880.2	4989.1
992.7602	2662.6743	5855.9	4962.75
992.8837	2663.9279	5858.55	4966.7
993.0073	2665.1808	5830.15	4938
993.1307	2666.433	5806.8	4914.05
993.2542	2667.6846	5796.25	4904.75
993.3776	2668.9354	5768.5	4872.6
993.501	2670.1856	5760.75	4868.35
993.6244	2671.4351	5748.3	4857.95
993.7477	2672.6839	5721.5	4829.8
993.8709	2673.9321	5710.75	4820.75
993.9942	2675.1795	5708.95	4817.75
994.1174	2676.4263	5682.55	4791
994.2405	2677.6724	5679.05	4788.9
994.3637	2678.9179	5659.25	4767.6
994.4868	2680.1626	5654.6	4765.05
994.6098	2681.4067	5635.4	4744.2
994.7328	2682.6501	5620.75	4729.35
994.8558	2683.8928	5600.45	4710.4
994.9788	2685.1348	5581.9	4691.95
995.1017	2686.3761	5536.3	4646.1
995.2245	2687.6168	5515.25	4625.8
995.3474	2688.8568	5518.7	4628.95
995.4702	2690.0961	5480.55	4591.65
995.5929	2691.3348	5456.4	4564.7
995.7156	2692.5727	5455.2	4563.5
995.8383	2693.81	5424.55	4534.2
995.961	2695.0466	5421	4531.35
996.0836	2696.2826	5404.55	4513.9
996.2062	2697.5178	5410.5	4518.45
996.3287	2698.7524	5359.7	4468.25
996.4512	2699.9863	5370	4476.75
996.5737	2701.2195	5345.9	4456
996.6961	2702.452	5324.45	4432.3
996.8185	2703.6839	5319.9	4428.75
996.9408	2704.9151	5309.8	4419.85
997.0631	2706.1456	5285.35	4394.05
997.1854	2707.3755	5269.9	4380.05
997.3077	2708.6046	5269.95	4375.15
997.4299	2709.8331	5265	4373.55
997.552	2711.0609	5265.3	4374.3
997.6742	2712.2881	5248.05	4358.25
997.7963	2713.5145	5243.2	4350.5
997.9183	2714.7403	5229.8	4339.55
998.0403	2715.9654	5220.9	4329.3
998.1623	2717.1899	5222.9	4316.5
998.2842	2718.4136	5212.9	4323.35
998.4062	2719.6367	5208.25	4318.75
998.528	2720.8591	5212.2	4313.7
998.6498	2722.0809	5188.9	4297.35
998.7716	2723.3019	5170.4	4274.85
998.8934	2724.5223	5170.45	4279.1
999.0151	2725.7421	5175.05	4283.3
999.1368	2726.9611	5143.6	4249.25
999.2584	2728.1795	5133.55	4237.7
999.38	2729.3972	5114.75	4223.7
999.5016	2730.6142	5090.55	4192.15
999.6231	2731.8306	5046.5	4153
999.7446	2733.0462	5021.2	4128.65
999.8661	2734.2612	4984	4086.75
999.9875	2735.4756	4960.25	4066.65
1000.1089	2736.6892	4921.5	4030.9
1000.2302	2737.9022	4895.45	4005.05
1000.3515	2739.1145	4847.7	3955.75
1000.4728	2740.3262	4832.9	3933.9
1000.594	2741.5372	4812.45	3922.75
1000.7152	2742.7475	4776.8	3886.45
1000.8363	2743.9571	4766.7	3873.95
1000.9575	2745.1661	4753.2	3856.7
1001.0785	2746.3744	4722.75	3829.75
1001.1996	2747.582	4708.95	3816.7
1001.3206	2748.7889	4681.8	3790.35
1001.4415	2749.9952	4663.8	3774.3
1001.5625	2751.2008	4659.9	3766.3
1001.6833	2752.4057	4638.45	3745.6
1001.8042	2753.61	4605.9	3714.35
1001.925	2754.8136	4608.4	3714.9
1002.0458	2756.0165	4588.35	3697.65
1002.1665	2757.2188	4575.2	3685.4
1002.2872	2758.4204	4569.85	3679.35
1002.4078	2759.6213	4549.6	3655.85
1002.5285	2760.8215	4552.5	3656.3
1002.649	2762.0211	4526.6	3633.25
1002.7696	2763.22	4507.5	3613.15
1002.8901	2764.4182	4493.35	3601.05
1003.0106	2765.6158	4476.8	3583.65
1003.131	2766.8127	4457.85	3566.6
1003.2514	2768.009	4447.25	3555.35
1003.3717	2769.2045	4428.05	3535.5
1003.492	2770.3994	4445.7	3553.7
1003.6123	2771.5936	4391.55	3498.45
1003.7325	2772.7872	4379.7	3488.05
1003.8527	2773.9801	4373.05	3481.75
1003.9729	2775.1723	4361.15	3452.3
1004.093	2776.3639	4344.55	3452.7
1004.2131	2777.5548	4332.25	3439.45
1004.3331	2778.745	4314.65	3420.5
1004.4531	2779.9346	4316.55	3426.3
1004.5731	2781.1235	4320.5	3427.8
1004.693	2782.3117	4293.4	3402.85
1004.8129	2783.4992	4280.65	3389.95
1004.9328	2784.6861	4272.8	3378.7
1005.0526	2785.8723	4273.55	3380.55
1005.1723	2787.0579	4263.25	3370.75
1005.2921	2788.2428	4260.75	3369.7
1005.4118	2789.427	4264.9	3374.4
1005.5314	2790.6106	4253.7	3365.1
1005.651	2791.7935	4251.55	3358.75
1005.7706	2792.9757	4245.35	3355.95
1005.8902	2794.1573	4242.05	3348.9
1006.0097	2795.3382	4235.9	3344.55
1006.1291	2796.5184	4238.6	3349.3
1006.2485	2797.698	4239.8	3346.05
1006.3679	2798.8769	4243.35	3351.65
1006.4873	2800.0551	4262.5	3372.95
1006.6066	2801.2327	4264.2	3372.1
1006.7258	2802.4096	4251.3	3362
1006.8451	2803.5859	4263.75	3372
1006.9642	2804.7615	4281	3388.2
1007.0834	2805.9364	4278.45	3389.4
1007.2025	2807.1106	4294.5	3404.5
1007.3216	2808.2842	4323.65	3432.5
1007.4406	2809.4572	4327	3436.65
1007.5596	2810.6294	4361.5	3470.2
1007.6785	2811.801	4405.45	3517.15
1007.7975	2812.972	4421.65	3530.55
1007.9163	2814.1423	4462.65	3573.2
1008.0352	2815.3119	4507.65	3616.55
1008.154	2816.4808	4538.65	3650.9
1008.2727	2817.6491	4589.15	3698.6
1008.3914	2818.8167	4611.25	3721.85
1008.5101	2819.9837	4662.55	3768.45
1008.6288	2821.15	4693.45	3801.45
1008.7474	2822.3157	4724.75	3835.35
1008.8659	2823.4807	4752.05	3860.85
1008.9844	2824.645	4791.75	3899.25
1009.1029	2825.8086	4811.85	3921.3
1009.2214	2826.9716	4855.4	3963.95
1009.3398	2828.134	4897.9	4008.75
1009.4581	2829.2957	4933.4	4042.6
1009.5764	2830.4567	4935.4	4046.15
1009.6947	2831.617	4937.95	4048.4
1009.813	2832.7767	4954.6	4064.2
1009.9312	2833.9358	4953.2	4063.1
1010.0493	2835.0941	4939.15	4047.25
1010.1675	2836.2519	4917.15	4026.9
1010.2855	2837.4089	4905.2	4013.1
1010.4036	2838.5653	4901.7	4012
1010.5216	2839.7211	4890.7	4003.05
1010.6396	2840.8761	4872	3979.7
1010.7575	2842.0306	4876.1	3986.3
1010.8754	2843.1843	4917	4025.95
1010.9932	2844.3374	4949.15	4059.95
1011.111	2845.4899	5000.3	4109.35
1011.2288	2846.6417	5071.35	4180.65
1011.3465	2847.7928	5150.45	4259.7
1011.4642	2848.9433	5228.4	4338.95
1011.5818	2850.0931	5268.75	4378.55
1011.6995	2851.2422	5360.35	4467.95
1011.817	2852.3907	5423.65	4530.1
1011.9345	2853.5385	5497.5	4606.75
1012.052	2854.6857	5552.5	4633.8
1012.1695	2855.8323	5574	4682.95
1012.2869	2856.9781	5610.4	4720.2
1012.4042	2858.1233	5644.2	4753.3
1012.5216	2859.2679	5669	4777.9
1012.6389	2860.4118	5709.7	4818.95
1012.7561	2861.555	5742.1	4845.5
1012.8733	2862.6976	5773.2	4881.15
1012.9905	2863.8395	5782.5	4892.9
1013.1076	2864.9808	5790.7	4899.9
1013.2247	2866.1214	5802.75	4912.65
1013.3417	2867.2614	5818.3	4927.8
1013.4587	2868.4007	5817.3	4924.1
1013.5757	2869.5393	5828.3	4934.8
1013.6926	2870.6773	5818.35	4926.15
1013.8095	2871.8146	5846.1	4949.3
1013.9263	2872.9513	5816.35	4922.25
1014.0431	2874.0874	5812.35	4922.3
1014.1599	2875.2227	5792.35	4902.05
1014.2766	2876.3574	5778	4888.3
1014.3933	2877.4915	5750.65	4861.65
1014.51	2878.6249	5716.7	4826.55
1014.6266	2879.7577	5674.25	4782.9
1014.7431	2880.8898	5635.45	4734.5
1014.8596	2882.0212	5609.35	4719.4
1014.9761	2883.152	5571.4	4678.15
1015.0925	2884.2821	5562.85	4672.05
1015.2089	2885.4116	5551.75	4663.25
1015.3253	2886.5405	5521.85	4633.2
1015.4416	2887.6686	5527.95	4635.25
1015.5579	2888.7962	5523.3	4633.75
1015.6741	2889.923	5509.8	4620.75
1015.7903	2891.0493	5505.15	4614.8
1015.9065	2892.1748	5519.55	4629.55
1016.0226	2893.2997	5524.95	4632.55
1016.1387	2894.424	5529.8	4639.9
1016.2547	2895.5476	5543.25	4652.55
1016.3707	2896.6706	5574.7	4685.85
1016.4866	2897.7929	5575.3	4684.9
1016.6025	2898.9145	5601.65	4711.2
1016.7184	2900.0355	5611.5	4718.35
1016.8342	2901.1559	5638.7	4746.35
1016.95	2902.2756	5677.15	4788
1017.0658	2903.3946	5698.5	4808.55
1017.1815	2904.513	5699.35	4806.05
1017.2971	2905.6308	5719.45	4829.5
1017.4127	2906.7479	5739.35	4848.8
1017.5283	2907.8643	5763.95	4872.3
1017.6439	2908.9801	5755.15	4865.1
1017.7594	2910.0953	5747.8	4857.1
1017.8748	2911.2098	5749.7	4856.05
1017.9902	2912.3236	5750.05	4851.15
1018.1056	2913.4368	5735.6	4842.8
1018.2209	2914.5494	5706.75	4816.35
1018.3362	2915.6613	5661.4	4766.65
1018.4515	2916.7725	5633.7	4739.35
1018.5667	2917.8831	5587.25	4693.8
1018.6819	2918.9931	5560.25	4666.05
1018.797	2920.1024	5526.75	4636.7
1018.9121	2921.211	5502.95	4613.7
1019.0271	2922.319	5464.2	4573
1019.1421	2923.4264	5442.15	4551.7
1019.2571	2924.5331	5411.75	4523.9
1019.372	2925.6391	5407.45	4517.65
1019.4869	2926.7445	5384.05	4494.15
1019.6017	2927.8493	5376.85	4487.15
1019.7165	2928.9534	5355.6	4462.85
1019.8313	2930.0569	5357.55	4465.15
1019.946	2931.1597	5349.45	4457.8
1020.0606	2932.2619	5306.7	4416.9
1020.1753	2933.3634	5289.2	4399
1020.2899	2934.4643	5288.05	4392
1020.4044	2935.5645	5251.85	4354.15
1020.5189	2936.6641	5216	4319.95
1020.6334	2937.763	5168.15	4276.55
1020.7478	2938.8613	5116.4	4227.65
1020.8622	2939.959	5042.2	4146.4
1020.9765	2941.056	4949.75	4059.75
1021.0908	2942.1523	4848.25	3955.9
1021.2051	2943.248	4750.95	3858.75
1021.3193	2944.3431	4661.7	3771.75
1021.4334	2945.4375	4550.6	3661.45
1021.5476	2946.5313	4433.8	3544.85
1021.6617	2947.6244	4325.45	3434.7
1021.7757	2948.7169	4234.75	3343.3
1021.8897	2949.8087	4134.8	3245
1022.0037	2950.8999	4015.8	3123.7
1022.1176	2951.9904	3941.75	3053.3
1022.2315	2953.0803	3856.9	2965.9
1022.3453	2954.1696	3781.95	2892.5
1022.4591	2955.2582	3734.45	2845.45
1022.5728	2956.3462	3666.8	2775.25
1022.6865	2957.4335	3621.45	2729.9
1022.8002	2958.5202	3588.9	2697.35
1022.9138	2959.6062	3545.85	2656.9
1023.0274	2960.6916	3517.8	2626.8
1023.141	2961.7764	3489.6	2597.8
1023.2545	2962.8605	3469.9	2578.9
1023.3679	2963.9439	3455.05	2566
1023.4813	2965.0267	3440.3	2549.55
1023.5947	2966.1089	3439.8	2528.15
1023.708	2967.1905	3406.95	2517.4
1023.8213	2968.2714	3391.6	2500.9
1023.9346	2969.3516	3383.65	2493.35
1024.0478	2970.4312	3387.05	2489.25
1024.1609	2971.5102	3362.8	2472.8
1024.274	2972.5885	3364.85	2475.35
1024.3871	2973.6662	3363.15	2468.3
1024.5002	2974.7432	3350.05	2460.45
1024.6132	2975.8196	3339.15	2450
1024.7261	2976.8954	3331.4	2439.5
1024.839	2977.9705	3305.6	2416.25
1024.9519	2979.045	3288.65	2399.6
1025.0647	2980.1188	3270.15	2378.75
1025.1775	2981.192	3240.7	2351.9
1025.2902	2982.2645	3217.25	2326.3
1025.4029	2983.3364	3185.3	2295.65
1025.5156	2984.4077	3148.9	2259.25
1025.6282	2985.4783	3114.2	2218.15
1025.7407	2986.5483	3077.05	2186.6
1025.8532	2987.6177	3042.3	2151.55
1025.9657	2988.6864	2988.45	2098.25
1026.0782	2989.7545	2949.15	2056.7
1026.1906	2990.8219	2919.75	2029.55
1026.3029	2991.8887	2883.9	1993.7
1026.4152	2992.9548	2855.6	1964.9
1026.5275	2994.0204	2814.05	1924.25
1026.6397	2995.0852	2777.35	1888.05
1026.7519	2996.1495	2755.35	1866.05
1026.864	2997.2131	2712.2	1820.35
1026.9761	2998.276	2694.7	1803.85
1027.0882	2999.3383	2666.45	1776.95
1027.2002	3000.4	2644.25	1753.55
1027.3122	3001.4611	2622.75	1730.65
1027.4241	3002.5215	2604.55	1713.5
1027.536	3003.5812	2578.25	1689.8
1027.6478	3004.6404	2567.7	1679.4
1027.7596	3005.6989	2557.25	1663.4
1027.8714	3006.7567	2540.3	1650.9
1027.9831	3007.8139	2556.55	1641.35
1028.0947	3008.8705	2523.3	1633
1028.2064	3009.9264	2534.4	1626.95
1028.3179	3010.9818	2504.15	1613.15
1028.4295	3012.0364	2497.45	1608.65
1028.541	3013.0905	2486.4	1594.65
1028.6524	3014.1439	2476.5	1586.3
1028.7638	3015.1966	2478.8	1590.6
1028.8752	3016.2487	2472.6	1583.15
1028.9865	3017.3002	2472.6	1575
1029.0978	3018.3511	2468.3	1576
1029.209	3019.4013	2458	1566.25
1029.3202	3020.4509	2443.55	1554.25
1029.4314	3021.4998	2443.05	1552.85
1029.5425	3022.5481	2445.35	1554.45
1029.6535	3023.5958	2436.25	1547.8
1029.7645	3024.6428	2435.65	1546.4
1029.8755	3025.6892	2426.3	1538.85
1029.9864	3026.735	2436.15	1545.2
1030.0973	3027.7802	2424	1533.85
1030.2082	3028.8247	2421	1531.9
1030.319	3029.8685	2419.4	1528.1
1030.4297	3030.9118	2416.8	1525.8
1030.5404	3031.9544	2422.05	1531.45
1030.6511	3032.9963	2419.5	1531.2
1030.7617	3034.0376	2411.2	1520.65
1030.8723	3035.0783	2421.35	1528.65
1030.9829	3036.1184	2414.6	1522.45
1031.0934	3037.1578	2407	1518.75
1031.2038	3038.1966	2408.05	1519.35
1031.3142	3039.2348	2409.65	1520.55
1031.4246	3040.2723	2408	1510.1
1031.5349	3041.3092	2399.15	1508.9
1031.6452	3042.3455	2386	1494.7
1031.7554	3043.3811	2387.4	1495.55
1031.8656	3044.4161	2365.65	1477.25
1031.9758	3045.4505	2356.5	1466.8
1032.0859	3046.4842	2356.85	1466.85
1032.1959	3047.5173	2339.45	1449.85
1032.3059	3048.5498	2324.05	1432.8
1032.4159	3049.5816	2328.4	1437.15
1032.5258	3050.6128	2312.6	1421.05
1032.6357	3051.6434	2303.8	1409.55
1032.7455	3052.6734	2298.65	1407.55
1032.8553	3053.7027	2294.7	1402.75
1032.9651	3054.7314	2278.2	1388.5
1033.0748	3055.7594	2260.95	1371.15
1033.1845	3056.7868	2260.65	1370.95
1033.2941	3057.8136	2242.15	1352.1
1033.4037	3058.8398	2230.9	1341.55
1033.5132	3059.8653	2224.05	1334.45
1033.6227	3060.8902	2226.6	1335.9
1033.7321	3061.9145	2206.6	1316.1
1033.8415	3062.9381	2199.85	1310.7
1033.9509	3063.9612	2207.85	1301.3
1034.0602	3064.9835	2174.95	1283.2
1034.1694	3066.0053	2172.75	1282.85
1034.2787	3067.0264	2160.95	1271.7
1034.3878	3068.0469	2159.9	1269.1
1034.497	3069.0668	2136.8	1243.45
1034.6061	3070.086	2116.15	1225.9
1034.7151	3071.1046	2113.7	1222.6
1034.8241	3072.1226	2094.8	1203.35
1034.9331	3073.1399	2090.95	1202.2
1035.042	3074.1567	2068.15	1179.8
1035.1508	3075.1727	2066.15	1173.05
1035.2597	3076.1882	2042.3	1151.5
1035.3684	3077.203	2040.65	1151.55
1035.4772	3078.2173	2020.2	1129.25
1035.5859	3079.2308	2020.8	1126.55
1035.6945	3080.2438	2004.8	1112.85
1035.8031	3081.2561	1988.8	1100.8
1035.9117	3082.2678	1981.9	1093.15
1036.0202	3083.2789	1971.95	1082.05
1036.1286	3084.2893	1961.85	1072.2
1036.2371	3085.2991	1949.1	1058.45
1036.3454	3086.3083	1950	1055.6
1036.4538	3087.3169	1932.45	1041.7
1036.562	3088.3248	1923.55	1033.05
1036.6703	3089.3321	1917.05	1026.25
1036.7785	3090.3388	1898.9	1010.25
1036.8866	3091.3449	1893.45	1004.5
1036.9948	3092.3503	1891.2	1000.25
1037.1028	3093.3551	1888.9	1001.1
1037.2108	3094.3593	1872.15	983.4
1037.3188	3095.3629	1865.75	977.25
1037.4267	3096.3658	1866.7	973.3
1037.5346	3097.3681	1854.4	964.35
1037.6425	3098.3698	1851.9	961.4
1037.7503	3099.3708	1849.15	954.05
1037.858	3100.3713	1835.05	945.05
1037.9657	3101.3711	1832.55	942.8
1038.0734	3102.3702	1929.65	925.3
1038.181	3103.3688	1828.95	937.85
1038.2886	3104.3667	1820.15	930.1
1038.3961	3105.364	1813	922.3
1038.5036	3106.3607	1799.4	909
1038.611	3107.3568	1788.7	897.8
1038.7184	3108.3522	1788.85	899.95
1038.8257	3109.347	1780.05	888.5
1038.933	3110.3412	1788.25	893.85
1039.0403	3111.3348	1781.95	889.55
1039.1475	3112.3277	1763.5	874.2
1039.2547	3113.32	1764.45	874.9
1039.3618	3114.3117	1752.4	862.95
1039.4689	3115.3028	1750.6	862.1
1039.5759	3116.2932	1761.75	869.85
1039.6829	3117.2831	1747.35	852.45
1039.7898	3118.2723	1736.9	844.95
1039.8967	3119.2608	1736.6	848.05
1040.0035	3120.2488	1725.15	835.25
1040.1103	3121.2361	1719.45	828.55
1040.2171	3122.2229	1714.7	825.55
1040.3238	3123.209	1712.1	821.3
1040.4305	3124.1944	1701.65	813.45
1040.5371	3125.1793	1698.85	809
1040.6437	3126.1635	1701.55	811.95
1040.7502	3127.1471	1696.3	805.9
1040.8567	3128.1301	1692.25	802.2
1040.9631	3129.1125	1678.25	788.55
1041.0695	3130.0942	1682.6	793.55
1041.1759	3131.0753	1689.15	791.35
1041.2822	3132.0558	1676.05	781.85
1041.3884	3133.0357	1674.35	783.15
1041.4946	3134.015	1665.05	774.75
1041.6008	3134.9936	1666.55	776
1041.7069	3135.9716	1675.55	767.3
1041.813	3136.949	1655	765.85
1041.919	3137.9258	1662.15	767.85
1042.025	3138.902	1649.65	754.85
1042.1309	3139.8775	1642.4	755.15
1042.2368	3140.8524	1636.95	746.05
1042.3427	3141.8267	1636.15	743.55
1042.4485	3142.8004	1632.35	742.2
1042.5542	3143.7735	1642.35	745.75
1042.6599	3144.7459	1636.6	742.65
1042.7656	3145.7178	1623	733.35
1042.8712	3146.689	1621	733.7
1042.9768	3147.6596	1622.3	731.8
1043.0823	3148.6295	1609	721.25
1043.1878	3149.5989	1606.35	718.1
1043.2932	3150.5676	1596.9	708.1
1043.3986	3151.5357	1599.8	710.85
1043.5039	3152.5032	1595.85	705.85
1043.6092	3153.4701	1585.3	697.15
1043.7145	3154.4364	1590.85	698.4
1043.8197	3155.402	1571.9	681.5
1043.9248	3156.367	1579.75	688.1
1044.03	3157.3315	1619.1	693.6
1044.135	3158.2952	1568.2	678.5
1044.24	3159.2584	1566.1	677.35
1044.345	3160.221	1559.6	669.75
1044.4499	3161.1829	1552.15	662.15
1044.5548	3162.1442	1547.8	658.65
1044.6596	3163.105	1546.5	656.1
1044.7644	3164.065	1552.5	662.7
1044.8692	3165.0245	1542.5	649.9
1044.9739	3165.9834	1536.65	646.45
1045.0785	3166.9416	1526.4	637.05
1045.1831	3167.8993	1534.1	643.35
1045.2877	3168.8563	1525.05	635.3
1045.3922	3169.8127	1525.2	635.8
1045.4966	3170.7684	1522.7	633.7
1045.6011	3171.7236	1517.35	627.15
1045.7054	3172.6782	1511.9	622.65
1045.8098	3173.6321	1509.1	617.05
1045.914	3174.5854	1510.3	617.6
1046.0183	3175.5381	1498.75	609.3
1046.1224	3176.4902	1493.4	604
1046.2266	3177.4417	1504.2	616.8
1046.3307	3178.3926	1492.65	605
1046.4347	3179.3428	1486.8	598.85
1046.5387	3180.2924	1488.25	597
1046.6427	3181.2415	1479.3	589.7
1046.7466	3182.1899	1474.45	583.75
1046.8504	3183.1377	1479.75	590.65
1046.9542	3184.0848	1484.7	591.2
1047.058	3185.0314	1467.45	577.1
1047.1617	3185.9773	1462.9	575.35
1047.2654	3186.9227	1465.75	576.5
1047.369	3187.8674	1456.7	565.75
1047.4726	3188.8115	1460.4	566.25
1047.5761	3189.755	1448.9	559.7
1047.6796	3190.6979	1449.8	560.05
1047.783	3191.6402	1448.9	559.35
1047.8864	3192.5818	1445.9	556.85
1047.9898	3193.5229	1466.35	553.9
1048.0931	3194.4633	1441.95	551
1048.1963	3195.4031	1439	548.4
1048.2995	3196.3423	1434.35	546.6
1048.4027	3197.2809	1434.2	546.6
1048.5058	3198.2189	1427.85	539.7
1048.6089	3199.1563	1439.1	533.4
1048.7119	3200.0931	1423.4	534.9
1048.8148	3201.0292	1424.25	533.4
1048.9178	3201.9648	1416.5	526.4
1049.0206	3202.8997	1420.5	530.05
1049.1235	3203.834	1405.65	516.85
1049.2262	3204.7677	1410.45	523.15
1049.329	3205.7008	1408.7	518.55
1049.4317	3206.6333	1406.05	517.35
1049.5343	3207.5652	1403.4	513.55
1049.6369	3208.4964	1396.8	507.85
1049.7394	3209.4271	1393.35	505.6
1049.8419	3210.3571	1391.25	503.4
1049.9444	3211.2865	1397	505.55
1050.0468	3212.2154	1393.65	502.25
1050.1491	3213.1436	1390.05	497.85
1050.2514	3214.0712	1389.3	492.8
1050.3537	3214.9982	1380.1	490.3
1050.4559	3215.9246	1375.65	486.85
1050.5581	3216.8503	1372.55	484.45
1050.6602	3217.7755	1373.65	483.3
1050.7623	3218.7001	1371.55	483.7
1050.8643	3219.624	1372.3	484.1
1050.9663	3220.5473	1363.5	472.3
1051.0682	3221.4701	1363.6	473.1
1051.1701	3222.3922	1360.5	470
1051.2719	3223.3137	1363.8	474.25
1051.3737	3224.2346	1362.85	475.25
1051.4754	3225.1549	1348.5	458.9
1051.5771	3226.0746	1352	465
1051.6788	3226.9937	1353.9	465.8
1051.7804	3227.9121	1350.25	459.95
1051.8819	3228.83	1338.6	450.05
1051.9834	3229.7473	1343.85	454.05
1052.0849	3230.6639	1331.7	441.4
1052.1863	3231.5799	1343.55	455.3
1052.2876	3232.4954	1340.5	450
1052.3889	3233.4102	1341.15	452.8
1052.4902	3234.3244	1333.55	443.6
1052.5914	3235.238	1320.95	432.15
1052.6926	3236.151	1349.9	436.95
1052.7937	3237.0634	1321.5	431.5
1052.8948	3237.9752	1319.55	429.95
1052.9958	3238.8864	1316.1	428.25
1053.0968	3239.797	1320.85	432.45
1053.1977	3240.7069	1313.45	425.4
1053.2986	3241.6163	1306.8	416.25
1053.3994	3242.5251	1302	412.85
1053.5002	3243.4332	1303.55	415.9
1053.6009	3244.3408	1300.1	410.1
1053.7016	3245.2477	1299.6	411.15
1053.8022	3246.154	1298.7	408.9
1053.9028	3247.0598	1300.55	409.35
1054.0034	3247.9649	1290.6	402.2
1054.1039	3248.8694	1281.95	393.7
1054.2043	3249.7733	1288.3	399.35
1054.3047	3250.6766	1281.85	393.45
1054.4051	3251.5793	1284	393.55
1054.5054	3252.4814	1280.8	393.2
1054.6056	3253.3829	1273.75	385.35
1054.7058	3254.2838	1279.35	391
1054.806	3255.1841	1267	377.65
1054.9061	3256.0838	1265.45	376.1
1055.0061	3256.9829	1264.55	377
1055.1062	3257.8814	1256.95	366.3
1055.2061	3258.7792	1254.4	363.25
1055.306	3259.6765	1257.5	367.95
1055.4059	3260.5731	1248.4	360.2
1055.5057	3261.4692	1249.05	359.65
1055.6055	3262.3647	1243.45	353.15
1055.7052	3263.2595	1232.9	342.85
1055.8049	3264.1538	1230.4	342.15
1055.9045	3265.0474	1227.35	336.55
1056.0041	3265.9404	1224.45	335.15
1056.1036	3266.8329	1216.8	327.35
1056.2031	3267.7247	1219.35	319.85
1056.3025	3268.616	1197.1	312.1
1056.4019	3269.5066	1199.45	311.1
1056.5013	3270.3966	1184.55	293.4
1056.6005	3271.286	1179.3	290.7
