Software Version:	3.9.2.0
Unit SN:	10000200
Spectrometer SN:	6960
Date:	3/6/2024 10:32:00 AM
Data Line Index:	25
Spectral Points:	2048
Integration time (ms):	125
Averages:	20
Delay (ms):	30
Sequence Number:	1
Processing:	dark subtract
Laser Power (mW):	300
Laser Current (mA):	825
Laser Diode Temp (C):	25.1
Laser Case Temp (C):	26.3
System Temp (C):	26.1
Spectrometer Temp (C):	23.6
CCD Temp (C):	-0.003
Secondary Temp (C):	20.013
Heatsink Temp (C):	21.652
CCDPCB Temp (C):	36.129
SecondaryPCB Temp (C):	30.115

Wavelength	RamanShift	Raw Counts	Dark Subtracted
787.061	30.1047	1137.45	723.8
787.2016	32.3739	1161.7	751.5
787.3422	34.6426	1203.05	791.2
787.4828	36.9109	1258.85	847.45
787.6235	39.1787	1316.8	899.5
787.7642	41.4461	1377.2	956.3
787.9049	43.7131	1437.45	1010.95
788.0456	45.9796	1496.1	1067.6
788.1863	48.2456	1568.9	1139
788.3271	50.5112	1642.9	1207.6
788.4679	52.7764	1710.25	1271.4
788.6087	55.0411	1788.1	1343.85
788.7496	57.3054	1870.85	1421.65
788.8904	59.5692	1963.2	1513.95
789.0313	61.8326	2048.4	1595.8
789.1722	64.0955	2160.2	1703.1
789.3132	66.3579	2280.65	1818.5
789.4541	68.6199	2431.2	1966.65
789.5951	70.8815	2690.75	2223.45
789.7361	73.1426	3230.05	2758.2
789.8771	75.4032	4575.65	4098.75
790.0181	77.6634	8023.75	7541.45
790.1592	79.9231	17254.4	16766.65
790.3003	82.1824	55755.55	55257.4
790.4414	84.4412	65535	65017.35
790.5825	86.6995	65535	64989.05
790.7237	88.9574	65535	64966.15
790.8648	91.2148	65535	64946.1
791.006	93.4717	65535	64934.35
791.1472	95.7282	65535	64933.85
791.2885	97.9842	65535	64925.3
791.4297	100.2398	65535	64924.6
791.571	102.4949	65535	64922.55
791.7123	104.7495	65535	64919.55
791.8536	107.0036	65535	64918.15
791.9949	109.2573	65535	64918.9
792.1363	111.5105	65535	64919.2
792.2777	113.7632	65535	64917.35
792.4191	116.0154	65535	64905.95
792.5605	118.2672	65535	64908.4
792.7019	120.5185	65535	64908.55
792.8434	122.7693	65535	64905.1
792.9849	125.0197	65535	64900.5
793.1264	127.2696	65535	64896.75
793.2679	129.519	65535	64894.1
793.4094	131.7679	65535	64892.1
793.551	134.0163	65535	64891.75
793.6926	136.2642	65535	64883.35
793.8342	138.5117	65535	64876
793.9758	140.7587	65535	64882.6
794.1175	143.0052	65535	64879.45
794.2591	145.2512	65535	64878.6
794.4008	147.4967	65535	64877.75
794.5425	149.7417	65535	64874.6
794.6842	151.9863	65535	64870.9
794.826	154.2304	65535	64866.95
794.9677	156.4739	65535	64861.3
795.1095	158.717	65535	64862.35
795.2513	160.9596	65535	64858.7
795.3931	163.2017	65535	64855.8
795.535	165.4433	65535	64854.4
795.6768	167.6844	65535	64851.1
795.8187	169.925	65535	64848.2
795.9606	172.1651	65535	64846.5
796.1025	174.4047	65535	64844.8
796.2445	176.6439	65535	64841
796.3864	178.8825	65535	64839.9
796.5284	181.1206	65535	64835.7
796.6704	183.3582	65535	64828.2
796.8124	185.5954	65535	64830.35
796.9544	187.832	65535	64829.2
797.0965	190.0681	65535	64823.6
797.2386	192.3037	65535	64818.1
797.3806	194.5388	65535	64821.05
797.5228	196.7734	65535	64818.7
797.6649	199.0075	65535	64814.65
797.807	201.2411	65535	64815.15
797.9492	203.4742	65535	64811.95
798.0914	205.7068	65535	64808.8
798.2336	207.9389	65535	64801.05
798.3758	210.1704	65535	64803.8
798.518	212.4015	65535	64807.65
798.6603	214.632	65535	64819.65
798.8025	216.862	65535	64824.65
798.9448	219.0915	65535	64827.7
799.0871	221.3205	65535	64818.8
799.2294	223.549	65535	64826
799.3718	225.777	65535	64826.9
799.5141	228.0044	65535	64820.05
799.6565	230.2314	65535	64819.8
799.7989	232.4578	65535	64819.4
799.9413	234.6837	65535	64808.35
800.0837	236.909	65535	64808.95
800.2262	239.1339	65535	64783.7
800.3687	241.3582	65535	64797.8
800.5111	243.582	65535	64766.5
800.6536	245.8053	65535	64776
800.7961	248.0281	65535	64786.5
800.9387	250.2503	65535	64779.7
801.0812	252.472	65535	64778.5
801.2238	254.6932	65535	64777.4
801.3664	256.9139	65535	64779.2
801.509	259.134	65535	64772.4
801.6516	261.3536	65535	64771.95
801.7942	263.5727	65535	64770.45
801.9369	265.7912	65535	64775.45
802.0795	268.0092	65535	64771.5
802.2222	270.2267	65535	64772.15
802.3649	272.4436	65535	64772.15
802.5076	274.6601	65535	64764.05
802.6504	276.8759	65535	64765.5
802.7931	279.0913	65535	64764.3
802.9359	281.3061	65535	64761.75
803.0787	283.5204	65535	64762.2
803.2215	285.7341	65535	64757.85
803.3643	287.9473	65535	64740.65
803.5071	290.16	65535	64755.35
803.6499	292.3721	65535	64756.85
803.7928	294.5837	65535	64755.3
803.9357	296.7947	65535	64759.3
804.0786	299.0052	65535	64756.4
804.2215	301.2152	65535	64753.3
804.3644	303.4246	65535	64754.2
804.5074	305.6334	65535	64753.3
804.6503	307.8418	65535	64751
804.7933	310.0495	65535	64751.4
804.9363	312.2568	65535	64750.75
805.0793	314.4635	65535	64752
805.2223	316.6696	65535	64746.8
805.3653	318.8752	65535	64739.15
805.5084	321.0802	65535	64744.95
805.6514	323.2847	65535	64746.2
805.7945	325.4887	65535	64743.6
805.9376	327.692	65535	64741.3
806.0807	329.8949	65535	64742.3
806.2238	332.0972	65535	64740.85
806.367	334.2989	65535	64738.3
806.5101	336.5001	65535	64737.15
806.6533	338.7007	65535	64739.35
806.7965	340.9008	65535	64735.55
806.9397	343.1003	65535	64732
807.0829	345.2992	65535	64732.5
807.2261	347.4976	65535	64733.2
807.3693	349.6955	65535	64729.1
807.5126	351.8927	65535	64725.8
807.6559	354.0895	65535	64716.3
807.7991	356.2856	65535	64724.45
807.9424	358.4812	65535	64727.85
808.0857	360.6763	65535	64723.15
808.2291	362.8707	65535	64725.85
808.3724	365.0646	65535	64721.25
808.5158	367.258	65535	64721.05
808.6591	369.4508	65535	64715.55
808.8025	371.643	65535	64715.75
808.9459	373.8346	65535	64715.45
809.0893	376.0257	65535	64707.05
809.2327	378.2162	65535	64711.7
809.3762	380.4062	65535	64708.35
809.5196	382.5956	65535	64706.85
809.6631	384.7844	65535	64712.45
809.8066	386.9726	65535	64714.35
809.9501	389.1603	65535	64715.45
810.0936	391.3474	65535	64677.2
810.2371	393.5339	65535	64716.2
810.3806	395.7199	65535	64717.1
810.5241	397.9052	65535	64718.85
810.6677	400.09	65535	64719.45
810.8113	402.2743	65535	64719.9
810.9548	404.4579	65535	64715.65
811.0984	406.641	65535	64713.65
811.2421	408.8235	65535	64716.55
811.3857	411.0054	65535	64709.25
811.5293	413.1868	65535	64710.3
811.673	415.3675	65535	64705.25
811.8166	417.5477	65535	64706.2
811.9603	419.7273	65535	64704.05
812.104	421.9064	65535	64695.65
812.2477	424.0848	65535	64698.3
812.3914	426.2627	65535	64696.8
812.5351	428.4399	65535	64698.55
812.6788	430.6166	65535	64694.2
812.8226	432.7928	65535	64692.5
812.9663	434.9683	65535	64695.1
813.1101	437.1432	65535	64694.6
813.2539	439.3176	65535	64695.2
813.3977	441.4914	65535	64694.35
813.5415	443.6645	65535	64693.05
813.6853	445.8371	65535	64692.35
813.8291	448.0091	65535	64694.75
813.973	450.1806	65535	64692.5
814.1168	452.3514	65535	64688.1
814.2607	454.5216	65535	64681.4
814.4046	456.6913	65535	64687.9
814.5485	458.8603	65535	64685.95
814.6924	461.0288	65535	64688
814.8363	463.1967	65535	64691.75
814.9802	465.3639	65535	64689.8
815.1241	467.5306	65535	64691.45
815.2681	469.6967	65535	64687.15
815.412	471.8622	65535	64690.45
815.556	474.0271	65535	64690.25
815.7	476.1914	65535	64682.5
815.844	478.3551	65535	64686.1
815.988	480.5182	65535	64685.5
816.132	482.6807	65535	64686.75
816.276	484.8426	65535	64683.95
816.4201	487.0039	65535	64686.65
816.5641	489.1647	65535	64681.95
816.7082	491.3248	65535	64687.05
816.8522	493.4843	65535	64685.05
816.9963	495.6432	65535	64686.1
817.1404	497.8015	65535	64681.15
817.2845	499.9592	65535	64681.85
817.4286	502.1163	65535	64680.8
817.5727	504.2728	65535	64679.1
817.7168	506.4287	65535	64682.35
817.861	508.5839	65535	64681.45
818.0051	510.7386	65535	64679.95
818.1493	512.8927	65535	64676.9
818.2935	515.0461	65535	64676.25
818.4377	517.199	65535	64678.9
818.5818	519.3512	65535	64673.7
818.726	521.5029	65535	64670.1
818.8703	523.6539	65535	64675.2
819.0145	525.8043	65535	64675.8
819.1587	527.9541	65535	64673.8
819.303	530.1033	65535	64671.05
819.4472	532.2519	65535	64675.1
819.5915	534.3999	65535	64672.3
819.7357	536.5472	65535	64671.55
819.88	538.694	65535	64671.5
820.0243	540.8401	65535	64672.65
820.1686	542.9856	65535	64668.65
820.3129	545.1305	65535	64668.65
820.4572	547.2748	65535	64668.1
820.6016	549.4185	65535	64665.25
820.7459	551.5615	65535	64667.15
820.8902	553.704	65535	64666.65
821.0346	555.8458	65535	64669.65
821.1789	557.987	65535	64670
821.3233	560.1276	65535	64666
821.4677	562.2675	65535	64668.95
821.6121	564.4069	65535	64669.55
821.7565	566.5456	65535	64668.5
821.9009	568.6837	65535	64666.85
822.0453	570.8212	65535	64667.2
822.1897	572.958	65535	64663.75
822.3342	575.0942	65535	64667.65
822.4786	577.2299	65535	64664.5
822.6231	579.3648	65535	64668.35
822.7675	581.4992	65535	64670.95
822.912	583.6329	65535	64668.2
823.0565	585.766	65535	64670.55
823.201	587.8985	65535	64668.35
823.3454	590.0304	65535	64644.1
823.4899	592.1616	65535	64660.1
823.6345	594.2922	65535	64664.5
823.779	596.4222	65535	64662.5
823.9235	598.5515	65535	64659.8
824.068	600.6802	65535	64661.6
824.2126	602.8083	65535	64662.4
824.3571	604.9358	65535	64660.85
824.5017	607.0626	65535	64662.8
824.6462	609.1888	65535	64660.3
824.7908	611.3144	65535	64660.95
824.9354	613.4393	65535	64659.35
825.08	615.5636	65535	64663.2
825.2246	617.6873	65535	64663.4
825.3692	619.8103	65535	64655.7
825.5138	621.9327	65535	64657.7
825.6584	624.0544	65535	64657.65
825.803	626.1756	65535	64661.05
825.9477	628.2961	65535	64656.25
826.0923	630.4159	65535	64659.6
826.237	632.5351	65535	64658
826.3816	634.6537	65535	64654.95
826.5263	636.7716	65535	64654.3
826.6709	638.8889	65535	64655.6
826.8156	641.0056	65535	64655.8
826.9603	643.1216	65535	64655.9
827.105	645.237	65535	64655.85
827.2497	647.3518	65535	64657.35
827.3944	649.4659	65535	64656.8
827.5391	651.5793	65535	64656.85
827.6838	653.6922	65535	64656.1
827.8285	655.8043	65535	64656.5
827.9733	657.9159	65535	64654.7
828.118	660.0268	65535	64652.85
828.2627	662.137	65535	64654.6
828.4075	664.2466	65535	64653.2
828.5522	666.3556	65535	64652.75
828.697	668.4639	65535	64652.1
828.8418	670.5716	65535	64653.85
828.9865	672.6786	65535	64655.8
829.1313	674.785	65535	64650.25
829.2761	676.8907	65535	64650.7
829.4209	678.9958	65535	64653.25
829.5657	681.1002	65535	64650
829.7105	683.204	65535	64644.75
829.8553	685.3072	65535	64648.8
830.0001	687.4097	65535	64653.4
830.1449	689.5115	65535	64646
830.2898	691.6127	65535	64651.3
830.4346	693.7132	65535	64650.55
830.5794	695.8131	65535	64639.05
830.7243	697.9123	65535	64646.5
830.8691	700.0109	65535	64649.85
831.014	702.1089	65535	64647.35
831.1588	704.2061	65535	64650.8
831.3037	706.3028	65535	64650.05
831.4486	708.3987	65535	64645.95
831.5935	710.4941	65535	64651.45
831.7383	712.5887	65535	64646.3
831.8832	714.6827	65535	64644.95
832.0281	716.7761	65535	64648.9
832.173	718.8688	65535	64647.2
832.3179	720.9608	65535	64644.9
832.4628	723.0522	65535	64642.8
832.6077	725.1429	65535	64644.5
832.7527	727.233	65535	64643.1
832.8976	729.3224	65535	64645.6
833.0425	731.4112	65535	64641.85
833.1874	733.4993	65535	64642.1
833.3324	735.5867	65535	64644
833.4773	737.6735	65535	64642.85
833.6222	739.7596	65535	64642.8
833.7672	741.845	65535	64643.45
833.9122	743.9298	65535	64641.35
834.0571	746.014	65535	64644.2
834.2021	748.0974	65535	64641.65
834.347	750.1802	65535	64642.7
834.492	752.2624	65535	64640.5
834.637	754.3439	65535	64640.2
834.782	756.4247	65535	64633.9
834.9269	758.5048	65535	64642.95
835.0719	760.5843	65535	64641.6
835.2169	762.6631	65535	64642.45
835.3619	764.7413	65535	64643.3
835.5069	766.8188	65535	64640.1
835.6519	768.8956	65535	64640
835.7969	770.9718	65535	64641.4
835.9419	773.0473	65535	64643.3
836.0869	775.1221	65535	64642.5
836.232	777.1962	65535	64639.45
836.377	779.2697	65535	64641.15
836.522	781.3426	65535	64623.75
836.667	783.4147	65535	64639.9
836.8121	785.4862	65535	64645.1
836.9571	787.557	65535	64642.15
837.1021	789.6271	65535	64641.9
837.2472	791.6966	65535	64638.9
837.3922	793.7654	65535	64640.7
837.5373	795.8335	65535	64641.2
837.6823	797.901	65535	64642.85
837.8274	799.9678	65535	64639.2
837.9724	802.0339	65535	64638.6
838.1175	804.0993	65535	64631.05
838.2626	806.1641	65535	64637.45
838.4076	808.2282	65535	64640.3
838.5527	810.2916	65535	64639.25
838.6978	812.3544	65535	64643.3
838.8428	814.4164	65535	64642.95
838.9879	816.4778	65535	64639.65
839.133	818.5385	65535	64637.95
839.2781	820.5986	65535	64638.45
839.4232	822.658	65535	64639.55
839.5682	824.7166	65535	64636.9
839.7133	826.7747	65535	64640.25
839.8584	828.832	65535	64637.75
840.0035	830.8886	65535	64637.55
840.1486	832.9446	65535	64639.55
840.2937	834.9999	65535	64640.55
840.4388	837.0545	65535	64634.95
840.5839	839.1085	65535	64637.15
840.729	841.1618	65535	64635.35
840.8741	843.2143	65535	64634
841.0192	845.2662	65535	64638.15
841.1643	847.3175	65535	64635.15
841.3095	849.368	65535	64641.05
841.4546	851.4179	65535	64637.75
841.5997	853.467	65535	64636.25
841.7448	855.5155	65535	64634.65
841.8899	857.5633	65535	64638.6
842.0351	859.6105	65535	64638.3
842.1802	861.6569	65535	64636.75
842.3253	863.7027	65535	64637.75
842.4704	865.7478	65535	64637.5
842.6156	867.7922	65535	64637.5
842.7607	869.8359	65535	64635.85
842.9058	871.8789	65535	64637.25
843.0509	873.9212	65535	64607.1
843.1961	875.9629	65535	64633.7
843.3412	878.0039	65535	64634.3
843.4863	880.0441	65535	64637.8
843.6315	882.0837	65535	64635.55
843.7766	884.1226	65535	64635.8
843.9218	886.1609	65535	64637.1
844.0669	888.1984	65535	64637.4
844.212	890.2352	65535	64639.9
844.3572	892.2714	65535	64631.65
844.5023	894.3069	65535	64634.9
844.6475	896.3416	65535	64636.8
844.7926	898.3757	65535	64636.65
844.9377	900.4091	65535	64634.8
845.0829	902.4418	65535	64632.45
845.228	904.4739	65535	64633.1
845.3732	906.5052	65535	64634.85
845.5183	908.5358	65535	64634
845.6635	910.5658	65535	64635.35
845.8086	912.595	65535	64633.95
845.9538	914.6236	65535	64633.9
846.0989	916.6515	65535	64634
846.2441	918.6786	65535	64631.95
846.3892	920.7051	65535	64632.55
846.5344	922.7309	65535	64634.25
846.6795	924.756	65535	64635.45
846.8246	926.7804	65535	64633.55
846.9698	928.8041	65535	64628.65
847.1149	930.8272	65535	64634.5
847.2601	932.8495	65535	64629.85
847.4052	934.8711	65535	64632.1
847.5504	936.892	65535	64634.65
847.6955	938.9123	65535	64634.5
847.8407	940.9318	65535	64635
847.9858	942.9506	65535	64632.7
848.131	944.9688	65535	64636.55
848.2761	946.9862	65535	64635
848.4213	949.003	65535	64634.4
848.5664	951.019	65535	64631.35
848.7115	953.0344	65535	64633.5
848.8567	955.0491	65535	64634.35
849.0018	957.063	65535	64634.65
849.147	959.0763	65535	64636.65
849.2921	961.0888	65535	64632.6
849.4373	963.1007	65535	64632.65
849.5824	965.1119	65535	64637.8
849.7275	967.1223	65535	64636.15
849.8727	969.1321	65535	64637.4
850.0178	971.1412	65535	64635.65
850.1629	973.1495	65535	64635.8
850.3081	975.1572	65535	64601.2
850.4532	977.1641	65535	64633.1
850.5983	979.1704	65535	64632.95
850.7435	981.1759	65535	64631.1
850.8886	983.1808	65535	64631.05
851.0337	985.1849	65535	64624.05
851.1788	987.1884	65535	64630.9
851.324	989.1911	65535	64632.2
851.4691	991.1932	65535	64633
851.6142	993.1945	65535	64637.15
851.7593	995.1951	65535	64634.25
851.9045	997.1951	65535	64625.15
852.0496	999.1943	65535	64631.6
852.1947	1001.1928	65535	64635.3
852.3398	1003.1906	65535	64634.75
852.4849	1005.1877	65535	64634.2
852.63	1007.1841	65535	64633.55
852.7751	1009.1798	65535	64632.7
852.9202	1011.1748	65535	64637.45
853.0653	1013.1691	65535	64634.55
853.2104	1015.1627	65535	64634.75
853.3555	1017.1556	65535	64635
853.5006	1019.1477	65535	64632.05
853.6457	1021.1392	65535	64637.45
853.7908	1023.1299	65535	64635.75
853.9359	1025.12	65535	64632.3
854.081	1027.1093	65535	64636.9
854.2261	1029.0979	65535	64638.95
854.3712	1031.0859	65535	64638.9
854.5163	1033.0731	65535	64635.85
854.6613	1035.0596	65535	64631.8
854.8064	1037.0454	65535	64633.05
854.9515	1039.0304	65535	64630.8
855.0965	1041.0148	65535	64637.75
855.2416	1042.9985	65535	64631.95
855.3867	1044.9814	65535	64632.25
855.5317	1046.9636	65535	64634.05
855.6768	1048.9452	65535	64632.95
855.8219	1050.926	65535	64636.6
855.9669	1052.9061	65535	64634.85
856.112	1054.8855	65535	64634.75
856.257	1056.8642	65535	64634.7
856.4021	1058.8421	65535	64628.65
856.5471	1060.8194	65535	64631.4
856.6921	1062.7959	65535	64634.45
856.8372	1064.7717	65535	64632.25
856.9822	1066.7469	65535	64632.6
857.1272	1068.7213	65535	64631.7
857.2723	1070.695	65535	64635.8
857.4173	1072.6679	65535	64633.45
857.5623	1074.6402	65535	64633.15
857.7073	1076.6117	65535	64628.4
857.8523	1078.5826	65535	64632.75
857.9973	1080.5527	65535	64630.35
858.1423	1082.5221	65535	64632
858.2873	1084.4908	65535	64631.45
858.4323	1086.4587	65535	64631.6
858.5773	1088.426	65535	64630.45
858.7223	1090.3925	65535	64630.25
858.8673	1092.3584	65535	64633.15
859.0123	1094.3235	65535	64634.35
859.1573	1096.2879	65535	64631.6
859.3022	1098.2515	65535	64633.25
859.4472	1100.2145	65535	64634.15
859.5922	1102.1767	65535	64631
859.7371	1104.1382	65535	64633.7
859.8821	1106.099	65535	64634.05
860.027	1108.0591	65535	64633.25
860.172	1110.0185	65535	64630.5
860.3169	1111.9771	65535	64631.85
860.4619	1113.9351	65535	64633.55
860.6068	1115.8923	65535	64634.3
860.7517	1117.8488	65535	64632.5
860.8967	1119.8045	65535	64632.2
861.0416	1121.7596	65535	64633.3
861.1865	1123.7139	65535	64633.6
861.3314	1125.6675	65535	64636.2
861.4763	1127.6204	65535	64632.8
861.6212	1129.5726	65535	64631.4
861.7661	1131.524	65535	64633.1
861.911	1133.4748	65535	64632.9
862.0559	1135.4248	65535	64629
862.2008	1137.3741	65535	64631.85
862.3457	1139.3226	65535	64631.6
862.4905	1141.2705	65535	64632.75
862.6354	1143.2176	65535	64628.3
862.7803	1145.164	65535	64632.25
862.9251	1147.1097	65535	64632.4
863.07	1149.0546	65535	64632.3
863.2148	1150.9989	65535	64630
863.3597	1152.9424	65535	64631.55
863.5045	1154.8852	65535	64634.4
863.6493	1156.8272	65535	64634.95
863.7942	1158.7686	65535	64624.1
863.939	1160.7092	65535	64634.95
864.0838	1162.6491	65535	64630.95
864.2286	1164.5883	65535	64634.9
864.3734	1166.5267	65535	64633
864.5182	1168.4644	65535	64632.8
864.663	1170.4014	65535	64627.1
864.8078	1172.3377	65535	64634.95
864.9526	1174.2732	65535	64633.45
865.0974	1176.2081	65535	64636
865.2421	1178.1421	65535	64628.45
865.3869	1180.0755	65535	64636.85
865.5317	1182.0082	65535	64634.85
865.6764	1183.9401	65535	64634.35
865.8212	1185.8713	65535	64636.25
865.9659	1187.8017	65535	64636.85
866.1106	1189.7315	65535	64638.45
866.2554	1191.6605	65535	64609.25
866.4001	1193.5888	65535	64636.05
866.5448	1195.5163	65535	64635
866.6895	1197.4432	65535	64632.7
866.8342	1199.3693	65535	64636.55
866.9789	1201.2947	65535	64632.35
867.1236	1203.2193	65535	64632.85
867.2683	1205.1432	65535	64633.3
867.413	1207.0664	65535	64634.3
867.5576	1208.9889	65535	64631.7
867.7023	1210.9106	65535	64636.45
867.847	1212.8316	65535	64636.9
867.9916	1214.7519	65535	64624.3
868.1363	1216.6715	65535	64633
868.2809	1218.5903	65535	64637.1
868.4255	1220.5084	65535	64633.65
868.5701	1222.4257	65535	64636.7
868.7148	1224.3424	65535	64637.7
868.8594	1226.2583	65535	64630.05
869.004	1228.1735	65535	64629.9
869.1486	1230.0879	65535	64634.35
869.2932	1232.0016	65535	64633.25
869.4377	1233.9146	65535	64634.5
869.5823	1235.8269	65535	64635.6
869.7269	1237.7384	65535	64636.9
869.8715	1239.6492	65535	64635.05
870.016	1241.5592	65535	64632.45
870.1606	1243.4686	65535	64637.45
870.3051	1245.3772	65535	64634.25
870.4496	1247.285	65535	64634
870.5941	1249.1922	65535	64635.4
870.7387	1251.0986	65535	64634.8
870.8832	1253.0042	65535	64634.45
871.0277	1254.9092	65535	64634.55
871.1722	1256.8134	65535	64635.9
871.3167	1258.7169	65535	64633.85
871.4611	1260.6196	65535	64635.45
871.6056	1262.5216	65535	64630.3
871.7501	1264.4229	65535	64634.05
871.8945	1266.3234	65535	64633.85
872.039	1268.2232	65535	64633.5
872.1834	1270.1223	65535	64635.6
872.3278	1272.0207	65535	64632.35
872.4723	1273.9183	65535	64629.15
872.6167	1275.8151	65535	64634.45
872.7611	1277.7113	65535	64635.9
872.9055	1279.6067	65535	64634.8
873.0499	1281.5014	65535	64632.95
873.1943	1283.3953	65535	64631.4
873.3386	1285.2885	65535	64636.45
873.483	1287.181	65535	64634
873.6274	1289.0727	65535	64636.4
873.7717	1290.9637	65535	64635.75
873.9161	1292.854	65535	64635.55
874.0604	1294.7435	65535	64633.65
874.2047	1296.6323	65535	64634.65
874.349	1298.5204	65535	64632.2
874.4933	1300.4077	65535	64632.25
874.6376	1302.2943	65535	64635.3
874.7819	1304.1802	65535	64635.05
874.9262	1306.0653	65535	64631.65
875.0705	1307.9497	65535	64636
875.2147	1309.8333	65535	64636.6
875.359	1311.7162	65535	64635
875.5032	1313.5984	65535	64631.5
875.6475	1315.4798	65535	64633.25
875.7917	1317.3605	65535	64618.4
875.9359	1319.2405	65535	64632.05
876.0801	1321.1197	65535	64634.05
876.2243	1322.9982	65535	64628.7
876.3685	1324.876	65535	64635.6
876.5127	1326.753	65535	64634.4
876.6569	1328.6293	65535	64633.75
876.801	1330.5048	65535	64631.7
876.9452	1332.3796	65535	64634.65
877.0893	1334.2537	65535	64610.95
877.2335	1336.127	65535	64632.55
877.3776	1337.9996	65535	64635.95
877.5217	1339.8714	65535	64634.3
877.6658	1341.7426	65535	64589.45
877.8099	1343.6129	65535	64633.3
877.954	1345.4826	65535	64635
878.0981	1347.3515	65535	64629.8
878.2422	1349.2196	65535	64635.7
878.3862	1351.087	65535	64638.25
878.5303	1352.9537	65535	64634.45
878.6743	1354.8197	65535	64634.7
878.8184	1356.6849	65535	64634.55
878.9624	1358.5493	65535	64632.9
879.1064	1360.4131	65535	64636
879.2504	1362.276	65535	64636
879.3944	1364.1383	65535	64633.95
879.5384	1365.9998	65535	64628.95
879.6823	1367.8606	65535	64633.95
879.8263	1369.7206	65535	64634.2
879.9702	1371.5799	65535	64631.65
880.1142	1373.4384	65535	64634.55
880.2581	1375.2962	65535	64634.05
880.402	1377.1533	65535	64635.05
880.5459	1379.0096	65535	64633.2
880.6898	1380.8652	65535	64634.5
880.8337	1382.7201	65535	64635.35
880.9776	1384.5742	65535	64636.7
881.1215	1386.4275	65535	64633.1
881.2653	1388.2802	65535	64634.35
881.4092	1390.132	65535	64638
881.553	1391.9832	65535	64632.55
881.6968	1393.8336	65535	64634.9
881.8406	1395.6832	65535	64634.15
881.9844	1397.5322	65535	64634
882.1282	1399.3803	65535	64630.3
882.272	1401.2278	65535	64633.7
882.4158	1403.0745	65535	64636.1
882.5595	1404.9204	65535	64635
882.7033	1406.7656	65535	64635.5
882.847	1408.6101	65535	64636.4
882.9908	1410.4538	65535	64633.8
883.1345	1412.2968	65535	64635.25
883.2782	1414.139	65535	64636.6
883.4219	1415.9805	65535	64636.55
883.5656	1417.8213	65535	64628.85
883.7092	1419.6613	65535	64633.4
883.8529	1421.5006	65535	64633.9
883.9965	1423.3391	65535	64635.95
884.1402	1425.1769	65535	64633.75
884.2838	1427.0139	65535	64636.5
884.4274	1428.8502	65535	64631.8
884.571	1430.6858	65535	64632.4
884.7146	1432.5206	65535	64633.3
884.8582	1434.3547	65535	64633.95
885.0018	1436.188	65535	64636.65
885.1453	1438.0206	65535	64633.55
885.2889	1439.8524	65535	64635.4
885.4324	1441.6835	65535	64638.45
885.5759	1443.5139	65535	64629.95
885.7194	1445.3435	65535	64634.4
885.8629	1447.1724	65535	64636.1
886.0064	1449.0005	65535	64635.8
886.1499	1450.8279	65535	64636.45
886.2933	1452.6545	65535	64633.3
886.4368	1454.4804	65535	64639.5
886.5802	1456.3056	65535	64628.9
886.7237	1458.13	65535	64634.1
886.8671	1459.9536	65535	64634.7
887.0105	1461.7766	65535	64636.95
887.1539	1463.5987	65535	64635.15
887.2972	1465.4202	65535	64634.9
887.4406	1467.2409	65535	64634
887.584	1469.0608	65535	64633.6
887.7273	1470.88	65535	64633.95
887.8706	1472.6984	65535	64636.15
888.0139	1474.5161	65535	64635.75
888.1572	1476.3331	65535	64635.4
888.3005	1478.1493	65535	64637
888.4438	1479.9648	65535	64636.3
888.5871	1481.7795	65535	64633.75
888.7303	1483.5935	65535	64636.8
888.8736	1485.4067	65535	64635.7
889.0168	1487.2192	65535	64635.95
889.16	1489.031	65535	64634.05
889.3032	1490.842	65535	64636.7
889.4464	1492.6522	65535	64635.3
889.5896	1494.4618	65535	64635.2
889.7327	1496.2705	65535	64635.5
889.8759	1498.0785	65535	64635.45
890.019	1499.8858	65535	64635.1
890.1622	1501.6924	65535	64636.95
890.3053	1503.4981	65535	64633.1
890.4484	1505.3032	65535	64635.75
890.5914	1507.1075	65535	64633.4
890.7345	1508.911	65535	64634.75
890.8776	1510.7138	65535	64637.2
891.0206	1512.5159	65535	64635.7
891.1637	1514.3172	65535	64636.85
891.3067	1516.1178	65535	64636.35
891.4497	1517.9176	65535	64632.65
891.5927	1519.7166	65535	64637.6
891.7357	1521.515	65535	64629.65
891.8786	1523.3126	65535	64635.9
892.0216	1525.1094	65535	64633.85
892.1645	1526.9055	65535	64636.2
892.3074	1528.7008	65535	64639.25
892.4503	1530.4954	65535	64627.35
892.5932	1532.2893	65535	64638.3
892.7361	1534.0824	65535	64631.6
892.879	1535.8747	65535	64634.8
893.0218	1537.6663	65535	64637.4
893.1647	1539.4572	65535	64634.3
893.3075	1541.2473	65535	64634.9
893.4503	1543.0367	65535	64639.35
893.5931	1544.8253	65535	64632.8
893.7359	1546.6132	65535	64634
893.8787	1548.4003	65535	64627
894.0214	1550.1867	65535	64627.6
894.1642	1551.9723	65535	64632.2
894.3069	1553.7572	65535	64635.4
894.4496	1555.5414	65535	64638.45
894.5923	1557.3247	65535	64637.5
894.735	1559.1074	65535	64637.35
894.8777	1560.8893	65535	64636
895.0204	1562.6705	65535	64637.4
895.163	1564.4509	65535	64639.9
895.3056	1566.2305	65535	64639
895.4482	1568.0094	65535	64638.5
895.5908	1569.7876	65535	64641.35
895.7334	1571.565	65535	64639.25
895.876	1573.3417	65535	64639.15
896.0186	1575.1176	65535	64637.15
896.1611	1576.8928	65535	64638.35
896.3036	1578.6672	65535	64641.85
896.4461	1580.4409	65535	64639.9
896.5886	1582.2138	65535	64639.35
896.7311	1583.986	65535	64638.05
896.8736	1585.7575	65535	64640
897.0161	1587.5282	65535	64643
897.1585	1589.2981	65535	64639
897.3009	1591.0673	65535	64639.2
897.4433	1592.8358	65535	64639.85
897.5857	1594.6035	65535	64635.7
897.7281	1596.3704	65535	64637.95
897.8705	1598.1366	65535	64638.15
898.0128	1599.9021	65535	64640.3
898.1551	1601.6668	65535	64637.7
898.2975	1603.4308	65535	64636.4
898.4398	1605.194	65535	64636.95
898.5821	1606.9564	65535	64640.65
898.7243	1608.7182	65535	64637.55
898.8666	1610.4791	65535	64643.55
899.0088	1612.2394	65535	64641.2
899.1511	1613.9988	65535	64642.3
899.2933	1615.7576	65535	64641.5
899.4355	1617.5156	65535	64634.15
899.5776	1619.2728	65535	64640.3
899.7198	1621.0293	65535	64639.15
899.862	1622.785	65535	64636.95
900.0041	1624.54	65535	64638.85
900.1462	1626.2942	65535	64639.7
900.2883	1628.0477	65535	64637.4
900.4304	1629.8005	65535	64637.3
900.5725	1631.5525	65535	64640.6
900.7145	1633.3037	65535	64640.1
900.8566	1635.0542	65535	64640.75
900.9986	1636.804	65535	64640.9
901.1406	1638.553	65535	64552.2
901.2826	1640.3013	65535	64639.7
901.4245	1642.0488	65535	64641.8
901.5665	1643.7955	65535	64642.3
901.7085	1645.5416	65535	64642.4
901.8504	1647.2868	65535	64641.8
901.9923	1649.0313	65535	64640.1
902.1342	1650.7751	65535	64637.05
902.2761	1652.5181	65535	64639.5
902.4179	1654.2604	65535	64641.9
902.5598	1656.0019	65535	64642.15
902.7016	1657.7427	65535	64641.7
902.8434	1659.4828	65535	64642.45
902.9852	1661.222	65535	64639.9
903.127	1662.9606	65535	64642.6
903.2687	1664.6984	65535	64641.4
903.4105	1666.4354	65535	64640.85
903.5522	1668.1717	65535	64643.85
903.6939	1669.9072	65535	64639.75
903.8356	1671.642	65535	64638.9
903.9773	1673.3761	65535	64641.55
904.119	1675.1094	65535	64640.35
904.2606	1676.8419	65529.9	64636.8
904.4022	1678.5737	65535	64641.65
904.5439	1680.3048	65535	64641.65
904.6855	1682.0351	65529	64633.45
904.827	1683.7646	65520.25	64623.85
904.9686	1685.4934	65532.8	64641
905.1101	1687.2215	65444.6	64550.4
905.2517	1688.9488	65527.15	64636.85
905.3932	1690.6754	65341.05	64449.25
905.5347	1692.4012	65477.6	64584.95
905.6761	1694.1263	65505.45	64612.1
905.8176	1695.8506	65368.25	64472.2
905.9591	1697.5742	65402.15	64510.55
906.1005	1699.297	65380.2	64488.35
906.2419	1701.0191	65409.5	64517.95
906.3833	1702.7404	65266.75	64374.25
906.5246	1704.461	65231	64336.4
906.666	1706.1808	65321.5	64426.4
906.8073	1707.8999	65252.1	64357.8
906.9487	1709.6182	65251.1	64358.85
907.09	1711.3358	65227.1	64338.15
907.2313	1713.0527	65208.3	64318.25
907.3725	1714.7688	65231.6	64336
907.5138	1716.4841	65062.9	64168.85
907.655	1718.1987	65126.35	64228.25
907.7962	1719.9126	65082.5	64189.95
907.9374	1721.6257	65115.8	64221.6
908.0786	1723.338	65121.85	64229.6
908.2198	1725.0496	64841.2	63948.7
908.3609	1726.7605	64898.25	64006.1
908.502	1728.4706	64792.3	63899.6
908.6431	1730.18	64951.15	64055.45
908.7842	1731.8886	64769.85	63879.75
908.9253	1733.5964	64686.45	63789.65
909.0664	1735.3036	64876.9	63980.75
909.2074	1737.0099	64691	63799.6
909.3484	1738.7156	64548.95	63658.25
909.4894	1740.4204	64505.5	63611.85
909.6304	1742.1246	64607.65	63715.6
909.7714	1743.8279	64655.85	63764.65
909.9123	1745.5306	64596.3	63704.35
910.0532	1747.2325	63901.6	63010.45
910.1941	1748.9336	63959.25	63067.65
910.335	1750.634	64203.85	63310.9
910.4759	1752.3336	64399.35	63507.55
910.6168	1754.0325	63780.3	62892.05
910.7576	1755.7307	64344.75	63453.45
910.8984	1757.4281	63608	62716.15
911.0392	1759.1247	64197.5	63296
911.18	1760.8206	63293.15	62395.7
911.3208	1762.5158	63444.3	62548.45
911.4615	1764.2102	63716.25	62825
911.6022	1765.9039	63556.65	62664.85
911.7429	1767.5968	63276.9	62383.45
911.8836	1769.289	63141.95	62250.4
912.0243	1770.9804	63348.2	62456.35
912.1649	1772.6711	63070.8	62178.4
912.3056	1774.361	62916.1	62024.3
912.4462	1776.0502	62959.15	62066.95
912.5868	1777.7386	62052.75	61157.9
912.7274	1779.4263	62602	61710.3
912.8679	1781.1132	62591.55	61701
913.0084	1782.7994	62414.7	61521.7
913.149	1784.4849	62418.3	61527.4
913.2895	1786.1696	61384.35	60487.2
913.4299	1787.8535	62054.5	61164.45
913.5704	1789.5367	62171.15	61279.8
913.7108	1791.2192	61525	60634.15
913.8513	1792.9009	61089.45	60166.3
913.9917	1794.5818	61606.05	60712.2
914.132	1796.2621	61042.55	60152.95
914.2724	1797.9415	61123.9	60230.95
914.4128	1799.6202	61043.85	60153
914.5531	1801.2982	61080.95	60189.9
914.6934	1802.9755	60350	59457.3
914.8337	1804.6519	60059.05	59167.8
914.9739	1806.3277	61090.4	60200.9
915.1142	1808.0027	59583.6	58694.3
915.2544	1809.6769	60090.45	59202.8
915.3946	1811.3504	60255.9	59366.65
915.5348	1813.0231	59153.6	58262.45
915.675	1814.6951	59881.8	58991.35
915.8151	1816.3664	59382.2	58489.55
915.9553	1818.0369	59429.9	58538.25
916.0954	1819.7067	59149.2	58260.8
916.2355	1821.3757	59739.5	58846.7
916.3755	1823.044	58797.65	57906.2
916.5156	1824.7115	58408.6	57518.35
916.6556	1826.3783	58666.8	57777.5
916.7956	1828.0443	58719.1	57829.45
916.9356	1829.7096	58389.05	57496.25
917.0756	1831.3741	57764.45	56869.9
917.2155	1833.0379	58103.75	57213.9
917.3555	1834.701	58047.7	57155.05
917.4954	1836.3633	57484	56593.6
917.6353	1838.0248	57785.75	56893
917.7751	1839.6856	57576.75	56685.05
917.915	1841.3457	57057.35	56169
918.0548	1843.005	57689.3	56799.85
918.1946	1844.6636	57255.75	56364.65
918.3344	1846.3214	56588.25	55697.3
918.4742	1847.9785	56775.9	55887.2
918.6139	1849.6349	56668.9	55776.2
918.7537	1851.2904	57069.55	56170.2
918.8934	1852.9453	56238	55346.35
919.0331	1854.5994	56459.45	55567.6
919.1727	1856.2528	56534.6	55639.45
919.3124	1857.9054	56022.3	55129.95
919.452	1859.5572	55839.1	54947.7
919.5916	1861.2083	56018.2	55126.7
919.7312	1862.8587	56443.6	55552.15
919.8708	1864.5084	55197.4	54306
920.0103	1866.1572	55629.5	54737.35
920.1498	1867.8054	54920.35	54029.35
920.2893	1869.4528	55385.3	54493.2
920.4288	1871.0994	54733.6	53842.65
920.5683	1872.7453	54796.65	53904.85
920.7077	1874.3905	54900.15	54002.25
920.8471	1876.0349	54435.2	53544.75
920.9865	1877.6786	54741.25	53851.25
921.1259	1879.3215	54362.85	53472.15
921.2653	1880.9637	54719.8	53828.4
921.4046	1882.6051	54304.4	53412
921.5439	1884.2458	54009.45	53117.5
921.6832	1885.8858	53720.9	52830.6
921.8225	1887.525	53849.05	52957.55
921.9617	1889.1634	53625.75	52734.05
922.101	1890.8011	53442.55	52551.2
922.2402	1892.4381	52916.5	52027.55
922.3794	1894.0743	53375.1	52485.9
922.5185	1895.7098	52999.9	52109.2
922.6577	1897.3446	52669.1	51777.95
922.7968	1898.9786	52791.25	51894.25
922.9359	1900.6118	52563.65	51670.35
923.075	1902.2443	52237.8	51345.3
923.214	1903.8761	52426.6	51537.1
923.3531	1905.5071	52034.35	51144.1
923.4921	1907.1374	51506.95	50615.25
923.6311	1908.7669	51659.95	50769.3
923.77	1910.3957	51833.55	50944.15
923.909	1912.0237	51218.85	50329.2
924.0479	1913.651	51110.55	50222.35
924.1868	1915.2776	50943.2	50055.85
924.3257	1916.9034	50797.05	49907.3
924.4646	1918.5285	50612.5	49722.1
924.6034	1920.1528	50439.45	49547.05
924.7422	1921.7764	50312.2	49421.75
924.881	1923.3992	50201.65	49312.3
925.0198	1925.0213	49858	48965.55
925.1586	1926.6427	49551.7	48662.9
925.2973	1928.2633	49614.15	48641.8
925.436	1929.8832	49367.45	48477.15
925.5747	1931.5023	49209.4	48319.15
925.7134	1933.1207	48935.65	48045.7
925.852	1934.7383	48994.95	48104.85
925.9906	1936.3552	48661.9	47772.75
926.1292	1937.9714	48592.7	47702.1
926.2678	1939.5868	48498.25	47605.65
926.4064	1941.2015	48096.35	47203.2
926.5449	1942.8154	47913.1	47022.95
926.6834	1944.4286	47782.05	46891.45
926.8219	1946.041	47646.95	46738.95
926.9604	1947.6528	47354.95	46459.5
927.0988	1949.2637	47301.65	46411.85
927.2372	1950.8739	47088	46197.75
927.3756	1952.4834	47036.35	46145.6
927.514	1954.0921	46890.2	46000.45
927.6523	1955.7001	46739	45844.65
927.7907	1957.3074	46608.45	45716.65
927.929	1958.9139	46338.2	45448.85
928.0673	1960.5197	46268.35	45373.5
928.2055	1962.1247	45997.95	45107.3
928.3438	1963.729	45786.25	44897.05
928.482	1965.3325	45638.25	44725.25
928.6202	1966.9353	45521.25	44631.65
928.7584	1968.5374	45268.15	44375.85
928.8965	1970.1387	45228.75	44338.75
929.0346	1971.7393	45048.2	44157.15
929.1727	1973.3392	44879.75	43988.6
929.3108	1974.9383	44779.3	43891.3
929.4489	1976.5366	44568.3	43680.85
929.5869	1978.1342	44464.6	43574.4
929.7249	1979.7311	44369.65	43479.1
929.8629	1981.3273	44234.05	43344.6
930.0009	1982.9227	44035.1	43143.95
930.1388	1984.5173	43901.95	43012.05
930.2767	1986.1112	43676.9	42788.2
930.4146	1987.7044	43675.5	42789.25
930.5525	1989.2968	43413.8	42522.1
930.6904	1990.8885	43354.85	42461.55
930.8282	1992.4795	43274.2	42383.4
930.966	1994.0697	43073.8	42185.1
931.1038	1995.6592	42929.2	42038.45
931.2415	1997.2479	42787.5	41898.95
931.3793	1998.8359	42671.55	41782.6
931.517	2000.4232	42456.8	41569.25
931.6547	2002.0097	42348.4	41460.65
931.7923	2003.5955	42159	41270.8
931.93	2005.1805	42120.15	41228.85
932.0676	2006.7648	41951	41061.65
932.2052	2008.3484	41804.25	40913.4
932.3427	2009.9312	41823.9	40933.65
932.4803	2011.5133	41618.65	40730.3
932.6178	2013.0946	41524.45	40634.65
932.7553	2014.6752	41430.95	40543.15
932.8928	2016.2551	41249.7	40358.55
933.0302	2017.8342	41077.2	40188.85
933.1676	2019.4126	40903.55	40015.3
933.305	2020.9902	40736.75	39849.15
933.4424	2022.5672	40662.2	39773.75
933.5798	2024.1433	40519.65	39625.55
933.7171	2025.7188	40384.75	39497.7
933.8544	2027.2935	40339.45	39450.95
933.9917	2028.8674	40196.85	39307.45
934.129	2030.4406	40094.85	39207.75
934.2662	2032.0131	39861.4	38973.75
934.4034	2033.5849	39750.95	38852.8
934.5406	2035.1559	39669.55	38779.25
934.6778	2036.7261	39600.85	38711
934.8149	2038.2957	39493.45	38603.8
934.952	2039.8645	39402.65	38514.65
935.0891	2041.4325	39390.5	38496.95
935.2262	2042.9998	39195.25	38304.05
935.3632	2044.5664	39065.65	38173
935.5002	2046.1323	38909.6	38020.35
935.6372	2047.6974	38816.65	37924.95
935.7742	2049.2617	38690.85	37799.3
935.9111	2050.8254	38653.45	37755.2
936.048	2052.3883	38581.5	37684.5
936.1849	2053.9504	38475.65	37578.1
936.3218	2055.5118	38286.3	37387.45
936.4586	2057.0725	38095.1	37194.75
936.5955	2058.6325	38014.55	37117.25
936.7323	2060.1917	37874.55	36977.95
936.869	2061.7502	37799	36902.15
937.0058	2063.3079	37638.95	36748.4
937.1425	2064.8649	37523.9	36626.75
937.2792	2066.4212	37451.5	36558.9
937.4159	2067.9767	37313.6	36423.65
937.5525	2069.5315	37152.65	36261.85
937.6891	2071.0856	36992.15	36102.35
937.8257	2072.6389	36868.6	35976.25
937.9623	2074.1915	36680.55	35790.6
938.0989	2075.7433	36477.45	35585.85
938.2354	2077.2945	36454.85	35563
938.3719	2078.8448	36337.4	35445.1
938.5084	2080.3945	36197	35301.75
938.6448	2081.9434	36208.65	35311.95
938.7812	2083.4916	36011.65	35109.45
938.9176	2085.039	35860.95	34956.5
939.054	2086.5857	35781.75	34872.25
939.1903	2088.1317	35739.15	34827.75
939.3267	2089.677	35570.15	34656.8
939.463	2091.2215	35500.75	34583.5
939.5992	2092.7652	35360.45	34444.3
939.7355	2094.3083	35265.65	34351.85
939.8717	2095.8506	35258.75	34349.95
940.0079	2097.3921	35196	34288.15
940.1441	2098.933	35039.9	34133.7
940.2802	2100.4731	34936.8	34031.95
940.4163	2102.0124	34867.45	33957.1
940.5524	2103.5511	34813.4	33914.55
940.6885	2105.089	34695.45	33798.95
940.8245	2106.6261	34552.05	33656.1
940.9606	2108.1626	34477.6	33583.45
941.0965	2109.6983	34442.75	33520.65
941.2325	2111.2332	34321.75	33429.25
941.3684	2112.7675	34240.7	33347.5
941.5044	2114.301	34127.75	33235.8
941.6403	2115.8337	34120.75	33228.8
941.7761	2117.3657	33993.75	33104.6
941.912	2118.897	33878.45	32988.75
942.0478	2120.4276	33765.15	32869.3
942.1835	2121.9575	33648.3	32759
942.3193	2123.4866	33625	32722.5
942.455	2125.0149	33461.2	32569
942.5907	2126.5426	33275.3	32385.25
942.7264	2128.0695	33178.55	32286.45
942.8621	2129.5956	33131.35	32243
942.9977	2131.1211	33058.5	32164.65
943.1333	2132.6458	32953.35	32065.1
943.2689	2134.1698	32910.6	32020.8
943.4044	2135.693	32771.95	31881.6
943.54	2137.2155	32686.55	31794.3
943.6755	2138.7373	32611.75	31723.6
943.8109	2140.2584	32479.85	31590.2
943.9464	2141.7787	32366.95	31474.45
944.0818	2143.2983	32282.1	31393.05
944.2172	2144.8171	32096.95	31209.65
944.3526	2146.3353	32018.7	31129
944.4879	2147.8527	31900.3	31012.65
944.6232	2149.3693	31875.4	30988.5
944.7585	2150.8853	31715.8	30826.2
944.8938	2152.4005	31582.75	30693.45
945.029	2153.9149	31555.85	30665.6
945.1642	2155.4287	31415.05	30525.8
945.2994	2156.9417	31315.6	30424.95
945.4346	2158.454	31214.35	30322
945.5697	2159.9655	31166.9	30276.35
945.7048	2161.4764	31166.7	30277.5
945.8399	2162.9865	31014.95	30123.1
945.9749	2164.4958	30903.3	30014.6
946.1099	2166.0045	30789.9	29895.7
946.2449	2167.5124	30776.1	29889.3
946.3799	2169.0195	30673.8	29784.7
946.5148	2170.526	30608.5	29718.9
946.6498	2172.0317	30509.9	29619.45
946.7846	2173.5367	30429.8	29538.8
946.9195	2175.0409	30266.5	29379.45
947.0543	2176.5445	30293.2	29404
947.1891	2178.0473	30125.55	29235.3
947.3239	2179.5494	30009.4	29113.95
947.4587	2181.0507	29921.05	29031.2
947.5934	2182.5513	29845.45	28956.95
947.7281	2184.0512	29775.45	28886.3
947.8628	2185.5504	29677.9	28788.4
947.9974	2187.0488	29440.4	28549.75
948.132	2188.5465	29367.3	28479.35
948.2666	2190.0435	29303.25	28412.3
948.4012	2191.5397	29181.15	28291.45
948.5357	2193.0353	29110	28221.05
948.6702	2194.5301	28934.1	28042.8
948.8047	2196.0241	28891.75	28002.4
948.9392	2197.5175	28825	27934.6
949.0736	2199.0101	28693.45	27802.3
949.208	2200.502	28540.9	27654.2
949.3424	2201.9931	28424.8	27534.55
949.4767	2203.4835	28343.75	27452.05
949.611	2204.9733	28281.25	27387.65
949.7453	2206.4622	28215.6	27327.5
949.8796	2207.9505	28079.45	27188.4
950.0138	2209.438	27929.25	27040.4
950.148	2210.9248	27828.9	26940
950.2822	2212.4109	27708.6	26821
950.4164	2213.8962	27634.95	26743.65
950.5505	2215.3809	27576.55	26683.8
950.6846	2216.8648	27487.5	26596.95
950.8186	2218.3479	27371.35	26478.25
950.9527	2219.8304	27319.45	26427.3
951.0867	2221.3121	27196.1	26304.65
951.2207	2222.7931	27110.8	26220.2
951.3546	2224.2733	27041.25	26151
951.4886	2225.7529	26881.8	25991
951.6225	2227.2317	26832.75	25940.35
951.7563	2228.7098	26794.75	25907.8
951.8902	2230.1872	26643.65	25755.65
952.024	2231.6638	26612.8	25724.3
952.1578	2233.1397	26470.55	25577.1
952.2916	2234.6149	26427.5	25539.8
952.4253	2236.0894	26272.05	25382.75
952.559	2237.5632	26245.05	25354.3
952.6927	2239.0362	26101.45	25210.65
952.8263	2240.5085	26054.25	25163.75
952.9599	2241.9801	25974.45	25084.9
953.0935	2243.4509	25895.5	25005.8
953.2271	2244.921	25777.9	24887.8
953.3606	2246.3904	25659.7	24770.35
953.4941	2247.8591	25594.05	24705.8
953.6276	2249.3271	25532.3	24644.25
953.7611	2250.7943	25404.45	24514.45
953.8945	2252.2608	25328.2	24440.3
954.0279	2253.7266	25287.8	24397.8
954.1612	2255.1917	25188.2	24297.35
954.2946	2256.656	25093.25	24203.15
954.4279	2258.1197	25018.1	24128.4
954.5612	2259.5826	24946.4	24053.35
954.6944	2261.0447	24931.25	24042.7
954.8276	2262.5062	24761.8	23870.55
954.9608	2263.9669	24745.8	23855.45
955.094	2265.4269	24659.45	23770.85
955.2271	2266.8862	24556.75	23668
955.3602	2268.3448	24519.75	23629.9
955.4933	2269.8026	24462.5	23573.15
955.6264	2271.2598	24356.7	23466.15
955.7594	2272.7162	24281.3	23392
955.8924	2274.1719	24235.55	23347.6
956.0253	2275.6268	24104.35	23217.05
956.1583	2277.0811	24060.55	23170.85
956.2912	2278.5346	23956.8	23068.05
956.4241	2279.9874	23941.55	23053.6
956.5569	2281.4395	23909.8	23023.45
956.6897	2282.8908	23771.4	22874.55
956.8225	2284.3414	23753.55	22862.8
956.9553	2285.7914	23636.85	22746.9
957.088	2287.2406	23564.3	22673.3
957.2207	2288.689	23513	22622.35
957.3534	2290.1368	23443	22552.9
957.486	2291.5838	23325	22430.7
957.6186	2293.0302	23280.95	22389
957.7512	2294.4758	23169.9	22277.75
957.8838	2295.9206	23061	22168.25
958.0163	2297.3648	23024.5	22135.65
958.1488	2298.8082	23000.5	22113.05
958.2813	2300.251	22928.3	22040
958.4137	2301.693	22845.15	21954.25
958.5461	2303.1343	22813.45	21924.85
958.6785	2304.5748	22716.25	21827.85
958.8108	2306.0147	22625.95	21735.75
958.9432	2307.4538	22556.7	21664.85
959.0754	2308.8922	22463.25	21576.5
959.2077	2310.3299	22414.6	21523.9
959.3399	2311.7669	22364.05	21476.3
959.4721	2313.2031	22294.25	21406.1
959.6043	2314.6387	22169.15	21280.7
959.7365	2316.0735	22096.95	21208.45
959.8686	2317.5076	22038.35	21149.35
960.0006	2318.941	22044.15	21154.4
960.1327	2320.3737	21923.3	21033.5
960.2647	2321.8056	21895.95	21005.45
960.3967	2323.2369	21779	20890.05
960.5287	2324.6674	21731.15	20840
960.6606	2326.0972	21622.3	20732.15
960.7925	2327.5263	21524.3	20636.5
960.9244	2328.9547	21472	20582.05
961.0562	2330.3823	21404.15	20515.8
961.1881	2331.8092	21381.75	20488.65
961.3198	2333.2355	21270.8	20380.4
961.4516	2334.661	21233.25	20343
961.5833	2336.0858	21212.6	20320.45
961.715	2337.5098	21166	20277.6
961.8467	2338.9332	21123.85	20232.55
961.9783	2340.3558	20982.2	20089.6
962.1099	2341.7778	20931.8	20042.95
962.2415	2343.199	20851.15	19958.95
962.373	2344.6195	20762.1	19875.05
962.5045	2346.0393	20739.2	19851.3
962.636	2347.4583	20700.4	19811.8
962.7675	2348.8767	20602.65	19712.1
962.8989	2350.2943	20553.25	19661.9
963.0303	2351.7113	20509.6	19619.2
963.1617	2353.1275	20433.05	19542.2
963.293	2354.543	20365.6	19467.7
963.4243	2355.9578	20321.9	19433.45
963.5556	2357.3718	20167.15	19276.7
963.6868	2358.7852	20055	19163.95
963.818	2360.1978	20017.1	19127.45
963.9492	2361.6098	19977.8	19089.6
964.0803	2363.021	19929.4	19036.9
964.2114	2364.4315	19859.05	18969.25
964.3425	2365.8413	19828.1	18937.2
964.4736	2367.2504	19731.75	18842.6
964.6046	2368.6587	19601	18712
964.7356	2370.0664	19526.65	18637.95
964.8666	2371.4733	19493.15	18603.85
964.9975	2372.8795	19394.3	18506.7
965.1284	2374.285	19310.25	18419.15
965.2593	2375.6899	19221.2	18331.8
965.3901	2377.0939	19139.3	18251.4
965.5209	2378.4973	19066.75	18178.75
965.6517	2379.9	19004.6	18116.1
965.7825	2381.3019	18927.65	18038.6
965.9132	2382.7032	18849.75	17962.15
966.0439	2384.1037	18852.85	17967
966.1745	2385.5035	18751.65	17863.5
966.3051	2386.9027	18701.1	17812.15
966.4357	2388.3011	18636.85	17744.3
966.5663	2389.6987	18592.95	17702.75
966.6968	2391.0957	18515.45	17627
966.8273	2392.492	18432	17545.9
966.9578	2393.8876	18302.65	17415.55
967.0882	2395.2824	18240.65	17353.25
967.2186	2396.6765	18154.55	17266.95
967.349	2398.07	18100.65	17214.85
967.4793	2399.4627	18096.1	17206.05
967.6097	2400.8547	18007.55	17119.2
967.7399	2402.246	17929.4	17035.1
967.8702	2403.6366	17793.2	16902.95
968.0004	2405.0265	17736.8	16850
968.1306	2406.4156	17672.9	16779.05
968.2607	2407.8041	17596.7	16704.5
968.3909	2409.1918	17563.4	16672.65
968.521	2410.5789	17473.15	16583.3
968.651	2411.9652	17426.3	16535.15
968.781	2413.3508	17373.7	16483.35
968.911	2414.7358	17290.9	16402.8
969.041	2416.12	17200.25	16313.1
969.1709	2417.5035	17184.65	16295.75
969.3008	2418.8863	17101.2	16212.6
969.4307	2420.2684	17054.5	16165.85
969.5606	2421.6497	16979	16088.35
969.6904	2423.0304	16843.75	15956.15
969.8201	2424.4104	16866.85	15976.25
969.9499	2425.7896	16790.65	15899.8
970.0796	2427.1682	16714.65	15826
970.2093	2428.546	16705.75	15816.6
970.3389	2429.9232	16650.55	15759.35
970.4685	2431.2996	16601.85	15713.4
970.5981	2432.6753	16543.9	15655.35
970.7277	2434.0503	16518.95	15628.75
970.8572	2435.4246	16414.15	15525.1
970.9867	2436.7982	16371.3	15479.8
971.1161	2438.1711	16343.05	15455.25
971.2456	2439.5433	16284.1	15393.95
971.375	2440.9148	16227.25	15333.8
971.5043	2442.2856	16114.55	15225.55
971.6336	2443.6557	16067.5	15176.7
971.7629	2445.025	15996.85	15108
971.8922	2446.3937	15943.5	15054.25
972.0214	2447.7617	15915.6	15024.5
972.1506	2449.1289	15898.6	15010.25
972.2798	2450.4955	15854.55	14961.8
972.4089	2451.8613	15788.95	14900.45
972.538	2453.2265	15719.9	14830.65
972.6671	2454.5909	15700.95	14813.35
972.7961	2455.9546	15646.2	14759.4
972.9251	2457.3177	15573.4	14685.75
973.0541	2458.68	15502.9	14611.2
973.1831	2460.0416	15504.45	14614.75
973.312	2461.4025	15496.35	14607.05
973.4408	2462.7627	15412.55	14512.9
973.5697	2464.1222	15387.25	14498.6
973.6985	2465.4811	15342.65	14453.35
973.8273	2466.8392	15261.3	14372.95
973.956	2468.1966	15233.4	14342.6
974.0847	2469.5533	15205.65	14313.9
974.2134	2470.9093	15185.8	14294.1
974.3421	2472.2645	15128.1	14237.25
974.4707	2473.6191	15069.7	14182.35
974.5993	2474.973	14995.2	14107.5
974.7278	2476.3262	14930.05	14040.5
974.8563	2477.6787	14878.45	13989.95
974.9848	2479.0305	14787.55	13898.95
975.1132	2480.3816	14724.95	13834.6
975.2417	2481.7319	14699.3	13812.25
975.37	2483.0816	14637.2	13747
975.4984	2484.4306	14583.35	13694.3
975.6267	2485.7789	14530.95	13643
975.755	2487.1264	14466.75	13575.7
975.8833	2488.4733	14408.15	13519.3
976.0115	2489.8195	14372.5	13466.9
976.1397	2491.165	14300.3	13406.9
976.2678	2492.5097	14256.6	13365.3
976.3959	2493.8538	14208.2	13320.9
976.524	2495.1972	14114.8	13224.9
976.6521	2496.5398	14073.6	13185.5
976.7801	2497.8818	14031.4	13141.95
976.9081	2499.2231	13982	13093.1
977.036	2500.5637	13916	13024.65
977.164	2501.9035	13887.35	12996.05
977.2918	2503.2427	13830.45	12936.8
977.4197	2504.5812	13792.35	12902.4
977.5475	2505.919	13744.8	12854.45
977.6753	2507.256	13729.15	12841.15
977.8031	2508.5924	13657	12768.15
977.9308	2509.9281	13623.5	12730.65
978.0585	2511.2631	13569.75	12680.7
978.1861	2512.5974	13542.25	12654.5
978.3137	2513.9309	13471.35	12582.6
978.4413	2515.2638	13444.5	12531.3
978.5689	2516.596	13410.05	12519.5
978.6964	2517.9275	13334.6	12445
978.8239	2519.2583	13276.45	12385.45
978.9513	2520.5884	13220.8	12330.25
979.0788	2521.9178	13166.8	12278.05
979.2062	2523.2465	13151.6	12263.75
979.3335	2524.5745	13077	12189.85
979.4608	2525.9018	13040.45	12152.5
979.5881	2527.2284	12982.5	12093.7
979.7154	2528.5543	12948.1	12059.6
979.8426	2529.8796	12903.1	12015.8
979.9698	2531.2041	12875.5	11986.15
980.0969	2532.5279	12875.95	11988.95
980.224	2533.851	12838.25	11947.6
980.3511	2535.1735	12799.65	11912.45
980.4781	2536.4952	12731.85	11843
980.6052	2537.8163	12693.5	11805.05
980.7321	2539.1366	12642	11753.65
980.8591	2540.4562	12634.4	11745.15
980.986	2541.7752	12640.3	11752.25
981.1129	2543.0935	12573.5	11683.85
981.2397	2544.411	12565.65	11675.6
981.3665	2545.7279	12518.55	11630.7
981.4933	2547.0441	12493.35	11603.7
981.62	2548.3596	12488.8	11597.6
981.7467	2549.6744	12451.45	11562.8
981.8734	2550.9885	12388.75	11491.65
982.0001	2552.3019	12372.6	11486.15
982.1267	2553.6146	12333	11444.85
982.2532	2554.9266	12281.95	11392.15
982.3798	2556.2379	12241.85	11351.85
982.5063	2557.5485	12230.8	11343.3
982.6327	2558.8585	12198.7	11302.8
982.7592	2560.1677	12159.15	11266
982.8856	2561.4762	12132.45	11245.8
983.0119	2562.7841	12128.05	11237.2
983.1383	2564.0913	12085.75	11198.7
983.2646	2565.3977	12031.85	11145.95
983.3908	2566.7035	12001	11111.9
983.517	2568.0086	12000.95	11112.55
983.6432	2569.313	11986.95	11097.3
983.7694	2570.6167	11957	11065.55
983.8955	2571.9197	11877.45	10989.2
984.0216	2573.222	11875.75	10981.85
984.1476	2574.5236	11849.75	10960.95
984.2737	2575.8246	11787.55	10896.95
984.3996	2577.1248	11781.3	10890.35
984.5256	2578.4244	11738.5	10849.8
984.6515	2579.7232	11747.3	10861.85
984.7774	2581.0214	11726.8	10815.6
984.9032	2582.3189	11668.65	10780.95
985.029	2583.6157	11646.7	10754.8
985.1548	2584.9118	11614.5	10725.1
985.2806	2586.2072	11582.45	10694.35
985.4063	2587.5019	11550.3	10663.05
985.5319	2588.7959	11521.15	10632.4
985.6576	2590.0893	11498.7	10608.85
985.7832	2591.3819	11474.65	10588.15
985.9087	2592.6739	11399.45	10509.6
986.0343	2593.9652	11393.5	10502.25
986.1597	2595.2557	11339.45	10449.6
986.2852	2596.5456	11282.3	10390.6
986.4106	2597.8348	11258.15	10372.4
986.536	2599.1234	11208.05	10318.9
986.6614	2600.4112	11163.3	10275.4
986.7867	2601.6983	11137.8	10246.7
986.912	2602.9848	11098.7	10210.25
987.0372	2604.2705	11039.6	10143.7
987.1624	2605.5556	11037	10147
987.2876	2606.84	10981.05	10092.1
987.4128	2608.1237	10940.95	10052.6
987.5379	2609.4067	10884.75	9995.2
987.6629	2610.689	10867.05	9971.3
987.788	2611.9707	10836.85	9943.9
987.913	2613.2516	10798.65	9904.4
988.0379	2614.5319	10725.55	9837.5
988.1629	2615.8115	10676.55	9787.45
988.2878	2617.0903	10628.5	9738.3
988.4126	2618.3685	10604.2	9715.1
988.5375	2619.6461	10551.65	9663.85
988.6622	2620.9229	10512.55	9622.2
988.787	2622.199	10520.95	9630.25
988.9117	2623.4745	10493.5	9606.65
989.0364	2624.7493	10452.35	9564.2
989.161	2626.0234	10399.85	9512.15
989.2857	2627.2968	10364.65	9476.85
989.4102	2628.5695	10298.25	9405.45
989.5348	2629.8415	10249.15	9360.25
989.6593	2631.1128	10213	9322.8
989.7837	2632.3835	10196.45	9307.3
989.9082	2633.6535	10140.3	9252.05
990.0326	2634.9228	10121.15	9235.35
990.1569	2636.1914	10081.4	9193.65
990.2812	2637.4593	10048.25	9159.05
990.4055	2638.7265	9998.5	9110.55
990.5298	2639.9931	9952.45	9061.8
990.654	2641.259	9951.2	9061.3
990.7782	2642.5242	9938.65	9048.3
990.9023	2643.7887	9869.85	8980.05
991.0264	2645.0525	9838.55	8949.2
991.1505	2646.3156	9803	8914.15
991.2745	2647.5781	9780.85	8894
991.3985	2648.8398	9753.5	8865.85
991.5225	2650.1009	9735.5	8838.5
991.6464	2651.3613	9679.3	8791
991.7703	2652.6211	9637.35	8747.8
991.8942	2653.8801	9625.6	8736.6
992.018	2655.1385	9612.75	8721.5
992.1418	2656.3961	9578.35	8690.6
992.2655	2657.6531	9561.1	8671.55
992.3892	2658.9094	9532.3	8644.4
992.5129	2660.1651	9492.7	8603.5
992.6366	2661.42	9475.4	8587
992.7602	2662.6743	9452.9	8564.45
992.8837	2663.9279	9429.75	8539.8
993.0073	2665.1808	9410.3	8520.15
993.1307	2666.433	9370.6	8479.6
993.2542	2667.6846	9351.15	8462.45
993.3776	2668.9354	9322.2	8432.6
993.501	2670.1856	9292.4	8402.6
993.6244	2671.4351	9252.05	8364.8
993.7477	2672.6839	9256.15	8367.1
993.8709	2673.9321	9237.15	8350.05
993.9942	2675.1795	9173.05	8285.9
994.1174	2676.4263	9109.15	8219.25
994.2405	2677.6724	9111.5	8224.7
994.3637	2678.9179	9107.2	8217.75
994.4868	2680.1626	9073.3	8184.55
994.6098	2681.4067	9058.3	8169.35
994.7328	2682.6501	9016.25	8127.05
994.8558	2683.8928	8967.8	8079.95
994.9788	2685.1348	8944.8	8057.2
995.1017	2686.3761	8895.6	8008.35
995.2245	2687.6168	8877.1	7990.45
995.3474	2688.8568	8865.6	7976.75
995.4702	2690.0961	8807.95	7919.15
995.5929	2691.3348	8795.7	7906.55
995.7156	2692.5727	8773.3	7881.65
995.8383	2693.81	8751.35	7863.95
995.961	2695.0466	8707.25	7819.25
996.0836	2696.2826	8687.75	7797.45
996.2062	2697.5178	8660.15	7770.1
996.3287	2698.7524	8640.8	7752.4
996.4512	2699.9863	8623	7733.1
996.5737	2701.2195	8559.15	7671.85
996.6961	2702.452	8535.85	7646.65
996.8185	2703.6839	8533.75	7645.15
996.9408	2704.9151	8519.95	7631.4
997.0631	2706.1456	8476.1	7588.2
997.1854	2707.3755	8447.8	7560.15
997.3077	2708.6046	8436.7	7545.5
997.4299	2709.8331	8409.8	7520.75
997.552	2711.0609	8384.85	7494.45
997.6742	2712.2881	8338.55	7451.45
997.7963	2713.5145	8351.5	7461.1
997.9183	2714.7403	8311	7423.1
998.0403	2715.9654	8298.6	7408.85
998.1623	2717.1899	8262.65	7358.6
998.2842	2718.4136	8266	7378.85
998.4062	2719.6367	8239.45	7351.3
998.528	2720.8591	8208.45	7313.15
998.6498	2722.0809	8166.35	7278.5
998.7716	2723.3019	8143.05	7250.85
998.8934	2724.5223	8124.95	7233.6
999.0151	2725.7421	8087.55	7199.05
999.1368	2726.9611	8077.45	7187.05
999.2584	2728.1795	8063	7171.7
999.38	2729.3972	8006.75	7118.95
999.5016	2730.6142	7990.25	7089.75
999.6231	2731.8306	7939.4	7051.8
999.7446	2733.0462	7908.45	7019.1
999.8661	2734.2612	7862.75	6969.7
999.9875	2735.4756	7806.05	6916.1
1000.1089	2736.6892	7761.95	6872.2
1000.2302	2737.9022	7710.25	6823.8
1000.3515	2739.1145	7696.3	6809.25
1000.4728	2740.3262	7668	6771.25
1000.594	2741.5372	7596.15	6709.7
1000.7152	2742.7475	7565.9	6676.45
1000.8363	2743.9571	7553.4	6664.15
1000.9575	2745.1661	7549.2	6654.45
1001.0785	2746.3744	7494.95	6603.7
1001.1996	2747.582	7462.55	6573.7
1001.3206	2748.7889	7434.85	6544.35
1001.4415	2749.9952	7406.95	6520.65
1001.5625	2751.2008	7375.75	6487.15
1001.6833	2752.4057	7346.8	6456
1001.8042	2753.61	7315.25	6424.45
1001.925	2754.8136	7304.2	6413.05
1002.0458	2756.0165	7267.7	6379.95
1002.1665	2757.2188	7236.8	6348.9
1002.2872	2758.4204	7215.65	6326.9
1002.4078	2759.6213	7181.35	6291.3
1002.5285	2760.8215	7200.1	6307.85
1002.649	2762.0211	7157.3	6267
1002.7696	2763.22	7127.7	6235.85
1002.8901	2764.4182	7101.6	6211.75
1003.0106	2765.6158	7074.55	6186.6
1003.131	2766.8127	7053.5	6164.6
1003.2514	2768.009	7047.15	6160.55
1003.3717	2769.2045	7004.8	6118.1
1003.492	2770.3994	6996.1	6104.35
1003.6123	2771.5936	6978.15	6089.5
1003.7325	2772.7872	6931	6042.65
1003.8527	2773.9801	6884	5993.05
1003.9729	2775.1723	6883.95	5977
1004.093	2776.3639	6863.35	5975.65
1004.2131	2777.5548	6828.55	5939.5
1004.3331	2778.745	6808.7	5919.55
1004.4531	2779.9346	6795.9	5909.25
1004.5731	2781.1235	6787.4	5899.85
1004.693	2782.3117	6736.55	5848.3
1004.8129	2783.4992	6730.6	5843.5
1004.9328	2784.6861	6690	5801.85
1005.0526	2785.8723	6697.15	5807.45
1005.1723	2787.0579	6665.9	5775.85
1005.2921	2788.2428	6659.1	5768.9
1005.4118	2789.427	6651	5763.65
1005.5314	2790.6106	6628.65	5741.8
1005.651	2791.7935	6604.05	5715.35
1005.7706	2792.9757	6591.8	5705.5
1005.8902	2794.1573	6565.85	5675.5
1006.0097	2795.3382	6562.15	5673.85
1006.1291	2796.5184	6529.05	5641.05
1006.2485	2797.698	6535.8	5644.4
1006.3679	2798.8769	6530.1	5640.85
1006.4873	2800.0551	6518.85	5628.55
1006.6066	2801.2327	6510.75	5619.55
1006.7258	2802.4096	6494	5608.45
1006.8451	2803.5859	6501.35	5612.6
1006.9642	2804.7615	6511.35	5622.7
1007.0834	2805.9364	6505.55	5618.6
1007.2025	2807.1106	6497.6	5610.05
1007.3216	2808.2842	6504.75	5614.25
1007.4406	2809.4572	6518.2	5629.85
1007.5596	2810.6294	6546.75	5659.6
1007.6785	2811.801	6563.7	5676.45
1007.7975	2812.972	6584.3	5697.35
1007.9163	2814.1423	6592.45	5706.25
1008.0352	2815.3119	6625.2	5736.05
1008.154	2816.4808	6654.75	5767.05
1008.2727	2817.6491	6671.65	5783.9
1008.3914	2818.8167	6692.65	5806.15
1008.5101	2819.9837	6745.25	5852.1
1008.6288	2821.15	6753.05	5864.35
1008.7474	2822.3157	6788	5902.15
1008.8659	2823.4807	6799.85	5912.55
1008.9844	2824.645	6839.1	5949.9
1009.1029	2825.8086	6864.8	5977.95
1009.2214	2826.9716	6885.45	5998.35
1009.3398	2828.134	6902.35	6015.05
1009.4581	2829.2957	6947.15	6060.05
1009.5764	2830.4567	6949.9	6063.85
1009.6947	2831.617	6959.3	6070.7
1009.813	2832.7767	6961.95	6072.75
1009.9312	2833.9358	6955.05	6067.65
1010.0493	2835.0941	6918.4	6028.9
1010.1675	2836.2519	6925.05	6037.6
1010.2855	2837.4089	6877.1	5988.25
1010.4036	2838.5653	6858.4	5970.7
1010.5216	2839.7211	6845.3	5957.15
1010.6396	2840.8761	6817.4	5928.2
1010.7575	2842.0306	6830.4	5946.1
1010.8754	2843.1843	6843.6	5959.55
1010.9932	2844.3374	6878.2	5989.75
1011.111	2845.4899	6924.05	6034.7
1011.2288	2846.6417	6990.05	6103.6
1011.3465	2847.7928	7039.6	6152.4
1011.4642	2848.9433	7089.3	6201.55
1011.5818	2850.0931	7146.25	6259.8
1011.6995	2851.2422	7200.1	6311
1011.817	2852.3907	7254.7	6365.9
1011.9345	2853.5385	7297.65	6408
1012.052	2854.6857	7342.65	6427.65
1012.1695	2855.8323	7366.95	6480.3
1012.2869	2856.9781	7390.95	6503.9
1012.4042	2858.1233	7437.05	6550.1
1012.5216	2859.2679	7452.3	6563.85
1012.6389	2860.4118	7485.85	6598.15
1012.7561	2861.555	7500.1	6608.05
1012.8733	2862.6976	7492.7	6603.45
1012.9905	2863.8395	7501.2	6614.7
1013.1076	2864.9808	7540.8	6654.5
1013.2247	2866.1214	7504.2	6617.8
1013.3417	2867.2614	7525.2	6637.45
1013.4587	2868.4007	7512.15	6622.35
1013.5757	2869.5393	7514.75	6625.25
1013.6926	2870.6773	7483.75	6593.8
1013.8095	2871.8146	7488.9	6597.9
1013.9263	2872.9513	7476.5	6586.9
1014.0431	2874.0874	7439.3	6552.15
1014.1599	2875.2227	7415.9	6526.4
1014.2766	2876.3574	7377	6488.05
1014.3933	2877.4915	7354.45	6466.9
1014.51	2878.6249	7301.55	6415.4
1014.6266	2879.7577	7248.35	6358.5
1014.7431	2880.8898	7224.9	6328.9
1014.8596	2882.0212	7171.85	6284.15
1014.9761	2883.152	7158.9	6271.85
1015.0925	2884.2821	7133.2	6247.4
1015.2089	2885.4116	7110.55	6223.05
1015.3253	2886.5405	7083.45	6196.9
1015.4416	2887.6686	7085.2	6193.4
1015.5579	2888.7962	7062.75	6176.7
1015.6741	2889.923	7065.4	6179.35
1015.7903	2891.0493	7040.45	6152.7
1015.9065	2892.1748	7045.9	6159.1
1016.0226	2893.2997	7025.4	6137.05
1016.1387	2894.424	7033.35	6146.6
1016.2547	2895.5476	7033.85	6147.8
1016.3707	2896.6706	7039.4	6151.55
1016.4866	2897.7929	7049.9	6162.1
1016.6025	2898.9145	7027.6	6139.1
1016.7184	2900.0355	7053.1	6163.55
1016.8342	2901.1559	7043.55	6154.9
1016.95	2902.2756	7073.75	6185.75
1017.0658	2903.3946	7089.1	6201.15
1017.1815	2904.513	7097.1	6206.3
1017.2971	2905.6308	7109.4	6221.5
1017.4127	2906.7479	7119.4	6229.8
1017.5283	2907.8643	7124.45	6236.65
1017.6439	2908.9801	7114.45	6226.4
1017.7594	2910.0953	7102.65	6216.35
1017.8748	2911.2098	7099.4	6209.3
1017.9902	2912.3236	7065.75	6170.55
1018.1056	2913.4368	7058.05	6166.7
1018.2209	2914.5494	7027.1	6139.7
1018.3362	2915.6613	6965.25	6072.9
1018.4515	2916.7725	6922.5	6031.8
1018.5667	2917.8831	6905.65	6017.25
1018.6819	2918.9931	6857.25	5967.1
1018.797	2920.1024	6796.7	5906.9
1018.9121	2921.211	6786.75	5898.1
1019.0271	2922.319	6743.15	5856
1019.1421	2923.4264	6724.05	5838.6
1019.2571	2924.5331	6688.4	5802.25
1019.372	2925.6391	6675.25	5788.8
1019.4869	2926.7445	6661.85	5774.25
1019.6017	2927.8493	6640.8	5751.65
1019.7165	2928.9534	6614.55	5726.05
1019.8313	2930.0569	6610.3	5720.25
1019.946	2931.1597	6593.5	5704.7
1020.0606	2932.2619	6563.45	5674.2
1020.1753	2933.3634	6564.65	5676.7
1020.2899	2934.4643	6545.3	5651.4
1020.4044	2935.5645	6504.2	5610.6
1020.5189	2936.6641	6451.25	5560.3
1020.6334	2937.763	6404.95	5518.1
1020.7478	2938.8613	6359.7	5470.55
1020.8622	2939.959	6300.65	5409.9
1020.9765	2941.056	6212.05	5324.7
1021.0908	2942.1523	6115.95	5227.85
1021.2051	2943.248	6025	5136.5
1021.3193	2944.3431	5925.1	5038.2
1021.4334	2945.4375	5789.9	4901.35
1021.5476	2946.5313	5708.45	4821.55
1021.6617	2947.6244	5577.05	4688.55
1021.7757	2948.7169	5480.7	4590.3
1021.8897	2949.8087	5381.7	4492.75
1022.0037	2950.8999	5280.65	4392.05
1022.1176	2951.9904	5202.25	4317.55
1022.2315	2953.0803	5108.1	4220.05
1022.3453	2954.1696	5035.25	4147.85
1022.4591	2955.2582	4974.9	4087.25
1022.5728	2956.3462	4914.6	4027.3
1022.6865	2957.4335	4867.8	3979.8
1022.8002	2958.5202	4802.95	3913.2
1022.9138	2959.6062	4752.1	3863.75
1023.0274	2960.6916	4740.05	3853.45
1023.141	2961.7764	4705.35	3817.25
1023.2545	2962.8605	4681.7	3793.8
1023.3679	2963.9439	4660.15	3774.6
1023.4813	2965.0267	4625.8	3737.05
1023.5947	2966.1089	4635.15	3723.9
1023.708	2967.1905	4577.45	3690.3
1023.8213	2968.2714	4575.15	3687.85
1023.9346	2969.3516	4556.3	3668.45
1024.0478	2970.4312	4552.85	3659.75
1024.1609	2971.5102	4540.85	3654.35
1024.274	2972.5885	4522.85	3637.85
1024.3871	2973.6662	4522.65	3630.35
1024.5002	2974.7432	4496.1	3609.6
1024.6132	2975.8196	4484.2	3596.35
1024.7261	2976.8954	4453.5	3567.25
1024.839	2977.9705	4431.75	3544.1
1024.9519	2979.045	4413.05	3526.75
1025.0647	2980.1188	4378	3488.85
1025.1775	2981.192	4357.75	3469.1
1025.2902	2982.2645	4325.2	3436.15
1025.4029	2983.3364	4302.9	3415.1
1025.5156	2984.4077	4240.6	3353.9
1025.6282	2985.4783	4232.95	3340.4
1025.7407	2986.5483	4178	3291.25
1025.8532	2987.6177	4135.2	3248.75
1025.9657	2988.6864	4097.4	3209.05
1026.0782	2989.7545	4057.55	3169.7
1026.1906	2990.8219	4013.35	3127.05
1026.3029	2991.8887	3973.75	3084.5
1026.4152	2992.9548	3939.75	3051.9
1026.5275	2994.0204	3906.85	3021.25
1026.6397	2995.0852	3843.05	2957
1026.7519	2996.1495	3822.8	2934.15
1026.864	2997.2131	3802.25	2914.9
1026.9761	2998.276	3771.35	2885.2
1027.0882	2999.3383	3730.15	2843.25
1027.2002	3000.4	3701.1	2814.05
1027.3122	3001.4611	3685.55	2797.4
1027.4241	3002.5215	3666.55	2778.6
1027.536	3003.5812	3625.65	2737.05
1027.6478	3004.6404	3619.8	2734.4
1027.7596	3005.6989	3601.4	2713.45
1027.8714	3006.7567	3597.2	2709.7
1027.9831	3007.8139	3587.9	2680.25
1028.0947	3008.8705	3547.9	2660.9
1028.2064	3009.9264	3534.4	2643.65
1028.3179	3010.9818	3519.75	2630.1
1028.4295	3012.0364	3500.85	2613
1028.541	3013.0905	3485.15	2597.95
1028.6524	3014.1439	3471.45	2582.25
1028.7638	3015.1966	3464	2578
1028.8752	3016.2487	3445.45	2558.7
1028.9865	3017.3002	3449.45	2556.55
1029.0978	3018.3511	3428.55	2540.55
1029.209	3019.4013	3429.3	2540.8
1029.3202	3020.4509	3420.4	2534.25
1029.4314	3021.4998	3424.85	2537.3
1029.5425	3022.5481	3410.5	2521.15
1029.6535	3023.5958	3398.6	2508.95
1029.7645	3024.6428	3390.05	2502.2
1029.8755	3025.6892	3374.55	2488.9
1029.9864	3026.735	3367.85	2480.4
1030.0973	3027.7802	3362.6	2473.65
1030.2082	3028.8247	3352.1	2464.95
1030.319	3029.8685	3346.55	2458.75
1030.4297	3030.9118	3345.2	2456.1
1030.5404	3031.9544	3318.4	2431.35
1030.6511	3032.9963	3323.75	2435.2
1030.7617	3034.0376	3322.25	2435.45
1030.8723	3035.0783	3316.55	2427.3
1030.9829	3036.1184	3311.4	2423.1
1031.0934	3037.1578	3314.1	2427.3
1031.2038	3038.1966	3303.9	2413.25
1031.3142	3039.2348	3299.3	2412.95
1031.4246	3040.2723	3287.1	2393.4
1031.5349	3041.3092	3275.3	2389.35
1031.6452	3042.3455	3252.65	2366.15
1031.7554	3043.3811	3243.9	2355.3
1031.8656	3044.4161	3238.55	2350.15
1031.9758	3045.4505	3212.6	2327.2
1032.0859	3046.4842	3219.85	2331
1032.1959	3047.5173	3195.75	2310.3
1032.3059	3048.5498	3179.9	2289.7
1032.4159	3049.5816	3161.2	2273.8
1032.5258	3050.6128	3168.75	2278.85
1032.6357	3051.6434	3147	2258.25
1032.7455	3052.6734	3152.85	2264.8
1032.8553	3053.7027	3133.05	2247.45
1032.9651	3054.7314	3117.9	2229.75
1033.0748	3055.7594	3090.55	2205.35
1033.1845	3056.7868	3089.3	2201.45
1033.2941	3057.8136	3067.95	2180.25
1033.4037	3058.8398	3050	2162
1033.5132	3059.8653	3049.85	2162.5
1033.6227	3060.8902	3026.3	2139.05
1033.7321	3061.9145	3006.6	2117.25
1033.8415	3062.9381	3017.3	2130.9
1033.9509	3063.9612	3011.55	2108.85
1034.0602	3064.9835	2975.7	2086.9
1034.1694	3066.0053	2977.25	2087.65
1034.2787	3067.0264	2955.65	2070.55
1034.3878	3068.0469	2947.85	2060.55
1034.497	3069.0668	2929.35	2037.4
1034.6061	3070.086	2928.25	2042.7
1034.7151	3071.1046	2910.25	2020.65
1034.8241	3072.1226	2897.8	2010
1034.9331	3073.1399	2873.6	1986.6
1035.042	3074.1567	2869.75	1981.45
1035.1508	3075.1727	2846.75	1958.65
1035.2597	3076.1882	2825.4	1939.3
1035.3684	3077.203	2821.3	1935.4
1035.4772	3078.2173	2801.85	1913.2
1035.5859	3079.2308	2787.2	1896.9
1035.6945	3080.2438	2794.2	1904.65
1035.8031	3081.2561	2756.85	1870.55
1035.9117	3082.2678	2746.9	1860.3
1036.0202	3083.2789	2728.45	1841.65
1036.1286	3084.2893	2712.35	1826.7
1036.2371	3085.2991	2714.6	1828.15
1036.3454	3086.3083	2711.9	1820.7
1036.4538	3087.3169	2686.05	1799.4
1036.562	3088.3248	2676.45	1786
1036.6703	3089.3321	2658.45	1768.95
1036.7785	3090.3388	2657.2	1770.65
1036.8866	3091.3449	2633.05	1746.2
1036.9948	3092.3503	2632.85	1743.95
1037.1028	3093.3551	2624.4	1739.65
1037.2108	3094.3593	2608.8	1724.1
1037.3188	3095.3629	2598.2	1712.05
1037.4267	3096.3658	2592.2	1703.85
1037.5346	3097.3681	2583.9	1696.2
1037.6425	3098.3698	2577.2	1689.05
1037.7503	3099.3708	2575.1	1681.15
1037.858	3100.3713	2537.4	1650.05
1037.9657	3101.3711	2535	1648.35
1038.0734	3102.3702	2649.25	1621.75
1038.181	3103.3688	2542	1653.3
1038.2886	3104.3667	2519.2	1631.7
1038.3961	3105.364	2504.9	1618.9
1038.5036	3106.3607	2489.85	1601.55
1038.611	3107.3568	2492.95	1604.95
1038.7184	3108.3522	2463.35	1579
1038.8257	3109.347	2468.85	1581.75
1038.933	3110.3412	2468	1576.15
1039.0403	3111.3348	2435.55	1548.85
1039.1475	3112.3277	2433.45	1548.5
1039.2547	3113.32	2427.6	1543.9
1039.3618	3114.3117	2423.85	1535.25
1039.4689	3115.3028	2411.65	1525
1039.5759	3116.2932	2394.9	1505.5
1039.6829	3117.2831	2389.5	1494.9
1039.7898	3118.2723	2376.25	1489.9
1039.8967	3119.2608	2375.45	1488.6
1040.0035	3120.2488	2358.3	1473.1
1040.1103	3121.2361	2352.65	1465.8
1040.2171	3122.2229	2343.8	1456.6
1040.3238	3123.209	2347.4	1461.2
1040.4305	3124.1944	2330.5	1442.55
1040.5371	3125.1793	2330.1	1441
1040.6437	3126.1635	2324.65	1439.6
1040.7502	3127.1471	2308.05	1424.2
1040.8567	3128.1301	2304.15	1418.5
1040.9631	3129.1125	2293.25	1407.75
1041.0695	3130.0942	2303.75	1418.15
1041.1759	3131.0753	2298	1402.75
1041.2822	3132.0558	2286.65	1395.1
1041.3884	3133.0357	2264.25	1375.75
1041.4946	3134.015	2262.5	1373.7
1041.6008	3134.9936	2251.25	1363.7
1041.7069	3135.9716	2266.35	1356.1
1041.813	3136.949	2247.15	1359
1041.919	3137.9258	2252.95	1362.1
1042.025	3138.902	2236.7	1345.55
1042.1309	3139.8775	2222.65	1336.35
1042.2368	3140.8524	2215.35	1327.5
1042.3427	3141.8267	2213.4	1324
1042.4485	3142.8004	2206.15	1318.1
1042.5542	3143.7735	2206.45	1312.75
1042.6599	3144.7459	2202.25	1312.8
1042.7656	3145.7178	2195.3	1306.6
1042.8712	3146.689	2195.9	1311.6
1042.9768	3147.6596	2177.9	1289.8
1043.0823	3148.6295	2174.85	1289.2
1043.1878	3149.5989	2161.7	1274.8
1043.2932	3150.5676	2157.1	1271.2
1043.3986	3151.5357	2136.1	1250.15
1043.5039	3152.5032	2142.85	1257.4
1043.6092	3153.4701	2131.75	1244.3
1043.7145	3154.4364	2137.65	1248.05
1043.8197	3155.402	2119.8	1233.2
1043.9248	3156.367	2123.9	1234.9
1044.03	3157.3315	2148.3	1216.25
1044.135	3158.2952	2109.3	1220.65
1044.24	3159.2584	2083.9	1199.25
1044.345	3160.221	2090	1202.85
1044.4499	3161.1829	2084.05	1198.75
1044.5548	3162.1442	2075.35	1189.8
1044.6596	3163.105	2052.55	1164.4
1044.7644	3164.065	2055	1167
1044.8692	3165.0245	2046.15	1157.95
1044.9739	3165.9834	2044.95	1159.4
1045.0785	3166.9416	2040	1153.5
1045.1831	3167.8993	2027.45	1142.3
1045.2877	3168.8563	2030.5	1141.7
1045.3922	3169.8127	2017.35	1130.1
1045.4966	3170.7684	2023.45	1136.55
1045.6011	3171.7236	2006.2	1117.65
1045.7054	3172.6782	1999.9	1112.65
1045.8098	3173.6321	1997.65	1109.55
1045.914	3174.5854	1994.7	1102.3
1046.0183	3175.5381	1980.45	1092.9
1046.1224	3176.4902	1976.4	1089.6
1046.2266	3177.4417	1978.2	1091.85
1046.3307	3178.3926	1969.6	1082.4
1046.4347	3179.3428	1945.6	1058
1046.5387	3180.2924	1946.25	1061.9
1046.6427	3181.2415	1944.95	1057.85
1046.7466	3182.1899	1937.25	1048.4
1046.8504	3183.1377	1924.05	1038
1046.9542	3184.0848	1932.75	1042.3
1047.058	3185.0314	1919.65	1033.1
1047.1617	3185.9773	1913.4	1025.45
1047.2654	3186.9227	1915.25	1030.05
1047.369	3187.8674	1906.4	1021.85
1047.4726	3188.8115	1909.05	1019.45
1047.5761	3189.755	1900.3	1015.25
1047.6796	3190.6979	1892.9	1006
1047.783	3191.6402	1891.3	1005.45
1047.8864	3192.5818	1883.4	996.95
1047.9898	3193.5229	1895.6	984.4
1048.0931	3194.4633	1878.7	990
1048.1963	3195.4031	1860.8	974.25
1048.2995	3196.3423	1858.15	972.5
1048.4027	3197.2809	1861.4	973.95
1048.5058	3198.2189	1862.2	974.2
1048.6089	3199.1563	1851.45	959.8
1048.7119	3200.0931	1834.25	949.75
1048.8148	3201.0292	1836.9	949.35
1048.9178	3201.9648	1831.6	942.7
1049.0206	3202.8997	1837.9	946.7
1049.1235	3203.834	1818.55	931.05
1049.2262	3204.7677	1821.5	936.15
1049.329	3205.7008	1810.75	920.2
1049.4317	3206.6333	1805.2	922.3
1049.5343	3207.5652	1806.55	917.95
1049.6369	3208.4964	1798.05	910.25
1049.7394	3209.4271	1794.8	908.75
1049.8419	3210.3571	1790.5	904.05
1049.9444	3211.2865	1781.7	893.6
1050.0468	3212.2154	1781.9	893.25
1050.1491	3213.1436	1783.65	894
1050.2514	3214.0712	1785.25	890.45
1050.3537	3214.9982	1769.8	884.05
1050.4559	3215.9246	1759.95	872.85
1050.5581	3216.8503	1757.8	871.6
1050.6602	3217.7755	1749.1	863.75
1050.7623	3218.7001	1756.4	868.9
1050.8643	3219.624	1742.5	856.3
1050.9663	3220.5473	1737.8	852.6
1051.0682	3221.4701	1732.6	846.2
1051.1701	3222.3922	1732	843.1
1051.2719	3223.3137	1727.55	841.6
1051.3737	3224.2346	1733.15	844.2
1051.4754	3225.1549	1725.45	838.25
1051.5771	3226.0746	1715.95	831.45
1051.6788	3226.9937	1705.65	818.15
1051.7804	3227.9121	1698.6	814.1
1051.8819	3228.83	1704.55	817.25
1051.9834	3229.7473	1694.85	808.2
1052.0849	3230.6639	1691.85	804.65
1052.1863	3231.5799	1688.5	803.15
1052.2876	3232.4954	1685.75	799.7
1052.3889	3233.4102	1686.15	799.65
1052.4902	3234.3244	1681.05	795.35
1052.5914	3235.238	1662.9	775.95
1052.6926	3236.151	1688.65	775.4
1052.7937	3237.0634	1662.15	776.6
1052.8948	3237.9752	1655.9	769.6
1052.9958	3238.8864	1649.9	761.8
1053.0968	3239.797	1641.8	757.25
1053.1977	3240.7069	1640.5	754.2
1053.2986	3241.6163	1643.95	756.2
1053.3994	3242.5251	1634.5	748.65
1053.5002	3243.4332	1633.75	750.2
1053.6009	3244.3408	1624.55	737.1
1053.7016	3245.2477	1616.85	729.9
1053.8022	3246.154	1617.2	729.2
1053.9028	3247.0598	1607.1	719.2
1054.0034	3247.9649	1601.35	716.55
1054.1039	3248.8694	1595.85	710.35
1054.2043	3249.7733	1601.3	714.3
1054.3047	3250.6766	1593.65	708.1
1054.4051	3251.5793	1587.8	699
1054.5054	3252.4814	1579.9	694.85
1054.6056	3253.3829	1576.85	689.45
1054.7058	3254.2838	1570.05	684.25
1054.806	3255.1841	1571.2	685.55
1054.9061	3256.0838	1565.75	678.95
1055.0061	3256.9829	1555.65	670.05
1055.1062	3257.8814	1554.2	666.4
1055.2061	3258.7792	1543.45	653.6
1055.306	3259.6765	1538.3	649.25
1055.4059	3260.5731	1537.75	651.25
1055.5057	3261.4692	1518.2	630.6
1055.6055	3262.3647	1526.6	639.25
1055.7052	3263.2595	1515.2	629.65
1055.8049	3264.1538	1502	614.5
1055.9045	3265.0474	1487.75	600.65
1056.0041	3265.9404	1478.25	591.4
1056.1036	3266.8329	1471.85	585.9
1056.2031	3267.7247	1467.55	572.4
1056.3025	3268.616	1449.2	564.75
1056.4019	3269.5066	1441	554.9
1056.5013	3270.3966	1420.55	531.3
1056.6005	3271.286	1403.8	517.6
