Software Version:	3.9.2.0
Unit SN:	10000200
Spectrometer SN:	6960
Date:	3/6/2024 10:56:03 AM
Data Line Index:	25
Spectral Points:	2048
Integration time (ms):	125
Averages:	20
Delay (ms):	30
Sequence Number:	1
Processing:	dark subtract
Laser Power (mW):	305
Laser Current (mA):	821
Laser Diode Temp (C):	25.1
Laser Case Temp (C):	27.9
System Temp (C):	27.7
Spectrometer Temp (C):	25.2
CCD Temp (C):	0.001
Secondary Temp (C):	20.004
Heatsink Temp (C):	23.58
CCDPCB Temp (C):	37.096
SecondaryPCB Temp (C):	34.595

Wavelength	RamanShift	Raw Counts	Dark Subtracted
787.061	30.1047	1107.05	693.75
787.2016	32.3739	1129.65	717.55
787.3422	34.6426	1171.4	760.05
787.4828	36.9109	1223.1	808.8
787.6235	39.1787	1284.2	866.1
787.7642	41.4461	1331.9	908.7
787.9049	43.7131	1401.6	975.6
788.0456	45.9796	1461.65	1030.4
788.1863	48.2456	1529.6	1094.55
788.3271	50.5112	1590.55	1151.75
788.4679	52.7764	1664.7	1225.15
788.6087	55.0411	1739.5	1296.25
788.7496	57.3054	1820.15	1372.55
788.8904	59.5692	1901.85	1449.8
789.0313	61.8326	2010.3	1554.7
789.1722	64.0955	2106.25	1645.4
789.3132	66.3579	2224.25	1758.1
789.4541	68.6199	2390	1921.6
789.5951	70.8815	2629.7	2157
789.7361	73.1426	3124.9	2650.15
789.8771	75.4032	4353.2	3872.1
790.0181	77.6634	7546.25	7060.05
790.1592	79.9231	15670.9	15182.65
790.3003	82.1824	51029.35	50528.4
790.4414	84.4412	65535	65020.3
790.5825	86.6995	65535	64995.3
790.7237	88.9574	65535	64973.8
790.8648	91.2148	65535	64957.3
791.006	93.4717	65535	64947.7
791.1472	95.7282	65535	64942.35
791.2885	97.9842	65535	64939.7
791.4297	100.2398	65535	64933.75
791.571	102.4949	65535	64929.35
791.7123	104.7495	65535	64929.6
791.8536	107.0036	65535	64925.2
791.9949	109.2573	65535	64932.05
792.1363	111.5105	65535	64924.15
792.2777	113.7632	65535	64923.75
792.4191	116.0154	65535	64915.55
792.5605	118.2672	65535	64920.6
792.7019	120.5185	65535	64919.35
792.8434	122.7693	65535	64913.9
792.9849	125.0197	65535	64912.05
793.1264	127.2696	65535	64912.8
793.2679	129.519	65535	64908.15
793.4094	131.7679	65535	64905.55
793.551	134.0163	65535	64899.65
793.6926	136.2642	65535	64898
793.8342	138.5117	65535	64886.05
793.9758	140.7587	65535	64892.85
794.1175	143.0052	65535	64890.6
794.2591	145.2512	65535	64890.2
794.4008	147.4967	65535	64887.9
794.5425	149.7417	65535	64891.45
794.6842	151.9863	65535	64882.05
794.826	154.2304	65535	64881.2
794.9677	156.4739	65535	64876.4
795.1095	158.717	65535	64873.25
795.2513	160.9596	65535	64868.65
795.3931	163.2017	65535	64867.2
795.535	165.4433	65535	64864.2
795.6768	167.6844	65535	64866.9
795.8187	169.925	65535	64858.15
795.9606	172.1651	65535	64856.75
796.1025	174.4047	65535	64851.85
796.2445	176.6439	65535	64852.05
796.3864	178.8825	65535	64847.65
796.5284	181.1206	65535	64844.8
796.6704	183.3582	65535	64841.6
796.8124	185.5954	65535	64838.1
796.9544	187.832	65535	64833.4
797.0965	190.0681	65535	64833.75
797.2386	192.3037	65535	64831.2
797.3806	194.5388	65535	64827.7
797.5228	196.7734	65535	64824.3
797.6649	199.0075	65535	64825.1
797.807	201.2411	65535	64818.9
797.9492	203.4742	65535	64819.1
798.0914	205.7068	65535	64816.1
798.2336	207.9389	65535	64815.15
798.3758	210.1704	65535	64815.5
798.518	212.4015	65535	64811
798.6603	214.632	65535	64818.9
798.8025	216.862	65535	64829.1
798.9448	219.0915	65535	64831.45
799.0871	221.3205	65535	64831.95
799.2294	223.549	65535	64835.75
799.3718	225.777	65535	64837.4
799.5141	228.0044	65535	64828.7
799.6565	230.2314	65535	64833.35
799.7989	232.4578	65535	64832.95
799.9413	234.6837	65535	64821.9
800.0837	236.909	65535	64821.5
800.2262	239.1339	65535	64796
800.3687	241.3582	65535	64809.4
800.5111	243.582	65535	64778.35
800.6536	245.8053	65535	64788.95
800.7961	248.0281	65535	64795.7
800.9387	250.2503	65535	64792.25
801.0812	252.472	65535	64787.1
801.2238	254.6932	65535	64788.65
801.3664	256.9139	65535	64786.15
801.509	259.134	65535	64782.25
801.6516	261.3536	65535	64783.2
801.7942	263.5727	65535	64781.4
801.9369	265.7912	65535	64784.95
802.0795	268.0092	65535	64785.3
802.2222	270.2267	65535	64782.2
802.3649	272.4436	65535	64783.8
802.5076	274.6601	65535	64774.05
802.6504	276.8759	65535	64775.25
802.7931	279.0913	65535	64775.75
802.9359	281.3061	65535	64772.85
803.0787	283.5204	65535	64769.1
803.2215	285.7341	65535	64768.2
803.3643	287.9473	65535	64755.85
803.5071	290.16	65535	64761.2
803.6499	292.3721	65535	64765.2
803.7928	294.5837	65535	64768.75
803.9357	296.7947	65535	64768.3
804.0786	299.0052	65535	64766.85
804.2215	301.2152	65535	64762.4
804.3644	303.4246	65535	64765.05
804.5074	305.6334	65535	64767.05
804.6503	307.8418	65535	64763.45
804.7933	310.0495	65535	64759.4
804.9363	312.2568	65535	64758.9
805.0793	314.4635	65535	64760.7
805.2223	316.6696	65535	64761.4
805.3653	318.8752	65535	64748.5
805.5084	321.0802	65535	64757.15
805.6514	323.2847	65535	64754.85
805.7945	325.4887	65535	64757.45
805.9376	327.692	65535	64750.75
806.0807	329.8949	65535	64755.9
806.2238	332.0972	65535	64752.65
806.367	334.2989	65535	64745.35
806.5101	336.5001	65535	64743.85
806.6533	338.7007	65535	64747.65
806.7965	340.9008	65535	64744.25
806.9397	343.1003	65535	64739.65
807.0829	345.2992	65535	64742.65
807.2261	347.4976	65535	64741
807.3693	349.6955	65535	64737.1
807.5126	351.8927	65535	64735.9
807.6559	354.0895	65535	64727.55
807.7991	356.2856	65535	64735
807.9424	358.4812	65535	64737.85
808.0857	360.6763	65535	64734.25
808.2291	362.8707	65535	64733
808.3724	365.0646	65535	64728.45
808.5158	367.258	65535	64728.05
808.6591	369.4508	65535	64726.85
808.8025	371.643	65535	64724.8
808.9459	373.8346	65535	64725.25
809.0893	376.0257	65535	64717.95
809.2327	378.2162	65535	64719.9
809.3762	380.4062	65535	64718.65
809.5196	382.5956	65535	64719.15
809.6631	384.7844	65535	64717.75
809.8066	386.9726	65535	64717.35
809.9501	389.1603	65535	64722.8
810.0936	391.3474	65535	64678.7
810.2371	393.5339	65535	64722.35
810.3806	395.7199	65535	64724.15
810.5241	397.9052	65535	64727.25
810.6677	400.09	65535	64726.35
810.8113	402.2743	65535	64726.6
810.9548	404.4579	65535	64727.1
811.0984	406.641	65535	64722.3
811.2421	408.8235	65535	64724.15
811.3857	411.0054	65535	64722.75
811.5293	413.1868	65535	64717.5
811.673	415.3675	65535	64716.4
811.8166	417.5477	65535	64713.1
811.9603	419.7273	65535	64711.4
812.104	421.9064	65535	64706.2
812.2477	424.0848	65535	64711.95
812.3914	426.2627	65535	64709.25
812.5351	428.4399	65535	64707.85
812.6788	430.6166	65535	64701.15
812.8226	432.7928	65535	64703.75
812.9663	434.9683	65535	64704.45
813.1101	437.1432	65535	64697.75
813.2539	439.3176	65535	64703.8
813.3977	441.4914	65535	64704.4
813.5415	443.6645	65535	64697.9
813.6853	445.8371	65535	64700.95
813.8291	448.0091	65535	64703.05
813.973	450.1806	65535	64700
814.1168	452.3514	65535	64696.55
814.2607	454.5216	65535	64691.3
814.4046	456.6913	65535	64698.35
814.5485	458.8603	65535	64699.1
814.6924	461.0288	65535	64699
814.8363	463.1967	65535	64696.1
814.9802	465.3639	65535	64692.9
815.1241	467.5306	65535	64696.05
815.2681	469.6967	65535	64696.35
815.412	471.8622	65535	64696.85
815.556	474.0271	65535	64696.6
815.7	476.1914	65535	64689.95
815.844	478.3551	65535	64694.75
815.988	480.5182	65535	64691.15
816.132	482.6807	65535	64696.3
816.276	484.8426	65535	64693.85
816.4201	487.0039	65535	64692.65
816.5641	489.1647	65535	64689.45
816.7082	491.3248	65535	64689.6
816.8522	493.4843	65535	64688.8
816.9963	495.6432	65535	64691.2
817.1404	497.8015	65535	64685.6
817.2845	499.9592	65535	64687.8
817.4286	502.1163	65535	64684.7
817.5727	504.2728	65535	64686.9
817.7168	506.4287	65535	64690.1
817.861	508.5839	65535	64689.2
818.0051	510.7386	65535	64689.5
818.1493	512.8927	65535	64683.8
818.2935	515.0461	65535	64683
818.4377	517.199	65535	64682.4
818.5818	519.3512	65535	64681.55
818.726	521.5029	65535	64679.9
818.8703	523.6539	65535	64681.3
819.0145	525.8043	65535	64680.45
819.1587	527.9541	65535	64679.95
819.303	530.1033	65535	64680.85
819.4472	532.2519	65535	64678.85
819.5915	534.3999	65535	64677.7
819.7357	536.5472	65535	64675.7
819.88	538.694	65535	64680
820.0243	540.8401	65535	64678.05
820.1686	542.9856	65535	64673.35
820.3129	545.1305	65535	64677.45
820.4572	547.2748	65535	64674.6
820.6016	549.4185	65535	64673
820.7459	551.5615	65535	64674.15
820.8902	553.704	65535	64677.15
821.0346	555.8458	65535	64675.7
821.1789	557.987	65535	64674.85
821.3233	560.1276	65535	64674.8
821.4677	562.2675	65535	64675.55
821.6121	564.4069	65535	64673.65
821.7565	566.5456	65535	64676.45
821.9009	568.6837	65535	64676.1
822.0453	570.8212	65535	64673.3
822.1897	572.958	65535	64674.9
822.3342	575.0942	65535	64675.55
822.4786	577.2299	65535	64673.7
822.6231	579.3648	65535	64673.8
822.7675	581.4992	65535	64675.2
822.912	583.6329	65535	64677
823.0565	585.766	65535	64675.8
823.201	587.8985	65535	64677.05
823.3454	590.0304	65535	64648.9
823.4899	592.1616	65535	64670.25
823.6345	594.2922	65535	64670.15
823.779	596.4222	65535	64668.7
823.9235	598.5515	65535	64670.4
824.068	600.6802	65535	64666.7
824.2126	602.8083	65535	64670.15
824.3571	604.9358	65535	64667.8
824.5017	607.0626	65535	64670.8
824.6462	609.1888	65535	64665.8
824.7908	611.3144	65535	64667.55
824.9354	613.4393	65535	64671.55
825.08	615.5636	65535	64666
825.2246	617.6873	65535	64667.15
825.3692	619.8103	65535	64663.3
825.5138	621.9327	65535	64664.05
825.6584	624.0544	65535	64665.25
825.803	626.1756	65535	64665.7
825.9477	628.2961	65535	64662.2
826.0923	630.4159	65535	64667.7
826.237	632.5351	65535	64663.05
826.3816	634.6537	65535	64664.6
826.5263	636.7716	65535	64660.5
826.6709	638.8889	65535	64661.7
826.8156	641.0056	65535	64664.15
826.9603	643.1216	65535	64659.35
827.105	645.237	65535	64661.55
827.2497	647.3518	65535	64661.75
827.3944	649.4659	65535	64661.65
827.5391	651.5793	65535	64659.7
827.6838	653.6922	65535	64660
827.8285	655.8043	65535	64661.55
827.9733	657.9159	65535	64659.05
828.118	660.0268	65535	64659.35
828.2627	662.137	65535	64657.3
828.4075	664.2466	65535	64658.25
828.5522	666.3556	65535	64656.8
828.697	668.4639	65535	64655.05
828.8418	670.5716	65535	64656.4
828.9865	672.6786	65535	64658.45
829.1313	674.785	65535	64655
829.2761	676.8907	65535	64658.3
829.4209	678.9958	65535	64660.6
829.5657	681.1002	65535	64656.25
829.7105	683.204	65535	64653.6
829.8553	685.3072	65535	64655.55
830.0001	687.4097	65535	64656.75
830.1449	689.5115	65535	64653.35
830.2898	691.6127	65535	64656.4
830.4346	693.7132	65535	64658.35
830.5794	695.8131	65535	64638
830.7243	697.9123	65535	64654.85
830.8691	700.0109	65535	64653.95
831.014	702.1089	65535	64655.25
831.1588	704.2061	65535	64654.15
831.3037	706.3028	65535	64652.7
831.4486	708.3987	65535	64649.45
831.5935	710.4941	65535	64650.5
831.7383	712.5887	65535	64651.7
831.8832	714.6827	65535	64648.4
832.0281	716.7761	65535	64652.35
832.173	718.8688	65535	64651.55
832.3179	720.9608	65535	64646.65
832.4628	723.0522	65535	64647
832.6077	725.1429	65535	64650.6
832.7527	727.233	65535	64652.7
832.8976	729.3224	65535	64646.6
833.0425	731.4112	65535	64649.85
833.1874	733.4993	65535	64647.75
833.3324	735.5867	65535	64650.75
833.4773	737.6735	65535	64648.85
833.6222	739.7596	65535	64646.95
833.7672	741.845	65535	64649.55
833.9122	743.9298	65535	64649.55
834.0571	746.014	65535	64649.75
834.2021	748.0974	65535	64648.45
834.347	750.1802	65535	64647.2
834.492	752.2624	65535	64649
834.637	754.3439	65535	64645.4
834.782	756.4247	65535	64637.95
834.9269	758.5048	65535	64650.05
835.0719	760.5843	65535	64645.1
835.2169	762.6631	65535	64649.7
835.3619	764.7413	65535	64646.65
835.5069	766.8188	65535	64646.95
835.6519	768.8956	65535	64647.05
835.7969	770.9718	65535	64647.35
835.9419	773.0473	65535	64650.1
836.0869	775.1221	65535	64646.25
836.232	777.1962	65535	64647.2
836.377	779.2697	65535	64645.35
836.522	781.3426	65535	64626.3
836.667	783.4147	65535	64642.55
836.8121	785.4862	65535	64648.6
836.9571	787.557	65535	64646.25
837.1021	789.6271	65535	64644.75
837.2472	791.6966	65535	64642.75
837.3922	793.7654	65535	64646.1
837.5373	795.8335	65535	64647.6
837.6823	797.901	65535	64645.4
837.8274	799.9678	65535	64644.75
837.9724	802.0339	65535	64644.2
838.1175	804.0993	65535	64634.15
838.2626	806.1641	65535	64642.95
838.4076	808.2282	65535	64647.05
838.5527	810.2916	65535	64639.9
838.6978	812.3544	65535	64647.8
838.8428	814.4164	65535	64645.55
838.9879	816.4778	65535	64642.85
839.133	818.5385	65535	64644.45
839.2781	820.5986	65535	64645.4
839.4232	822.658	65535	64641.2
839.5682	824.7166	65535	64644.8
839.7133	826.7747	65535	64645.25
839.8584	828.832	65535	64644.5
840.0035	830.8886	65535	64642.5
840.1486	832.9446	65535	64642.45
840.2937	834.9999	65535	64646.65
840.4388	837.0545	65535	64640.6
840.5839	839.1085	65535	64643.35
840.729	841.1618	65535	64639.2
840.8741	843.2143	65535	64642.2
841.0192	845.2662	65535	64642.1
841.1643	847.3175	65535	64644
841.3095	849.368	65535	64642.6
841.4546	851.4179	65535	64642.95
841.5997	853.467	65535	64643.2
841.7448	855.5155	65535	64640.85
841.8899	857.5633	65535	64642.25
842.0351	859.6105	65535	64641.2
842.1802	861.6569	65535	64643.45
842.3253	863.7027	65535	64641.05
842.4704	865.7478	65535	64643.35
842.6156	867.7922	65535	64640.5
842.7607	869.8359	65535	64641.55
842.9058	871.8789	65535	64640.7
843.0509	873.9212	65535	64610.2
843.1961	875.9629	65535	64641.55
843.3412	878.0039	65535	64639.25
843.4863	880.0441	65535	64642.05
843.6315	882.0837	65535	64641.55
843.7766	884.1226	65535	64639.45
843.9218	886.1609	65535	64643.1
844.0669	888.1984	65535	64639.5
844.212	890.2352	65535	64640.05
844.3572	892.2714	65535	64636.45
844.5023	894.3069	65535	64640.2
844.6475	896.3416	65535	64639.05
844.7926	898.3757	65535	64640.7
844.9377	900.4091	65535	64639.4
845.0829	902.4418	65535	64636
845.228	904.4739	65535	64635.65
845.3732	906.5052	65535	64636.8
845.5183	908.5358	65535	64639.75
845.6635	910.5658	65535	64636.85
845.8086	912.595	65535	64638.9
845.9538	914.6236	65535	64638.6
846.0989	916.6515	65535	64638.95
846.2441	918.6786	65535	64638.2
846.3892	920.7051	65535	64636.05
846.5344	922.7309	65535	64638.3
846.6795	924.756	65535	64635.1
846.8246	926.7804	65535	64635.8
846.9698	928.8041	65535	64634.65
847.1149	930.8272	65535	64637.9
847.2601	932.8495	65535	64636.65
847.4052	934.8711	65535	64637.75
847.5504	936.892	65535	64640.15
847.6955	938.9123	65535	64637.95
847.8407	940.9318	65535	64638.45
847.9858	942.9506	65535	64637.9
848.131	944.9688	65535	64638.8
848.2761	946.9862	65535	64638.45
848.4213	949.003	65535	64638.8
848.5664	951.019	65535	64638
848.7115	953.0344	65535	64635.3
848.8567	955.0491	65535	64635.95
849.0018	957.063	65535	64638.25
849.147	959.0763	65535	64638.45
849.2921	961.0888	65535	64635.1
849.4373	963.1007	65535	64636.4
849.5824	965.1119	65535	64638.95
849.7275	967.1223	65535	64638.7
849.8727	969.1321	65535	64639.55
850.0178	971.1412	65535	64639.2
850.1629	973.1495	65535	64638.55
850.3081	975.1572	65535	64603.75
850.4532	977.1641	65535	64637.9
850.5983	979.1704	65535	64638.2
850.7435	981.1759	65535	64635.9
850.8886	983.1808	65535	64635.45
851.0337	985.1849	65535	64624.5
851.1788	987.1884	65535	64632.85
851.324	989.1911	65535	64633.9
851.4691	991.1932	65535	64638.05
851.6142	993.1945	65535	64636.55
851.7593	995.1951	65535	64636.25
851.9045	997.1951	65535	64632.45
852.0496	999.1943	65535	64633.95
852.1947	1001.1928	65535	64635.05
852.3398	1003.1906	65535	64636.95
852.4849	1005.1877	65535	64635.5
852.63	1007.1841	65535	64636.35
852.7751	1009.1798	65535	64638.75
852.9202	1011.1748	65535	64634.8
853.0653	1013.1691	65535	64636.05
853.2104	1015.1627	65535	64637.65
853.3555	1017.1556	65535	64637.1
853.5006	1019.1477	65535	64638.15
853.6457	1021.1392	65535	64637.45
853.7908	1023.1299	65535	64638.9
853.9359	1025.12	65535	64632.8
854.081	1027.1093	65535	64639.95
854.2261	1029.0979	65535	64640.15
854.3712	1031.0859	65535	64641.3
854.5163	1033.0731	65535	64635.75
854.6613	1035.0596	65535	64638.4
854.8064	1037.0454	65535	64636.8
854.9515	1039.0304	65535	64635.4
855.0965	1041.0148	65535	64638.1
855.2416	1042.9985	65535	64637.25
855.3867	1044.9814	65535	64636.8
855.5317	1046.9636	65535	64636.9
855.6768	1048.9452	65535	64636.95
855.8219	1050.926	65535	64640.4
855.9669	1052.9061	65535	64637.25
856.112	1054.8855	65535	64637.9
856.257	1056.8642	65535	64636.9
856.4021	1058.8421	65535	64630.3
856.5471	1060.8194	65535	64634.45
856.6921	1062.7959	65535	64635.35
856.8372	1064.7717	65535	64632.55
856.9822	1066.7469	65535	64635.5
857.1272	1068.7213	65535	64636.7
857.2723	1070.695	65535	64638.45
857.4173	1072.6679	65535	64636.6
857.5623	1074.6402	65535	64636.4
857.7073	1076.6117	65535	64629.15
857.8523	1078.5826	65535	64635
857.9973	1080.5527	65535	64635.45
858.1423	1082.5221	65535	64635.55
858.2873	1084.4908	65535	64635.75
858.4323	1086.4587	65535	64635.05
858.5773	1088.426	65535	64636.55
858.7223	1090.3925	65535	64632.2
858.8673	1092.3584	65535	64634.35
859.0123	1094.3235	65535	64637.25
859.1573	1096.2879	65535	64638
859.3022	1098.2515	65535	64636.65
859.4472	1100.2145	65535	64634.55
859.5922	1102.1767	65535	64631.95
859.7371	1104.1382	65535	64632.7
859.8821	1106.099	65535	64634.8
860.027	1108.0591	65535	64637.15
860.172	1110.0185	65535	64634.8
860.3169	1111.9771	65535	64635.4
860.4619	1113.9351	65535	64637.9
860.6068	1115.8923	65535	64635.9
860.7517	1117.8488	65535	64633.05
860.8967	1119.8045	65535	64636.4
861.0416	1121.7596	65535	64635
861.1865	1123.7139	65535	64636.6
861.3314	1125.6675	65535	64635.35
861.4763	1127.6204	65535	64633.95
861.6212	1129.5726	65535	64632.75
861.7661	1131.524	65535	64633.7
861.911	1133.4748	65535	64634.45
862.0559	1135.4248	65535	64634.95
862.2008	1137.3741	65535	64635.65
862.3457	1139.3226	65535	64634.15
862.4905	1141.2705	65535	64635.25
862.6354	1143.2176	65535	64631.15
862.7803	1145.164	65535	64631.65
862.9251	1147.1097	65535	64636
863.07	1149.0546	65535	64635.2
863.2148	1150.9989	65535	64636.75
863.3597	1152.9424	65535	64633.7
863.5045	1154.8852	65535	64634.15
863.6493	1156.8272	65535	64635.2
863.7942	1158.7686	65535	64629.45
863.939	1160.7092	65535	64632.35
864.0838	1162.6491	65535	64632.75
864.2286	1164.5883	65535	64635.95
864.3734	1166.5267	65535	64633.65
864.5182	1168.4644	65535	64632.8
864.663	1170.4014	65535	64631.15
864.8078	1172.3377	65535	64636.5
864.9526	1174.2732	65535	64637.8
865.0974	1176.2081	65535	64637.25
865.2421	1178.1421	65535	64632
865.3869	1180.0755	65535	64637.1
865.5317	1182.0082	65535	64635.35
865.6764	1183.9401	65535	64636.6
865.8212	1185.8713	65535	64638.15
865.9659	1187.8017	65535	64635.45
866.1106	1189.7315	65535	64636.45
866.2554	1191.6605	65535	64606.25
866.4001	1193.5888	65535	64637.45
866.5448	1195.5163	65535	64637.55
866.6895	1197.4432	65535	64633.3
866.8342	1199.3693	65535	64636.25
866.9789	1201.2947	65535	64633.35
867.1236	1203.2193	65535	64635.1
867.2683	1205.1432	65535	64637
867.413	1207.0664	65535	64634.4
867.5576	1208.9889	65535	64631.35
867.7023	1210.9106	65535	64635.3
867.847	1212.8316	65535	64635.35
867.9916	1214.7519	65535	64627.1
868.1363	1216.6715	65535	64635.4
868.2809	1218.5903	65535	64637.35
868.4255	1220.5084	65535	64635.85
868.5701	1222.4257	65535	64636.3
868.7148	1224.3424	65535	64636
868.8594	1226.2583	65535	64629
869.004	1228.1735	65535	64635.1
869.1486	1230.0879	65535	64635.2
869.2932	1232.0016	65535	64636.1
869.4377	1233.9146	65535	64630.95
869.5823	1235.8269	65535	64633.8
869.7269	1237.7384	65535	64636.65
869.8715	1239.6492	65535	64634.35
870.016	1241.5592	65535	64634.55
870.1606	1243.4686	65535	64635.05
870.3051	1245.3772	65535	64637.55
870.4496	1247.285	65535	64636.35
870.5941	1249.1922	65535	64637.3
870.7387	1251.0986	65535	64636.95
870.8832	1253.0042	65535	64636.45
871.0277	1254.9092	65535	64636.35
871.1722	1256.8134	65535	64633.9
871.3167	1258.7169	65535	64635.55
871.4611	1260.6196	65535	64635
871.6056	1262.5216	65535	64633.7
871.7501	1264.4229	65535	64635.1
871.8945	1266.3234	65535	64634.7
872.039	1268.2232	65535	64635.85
872.1834	1270.1223	65535	64634.75
872.3278	1272.0207	65535	64632.45
872.4723	1273.9183	65535	64628.95
872.6167	1275.8151	65535	64637.35
872.7611	1277.7113	65535	64634.9
872.9055	1279.6067	65535	64638.25
873.0499	1281.5014	65535	64633.8
873.1943	1283.3953	65535	64635.25
873.3386	1285.2885	65535	64636.6
873.483	1287.181	65535	64636.2
873.6274	1289.0727	65535	64636.95
873.7717	1290.9637	65535	64634.75
873.9161	1292.854	65535	64636.2
874.0604	1294.7435	65535	64633.5
874.2047	1296.6323	65535	64632.55
874.349	1298.5204	65535	64632.3
874.4933	1300.4077	65535	64635.1
874.6376	1302.2943	65535	64635.5
874.7819	1304.1802	65535	64636.65
874.9262	1306.0653	65535	64633.65
875.0705	1307.9497	65535	64634.3
875.2147	1309.8333	65535	64635.05
875.359	1311.7162	65535	64633.7
875.5032	1313.5984	65535	64631.35
875.6475	1315.4798	65535	64632.9
875.7917	1317.3605	65535	64618.8
875.9359	1319.2405	65535	64633.8
876.0801	1321.1197	65535	64633.7
876.2243	1322.9982	65535	64631.9
876.3685	1324.876	65535	64635.1
876.5127	1326.753	65535	64633.6
876.6569	1328.6293	65535	64633.95
876.801	1330.5048	65535	64632.4
876.9452	1332.3796	65535	64634.1
877.0893	1334.2537	65535	64608.2
877.2335	1336.127	65535	64635.7
877.3776	1337.9996	65535	64633.65
877.5217	1339.8714	65535	64634.3
877.6658	1341.7426	65535	64592.65
877.8099	1343.6129	65535	64634.45
877.954	1345.4826	65535	64635.2
878.0981	1347.3515	65535	64631.85
878.2422	1349.2196	65535	64635
878.3862	1351.087	65535	64634.75
878.5303	1352.9537	65535	64636.2
878.6743	1354.8197	65535	64633.6
878.8184	1356.6849	65535	64634.9
878.9624	1358.5493	65535	64633.05
879.1064	1360.4131	65535	64634.15
879.2504	1362.276	65535	64634.15
879.3944	1364.1383	65535	64635.5
879.5384	1365.9998	65535	64628.9
879.6823	1367.8606	65535	64633.7
879.8263	1369.7206	65535	64635
879.9702	1371.5799	65535	64632.85
880.1142	1373.4384	65535	64634.85
880.2581	1375.2962	65535	64634
880.402	1377.1533	65535	64635.2
880.5459	1379.0096	65535	64633.95
880.6898	1380.8652	65535	64634.55
880.8337	1382.7201	65535	64635.95
880.9776	1384.5742	65535	64633.95
881.1215	1386.4275	65535	64632.6
881.2653	1388.2802	65535	64635
881.4092	1390.132	65535	64635.1
881.553	1391.9832	65535	64631.95
881.6968	1393.8336	65535	64633.25
881.8406	1395.6832	65535	64634.75
881.9844	1397.5322	65535	64632.8
882.1282	1399.3803	65535	64630.3
882.272	1401.2278	65535	64636.95
882.4158	1403.0745	65535	64633.4
882.5595	1404.9204	65535	64637.15
882.7033	1406.7656	65535	64635.1
882.847	1408.6101	65535	64634.85
882.9908	1410.4538	65535	64636.05
883.1345	1412.2968	65535	64633.8
883.2782	1414.139	65535	64633
883.4219	1415.9805	65535	64635.85
883.5656	1417.8213	65535	64628.3
883.7092	1419.6613	65535	64635.5
883.8529	1421.5006	65535	64634.8
883.9965	1423.3391	65535	64634.5
884.1402	1425.1769	65535	64635.05
884.2838	1427.0139	65535	64632.75
884.4274	1428.8502	65535	64633.25
884.571	1430.6858	65535	64635.25
884.7146	1432.5206	65535	64635.3
884.8582	1434.3547	65535	64634.9
885.0018	1436.188	65535	64636
885.1453	1438.0206	65535	64633.05
885.2889	1439.8524	65535	64633.65
885.4324	1441.6835	65535	64634.9
885.5759	1443.5139	65535	64631.6
885.7194	1445.3435	65535	64633.25
885.8629	1447.1724	65535	64635.35
886.0064	1449.0005	65535	64635.95
886.1499	1450.8279	65535	64633.65
886.2933	1452.6545	65535	64635.5
886.4368	1454.4804	65535	64636.25
886.5802	1456.3056	65535	64630.2
886.7237	1458.13	65535	64635.85
886.8671	1459.9536	65535	64634.65
887.0105	1461.7766	65535	64634.25
887.1539	1463.5987	65535	64635.75
887.2972	1465.4202	65535	64635.25
887.4406	1467.2409	65535	64634.7
887.584	1469.0608	65535	64632.3
887.7273	1470.88	65535	64634.8
887.8706	1472.6984	65535	64635.7
888.0139	1474.5161	65535	64634.25
888.1572	1476.3331	65535	64636.5
888.3005	1478.1493	65535	64633.65
888.4438	1479.9648	65535	64635.25
888.5871	1481.7795	65535	64633.6
888.7303	1483.5935	65535	64635.8
888.8736	1485.4067	65535	64635.85
889.0168	1487.2192	65535	64633.9
889.16	1489.031	65535	64634.1
889.3032	1490.842	65535	64635.65
889.4464	1492.6522	65535	64636.35
889.5896	1494.4618	65535	64633.95
889.7327	1496.2705	65535	64636.4
889.8759	1498.0785	65535	64635.15
890.019	1499.8858	65535	64634.85
890.1622	1501.6924	65535	64636.75
890.3053	1503.4981	65535	64634.4
890.4484	1505.3032	65535	64634.8
890.5914	1507.1075	65535	64635.05
890.7345	1508.911	65535	64636.3
890.8776	1510.7138	65535	64634.35
891.0206	1512.5159	65535	64635.1
891.1637	1514.3172	65535	64636.05
891.3067	1516.1178	65535	64637.85
891.4497	1517.9176	65535	64632.7
891.5927	1519.7166	65535	64636
891.7357	1521.515	65535	64628.85
891.8786	1523.3126	65535	64633.55
892.0216	1525.1094	65535	64634.9
892.1645	1526.9055	65535	64635.75
892.3074	1528.7008	65535	64634.85
892.4503	1530.4954	65535	64630.7
892.5932	1532.2893	65535	64638.2
892.7361	1534.0824	65535	64631.3
892.879	1535.8747	65525	64628.3
893.0218	1537.6663	65535	64636.1
893.1647	1539.4572	65478.8	64580.25
893.3075	1541.2473	65522.1	64621.95
893.4503	1543.0367	65519.15	64619.35
893.5931	1544.8253	65504.25	64602.5
893.7359	1546.6132	65504.7	64604.25
893.8787	1548.4003	65464.85	64557.25
894.0214	1550.1867	65448.85	64542.45
894.1642	1551.9723	65434.05	64531.95
894.3069	1553.7572	65452.5	64552.2
894.4496	1555.5414	65489.9	64591.55
894.5923	1557.3247	64999.75	64103.05
894.735	1559.1074	65448.05	64549.5
894.8777	1560.8893	65297.9	64400.6
895.0204	1562.6705	65375.4	64476.75
895.163	1564.4509	65046.5	64148.25
895.3056	1566.2305	65231.35	64335.8
895.4482	1568.0094	65393.5	64496.65
895.5908	1569.7876	65250.4	64355.4
895.7334	1571.565	65013.5	64115.55
895.876	1573.3417	65166.1	64267.85
896.0186	1575.1176	65104.7	64206.9
896.1611	1576.8928	64964.8	64068.4
896.3036	1578.6672	64594.8	63697
896.4461	1580.4409	64831.25	63936.3
896.5886	1582.2138	64172.8	63275.5
896.7311	1583.986	64348.1	63450.6
896.8736	1585.7575	63707.65	62811.8
897.0161	1587.5282	63935.05	63039.1
897.1585	1589.2981	63941.65	63046
897.3009	1591.0673	63270.35	62373.2
897.4433	1592.8358	62737.15	61839.4
897.5857	1594.6035	63282.65	62383.25
897.7281	1596.3704	63347.25	62451.2
897.8705	1598.1366	62334.4	61437.25
898.0128	1599.9021	61810.3	60916.25
898.1551	1601.6668	62569.6	61671.35
898.2975	1603.4308	62101.15	61203.55
898.4398	1605.194	62294.05	61393.2
898.5821	1606.9564	61171.2	60277.15
898.7243	1608.7182	61752.35	60852.95
898.8666	1610.4791	61190.6	60294.9
899.0088	1612.2394	61701.45	60809.2
899.1511	1613.9988	61098.3	60205.1
899.2933	1615.7576	61819.5	60923.3
899.4355	1617.5156	61780.2	60879.3
899.5776	1619.2728	62636.75	61739.45
899.7198	1621.0293	61315.25	60420.2
899.862	1622.785	61354.4	60456.7
900.0041	1624.54	61781.7	60883.9
900.1462	1626.2942	61086.4	60190.95
900.2883	1628.0477	59983.5	59085.6
900.4304	1629.8005	59395.15	58496.9
900.5725	1631.5525	59983.4	59087
900.7145	1633.3037	58827.15	57932.25
900.8566	1635.0542	58713	57816.4
900.9986	1636.804	58999.2	58104.45
901.1406	1638.553	58159	57154.35
901.2826	1640.3013	58318.1	57423.05
901.4245	1642.0488	57661.55	56764.25
901.5665	1643.7955	57995.75	57101.1
901.7085	1645.5416	57555.45	56659.25
901.8504	1647.2868	57201.7	56305.65
901.9923	1649.0313	57792	56897.8
902.1342	1650.7751	57461.7	56562.7
902.2761	1652.5181	57090.25	56197.15
902.4179	1654.2604	57161.15	56265.6
902.5598	1656.0019	57682.95	56791.4
902.7016	1657.7427	57449.55	56556.05
902.8434	1659.4828	57956.85	57060.65
902.9852	1661.222	57718.1	56823.2
903.127	1662.9606	57948.35	57054.55
903.2687	1664.6984	57371.9	56476.35
903.4105	1666.4354	57339.05	56444.15
903.5522	1668.1717	56241.45	55346.25
903.6939	1669.9072	55572.75	54679.45
903.8356	1671.642	55223.2	54324.9
903.9773	1673.3761	54895.6	54001.05
904.119	1675.1094	54553.2	53658.3
904.2606	1676.8419	54109.25	53214.85
904.4022	1678.5737	53767.8	52873.5
904.5439	1680.3048	53555.1	52660.7
904.6855	1682.0351	53273	52377.95
904.827	1683.7646	52914.4	52015.6
904.9686	1685.4934	52849.7	51954.3
905.1101	1687.2215	52198.25	51302.8
905.2517	1688.9488	52395.1	51503.1
905.3932	1690.6754	51581.3	50688.5
905.5347	1692.4012	51742.15	50846.35
905.6761	1694.1263	51574.2	50678.65
905.8176	1695.8506	51336.4	50441.7
905.9591	1697.5742	51208.8	50313
906.1005	1699.297	50978.65	50085.4
906.2419	1701.0191	50699.85	49807.75
906.3833	1702.7404	50384.65	49490.2
906.5246	1704.461	50112.05	49215.7
906.666	1706.1808	50004.2	49108.55
906.8073	1707.8999	49894.65	48997.65
906.9487	1709.6182	49707.4	48812.75
907.09	1711.3358	49532.8	48639.5
907.2313	1713.0527	49285.65	48394.75
907.3725	1714.7688	49116.95	48217.1
907.5138	1716.4841	48829.45	47932.75
907.655	1718.1987	48815.3	47916.05
907.7962	1719.9126	48621.3	47728.45
907.9374	1721.6257	48460.45	47562.65
908.0786	1723.338	48385.55	47492.1
908.2198	1725.0496	47909.1	47014.15
908.3609	1726.7605	47849.85	46954.35
908.502	1728.4706	47718.65	46825
908.6431	1730.18	47390.25	46495.75
908.7842	1731.8886	47344.25	46448.65
908.9253	1733.5964	47184.9	46271.55
909.0664	1735.3036	47124.05	46225.6
909.2074	1737.0099	46915.75	46022.45
909.3484	1738.7156	46692.8	45801.65
909.4894	1740.4204	46535.55	45640.25
909.6304	1742.1246	46384.15	45488.75
909.7714	1743.8279	46311.5	45419.1
909.9123	1745.5306	46205.9	45312.9
910.0532	1747.2325	45931	45037.2
910.1941	1748.9336	45796.35	44905.45
910.335	1750.634	45568.55	44673.45
910.4759	1752.3336	45506.1	44612.45
910.6168	1754.0325	45446.25	44554.45
910.7576	1755.7307	45342.55	44449.95
910.8984	1757.4281	45273.8	44381.6
911.0392	1759.1247	45125.2	44223.3
911.18	1760.8206	44977.35	44081.45
911.3208	1762.5158	44949.05	44052.85
911.4615	1764.2102	44688.4	43796.9
911.6022	1765.9039	44536.45	43643.3
911.7429	1767.5968	44384.5	43492.05
911.8836	1769.289	44245.65	43352.75
912.0243	1770.9804	44127.05	43233.35
912.1649	1772.6711	44055.3	43161.3
912.3056	1774.361	43905.6	43011.55
912.4462	1776.0502	43829.8	42936.05
912.5868	1777.7386	43688.4	42794.2
912.7274	1779.4263	43515.6	42622.35
912.8679	1781.1132	43423.15	42529.25
913.0084	1782.7994	43300.6	42406.65
913.149	1784.4849	43198.05	42306.3
913.2895	1786.1696	43030.45	42131.25
913.4299	1787.8535	42860.4	41967.8
913.5704	1789.5367	42750.35	41857.15
913.7108	1791.2192	42702.75	41809.65
913.8513	1792.9009	42475.65	41552.5
913.9917	1794.5818	42373.3	41476.3
914.132	1796.2621	42210.35	41318.6
914.2724	1797.9415	42101.45	41209.6
914.4128	1799.6202	41936.65	41044
914.5531	1801.2982	41880.35	40987.35
914.6934	1802.9755	41741.3	40847.5
914.8337	1804.6519	41681.75	40789.05
914.9739	1806.3277	41512.8	40619.2
915.1142	1808.0027	41324.75	40432.7
915.2544	1809.6769	41283.65	40392.1
915.3946	1811.3504	41102.85	40209.55
915.5348	1813.0231	41025.2	40132.5
915.675	1814.6951	40975.7	40080.9
915.8151	1816.3664	40884.55	39990.75
915.9553	1818.0369	40780.7	39886.4
916.0954	1819.7067	40592.5	39701
916.2355	1821.3757	40540	39645.3
916.3755	1823.044	40403.7	39510.7
916.5156	1824.7115	40319.35	39426.25
916.6556	1826.3783	40060.75	39168.4
916.7956	1828.0443	39928.55	39036.6
916.9356	1829.7096	39876.05	38980.95
917.0756	1831.3741	39807.25	38909.8
917.2155	1833.0379	39721.2	38827.35
917.3555	1834.701	39557.45	38662.7
917.4954	1836.3633	39461.1	38567.6
917.6353	1838.0248	39306.6	38412.65
917.7751	1839.6856	39216	38322.35
917.915	1841.3457	39147.35	38253.5
918.0548	1843.005	39069.45	38176.85
918.1946	1844.6636	38989.3	38095.6
918.3344	1846.3214	38860.55	37968.6
918.4742	1847.9785	38813.05	37919.35
918.6139	1849.6349	38632.25	37739.3
918.7537	1851.2904	38522.7	37621.95
918.8934	1852.9453	38427.55	37532.75
919.0331	1854.5994	38297.45	37401.05
919.1727	1856.2528	38317.3	37418.85
919.3124	1857.9054	38168.35	37274.65
919.452	1859.5572	38146.7	37258
919.5916	1861.2083	37971.15	37078.25
919.7312	1862.8587	37925.3	37034.3
919.8708	1864.5084	37860.3	36964.5
920.0103	1866.1572	37736.25	36842.7
920.1498	1867.8054	37503.55	36609.7
920.2893	1869.4528	37449.4	36553.55
920.4288	1871.0994	37322.45	36427.35
920.5683	1872.7453	37197.6	36302.45
920.7077	1874.3905	37105.2	36206.75
920.8471	1876.0349	36982.25	36089
920.9865	1877.6786	37011.3	36117.75
921.1259	1879.3215	36893.2	36000.6
921.2653	1880.9637	36784.3	35891.4
921.4046	1882.6051	36714	35822.1
921.5439	1884.2458	36627.2	35732
921.6832	1885.8858	36427.2	35534.3
921.8225	1887.525	36370.1	35475.3
921.9617	1889.1634	36216.05	35323.4
922.101	1890.8011	36071.8	35177.15
922.2402	1892.4381	35988.75	35095.4
922.3794	1894.0743	35889.1	34998.1
922.5185	1895.7098	35825.85	34933.5
922.6577	1897.3446	35729.7	34835.95
922.7968	1898.9786	35602.5	34706
922.9359	1900.6118	35524.25	34632.25
923.075	1902.2443	35391.9	34497.55
923.214	1903.8761	35251.85	34358.8
923.3531	1905.5071	34969.4	34076.8
923.4921	1907.1374	34887.65	33992.75
923.6311	1908.7669	34839.2	33946.9
923.77	1910.3957	34795.9	33902.25
923.909	1912.0237	34544.45	33652.1
924.0479	1913.651	34508.35	33616.25
924.1868	1915.2776	34361.1	33470.8
924.3257	1916.9034	34201.6	33311.1
924.4646	1918.5285	34042.1	33150.6
924.6034	1920.1528	33850.9	32958.1
924.7422	1921.7764	33826.6	32933.35
924.881	1923.3992	33684.75	32793.95
925.0198	1925.0213	33440.45	32548.1
925.1586	1926.6427	33252.3	32359.5
925.2973	1928.2633	33326.05	32324.2
925.436	1929.8832	33151.3	32257.05
925.5747	1931.5023	32955.9	32062.55
925.7134	1933.1207	32883.65	31991.3
925.852	1934.7383	32824.2	31931.2
925.9906	1936.3552	32675.2	31784.65
926.1292	1937.9714	32650.9	31760.3
926.2678	1939.5868	32410.45	31515.15
926.4064	1941.2015	32283.85	31390.9
926.5449	1942.8154	32187.05	31293.3
926.6834	1944.4286	32014.4	31121.65
926.8219	1946.041	31897.4	30985.95
926.9604	1947.6528	31685.25	30785.35
927.0988	1949.2637	31636.95	30744.9
927.2372	1950.8739	31484.3	30593.1
927.3756	1952.4834	31416.8	30524.4
927.514	1954.0921	31342.55	30449.5
927.6523	1955.7001	31216.75	30319.45
927.7907	1957.3074	31104.95	30212.9
927.929	1958.9139	30929.9	30038.55
928.0673	1960.5197	30848.3	29954.4
928.2055	1962.1247	30755.9	29862.5
928.3438	1963.729	30527.85	29637.1
928.482	1965.3325	30448.45	29532.75
928.6202	1966.9353	30317.8	29427.4
928.7584	1968.5374	30234.4	29342.4
928.8965	1970.1387	30105.3	29212.75
929.0346	1971.7393	29981.7	29087.9
929.1727	1973.3392	29903.95	29011.9
929.3108	1974.9383	29772.25	28881.6
929.4489	1976.5366	29639.65	28749.55
929.5869	1978.1342	29610.4	28718.6
929.7249	1979.7311	29535.25	28643.75
929.8629	1981.3273	29430.8	28538.15
930.0009	1982.9227	29336.25	28441.85
930.1388	1984.5173	29196.5	28304.25
930.2767	1986.1112	29069.65	28178.85
930.4146	1987.7044	29004.35	28114.2
930.5525	1989.2968	28896.35	28003.6
930.6904	1990.8885	28834.45	27939.35
930.8282	1992.4795	28747.45	27854.35
930.966	1994.0697	28609.8	27717.4
931.1038	1995.6592	28506.35	27614.85
931.2415	1997.2479	28381.65	27490.65
931.3793	1998.8359	28310.45	27419.4
931.517	2000.4232	28178.95	27286.45
931.6547	2002.0097	28092.65	27202.75
931.7923	2003.5955	27899.05	27007.7
931.93	2005.1805	27918.75	27023.65
932.0676	2006.7648	27787.45	26896
932.2052	2008.3484	27677.75	26784.15
932.3427	2009.9312	27701.9	26808.9
932.4803	2011.5133	27577.25	26686.45
932.6178	2013.0946	27441.1	26551.05
932.7553	2014.6752	27377.95	26489.15
932.8928	2016.2551	27328.9	26436.15
933.0302	2017.8342	27158.8	26267.3
933.1676	2019.4126	27037.05	26146.15
933.305	2020.9902	26953.3	26062.8
933.4424	2022.5672	26934.8	26041.85
933.5798	2024.1433	26831.75	25933.1
933.7171	2025.7188	26692.4	25803.05
933.8544	2027.2935	26646.65	25754.5
933.9917	2028.8674	26523.35	25632.25
934.129	2030.4406	26464.9	25573.5
934.2662	2032.0131	26297.9	25407.8
934.4034	2033.5849	26218.9	25319.6
934.5406	2035.1559	26164.85	25272.05
934.6778	2036.7261	26105	25213.95
934.8149	2038.2957	26032.15	25140
934.952	2039.8645	25957.5	25066.55
935.0891	2041.4325	25933	25038.1
935.2262	2042.9998	25781.9	24890.95
935.3632	2044.5664	25683.7	24790.35
935.5002	2046.1323	25652.6	24762.8
935.6372	2047.6974	25562.6	24672.9
935.7742	2049.2617	25524.7	24634.95
935.9111	2050.8254	25425.9	24513.45
936.048	2052.3883	25352.3	24455.9
936.1849	2053.9504	25283.85	24391.5
936.3218	2055.5118	25176.9	24284.2
936.4586	2057.0725	25060.25	24166.7
936.5955	2058.6325	25054.05	24165.2
936.7323	2060.1917	24961.1	24068.95
936.869	2061.7502	24887.3	23993.5
937.0058	2063.3079	24761.2	23869
937.1425	2064.8649	24683.7	23789.15
937.2792	2066.4212	24602.25	23710.45
937.4159	2067.9767	24552.85	23662.45
937.5525	2069.5315	24423.85	23534.1
937.6891	2071.0856	24331.2	23438.95
937.8257	2072.6389	24198.5	23305.25
937.9623	2074.1915	24062	23172.95
938.0989	2075.7433	23965.1	23071.8
938.2354	2077.2945	23932.7	23042.15
938.3719	2078.8448	23845.05	22954.55
938.5084	2080.3945	23712.65	22820.65
938.6448	2081.9434	23699.15	22807.85
938.7812	2083.4916	23599.7	22708.65
938.9176	2085.039	23513.65	22622.05
939.054	2086.5857	23470.35	22577.45
939.1903	2088.1317	23408.5	22515.15
939.3267	2089.677	23318.05	22425.8
939.463	2091.2215	23239.1	22347.1
939.5992	2092.7652	23173.55	22279.35
939.7355	2094.3083	23125.3	22233.2
939.8717	2095.8506	23072.05	22181.25
940.0079	2097.3921	23042.5	22151.65
940.1441	2098.933	22921.1	22028.85
940.2802	2100.4731	22881.6	21989.65
940.4163	2102.0124	22821.25	21923.4
940.5524	2103.5511	22756.6	21862.85
940.6885	2105.089	22706.05	21814.8
940.8245	2106.6261	22647.2	21754.65
940.9606	2108.1626	22558.45	21666.3
941.0965	2109.6983	22535.1	21615.2
941.2325	2111.2332	22435.4	21543.4
941.3684	2112.7675	22325	21433.4
941.5044	2114.301	22295.25	21401.2
941.6403	2115.8337	22250.4	21358.15
941.7761	2117.3657	22169.75	21278.15
941.912	2118.897	22103.45	21212.25
942.0478	2120.4276	22046.05	21149.05
942.1835	2121.9575	21954.25	21061.5
942.3193	2123.4866	21948.1	21042.7
942.455	2125.0149	21868.55	20973.8
942.5907	2126.5426	21685.55	20793.15
942.7264	2128.0695	21641.65	20746.9
942.8621	2129.5956	21582.4	20691.1
942.9977	2131.1211	21534	20637.7
943.1333	2132.6458	21501.65	20610.9
943.2689	2134.1698	21450.65	20558.6
943.4044	2135.693	21375.2	20481.4
943.54	2137.2155	21323.6	20428.95
943.6755	2138.7373	21273.25	20382.15
943.8109	2140.2584	21152.45	20260.65
943.9464	2141.7787	21093.15	20196.7
944.0818	2143.2983	20984.6	20093.45
944.2172	2144.8171	20879.3	19990.15
944.3526	2146.3353	20831.55	19937.95
944.4879	2147.8527	20698.6	19809.75
944.6232	2149.3693	20735.7	19842.8
944.7585	2150.8853	20652.6	19759.15
944.8938	2152.4005	20521.4	19628.2
945.029	2153.9149	20502.45	19610.55
945.1642	2155.4287	20439.35	19548.6
945.2994	2156.9417	20422.45	19528.9
945.4346	2158.454	20310.15	19415.45
945.5697	2159.9655	20227.5	19336.15
945.7048	2161.4764	20227.55	19334.8
945.8399	2162.9865	20135.45	19244.45
945.9749	2164.4958	20095	19203.3
946.1099	2166.0045	19992.75	19097
946.2449	2167.5124	19985.6	19095.15
946.3799	2169.0195	19911.6	19019.95
946.5148	2170.526	19863.1	18969.95
946.6498	2172.0317	19794.25	18901.3
946.7846	2173.5367	19744.85	18850.7
946.9195	2175.0409	19703.95	18812.05
947.0543	2176.5445	19676.35	18784.85
947.1891	2178.0473	19558.55	18667.45
947.3239	2179.5494	19479.05	18583.25
947.4587	2181.0507	19392.65	18499.35
947.5934	2182.5513	19364.35	18474.3
947.7281	2184.0512	19315.65	18422.9
947.8628	2185.5504	19202.65	18311.85
947.9974	2187.0488	19112.85	18220.65
948.132	2188.5465	19068.1	18175.85
948.2666	2190.0435	18989.45	18097.55
948.4012	2191.5397	18900.55	18007.95
948.5357	2193.0353	18866.5	17975.8
948.6702	2194.5301	18752.35	17857.45
948.8047	2196.0241	18692	17798.85
948.9392	2197.5175	18618.55	17725.75
949.0736	2199.0101	18556.2	17659.1
949.208	2200.502	18463.55	17571.75
949.3424	2201.9931	18393.55	17502.65
949.4767	2203.4835	18325.5	17431
949.611	2204.9733	18274.5	17378.55
949.7453	2206.4622	18257.8	17364.2
949.8796	2207.9505	18139.4	17243.8
950.0138	2209.438	18043.95	17153.55
950.148	2210.9248	17994.7	17102.3
950.2822	2212.4109	17932.6	17040.8
950.4164	2213.8962	17858.25	16962.8
950.5505	2215.3809	17828.3	16934.2
950.6846	2216.8648	17793.05	16900.4
950.8186	2218.3479	17728.35	16830
950.9527	2219.8304	17639.2	16743.85
951.0867	2221.3121	17590.85	16697.4
951.2207	2222.7931	17514.4	16622.75
951.3546	2224.2733	17426.9	16534.4
951.4886	2225.7529	17373.9	16480.55
951.6225	2227.2317	17335.85	16441.85
951.7563	2228.7098	17290.3	16397.45
951.8902	2230.1872	17169.15	16275.8
952.024	2231.6638	17155.25	16264.25
952.1578	2233.1397	17077.8	16178.35
952.2916	2234.6149	17049.3	16158
952.4253	2236.0894	16963.6	16072.25
952.559	2237.5632	16951.75	16048.4
952.6927	2239.0362	16840.45	15946.3
952.8263	2240.5085	16757.55	15864.45
952.9599	2241.9801	16710.3	15818.3
953.0935	2243.4509	16679.7	15786.55
953.2271	2244.921	16616.1	15723.6
953.3606	2246.3904	16529.3	15634.8
953.4941	2247.8591	16484.35	15590.75
953.6276	2249.3271	16443.25	15550.3
953.7611	2250.7943	16380.8	15487.2
953.8945	2252.2608	16325.6	15432.6
954.0279	2253.7266	16274.15	15384.15
954.1612	2255.1917	16234.85	15341.65
954.2946	2256.656	16124.9	15233.65
954.4279	2258.1197	16078.25	15186.55
954.5612	2259.5826	16041.2	15146.4
954.6944	2261.0447	16018.7	15126.5
954.8276	2262.5062	15937.75	15044.7
954.9608	2263.9669	15947.35	15052.8
955.094	2265.4269	15874.1	14984.2
955.2271	2266.8862	15809.25	14915.45
955.3602	2268.3448	15788.45	14897.65
955.4933	2269.8026	15714.2	14821.65
955.6264	2271.2598	15640.1	14748.2
955.7594	2272.7162	15614.65	14723.85
955.8924	2274.1719	15565.45	14672.45
956.0253	2275.6268	15496	14602.6
956.1583	2277.0811	15467.4	14572.75
956.2912	2278.5346	15448.9	14556.3
956.4241	2279.9874	15393.55	14502.1
956.5569	2281.4395	15344.15	14451.95
956.6897	2282.8908	15278.45	14380.9
956.8225	2284.3414	15288.45	14394.6
956.9553	2285.7914	15214.7	14321.9
957.088	2287.2406	15133.5	14239.15
957.2207	2288.689	15106.35	14214.4
957.3534	2290.1368	15051.2	14156.55
957.486	2291.5838	14996.7	14102.7
957.6186	2293.0302	14960.8	14067.35
957.7512	2294.4758	14865.05	13974.2
957.8838	2295.9206	14817.75	13923.55
958.0163	2297.3648	14789.9	13896.4
958.1488	2298.8082	14756.75	13863.6
958.2813	2300.251	14693.9	13800.45
958.4137	2301.693	14668.35	13775.1
958.5461	2303.1343	14619.55	13725.85
958.6785	2304.5748	14595.6	13703.5
958.8108	2306.0147	14527.15	13634.75
958.9432	2307.4538	14491.55	13596.5
959.0754	2308.8922	14423.3	13530.8
959.2077	2310.3299	14381.05	13488.9
959.3399	2311.7669	14323.9	13430.45
959.4721	2313.2031	14256.6	13364.15
959.6043	2314.6387	14211.6	13318.25
959.7365	2316.0735	14175.05	13283.65
959.8686	2317.5076	14126.8	13233.55
960.0006	2318.941	14108	13216.8
960.1327	2320.3737	14060.15	13167.35
960.2647	2321.8056	14003.2	13109.6
960.3967	2323.2369	13966.9	13071.5
960.5287	2324.6674	13923.4	13028.65
960.6606	2326.0972	13866.05	12971.9
960.7925	2327.5263	13797.7	12904.9
960.9244	2328.9547	13731.1	12837.65
961.0562	2330.3823	13717.7	12823.85
961.1881	2331.8092	13685.65	12790.6
961.3198	2333.2355	13602.55	12710.3
961.4516	2334.661	13574.7	12682.75
961.5833	2336.0858	13575.35	12681.35
961.715	2337.5098	13523.9	12630.65
961.8467	2338.9332	13496.5	12604.6
961.9783	2340.3558	13426.4	12530.6
962.1099	2341.7778	13378.2	12485.85
962.2415	2343.199	13348.3	12454.45
962.373	2344.6195	13281.65	12389.4
962.5045	2346.0393	13247.95	12355.35
962.636	2347.4583	13250.35	12356.35
962.7675	2348.8767	13147.4	12252.7
962.8989	2350.2943	13129.85	12237.95
963.0303	2351.7113	13130.1	12237.25
963.1617	2353.1275	13077.45	12184.9
963.293	2354.543	13032.7	12117.25
963.4243	2355.9578	12961.9	12070.7
963.5556	2357.3718	12874.15	11982.5
963.6868	2358.7852	12807.45	11912.95
963.818	2360.1978	12758.85	11864.95
963.9492	2361.6098	12755.8	11864.55
964.0803	2363.021	12702.5	11808.1
964.2114	2364.4315	12660.3	11767
964.3425	2365.8413	12626.15	11729.25
964.4736	2367.2504	12577.4	11685.15
964.6046	2368.6587	12518.35	11626.3
964.7356	2370.0664	12469.2	11576.65
964.8666	2371.4733	12429.75	11535.35
964.9975	2372.8795	12404.35	11512.8
965.1284	2374.285	12316.55	11425.95
965.2593	2375.6899	12278.55	11387.85
965.3901	2377.0939	12183.2	11290.2
965.5209	2378.4973	12151.5	11261.5
965.6517	2379.9	12105.85	11212.4
965.7825	2381.3019	12056.75	11164.15
965.9132	2382.7032	12038.5	11147.2
966.0439	2384.1037	11990.15	11100.15
966.1745	2385.5035	11958.4	11068.3
966.3051	2386.9027	11903.3	11011.05
966.4357	2388.3011	11900.45	11007.3
966.5663	2389.6987	11863.1	10971.35
966.6968	2391.0957	11787.85	10898
966.8273	2392.492	11721.2	10831.9
966.9578	2393.8876	11676	10784
967.0882	2395.2824	11620.9	10728.7
967.2186	2396.6765	11585.5	10694.95
967.349	2398.07	11510.05	10619.35
967.4793	2399.4627	11516.55	10623.75
967.6097	2400.8547	11456.65	10565.85
967.7399	2402.246	11404.05	10506.8
967.8702	2403.6366	11343.15	10451.3
968.0004	2405.0265	11302.35	10411.05
968.1306	2406.4156	11285.15	10389.05
968.2607	2407.8041	11231.35	10336.5
968.3909	2409.1918	11171.8	10277.8
968.521	2410.5789	11142.65	10251.55
968.651	2411.9652	11098.15	10203.35
968.781	2413.3508	11057.85	10165.15
968.911	2414.7358	11003.7	10112.6
969.041	2416.12	10958.05	10067.45
969.1709	2417.5035	10920.9	10029.65
969.3008	2418.8863	10899.1	10005.8
969.4307	2420.2684	10877.4	9985.55
969.5606	2421.6497	10804.5	9911.4
969.6904	2423.0304	10715.3	9825.5
969.8201	2424.4104	10723.15	9831.95
969.9499	2425.7896	10682.6	9785.6
970.0796	2427.1682	10660	9768.85
970.2093	2428.546	10638.1	9744.15
970.3389	2429.9232	10567.85	9675.35
970.4685	2431.2996	10568.75	9677.65
970.5981	2432.6753	10536.9	9644.2
970.7277	2434.0503	10475.65	9581.45
970.8572	2435.4246	10451.95	9562.15
970.9867	2436.7982	10415.7	9521.85
971.1161	2438.1711	10385.4	9493.15
971.2456	2439.5433	10339.5	9446.8
971.375	2440.9148	10287.85	9395.75
971.5043	2442.2856	10262.45	9370.5
971.6336	2443.6557	10227.7	9334.7
971.7629	2445.025	10188.4	9296.55
971.8922	2446.3937	10151.2	9260.1
972.0214	2447.7617	10117.25	9224.95
972.1506	2449.1289	10099.5	9207.7
972.2798	2450.4955	10075.9	9181.8
972.4089	2451.8613	10046.6	9154.4
972.538	2453.2265	10006.15	9115.85
972.6671	2454.5909	9984.65	9091.3
972.7961	2455.9546	9928.9	9036
972.9251	2457.3177	9900.55	9008.1
973.0541	2458.68	9888.05	8995.5
973.1831	2460.0416	9891.9	9001
973.312	2461.4025	9857.8	8964.45
973.4408	2462.7627	9835.2	8931.5
973.5697	2464.1222	9779.05	8887.65
973.6985	2465.4811	9737.05	8844.1
973.8273	2466.8392	9728.3	8836.05
973.956	2468.1966	9719.75	8827
974.0847	2469.5533	9673.25	8780
974.2134	2470.9093	9650.75	8758.5
974.3421	2472.2645	9602.95	8707.5
974.4707	2473.6191	9587.45	8697.05
974.5993	2474.973	9521.75	8631.5
974.7278	2476.3262	9506.45	8613.7
974.8563	2477.6787	9469.95	8578.65
974.9848	2479.0305	9415.2	8525.05
975.1132	2480.3816	9391.8	8496.85
975.2417	2481.7319	9371.95	8482.9
975.37	2483.0816	9333.1	8440.2
975.4984	2484.4306	9287.4	8395.65
975.6267	2485.7789	9247.05	8356.45
975.755	2487.1264	9196.75	8301.75
975.8833	2488.4733	9176.15	8287
976.0115	2489.8195	9148	8249.65
976.1397	2491.165	9096	8198.3
976.2678	2492.5097	9081.7	8187.45
976.3959	2493.8538	9039.4	8146.85
976.524	2495.1972	8974.15	8082.95
976.6521	2496.5398	8944.45	8050.9
976.7801	2497.8818	8941.05	8047.3
976.9081	2499.2231	8908.05	8017.4
977.036	2500.5637	8865.55	7972.1
977.164	2501.9035	8837.1	7944.25
977.2918	2503.2427	8802.35	7905.4
977.4197	2504.5812	8784.5	7890.55
977.5475	2505.919	8786	7890.95
977.6753	2507.256	8743	7850.95
977.8031	2508.5924	8685.4	7793.65
977.9308	2509.9281	8670.7	7772.7
978.0585	2511.2631	8657.55	7766.8
978.1861	2512.5974	8621.25	7730.3
978.3137	2513.9309	8588.65	7697.2
978.4413	2515.2638	8569.4	7641.55
978.5689	2516.596	8532.75	7640.95
978.6964	2517.9275	8455.25	7560.9
978.8239	2519.2583	8455.35	7563.65
978.9513	2520.5884	8436.95	7541.3
979.0788	2521.9178	8401.2	7507.2
979.2062	2523.2465	8342.45	7452.7
979.3335	2524.5745	8305.9	7414.15
979.4608	2525.9018	8263.5	7371.35
979.5881	2527.2284	8252.45	7361.4
979.7154	2528.5543	8222.6	7332.9
979.8426	2529.8796	8216.7	7326.2
979.9698	2531.2041	8201.25	7308.95
980.0969	2532.5279	8186.55	7296.65
980.224	2533.851	8169.1	7276.25
980.3511	2535.1735	8149.05	7256.3
980.4781	2536.4952	8130.55	7237.75
980.6052	2537.8163	8092.35	7200.35
980.7321	2539.1366	8063.7	7173
980.8591	2540.4562	8050.95	7159.65
980.986	2541.7752	8012.25	7119.25
981.1129	2543.0935	8027.45	7134.85
981.2397	2544.411	7992.3	7099.85
981.3665	2545.7279	7964.65	7071.35
981.4933	2547.0441	7967.95	7076.1
981.62	2548.3596	7952.2	7055.35
981.7467	2549.6744	7917.5	7026.1
981.8734	2550.9885	7883.1	6989.15
982.0001	2552.3019	7852.65	6960.85
982.1267	2553.6146	7851.85	6961.6
982.2532	2554.9266	7813.95	6918.45
982.3798	2556.2379	7770.4	6876.3
982.5063	2557.5485	7790.6	6901.55
982.6327	2558.8585	7751.95	6851.35
982.7592	2560.1677	7736.95	6841.95
982.8856	2561.4762	7706.05	6813.75
983.0119	2562.7841	7683.65	6788.1
983.1383	2564.0913	7684.3	6793.95
983.2646	2565.3977	7659.85	6768.2
983.3908	2566.7035	7642.15	6749.25
983.517	2568.0086	7631.8	6737.3
983.6432	2569.313	7600.35	6706.95
983.7694	2570.6167	7577.85	6681.55
983.8955	2571.9197	7557.25	6664.35
984.0216	2573.222	7569.05	6672.95
984.1476	2574.5236	7537.65	6645.35
984.2737	2575.8246	7520.9	6624.8
984.3996	2577.1248	7506.1	6611.2
984.5256	2578.4244	7497.85	6606.6
984.6515	2579.7232	7454.1	6562.75
984.7774	2581.0214	7466.85	6548.45
984.9032	2582.3189	7433.65	6541.8
985.029	2583.6157	7434.1	6537.55
985.1548	2584.9118	7406.1	6513.3
985.2806	2586.2072	7374.1	6482.65
985.4063	2587.5019	7370.5	6476.45
985.5319	2588.7959	7338.25	6444.75
985.6576	2590.0893	7340.8	6447.85
985.7832	2591.3819	7308.05	6416.2
985.9087	2592.6739	7269	6377.8
986.0343	2593.9652	7258.9	6365.7
986.1597	2595.2557	7231.85	6339.6
986.2852	2596.5456	7211.75	6317.6
986.4106	2597.8348	7189.6	6299.65
986.536	2599.1234	7150.55	6259.5
986.6614	2600.4112	7120.35	6228.7
986.7867	2601.6983	7128.75	6234.25
986.912	2602.9848	7104	6211
987.0372	2604.2705	7061.55	6163.25
987.1624	2605.5556	7027.3	6135.7
987.2876	2606.84	7011.4	6121.25
987.4128	2608.1237	6976.3	6084.85
987.5379	2609.4067	6950.25	6056.8
987.6629	2610.689	6949.1	6047.45
987.788	2611.9707	6927.45	6033
987.913	2613.2516	6884.35	5988.55
988.0379	2614.5319	6850.45	5957.4
988.1629	2615.8115	6818.1	5926.65
988.2878	2617.0903	6801.3	5906.8
988.4126	2618.3685	6779.75	5887.9
988.5375	2619.6461	6755	5864
988.6622	2620.9229	6745.55	5853.45
988.787	2622.199	6726.4	5831.5
988.9117	2623.4745	6702.65	5809.7
989.0364	2624.7493	6673.15	5778.15
989.161	2626.0234	6678.4	5787.75
989.2857	2627.2968	6638.05	5746.6
989.4102	2628.5695	6611.75	5717.25
989.5348	2629.8415	6578.5	5687.15
989.6593	2631.1128	6581.9	5687.2
989.7837	2632.3835	6533.35	5638.95
989.9082	2633.6535	6509.25	5617.5
990.0326	2634.9228	6489.3	5597.3
990.1569	2636.1914	6471	5578.4
990.2812	2637.4593	6458.55	5559.5
990.4055	2638.7265	6417	5524.2
990.5298	2639.9931	6388.6	5494.75
990.654	2641.259	6373.15	5480.7
990.7782	2642.5242	6355.5	5463.55
990.9023	2643.7887	6351.85	5459.35
991.0264	2645.0525	6346.7	5456.1
991.1505	2646.3156	6303.7	5410.6
991.2745	2647.5781	6279.25	5387.9
991.3985	2648.8398	6254.7	5363.15
991.5225	2650.1009	6251.4	5351.4
991.6464	2651.3613	6216.85	5323.65
991.7703	2652.6211	6213.75	5321.4
991.8942	2653.8801	6173.2	5280.8
992.018	2655.1385	6150.15	5256.1
992.1418	2656.3961	6165.55	5272.9
992.2655	2657.6531	6148.85	5257.3
992.3892	2658.9094	6123.2	5229.85
992.5129	2660.1651	6107.45	5217.5
992.6366	2661.42	6090.2	5197.6
992.7602	2662.6743	6062.35	5169.45
992.8837	2663.9279	6063.5	5171.7
993.0073	2665.1808	6045.65	5152.05
993.1307	2666.433	6027.75	5133.2
993.2542	2667.6846	6014.6	5121.9
993.3776	2668.9354	5995	5098.2
993.501	2670.1856	5961.05	5068
993.6244	2671.4351	5950.9	5059.9
993.7477	2672.6839	5942.2	5047.7
993.8709	2673.9321	5933.15	5042.3
993.9942	2675.1795	5916.75	5023.4
994.1174	2676.4263	5878	4985.2
994.2405	2677.6724	5882.6	4989.6
994.3637	2678.9179	5874.2	4980.95
994.4868	2680.1626	5842.65	4951.3
994.6098	2681.4067	5844.25	4950.9
994.7328	2682.6501	5826.55	4935.3
994.8558	2683.8928	5795.9	4904.5
994.9788	2685.1348	5763.35	4871.5
995.1017	2686.3761	5733.1	4840.15
995.2245	2687.6168	5732.55	4840.65
995.3474	2688.8568	5717.1	4824.95
995.4702	2690.0961	5709.6	4819.5
995.5929	2691.3348	5674.75	4781.5
995.7156	2692.5727	5659.1	4765.05
995.8383	2693.81	5633.6	4740.55
995.961	2695.0466	5618.9	4726.65
996.0836	2696.2826	5613.3	4720.05
996.2062	2697.5178	5591.6	4697.6
996.3287	2698.7524	5583.8	4691.3
996.4512	2699.9863	5574.2	4679.25
996.5737	2701.2195	5543.1	4652.75
996.6961	2702.452	5543.2	4649.55
996.8185	2703.6839	5514.75	4620.05
996.9408	2704.9151	5500.9	4610.25
997.0631	2706.1456	5486.95	4595.15
997.1854	2707.3755	5480.6	4587.7
997.3077	2708.6046	5477.1	4584.4
997.4299	2709.8331	5458.75	4567
997.552	2711.0609	5446.35	4553.6
997.6742	2712.2881	5429.6	4537.35
997.7963	2713.5145	5407.95	4514.45
997.9183	2714.7403	5392.6	4501.45
998.0403	2715.9654	5404.35	4509.55
998.1623	2717.1899	5414.6	4508
998.2842	2718.4136	5386.6	4494.25
998.4062	2719.6367	5395.2	4501.75
998.528	2720.8591	5384.75	4484.55
998.6498	2722.0809	5373.45	4479.4
998.7716	2723.3019	5366.9	4472.05
998.8934	2724.5223	5373.25	4481.15
999.0151	2725.7421	5335.85	4442.55
999.1368	2726.9611	5321.05	4427.8
999.2584	2728.1795	5305.1	4406.9
999.38	2729.3972	5277.2	4384.8
999.5016	2730.6142	5257.7	4356.3
999.6231	2731.8306	5217.65	4323.75
999.7446	2733.0462	5210.55	4316.9
999.8661	2734.2612	5155.35	4259.2
999.9875	2735.4756	5132.5	4237.75
1000.1089	2736.6892	5092.25	4200.05
1000.2302	2737.9022	5067.75	4175.8
1000.3515	2739.1145	5034.4	4143.25
1000.4728	2740.3262	5020.5	4120.05
1000.594	2741.5372	4973.75	4083.5
1000.7152	2742.7475	4947.5	4054.75
1000.8363	2743.9571	4938.95	4046.3
1000.9575	2745.1661	4908.45	4012.5
1001.0785	2746.3744	4886.6	3993.9
1001.1996	2747.582	4852.3	3960.65
1001.3206	2748.7889	4843.8	3949.2
1001.4415	2749.9952	4826.4	3935.8
1001.5625	2751.2008	4814.1	3922.05
1001.6833	2752.4057	4811.85	3916.75
1001.8042	2753.61	4785.5	3893.35
1001.925	2754.8136	4754.1	3860.65
1002.0458	2756.0165	4733.1	3839.6
1002.1665	2757.2188	4718.1	3827.1
1002.2872	2758.4204	4705.45	3812.75
1002.4078	2759.6213	4703.9	3808.15
1002.5285	2760.8215	4695.3	3796.9
1002.649	2762.0211	4663.7	3770.3
1002.7696	2763.22	4654.4	3758.6
1002.8901	2764.4182	4649.75	3755.45
1003.0106	2765.6158	4638.45	3747.3
1003.131	2766.8127	4611.25	3720.3
1003.2514	2768.009	4592.7	3702.1
1003.3717	2769.2045	4584.8	3691.7
1003.492	2770.3994	4576.4	3680.25
1003.6123	2771.5936	4571.65	3677.1
1003.7325	2772.7872	4546.75	3653.65
1003.8527	2773.9801	4508.65	3615.1
1003.9729	2775.1723	4516.55	3608.8
1004.093	2776.3639	4492.95	3600.3
1004.2131	2777.5548	4480.55	3586.9
1004.3331	2778.745	4457.55	3563.85
1004.4531	2779.9346	4454.15	3563.1
1004.5731	2781.1235	4439.85	3545.95
1004.693	2782.3117	4425.85	3534.3
1004.8129	2783.4992	4410.35	3518
1004.9328	2784.6861	4414.2	3520
1005.0526	2785.8723	4408.7	3513.5
1005.1723	2787.0579	4399.75	3508.05
1005.2921	2788.2428	4401.4	3508.95
1005.4118	2789.427	4393.5	3500.2
1005.5314	2790.6106	4383.8	3491.35
1005.651	2791.7935	4382.15	3488.6
1005.7706	2792.9757	4379.65	3488.5
1005.8902	2794.1573	4370.6	3475.85
1006.0097	2795.3382	4386.2	3493.35
1006.1291	2796.5184	4371.25	3480.8
1006.2485	2797.698	4378.45	3483.15
1006.3679	2798.8769	4398.15	3507.5
1006.4873	2800.0551	4371.9	3479.45
1006.6066	2801.2327	4384.35	3489.9
1006.7258	2802.4096	4395.65	3506.1
1006.8451	2803.5859	4384.5	3492.8
1006.9642	2804.7615	4406.85	3513.55
1007.0834	2805.9364	4421.1	3528.45
1007.2025	2807.1106	4433.1	3541.95
1007.3216	2808.2842	4462.45	3570.3
1007.4406	2809.4572	4488.95	3596.9
1007.5596	2810.6294	4490.8	3596.15
1007.6785	2811.801	4527.75	3636.75
1007.7975	2812.972	4576.15	3684.7
1007.9163	2814.1423	4593	3701.8
1008.0352	2815.3119	4623.6	3731.75
1008.154	2816.4808	4667.05	3774.35
1008.2727	2817.6491	4703.8	3812.3
1008.3914	2818.8167	4747.15	3857.15
1008.5101	2819.9837	4784.35	3889.1
1008.6288	2821.15	4811.15	3917.7
1008.7474	2822.3157	4845.15	3955.15
1008.8659	2823.4807	4869.85	3976.8
1008.9844	2824.645	4907.4	4014.4
1009.1029	2825.8086	4961.95	4070.6
1009.2214	2826.9716	4980.1	4087.55
1009.3398	2828.134	5021.85	4132.35
1009.4581	2829.2957	5038.35	4145.95
1009.5764	2830.4567	5047.5	4156.55
1009.6947	2831.617	5067.8	4175.3
1009.813	2832.7767	5061.75	4170.7
1009.9312	2833.9358	5070.65	4179.1
1010.0493	2835.0941	5029.5	4134.85
1010.1675	2836.2519	5024.2	4131.6
1010.2855	2837.4089	5016.7	4122.95
1010.4036	2838.5653	4984.5	4093.05
1010.5216	2839.7211	4982.25	4091.9
1010.6396	2840.8761	5002.4	4108.9
1010.7575	2842.0306	5003.2	4112.5
1010.8754	2843.1843	5035.95	4144.65
1010.9932	2844.3374	5083.05	4190.7
1011.111	2845.4899	5125.95	4230.6
1011.2288	2846.6417	5188.8	4297.6
1011.3465	2847.7928	5245.55	4354.5
1011.4642	2848.9433	5315.85	4426.35
1011.5818	2850.0931	5404.2	4514.65
1011.6995	2851.2422	5487.3	4593.35
1011.817	2852.3907	5545.35	4652.9
1011.9345	2853.5385	5618.15	4724
1012.052	2854.6857	5671.05	4752.2
1012.1695	2855.8323	5687.9	4796.15
1012.2869	2856.9781	5742.4	4849.75
1012.4042	2858.1233	5791.2	4898.75
1012.5216	2859.2679	5800.05	4909.25
1012.6389	2860.4118	5848.95	4955.5
1012.7561	2861.555	5870.45	4976.25
1012.8733	2862.6976	5899.8	5005.25
1012.9905	2863.8395	5910.55	5016.85
1013.1076	2864.9808	5928.05	5035.05
1013.2247	2866.1214	5934.55	5045.8
1013.3417	2867.2614	5930.95	5039.2
1013.4587	2868.4007	5922.15	5026.85
1013.5757	2869.5393	5922.95	5026.75
1013.6926	2870.6773	5925.15	5030.45
1013.8095	2871.8146	5937.85	5044
1013.9263	2872.9513	5925.25	5031.3
1014.0431	2874.0874	5919.75	5027.1
1014.1599	2875.2227	5900.3	5008.15
1014.2766	2876.3574	5862.85	4970.7
1014.3933	2877.4915	5838.45	4948.3
1014.51	2878.6249	5803.35	4913.25
1014.6266	2879.7577	5777.15	4884.35
1014.7431	2880.8898	5750.2	4848.1
1014.8596	2882.0212	5702.3	4809.75
1014.9761	2883.152	5686.5	4796.05
1015.0925	2884.2821	5689.1	4798.65
1015.2089	2885.4116	5638.05	4747.45
1015.3253	2886.5405	5631	4739
1015.4416	2887.6686	5628.95	4734.55
1015.5579	2888.7962	5623.65	4733.7
1015.6741	2889.923	5616.6	4725
1015.7903	2891.0493	5625.55	4734.75
1015.9065	2892.1748	5630.7	4737.75
1016.0226	2893.2997	5623.1	4730.5
1016.1387	2894.424	5641.5	4750.45
1016.2547	2895.5476	5650.95	4760.35
1016.3707	2896.6706	5666.65	4776.1
1016.4866	2897.7929	5682.85	4791
1016.6025	2898.9145	5706.75	4816.35
1016.7184	2900.0355	5725.05	4832.85
1016.8342	2901.1559	5744.55	4851.75
1016.95	2902.2756	5768.7	4870.45
1017.0658	2903.3946	5801.3	4910.5
1017.1815	2904.513	5817.95	4922.45
1017.2971	2905.6308	5829.8	4938.65
1017.4127	2906.7479	5842.25	4950.25
1017.5283	2907.8643	5855.2	4962.7
1017.6439	2908.9801	5856.6	4965.75
1017.7594	2910.0953	5860.3	4968.25
1017.8748	2911.2098	5853.2	4959
1017.9902	2912.3236	5837.15	4936.7
1018.1056	2913.4368	5824.75	4931.05
1018.2209	2914.5494	5789.35	4897.5
1018.3362	2915.6613	5757	4858.5
1018.4515	2916.7725	5701	4806.9
1018.5667	2917.8831	5677.15	4782.65
1018.6819	2918.9931	5639.9	4743.05
1018.797	2920.1024	5605.75	4713.05
1018.9121	2921.211	5588.45	4697.05
1019.0271	2922.319	5555.4	4661.6
1019.1421	2923.4264	5534.35	4643.75
1019.2571	2924.5331	5497.75	4606.6
1019.372	2925.6391	5475.65	4584.1
1019.4869	2926.7445	5476.05	4585.35
1019.6017	2927.8493	5466.4	4575.2
1019.7165	2928.9534	5438.75	4547.05
1019.8313	2930.0569	5426.7	4530.65
1019.946	2931.1597	5416	4524.15
1020.0606	2932.2619	5398.2	4505.35
1020.1753	2933.3634	5377.5	4485.7
1020.2899	2934.4643	5375.65	4476.95
1020.4044	2935.5645	5349	4450.85
1020.5189	2936.6641	5297.75	4402.55
1020.6334	2937.763	5235	4345.4
1020.7478	2938.8613	5181.55	4292.25
1020.8622	2939.959	5123.8	4227.05
1020.9765	2941.056	5029.05	4138.6
1021.0908	2942.1523	4934.25	4041.05
1021.2051	2943.248	4863.2	3969.85
1021.3193	2944.3431	4761.15	3868.9
1021.4334	2945.4375	4626.9	3736.7
1021.5476	2946.5313	4529.05	3637.95
1021.6617	2947.6244	4398.5	3505.7
1021.7757	2948.7169	4301.25	3409.85
1021.8897	2949.8087	4210.6	3318.2
1022.0037	2950.8999	4108.2	3217.75
1022.1176	2951.9904	4014.7	3122.8
1022.2315	2953.0803	3934.05	3041.5
1022.3453	2954.1696	3865.6	2975.55
1022.4591	2955.2582	3797.1	2904.7
1022.5728	2956.3462	3738.9	2849.1
1022.6865	2957.4335	3699.65	2806.1
1022.8002	2958.5202	3654.5	2761.05
1022.9138	2959.6062	3625.7	2732.2
1023.0274	2960.6916	3587.15	2696.1
1023.141	2961.7764	3563.15	2670.35
1023.2545	2962.8605	3545.35	2653.9
1023.3679	2963.9439	3514.1	2623.35
1023.4813	2965.0267	3500.05	2607.65
1023.5947	2966.1089	3516.1	2600.5
1023.708	2967.1905	3479.25	2587.05
1023.8213	2968.2714	3468.95	2577.3
1023.9346	2969.3516	3459.9	2567.1
1024.0478	2970.4312	3449.75	2552.6
1024.1609	2971.5102	3440.3	2550.55
1024.274	2972.5885	3443.7	2555.35
1024.3871	2973.6662	3439.5	2542.35
1024.5002	2974.7432	3420.7	2528.5
1024.6132	2975.8196	3400.2	2508.95
1024.7261	2976.8954	3381.75	2491.5
1024.839	2977.9705	3377.8	2487.25
1024.9519	2979.045	3354.75	2462.5
1025.0647	2980.1188	3325.55	2434.3
1025.1775	2981.192	3298.9	2408.3
1025.2902	2982.2645	3277.5	2386.1
1025.4029	2983.3364	3240.45	2348.55
1025.5156	2984.4077	3204.4	2315.2
1025.6282	2985.4783	3181.7	2284.7
1025.7407	2986.5483	3126.25	2234.15
1025.8532	2987.6177	3091.05	2202.95
1025.9657	2988.6864	3047.25	2155.75
1026.0782	2989.7545	3018.95	2126.15
1026.1906	2990.8219	2974.1	2082.85
1026.3029	2991.8887	2932.75	2039.55
1026.4152	2992.9548	2907.15	2016
1026.5275	2994.0204	2860	1969.15
1026.6397	2995.0852	2829.2	1937.5
1026.7519	2996.1495	2802.1	1908.45
1026.864	2997.2131	2776.1	1883.5
1026.9761	2998.276	2754.85	1863.05
1027.0882	2999.3383	2726.6	1834.4
1027.2002	3000.4	2703.85	1811.95
1027.3122	3001.4611	2690.5	1799.3
1027.4241	3002.5215	2657.85	1765.95
1027.536	3003.5812	2644.45	1752.85
1027.6478	3004.6404	2615.9	1723.65
1027.7596	3005.6989	2613.2	1719.5
1027.8714	3006.7567	2601.8	1710.7
1027.9831	3007.8139	2604	1690
1028.0947	3008.8705	2572.55	1681.2
1028.2064	3009.9264	2576.05	1683.45
1028.3179	3010.9818	2549.05	1657.1
1028.4295	3012.0364	2551.25	1660.05
1028.541	3013.0905	2547.1	1656.05
1028.6524	3014.1439	2541.45	1651.3
1028.7638	3015.1966	2535.95	1646.2
1028.8752	3016.2487	2522.35	1630.5
1028.9865	3017.3002	2532.85	1635.1
1029.0978	3018.3511	2508.3	1618.45
1029.209	3019.4013	2504.1	1612.35
1029.3202	3020.4509	2504.3	1614.55
1029.4314	3021.4998	2498.9	1608.6
1029.5425	3022.5481	2491.15	1598.5
1029.6535	3023.5958	2498	1607.5
1029.7645	3024.6428	2485.2	1594.45
1029.8755	3025.6892	2476.8	1585.7
1029.9864	3026.735	2478.55	1586.65
1030.0973	3027.7802	2481.95	1590.05
1030.2082	3028.8247	2470.75	1579.85
1030.319	3029.8685	2461.65	1570.9
1030.4297	3030.9118	2477.65	1586.4
1030.5404	3031.9544	2460.05	1569.5
1030.6511	3032.9963	2464.35	1573.1
1030.7617	3034.0376	2462.35	1571.8
1030.8723	3035.0783	2473.3	1581.35
1030.9829	3036.1184	2469.95	1576.8
1031.0934	3037.1578	2465.5	1575.25
1031.2038	3038.1966	2447.75	1555.55
1031.3142	3039.2348	2452.4	1564.05
1031.4246	3040.2723	2456.85	1556.5
1031.5349	3041.3092	2432.05	1541.65
1031.6452	3042.3455	2442.2	1549.45
1031.7554	3043.3811	2442.1	1549.45
1031.8656	3044.4161	2417.55	1525.35
1031.9758	3045.4505	2405.05	1516.35
1032.0859	3046.4842	2405.05	1514.3
1032.1959	3047.5173	2387	1496.95
1032.3059	3048.5498	2382.35	1490.35
1032.4159	3049.5816	2369.2	1476.75
1032.5258	3050.6128	2350	1458.8
1032.6357	3051.6434	2355.1	1463.7
1032.7455	3052.6734	2334.7	1443.2
1032.8553	3053.7027	2326.9	1437.2
1032.9651	3054.7314	2313.8	1424.65
1033.0748	3055.7594	2304.05	1413.35
1033.1845	3056.7868	2297.7	1404.75
1033.2941	3057.8136	2282	1389.2
1033.4037	3058.8398	2288.75	1396.9
1033.5132	3059.8653	2261.35	1373
1033.6227	3060.8902	2267.6	1376.8
1033.7321	3061.9145	2242.15	1350.8
1033.8415	3062.9381	2237.8	1345.95
1033.9509	3063.9612	2240.1	1333.5
1034.0602	3064.9835	2222.5	1331.2
1034.1694	3066.0053	2214.15	1324.2
1034.2787	3067.0264	2209.4	1319.95
1034.3878	3068.0469	2202.4	1309.6
1034.497	3069.0668	2183.55	1290.4
1034.6061	3070.086	2167.7	1277.75
1034.7151	3071.1046	2153.05	1262.25
1034.8241	3072.1226	2134.3	1243.95
1034.9331	3073.1399	2139.05	1249.35
1035.042	3074.1567	2115.2	1224.35
1035.1508	3075.1727	2114.2	1222.05
1035.2597	3076.1882	2088.6	1197.3
1035.3684	3077.203	2077.55	1185.1
1035.4772	3078.2173	2071.9	1179.4
1035.5859	3079.2308	2056.7	1164
1035.6945	3080.2438	2052.3	1159.8
1035.8031	3081.2561	2033.65	1144.35
1035.9117	3082.2678	2016.45	1127.5
1036.0202	3083.2789	2013.15	1122.75
1036.1286	3084.2893	2003.95	1114.25
1036.2371	3085.2991	1983.85	1093.7
1036.3454	3086.3083	1978.5	1083.3
1036.4538	3087.3169	1971.55	1079.75
1036.562	3088.3248	1960.85	1070.65
1036.6703	3089.3321	1952.15	1058.9
1036.7785	3090.3388	1959	1070
1036.8866	3091.3449	1938.85	1049.05
1036.9948	3092.3503	1931.9	1040.45
1037.1028	3093.3551	1927.45	1038.15
1037.2108	3094.3593	1914	1023.15
1037.3188	3095.3629	1916.95	1027.55
1037.4267	3096.3658	1895.35	1003.15
1037.5346	3097.3681	1902.4	1010.7
1037.6425	3098.3698	1889.8	997.6
1037.7503	3099.3708	1897	999.8
1037.858	3100.3713	1873.6	984.95
1037.9657	3101.3711	1871.2	980.4
1038.0734	3102.3702	1980.2	976.15
1038.181	3103.3688	1866.4	973.1
1038.2886	3104.3667	1856.9	967.95
1038.3961	3105.364	1848	958.75
1038.5036	3106.3607	1833.55	941.2
1038.611	3107.3568	1829.7	936.45
1038.7184	3108.3522	1834.15	942.5
1038.8257	3109.347	1822.25	931.65
1038.933	3110.3412	1826.8	934.3
1039.0403	3111.3348	1809.8	920.3
1039.1475	3112.3277	1802.95	912.6
1039.2547	3113.32	1795.05	904.05
1039.3618	3114.3117	1786	894.95
1039.4689	3115.3028	1779.5	888.85
1039.5759	3116.2932	1780.45	887.4
1039.6829	3117.2831	1785.45	888.55
1039.7898	3118.2723	1769.25	878.35
1039.8967	3119.2608	1771.7	882.3
1040.0035	3120.2488	1762.05	871.75
1040.1103	3121.2361	1768.55	877.6
1040.2171	3122.2229	1747.95	859.75
1040.3238	3123.209	1737.15	845.7
1040.4305	3124.1944	1741.75	850.1
1040.5371	3125.1793	1736.15	843.5
1040.6437	3126.1635	1725.8	836.25
1040.7502	3127.1471	1734	843.5
1040.8567	3128.1301	1724.5	833.75
1040.9631	3129.1125	1721.35	831.2
1041.0695	3130.0942	1712.95	823.6
1041.1759	3131.0753	1720.7	821.6
1041.2822	3132.0558	1709.85	816.9
1041.3884	3133.0357	1704.45	813.75
1041.4946	3134.015	1699.65	809
1041.6008	3134.9936	1690.25	798.55
1041.7069	3135.9716	1705.5	793.15
1041.813	3136.949	1688	797.05
1041.919	3137.9258	1679.7	784.4
1042.025	3138.902	1682	785.25
1042.1309	3139.8775	1670.7	779.5
1042.2368	3140.8524	1671.4	780.5
1042.3427	3141.8267	1657.15	764.85
1042.4485	3142.8004	1663.5	774.3
1042.5542	3143.7735	1670.95	774.45
1042.6599	3144.7459	1667.45	775.2
1042.7656	3145.7178	1645.15	752.85
1042.8712	3146.689	1647.7	757.35
1042.9768	3147.6596	1643	751.75
1043.0823	3148.6295	1636	744.7
1043.1878	3149.5989	1638.25	746.15
1043.2932	3150.5676	1633.3	742.9
1043.3986	3151.5357	1623.85	733.75
1043.5039	3152.5032	1619.6	729.7
1043.6092	3153.4701	1616.1	727.85
1043.7145	3154.4364	1621.95	729.25
1043.8197	3155.402	1606.45	716.55
1043.9248	3156.367	1606.6	713.85
1044.03	3157.3315	1639.9	705.65
1044.135	3158.2952	1602.15	712.55
1044.24	3159.2584	1594.55	706.5
1044.345	3160.221	1594.6	704.7
1044.4499	3161.1829	1586.75	695.55
1044.5548	3162.1442	1579.1	687.3
1044.6596	3163.105	1582.35	690.8
1044.7644	3164.065	1575.75	685.15
1044.8692	3165.0245	1573.75	681.25
1044.9739	3165.9834	1565.7	676.75
1045.0785	3166.9416	1560.55	671.9
1045.1831	3167.8993	1553.3	662.3
1045.2877	3168.8563	1548.05	658.3
1045.3922	3169.8127	1551.7	661.85
1045.4966	3170.7684	1548.25	657.6
1045.6011	3171.7236	1548.15	657.3
1045.7054	3172.6782	1547.1	656.5
1045.8098	3173.6321	1540.95	650.7
1045.914	3174.5854	1530.75	636.4
1046.0183	3175.5381	1529.1	640.2
1046.1224	3176.4902	1525.95	636.15
1046.2266	3177.4417	1515.05	625.6
1046.3307	3178.3926	1517.15	627.35
1046.4347	3179.3428	1515.3	625.75
1046.5387	3180.2924	1512.65	622.9
1046.6427	3181.2415	1502.4	611.95
1046.7466	3182.1899	1504.6	611.7
1046.8504	3183.1377	1501.55	609.8
1046.9542	3184.0848	1497.8	603.85
1047.058	3185.0314	1500.1	609.55
1047.1617	3185.9773	1490.9	599.55
1047.2654	3186.9227	1486.5	598.55
1047.369	3187.8674	1486.15	596.7
1047.4726	3188.8115	1484.8	590.2
1047.5761	3189.755	1481.85	590.45
1047.6796	3190.6979	1473.3	581.6
1047.783	3191.6402	1459.7	569.9
1047.8864	3192.5818	1469.75	577.95
1047.9898	3193.5229	1486.8	573.15
1048.0931	3194.4633	1459.2	568.1
1048.1963	3195.4031	1454.15	564.7
1048.2995	3196.3423	1453.4	560.3
1048.4027	3197.2809	1453.65	563.35
1048.5058	3198.2189	1451.7	563
1048.6089	3199.1563	1457.15	559.7
1048.7119	3200.0931	1441	550.9
1048.8148	3201.0292	1444.05	551.8
1048.9178	3201.9648	1437.85	546.45
1049.0206	3202.8997	1441.6	548.95
1049.1235	3203.834	1429.8	539.85
1049.2262	3204.7677	1427.95	539.45
1049.329	3205.7008	1425	533.55
1049.4317	3206.6333	1423.95	535.75
1049.5343	3207.5652	1424.05	532.9
1049.6369	3208.4964	1416.45	525.25
1049.7394	3209.4271	1411.7	522.85
1049.8419	3210.3571	1414.55	523.25
1049.9444	3211.2865	1409.55	519.4
1050.0468	3212.2154	1405.5	513.75
1050.1491	3213.1436	1411.05	515.9
1050.2514	3214.0712	1409.95	514.6
1050.3537	3214.9982	1400.5	511.35
1050.4559	3215.9246	1398.6	508.3
1050.5581	3216.8503	1395.15	506.35
1050.6602	3217.7755	1397.85	508.2
1050.7623	3218.7001	1400.75	511.05
1050.8643	3219.624	1396.5	505.4
1050.9663	3220.5473	1387	496.5
1051.0682	3221.4701	1385.5	495.05
1051.1701	3222.3922	1386.5	493.35
1051.2719	3223.3137	1376.55	484.55
1051.3737	3224.2346	1378.25	487.55
1051.4754	3225.1549	1376.4	488
1051.5771	3226.0746	1367.7	478.95
1051.6788	3226.9937	1364.05	473.7
1051.7804	3227.9121	1366.7	476.45
1051.8819	3228.83	1365.25	474.4
1051.9834	3229.7473	1365.15	474.15
1052.0849	3230.6639	1362.85	471.35
1052.1863	3231.5799	1356.3	466.35
1052.2876	3232.4954	1351.2	460.8
1052.3889	3233.4102	1349	458.9
1052.4902	3234.3244	1346.75	456.1
1052.5914	3235.238	1343	452.65
1052.6926	3236.151	1362.85	449.7
1052.7937	3237.0634	1337.7	447.15
1052.8948	3237.9752	1331.5	441.95
1052.9958	3238.8864	1327.4	437.4
1053.0968	3239.797	1331.5	442.1
1053.1977	3240.7069	1334.35	445.1
1053.2986	3241.6163	1329.55	437.4
1053.3994	3242.5251	1325.5	437.2
1053.5002	3243.4332	1315.9	425.95
1053.6009	3244.3408	1320.55	430.05
1053.7016	3245.2477	1316.2	425.65
1053.8022	3246.154	1313.3	420.9
1053.9028	3247.0598	1308.65	416.95
1054.0034	3247.9649	1309.1	420.1
1054.1039	3248.8694	1305.05	415.75
1054.2043	3249.7733	1303.5	413.9
1054.3047	3250.6766	1306.45	415.85
1054.4051	3251.5793	1300.1	410.1
1054.5054	3252.4814	1295.6	404.25
1054.6056	3253.3829	1294.2	403.85
1054.7058	3254.2838	1289	401.05
1054.806	3255.1841	1287.2	396.9
1054.9061	3256.0838	1285.85	395.95
1055.0061	3256.9829	1282.3	394.35
1055.1062	3257.8814	1275.95	385.05
1055.2061	3258.7792	1278.95	386.25
1055.306	3259.6765	1276.45	383
1055.4059	3260.5731	1265.95	377.05
1055.5057	3261.4692	1263.65	371.55
1055.6055	3262.3647	1250.8	361.7
1055.7052	3263.2595	1248.25	358.2
1055.8049	3264.1538	1244.35	355.6
1055.9045	3265.0474	1248.05	359.85
1056.0041	3265.9404	1239.7	348.95
1056.1036	3266.8329	1231.7	341.15
1056.2031	3267.7247	1233.15	333.05
1056.3025	3268.616	1211.15	320.85
1056.4019	3269.5066	1206.8	318.05
1056.5013	3270.3966	1202.45	311.45
1056.6005	3271.286	1193.35	303.85
